# multipoles
# s[mm] polynom_b[n=0][T/m^n] polynom_b[n=1][T/m^n] polynom_b[n=2][T/m^n] polynom_b[n=3][T/m^n] polynom_b[n=4][T/m^n] polynom_b[n=5][T/m^n] polynom_b[n=6][T/m^n] 
+0.0000000000000000e+00 -5.6465565044931343e-01 +7.7333366649072497e+00 -6.7914494070520826e-01 -6.8190715674848377e+01 +1.3953266855207080e+03 +7.9420589536040919e+04 -1.7029522166560959e+07 
+1.0000000000000001e-01 -5.6465569514200120e-01 +7.7333485148977390e+00 -6.7384063195753030e-01 -6.8435076843027929e+01 +1.2809747520225349e+03 +8.0614045776096507e+04 -1.6473629958780751e+07 
+2.0000000000000001e-01 -5.6465575370811416e-01 +7.7333589081579017e+00 -6.6740175442967675e-01 -6.8660987086495950e+01 +1.1493867554134486e+03 +8.1844628081762421e+04 -1.5849017885808202e+07 
+2.9999999999999999e-01 -5.6465582496187738e-01 +7.7333679374132531e+00 -6.5995368498851636e-01 -6.8868722382788675e+01 +1.0025156176434753e+03 +8.3100435001208214e+04 -1.5163512333508518e+07 
+4.0000000000000002e-01 -5.6465590771754326e-01 +7.7333756953867656e+00 -6.5162179875628612e-01 -6.9058558642755827e+01 +8.4231422224281130e+02 +8.4369564738782356e+04 -1.4424939495492175e+07 
+5.0000000000000000e-01 -5.6465600078927580e-01 +7.7333822747957095e+00 -6.4253147118541787e-01 -6.9230771607114619e+01 +6.7073545522745110e+02 +8.5640114510224434e+04 -1.3641125570868049e+07 
+5.9999999999999998e-01 -5.6465610299127711e-01 +7.7333877683596732e+00 -6.3280807914918769e-01 -6.9385637105595578e+01 +4.8973222240147345e+02 +8.6900182124485014e+04 -1.2819896835925797e+07 
+6.9999999999999996e-01 -5.6465621313787195e-01 +7.7333922687871341e+00 -6.2257699511895070e-01 -6.9523430638217235e+01 +3.0125734621418468e+02 +8.8137863443975890e+04 -1.1969079171866622e+07 
+8.0000000000000004e-01 -5.6465633004316962e-01 +7.7333958688008071e+00 -6.1196359679561940e-01 -6.9644428127376827e+01 +1.0726374435473423e+02 +8.9341256797158087e+04 -1.1096498902601125e+07 
+9.0000000000000002e-01 -5.6465645252139895e-01 +7.7333986611082315e+00 -6.0109326141411323e-01 -6.9748905056564510e+01 -9.0295674245410666e+01 +9.0498457951425517e+04 -1.0209982307474351e+07 
+1.0000000000000000e+00 -5.6465657938681657e-01 +7.7334007384309311e+00 -5.9009136260806105e-01 -6.9837137315696282e+01 -2.8946806731776633e+02 +9.1597564992550178e+04 -9.3173553531170655e+06 
+1.1000000000000001e+00 -5.6465670945355562e-01 +7.7334021934901083e+00 -5.7908327917369606e-01 -6.9909400796991477e+01 -4.8830049376728761e+02 +9.2626676019223960e+04 -8.4264444733692445e+06 
+1.2000000000000000e+00 -5.6465684153587170e-01 +7.7334031190070904e+00 -5.6819438912432019e-01 -6.9965971390541043e+01 -6.8484002459255544e+02 +9.3573889043594347e+04 -7.5450760459112180e+06 
+1.3000000000000000e+00 -5.6465697444792440e-01 +7.7334036077165127e+00 -5.5755006857021927e-01 -7.0007125370155222e+01 -8.7713376195533738e+02 +9.4427304234539581e+04 -6.6810763093482023e+06 
+1.3999999999999999e+00 -5.6465710700390104e-01 +7.7334037523518306e+00 -5.4727570167121742e-01 -7.0033138986252709e+01 -1.0632286480407115e+03 +9.5175021588247269e+04 -5.8422722734076828e+06 
+1.5000000000000000e+00 -5.6465723801804812e-01 +7.7334036456603537e+00 -5.3749666537674567e-01 -7.0044288885504798e+01 -1.2411717582739836e+03 +9.5805143300862386e+04 -5.0364903156712772e+06 
+1.6000000000000001e+00 -5.6465736630450536e-01 +7.7334033803937903e+00 -5.2833834369647859e-01 -7.0040851845127051e+01 -1.4090100265199426e+03 +9.6305772240593331e+04 -4.2715574970525866e+06 
+1.7000000000000000e+00 -5.6465749067745685e-01 +7.7334030493132540e+00 -5.1992611608705008e-01 -7.0023104910242267e+01 -1.5647904625040326e+03 +9.6665012719955092e+04 -3.5553005349822585e+06 
+1.8000000000000000e+00 -5.6465760995108905e-01 +7.7334027451952947e+00 -5.1238537313413646e-01 -6.9991325578923878e+01 -1.7065598537160211e+03 +9.6870971577523902e+04 -2.8955472215728345e+06 
+1.8999999999999999e+00 -5.6465772293956551e-01 +7.7334025608257830e+00 -5.0584149570764025e-01 -6.9945791610247880e+01 -1.8323651602067207e+03 +9.6911757024613908e+04 -2.3001245451620403e+06 
+2.0000000000000000e+00 -5.6465782845707857e-01 +7.7334025890015283e+00 -5.0041987551118094e-01 -6.9886781086761374e+01 -1.9402531266768463e+03 +9.6775479049838017e+04 -1.7768605295765225e+06 
+2.1000000000000001e+00 -5.6465792564249662e-01 +7.7334028999835214e+00 -4.9620918658003482e-01 -6.9814695900561944e+01 -2.0288488390580353e+03 +9.6454637135263751e+04 -1.3312610701374589e+06 
+2.2000000000000002e+00 -5.6465801487871659e-01 +7.7334034742919222e+00 -4.9315698025463844e-01 -6.9730400979288234e+01 -2.0989977473716785e+03 +9.5958769675408970e+04 -9.5995199592968216e+05 
+2.2999999999999998e+00 -5.6465809684650703e-01 +7.7334042701721284e+00 -4.9117689690758215e-01 -6.9634870610439890e+01 -2.1520782480461862e+03 +9.5301558166052651e+04 -6.5743611235192732e+05 
+2.3999999999999999e+00 -5.6465817222674175e-01 +7.7334052458667735e+00 -4.9018257414245953e-01 -6.9529078998791491e+01 -2.1894687910940002e+03 +9.4496683640093601e+04 -4.1821596917983767e+05 
+2.5000000000000000e+00 -5.6465824170018886e-01 +7.7334063596142828e+00 -4.9008765198958065e-01 -6.9414000221090504e+01 -2.2125477812803083e+03 +9.3557826407962741e+04 -2.3679433296538139e+05 
+2.6000000000000001e+00 -5.6465830594763411e-01 +7.7334075696556219e+00 -4.9080577106130358e-01 -6.9290608430976590e+01 -2.2226936150890629e+03 +9.2498667285434974e+04 -1.0767400716470269e+05 
+2.7000000000000002e+00 -5.6465836564990524e-01 +7.7334088342249823e+00 -4.9225056670502149e-01 -6.9159877587577824e+01 -2.2212847891820052e+03 +9.1332886024281150e+04 -2.5357322954414933e+04 
+2.7999999999999998e+00 -5.6465842148779177e-01 +7.7334101115515077e+00 -4.9433567823054753e-01 -6.9022781488412207e+01 -2.2096997310899983e+03 +9.0074161461105832e+04 +1.5653069680507337e+04 
+2.8999999999999999e+00 -5.6465847414208392e-01 +7.7334113598634113e+00 -4.9697474444878581e-01 -6.8880293910774441e+01 -2.1893168775929139e+03 +8.8736172417300302e+04 +2.0854555827514348e+04 
+3.0000000000000000e+00 -5.6465852429360008e-01 +7.7334125373790279e+00 -5.0008139977246524e-01 -6.8733388339771793e+01 -2.1615147564834942e+03 +8.7332596083920114e+04 -4.2550338464170873e+03 
+3.1000000000000001e+00 -5.6465857262314212e-01 +7.7334136023136990e+00 -5.0356928031088988e-01 -6.8583038169650550e+01 -2.1276718648184460e+03 +8.5877109218685422e+04 -5.4178020566208557e+04 
+3.2000000000000002e+00 -5.6465861981150445e-01 +7.7334145128738401e+00 -5.0735202174026972e-01 -6.8430216531480909e+01 -2.0891667170878941e+03 +8.4383387142536652e+04 -1.2341662886280948e+05 
+3.2999999999999998e+00 -5.6465866653951480e-01 +7.7334152272575212e+00 -5.1134325519062451e-01 -6.8275896316225328e+01 -2.0473779158538473e+03 +8.2865103911952858e+04 -2.0647267035246245e+05 
+3.3999999999999999e+00 -5.6465871348794827e-01 +7.7334157036563846e+00 -5.1545661704493984e-01 -6.8121050217743260e+01 -2.0036839731153666e+03 +8.1335932532814331e+04 -2.9784837606928585e+05 
+3.5000000000000000e+00 -5.6465876133763970e-01 +7.7334159002501028e+00 -5.1960573525449805e-01 -6.7966650576028499e+01 -1.9594635687668481e+03 +7.9809544083661094e+04 -3.9204516942304396e+05 
+3.6000000000000001e+00 -5.6465881076942259e-01 +7.7334157752103403e+00 -5.2370424058669895e-01 -6.7813669504378680e+01 -1.9160953335571244e+03 +7.8299608484335171e+04 -4.8356471166699310e+05 
+3.7000000000000002e+00 -5.6465886246405561e-01 +7.7334152866979542e+00 -5.2766576095763917e-01 -6.7663078790230941e+01 -1.8749579641039968e+03 +7.6819793893070077e+04 -5.6690833475808566e+05 
+3.7999999999999998e+00 -5.6465891710238614e-01 +7.7334143928596681e+00 -5.3140392297005590e-01 -6.7515849805323384e+01 -1.8374301881803365e+03 +7.5383766202556508e+04 -6.3657722121973045e+05 
+3.8999999999999999e+00 -5.6465897536525622e-01 +7.7334130518295678e+00 -5.3483235220053105e-01 -6.7372953551719007e+01 -1.8048907642951006e+03 +7.4005189337281190e+04 -6.8707239522119251e+05 
+4.0000000000000000e+00 -5.6465903793343264e-01 +7.7334112217312105e+00 -5.3786467180569930e-01 -6.7235360729735675e+01 -1.7787185079242695e+03 +7.2697725654156195e+04 -7.1289459805469157e+05 
+4.0999999999999996e+00 -5.6465910534544994e-01 +7.7334088812700630e+00 -5.4043468555205232e-01 -6.7104121519416324e+01 -1.7599658761629644e+03 +7.1473866654090409e+04 -7.0987228171996609e+05 
+4.2000000000000002e+00 -5.6465917761847884e-01 +7.7334060891428500e+00 -5.4255062677568877e-01 -6.6980602751089592e+01 -1.7484857944521275e+03 +7.0341611411913880e+04 -6.7868585307115410e+05 
+4.2999999999999998e+00 -5.6465925465050282e-01 +7.7334029233931645e+00 -5.4423789106611142e-01 -6.6866248208310182e+01 -1.7438555965737278e+03 +6.9307872103807909e+04 -6.2112366429398058e+05 
+4.4000000000000004e+00 -5.6465933633938115e-01 +7.7333994620712074e+00 -5.4552187560835885e-01 -6.6762501865494471e+01 -1.7456525833110959e+03 +6.8379562027258216e+04 -5.3897423585551197e+05 
+4.5000000000000000e+00 -5.6465942258309465e-01 +7.7333957832231972e+00 -5.4642797652792430e-01 -6.6670807582609243e+01 -1.7534540765313875e+03 +6.7563593838628687e+04 -4.3402598862825584e+05 
+4.5999999999999996e+00 -5.6465951327956099e-01 +7.7333919648996696e+00 -5.4698158390131923e-01 -6.6592609348489063e+01 -1.7668375095646361e+03 +6.6866880968995218e+04 -3.0806682804670633e+05 
+4.7000000000000002e+00 -5.6465960832677575e-01 +7.7333880851511374e+00 -5.4720809243836543e-01 -6.6529351141988087e+01 -1.7853802259769104e+03 +6.6296336782504455e+04 -1.6288509371463599e+05 
+4.7999999999999998e+00 -5.6465970762264706e-01 +7.7333842220295281e+00 -5.4713289362120998e-01 -6.6482476992024274e+01 -1.8086596302922783e+03 +6.5858874969927652e+04 -2.6884173373314127e+02 
+4.9000000000000004e+00 -5.6465981106522412e-01 +7.7333804535889943e+00 -5.4678137579633124e-01 -6.6453430988455281e+01 -1.8362531839612020e+03 +6.5561409579710744e+04 +1.7799413330022749e+05 
+5.0000000000000000e+00 -5.6465991855243935e-01 +7.7333768578891178e+00 -5.4617892790916378e-01 -6.6443657378661285e+01 -1.8677383352334887e+03 +6.5410855585087542e+04 +3.7011596398238058e+05 
+5.0999999999999996e+00 -5.6466002998236098e-01 +7.7333735129842864e+00 -5.4535093603884466e-01 -6.6454600261144208e+01 -1.9026925859347371e+03 +6.5414127106036482e+04 +5.7430903151710192e+05 
+5.2000000000000002e+00 -5.6466014525296604e-01 +7.7333704969369546e+00 -5.4432278797449529e-01 -6.6487703968871287e+01 -1.9406933993252310e+03 +6.5578139637357497e+04 +7.8878551399877830e+05 
+5.2999999999999998e+00 -5.6466026426230553e-01 +7.7333678878101964e+00 -5.4311986550300850e-01 -6.6544412852671115e+01 -1.9813183535903520e+03 +6.5909808780666222e+04 +1.0117581341006178e+06 
+5.4000000000000004e+00 -5.6466038690842257e-01 +7.7333657636724178e+00 -5.4176755193791104e-01 -6.6626171412291797e+01 -2.0241449946070227e+03 +6.6416050984727684e+04 +1.2414394491484673e+06 
+5.5000000000000000e+00 -5.6466051308936016e-01 +7.7333642025889082e+00 -5.4029122764169013e-01 -6.6734424073801080e+01 -2.0687509185812414e+03 +6.7103782327929395e+04 +1.4760422349387635e+06 
+5.5999999999999996e+00 -5.6466064270325256e-01 +7.7333632826321947e+00 -5.3871627216383167e-01 -6.6870615454261213e+01 -2.1147137378786833e+03 +6.7979919942439112e+04 +1.7137793442256462e+06 
+5.7000000000000002e+00 -5.6466077564817763e-01 +7.7333630818820920e+00 -5.3706806193239254e-01 -6.7036190399010522e+01 -2.1616111196837960e+03 +6.9051382334231617e+04 +1.9528638728499119e+06 
+5.7999999999999998e+00 -5.6466091182224221e-01 +7.7333636784144382e+00 -5.3537197380244994e-01 -6.7232593631632341e+01 -2.2090207201927024e+03 +7.0325087275619167e+04 +2.1915088544874201e+06 
+5.9000000000000004e+00 -5.6466105112358234e-01 +7.7333651503118510e+00 -5.3365338161793219e-01 -6.7461270072593805e+01 -2.2565202470240738e+03 +7.1807953685645247e+04 +2.4279275471737999e+06 
+5.9999999999999902e+00 -5.6466119345035837e-01 +7.7333675756598952e+00 -5.3193765663739101e-01 -6.7723664664829798e+01 -2.3036874469323557e+03 +7.3506900392478492e+04 +2.6603333548147054e+06 
+6.0999999999999899e+00 -5.6466133874603219e-01 +7.7333710323256923e+00 -5.3024789901834024e-01 -6.8020828830722692e+01 -2.3501328311550128e+03 +7.5425414823296480e+04 +2.8870784370829938e+06 
+6.1999999999999904e+00 -5.6466148710411790e-01 +7.7333755976250789e+00 -5.2860031083063408e-01 -6.8352443724405404e+01 -2.3955744886149705e+03 +7.7555012950497025e+04 +3.1070186280196374e+06 
+6.2999999999999901e+00 -5.6466163864915742e-01 +7.7333813487852892e+00 -5.2700980756397786e-01 -6.8717890043523042e+01 -2.4397526368853719e+03 +7.9884580198644428e+04 +3.3191246564794467e+06 
+6.3999999999999897e+00 -5.6466179350567924e-01 +7.7333883630313691e+00 -5.2549130869903760e-01 -6.9116548428224064e+01 -2.4824073997257474e+03 +8.2403001607853832e+04 +3.5223667764612213e+06 
+6.4999999999999902e+00 -5.6466195179824608e-01 +7.7333967175988754e+00 -5.2405973182432641e-01 -6.9547799831893627e+01 -2.5232789249116859e+03 +8.5099163998045857e+04 +3.7157153493679911e+06 
+6.5999999999999899e+00 -5.6466211365139385e-01 +7.7334064897166215e+00 -5.2272999975797951e-01 -7.0011025034955168e+01 -2.5621072487700812e+03 +8.7961953184950689e+04 +3.8981401975447382e+06 
+6.6999999999999904e+00 -5.6466227918967216e-01 +7.7334177566281168e+00 -5.2151703680478900e-01 -7.0505605242531885e+01 -2.5986323593463467e+03 +9.0980257364853736e+04 +4.0686108852260560e+06 
+6.7999999999999901e+00 -5.6466244853769720e-01 +7.7334305955675928e+00 -5.2043576431617089e-01 -7.1030921416952609e+01 -2.6325942891479108e+03 +9.4142963337270732e+04 +4.2260971822781973e+06 
+6.8999999999999897e+00 -5.6466262181999161e-01 +7.7334450837847823e+00 -5.1950110795823357e-01 -7.1586354975310115e+01 -2.6637329706826931e+03 +9.7438960464738906e+04 +4.3695683634680239e+06 
+6.9999999999999902e+00 -5.6466279916116735e-01 +7.7334612985273052e+00 -5.1872799508364453e-01 -7.2171287296792727e+01 -2.6917882894524805e+03 +1.0085713788133409e+05 +4.4979934666426778e+06 
+7.0999999999999899e+00 -5.6466298068581067e-01 +7.7334793170442193e+00 -5.1813135572296465e-01 -7.2785099797946728e+01 -2.7165000617511382e+03 +1.0438638483821996e+05 +4.6103411808356661e+06 
+7.1999999999999904e+00 -5.6466316651853121e-01 +7.7334992165943799e+00 -5.1772611976791738e-01 -7.3427174215940283e+01 -2.7376080893810631e+03 +1.0801559246309870e+05 +4.7055801098562749e+06 
+7.2999999999999901e+00 -5.6466335678396318e-01 +7.7335210744347194e+00 -5.1752722080496194e-01 -7.4096892235058149e+01 -2.7548520852633555e+03 +1.1173365149226165e+05 +4.7826784175829403e+06 
+7.3999999999999897e+00 -5.6466355160666559e-01 +7.7335449678327093e+00 -5.1754959375160703e-01 -7.4793635862804379e+01 -2.7679717211635416e+03 +1.1552945449232911e+05 +4.8406040601327885e+06 
+7.4999999999999902e+00 -5.6466375111133549e-01 +7.7335709740561809e+00 -5.1780817427442061e-01 -7.5516787136272256e+01 -2.7767066310608288e+03 +1.1939189415441717e+05 +4.8783247849826440e+06 
+7.5999999999999899e+00 -5.6466395542253478e-01 +7.7335991703761895e+00 -5.1831790327755189e-01 -7.6265728201474545e+01 -2.7807963338044142e+03 +1.2330986374488972e+05 +4.8948077833008524e+06 
+7.6999999999999904e+00 -5.6466416466496183e-01 +7.7336296340698549e+00 -5.1909371914024949e-01 -7.7039841394328803e+01 -2.7799803743351999e+03 +1.2727225756827301e+05 +4.8890203487286558e+06 
+7.7999999999999901e+00 -5.6466437896324551e-01 +7.7336624424225295e+00 -5.2015056857635722e-01 -7.7838509316626713e+01 -2.7739981172460912e+03 +1.3126797143256839e+05 +4.8599288924320610e+06 
+7.8999999999999897e+00 -5.6466459844208838e-01 +7.7336976727181872e+00 -5.2150339579166205e-01 -7.8661114540552475e+01 -2.7625889574743715e+03 +1.3528590089616377e+05 +4.8064999617911568e+06 
+7.9999999999999902e+00 -5.6466482322613176e-01 +7.7337354022381355e+00 -5.2316715171335781e-01 -7.9507039893798776e+01 -2.7454921521270667e+03 +1.3931494422502685e+05 +4.7276995259973528e+06 
+8.0999999999999908e+00 -5.6466505348133289e-01 +7.7337756371699617e+00 -5.2514716939005113e-01 -8.0374865749915870e+01 -2.7226052573923625e+03 +1.4334301334857079e+05 +4.6231729484131979e+06 
+8.1999999999999904e+00 -5.6466528951820838e-01 +7.7338181424061219e+00 -5.2741265655770708e-01 -8.1260475884358783e+01 -2.6944080825500778e+03 +1.4735473148734277e+05 +4.4949697584428247e+06 
+8.2999999999999901e+00 -5.6466553167882894e-01 +7.7338626316328885e+00 -5.2992442690465114e-01 -8.2159193044837338e+01 -2.6615133217090797e+03 +1.5133409248802514e+05 +4.3456698735295590e+06 
+8.3999999999999897e+00 -5.6466578030511971e-01 +7.7339088185222780e+00 -5.3264329923640674e-01 -8.3066339569773788e+01 -2.6245335992613082e+03 +1.5526508782023817e+05 +4.1778529415195254e+06 
+8.4999999999999893e+00 -5.6466603573907026e-01 +7.7339564167423855e+00 -5.3553009431529675e-01 -8.3977237726121601e+01 -2.5840815370446221e+03 +1.5913170865756102e+05 +3.9940986769052562e+06 
+8.5999999999999908e+00 -5.6466629832253024e-01 +7.7340051399493257e+00 -5.3854563311680936e-01 -8.4887209442588926e+01 -2.5407697860389389e+03 +1.6291794421920736e+05 +3.7969870090419627e+06 
+8.6999999999999904e+00 -5.6466656839738649e-01 +7.7340547017889874e+00 -5.4165074234927180e-01 -8.5791576378081743e+01 -2.4952109201993253e+03 +1.6660778223892089e+05 +3.5890975712272683e+06 
+8.7999999999999794e+00 -5.6466684630539177e-01 +7.7341048158947947e+00 -5.4480625103629232e-01 -8.6685659857413668e+01 -2.4480175070115811e+03 +1.7018520857266485e+05 +3.3730100519341356e+06 
+8.8999999999999808e+00 -5.6466713238826083e-01 +7.7341551958916801e+00 -5.4797298853139487e-01 -8.7564780984496394e+01 -2.3998021471756351e+03 +1.7363420786494267e+05 +3.1513043880416700e+06 
+8.9999999999999805e+00 -5.6466742698769412e-01 +7.7342055553921458e+00 -5.5111179355215578e-01 -8.8424260530318250e+01 -2.3511772931459554e+03 +1.7693876290228471e+05 +2.9265598745318768e+06 
+9.0999999999999801e+00 -5.6466773044530572e-01 +7.7342556079953493e+00 -5.5418349996083205e-01 -8.9259418900822595e+01 -2.3027555358673103e+03 +1.8008285439763725e+05 +2.7013565726300641e+06 
+9.1999999999999797e+00 -5.6466804310261476e-01 +7.7343050672894407e+00 -5.5714894949339600e-01 -9.0065576210813958e+01 -2.2551493532599402e+03 +1.8305046145533572e+05 +2.4782740861654705e+06 
+9.2999999999999794e+00 -5.6466836530118147e-01 +7.7343536468552720e+00 -5.5996898474543411e-01 -9.0838052388424146e+01 -2.2089712483725111e+03 +1.8582556216169908e+05 +2.2598922319710781e+06 
+9.3999999999999808e+00 -5.6466869738237002e-01 +7.7344010602546307e+00 -5.6260445782314172e-01 -9.1572166844422114e+01 -2.1648335863326538e+03 +1.8839213168658214e+05 +2.0487902676440065e+06 
+9.4999999999999805e+00 -5.6466903968755244e-01 +7.7344470210393270e+00 -5.6501621525444512e-01 -9.2263238718890022e+01 -2.1233488796296010e+03 +1.9073414368463543e+05 +1.8475482423739349e+06 
+9.5999999999999801e+00 -5.6466939255807524e-01 +7.7344912427440677e+00 -5.6716511210308218e-01 -9.2906586691485401e+01 -2.0851295250320227e+03 +1.9283556923273031e+05 +1.6587457599164208e+06 
+9.6999999999999797e+00 -5.6466975633510630e-01 +7.7345334388999722e+00 -5.6901200708442079e-01 -9.3497529365920258e+01 -2.0507878945527295e+03 +1.9468037903473599e+05 +1.4849624070606011e+06 
+9.7999999999999794e+00 -5.6467013135987665e-01 +7.7345733230117517e+00 -5.7051775995516374e-01 -9.4031384608463583e+01 -2.0209363859697980e+03 +1.9625253959372110e+05 +1.3287779925102761e+06 
+9.8999999999999808e+00 -5.6467051797344159e-01 +7.7346106085785991e+00 -5.7164323666069372e-01 -9.4503470152013691e+01 -1.9961873274278469e+03 +1.9753601670870528e+05 +1.1927721010181687e+06 
+9.9999999999999805e+00 -5.6467091651669976e-01 +7.7346450091069636e+00 -5.7234930947045681e-01 -9.4909103833228727e+01 -1.9771530219201604e+03 +1.9851477549905947e+05 +1.0795243143058717e+06 
+1.0100000000000000e+01 -5.6467132702455169e-01 +7.7346762752667662e+00 -5.7261516825427572e-01 -9.5244289990139620e+01 -1.9641952861831062e+03 +1.9917486162771570e+05 +9.9063932307123078e+05 
