# multipoles
# s[mm] polynom_b[n=0][T/m^n] polynom_b[n=1][T/m^n] polynom_b[n=2][T/m^n] polynom_b[n=3][T/m^n] polynom_b[n=4][T/m^n] polynom_b[n=5][T/m^n] polynom_b[n=6][T/m^n] 
+0.0000000000000000e+00 -5.9232521287514017e-01 +8.1041871591085304e+00 -2.8658571027088625e-01 +6.1175067119069098e+01 -1.5534318873719167e+03 -5.0719496964574035e+05 -5.7608781640547458e+06 
+1.0000000000000001e-01 -5.9232538012804126e-01 +8.1041657038805592e+00 -2.8200008523042780e-01 +6.1632024875422680e+01 -1.6663620654979488e+03 -5.0938398849780078e+05 -5.2633181424899213e+06 
+2.0000000000000001e-01 -5.9232555309678492e-01 +8.1041414555181603e+00 -2.7708097866309100e-01 +6.2135768203722193e+01 -1.7863823223783772e+03 -5.1177582172721508e+05 -4.7297873412263030e+06 
+3.0000000000000004e-01 -5.9232573128397981e-01 +8.1041147182596056e+00 -2.7186043443699431e-01 +6.2681267348869689e+01 -1.9127954487417785e+03 -5.1434836161736865e+05 -4.1636160178758474e+06 
+4.0000000000000002e-01 -5.9232591419222347e-01 +8.1040857963330879e+00 -2.6637049702617188e-01 +6.3263492860457930e+01 -2.0449042289253598e+03 -5.1707950228923094e+05 -3.5681344475482437e+06 
+5.0000000000000000e-01 -5.9232610132411490e-01 +8.1040549939767246e+00 -2.6064321102800780e-01 +6.3877415013187218e+01 -2.1820114442307909e+03 -5.1994713634369947e+05 -2.9466729213058203e+06 
+5.9999999999999998e-01 -5.9232629218225830e-01 +8.1040226154218988e+00 -2.5471061929804789e-01 +6.4518004275566923e+01 -2.3234199158253668e+03 -5.2292915753304760e+05 -2.3025615235908888e+06 
+6.9999999999999996e-01 -5.9232648626921136e-01 +8.1039889648996386e+00 -2.4860477094273470e-01 +6.5180231119377510e+01 -2.4684323433685436e+03 -5.2600345963999571e+05 -1.6391309232436188e+06 
+7.9999999999999993e-01 -5.9232668308758973e-01 +8.1039543466514310e+00 -2.4235770775970830e-01 +6.5859065714639470e+01 -2.6163515676214156e+03 -5.2914793473817222e+05 -9.5971111067018483e+05 
+8.9999999999999991e-01 -5.9232688213998075e-01 +8.1039190649028416e+00 -2.3600147480233738e-01 +6.6549478682326253e+01 -2.7664803685978550e+03 -5.3234047751313495e+05 -2.6763236213892710e+05 
+9.9999999999999989e-01 -5.9232708292896896e-01 +8.1038834238937802e+00 -2.2956811816688702e-01 +6.7246440222926637e+01 -2.9181215031014221e+03 -5.3555898022555024e+05 +4.3377492865886231e+05 
+1.0999999999999999e+00 -5.9232728495717035e-01 +8.1038477278596996e+00 -2.2308968009207197e-01 +6.7944920637400372e+01 -3.0705778020761268e+03 -5.3878133567488717e+05 +1.1411807249373037e+06 
+1.2000000000000000e+00 -5.9232748772719279e-01 +8.1038122810369959e+00 -2.1659820395335891e-01 +6.8639890195386826e+01 -3.2231520741186114e+03 -5.4198543648694467e+05 +1.8512548837051294e+06 
+1.3000000000000000e+00 -5.9232769074165359e-01 +8.1037773876634933e+00 -2.1012573295408374e-01 +6.9326319089795689e+01 -3.3751471257816806e+03 -5.4514917477415979e+05 +2.5606672407713071e+06 
+1.4000000000000001e+00 -5.9232789350319681e-01 +8.1037433519790341e+00 -2.0370430716828944e-01 +6.9999177448957653e+01 -3.5258658221190949e+03 -5.4825044228297973e+05 +3.2660879102771608e+06 
+1.5000000000000002e+00 -5.9232809551445964e-01 +8.1037104782261569e+00 -1.9736596867038633e-01 +7.0653435275220829e+01 -3.6746109845853225e+03 -5.5126712991260330e+05 +3.9641867884750972e+06 
+1.6000000000000003e+00 -5.9232829627813532e-01 +8.1036790706449189e+00 -1.9114275314935811e-01 +7.1284062626663001e+01 -3.8206855529048189e+03 -5.5417712887080293e+05 +4.6516343291728571e+06 
+1.7000000000000004e+00 -5.9232849529686771e-01 +8.1036494334842022e+00 -1.8506670324672056e-01 +7.1886029265930318e+01 -3.9633923295935278e+03 -5.5695832855694823e+05 +5.3251003236188879e+06 
+1.8000000000000005e+00 -5.9232869207338645e-01 +8.1036218709891568e+00 -1.7916985245155248e-01 +7.2454305019980012e+01 -4.1020342831068510e+03 -5.5958861864790367e+05 +5.9812553362102509e+06 
+1.9000000000000006e+00 -5.9232888611042034e-01 +8.1035966874111391e+00 -1.7348423494961307e-01 +7.2983859500311340e+01 -4.2359143647761512e+03 -5.6204588748002960e+05 +6.6167698434109017e+06 
+2.0000000000000004e+00 -5.9232907691071823e-01 +8.1035741870014029e+00 -1.6804188433019862e-01 +7.3469662285297844e+01 -4.3643355287912109e+03 -5.6430802312984352e+05 +7.2283143199775312e+06 
+2.1000000000000005e+00 -5.9232926416061293e-01 +8.1035546103968681e+00 -1.6286851148413881e-01 +7.3907732736459863e+01 -4.4867268175955032e+03 -5.6635783224717493e+05 +7.8131330455582105e+06 
+2.2000000000000006e+00 -5.9232944827778866e-01 +8.1035379441828326e+00 -1.5796409225749339e-01 +7.4298329322723973e+01 -4.6030275062742194e+03 -5.6819795114152657e+05 +8.3707908706439491e+06 
+2.3000000000000007e+00 -5.9232962986200821e-01 +8.1035241115250969e+00 -1.5332206082895924e-01 +7.4642780139261646e+01 -4.7133058657184265e+03 -5.6983601154941425e+05 +8.9014389140104819e+06 
+2.4000000000000008e+00 -5.9232980951305247e-01 +8.1035130355903622e+00 -1.4893584948044075e-01 +7.4942413246937704e+01 -4.8176301974285452e+03 -5.7127964499331242e+05 +9.4052284254160486e+06 
+2.5000000000000009e+00 -5.9232998783072000e-01 +8.1035046395454753e+00 -1.4479888864732399e-01 +7.5198556655680264e+01 -4.9160688366134700e+03 -5.7253648257372528e+05 +9.8823108138702568e+06 
+2.6000000000000010e+00 -5.9233016541480299e-01 +8.1034988465571853e+00 -1.4090461032389520e-01 +7.5412538368022851e+01 -5.0086900820844839e+03 -5.7361415534362907e+05 +1.0332837297640434e+07 
+2.7000000000000011e+00 -5.9233034286510211e-01 +8.1034955797939006e+00 -1.3724644537924818e-01 +7.5585686293294145e+01 -5.0955622514459392e+03 -5.7452029367590614e+05 +1.0756959177405935e+07 
+2.8000000000000012e+00 -5.9233052078140713e-01 +8.1034947624231322e+00 -1.3381782711010554e-01 +7.5719328341074970e+01 -5.1767536086960017e+03 -5.7526252789041086e+05 +1.1154827480447151e+07 
+2.9000000000000012e+00 -5.9233069976351205e-01 +8.1034963176124233e+00 -1.3061218817811801e-01 +7.5814792395336568e+01 -5.2523324286091174e+03 -5.7584848809277185e+05 +1.1526593282019036e+07 
+3.0000000000000013e+00 -5.9233088041123294e-01 +8.1035001685294326e+00 -1.2762295895190437e-01 +7.5873406299536200e+01 -5.3223670233183020e+03 -5.7628580404844473e+05 +1.1872407818080267e+07 
+3.1000000000000014e+00 -5.9233106332435903e-01 +8.1035062383436411e+00 -1.2484357386900240e-01 +7.5896497822541562e+01 -5.3869256210051062e+03 -5.7658210503045714e+05 +1.2192421908042742e+07 
+3.2000000000000015e+00 -5.9233124910270196e-01 +8.1035144502204588e+00 -1.2226746452877316e-01 +7.5885394807316175e+01 -5.4460765015076877e+03 -5.7674502062117378e+05 +1.2486786610631905e+07 
+3.3000000000000016e+00 -5.9233143834605406e-01 +8.1035247273252331e+00 -1.1988806558117482e-01 +7.5841425075821263e+01 -5.4998878802374720e+03 -5.7678218021457735e+05 +1.2755652661096791e+07 
+3.4000000000000017e+00 -5.9233163165419578e-01 +8.1035369928275802e+00 -1.1769881342381941e-01 +7.5765916295419103e+01 -5.5484279328451830e+03 -5.7670121221762302e+05 +1.2999170585927028e+07 
+3.5000000000000018e+00 -5.9233182962695186e-01 +8.1035511698907410e+00 -1.1569313916916878e-01 +7.5660196285920847e+01 -5.5917649333976578e+03 -5.7650974582903122e+05 +1.3217491375939203e+07 
+3.6000000000000019e+00 -5.9233203286409386e-01 +8.1035671816803703e+00 -1.1386448088062709e-01 +7.5525592756270328e+01 -5.6299670164753443e+03 -5.7621540947929933e+05 +1.3410765336420652e+07 
+3.7000000000000020e+00 -5.9233224196540113e-01 +8.1035849513632989e+00 -1.1220627606757426e-01 +7.5363433351455015e+01 -5.6631023213843237e+03 -5.7582583114136988e+05 +1.3579142778681744e+07 
+3.8000000000000020e+00 -5.9233245753067421e-01 +8.1036044021027500e+00 -1.1071195983591972e-01 +7.5175045796774256e+01 -5.6912390276955075e+03 -5.7534863917444600e+05 +1.3722774190139666e+07 
+3.9000000000000021e+00 -5.9233268015967899e-01 +8.1036254570572570e+00 -1.0937497182625182e-01 +7.4961757915020442e+01 -5.7144452234190885e+03 -5.7479146238695155e+05 +1.3841809606374927e+07 
+4.0000000000000018e+00 -5.9233291045218817e-01 +8.1036480393930272e+00 -1.0818875126121252e-01 +7.4724897263101852e+01 -5.7327889976366305e+03 -5.7416192790950730e+05 +1.3936399049167646e+07 
+4.1000000000000014e+00 -5.9233314893791400e-01 +8.1036720432566618e+00 -1.0714377454512181e-01 +7.4466069638326175e+01 -5.7464074139013228e+03 -5.7346786822436063e+05 +1.4007041747422351e+07 
+4.2000000000000011e+00 -5.9233339587003186e-01 +8.1036972423023883e+00 -1.0621733852390643e-01 +7.4188063521712152e+01 -5.7557318611015617e+03 -5.7271831112913112e+05 +1.4055693235792901e+07 
+4.3000000000000007e+00 -5.9233365143350147e-01 +8.1037233789131538e+00 -1.0538310554962986e-01 +7.3893980568243634e+01 -5.7612720377391015e+03 -5.7192267375478474e+05 +1.4084688638978716e+07 
+4.4000000000000004e+00 -5.9233391581324513e-01 +8.1037501954798579e+00 -1.0461473937871393e-01 +7.3586922194357598e+01 -5.7635376321905142e+03 -5.7109037183428358e+05 +1.4096363066562876e+07 
+4.5000000000000000e+00 -5.9233418919416658e-01 +8.1037774343843569e+00 -1.0388590544636234e-01 +7.3269990074276549e+01 -5.7630383045677136e+03 -5.7023082259469968e+05 +1.4093051495530896e+07 
+4.5999999999999996e+00 -5.9233447176114673e-01 +8.1038048380044270e+00 -1.0317026873480944e-01 +7.2946285999053273e+01 -5.7602837403108542e+03 -5.6935344393774471e+05 +1.4077089055557281e+07 
+4.6999999999999993e+00 -5.9233476369905480e-01 +8.1038321487216827e+00 -1.0244149403555280e-01 +7.2618911663470186e+01 -5.7557836379032296e+03 -5.6846765326400520e+05 +1.4050810953884561e+07 
+4.7999999999999989e+00 -5.9233506519270196e-01 +8.1038591089059562e+00 -1.0167325055762629e-01 +7.2290969081895483e+01 -5.7500476267267368e+03 -5.6758286976327421e+05 +1.4016552096650967e+07 
+4.8999999999999986e+00 -5.9233537642689404e-01 +8.1038854609286695e+00 -1.0083920566305234e-01 +7.1965560244234709e+01 -5.7435853851041411e+03 -5.6670851256215561e+05 +1.3976647647959225e+07 
+4.9999999999999982e+00 -5.9233569758640092e-01 +8.1039109471539277e+00 -9.9913028511417867e-02 +7.1645787354936857e+01 -5.7369065704196673e+03 -5.6585400203851610e+05 +1.3933432693462012e+07 
+5.0999999999999979e+00 -5.9233602885596970e-01 +8.1039353099452516e+00 -9.8868388490647108e-02 +7.1334752635623914e+01 -5.7305208511987084e+03 -5.6502875868239428e+05 +1.3889242401582967e+07 
+5.1999999999999975e+00 -5.9233637042029030e-01 +8.1039582916613160e+00 -9.7678958695904122e-02 +7.1035558463050393e+01 -5.7249378442900461e+03 -5.6424220392430411e+05 +1.3846411730766356e+07 
+5.2999999999999972e+00 -5.9233672246405722e-01 +8.1039796346545447e+00 -9.6318409089922633e-02 +7.0751307406482823e+01 -5.7206672388271572e+03 -5.6350376036103989e+05 +1.3807276002122946e+07 
+5.3999999999999968e+00 -5.9233708517190520e-01 +8.1039990812722884e+00 -9.4760413206414221e-02 +7.0485102178449253e+01 -5.7182186791986096e+03 -5.6282285140538390e+05 +1.3774170371809578e+07 
+5.4999999999999964e+00 -5.9233745872842181e-01 +8.1040163738642992e+00 -9.2978647596923425e-02 +7.0240045450483422e+01 -5.7181017663249131e+03 -5.6220890032831207e+05 +1.3749429809208376e+07 
+5.5999999999999961e+00 -5.9233784331816997e-01 +8.1040312547652604e+00 -9.0946787867177636e-02 +7.0019240337793860e+01 -5.7208261438322688e+03 -5.6167133299610042e+05 +1.3735389538688608e+07 
+5.6999999999999957e+00 -5.9233823912569483e-01 +8.1040434663115413e+00 -8.8638508848598599e-02 +6.9825789918201110e+01 -5.7269014840545897e+03 -5.6121957509842946e+05 +1.3734384940092219e+07 
+5.7999999999999954e+00 -5.9233864633546129e-01 +8.1040527508340112e+00 -8.6027491033193265e-02 +6.9662797461100041e+01 -5.7368373779470521e+03 -5.6086305353324069e+05 +1.3748751059877548e+07 
+5.8999999999999950e+00 -5.9233906513190548e-01 +8.1040588506556936e+00 -8.3087414893322831e-02 +6.9533366456938609e+01 -5.7511434361463143e+03 -5.6061119646752987e+05 +1.3780823071381863e+07 
+5.9999999999999947e+00 -5.9233949569943944e-01 +8.1040615080954677e+00 -7.9791959875803939e-02 +6.9440600560417465e+01 -5.7703293106632573e+03 -5.6047343313827680e+05 +1.3832936385895580e+07 
+6.0999999999999943e+00 -5.9233993799492113e-01 +8.1040605381178725e+00 -7.6126591413272091e-02 +6.9386624090176596e+01 -5.7947444568445026e+03 -5.6045544868871092e+05 +1.3906791366950482e+07 
+6.1999999999999940e+00 -5.9234039106734770e-01 +8.1040560440344898e+00 -7.2126553040304880e-02 +6.9369711223704812e+01 -5.8240642282790304e+03 -5.6054831284863444e+05 +1.4001428154374408e+07 
+6.2999999999999936e+00 -5.9234085373922230e-01 +8.1040482007844901e+00 -6.7840198848719072e-02 +6.9387191871078343e+01 -5.8577870692452243e+03 -5.6073954183986818e+05 +1.4115191682708848e+07 
+6.3999999999999932e+00 -5.9234132483303059e-01 +8.1040371833101137e+00 -6.3315886115779457e-02 +6.9436395986364985e+01 -5.8954113584085371e+03 -5.6101665246427408e+05 +1.4246426555392319e+07 
+6.4999999999999929e+00 -5.9234180317131713e-01 +8.1040231665698208e+00 -5.8601964828187893e-02 +6.9514653170625593e+01 -5.9364356145351467e+03 -5.6136715977373382e+05 +1.4393478044977143e+07 
+6.5999999999999925e+00 -5.9234228757662744e-01 +8.1040063255324259e+00 -5.3746786191651637e-02 +6.9619292854648137e+01 -5.9803583271610805e+03 -5.6177857817178871e+05 +1.4554691267253809e+07 
+6.6999999999999922e+00 -5.9234277687152381e-01 +8.1039868351797981e+00 -4.8798699550809149e-02 +6.9747644230648646e+01 -6.0266780211501664e+03 -5.6223842103513505e+05 +1.4728411503372304e+07 
+6.7999999999999918e+00 -5.9234326987860819e-01 +8.1039648705092766e+00 -4.3806050517763553e-02 +6.9897036188538351e+01 -6.0748932855752946e+03 -5.6273420036707190e+05 +1.4912984319755670e+07 
+6.8999999999999915e+00 -5.9234376542049638e-01 +8.1039406065300668e+00 -3.8817183371009520e-02 +7.0064797405242160e+01 -6.1245027367753437e+03 -5.6325342726596829e+05 +1.5106755417384718e+07 
+6.9999999999999911e+00 -5.9234426231982840e-01 +8.1039142182622292e+00 -3.3880441260179958e-02 +7.0248256403400163e+01 -6.1750050005843386e+03 -5.6378361235622189e+05 +1.5308070507559165e+07 
+7.0999999999999908e+00 -5.9234475939927977e-01 +8.1038858807463150e+00 -2.9044162822672609e-02 +7.0444741265340383e+01 -6.2258987928618772e+03 -5.6431226409943739e+05 +1.5515275740582496e+07 
+7.1999999999999904e+00 -5.9234525548154626e-01 +8.1038557690360893e+00 -2.4356686132977201e-02 +7.0651579853761376e+01 -6.2766828300247444e+03 -5.6482689010201779e+05 +1.5726717241310997e+07 
+7.2999999999999901e+00 -5.9234574938936302e-01 +8.1038240581978958e+00 -1.9866345192393730e-02 +7.0866099834399350e+01 -6.3268559016758491e+03 -5.6531499726650794e+05 +1.5940741469095208e+07 
+7.3999999999999897e+00 -5.9234623994547309e-01 +8.1037909233185523e+00 -1.5621474333783532e-02 +7.1085628439021988e+01 -6.3759167891875577e+03 -5.6576409037486790e+05 +1.6155694840391830e+07 
+7.4999999999999893e+00 -5.9234672597267857e-01 +8.1037565395014504e+00 -1.1670401260384197e-02 +7.1307492607820791e+01 -6.4233643938264358e+03 -5.6616167301624722e+05 +1.6369924322053602e+07 
+7.5999999999999890e+00 -5.9234720629379956e-01 +8.1037210818634211e+00 -8.0614537080752023e-03 +7.1529019066728054e+01 -6.4686976083447535e+03 -5.6649524798208184e+05 +1.6581776821063912e+07 
+7.6999999999999886e+00 -5.9234767973168656e-01 +8.1036847255392459e+00 -4.8429564814126596e-03 +7.1747534204803316e+01 -6.5114153766099225e+03 -5.6675231657860242e+05 +1.6789599473198015e+07 
+7.7999999999999883e+00 -5.9234814510924472e-01 +8.1036476456881754e+00 -2.0632289766228384e-03 +7.1960363904577093e+01 -6.5510167406637602e+03 -5.6692037769620318e+05 +1.6991739869309444e+07 
+7.8999999999999879e+00 -5.9234860124937982e-01 +8.1036100174810137e+00 +2.2940748433080460e-04 +7.2164833896266700e+01 -6.5870006962571060e+03 -5.6698692981306405e+05 +1.7186545353241019e+07 
+7.9999999999999876e+00 -5.9234904697508828e-01 +8.1035720161094922e+00 +1.9866415701084213e-03 +7.2358269530973089e+01 -6.6188664229651940e+03 -5.6693946975634992e+05 +1.7372364129996926e+07 
+8.0999999999999872e+00 -5.9234948150899469e-01 +8.1035338202524105e+00 +3.1749921770479850e-03 +7.2538256962946861e+01 -6.6462326426458148e+03 -5.6676789623498730e+05 +1.7547818888810851e+07 
+8.1999999999999869e+00 -5.9234990566408063e-01 +8.1034956401500651e+00 +3.8188308631371768e-03 +7.2702871950277441e+01 -6.6691830978244407e+03 -5.6646888224356959e+05 +1.7712624772212934e+07 
+8.2999999999999865e+00 -5.9235032064910675e-01 +8.1034576983464124e+00 +3.9565949344106850e-03 +7.2850177794650833e+01 -6.6879132418407689e+03 -5.6604012023049092e+05 +1.7866762220806535e+07 
+8.3999999999999861e+00 -5.9235072767284414e-01 +8.1034202173723777e+00 +3.6267184403750981e-03 +7.2978238004161284e+01 -6.7026184417368413e+03 -5.6547930346147949e+05 +1.8010211229700811e+07 
+8.4999999999999858e+00 -5.9235112794412237e-01 +8.1033834197349481e+00 +2.8676385079295348e-03 +7.3085116602029530e+01 -6.7134940992852507e+03 -5.6478412772854557e+05 +1.8142951920064509e+07 
+8.5999999999999854e+00 -5.9235152267180824e-01 +8.1033475279325167e+00 +1.7177928490824915e-03 +7.3168877675690737e+01 -6.7207356059055737e+03 -5.6395228873194440e+05 +1.8264964332610615e+07 
+8.6999999999999851e+00 -5.9235191306481716e-01 +8.1033127644418883e+00 +2.1561983848949193e-04 +7.3227585743861795e+01 -6.7245383342704245e+03 -5.6298148416020721e+05 +1.8376228361259248e+07 
+8.7999999999999847e+00 -5.9235230033209718e-01 +8.1032793517228701e+00 -1.6004420580532691e-03 +7.3259305623986890e+01 -6.7250976376623003e+03 -5.6186941294602328e+05 +1.8476723778219633e+07 
+8.8999999999999844e+00 -5.9235268568263544e-01 +8.1032475122166598e+00 -3.6919549895864756e-03 +7.3262102460051651e+01 -6.7226088271882809e+03 -5.6061377536407195e+05 +1.8566430101933446e+07 
+8.9999999999999840e+00 -5.9235307032547335e-01 +8.1032174683492819e+00 -6.0204789499448876e-03 +7.3234041628542172e+01 -6.7172672299599944e+03 -5.5921227250581933e+05 +1.8645326889811277e+07 
+9.0999999999999837e+00 -5.9235345546971374e-01 +8.1031894425213249e+00 -8.5475713090909771e-03 +7.3173189024118912e+01 -6.7092681947662059e+03 -5.5766260790846031e+05 +1.8713393755829010e+07 
+9.1999999999999833e+00 -5.9235384232447585e-01 +8.1031636571163190e+00 -1.1234793224877462e-02 +7.3077610813230478e+01 -6.6988069658440199e+03 -5.5596248611092428e+05 +1.8770609761203773e+07 
+9.2999999999999829e+00 -5.9235423209894111e-01 +8.1031403344965831e+00 -1.4043702894151725e-02 +7.2945373535756545e+01 -6.6860788177216027e+03 -5.5410961319608253e+05 +1.8816954072067082e+07 
+9.3999999999999826e+00 -5.9235462600235100e-01 +8.1031196970049493e+00 -1.6935856935709266e-02 +7.2774544081112239e+01 -6.6712790220563666e+03 -5.5210169672411517e+05 +1.8852405786199566e+07 
+9.4999999999999822e+00 -5.9235502524397654e-01 +8.1031019669612370e+00 -1.9872813740142589e-02 +7.2563189725175107e+01 -6.6546027877455372e+03 -5.4993644576911838e+05 +1.8876943658361468e+07 
+9.5999999999999819e+00 -5.9235543103316834e-01 +8.1030873666611818e+00 -2.2816127818689361e-02 +7.2309378224493585e+01 -6.6362453625138032e+03 -5.4761157164342829e+05 +1.8890546567863263e+07 
+9.6999999999999815e+00 -5.9235584457929424e-01 +8.1030761183796223e+00 -2.5727357255786197e-02 +7.2011177670993959e+01 -6.6164018964319212e+03 -5.4512478690086154e+05 +1.8893192885568377e+07 
+9.7999999999999812e+00 -5.9235626709181455e-01 +8.1030684443680805e+00 -2.8568054985603171e-02 +7.1666656553327186e+01 -6.5952676001234104e+03 -5.4247380568255845e+05 +1.8884861205488063e+07 
+9.8999999999999808e+00 -5.9235669978019945e-01 +8.1030645668521952e+00 -3.1299778499191203e-02 +7.1273883867257538e+01 -6.5730375685258241e+03 -5.3965634444363427e+05 +1.8865529530855034e+07 
+9.9999999999999805e+00 -5.9235714385403304e-01 +8.1030647080354115e+00 -3.3884077601225047e-02 +7.0830928912369629e+01 -6.5499070098565699e+03 -5.3667012067803147e+05 +1.8835176343753956e+07 
+1.0099999999999980e+01 -5.9235760032786089e-01 +8.1030690372709344e+00 -3.6286293311478916e-02 +7.0336026414776327e+01 -6.5260984195374958e+03 -5.3351115847537888e+05 +1.8794049505626824e+07 
