# trajectory
# s[mm] rx[mm] ry[mm] rz[mm] px[rad] py[rad] pz[rad]
0.0000000000000000e+00 +8.1649999999999991e+00 +0.0000000000000000e+00 +0.0000000000000000e+00 +0.0000000000000000e+00 +0.0000000000000000e+00 +1.0000000000000000e+00
1.0000000000000001e-01 +8.1649997169966575e+00 +0.0000000000000000e+00 +9.9999999999466058e-02 -5.6600671045569457e-06 +0.0000000000000000e+00 +9.9999999998398181e-01
2.0000000000000001e-01 +8.1649988679865189e+00 +0.0000000000000000e+00 +1.9999999999572848e-01 -1.1320135964689865e-05 +0.0000000000000000e+00 +9.9999999993592725e-01
3.0000000000000004e-01 +8.1649974529694038e+00 +0.0000000000000000e+00 +2.9999999998558363e-01 -1.6980206665257553e-05 +0.0000000000000000e+00 +9.9999999985583632e-01
4.0000000000000002e-01 +8.1649954719451223e+00 +0.0000000000000000e+00 +3.9999999996582786e-01 -2.2640279284216095e-05 +0.0000000000000000e+00 +9.9999999974370890e-01
5.0000000000000000e-01 +8.1649929249134807e+00 +0.0000000000000000e+00 +4.9999999993325750e-01 -2.8300353892618806e-05 +0.0000000000000000e+00 +9.9999999959954500e-01
5.9999999999999998e-01 +8.1649898118742765e+00 +0.0000000000000000e+00 +5.9999999988466901e-01 -3.3960430554616198e-05 +0.0000000000000000e+00 +9.9999999942334461e-01
6.9999999999999996e-01 +8.1649861328273001e+00 +0.0000000000000000e+00 +6.9999999981685856e-01 -3.9620509327455960e-05 +0.0000000000000000e+00 +9.9999999921510763e-01
7.9999999999999993e-01 +8.1649818877723384e+00 +0.0000000000000000e+00 +7.9999999972662261e-01 -4.5280590261482975e-05 +0.0000000000000000e+00 +9.9999999897483405e-01
8.9999999999999991e-01 +8.1649770767091745e+00 +0.0000000000000000e+00 +8.9999999961075750e-01 -5.0940673400139304e-05 +0.0000000000000000e+00 +9.9999999870252387e-01
9.9999999999999989e-01 +8.1649716996375847e+00 +0.0000000000000000e+00 +9.9999999946605955e-01 -5.6600758779964262e-05 +0.0000000000000000e+00 +9.9999999839817699e-01
1.0999999999999999e+00 +8.1649657565573435e+00 +0.0000000000000000e+00 +1.0999999992893250e+00 -6.2260846430594441e-05 +0.0000000000000000e+00 +9.9999999806179340e-01
1.2000000000000000e+00 +8.1649592474682215e+00 +0.0000000000000000e+00 +1.1999999990773502e+00 -6.7920936374763806e-05 +0.0000000000000000e+00 +9.9999999769337311e-01
1.3000000000000000e+00 +8.1649521723699898e+00 +0.0000000000000000e+00 +1.2999999988269317e+00 -7.3581028628303774e-05 +0.0000000000000000e+00 +9.9999999729291600e-01
1.4000000000000001e+00 +8.1649445312624174e+00 +0.0000000000000000e+00 +1.3999999985348657e+00 -7.9241123200143320e-05 +0.0000000000000000e+00 +9.9999999686042207e-01
1.5000000000000002e+00 +8.1649363241452715e+00 +0.0000000000000000e+00 +1.4999999981979484e+00 -8.4901220092309116e-05 +0.0000000000000000e+00 +9.9999999639589132e-01
1.6000000000000003e+00 +8.1649275510183212e+00 +0.0000000000000000e+00 +1.5999999978129762e+00 -9.0561319299925654e-05 +0.0000000000000000e+00 +9.9999999589932365e-01
1.7000000000000004e+00 +8.1649182118813339e+00 +0.0000000000000000e+00 +1.6999999973767452e+00 -9.6221420811215435e-05 +0.0000000000000000e+00 +9.9999999537071904e-01
1.8000000000000005e+00 +8.1649083067340822e+00 +0.0000000000000000e+00 +1.7999999968860521e+00 -1.0188152460749913e-04 +0.0000000000000000e+00 +9.9999999481007740e-01
1.9000000000000006e+00 +8.1648978355763369e+00 +0.0000000000000000e+00 +1.8999999963376928e+00 -1.0754163066319580e-04 +0.0000000000000000e+00 +9.9999999421739871e-01
2.0000000000000004e+00 +8.1648867984078741e+00 +0.0000000000000000e+00 +1.9999999957284638e+00 -1.1320173894582307e-04 +0.0000000000000000e+00 +9.9999999359268299e-01
2.1000000000000005e+00 +8.1648751952284737e+00 +0.0000000000000000e+00 +2.0999999950551613e+00 -1.1886184941650569e-04 +0.0000000000000000e+00 +9.9999999293593023e-01
2.2000000000000006e+00 +8.1648630260379189e+00 +0.0000000000000000e+00 +2.1999999943145818e+00 -1.2452196203556663e-04 +0.0000000000000000e+00 +9.9999999224714031e-01
2.3000000000000007e+00 +8.1648502908359966e+00 +0.0000000000000000e+00 +2.2999999935035214e+00 -1.3018207676811813e-04 +0.0000000000000000e+00 +9.9999999152631325e-01
2.4000000000000008e+00 +8.1648369896224970e+00 +0.0000000000000000e+00 +2.3999999926187763e+00 -1.3584219358457004e-04 +0.0000000000000000e+00 +9.9999999077344903e-01
2.5000000000000009e+00 +8.1648231223972125e+00 +0.0000000000000000e+00 +2.4999999916571429e+00 -1.4150231246062983e-04 +0.0000000000000000e+00 +9.9999998998854756e-01
2.6000000000000010e+00 +8.1648086891599370e+00 +0.0000000000000000e+00 +2.5999999906154176e+00 -1.4716243337730260e-04 +0.0000000000000000e+00 +9.9999998917160882e-01
2.7000000000000011e+00 +8.1647936899104696e+00 +0.0000000000000000e+00 +2.6999999894903968e+00 -1.5282255632089118e-04 +0.0000000000000000e+00 +9.9999998832263282e-01
2.8000000000000012e+00 +8.1647781246486062e+00 +0.0000000000000000e+00 +2.7999999882788762e+00 -1.5848268128299605e-04 +0.0000000000000000e+00 +9.9999998744161955e-01
2.9000000000000012e+00 +8.1647619933741460e+00 +0.0000000000000000e+00 +2.8999999869776527e+00 -1.6414280826051544e-04 +0.0000000000000000e+00 +9.9999998652856892e-01
3.0000000000000013e+00 +8.1647452960868865e+00 +0.0000000000000000e+00 +2.9999999855835222e+00 -1.6980293725564531e-04 +0.0000000000000000e+00 +9.9999998558348091e-01
3.1000000000000014e+00 +8.1647280327866270e+00 +0.0000000000000000e+00 +3.0999999840932810e+00 -1.7546306827587930e-04 +0.0000000000000000e+00 +9.9999998460635553e-01
3.2000000000000015e+00 +8.1647102034731631e+00 +0.0000000000000000e+00 +3.1999999825037255e+00 -1.8112320133400876e-04 +0.0000000000000000e+00 +9.9999998359719267e-01
3.3000000000000016e+00 +8.1646918081462907e+00 +0.0000000000000000e+00 +3.2999999808116516e+00 -1.8678333644812269e-04 +0.0000000000000000e+00 +9.9999998255599232e-01
3.4000000000000017e+00 +8.1646728468058036e+00 +0.0000000000000000e+00 +3.3999999790138560e+00 -1.9244347364160780e-04 +0.0000000000000000e+00 +9.9999998148275437e-01
3.5000000000000018e+00 +8.1646533194514923e+00 +0.0000000000000000e+00 +3.4999999771071346e+00 -1.9810361294314837e-04 +0.0000000000000000e+00 +9.9999998037747895e-01
3.6000000000000019e+00 +8.1646332260831436e+00 +0.0000000000000000e+00 +3.5999999750882838e+00 -2.0376375438672630e-04 +0.0000000000000000e+00 +9.9999997924016581e-01
3.7000000000000020e+00 +8.1646125667005425e+00 +0.0000000000000000e+00 +3.6999999729541000e+00 -2.0942389801162096e-04 +0.0000000000000000e+00 +9.9999997807081509e-01
3.8000000000000020e+00 +8.1645913413034670e+00 +0.0000000000000000e+00 +3.7999999707013790e+00 -2.1508404386240925e-04 +0.0000000000000000e+00 +9.9999997686942665e-01
3.9000000000000021e+00 +8.1645695498916933e+00 +0.0000000000000000e+00 +3.8999999683269171e+00 -2.2074419198896546e-04 +0.0000000000000000e+00 +9.9999997563600040e-01
4.0000000000000018e+00 +8.1645471924649904e+00 +0.0000000000000000e+00 +3.9999999658275107e+00 -2.2640434244646120e-04 +0.0000000000000000e+00 +9.9999997437053634e-01
4.1000000000000014e+00 +8.1645242690231239e+00 +0.0000000000000000e+00 +4.0999999631999566e+00 -2.3206449529529158e-04 +0.0000000000000000e+00 +9.9999997307303445e-01
4.2000000000000011e+00 +8.1645007795658504e+00 +0.0000000000000000e+00 +4.1999999604410503e+00 -2.3772465060026355e-04 +0.0000000000000000e+00 +9.9999997174349464e-01
4.3000000000000007e+00 +8.1644767240929195e+00 +0.0000000000000000e+00 +4.2999999575475876e+00 -2.4338480842978424e-04 +0.0000000000000000e+00 +9.9999997038191690e-01
4.4000000000000004e+00 +8.1644521026040771e+00 +0.0000000000000000e+00 +4.3999999545163657e+00 -2.4904496885578702e-04 +0.0000000000000000e+00 +9.9999996898830112e-01
4.5000000000000000e+00 +8.1644269150990585e+00 +0.0000000000000000e+00 +4.4999999513441802e+00 -2.5470513195373118e-04 +0.0000000000000000e+00 +9.9999996756264720e-01
4.5999999999999996e+00 +8.1644011615775938e+00 +0.0000000000000000e+00 +4.5999999480278273e+00 -2.6036529780260184e-04 +0.0000000000000000e+00 +9.9999996610495512e-01
4.6999999999999993e+00 +8.1643748420394040e+00 +0.0000000000000000e+00 +4.6999999445641034e+00 -2.6602546648490981e-04 +0.0000000000000000e+00 +9.9999996461522478e-01
4.7999999999999989e+00 +8.1643479564841996e+00 +0.0000000000000000e+00 +4.7999999409498049e+00 -2.7168563808669115e-04 +0.0000000000000000e+00 +9.9999996309345618e-01
4.8999999999999986e+00 +8.1643205049116858e+00 +0.0000000000000000e+00 +4.8999999371817271e+00 -2.7734581269750708e-04 +0.0000000000000000e+00 +9.9999996153964921e-01
4.9999999999999982e+00 +8.1642924873215570e+00 +0.0000000000000000e+00 +4.9999999332566665e+00 -2.8300599041044373e-04 +0.0000000000000000e+00 +9.9999995995380375e-01
5.0999999999999979e+00 +8.1642639037134970e+00 +0.0000000000000000e+00 +5.0999999291714193e+00 -2.8866617132211175e-04 +0.0000000000000000e+00 +9.9999995833591970e-01
5.1999999999999975e+00 +8.1642347540871825e+00 +0.0000000000000000e+00 +5.1999999249227820e+00 -2.9432635553264616e-04 +0.0000000000000000e+00 +9.9999995668599706e-01
5.2999999999999972e+00 +8.1642050384422777e+00 +0.0000000000000000e+00 +5.2999999205075508e+00 -2.9998654314570595e-04 +0.0000000000000000e+00 +9.9999995500403571e-01
5.3999999999999968e+00 +8.1641747567784364e+00 +0.0000000000000000e+00 +5.3999999159225212e+00 -3.0564673426847395e-04 +0.0000000000000000e+00 +9.9999995329003555e-01
5.4999999999999964e+00 +8.1641439090953032e+00 +0.0000000000000000e+00 +5.4999999111644895e+00 -3.1130692901165630e-04 +0.0000000000000000e+00 +9.9999995154399657e-01
5.5999999999999961e+00 +8.1641124953925104e+00 +0.0000000000000000e+00 +5.5999999062302521e+00 -3.1696712748948227e-04 +0.0000000000000000e+00 +9.9999994976591855e-01
5.6999999999999957e+00 +8.1640805156696779e+00 +0.0000000000000000e+00 +5.6999999011166054e+00 -3.2262732981970391e-04 +0.0000000000000000e+00 +9.9999994795580149e-01
5.7999999999999954e+00 +8.1640479699264148e+00 +0.0000000000000000e+00 +5.7999998958203447e+00 -3.2828753612359563e-04 +0.0000000000000000e+00 +9.9999994611364518e-01
5.8999999999999950e+00 +8.1640148581623162e+00 +0.0000000000000000e+00 +5.8999998903382664e+00 -3.3394774652595392e-04 +0.0000000000000000e+00 +9.9999994423944960e-01
5.9999999999999947e+00 +8.1639811803769682e+00 +0.0000000000000000e+00 +5.9999998846671669e+00 -3.3960796115509688e-04 +0.0000000000000000e+00 +9.9999994233321454e-01
6.0999999999999943e+00 +8.1639469365699409e+00 +0.0000000000000000e+00 +6.0999998788038416e+00 -3.4526818014222484e-04 +0.0000000000000000e+00 +9.9999994039494000e-01
6.1999999999999940e+00 +8.1639121267407901e+00 +0.0000000000000000e+00 +6.1999998727450869e+00 -3.5092840361439031e-04 +0.0000000000000000e+00 +9.9999993842462576e-01
6.2999999999999936e+00 +8.1638767508890631e+00 +0.0000000000000000e+00 +6.2999998664876991e+00 -3.5658863168746814e-04 +0.0000000000000000e+00 +9.9999993642227170e-01
6.3999999999999932e+00 +8.1638408090142942e+00 +0.0000000000000000e+00 +6.3999998600284735e+00 -3.6224886446551666e-04 +0.0000000000000000e+00 +9.9999993438787782e-01
6.4999999999999929e+00 +8.1638043011160093e+00 +0.0000000000000000e+00 +6.4999998533642067e+00 -3.6790910204077782e-04 +0.0000000000000000e+00 +9.9999993232144391e-01
6.5999999999999925e+00 +8.1637672271937234e+00 +0.0000000000000000e+00 +6.5999998464916940e+00 -3.7356934449367743e-04 +0.0000000000000000e+00 +9.9999993022296985e-01
6.6999999999999922e+00 +8.1637295872469462e+00 +0.0000000000000000e+00 +6.6999998394077327e+00 -3.7922959189282530e-04 +0.0000000000000000e+00 +9.9999992809245564e-01
6.7999999999999918e+00 +8.1636913812751786e+00 +0.0000000000000000e+00 +6.7999998321091173e+00 -3.8488984429501549e-04 +0.0000000000000000e+00 +9.9999992592990106e-01
6.8999999999999915e+00 +8.1636526092779196e+00 +0.0000000000000000e+00 +6.8999998245926450e+00 -3.9055010174522654e-04 +0.0000000000000000e+00 +9.9999992373530600e-01
6.9999999999999911e+00 +8.1636132712546612e+00 +0.0000000000000000e+00 +6.9999998168551105e+00 -3.9621036427662170e-04 +0.0000000000000000e+00 +9.9999992150867045e-01
7.0999999999999908e+00 +8.1635733672048936e+00 +0.0000000000000000e+00 +7.0999998088933109e+00 -4.0187063191054914e-04 +0.0000000000000000e+00 +9.9999991924999421e-01
7.1999999999999904e+00 +8.1635328971281087e+00 +0.0000000000000000e+00 +7.1999998007040418e+00 -4.0753090465654230e-04 +0.0000000000000000e+00 +9.9999991695927726e-01
7.2999999999999901e+00 +8.1634918610237932e+00 +0.0000000000000000e+00 +7.2999997922840985e+00 -4.1319118251231996e-04 +0.0000000000000000e+00 +9.9999991463651949e-01
7.3999999999999897e+00 +8.1634502588914373e+00 +0.0000000000000000e+00 +7.3999997836302773e+00 -4.1885146546378685e-04 +0.0000000000000000e+00 +9.9999991228172092e-01
7.4999999999999893e+00 +8.1634080907305311e+00 +0.0000000000000000e+00 +7.4999997747393747e+00 -4.2451175348503356e-04 +0.0000000000000000e+00 +9.9999990989488130e-01
7.5999999999999890e+00 +8.1633653565405719e+00 +0.0000000000000000e+00 +7.5999997656081861e+00 -4.3017204653833714e-04 +0.0000000000000000e+00 +9.9999990747600065e-01
7.6999999999999886e+00 +8.1633220563210571e+00 +0.0000000000000000e+00 +7.6999997562335070e+00 -4.3583234457416123e-04 +0.0000000000000000e+00 +9.9999990502507896e-01
7.7999999999999883e+00 +8.1632781900714928e+00 +0.0000000000000000e+00 +7.7999997466121336e+00 -4.4149264753115650e-04 +0.0000000000000000e+00 +9.9999990254211613e-01
7.8999999999999879e+00 +8.1632337577913887e+00 +0.0000000000000000e+00 +7.8999997367408623e+00 -4.4715295533616091e-04 +0.0000000000000000e+00 +9.9999990002711203e-01
7.9999999999999876e+00 +8.1631887594802652e+00 +0.0000000000000000e+00 +7.9999997266164886e+00 -4.5281326790420006e-04 +0.0000000000000000e+00 +9.9999989748006668e-01
8.0999999999999872e+00 +8.1631431951376516e+00 +0.0000000000000000e+00 +8.0999997162358088e+00 -4.5847358513937178e-04 +0.0000000000000000e+00 +9.9999989490098007e-01
8.1999999999999869e+00 +8.1630970647630843e+00 +0.0000000000000000e+00 +8.1999997055956175e+00 -4.6413390694457140e-04 +0.0000000000000000e+00 +9.9999989228985209e-01
8.2999999999999865e+00 +8.1630503683561120e+00 +0.0000000000000000e+00 +8.2999996946927119e+00 -4.6979423323121759e-04 +0.0000000000000000e+00 +9.9999988964668285e-01
8.3999999999999861e+00 +8.1630031059162906e+00 +0.0000000000000000e+00 +8.3999996835238875e+00 -4.7545456392013660e-04 +0.0000000000000000e+00 +9.9999988697147213e-01
8.4999999999999858e+00 +8.1629552774431833e+00 +0.0000000000000000e+00 +8.4999996720859397e+00 -4.8111489894156278e-04 +0.0000000000000000e+00 +9.9999988426422004e-01
8.5999999999999854e+00 +8.1629068829363600e+00 +0.0000000000000000e+00 +8.5999996603756639e+00 -4.8677523823513870e-04 +0.0000000000000000e+00 +9.9999988152492647e-01
8.6999999999999851e+00 +8.1628579223953963e+00 +0.0000000000000000e+00 +8.6999996483898574e+00 -4.9243558174991565e-04 +0.0000000000000000e+00 +9.9999987875359131e-01
8.7999999999999847e+00 +8.1628083958198712e+00 +0.0000000000000000e+00 +8.7999996361253139e+00 -4.9809592944435399e-04 +0.0000000000000000e+00 +9.9999987595021456e-01
8.8999999999999844e+00 +8.1627583032093689e+00 +0.0000000000000000e+00 +8.8999996235788306e+00 -5.0375628128632329e-04 +0.0000000000000000e+00 +9.9999987311479621e-01
8.9999999999999840e+00 +8.1627076445634756e+00 +0.0000000000000000e+00 +8.9999996107472047e+00 -5.0941663725310310e-04 +0.0000000000000000e+00 +9.9999987024733616e-01
9.0999999999999837e+00 +8.1626564198817810e+00 +0.0000000000000000e+00 +9.0999995976272299e+00 -5.1507699733138290e-04 +0.0000000000000000e+00 +9.9999986734783430e-01
9.1999999999999833e+00 +8.1626046291638730e+00 +0.0000000000000000e+00 +9.1999995842157034e+00 -5.2073736151726291e-04 +0.0000000000000000e+00 +9.9999986441629063e-01
9.2999999999999829e+00 +8.1625522724093411e+00 +0.0000000000000000e+00 +9.2999995705094207e+00 -5.2639772981625404e-04 +0.0000000000000000e+00 +9.9999986145270503e-01
9.3999999999999826e+00 +8.1624993496177733e+00 +0.0000000000000000e+00 +9.3999995565051773e+00 -5.3205810224327859e-04 +0.0000000000000000e+00 +9.9999985845707751e-01
9.4999999999999822e+00 +8.1624458607887540e+00 +0.0000000000000000e+00 +9.4999995421997685e+00 -5.3771847882267071e-04 +0.0000000000000000e+00 +9.9999985542940795e-01
9.5999999999999819e+00 +8.1623918059218692e+00 +0.0000000000000000e+00 +9.5999995275899899e+00 -5.4337885958817664e-04 +0.0000000000000000e+00 +9.9999985236969624e-01
9.6999999999999815e+00 +8.1623371850166961e+00 +0.0000000000000000e+00 +9.6999995126726386e+00 -5.4903924458295521e-04 +0.0000000000000000e+00 +9.9999984927794228e-01
9.7999999999999812e+00 +8.1622819980728103e+00 +0.0000000000000000e+00 +9.7999994974445102e+00 -5.5469963385957818e-04 +0.0000000000000000e+00 +9.9999984615414594e-01
9.8999999999999808e+00 +8.1622262450897800e+00 +0.0000000000000000e+00 +9.8999994819024000e+00 -5.6036002748003104e-04 +0.0000000000000000e+00 +9.9999984299830713e-01
9.9999999999999805e+00 +8.1621699260671665e+00 +0.0000000000000000e+00 +9.9999994660431035e+00 -5.6602042551571314e-04 +0.0000000000000000e+00 +9.9999983981042573e-01
1.0099999999999980e+01 +8.1621130410045257e+00 +0.0000000000000000e+00 +1.0099999449863416e+01 -5.7168082804713225e-04 +0.0000000000000000e+00 +9.9999983659050173e-01
1.0199999999999980e+01 +8.1620555899014047e+00 +0.0000000000000000e+00 +1.0199999433360135e+01 -5.7734123516054001e-04 +0.0000000000000000e+00 +9.9999983333853482e-01
1.0299999999999979e+01 +8.1619975727573379e+00 +0.0000000000000000e+00 +1.0299999416530055e+01 -5.8300164694456691e-04 +0.0000000000000000e+00 +9.9999983005452497e-01
1.0399999999999979e+01 +8.1619389895718566e+00 +0.0000000000000000e+00 +1.0399999399369971e+01 -5.8866206348991634e-04 +0.0000000000000000e+00 +9.9999982673847210e-01
1.0499999999999979e+01 +8.1618798403444792e+00 +0.0000000000000000e+00 +1.0499999381876680e+01 -5.9432248488936455e-04 +0.0000000000000000e+00 +9.9999982339037596e-01
1.0599999999999978e+01 +8.1618201250747138e+00 +0.0000000000000000e+00 +1.0599999364046978e+01 -5.9998291123776113e-04 +0.0000000000000000e+00 +9.9999982001023646e-01
1.0699999999999978e+01 +8.1617598437620629e+00 +0.0000000000000000e+00 +1.0699999345877659e+01 -6.0564334263202855e-04 +0.0000000000000000e+00 +9.9999981659805348e-01
1.0799999999999978e+01 +8.1616989964060167e+00 +0.0000000000000000e+00 +1.0799999327365519e+01 -6.1130377917116259e-04 +0.0000000000000000e+00 +9.9999981315382691e-01
1.0899999999999977e+01 +8.1616375830060548e+00 +0.0000000000000000e+00 +1.0899999308507356e+01 -6.1696422095623216e-04 +0.0000000000000000e+00 +9.9999980967755653e-01
1.0999999999999977e+01 +8.1615756035616478e+00 +0.0000000000000000e+00 +1.0999999289299963e+01 -6.2262466809037947e-04 +0.0000000000000000e+00 +9.9999980616924222e-01
1.1099999999999977e+01 +8.1615130580722557e+00 +0.0000000000000000e+00 +1.1099999269740136e+01 -6.2828512067881993e-04 +0.0000000000000000e+00 +9.9999980262888377e-01
1.1199999999999976e+01 +8.1614499465373278e+00 +0.0000000000000000e+00 +1.1199999249824671e+01 -6.3394557882884240e-04 +0.0000000000000000e+00 +9.9999979905648106e-01
1.1299999999999976e+01 +8.1613862689563010e+00 +0.0000000000000000e+00 +1.1299999229550364e+01 -6.3960604264980917e-04 +0.0000000000000000e+00 +9.9999979545203388e-01
1.1399999999999975e+01 +8.1613220253286052e+00 +0.0000000000000000e+00 +1.1399999208914011e+01 -6.4526651225315593e-04 +0.0000000000000000e+00 +9.9999979181554211e-01
1.1499999999999975e+01 +8.1612572156536540e+00 +0.0000000000000000e+00 +1.1499999187912405e+01 -6.5092698775239173e-04 +0.0000000000000000e+00 +9.9999978814700552e-01
1.1599999999999975e+01 +8.1611918399308543e+00 +0.0000000000000000e+00 +1.1599999166542343e+01 -6.5658746926309933e-04 +0.0000000000000000e+00 +9.9999978444642401e-01
1.1699999999999974e+01 +8.1611258981595984e+00 +0.0000000000000000e+00 +1.1699999144800621e+01 -6.6224795690293485e-04 +0.0000000000000000e+00 +9.9999978071379736e-01
1.1799999999999974e+01 +8.1610593903392665e+00 +0.0000000000000000e+00 +1.1799999122684035e+01 -6.6790845079162803e-04 +0.0000000000000000e+00 +9.9999977694912545e-01
