# field on trajectory
# s[mm] rx[mm] ry[mm] rz[mm] bx[T] by[T] bz[T]
-0.0000000000000000e+00 +8.1530000000000094e+00 +0.0000000000000000e+00 -0.0000000000000000e+00 -2.9278768141342518e-02 -5.6459188891706902e-01 +5.7099378311723280e-03
-1.0000000000000001e-01 +8.1529997163925092e+00 +0.0000000000000000e+00 -9.9999999999463796e-02 -2.9278690950882504e-02 -5.6459186656903304e-01 +5.7099164697333969e-03
-2.0000000000000001e-01 +8.1529988655711296e+00 +0.0000000000000000e+00 -1.9999999999571000e-01 -2.9278612561082600e-02 -5.6459185037728088e-01 +5.7098962682283110e-03
-2.9999999999999999e-01 +8.1529974475415692e+00 +0.0000000000000000e+00 -2.9999999998552201e-01 -2.9278532911848142e-02 -5.6459184060140788e-01 +5.7098771290009292e-03
-4.0000000000000002e-01 +8.1529954622965306e+00 +0.0000000000000000e+00 -3.9999999996568197e-01 -2.9278451943091494e-02 -5.6459183750111763e-01 +5.7098589543947420e-03
-5.0000000000000000e-01 +8.1529929098396696e+00 +0.0000000000000000e+00 -4.9999999993297300e-01 -2.9278369594721236e-02 -5.6459184133603479e-01 +5.7098416467510861e-03
-5.9999999999999998e-01 +8.1529897901673394e+00 +0.0000000000000000e+00 -5.9999999988417696e-01 -2.9278285806649849e-02 -5.6459185236584464e-01 +5.7098251084107083e-03
-6.9999999999999996e-01 +8.1529861032831796e+00 +0.0000000000000000e+00 -6.9999999981607697e-01 -2.9278200518786993e-02 -5.6459187085018048e-01 +5.7098092417127363e-03
-8.0000000000000004e-01 +8.1529818491871993e+00 +0.0000000000000000e+00 -7.9999999972545699e-01 -2.9278113671043958e-02 -5.6459189704870583e-01 +5.7097939489956541e-03
-9.0000000000000002e-01 +8.1529770278793894e+00 +0.0000000000000000e+00 -8.9999999960909804e-01 -2.9278025203331733e-02 -5.6459193122108664e-01 +5.7097791325971354e-03
-1.0000000000000000e+00 +8.1529716393597500e+00 +0.0000000000000000e+00 -9.9999999946378304e-01 -2.9277935055560683e-02 -5.6459197362698788e-01 +5.7097646948541603e-03
-1.1000000000000001e+00 +8.1529656836210105e+00 +0.0000000000000000e+00 -1.0999999992862901e+00 -2.9277843167643390e-02 -5.6459202452613189e-01 +5.7097505381037130e-03
-1.2000000000000000e+00 +8.1529591606740706e+00 +0.0000000000000000e+00 -1.1999999990734200e+00 -2.9277749479483275e-02 -5.6459208417809770e-01 +5.7097365646808793e-03
-1.3000000000000000e+00 +8.1529520705153100e+00 +0.0000000000000000e+00 -1.2999999988219300e+00 -2.9277653930988409e-02 -5.6459215284257425e-01 +5.7097226769215626e-03
-1.3999999999999999e+00 +8.1529444131410909e+00 +0.0000000000000000e+00 -1.3999999985286200e+00 -2.9277556462065021e-02 -5.6459223077924692e-01 +5.7097087771614411e-03
-1.5000000000000000e+00 +8.1529361885550298e+00 +0.0000000000000000e+00 -1.4999999981902701e+00 -2.9277457012613844e-02 -5.6459231824774025e-01 +5.7096947677355249e-03
-1.6000000000000001e+00 +8.1529273967571498e+00 +0.0000000000000000e+00 -1.5999999978036501e+00 -2.9277355522534618e-02 -5.6459241550770034e-01 +5.7096805509791173e-03
-1.7000000000000000e+00 +8.1529180377474404e+00 +0.0000000000000000e+00 -1.6999999973655600e+00 -2.9277251931724181e-02 -5.6459252281876671e-01 +5.7096660292276650e-03
-1.8000000000000000e+00 +8.1529081115222706e+00 +0.0000000000000000e+00 -1.7999999968727800e+00 -2.9277146180077703e-02 -5.6459264044059887e-01 +5.7096511048171598e-03
-1.8999999999999999e+00 +8.1528976180852606e+00 +0.0000000000000000e+00 -1.8999999963220899e+00 -2.9277038207483605e-02 -5.6459276863279151e-01 +5.7096356800833787e-03
-2.0000000000000000e+00 +8.1528865574327902e+00 +0.0000000000000000e+00 -1.9999999957102601e+00 -2.9276927953829582e-02 -5.6459290765498482e-01 +5.7096196573631760e-03
-2.1000000000000001e+00 +8.1528749295721408e+00 +0.0000000000000000e+00 -2.0999999950340902e+00 -2.9276815416464066e-02 -5.6459305756586975e-01 +5.7096029858477414e-03
-2.2000000000000002e+00 +8.1528627344960096e+00 +0.0000000000000000e+00 -2.1999999942903599e+00 -2.9276700822616727e-02 -5.6459321762082548e-01 +5.7095858021485547e-03
-2.2999999999999998e+00 +8.1528499722080596e+00 +0.0000000000000000e+00 -2.2999999934758399e+00 -2.9276584456978869e-02 -5.6459338687428728e-01 +5.7095682897315998e-03
-2.3999999999999999e+00 +8.1528366427046404e+00 +0.0000000000000000e+00 -2.3999999925873299e+00 -2.9276466604241533e-02 -5.6459356438073960e-01 +5.7095506320642975e-03
-2.5000000000000000e+00 +8.1528227459894005e+00 +0.0000000000000000e+00 -2.4999999916215998e+00 -2.9276347549089050e-02 -5.6459374919460403e-01 +5.7095330126144669e-03
-2.6000000000000001e+00 +8.1528082820659602e+00 +0.0000000000000000e+00 -2.5999999905754398e+00 -2.9276227576202074e-02 -5.6459394037029675e-01 +5.7095156148510009e-03
-2.7000000000000002e+00 +8.1527932509234198e+00 +0.0000000000000000e+00 -2.6999999894456299e+00 -2.9276106970263706e-02 -5.6459413696233784e-01 +5.7094986222451386e-03
-2.7999999999999998e+00 +8.1527776525726896e+00 +0.0000000000000000e+00 -2.7999999882289601e+00 -2.9275986015943584e-02 -5.6459433802507253e-01 +5.7094822182676757e-03
-2.8999999999999999e+00 +8.1527614870065008e+00 +0.0000000000000000e+00 -2.8999999869222002e+00 -2.9275864997915100e-02 -5.6459454261297792e-01 +5.7094665863922506e-03
-3.0000000000000000e+00 +8.1527447542284808e+00 +0.0000000000000000e+00 -2.9999999855221300e+00 -2.9275744200842620e-02 -5.6459474978044033e-01 +5.7094519100931544e-03
-3.1000000000000001e+00 +8.1527274542386294e+00 +0.0000000000000000e+00 -3.0999999840255499e+00 -2.9275623909387639e-02 -5.6459495858186526e-01 +5.7094383728465816e-03
-3.2000000000000002e+00 +8.1527095870333106e+00 +0.0000000000000000e+00 -3.1999999824292300e+00 -2.9275504408208659e-02 -5.6459516807167842e-01 +5.7094261581307421e-03
-3.2999999999999998e+00 +8.1526911526198091e+00 +0.0000000000000000e+00 -3.2999999807299600e+00 -2.9275385981954678e-02 -5.6459537730421294e-01 +5.7094154494248157e-03
-3.3999999999999999e+00 +8.1526721509872004e+00 +0.0000000000000000e+00 -3.3999999789245101e+00 -2.9275268915277736e-02 -5.6459558533393339e-01 +5.7094064302113624e-03
-3.5000000000000000e+00 +8.1526525821464002e+00 +0.0000000000000000e+00 -3.4999999770096801e+00 -2.9275153492815325e-02 -5.6459579121512649e-01 +5.7093992839732663e-03
-3.6000000000000001e+00 +8.1526324460901396e+00 +0.0000000000000000e+00 -3.5999999749822500e+00 -2.9275039999207664e-02 -5.6459599400221083e-01 +5.7093941941970192e-03
-3.7000000000000002e+00 +8.1526117428220495e+00 +0.0000000000000000e+00 -3.6999999728389801e+00 -2.9274928719084898e-02 -5.6459619274951056e-01 +5.7093913443704942e-03
-3.7999999999999998e+00 +8.1525904723421299e+00 +0.0000000000000000e+00 -3.7999999705766800e+00 -2.9274819937073260e-02 -5.6459638651136879e-01 +5.7093909179842528e-03
-3.8999999999999999e+00 +8.1525686346503807e+00 +0.0000000000000000e+00 -3.8999999681921298e+00 -2.9274713937793340e-02 -5.6459657434211841e-01 +5.7093930985313212e-03
-4.0000000000000000e+00 +8.1525462297431694e+00 +0.0000000000000000e+00 -3.9999999656820902e+00 -2.9274611005861515e-02 -5.6459675529610998e-01 +5.7093980695076098e-03
-4.0999999999999996e+00 +8.1525232576241304e+00 +0.0000000000000000e+00 -4.0999999630433699e+00 -2.9274511377775706e-02 -5.6459692871299438e-01 +5.7094059627095977e-03
-4.2000000000000002e+00 +8.1524997182896204e+00 +0.0000000000000000e+00 -4.1999999602727298e+00 -2.9274415097599694e-02 -5.6459709507394651e-01 +5.7094167031289441e-03
-4.2999999999999998e+00 +8.1524756117469206e+00 +0.0000000000000000e+00 -4.2999999573669703e+00 -2.9274322161295295e-02 -5.6459725514544734e-01 +5.7094301640527520e-03
-4.4000000000000004e+00 +8.1524509379887604e+00 +0.0000000000000000e+00 -4.3999999543228601e+00 -2.9274232564845439e-02 -5.6459740969411687e-01 +5.7094462187665838e-03
-4.5000000000000000e+00 +8.1524256970187707e+00 +0.0000000000000000e+00 -4.4999999511372000e+00 -2.9274146304244131e-02 -5.6459755948652002e-01 +5.7094647405522680e-03
-4.5999999999999996e+00 +8.1523998888369498e+00 +0.0000000000000000e+00 -4.5999999478067499e+00 -2.9274063375503895e-02 -5.6459770528928110e-01 +5.7094856026888244e-03
-4.7000000000000002e+00 +8.1523735134396702e+00 +0.0000000000000000e+00 -4.6999999443283098e+00 -2.9273983774656676e-02 -5.6459784786908451e-01 +5.7095086784522643e-03
-4.7999999999999998e+00 +8.1523465708305594e+00 +0.0000000000000000e+00 -4.7999999406986600e+00 -2.9273907497750200e-02 -5.6459798799259420e-01 +5.7095338411145133e-03
-4.9000000000000004e+00 +8.1523190610096208e+00 +0.0000000000000000e+00 -4.8999999369145701e+00 -2.9273834540853742e-02 -5.6459812642653773e-01 +5.7095609639440624e-03
-5.0000000000000000e+00 +8.1522909839768491e+00 +0.0000000000000000e+00 -4.9999999329728402e+00 -2.9273764900057595e-02 -5.6459826393768187e-01 +5.7095899202054927e-03
-5.0999999999999996e+00 +8.1522623397286207e+00 +0.0000000000000000e+00 -5.0999999288702398e+00 -2.9273698571475583e-02 -5.6459840129286143e-01 +5.7096205831595271e-03
-5.2000000000000002e+00 +8.1522331282685592e+00 +0.0000000000000000e+00 -5.1999999246035600e+00 -2.9273635551241513e-02 -5.6459853925889747e-01 +5.7096528260619783e-03
-5.2999999999999998e+00 +8.1522033495966806e+00 +0.0000000000000000e+00 -5.2999999201695802e+00 -2.9273575835514789e-02 -5.6459867860268320e-01 +5.7096865221643945e-03
-5.4000000000000004e+00 +8.1521730037093203e+00 +0.0000000000000000e+00 -5.3999999155650800e+00 -2.9273519420481557e-02 -5.6459882009118612e-01 +5.7097215447138566e-03
-5.5000000000000000e+00 +8.1521420906137791e+00 +0.0000000000000000e+00 -5.4999999107868396e+00 -2.9273466302349338e-02 -5.6459896449133651e-01 +5.7097577669516118e-03
-5.5999999999999996e+00 +8.1521106102991308e+00 +0.0000000000000000e+00 -5.5999999058316599e+00 -2.9273416477360776e-02 -5.6459911257025586e-01 +5.7097950621151803e-03
-5.7000000000000002e+00 +8.1520785627762997e+00 +0.0000000000000000e+00 -5.6999999006963096e+00 -2.9273369941777219e-02 -5.6459926509494840e-01 +5.7098333034349630e-03
-5.7999999999999998e+00 +8.1520459480379905e+00 +0.0000000000000000e+00 -5.7999998953775700e+00 -2.9273326691897191e-02 -5.6459942283261177e-01 +5.7098723641372260e-03
-5.9000000000000004e+00 +8.1520127660915005e+00 +0.0000000000000000e+00 -5.8999998898722197e+00 -2.9273286724043123e-02 -5.6459958655038700e-01 +5.7099121174412591e-03
-5.9999999999999902e+00 +8.1519790169259103e+00 +0.0000000000000000e+00 -5.9999998841770603e+00 -2.9273250034576748e-02 -5.6459975701561349e-01 +5.7099524365618127e-03
-6.0999999999999899e+00 +8.1519447005521197e+00 +0.0000000000000000e+00 -6.0999998782888598e+00 -2.9273216441483431e-02 -5.6459993487465954e-01 +5.7099932105072028e-03
-6.1999999999999904e+00 +8.1519098169665103e+00 +0.0000000000000000e+00 -6.1999998722044003e+00 -2.9273185049170401e-02 -5.6460012029059392e-01 +5.7100343914907540e-03
-6.2999999999999901e+00 +8.1518743661654298e+00 +0.0000000000000000e+00 -6.2999998659204701e+00 -2.9273154783626340e-02 -5.6460031330560412e-01 +5.7100759475318796e-03
-6.3999999999999897e+00 +8.1518383481488907e+00 +0.0000000000000000e+00 -6.3999998594338496e+00 -2.9273124570814438e-02 -5.6460051396182043e-01 +5.7101178466553845e-03
-6.4999999999999902e+00 +8.1518017629241495e+00 +0.0000000000000000e+00 -6.4999998527413201e+00 -2.9273093336669512e-02 -5.6460072230128622e-01 +5.7101600568914565e-03
-6.5999999999999899e+00 +8.1517646104839496e+00 +0.0000000000000000e+00 -6.5999998458396698e+00 -2.9273060007106305e-02 -5.6460093836612524e-01 +5.7102025462776760e-03
-6.6999999999999904e+00 +8.1517268908319203e+00 +0.0000000000000000e+00 -6.6999998387256703e+00 -2.9273023508007090e-02 -5.6460116219834222e-01 +5.7102452828572568e-03
-6.7999999999999901e+00 +8.1516886039680703e+00 +0.0000000000000000e+00 -6.7999998313961196e+00 -2.9272982765226867e-02 -5.6460139383993468e-01 +5.7102882346804877e-03
-6.8999999999999897e+00 +8.1516497498923908e+00 +0.0000000000000000e+00 -6.8999998238477902e+00 -2.9272936704590403e-02 -5.6460163333286262e-01 +5.7103313698047067e-03
-6.9999999999999902e+00 +8.1516103286012402e+00 +0.0000000000000000e+00 -6.9999998160774597e+00 -2.9272884251892665e-02 -5.6460188071907536e-01 +5.7103746562948655e-03
-7.0999999999999899e+00 +8.1515703400982602e+00 +0.0000000000000000e+00 -7.0999998080819298e+00 -2.9272824332892772e-02 -5.6460213604042331e-01 +5.7104180622229335e-03
-7.1999999999999904e+00 +8.1515297843834595e+00 +0.0000000000000000e+00 -7.1999997998579603e+00 -2.9272755873317544e-02 -5.6460239933874423e-01 +5.7104615556690472e-03
-7.2999999999999901e+00 +8.1514886614531896e+00 +0.0000000000000000e+00 -7.2999997914023496e+00 -2.9272677798860201e-02 -5.6460267065585856e-01 +5.7105051047217689e-03
-7.3999999999999897e+00 +8.1514469713147300e+00 +0.0000000000000000e+00 -7.3999997827118804e+00 -2.9272589035172845e-02 -5.6460295003345640e-01 +5.7105486774772177e-03
-7.4999999999999902e+00 +8.1514047139571595e+00 +0.0000000000000000e+00 -7.4999997737833199e+00 -2.9272488507877840e-02 -5.6460323751332109e-01 +5.7105922420416467e-03
-7.5999999999999899e+00 +8.1513618893914099e+00 +0.0000000000000000e+00 -7.5999997646134698e+00 -2.9272375142549170e-02 -5.6460353313701672e-01 +5.7106357665285302e-03
-7.6999999999999904e+00 +8.1513184976138309e+00 +0.0000000000000000e+00 -7.6999997551991104e+00 -2.9272247864727034e-02 -5.6460383694616967e-01 +5.7106792190617425e-03
-7.7999999999999901e+00 +8.1512745386207808e+00 +0.0000000000000000e+00 -7.7999997455370096e+00 -2.9272105599910281e-02 -5.6460414898235289e-01 +5.7107225677746664e-03
-7.8999999999999897e+00 +8.1512300124159101e+00 +0.0000000000000000e+00 -7.8999997356239602e+00 -2.9271947273551958e-02 -5.6460446928702779e-01 +5.7107657808098851e-03
-7.9999999999999902e+00 +8.1511849189955701e+00 +0.0000000000000000e+00 -7.9999997254567399e+00 -2.9271771811064426e-02 -5.6460479790165641e-01 +5.7108088263206069e-03
-8.0999999999999908e+00 +8.1511392583670403e+00 +0.0000000000000000e+00 -8.0999997150321406e+00 -2.9271578664777542e-02 -5.6460513484773878e-01 +5.7108516831446722e-03
-8.1999999999999904e+00 +8.1510930305230396e+00 +0.0000000000000000e+00 -8.1999997043469399e+00 -2.9271369394894928e-02 -5.6460548006758393e-01 +5.7108943728265121e-03
-8.2999999999999901e+00 +8.1510462354672200e+00 +0.0000000000000000e+00 -8.2999996933979094e+00 -2.9271146088620012e-02 -5.6460583348362381e-01 +5.7109369275787610e-03
-8.3999999999999897e+00 +8.1509988731995708e+00 +0.0000000000000000e+00 -8.3999996821818605e+00 -2.9270910833194361e-02 -5.6460619501835607e-01 +5.7109793796062819e-03
-8.4999999999999893e+00 +8.1509509437164507e+00 +0.0000000000000000e+00 -8.4999996706955496e+00 -2.9270665715898914e-02 -5.6460656459434488e-01 +5.7110217611058842e-03
-8.5999999999999908e+00 +8.1509024470215099e+00 +0.0000000000000000e+00 -8.5999996589357703e+00 -2.9270412824050449e-02 -5.6460694213413731e-01 +5.7110641042651443e-03
-8.6999999999999904e+00 +8.1508533831147396e+00 +0.0000000000000000e+00 -8.6999996468993004e+00 -2.9270154245007590e-02 -5.6460732756034870e-01 +5.7111064412630041e-03
-8.7999999999999794e+00 +8.1508037519961398e+00 +0.0000000000000000e+00 -8.7999996345829192e+00 -2.9269892066170488e-02 -5.6460772079563659e-01 +5.7111488042691783e-03
-8.8999999999999808e+00 +8.1507535536620708e+00 +0.0000000000000000e+00 -8.8999996219834205e+00 -2.9269628374983613e-02 -5.6460812176272956e-01 +5.7111912254441555e-03
-8.9999999999999805e+00 +8.1507027881161793e+00 +0.0000000000000000e+00 -8.9999996090975891e+00 -2.9269365258932235e-02 -5.6460853038434455e-01 +5.7112337369380414e-03
-9.0999999999999801e+00 +8.1506514553584601e+00 +0.0000000000000000e+00 -9.0999995959221902e+00 -2.9269104805548431e-02 -5.6460894658327110e-01 +5.7112763708911307e-03
-9.1999999999999797e+00 +8.1505995553889097e+00 +0.0000000000000000e+00 -9.1999995824540193e+00 -2.9268849102410732e-02 -5.6460937028234681e-01 +5.7113191594333410e-03
-9.2999999999999794e+00 +8.1505470882038900e+00 +0.0000000000000000e+00 -9.2999995686898593e+00 -2.9268600237146922e-02 -5.6460980140448436e-01 +5.7113621346841902e-03
-9.3999999999999808e+00 +8.1504940538070496e+00 +0.0000000000000000e+00 -9.3999995546264898e+00 -2.9268360297430542e-02 -5.6461023987258940e-01 +5.7114053287516554e-03
-9.4999999999999805e+00 +8.1504404521983798e+00 +0.0000000000000000e+00 -9.4999995402606903e+00 -2.9268131370986824e-02 -5.6461068560964678e-01 +5.7114487737327455e-03
-9.5999999999999801e+00 +8.1503862833778804e+00 +0.0000000000000000e+00 -9.5999995255892507e+00 -2.9267915545592407e-02 -5.6461113853869227e-01 +5.7114925017129198e-03
-9.6999999999999797e+00 +8.1503315473419207e+00 +0.0000000000000000e+00 -9.6999995106089507e+00 -2.9267714909078063e-02 -5.6461159858284271e-01 +5.7115365447660818e-03
-9.7999999999999794e+00 +8.1502762440941297e+00 +0.0000000000000000e+00 -9.7999994953165697e+00 -2.9267531549325234e-02 -5.6461206566521294e-01 +5.7115809349534393e-03
-9.8999999999999808e+00 +8.1502203736345091e+00 +0.0000000000000000e+00 -9.8999994797088906e+00 -2.9267367554271975e-02 -5.6461253970900127e-01 +5.7116257043240588e-03
-9.9999999999999805e+00 +8.1501639359594300e+00 +0.0000000000000000e+00 -9.9999994637827001e+00 -2.9267225011914151e-02 -5.6461302063749019e-01 +5.7116708849145872e-03
-1.0100000000000000e+01 +8.1501069310761505e+00 +0.0000000000000000e+00 -1.0099999447534801e+01 -2.9267105441336188e-02 -5.6461350828748980e-01 +5.7117164893672120e-03
-1.0199999999999999e+01 +8.1500493589774106e+00 +0.0000000000000000e+00 -1.0199999430961901e+01 -2.9267008085763092e-02 -5.6461400215014335e-01 +5.7117624527937057e-03
-1.0300000000000001e+01 +8.1499912196668394e+00 +0.0000000000000000e+00 -1.0299999414060901e+01 -2.9266931619406560e-02 -5.6461450162999116e-01 +5.7118086909250703e-03
-1.0400000000000000e+01 +8.1499325131444493e+00 +0.0000000000000000e+00 -1.0399999396828500e+01 -2.9266874716445079e-02 -5.6461500613151838e-01 +5.7118551194953546e-03
-1.0500000000000000e+01 +8.1498732394065900e+00 +0.0000000000000000e+00 -1.0499999379261400e+01 -2.9266836051022999e-02 -5.6461551505915297e-01 +5.7119016542417468e-03
-1.0600000000000000e+01 +8.1498133984568994e+00 +0.0000000000000000e+00 -1.0599999361356600e+01 -2.9266814297244738e-02 -5.6461602781717835e-01 +5.7119482109038115e-03
-1.0699999999999999e+01 +8.1497529902953794e+00 +0.0000000000000000e+00 -1.0699999343110701e+01 -2.9266808129178510e-02 -5.6461654380981641e-01 +5.7119947052244662e-03
-1.0800000000000001e+01 +8.1496920149220404e+00 +0.0000000000000000e+00 -1.0799999324520600e+01 -2.9266816220853777e-02 -5.6461706244119658e-01 +5.7120410529497897e-03
-1.0900000000000000e+01 +8.1496304723332305e+00 +0.0000000000000000e+00 -1.0899999305583000e+01 -2.9266837246261817e-02 -5.6461758311538235e-01 +5.7120871698294216e-03
-1.1000000000000000e+01 +8.1495683625325892e+00 +0.0000000000000000e+00 -1.0999999286294800e+01 -2.9266869879349931e-02 -5.6461810523628431e-01 +5.7121329716157965e-03
-1.1100000000000000e+01 +8.1495056855201309e+00 +0.0000000000000000e+00 -1.1099999266652601e+01 -2.9266912794025244e-02 -5.6461862820774200e-01 +5.7121783740651088e-03
-1.1199999999999999e+01 +8.1494424412958306e+00 +0.0000000000000000e+00 -1.1199999246653300e+01 -2.9266964664152101e-02 -5.6461915143349461e-01 +5.7122232929371405e-03
-1.1300000000000001e+01 +8.1493786298560700e+00 +0.0000000000000000e+00 -1.1299999226293700e+01 -2.9267024163552657e-02 -5.6461967431720550e-01 +5.7122676439956433e-03
-1.1400000000000000e+01 +8.1493142512044905e+00 +0.0000000000000000e+00 -1.1399999205570500e+01 -2.9267089966001084e-02 -5.6462019626237625e-01 +5.7123113430075740e-03
-1.1500000000000000e+01 +8.1492493053447106e+00 +0.0000000000000000e+00 -1.1499999184480499e+01 -2.9267160745225836e-02 -5.6462071667240166e-01 +5.7123543057437838e-03
-1.1600000000000000e+01 +8.1491837922658306e+00 +0.0000000000000000e+00 -1.1599999163020600e+01 -2.9267235174914943e-02 -5.6462123495067840e-01 +5.7123964479802803e-03
-1.1699999999999999e+01 +8.1491177119787608e+00 +0.0000000000000000e+00 -1.1699999141187400e+01 -2.9267311928699136e-02 -5.6462175050032248e-01 +5.7124376854954251e-03
