# trajectory
# s[mm] rx[mm] ry[mm] rz[mm] px[rad] py[rad] pz[rad]
0.0000000000000000e+00 +8.1649999999999991e+00 +0.0000000000000000e+00 +0.0000000000000000e+00 +0.0000000000000000e+00 +0.0000000000000000e+00 +1.0000000000000000e+00
-1.0000000000000001e-01 +8.1649997171630879e+00 +0.0000000000000000e+00 -9.9999999999466682e-02 +5.6567382473375366e-06 +0.0000000000000000e+00 +9.9999999998400069e-01
-2.0000000000000001e-01 +8.1649988686523436e+00 +0.0000000000000000e+00 -1.9999999999573351e-01 +1.1313476672252337e-05 +0.0000000000000000e+00 +9.9999999993600264e-01
-3.0000000000000004e-01 +8.1649974544677431e+00 +0.0000000000000000e+00 -2.9999999998560056e-01 +1.6970215384096268e-05 +0.0000000000000000e+00 +9.9999999985600596e-01
-4.0000000000000002e-01 +8.1649954746092526e+00 +0.0000000000000000e+00 -3.9999999996586805e-01 +2.2626954487097057e-05 +0.0000000000000000e+00 +9.9999999974401055e-01
-5.0000000000000000e-01 +8.1649929290768295e+00 +0.0000000000000000e+00 -4.9999999993333605e-01 +2.8283694080358224e-05 +0.0000000000000000e+00 +9.9999999960001640e-01
-5.9999999999999998e-01 +8.1649898178704170e+00 +0.0000000000000000e+00 -5.9999999988480468e-01 +3.3940434257859019e-05 +0.0000000000000000e+00 +9.9999999942402351e-01
-6.9999999999999996e-01 +8.1649861409899547e+00 +0.0000000000000000e+00 -6.9999999981707406e-01 +3.9597175108454389e-05 +0.0000000000000000e+00 +9.9999999921603189e-01
-7.9999999999999993e-01 +8.1649818984353697e+00 +0.0000000000000000e+00 -7.9999999972694436e-01 +4.5253916715874890e-05 +0.0000000000000000e+00 +9.9999999897604153e-01
-8.9999999999999991e-01 +8.1649770902065839e+00 +0.0000000000000000e+00 -8.9999999961121568e-01 +5.0910659158726651e-05 +0.0000000000000000e+00 +9.9999999870405243e-01
-9.9999999999999989e-01 +8.1649717163035085e+00 +0.0000000000000000e+00 -9.9999999946668816e-01 +5.6567402510491289e-05 +0.0000000000000000e+00 +9.9999999840006448e-01
-1.0999999999999999e+00 +8.1649657767260493e+00 +0.0000000000000000e+00 -1.0999999992901619e+00 +6.2224146839525883e-05 +0.0000000000000000e+00 +9.9999999806407780e-01
-1.2000000000000000e+00 +8.1649592714741051e+00 +0.0000000000000000e+00 -1.1999999990784371e+00 +6.7880892209062891e-05 +0.0000000000000000e+00 +9.9999999769609227e-01
-1.3000000000000000e+00 +8.1649522005475710e+00 +0.0000000000000000e+00 -1.2999999988283137e+00 +7.3537638677210074e-05 +0.0000000000000000e+00 +9.9999999729610789e-01
-1.4000000000000001e+00 +8.1649445639463316e+00 +0.0000000000000000e+00 -1.3999999985365921e+00 +7.9194386296950483e-05 +0.0000000000000000e+00 +9.9999999686412466e-01
-1.5000000000000002e+00 +8.1649363616702715e+00 +0.0000000000000000e+00 -1.4999999982000720e+00 +8.4851135116142346e-05 +0.0000000000000000e+00 +9.9999999640014248e-01
-1.6000000000000003e+00 +8.1649275937192680e+00 +0.0000000000000000e+00 -1.5999999978155539e+00 +9.0507885177519017e-05 +0.0000000000000000e+00 +9.9999999590416144e-01
-1.7000000000000004e+00 +8.1649182600931933e+00 +0.0000000000000000e+00 -1.6999999973798376e+00 +9.6164636518688949e-05 +0.0000000000000000e+00 +9.9999999537618145e-01
-1.8000000000000005e+00 +8.1649083607919195e+00 +0.0000000000000000e+00 -1.7999999968897236e+00 +1.0182138917213557e-04 +0.0000000000000000e+00 +9.9999999481620250e-01
-1.9000000000000006e+00 +8.1648978958153133e+00 +0.0000000000000000e+00 -1.8999999963420116e+00 +1.0747814316521727e-04 +0.0000000000000000e+00 +9.9999999422422448e-01
-2.0000000000000004e+00 +8.1648868651632398e+00 +0.0000000000000000e+00 -1.9999999957335017e+00 +1.1313489852016732e-04 +0.0000000000000000e+00 +9.9999999360024749e-01
-2.1000000000000005e+00 +8.1648752688355621e+00 +0.0000000000000000e+00 -2.0999999950609944e+00 +1.1879165525437488e-04 +0.0000000000000000e+00 +9.9999999294427144e-01
-2.2000000000000006e+00 +8.1648631068321418e+00 +0.0000000000000000e+00 -2.1999999943212893e+00 +1.2444841338347723e-04 +0.0000000000000000e+00 +9.9999999225629632e-01
-2.3000000000000007e+00 +8.1648503791528384e+00 +0.0000000000000000e+00 -2.2999999935111868e+00 +1.3010517292445190e-04 +0.0000000000000000e+00 +9.9999999153632213e-01
-2.4000000000000008e+00 +8.1648370857975099e+00 +0.0000000000000000e+00 -2.3999999926274871e+00 +1.3576193389589782e-04 +0.0000000000000000e+00 +9.9999999078434876e-01
-2.5000000000000009e+00 +8.1648232267660106e+00 +0.0000000000000000e+00 -2.4999999916669902e+00 +1.4141869631803541e-04 +0.0000000000000000e+00 +9.9999999000037632e-01
-2.6000000000000010e+00 +8.1648088020581966e+00 +0.0000000000000000e+00 -2.5999999906264959e+00 +1.4707546021270655e-04 +0.0000000000000000e+00 +9.9999998918440469e-01
-2.7000000000000011e+00 +8.1647938116739187e+00 +0.0000000000000000e+00 -2.6999999895028046e+00 +1.5273222560337467e-04 +0.0000000000000000e+00 +9.9999998833643378e-01
-2.8000000000000012e+00 +8.1647782556130259e+00 +0.0000000000000000e+00 -2.7999999882927162e+00 +1.5838899251512483e-04 +0.0000000000000000e+00 +9.9999998745646368e-01
-2.9000000000000012e+00 +8.1647621338753638e+00 +0.0000000000000000e+00 -2.8999999869930306e+00 +1.6404576097466371e-04 +0.0000000000000000e+00 +9.9999998654449429e-01
-3.0000000000000013e+00 +8.1647454464607776e+00 +0.0000000000000000e+00 -2.9999999856005481e+00 +1.6970253101031982e-04 +0.0000000000000000e+00 +9.9999998560052561e-01
-3.1000000000000014e+00 +8.1647281933691076e+00 +0.0000000000000000e+00 -3.0999999841120691e+00 +1.7535930265204344e-04 +0.0000000000000000e+00 +9.9999998462455764e-01
-3.2000000000000015e+00 +8.1647103746001921e+00 +0.0000000000000000e+00 -3.1999999825243930e+00 +1.8101607593140682e-04 +0.0000000000000000e+00 +9.9999998361659026e-01
-3.3000000000000016e+00 +8.1646919901538659e+00 +0.0000000000000000e+00 -3.2999999808343206e+00 +1.8667285088160427e-04 +0.0000000000000000e+00 +9.9999998257662348e-01
-3.4000000000000017e+00 +8.1646730400299585e+00 +0.0000000000000000e+00 -3.3999999790386513e+00 +1.9232962753745229e-04 +0.0000000000000000e+00 +9.9999998150465730e-01
-3.5000000000000018e+00 +8.1646535242282994e+00 +0.0000000000000000e+00 -3.4999999771341854e+00 +1.9798640593538962e-04 +0.0000000000000000e+00 +9.9999998040069160e-01
-3.6000000000000019e+00 +8.1646334427487126e+00 +0.0000000000000000e+00 -3.5999999751177230e+00 +2.0364318611347743e-04 +0.0000000000000000e+00 +9.9999997926472639e-01
-3.7000000000000020e+00 +8.1646127955910170e+00 +0.0000000000000000e+00 -3.6999999729860642e+00 +2.0929996811139951e-04 +0.0000000000000000e+00 +9.9999997809676167e-01
-3.8000000000000020e+00 +8.1645915827550279e+00 +0.0000000000000000e+00 -3.7999999707360086e+00 +2.1495675197046233e-04 +0.0000000000000000e+00 +9.9999997689679732e-01
-3.9000000000000021e+00 +8.1645698042405588e+00 +0.0000000000000000e+00 -3.8999999683643569e+00 +2.2061353773359527e-04 +0.0000000000000000e+00 +9.9999997566483334e-01
-4.0000000000000018e+00 +8.1645474600474159e+00 +0.0000000000000000e+00 -3.9999999658679086e+00 +2.2627032544535072e-04 +0.0000000000000000e+00 +9.9999997440086974e-01
-4.1000000000000014e+00 +8.1645245501754022e+00 +0.0000000000000000e+00 -4.0999999632434641e+00 +2.3192711515188192e-04 +0.0000000000000000e+00 +9.9999997310490640e-01
-4.2000000000000011e+00 +8.1645010746243170e+00 +0.0000000000000000e+00 -4.1999999604878235e+00 +2.3758390690069601e-04 +0.0000000000000000e+00 +9.9999997177694333e-01
-4.3000000000000007e+00 +8.1644770333939523e+00 +0.0000000000000000e+00 -4.2999999575977865e+00 +2.4324070074040709e-04 +0.0000000000000000e+00 +9.9999997041698041e-01
-4.4000000000000004e+00 +8.1644524264840967e+00 +0.0000000000000000e+00 -4.3999999545701529e+00 +2.4889749672071375e-04 +0.0000000000000000e+00 +9.9999996902501764e-01
-4.5000000000000000e+00 +8.1644272538945337e+00 +0.0000000000000000e+00 -4.4999999514017235e+00 +2.5455429489239906e-04 +0.0000000000000000e+00 +9.9999996760105503e-01
-4.5999999999999996e+00 +8.1644015156250429e+00 +0.0000000000000000e+00 -4.5999999480892972e+00 +2.6021109530733054e-04 +0.0000000000000000e+00 +9.9999996614509246e-01
-4.6999999999999993e+00 +8.1643752116753951e+00 +0.0000000000000000e+00 -4.6999999446296750e+00 +2.6586789801846003e-04 +0.0000000000000000e+00 +9.9999996465712981e-01
-4.7999999999999989e+00 +8.1643483420453595e+00 +0.0000000000000000e+00 -4.7999999410196565e+00 +2.7152470307982384e-04 +0.0000000000000000e+00 +9.9999996313716721e-01
-4.8999999999999986e+00 +8.1643209067346980e+00 +0.0000000000000000e+00 -4.8999999372560419e+00 +2.7718151054654248e-04 +0.0000000000000000e+00 +9.9999996158520443e-01
-4.9999999999999982e+00 +8.1642929057431672e+00 +0.0000000000000000e+00 -4.9999999333356309e+00 +2.8283832047482077e-04 +0.0000000000000000e+00 +9.9999996000124147e-01
-5.0999999999999979e+00 +8.1642643390705185e+00 +0.0000000000000000e+00 -5.0999999292552234e+00 +2.8849513292194775e-04 +0.0000000000000000e+00 +9.9999995838527833e-01
-5.1999999999999975e+00 +8.1642352067164961e+00 +0.0000000000000000e+00 -5.1999999250116193e+00 +2.9415194794629658e-04 +0.0000000000000000e+00 +9.9999995673731490e-01
-5.2999999999999972e+00 +8.1642055086808405e+00 +0.0000000000000000e+00 -5.2999999206016195e+00 +2.9980876560732459e-04 +0.0000000000000000e+00 +9.9999995505735106e-01
-5.3999999999999968e+00 +8.1641752449632854e+00 +0.0000000000000000e+00 -5.3999999160220229e+00 +3.0546558596557309e-04 +0.0000000000000000e+00 +9.9999995334538683e-01
-5.4999999999999964e+00 +8.1641444155635554e+00 +0.0000000000000000e+00 -5.4999999112696303e+00 +3.1112240908266731e-04 +0.0000000000000000e+00 +9.9999995160142208e-01
-5.5999999999999961e+00 +8.1641130204813734e+00 +0.0000000000000000e+00 -5.5999999063412407e+00 +3.1677923502131642e-04 +0.0000000000000000e+00 +9.9999994982545681e-01
-5.6999999999999957e+00 +8.1640810597164553e+00 +0.0000000000000000e+00 -5.6999999012336549e+00 +3.2243606384531342e-04 +0.0000000000000000e+00 +9.9999994801749092e-01
-5.7999999999999954e+00 +8.1640485332685060e+00 +0.0000000000000000e+00 -5.7999998959436727e+00 +3.2809289561953501e-04 +0.0000000000000000e+00 +9.9999994617752441e-01
-5.8999999999999950e+00 +8.1640154411372308e+00 +0.0000000000000000e+00 -5.8999998904680933e+00 +3.3374973040994151e-04 +0.0000000000000000e+00 +9.9999994430555716e-01
-5.9999999999999947e+00 +8.1639817833223223e+00 +0.0000000000000000e+00 -5.9999998848037173e+00 +3.3940656828357688e-04 +0.0000000000000000e+00 +9.9999994240158907e-01
-6.0999999999999943e+00 +8.1639475598234696e+00 +0.0000000000000000e+00 -6.0999998789473446e+00 +3.4506340930804682e-04 +0.0000000000000000e+00 +9.9999994046562002e-01
-6.1999999999999940e+00 +8.1639127706403531e+00 +0.0000000000000000e+00 -6.1999998728957753e+00 +3.5072025354578051e-04 +0.0000000000000000e+00 +9.9999993849765001e-01
-6.2999999999999936e+00 +8.1638774157726512e+00 +0.0000000000000000e+00 -6.2999998666458081e+00 +3.5637710104829241e-04 +0.0000000000000000e+00 +9.9999993649767893e-01
-6.3999999999999932e+00 +8.1638414952200336e+00 +0.0000000000000000e+00 -6.3999998601942441e+00 +3.6203395185566026e-04 +0.0000000000000000e+00 +9.9999993446570667e-01
-6.4999999999999929e+00 +8.1638050089821697e+00 +0.0000000000000000e+00 -6.4999998535378829e+00 +3.6769080599652489e-04 +0.0000000000000000e+00 +9.9999993240173324e-01
-6.5999999999999925e+00 +8.1637679570587238e+00 +0.0000000000000000e+00 -6.5999998466735246e+00 +3.7334766348809015e-04 +0.0000000000000000e+00 +9.9999993030575862e-01
-6.6999999999999922e+00 +8.1637303394493603e+00 +0.0000000000000000e+00 -6.6999998395979681e+00 +3.7900452433612270e-04 +0.0000000000000000e+00 +9.9999992817778260e-01
-6.7999999999999918e+00 +8.1636921561537452e+00 +0.0000000000000000e+00 -6.7999998323080142e+00 +3.8466138853495167e-04 +0.0000000000000000e+00 +9.9999992601780530e-01
-6.8999999999999915e+00 +8.1636534071715428e+00 +0.0000000000000000e+00 -6.8999998248004628e+00 +3.9031825606746857e-04 +0.0000000000000000e+00 +9.9999992382582659e-01
-6.9999999999999911e+00 +8.1636140925024208e+00 +0.0000000000000000e+00 -6.9999998170721129e+00 +3.9597512690512710e-04 +0.0000000000000000e+00 +9.9999992160184636e-01
-7.0999999999999908e+00 +8.1635742121460524e+00 +0.0000000000000000e+00 -7.0999998091197654e+00 +4.0163200100794283e-04 +0.0000000000000000e+00 +9.9999991934586463e-01
-7.1999999999999904e+00 +8.1635337661021126e+00 +0.0000000000000000e+00 -7.1999998009402191e+00 +4.0728887832449306e-04 +0.0000000000000000e+00 +9.9999991705788138e-01
-7.2999999999999901e+00 +8.1634927543702833e+00 +0.0000000000000000e+00 -7.2999997925302749e+00 +4.1294575879191652e-04 +0.0000000000000000e+00 +9.9999991473789651e-01
-7.3999999999999897e+00 +8.1634511769502520e+00 +0.0000000000000000e+00 -7.3999997838867317e+00 +4.1860264233591310e-04 +0.0000000000000000e+00 +9.9999991238591013e-01
-7.4999999999999893e+00 +8.1634090338417167e+00 +0.0000000000000000e+00 -7.4999997750063905e+00 +4.2425952887074377e-04 +0.0000000000000000e+00 +9.9999991000192212e-01
-7.5999999999999890e+00 +8.1633663250443824e+00 +0.0000000000000000e+00 -7.5999997658860501e+00 +4.2991641829923013e-04 +0.0000000000000000e+00 +9.9999990758593249e-01
-7.6999999999999886e+00 +8.1633230505579650e+00 +0.0000000000000000e+00 -7.6999997565225105e+00 +4.3557331051275421e-04 +0.0000000000000000e+00 +9.9999990513794124e-01
-7.7999999999999883e+00 +8.1632792103821910e+00 +0.0000000000000000e+00 -7.7999997469125715e+00 +4.4123020539125823e-04 +0.0000000000000000e+00 +9.9999990265794836e-01
-7.8999999999999879e+00 +8.1632348045168026e+00 +0.0000000000000000e+00 -7.8999997370530330e+00 +4.4688710280324430e-04 +0.0000000000000000e+00 +9.9999990014595386e-01
-7.9999999999999876e+00 +8.1631898329615513e+00 +0.0000000000000000e+00 -7.9999997269406951e+00 +4.5254400260577419e-04 +0.0000000000000000e+00 +9.9999989760195773e-01
-8.0999999999999872e+00 +8.1631442957162061e+00 +0.0000000000000000e+00 -8.0999997165723574e+00 +4.5820090464568147e-04 +0.0000000000000000e+00 +9.9999989502596009e-01
-8.1999999999999869e+00 +8.1630981927805522e+00 +0.0000000000000000e+00 -8.1999997059448209e+00 +4.6385780877290843e-04 +0.0000000000000000e+00 +9.9999989241796094e-01
-8.2999999999999865e+00 +8.1630515241543868e+00 +0.0000000000000000e+00 -8.2999996950548844e+00 +4.6951471485384363e-04 +0.0000000000000000e+00 +9.9999988977796028e-01
-8.3999999999999861e+00 +8.1630042898375201e+00 +0.0000000000000000e+00 -8.3999996838993471e+00 +4.7517162277253480e-04 +0.0000000000000000e+00 +9.9999988710595822e-01
-8.4999999999999858e+00 +8.1629564898297744e+00 +0.0000000000000000e+00 -8.4999996724750098e+00 +4.8082853243068904e-04 +0.0000000000000000e+00 +9.9999988440195464e-01
-8.5999999999999854e+00 +8.1629081241309791e+00 +0.0000000000000000e+00 -8.5999996607786713e+00 +4.8648544374767314e-04 +0.0000000000000000e+00 +9.9999988166594966e-01
-8.6999999999999851e+00 +8.1628591927409726e+00 +0.0000000000000000e+00 -8.6999996488071325e+00 +4.9214235666051416e-04 +0.0000000000000000e+00 +9.9999987889794317e-01
-8.7999999999999847e+00 +8.1628096956595968e+00 +0.0000000000000000e+00 -8.7999996365571924e+00 +4.9779927112389953e-04 +0.0000000000000000e+00 +9.9999987609793528e-01
-8.8999999999999844e+00 +8.1627596328866971e+00 +0.0000000000000000e+00 -8.8999996240256518e+00 +5.0345618711017761e-04 +0.0000000000000000e+00 +9.9999987326592588e-01
-8.9999999999999840e+00 +8.1627090044221244e+00 +0.0000000000000000e+00 -8.9999996112093097e+00 +5.0911310460935813e-04 +0.0000000000000000e+00 +9.9999987040191507e-01
-9.0999999999999837e+00 +8.1626578102657259e+00 +0.0000000000000000e+00 -9.0999995981049668e+00 +5.1477002362911256e-04 +0.0000000000000000e+00 +9.9999986750590275e-01
-9.1999999999999833e+00 +8.1626060504173470e+00 +0.0000000000000000e+00 -9.1999995847094223e+00 +5.2042694419477439e-04 +0.0000000000000000e+00 +9.9999986457788881e-01
-9.2999999999999829e+00 +8.1625537248768332e+00 +0.0000000000000000e+00 -9.2999995710194767e+00 +5.2608386634933981e-04 +0.0000000000000000e+00 +9.9999986161787335e-01
-9.3999999999999826e+00 +8.1625008336440228e+00 +0.0000000000000000e+00 -9.3999995570319292e+00 +5.3174079015346810e-04 +0.0000000000000000e+00 +9.9999985862585616e-01
-9.4999999999999822e+00 +8.1624473767187453e+00 +0.0000000000000000e+00 -9.4999995427435806e+00 +5.3739771568548191e-04 +0.0000000000000000e+00 +9.9999985560183724e-01
-9.5999999999999819e+00 +8.1623933541008249e+00 +0.0000000000000000e+00 -9.5999995281512298e+00 +5.4305464304136794e-04 +0.0000000000000000e+00 +9.9999985254581658e-01
-9.6999999999999815e+00 +8.1623387657900732e+00 +0.0000000000000000e+00 -9.6999995132516776e+00 +5.4871157233477724e-04 +0.0000000000000000e+00 +9.9999984945779397e-01
-9.7999999999999812e+00 +8.1622836117862896e+00 +0.0000000000000000e+00 -9.7999994980417231e+00 +5.5436850369702611e-04 +0.0000000000000000e+00 +9.9999984633776939e-01
-9.8999999999999808e+00 +8.1622278920892608e+00 +0.0000000000000000e+00 -9.8999994825181652e+00 +5.6002543727709617e-04 +0.0000000000000000e+00 +9.9999984318574264e-01
-9.9999999999999805e+00 +8.1621716066987560e+00 +0.0000000000000000e+00 -9.9999994666778047e+00 +5.6568237324163505e-04 +0.0000000000000000e+00 +9.9999984000171360e-01
-1.0099999999999980e+01 +8.1621147556145281e+00 +0.0000000000000000e+00 -1.0099999450517441e+01 +5.7133931177401917e-04 +0.0000000000000000e+00 +9.9999983678568216e-01
-1.0199999999999980e+01 +8.1620573388363091e+00 +0.0000000000000000e+00 -1.0199999434033874e+01 +5.7699625306403834e-04 +0.0000000000000000e+00 +9.9999983353764821e-01
-1.0299999999999979e+01 +8.1619993563638165e+00 +0.0000000000000000e+00 -1.0299999417223903e+01 +5.8265319729758000e-04 +0.0000000000000000e+00 +9.9999983025761152e-01
-1.0399999999999979e+01 +8.1619408081967464e+00 +0.0000000000000000e+00 -1.0399999400084329e+01 +5.8831014465569127e-04 +0.0000000000000000e+00 +9.9999982694557199e-01
-1.0499999999999979e+01 +8.1618816943347756e+00 +0.0000000000000000e+00 -1.0499999382611952e+01 +5.9396709531457886e-04 +0.0000000000000000e+00 +9.9999982360152939e-01
-1.0599999999999978e+01 +8.1618220147775666e+00 +0.0000000000000000e+00 -1.0599999364803569e+01 +5.9962404944560927e-04 +0.0000000000000000e+00 +9.9999982022548362e-01
-1.0699999999999978e+01 +8.1617617695247642e+00 +0.0000000000000000e+00 -1.0699999346655982e+01 +6.0528100721530826e-04 +0.0000000000000000e+00 +9.9999981681743444e-01
-1.0799999999999978e+01 +8.1617009585759970e+00 +0.0000000000000000e+00 -1.0799999328165990e+01 +6.1093796878536116e-04 +0.0000000000000000e+00 +9.9999981337738175e-01
-1.0899999999999977e+01 +8.1616395819308760e+00 +0.0000000000000000e+00 -1.0899999309330392e+01 +6.1659493431261278e-04 +0.0000000000000000e+00 +9.9999980990532544e-01
-1.0999999999999977e+01 +8.1615776395889981e+00 +0.0000000000000000e+00 -1.0999999290145988e+01 +6.2225190394906696e-04 +0.0000000000000000e+00 +9.9999980640126529e-01
-1.1099999999999977e+01 +8.1615151315499439e+00 +0.0000000000000000e+00 -1.1099999270609578e+01 +6.2790887784188712e-04 +0.0000000000000000e+00 +9.9999980286520118e-01
-1.1199999999999976e+01 +8.1614520578132819e+00 +0.0000000000000000e+00 -1.1199999250717962e+01 +6.3356585613339562e-04 +0.0000000000000000e+00 +9.9999979929713290e-01
-1.1299999999999976e+01 +8.1613884183785661e+00 +0.0000000000000000e+00 -1.1299999230467938e+01 +6.3922283896107384e-04 +0.0000000000000000e+00 +9.9999979569706032e-01
-1.1399999999999975e+01 +8.1613242132453347e+00 +0.0000000000000000e+00 -1.1399999209856306e+01 +6.4487982645756222e-04 +0.0000000000000000e+00 +9.9999979206498324e-01
-1.1499999999999975e+01 +8.1612594424131153e+00 +0.0000000000000000e+00 -1.1499999188879867e+01 +6.5053681875066010e-04 +0.0000000000000000e+00 +9.9999978840090153e-01
-1.1599999999999975e+01 +8.1611941058814210e+00 +0.0000000000000000e+00 -1.1599999167535419e+01 +6.5619381596332567e-04 +0.0000000000000000e+00 +9.9999978470481499e-01
-1.1699999999999974e+01 +8.1611282036497546e+00 +0.0000000000000000e+00 -1.1699999145819762e+01 +6.6185081821367570e-04 +0.0000000000000000e+00 +9.9999978097672348e-01
