# field on trajectory
# s[mm] rx[mm] ry[mm] rz[mm] bx[T] by[T] bz[T]
0.0000000000000000e+00 +7.9199999999999999e+00 +0.0000000000000000e+00 +0.0000000000000000e+00 -3.2045830870296811e-02 -5.9432490560718454e-01 +5.9162851979820893e-03
1.0000000000000001e-01 +7.9199997170042291e+00 +0.0000000000000000e+00 +9.9999999999466085e-02 -3.2045900142428543e-02 -5.9432499178977660e-01 +5.9163407569281954e-03
2.0000000000000001e-01 +7.9199988680168607e+00 +0.0000000000000000e+00 +1.9999999999572871e-01 -3.2045965038824877e-02 -5.9432508384874183e-01 +5.9163972592778885e-03
3.0000000000000004e-01 +7.9199974530378068e+00 +0.0000000000000000e+00 +2.9999999998558441e-01 -3.2046025606668624e-02 -5.9432518053377004e-01 +5.9164547924153632e-03
4.0000000000000002e-01 +7.9199954720669759e+00 +0.0000000000000000e+00 +3.9999999996582969e-01 -3.2046081893147761e-02 -5.9432528059453316e-01 +5.9165134437258208e-03
5.0000000000000000e-01 +7.9199929251042720e+00 +0.0000000000000000e+00 +4.9999999993326111e-01 -3.2046133945456599e-02 -5.9432538278069014e-01 +5.9165733005953521e-03
5.9999999999999998e-01 +7.9199898121495984e+00 +0.0000000000000000e+00 +5.9999999988467523e-01 -3.2046181810796957e-02 -5.9432548584189016e-01 +5.9166344504108150e-03
6.9999999999999996e-01 +7.9199861332028574e+00 +0.0000000000000000e+00 +6.9999999981686856e-01 -3.2046225536379334e-02 -5.9432558852777662e-01 +5.9166969805597176e-03
7.9999999999999993e-01 +7.9199818882639512e+00 +0.0000000000000000e+00 +7.9999999972663760e-01 -3.2046265169424125e-02 -5.9432568958799281e-01 +5.9167609784300992e-03
8.9999999999999991e-01 +7.9199770773327849e+00 +0.0000000000000000e+00 +8.9999999961077881e-01 -3.2046300757162680e-02 -5.9432578777218315e-01 +5.9168265314104105e-03
9.9999999999999989e-01 +7.9199717004092642e+00 +0.0000000000000000e+00 +9.9999999946608886e-01 -3.2046332346838576e-02 -5.9432588182999957e-01 +5.9168937268893884e-03
1.0999999999999999e+00 +7.9199657574932996e+00 +0.0000000000000000e+00 +1.0999999992893641e+00 -3.2046359985708747e-02 -5.9432597051110403e-01 +5.9169626522559459e-03
1.2000000000000000e+00 +7.9199592485848074e+00 +0.0000000000000000e+00 +1.1999999990774013e+00 -3.2046383721044680e-02 -5.9432605256517368e-01 +5.9170333948990444e-03
1.3000000000000000e+00 +7.9199521736837095e+00 +0.0000000000000000e+00 +1.2999999988269968e+00 -3.2046403600133506e-02 -5.9432612674190388e-01 +5.9171060422075848e-03
1.4000000000000001e+00 +7.9199445327899358e+00 +0.0000000000000000e+00 +1.3999999985349469e+00 -3.2046419670279297e-02 -5.9432619179101276e-01 +5.9171806815702726e-03
1.5000000000000002e+00 +7.9199363259034241e+00 +0.0000000000000000e+00 +1.4999999981980485e+00 -3.2046431978804121e-02 -5.9432624646224530e-01 +5.9172574003755118e-03
1.6000000000000003e+00 +7.9199275530241238e+00 +0.0000000000000000e+00 +1.5999999978130979e+00 -3.2046440573049298e-02 -5.9432628950537714e-01 +5.9173362860112794e-03
1.7000000000000004e+00 +7.9199182141519930e+00 +0.0000000000000000e+00 +1.6999999973768918e+00 -3.2046445500376497e-02 -5.9432631967021854e-01 +5.9174174258650085e-03
1.8000000000000005e+00 +7.9199083092870044e+00 +0.0000000000000000e+00 +1.7999999968862266e+00 -3.2046446808168982e-02 -5.9432633570661830e-01 +5.9175009073234681e-03
1.9000000000000006e+00 +7.9198978384291427e+00 +0.0000000000000000e+00 +1.8999999963378988e+00 -3.2046444543832694e-02 -5.9432633636446830e-01 +5.9175868177726351e-03
2.0000000000000004e+00 +7.9198868015784081e+00 +0.0000000000000000e+00 +1.9999999957287049e+00 -3.2046438754797499e-02 -5.9432632039370681e-01 +5.9176752445975903e-03
2.1000000000000005e+00 +7.9198751987348155e+00 +0.0000000000000000e+00 +2.0999999950554415e+00 -3.2046429554813405e-02 -5.9432628701469614e-01 +5.9177662755897408e-03
2.2000000000000006e+00 +7.9198630298983979e+00 +0.0000000000000000e+00 +2.1999999943149051e+00 -3.2046417322827356e-02 -5.9432623732932643e-01 +5.9178600001693390e-03
2.3000000000000007e+00 +7.9198502950692022e+00 +0.0000000000000000e+00 +2.2999999935038922e+00 -3.2046402504080557e-02 -5.9432617290986112e-01 +5.9179565081644413e-03
2.4000000000000008e+00 +7.9198369942472899e+00 +0.0000000000000000e+00 +2.3999999926191995e+00 -3.2046385543808814e-02 -5.9432609532855363e-01 +5.9180558894037592e-03
2.5000000000000009e+00 +7.9198231274327355e+00 +0.0000000000000000e+00 +2.4999999916576234e+00 -3.2046366887240427e-02 -5.9432600615764686e-01 +5.9181582337167670e-03
2.6000000000000010e+00 +7.9198086946256243e+00 +0.0000000000000000e+00 +2.5999999906159603e+00 -3.2046346979593833e-02 -5.9432590696936782e-01 +5.9182636309337644e-03
2.7000000000000011e+00 +7.9197936958260513e+00 +0.0000000000000000e+00 +2.6999999894910069e+00 -3.2046326266075467e-02 -5.9432579933592655e-01 +5.9183721708859806e-03
2.8000000000000012e+00 +7.9197781310341187e+00 +0.0000000000000000e+00 +2.7999999882795596e+00 -3.2046305191877553e-02 -5.9432568482951131e-01 +5.9184839434056448e-03
2.9000000000000012e+00 +7.9197620002499365e+00 +0.0000000000000000e+00 +2.8999999869784152e+00 -3.2046284202175840e-02 -5.9432556502228606e-01 +5.9185990383260880e-03
3.0000000000000013e+00 +7.9197453034736194e+00 +0.0000000000000000e+00 +2.9999999855843700e+00 -3.2046263742127372e-02 -5.9432544148638855e-01 +5.9187175454818060e-03
3.1000000000000014e+00 +7.9197280407052846e+00 +0.0000000000000000e+00 +3.0999999840942207e+00 -3.2046244256868341e-02 -5.9432531579392478e-01 +5.9188395547085711e-03
3.2000000000000015e+00 +7.9197102119450529e+00 +0.0000000000000000e+00 +3.1999999825047638e+00 -3.2046226191511748e-02 -5.9432518951696767e-01 +5.9189651558434943e-03
3.3000000000000016e+00 +7.9196918171930450e+00 +0.0000000000000000e+00 +3.2999999808127960e+00 -3.2046209991145304e-02 -5.9432506422755393e-01 +5.9190944387251289e-03
3.4000000000000017e+00 +7.9196728564493801e+00 +0.0000000000000000e+00 +3.3999999790151136e+00 -3.2046196100829108e-02 -5.9432494149767989e-01 +5.9192274931935355e-03
3.5000000000000018e+00 +7.9196533297141762e+00 +0.0000000000000000e+00 +3.4999999771085131e+00 -3.2046184965593527e-02 -5.9432482289929933e-01 +5.9193644090903908e-03
3.6000000000000019e+00 +7.9196332369875462e+00 +0.0000000000000000e+00 +3.5999999750897911e+00 -3.2046177030436822e-02 -5.9432471000431986e-01 +5.9195052762590523e-03
3.7000000000000020e+00 +7.9196125782695983e+00 +0.0000000000000000e+00 +3.6999999729557445e+00 -3.2046172740323141e-02 -5.9432460438460033e-01 +5.9196501845446628e-03
3.8000000000000020e+00 +7.9195913535604339e+00 +0.0000000000000000e+00 +3.7999999707031695e+00 -3.2046172540180086e-02 -5.9432450761194699e-01 +5.9197992237942166e-03
3.9000000000000021e+00 +7.9195695628601452e+00 +0.0000000000000000e+00 +3.8999999683288631e+00 -3.2046176874896609e-02 -5.9432442125811069e-01 +5.9199524838566562e-03
4.0000000000000018e+00 +7.9195472061688159e+00 +0.0000000000000000e+00 +3.9999999658296215e+00 -3.2046186189320786e-02 -5.9432434689478419e-01 +5.9201100545829555e-03
4.1000000000000014e+00 +7.9195242834865169e+00 +0.0000000000000000e+00 +4.0999999632022410e+00 -3.2046200927519086e-02 -5.9432428580957020e-01 +5.9202719754844679e-03
4.2000000000000011e+00 +7.9195007948133069e+00 +0.0000000000000000e+00 +4.1999999604435185e+00 -3.2046221530574480e-02 -5.9432423815391644e-01 +5.9204380847062300e-03
4.3000000000000007e+00 +7.9194767401492321e+00 +0.0000000000000000e+00 +4.2999999575502503e+00 -3.2046248438828417e-02 -5.9432420379524020e-01 +5.9206081700498734e-03
4.4000000000000004e+00 +7.9194521194943261e+00 +0.0000000000000000e+00 +4.3999999545192336e+00 -3.2046282092623765e-02 -5.9432418260096354e-01 +5.9207820193149909e-03
4.5000000000000000e+00 +7.9194269328486104e+00 +0.0000000000000000e+00 +4.4999999513472648e+00 -3.2046322932305346e-02 -5.9432417443851482e-01 +5.9209594202989570e-03
4.5999999999999996e+00 +7.9194011802120929e+00 +0.0000000000000000e+00 +4.5999999480311402e+00 -3.2046371398220599e-02 -5.9432417917532920e-01 +5.9211401607967796e-03
4.6999999999999993e+00 +7.9193748615847701e+00 +0.0000000000000000e+00 +4.6999999445676561e+00 -3.2046427930720232e-02 -5.9432419667885084e-01 +5.9213240286009397e-03
4.7999999999999989e+00 +7.9193479769666260e+00 +0.0000000000000000e+00 +4.7999999409536089e+00 -3.2046492970158720e-02 -5.9432422681653219e-01 +5.9215108115012296e-03
4.8999999999999986e+00 +7.9193205263576330e+00 +0.0000000000000000e+00 +4.8999999371857959e+00 -3.2046566956895089e-02 -5.9432426945583672e-01 +5.9217002972845930e-03
4.9999999999999982e+00 +7.9192925097577520e+00 +0.0000000000000000e+00 +4.9999999332610132e+00 -3.2046650331293405e-02 -5.9432432446423966e-01 +5.9218922737349572e-03
5.0999999999999979e+00 +7.9192639271669307e+00 +0.0000000000000000e+00 +5.0999999291760574e+00 -3.2046743533723436e-02 -5.9432439170922824e-01 +5.9220865286330904e-03
5.1999999999999975e+00 +7.9192347785851060e+00 +0.0000000000000000e+00 +5.1999999249277247e+00 -3.2046847004561278e-02 -5.9432447105830388e-01 +5.9222828497564250e-03
5.2999999999999972e+00 +7.9192050640122034e+00 +0.0000000000000000e+00 +5.2999999205128114e+00 -3.2046961184189926e-02 -5.9432456237898235e-01 +5.9224810248789039e-03
5.3999999999999968e+00 +7.9191747834481374e+00 +0.0000000000000000e+00 +5.3999999159281149e+00 -3.2047086512999985e-02 -5.9432466553879570e-01 +5.9226808417708228e-03
5.4999999999999964e+00 +7.9191439368928096e+00 +0.0000000000000000e+00 +5.4999999111704314e+00 -3.2047223431390166e-02 -5.9432478040529257e-01 +5.9228820881986680e-03
5.5999999999999961e+00 +7.9191125243461125e+00 +0.0000000000000000e+00 +5.5999999062365573e+00 -3.2047372379767992e-02 -5.9432490684604000e-01 +5.9230845519249540e-03
5.6999999999999957e+00 +7.9190805458079270e+00 +0.0000000000000000e+00 +5.6999999011232889e+00 -3.2047533798550361e-02 -5.9432504472862369e-01 +5.9232880207080660e-03
5.7999999999999954e+00 +7.9190480012781217e+00 +0.0000000000000000e+00 +5.7999998958274235e+00 -3.2047708128164216e-02 -5.9432519392065031e-01 +5.9234922823021060e-03
5.8999999999999950e+00 +7.9190148907565563e+00 +0.0000000000000000e+00 +5.8999998903457564e+00 -3.2047895809047065e-02 -5.9432535428974698e-01 +5.9236971244567196e-03
5.9999999999999947e+00 +7.9189812142430789e+00 +0.0000000000000000e+00 +5.9999998846750850e+00 -3.2048097281647751e-02 -5.9432552570356378e-01 +5.9239023349169483e-03
6.0999999999999943e+00 +7.9189469717375278e+00 +0.0000000000000000e+00 +6.0999998788122056e+00 -3.2048312639061008e-02 -5.9432570803592999e-01 +5.9241077202079580e-03
6.1999999999999940e+00 +7.9189121632397299e+00 +0.0000000000000000e+00 +6.1999998727539145e+00 -3.2048540584927690e-02 -5.9432590118532280e-01 +5.9243131619914381e-03
6.2999999999999936e+00 +7.9188767887495031e+00 +0.0000000000000000e+00 +6.2999998664970080e+00 -3.2048779475538670e-02 -5.9432610505640426e-01 +5.9245185607135504e-03
6.3999999999999932e+00 +7.9188408482666537e+00 +0.0000000000000000e+00 +6.3999998600382826e+00 -3.2049027667204424e-02 -5.9432631955386606e-01 +5.9247238168203421e-03
6.4999999999999929e+00 +7.9188043417909793e+00 +0.0000000000000000e+00 +6.4999998533745353e+00 -3.2049283516255918e-02 -5.9432654458243139e-01 +5.9249288307577780e-03
6.5999999999999925e+00 +7.9187672693222657e+00 +0.0000000000000000e+00 +6.5999998465025618e+00 -3.2049545379045391e-02 -5.9432678004685546e-01 +5.9251335029717796e-03
6.6999999999999922e+00 +7.9187296308602910e+00 +0.0000000000000000e+00 +6.6999998394191591e+00 -3.2049811611947233e-02 -5.9432702585192754e-01 +5.9253377339082624e-03
6.7999999999999918e+00 +7.9186914264048216e+00 +0.0000000000000000e+00 +6.7999998321211237e+00 -3.2050080571358865e-02 -5.9432728190247153e-01 +5.9255414240131799e-03
6.8999999999999915e+00 +7.9186526559556150e+00 +0.0000000000000000e+00 +6.8999998246052510e+00 -3.2050350613701567e-02 -5.9432754810334787e-01 +5.9257444737325464e-03
6.9999999999999911e+00 +7.9186133195124189e+00 +0.0000000000000000e+00 +6.9999998168683382e+00 -3.2050620095421277e-02 -5.9432782435945319e-01 +5.9259467835124854e-03
7.0999999999999908e+00 +7.9185734170749713e+00 +0.0000000000000000e+00 +7.0999998089071816e+00 -3.2050887372989570e-02 -5.9432811057572410e-01 +5.9261482537992672e-03
7.1999999999999904e+00 +7.9185329486430014e+00 +0.0000000000000000e+00 +7.1999998007185777e+00 -3.2051150802904389e-02 -5.9432840665713582e-01 +5.9263487850393422e-03
7.2999999999999901e+00 +7.9184919142162284e+00 +0.0000000000000000e+00 +7.2999997922993227e+00 -3.2051408741690955e-02 -5.9432871250870534e-01 +5.9265482776793797e-03
7.3999999999999897e+00 +7.9184503137943620e+00 +0.0000000000000000e+00 +7.3999997836462130e+00 -3.2051659545902632e-02 -5.9432902803549170e-01 +5.9267466321663046e-03
7.4999999999999893e+00 +7.9184081473771037e+00 +0.0000000000000000e+00 +7.4999997747560450e+00 -3.2051901572121705e-02 -5.9432935314259683e-01 +5.9269437489473421e-03
7.5999999999999890e+00 +7.9183654149641445e+00 +0.0000000000000000e+00 +7.5999997656256157e+00 -3.2052133176960367e-02 -5.9432968773516792e-01 +5.9271395284700348e-03
7.6999999999999886e+00 +7.9183221165551680e+00 +0.0000000000000000e+00 +7.6999997562517208e+00 -3.2052352717061444e-02 -5.9433003171839793e-01 +5.9273338711823120e-03
7.7999999999999883e+00 +7.9182782521498476e+00 +0.0000000000000000e+00 +7.7999997466311566e+00 -3.2052558549099330e-02 -5.9433038499752677e-01 +5.9275266775324961e-03
7.8999999999999879e+00 +7.9182338217478483e+00 +0.0000000000000000e+00 +7.8999997367607193e+00 -3.2052749029780829e-02 -5.9433074747784331e-01 +5.9277178479693665e-03
7.9999999999999876e+00 +7.9181888253488264e+00 +0.0000000000000000e+00 +7.9999997266372054e+00 -3.2052922515845975e-02 -5.9433111906468494e-01 +5.9279072829421684e-03
8.0999999999999872e+00 +7.9181432629524293e+00 +0.0000000000000000e+00 +8.0999997162574111e+00 -3.2053077714799295e-02 -5.9433149964455156e-01 +5.9280949348551855e-03
8.1999999999999869e+00 +7.9180971345582956e+00 +0.0000000000000000e+00 +8.1999997056181329e+00 -3.2053214737091648e-02 -5.9433188902841561e-01 +5.9282809639343475e-03
8.2999999999999865e+00 +7.9180504401660565e+00 +0.0000000000000000e+00 +8.2999996947161669e+00 -3.2053334043885745e-02 -5.9433228700834995e-01 +5.9284655823653798e-03
8.3999999999999861e+00 +7.9180031797753347e+00 +0.0000000000000000e+00 +8.3999996835483106e+00 -3.2053436096313746e-02 -5.9433269337641237e-01 +5.9286490023389340e-03
8.4999999999999858e+00 +7.9179553533857439e+00 +0.0000000000000000e+00 +8.4999996721113593e+00 -3.2053521355475983e-02 -5.9433310792464233e-01 +5.9288314360507553e-03
8.5999999999999854e+00 +7.9179069609968913e+00 +0.0000000000000000e+00 +8.5999996604021085e+00 -3.2053590282439967e-02 -5.9433353044506265e-01 +5.9290130957018556e-03
8.6999999999999851e+00 +7.9178580026083765e+00 +0.0000000000000000e+00 +8.6999996484173554e+00 -3.2053643338239166e-02 -5.9433396072967726e-01 +5.9291941934986559e-03
8.7999999999999847e+00 +7.9178084782197908e+00 +0.0000000000000000e+00 +8.7999996361538955e+00 -3.2053680983871895e-02 -5.9433439857046966e-01 +5.9293749416531698e-03
8.8999999999999844e+00 +7.9177583878307196e+00 +0.0000000000000000e+00 +8.8999996236085259e+00 -3.2053703680300166e-02 -5.9433484375940415e-01 +5.9295555523831527e-03
8.9999999999999840e+00 +7.9177077314407400e+00 +0.0000000000000000e+00 +8.9999996107780422e+00 -3.2053711888448626e-02 -5.9433529608842350e-01 +5.9297362379122807e-03
9.0999999999999837e+00 +7.9176565090494231e+00 +0.0000000000000000e+00 +9.0999995976592416e+00 -3.2053706069203311e-02 -5.9433575534944783e-01 +5.9299172104702877e-03
9.1999999999999833e+00 +7.9176047206563327e+00 +0.0000000000000000e+00 +9.1999995842489195e+00 -3.2053686683410569e-02 -5.9433622133437491e-01 +5.9300986822931542e-03
9.2999999999999829e+00 +7.9175523662610274e+00 +0.0000000000000000e+00 +9.2999995705438714e+00 -3.2053654191875947e-02 -5.9433669383507837e-01 +5.9302808656232567e-03
9.3999999999999826e+00 +7.9174994458630579e+00 +0.0000000000000000e+00 +9.3999995565408945e+00 -3.2053609055363023e-02 -5.9433717264340680e-01 +5.9304639727095340e-03
9.4999999999999822e+00 +7.9174459594619711e+00 +0.0000000000000000e+00 +9.4999995422367842e+00 -3.2053551734592241e-02 -5.9433765755118406e-01 +5.9306482158076436e-03
9.5999999999999819e+00 +7.9173919070573060e+00 +0.0000000000000000e+00 +9.5999995276283379e+00 -3.2053482690239825e-02 -5.9433814835020671e-01 +5.9308338071801404e-03
9.6999999999999815e+00 +7.9173372886485973e+00 +0.0000000000000000e+00 +9.6999995127123508e+00 -3.2053402382936635e-02 -5.9433864483224441e-01 +5.9310209590966185e-03
9.7999999999999812e+00 +7.9172821042353743e+00 +0.0000000000000000e+00 +9.7999994974856186e+00 -3.2053311273267007e-02 -5.9433914678903876e-01 +5.9312098838338904e-03
9.8999999999999808e+00 +7.9172263538171608e+00 +0.0000000000000000e+00 +9.8999994819449384e+00 -3.2053209821767625e-02 -5.9433965401230204e-01 +5.9314007936761386e-03
9.9999999999999805e+00 +7.9171700373934746e+00 +0.0000000000000000e+00 +9.9999994660871057e+00 -3.2053098488926367e-02 -5.9434016629371678e-01 +5.9315939009150845e-03
1.0099999999999980e+01 +7.9171131549638307e+00 +0.0000000000000000e+00 +1.0099999449908918e+01 -3.2052977884258184e-02 -5.9434068353668112e-01 +5.9317893637565325e-03
1.0199999999999980e+01 +7.9170557065277380e+00 +0.0000000000000000e+00 +1.0199999433407168e+01 -3.2052849213563293e-02 -5.9434120609154839e-01 +5.9319871240343294e-03
1.0299999999999979e+01 +7.9169976920847001e+00 +0.0000000000000000e+00 +1.0299999416578656e+01 -3.2052713831723832e-02 -5.9434173442036919e-01 +5.9321870694897779e-03
1.0399999999999979e+01 +7.9169391116342158e+00 +0.0000000000000000e+00 +1.0399999399420174e+01 -3.2052573093627010e-02 -5.9434226898513742e-01 +5.9323890878665367e-03
1.0499999999999979e+01 +7.9168799651757782e+00 +0.0000000000000000e+00 +1.0499999381928522e+01 -3.2052428354165323e-02 -5.9434281024778945e-01 +5.9325930669106523e-03
1.0599999999999978e+01 +7.9168202527088738e+00 +0.0000000000000000e+00 +1.0599999364100492e+01 -3.2052280968236854e-02 -5.9434335867020260e-01 +5.9327988943705858e-03
1.0699999999999978e+01 +7.9167599742329822e+00 +0.0000000000000000e+00 +1.0699999345932884e+01 -3.2052132290745515e-02 -5.9434391471419379e-01 +5.9330064579972350e-03
1.0799999999999978e+01 +7.9166991297475757e+00 +0.0000000000000000e+00 +1.0799999327422492e+01 -3.2051983676601281e-02 -5.9434447884151753e-01 +5.9332156455439624e-03
1.0899999999999977e+01 +7.9166377192521189e+00 +0.0000000000000000e+00 +1.0899999308566112e+01 -3.2051836480720526e-02 -5.9434505151386574e-01 +5.9334263447666149e-03
1.0999999999999977e+01 +7.9165757427460681e+00 +0.0000000000000000e+00 +1.0999999289360540e+01 -3.2051692058026174e-02 -5.9434563319286471e-01 +5.9336384434235589e-03
1.1099999999999977e+01 +7.9165132002288718e+00 +0.0000000000000000e+00 +1.1099999269802572e+01 -3.2051551763448045e-02 -5.9434622434007478e-01 +5.9338518292757041e-03
1.1199999999999976e+01 +7.9164500916999687e+00 +0.0000000000000000e+00 +1.1199999249889004e+01 -3.2051416951923067e-02 -5.9434682541698924e-01 +5.9340663900865169e-03
1.1299999999999976e+01 +7.9163864171587885e+00 +0.0000000000000000e+00 +1.1299999229616633e+01 -3.2051288978395535e-02 -5.9434743688503178e-01 +5.9342820136220609e-03
1.1399999999999975e+01 +7.9163221766047513e+00 +0.0000000000000000e+00 +1.1399999208982253e+01 -3.2051169197817427e-02 -5.9434805920555556e-01 +5.9344985876510162e-03
1.1499999999999975e+01 +7.9162573700372656e+00 +0.0000000000000000e+00 +1.1499999187982661e+01 -3.2051058965148545e-02 -5.9434869283984193e-01 +5.9347159999447062e-03
1.1599999999999975e+01 +7.9161919974557309e+00 +0.0000000000000000e+00 +1.1599999166614653e+01 -3.2050959635356917e-02 -5.9434933824909952e-01 +5.9349341382771269e-03
1.1699999999999974e+01 +7.9161260588595335e+00 +0.0000000000000000e+00 +1.1699999144875026e+01 -3.2050872563418938e-02 -5.9434999589446180e-01 +5.9351528904249646e-03
1.1799999999999974e+01 +7.9160595542480499e+00 +0.0000000000000000e+00 +1.1799999122760573e+01 -3.2050799104319704e-02 -5.9435066623698563e-01 +5.9353721441676287e-03
