# multipoles
# s[mm] polynom_b[n=0][T/m^n] polynom_b[n=1][T/m^n] polynom_b[n=2][T/m^n] polynom_b[n=3][T/m^n] polynom_b[n=4][T/m^n] polynom_b[n=5][T/m^n] polynom_b[n=6][T/m^n] 
+0.0000000000000000e+00 -5.3636195770835815e-01 +7.3487876740627192e+00 -1.0610932300253162e-01 +3.1688644925855066e+01 -2.8819445263318185e+03 -4.0211979683334287e+05 +1.5210377354604254e+07 
+1.0000000000000001e-01 -5.3636196780684620e-01 +7.3488215207733205e+00 -1.0583196767225105e-01 +3.1005277141891352e+01 -2.8576841532237731e+03 -3.9902538397348678e+05 +1.5044647654722400e+07 
+2.0000000000000001e-01 -5.3636197115610396e-01 +7.3488550071987238e+00 -1.0581765962985361e-01 +3.0279799537432499e+01 -2.8314104578627444e+03 -3.9559633803063515e+05 +1.4869302633971382e+07 
+3.0000000000000004e-01 -5.3636196810783954e-01 +7.3488879532189655e+00 -1.0607248975601238e-01 +2.9519182001567501e+01 -2.8029163765015119e+03 -3.9187472018951952e+05 +1.4683653843855146e+07 
+4.0000000000000002e-01 -5.3636195901374584e-01 +7.3489201787228273e+00 -1.0660255040107777e-01 +2.8730394198956944e+01 -2.7719948182383991e+03 -3.8790259035062877e+05 +1.4487012701019237e+07 
+5.0000000000000000e-01 -5.3636194422550676e-01 +7.3489515035953428e+00 -1.0741393412015973e-01 +2.7920405926486151e+01 -2.7384386911040542e+03 -3.8372200919099897e+05 +1.4278690615554983e+07 
+5.9999999999999998e-01 -5.3636192409482186e-01 +7.3489817477240358e+00 -1.0851273060337180e-01 +2.7096186938641807e+01 -2.7020409634048351e+03 -3.7937503718065965e+05 +1.4057999294596702e+07 
+6.9999999999999996e-01 -5.3636189897335607e-01 +7.3490107310003649e+00 -1.0990503346069175e-01 +2.6264706890072173e+01 -2.6625945286829879e+03 -3.7490373422183591e+05 +1.3824250081225296e+07 
+7.9999999999999993e-01 -5.3636186921281381e-01 +7.3490382733129316e+00 -1.1159693063610243e-01 +2.5432935536792826e+01 -2.6198923935150556e+03 -3.7035016083144443e+05 +1.3576754867782585e+07 
+8.9999999999999991e-01 -5.3636183516484970e-01 +7.3490641945546633e+00 -1.1359451550108456e-01 +2.4607842531760294e+01 -2.5737274656194090e+03 -3.6575637698460394e+05 +1.3314825082886778e+07 
+9.9999999999999989e-01 -5.3636179718112931e-01 +7.3490883146194195e+00 -1.1590387974076978e-01 +2.3796397504106181e+01 -2.5238926872758211e+03 -3.6116444253143278e+05 +1.3037772324237280e+07 
+1.0999999999999999e+00 -5.3636175561329835e-01 +7.3491104534018827e+00 -1.1853111674609923e-01 +2.3005570077031219e+01 -2.4701809735401625e+03 -3.5661641734696773e+05 +1.2744908072165841e+07 
+1.2000000000000000e+00 -5.3636171081299167e-01 +7.3491304307995531e+00 -1.2148232096543141e-01 +2.2242329795977209e+01 -2.4123852221718089e+03 -3.5215436089628254e+05 +1.2435543731521610e+07 
+1.3000000000000000e+00 -5.3636166313181444e-01 +7.3491480667121181e+00 -1.2476359010298774e-01 +2.1513646147518212e+01 -2.3502982739472418e+03 -3.4782033234967256e+05 +1.2108990449802689e+07 
+1.4000000000000001e+00 -5.3636161292138351e-01 +7.3491631810405762e+00 -1.2838101987238293e-01 +2.0826488586089042e+01 -2.2837130123263369e+03 -3.4365639076023712e+05 +1.1764559592432082e+07 
+1.5000000000000002e+00 -5.3636156053327444e-01 +7.3491755936853824e+00 -1.3234071097268627e-01 +2.0187826575816914e+01 -2.2124222292828617e+03 -3.3970459527433058e+05 +1.1401562099888554e+07 
+1.6000000000000003e+00 -5.3636150631903723e-01 +7.3491851245534461e+00 -1.3664876659413067e-01 +1.9604629397041656e+01 -2.1362186779413501e+03 -3.3600700405951974e+05 +1.1019308755848512e+07 
+1.7000000000000004e+00 -5.3636145063022012e-01 +7.3491915935512271e+00 -1.4131129037727264e-01 +1.9083866335064403e+01 -2.0548951029897398e+03 -3.3260567536910000e+05 +1.0617110307198232e+07 
+1.8000000000000005e+00 -5.3636139381832404e-01 +7.3491948205848443e+00 -1.4633439119327266e-01 +1.8632506671680186e+01 -1.9682441584523604e+03 -3.2954266749229387e+05 +1.0194277099643074e+07 
+1.9000000000000006e+00 -5.3636133623484217e-01 +7.3491946255673453e+00 -1.5172417866087021e-01 +1.8257519493353545e+01 -1.8760584895625950e+03 -3.2686003771079413e+05 +9.7501194577055834e+06 
+2.0000000000000004e+00 -5.3636127823121538e-01 +7.3491908284101051e+00 -1.5748676906881634e-01 +1.7965873900123235e+01 -1.7781306181445739e+03 -3.2459984340403957e+05 +9.2839471357115153e+06 
+2.1000000000000005e+00 -5.3636122028053212e-01 +7.3491833151866812e+00 -1.6361423771454237e-01 +1.7762932876515315e+01 -1.6745057555349094e+03 -3.2279587526411877e+05 +8.7961254332698248e+06 
+2.2000000000000006e+00 -5.3636116334695161e-01 +7.3491722344706245e+00 -1.7004275514206096e-01 +1.7647675104039315e+01 -1.5662309867371976e+03 -3.2144885512243299e+05 +8.2911931253426438e+06 
+2.3000000000000007e+00 -5.3636110851850716e-01 +7.3491577999590136e+00 -1.7669458112408640e-01 +1.7617492178877836e+01 -1.4546016329996335e+03 -3.2055123130419431e+05 +7.7747199826082066e+06 
+2.4000000000000008e+00 -5.3636105688326807e-01 +7.3491402253422633e+00 -1.8349197144461193e-01 +1.7669775895688627e+01 -1.3409130910238578e+03 -3.2009545331907761e+05 +7.2522761427281937e+06 
+2.5000000000000009e+00 -5.3636100952926757e-01 +7.3491197243042290e+00 -1.9035718689410094e-01 +1.7801918235609435e+01 -1.2264606627050300e+03 -3.2007397175504855e+05 +6.7294313039450562e+06 
+2.6000000000000010e+00 -5.3636096754455664e-01 +7.3490965105253965e+00 -1.9721248755458559e-01 +1.8011311279509908e+01 -1.1125396555553120e+03 -3.2047923779954173e+05 +6.2117551801548572e+06 
+2.7000000000000011e+00 -5.3636093201716994e-01 +7.3490707976814535e+00 -2.0398013567529041e-01 +1.8295347249274108e+01 -1.0004453401709615e+03 -3.2130370346670732e+05 +5.7048173348591859e+06 
+2.8000000000000012e+00 -5.3636090403514325e-01 +7.3490427994438692e+00 -2.1058239507202892e-01 +1.8651418484061875e+01 -8.9147294821844491e+02 -3.2253982144380175e+05 +5.2141871328459503e+06 
+2.9000000000000012e+00 -5.3636088468653598e-01 +7.3490127294742811e+00 -2.1694152726135238e-01 +1.9076917617164384e+01 -7.8691775468202252e+02 -3.2418004614602460e+05 +4.7454341578183826e+06 
+3.0000000000000013e+00 -5.3636087505937646e-01 +7.3489808014298434e+00 -2.2297979921561711e-01 +1.9569237402122948e+01 -6.8807492508992891e+02 -3.2621683265589783e+05 +4.3041274721459541e+06 
+3.1000000000000014e+00 -5.3636087624171946e-01 +7.3489472289621780e+00 -2.2861947580335315e-01 +2.0125770765030470e+01 -5.9623965994590696e+02 -3.2864263708836684e+05 +3.8958363055238621e+06 
+3.2000000000000015e+00 -5.3636088932163717e-01 +7.3489122257114419e+00 -2.3378282159924388e-01 +2.0743910947665213e+01 -5.1270715761988060e+02 -3.3144991732973797e+05 +3.5261298732517357e+06 
+3.3000000000000016e+00 -5.3636091538716624e-01 +7.3488760053119186e+00 -2.3839210628415641e-01 +2.1421051374037287e+01 -4.3877251887675527e+02 -3.3463113234583964e+05 +3.2005769407625170e+06 
+3.4000000000000017e+00 -5.3636095552638408e-01 +7.3488387813858855e+00 -2.4236959696411525e-01 +2.2154585813316327e+01 -3.7573088089563674e+02 -3.3817874307923124e+05 +2.9247464311601440e+06 
+3.5000000000000018e+00 -5.3636101082737453e-01 +7.3488007675524498e+00 -2.4563756143092133e-01 +2.2941908125278609e+01 -3.2487736335114033e+02 -3.4208521097524220e+05 +2.7042071902514948e+06 
+3.6000000000000019e+00 -5.3636108237822444e-01 +7.3487621774132181e+00 -2.4811826912850368e-01 +2.3780412672204015e+01 -2.8750704465899503e+02 -3.4634300035898009e+05 +2.5445278605031967e+06 
+3.7000000000000020e+00 -5.3636117126703620e-01 +7.3487232245656431e+00 -2.4973398903950539e-01 +2.4667493940297316e+01 -2.6491500752662563e+02 -3.5094457625789021e+05 +2.4512771122918655e+06 
+3.8000000000000020e+00 -5.3636127858192539e-01 +7.3486841225896606e+00 -2.5040699124393212e-01 +2.5600546920591103e+01 -2.5839629993737930e+02 -3.5588240658906486e+05 +2.4300234339154665e+06 
+3.9000000000000021e+00 -5.3636140541101218e-01 +7.3486450850602312e+00 -2.5005954718703638e-01 +2.6576966747281343e+01 -2.6924593705528548e+02 -3.6114896006803861e+05 +2.4863351617665282e+06 
+4.0000000000000018e+00 -5.3636155284244791e-01 +7.3486063255354352e+00 -2.4861392663282372e-01 +2.7594149040420408e+01 -2.9875895594871173e+02 -3.6673670818061399e+05 +2.6257807306654761e+06 
+4.1000000000000014e+00 -5.3636172143750660e-01 +7.3485680587081985e+00 -2.4602903627361686e-01 +2.8648134029150526e+01 -3.4762756623481692e+02 -3.7262817742585385e+05 +2.8513045419321246e+06 
+4.2000000000000011e+00 -5.3636190966102015e-01 +7.3485305085087589e+00 -2.4240880142965138e-01 +2.9729376740336566e+01 -4.1412724691631774e+02 -3.7876536473142321e+05 +3.1552403268212285e+06 
+4.3000000000000007e+00 -5.3636211545639767e-01 +7.3484939024343410e+00 -2.3789303977204260e-01 +3.0826888939014768e+01 -4.9592739271371045e+02 -3.8507990822380211e+05 +3.5272378468927727e+06 
+4.4000000000000004e+00 -5.3636233676705403e-01 +7.3484584679902332e+00 -2.3262156682696483e-01 +3.1929682171815827e+01 -5.9069743700452273e+02 -3.9150344477065868e+05 +3.9569470174692920e+06 
+4.5000000000000000e+00 -5.3636257153651812e-01 +7.3484244326940233e+00 -2.2673418363544745e-01 +3.3026767643612722e+01 -6.9610707586452452e+02 -3.9796760924226075e+05 +4.4340189414438372e+06 
+4.5999999999999996e+00 -5.3636281770832639e-01 +7.3483920240799030e+00 -2.2037068832484760e-01 +3.4107156095798217e+01 -8.0982605941577265e+02 -4.0440403382091591e+05 +4.9481049453299455e+06 
+4.6999999999999993e+00 -5.3636307322607668e-01 +7.3483614696933062e+00 -2.1367087045895902e-01 +3.5159857975322126e+01 -9.2952429094412014e+02 -4.1074434900676919e+05 +5.4888570256296992e+06 
+4.7999999999999989e+00 -5.3636333603341468e-01 +7.3483329970980078e+00 -2.0677451235951708e-01 +3.6173883201246809e+01 -1.0528718038489958e+03 -4.1692018218879221e+05 +6.0459277440357907e+06 
+4.8999999999999986e+00 -5.3636360407406247e-01 +7.3483068338709154e+00 -1.9982138483404782e-01 +3.7138241355430893e+01 -1.1775388451719311e+03 -4.2286315885611437e+05 +6.6089706269801557e+06 
+4.9999999999999982e+00 -5.3636387529179408e-01 +7.3482832076077456e+00 -1.9295125117215575e-01 +3.8041941477703702e+01 -1.3011957954833199e+03 -4.2850490129238670e+05 +7.1676397747593597e+06 
+5.0999999999999979e+00 -5.3636414763042728e-01 +7.3482623459243346e+00 -1.8630386679560207e-01 +3.8873992060252384e+01 -1.4215131781148696e+03 -4.3377702863388200e+05 +7.7115899047579179e+06 
+5.1999999999999975e+00 -5.3636441903387710e-01 +7.3482444764494366e+00 -1.8001897393332358e-01 +3.9623401244977899e+01 -1.5361617587934670e+03 -4.3861115797883488e+05 +8.2304768260178789e+06 
+5.2999999999999972e+00 -5.3636468744610921e-01 +7.3482298268388710e+00 -1.7423630599746623e-01 +4.0279176414106509e+01 -1.6428124625448315e+03 -4.4293890200923756e+05 +8.7139570362532511e+06 
+5.3999999999999968e+00 -5.3636495081115310e-01 +7.3482186247646748e+00 -1.6909558640264571e-01 +4.0830324504450324e+01 -1.7391363977919220e+03 -4.4669187081181910e+05 +9.1516878418061454e+06 
+5.4999999999999964e+00 -5.3636520707313684e-01 +7.3482110979213449e+00 -1.6473652457801233e-01 +4.1265851830848639e+01 -1.8228049267231004e+03 -4.4980167085943976e+05 +9.5333276752004866e+06 
+5.5999999999999961e+00 -5.3636545417621873e-01 +7.3482074740262755e+00 -1.6129882348610861e-01 +4.1574764080162446e+01 -1.8914895288009163e+03 -4.5219990499900805e+05 +9.8485354607580453e+06 
+5.6999999999999957e+00 -5.3636569006469559e-01 +7.3482079808207734e+00 -1.5892216677914606e-01 +4.1746066267700172e+01 -1.9428620390135707e+03 -4.5381817214570264e+05 +1.0086971730470235e+07 
+5.7999999999999954e+00 -5.3636591268288847e-01 +7.3482128460703402e+00 -1.5774623216902520e-01 +4.1768762741836781e+01 -1.9745943986246255e+03 -4.5458806735497125e+05 +1.0238297448399516e+07 
+5.8999999999999950e+00 -5.3636611997524941e-01 +7.3482222975665552e+00 -1.5791067893640492e-01 +4.1631857124189757e+01 -1.9843588877649113e+03 -4.5444118144461367e+05 +1.0292175104614841e+07 
+5.9999999999999947e+00 -5.3636630988628475e-01 +7.3482365631228079e+00 -1.5955515683816501e-01 +4.1324352453462836e+01 -1.9698279553946879e+03 -4.5330910183708003e+05 +1.0238267902080702e+07 
+6.0999999999999943e+00 -5.3636648107754059e-01 +7.3482557684686167e+00 -1.6277410827343530e-01 +4.0839253453513685e+01 -1.9293561930390522e+03 -4.5114696231879311e+05 +1.0069147136821266e+07 
+6.1999999999999940e+00 -5.3636663504244686e-01 +7.3482796279589015e+00 -1.6748212205142057e-01 +4.0185681552500711e+01 -1.8640860760579694e+03 -4.4800489074012695e+05 +9.7894642238796446e+06 
+6.2999999999999936e+00 -5.3636677397358345e-01 +7.3483077519692159e+00 -1.7354902194887697e-01 +3.9376834952654427e+01 -1.7758729805313083e+03 -4.4395708312264370e+05 +9.4070086956003811e+06 
+6.3999999999999932e+00 -5.3636690006347876e-01 +7.3483397508544090e+00 -1.8084463874003509e-01 +3.8425912317760250e+01 -1.6665721622404528e+03 -4.3907773785166402e+05 +8.9295695659747720e+06 
+6.4999999999999929e+00 -5.3636701550456245e-01 +7.3483752349499287e+00 -1.8923881545332996e-01 +3.7346112701496445e+01 -1.5380386645963904e+03 -4.3344105521696783e+05 +8.3649349190789387e+06 
+6.5999999999999925e+00 -5.3636712248923013e-01 +7.3484138145692661e+00 -1.9860139967423882e-01 +3.6150635625588237e+01 -1.3921274611724707e+03 -4.2712123787653621e+05 +7.7208925783912949e+06 
+6.6999999999999922e+00 -5.3636722320977015e-01 +7.3484551000037346e+00 -2.0880225291190951e-01 +3.4852681073588478e+01 -1.2306932759952565e+03 -4.2019249079602747e+05 +7.0052292472487222e+06 
+6.7999999999999918e+00 -5.3636731985842323e-01 +7.3484987015268040e+00 -2.1971124249299942e-01 +3.3465449359279361e+01 -1.0555907458906056e+03 -4.1272902047603263e+05 +6.2257313065843238e+06 
+6.8999999999999915e+00 -5.3636741462733106e-01 +7.3485442293814041e+00 -2.3119824882253565e-01 +3.2002141492115605e+01 -8.6867427462156445e+02 -4.0480503706303571e+05 +5.3901841000243984e+06 
+6.9999999999999911e+00 -5.3636750970856217e-01 +7.3485912937914630e+00 -2.4313316167170804e-01 +3.0475958826902374e+01 -6.7179811015860196e+02 -3.9649475228467316e+05 +4.5063723216746058e+06 
+7.0999999999999908e+00 -5.3636760729409505e-01 +7.3486395049516799e+00 -2.5538588242723287e-01 +2.8900103367847468e+01 -4.6681630088114912e+02 -3.8787238123735995e+05 +3.5820798061745786e+06 
+7.1999999999999904e+00 -5.3636770957581514e-01 +7.3486884730309239e+00 -2.6782632458085187e-01 +2.7287777645235749e+01 -2.5558268609377794e+02 -3.7901214161184378e+05 +2.6250894843029077e+06 
+7.2999999999999901e+00 -5.3636781874551298e-01 +7.3487378081731718e+00 -2.8032441394602914e-01 +2.5652184702228826e+01 -3.9950894021304563e+01 -3.6998825365228613e+05 +1.6431833808662260e+06 
+7.3999999999999897e+00 -5.3636793699490493e-01 +7.3487871204906234e+00 -2.9275008600666985e-01 +2.4006528272117794e+01 +1.7822560725813054e+02 -3.6087494113670563e+05 +6.4414285983061208e+05 
+7.4999999999999893e+00 -5.3636806651556812e-01 +7.3488360200681324e+00 -3.0497329417968738e-01 +2.2364012645674471e+01 +3.9709366651919356e+02 -3.5174643059891666e+05 -3.6425211925029103e+05 
+7.5999999999999890e+00 -5.3636820949898700e-01 +7.3488841169582964e+00 -3.1686400387382418e-01 +2.0737842815318267e+01 +6.1480033474639379e+02 -3.4267695217119978e+05 -1.3742224495311431e+06 
+7.6999999999999886e+00 -5.3636836813656885e-01 +7.3489310211855203e+00 -3.2829219071601151e-01 +1.9141224342107442e+01 +8.2949283100859577e+02 -3.3374073877916019e+05 -2.3779897114561438e+06 
+7.7999999999999883e+00 -5.3636854461956696e-01 +7.3489763427376475e+00 -3.3912785050181560e-01 +1.7587363594793292e+01 +1.0393187352158573e+03 -3.2501202752903925e+05 -3.3677770999626503e+06 
+7.8999999999999879e+00 -5.3636874113914690e-01 +7.3490196915743988e+00 -3.4924098992113495e-01 +1.6089467497758289e+01 +1.2424257990172700e+03 -3.1656505821920949e+05 -4.3358084854610767e+06 
+7.9999999999999876e+00 -5.3636895988634969e-01 +7.3490606776162624e+00 -3.5850163236587629e-01 +1.4660743843344836e+01 +1.4369620682801342e+03 -3.0847407533323165e+05 -5.2743090474978369e+06 
+8.0999999999999872e+00 -5.3636920244640429e-01 +7.3490989618861908e+00 -3.6680753890513257e-01 +1.3312690278607903e+01 +1.6213633394848835e+03 -3.0080437047106680e+05 -6.1765134117479725e+06 
+8.1999999999999869e+00 -5.3636946799585206e-01 +7.3491343921068601e+00 -3.7416801479206602e-01 +1.2050560737151763e+01 +1.7952635844806323e+03 -2.9358782208046044e+05 -7.0399586609006776e+06 
+8.2999999999999865e+00 -5.3636975511236118e-01 +7.3491668585166652e+00 -3.8062038588275993e-01 +1.0878185723695720e+01 +1.9586070110437906e+03 -2.8684850095610326e+05 -7.8633197511892030e+06 
+8.3999999999999861e+00 -5.3637006237356333e-01 +7.3491962513605360e+00 -3.8620198374806736e-01 +9.7993958865927908e+00 +2.1113379370328421e+03 -2.8061047946891771e+05 -8.6452721488817427e+06 
+8.4999999999999858e+00 -5.3637038835703876e-01 +7.3492224609015366e+00 -3.9095014698680597e-01 +8.8180216991039071e+00 +2.2534008090968150e+03 -2.7489782982603484e+05 -9.3844918938764110e+06 
+8.5999999999999854e+00 -5.3637073164030680e-01 +7.3492453774182627e+00 -3.9490222229620942e-01 +7.9378935466220559e+00 +2.3847402233772905e+03 -2.6973462460759288e+05 -1.0079655700929612e+07 
+8.6999999999999851e+00 -5.3637109080083911e-01 +7.3492648912043723e+00 -3.9809556280911745e-01 +7.1628417510158728e+00 +2.5053008933107772e+03 -2.6514493692719669e+05 -1.0729440803000273e+07 
+8.7999999999999847e+00 -5.3637146441604033e-01 +7.3492808925638604e+00 -4.0056753056570710e-01 +6.4966967115438461e+00 +2.6150276974542617e+03 -2.6115284125749537e+05 -1.1332525181362735e+07 
+8.8999999999999844e+00 -5.3637185106326835e-01 +7.3492932718288646e+00 -4.0235549458170694e-01 +5.9432884213342332e+00 +2.7138656445954780e+03 -2.5778241071593986e+05 -1.1887587402006138e+07 
+8.9999999999999840e+00 -5.3637224931980398e-01 +7.3493019193379645e+00 -4.0349683328329006e-01 +5.5064470870635720e+00 +2.8017599146601528e+03 -2.5505772061652518e+05 -1.2393306798297722e+07 
+9.0999999999999837e+00 -5.3637265776289011e-01 +7.3493067254511075e+00 -4.0402893135959900e-01 +5.1900027225421193e+00 +2.8786558062520776e+03 -2.5300284619756424e+05 -1.2848363237044331e+07 
+9.1999999999999833e+00 -5.3637307496969422e-01 +7.3493075805487038e+00 -4.0398918325019001e-01 +4.9977851736321313e+00 +2.9444987979188973e+03 -2.5164186274590821e+05 -1.3251437399010833e+07 
+9.2999999999999829e+00 -5.3637349951731894e-01 +7.3493043750256071e+00 -4.0341499178438156e-01 +4.9336243201099315e+00 +2.9992345202883016e+03 -2.5099884684275117e+05 -1.3601210637996458e+07 
+9.3999999999999826e+00 -5.3637392998280453e-01 +7.3492969992995798e+00 -4.0234376885874451e-01 +5.0013498256226221e+00 +3.0428087762761843e+03 -2.5109787489797027e+05 -1.3896365097646374e+07 
+9.4999999999999822e+00 -5.3637436494313417e-01 +7.3492853438071526e+00 -4.0081293397504897e-01 +5.2047912907930733e+00 +3.0751675072949820e+03 -2.5196302411696230e+05 -1.4135583532922762e+07 
+9.5999999999999819e+00 -5.3637480297522189e-01 +7.3492692990038631e+00 -3.9885991614088945e-01 +5.5477782343317461e+00 +3.0962568324169383e+03 -2.5361837236905738e+05 -1.4317549504951123e+07 
+9.6999999999999815e+00 -5.3637524265591052e-01 +7.3492487553678369e+00 -3.9652215379225253e-01 +6.0341400144880222e+00 +3.1060230438322847e+03 -2.5608799778176725e+05 -1.4440947349203315e+07 
+9.7999999999999812e+00 -5.3637568256197043e-01 +7.3492236033989995e+00 -3.9383709566267933e-01 +6.6677058654944252e+00 +3.1044126284840372e+03 -2.5939597899216588e+05 -1.4504462292633725e+07 
+9.8999999999999808e+00 -5.3637612127010859e-01 +7.3491937336192112e+00 -3.9084219851641561e-01 +7.4523049004932522e+00 +3.0913722175441394e+03 -2.6356639518001297e+05 -1.4506780192605905e+07 
+9.9999999999999805e+00 -5.3637655735696421e-01 +7.3491590365728054e+00 -3.8757492871731869e-01 +8.3917660681513908e+00 +3.0668486194690263e+03 -2.6862332549457118e+05 -1.4446587677755190e+07 
+1.0099999999999980e+01 -5.3637698964566105e-01 +7.3491194940376117e+00 -3.8406962110501736e-01 +9.4867796275168423e+00 +3.0308992962569332e+03 -2.7457178327000927e+05 -1.4323301539672591e+07 
