# multipoles
# s[mm] polynom_b[n=0][T/m^n] polynom_b[n=1][T/m^n] polynom_b[n=2][T/m^n] polynom_b[n=3][T/m^n] polynom_b[n=4][T/m^n] polynom_b[n=5][T/m^n] polynom_b[n=6][T/m^n] 
-0.0000000000000000e+00 -5.9277246588991916e-01 +8.1190906404735248e+00 +7.8881558552650291e-02 -5.8505999677332589e+01 -7.1965651840987812e+03 +1.1274869814007339e+05 +2.1072809667998623e+07 
-1.0000000000000001e-01 -5.9277244513065708e-01 +8.1190814703168925e+00 +7.5510194876449471e-02 -5.8359819665764341e+01 -7.1440041719727151e+03 +1.1198469327856897e+05 +2.0867155647230577e+07 
-2.0000000000000001e-01 -5.9277242947292497e-01 +8.1190684434834814e+00 +7.2398736572758859e-02 -5.8141256804607025e+01 -7.0960948560376492e+03 +1.1095545083436919e+05 +2.0679806413529489e+07 
-2.9999999999999999e-01 -5.9277241876145048e-01 +8.1190518152930409e+00 +6.9510617366096150e-02 -5.7855190004089337e+01 -7.0522353129459871e+03 +1.0968029987968363e+05 +2.0508351747030910e+07 
-4.0000000000000002e-01 -5.9277241284100934e-01 +8.1190318410592397e+00 +6.6809265224788014e-02 -5.7506497970653328e+01 -7.0118235211318715e+03 +1.0817856825201330e+05 +2.0350380985788967e+07 
-5.0000000000000000e-01 -5.9277241155632210e-01 +8.1190087760973899e+00 +6.4258112867474793e-02 -5.7100059463390579e+01 -6.9742575571695788e+03 +1.0646958413488540e+05 +2.0203483954329919e+07 
-5.9999999999999998e-01 -5.9277241475212517e-01 +8.1189828757206879e+00 +6.1820587862821158e-02 -5.6640753174147790e+01 -6.9389354031892572e+03 +1.0457267532224198e+05 +2.0065250033354368e+07 
-6.9999999999999996e-01 -5.9277242227313520e-01 +8.1189543952402161e+00 +5.9460123335658213e-02 -5.6133457714197625e+01 -6.9052551537487552e+03 +1.0250716910046373e+05 +1.9933269155985638e+07 
-8.0000000000000004e-01 -5.9277243396404000e-01 +8.1189235899795218e+00 +5.7140145722602627e-02 -5.5583052062028706e+01 -6.8726147822689900e+03 +1.0029239490996228e+05 +1.9805130692016408e+07 
-9.0000000000000002e-01 -5.9277244966955556e-01 +8.1188907152437437e+00 +5.4824085235265788e-02 -5.4994414654780343e+01 -6.8404123374495875e+03 +9.7947679029524574e+04 +1.9678424377946004e+07 
-1.0000000000000000e+00 -5.9277246923438998e-01 +8.1188560263547380e+00 +5.2475371219623458e-02 -5.4372424394778257e+01 -6.8080458537594395e+03 +9.5492350382754375e+04 +1.9550739887718875e+07 
-1.1000000000000001e+00 -5.9277249250332587e-01 +8.1188197786258076e+00 +5.0057435113034669e-02 -5.3721959948138128e+01 -6.7749134065747912e+03 +9.2945736551279202e+04 +1.9419667091126777e+07 
-1.2000000000000000e+00 -5.9277251932096753e-01 +8.1187822273739272e+00 +4.7533704670743360e-02 -5.3047900075992892e+01 -6.7404130034734490e+03 +9.0327165610246739e+04 +1.9282795541094232e+07 
-1.3000000000000000e+00 -5.9277254953206804e-01 +8.1187436279240508e+00 +4.4867611304582625e-02 -5.2355123761057790e+01 -6.7039427207228309e+03 +8.7655966890120573e+04 +1.9137715115595974e+07 
-1.3999999999999999e+00 -5.9277258298137403e-01 +8.1187042355935208e+00 +4.2022585241981873e-02 -5.1648509773928943e+01 -6.6649006106190636e+03 +8.4951468481107586e+04 +1.8982015575103592e+07 
-1.5000000000000000e+00 -5.9277261951357652e-01 +8.1186643057095687e+00 +3.8962057719817540e-02 -5.0932937153104675e+01 -6.6226847458777293e+03 +8.2232999950531084e+04 +1.8813286779445074e+07 
-1.6000000000000001e+00 -5.9277265897340436e-01 +8.1186240935964129e+00 +3.5649459827345895e-02 -5.0213284860181645e+01 -6.5766931898761686e+03 +7.9519890409574858e+04 +1.8629118528901815e+07 
-1.7000000000000000e+00 -5.9277270120560244e-01 +8.1185838545860793e+00 +3.2048224261430419e-02 -4.9494432073493670e+01 -6.5263240323976988e+03 +7.6831470169907028e+04 +1.8427100739560746e+07 
-1.8000000000000000e+00 -5.9277274605496211e-01 +8.1185438440124820e+00 +2.8121785858409201e-02 -4.8781258026222815e+01 -6.4709754026493392e+03 +7.4187069805633626e+04 +1.8204823512086250e+07 
-1.8999999999999999e+00 -5.9277279336620270e-01 +8.1185043172089788e+00 +2.3833577044412437e-02 -4.8078641928203858e+01 -6.4100453775522110e+03 +7.1606019695661962e+04 +1.7959876683749747e+07 
-2.0000000000000000e+00 -5.9277284298413457e-01 +8.1184655295197370e+00 +1.9147033208901921e-02 -4.7391463305663329e+01 -6.3429320805502721e+03 +6.9107651998255737e+04 +1.7689850288685963e+07 
-2.1000000000000001e+00 -5.9277289488811979e-01 +8.1184276857095714e+00 +1.4043016580722602e-02 -4.6723444363817194e+01 -6.2693337298728802e+03 +6.6704999918268295e+04 +1.7393680135943901e+07 
-2.2000000000000002e+00 -5.9277294959294480e-01 +8.1183907851996508e+00 +8.5723280503123764e-03 -4.6073620081175321e+01 -6.1901554081498361e+03 +6.4385601193060204e+04 +1.7075725014916860e+07 
-2.2999999999999998e+00 -5.9277300774632202e-01 +8.1183547752982879e+00 +2.8033152074312803e-03 -4.5439838562086045e+01 -6.1066056238017591e+03 +6.2130540791871994e+04 +1.6741709900999391e+07 
-2.3999999999999999e+00 -5.9277306999601242e-01 +8.1183196033152392e+00 -3.1956768000190529e-03 -4.4819947955685734e+01 -6.0198928274069467e+03 +5.9920903875260185e+04 +1.6397359470839122e+07 
-2.5000000000000000e+00 -5.9277313698970779e-01 +8.1182852165640451e+00 -9.3563045028454347e-03 -4.4211796527709410e+01 -5.9312254337493459e+03 +5.7737776216630693e+04 +1.6048398229450015e+07 
-2.6000000000000001e+00 -5.9277320937509559e-01 +8.1182515623484690e+00 -1.5610225671678720e-02 -4.3613232264741981e+01 -5.8418118245731584e+03 +5.5562241896223357e+04 +1.5700550507288978e+07 
-2.7000000000000002e+00 -5.9277328779998395e-01 +8.1182185879752229e+00 -2.1889097757330053e-02 -4.3022103244550706e+01 -5.7528603830227385e+03 +5.3375385444395186e+04 +1.5359540637713214e+07 
-2.7999999999999998e+00 -5.9277337291197829e-01 +8.1181862407487682e+00 -2.8124583189661302e-02 -4.2436257483653847e+01 -5.6655793846103415e+03 +5.1158290951439114e+04 +1.5031092419560008e+07 
-2.8999999999999999e+00 -5.9277346535884201e-01 +8.1181544679717828e+00 -3.4248342689489161e-02 -4.1853542950052564e+01 -5.5811771329240728e+03 +4.8892042129495967e+04 +1.4720929782220084e+07 
-3.0000000000000000e+00 -5.9277356578823637e-01 +8.1181232169435784e+00 -4.0192040328363786e-02 -4.1271807536953808e+01 -5.5008618541347532e+03 +4.6557722212397777e+04 +1.4434776263156824e+07 
-3.1000000000000001e+00 -5.9277367484781052e-01 +8.1180924349604400e+00 -4.5887345451981081e-02 -4.0688899045407823e+01 -5.4258416680846603e+03 +4.4136413775604866e+04 +1.4178354889104329e+07 
-3.2000000000000002e+00 -5.9277379318526324e-01 +8.1180620693172543e+00 -5.1265926230745544e-02 -4.0102665249403572e+01 -5.3573247032685458e+03 +4.1609199154061214e+04 +1.3957388705219174e+07 
-3.2999999999999998e+00 -5.9277392144818308e-01 +8.1180320673018223e+00 -5.6259454079972980e-02 -3.9510953725457668e+01 -5.2965190162439521e+03 +3.8957159430707681e+04 +1.3777600399190655e+07 
-3.3999999999999999e+00 -5.9277406028428281e-01 +8.1180023762031013e+00 -6.0799604433578000e-02 -3.8911612097585007e+01 -5.2446325760284308e+03 +3.6161375880889304e+04 +1.3644712228562437e+07 
-3.5000000000000000e+00 -5.9277421034109379e-01 +8.1179729433024210e+00 -6.4818053889635949e-02 -3.8302487784122960e+01 -5.2028733183751674e+03 +3.3202928487683341e+04 +1.3564446277382519e+07 
-3.6000000000000001e+00 -5.9277437226625773e-01 +8.1179437158787646e+00 -6.8246485101436410e-02 -3.7681428134854393e+01 -5.1724490486815312e+03 +3.0062896701562622e+04 +1.3542523984891683e+07 
-3.7000000000000002e+00 -5.9277454670734986e-01 +8.1179146412070242e+00 -7.1016578732488178e-02 -3.7046280412769512e+01 -5.1545675970084994e+03 +2.6722359404919876e+04 +1.3584666887664391e+07 
-3.7999999999999998e+00 -5.9277473431191752e-01 +8.1178856665584203e+00 -7.3060023494710025e-02 -3.6394891766402147e+01 -5.1504366305054264e+03 +2.3162394648296588e+04 +1.3696595740229014e+07 
-3.8999999999999999e+00 -5.9277493572750595e-01 +8.1178567391910139e+00 -7.4308509855234059e-02 -3.5725108996798824e+01 -5.1612637627318072e+03 +1.9364078400269100e+04 +1.3884031003825899e+07 
-4.0000000000000000e+00 -5.9277515160166983e-01 +8.1178278063695863e+00 -7.4693731359662216e-02 -3.5034779107530021e+01 -5.1882565404157767e+03 +1.5308487682191175e+04 +1.4152692821612492e+07 
-4.0999999999999996e+00 -5.9277538227710880e-01 +8.1177988294949728e+00 -7.4167110925455346e-02 -3.4322532145569326e+01 -5.2322296854938832e+03 +1.0984590628986502e+04 +1.4506232202025456e+07 
-4.2000000000000002e+00 -5.9277562689325602e-01 +8.1177698332068928e+00 -7.2757141846326659e-02 -3.3590506884592060e+01 -5.2924497393324682e+03 +6.4157826877271791e+03 +1.4940025369670739e+07 
-4.2999999999999998e+00 -5.9277588429270189e-01 +8.1177408596451635e+00 -7.0511120512664963e-02 -3.2841816282800067e+01 -5.3678016010280971e+03 +1.6348193309612825e+03 +1.5447376621509640e+07 
-4.4000000000000004e+00 -5.9277615331814704e-01 +8.1177119509347566e+00 -6.7476343481206694e-02 -3.2079572893794200e+01 -5.4571701770154041e+03 -3.3255458523142615e+03 +1.6021590291949416e+07 
-4.5000000000000000e+00 -5.9277643281224512e-01 +8.1176831492000634e+00 -6.3700100872726262e-02 -3.1306889249854610e+01 -5.5594405137903186e+03 -8.4325590311907727e+03 +1.6655971407351999e+07 
-4.5999999999999996e+00 -5.9277672161767159e-01 +8.1176544965557706e+00 -5.9229682276066280e-02 -3.0526877606770597e+01 -5.6734976838014709e+03 -1.3653467548051825e+04 +1.7343825134015046e+07 
-4.7000000000000002e+00 -5.9277701857718301e-01 +8.1176260351064293e+00 -5.4112369653406961e-02 -2.9742649928321622e+01 -5.7982269203170144e+03 -1.8955520002167694e+04 +1.8078457418267537e+07 
-4.7999999999999998e+00 -5.9277732253349058e-01 +8.1175978069506893e+00 -4.8395442163997313e-02 -2.8957317999551567e+01 -5.9325135282109341e+03 -2.4305965595578491e+04 +1.8853174569838881e+07 
-4.9000000000000004e+00 -5.9277763232935166e-01 +8.1175698541766668e+00 -4.2126174628943934e-02 -2.8173993312954398e+01 -6.0752429168487106e+03 -2.9672054707857493e+04 +1.9661283421905782e+07 
-5.0000000000000000e+00 -5.9277794680756846e-01 +8.1175422188678272e+00 -3.5351835871468153e-02 -2.7395787219456970e+01 -6.2253006234107515e+03 -3.5021038048621602e+04 +2.0496091423194274e+07 
-5.0999999999999996e+00 -5.9277826481098039e-01 +8.1175149430889508e+00 -2.8119690830279730e-02 -2.6625810530396905e+01 -6.3815722878129172e+03 -4.0320168916959883e+04 +2.1350906552942540e+07 
-5.2000000000000002e+00 -5.9277858518242943e-01 +8.1174880689031781e+00 -2.0476995682772059e-02 -2.5867174015104716e+01 -6.5429437363906782e+03 -4.5536700285313622e+04 +2.2219037697222993e+07 
-5.2999999999999998e+00 -5.9277890676476463e-01 +8.1174616383656293e+00 -1.2471007431561423e-02 -2.5122988205756300e+01 -6.7083008031004965e+03 -5.0637885929842596e+04 +2.3093793802627597e+07 
-5.4000000000000004e+00 -5.9277922840095876e-01 +8.1174356935108669e+00 -4.1489692454284161e-03 -2.4396363034675474e+01 -6.8765296111566986e+03 -5.5590982513597672e+04 +2.3968485223750573e+07 
-5.5000000000000000e+00 -5.9277954893389628e-01 +8.1174102763719258e+00 +4.4418775102547008e-03 -2.3690408395397217e+01 -7.0465163429185823e+03 -6.0363246270818294e+04 +2.4836422623916544e+07 
-5.5999999999999996e+00 -5.9277986720663767e-01 +8.1173854289661715e+00 +1.3254297630950908e-02 -2.3008233730064344e+01 -7.2171473283672531e+03 -6.4921935391935258e+04 +2.5690917407602403e+07 
-5.7000000000000002e+00 -5.9278018206213523e-01 +8.1173611933033332e+00 +2.2241066317354181e-02 -2.2352948249106596e+01 -7.3873091203321319e+03 -6.9234308760207787e+04 +2.6525282062931236e+07 
-5.7999999999999998e+00 -5.9278049234349395e-01 +8.1173376113774172e+00 +3.1354961733901524e-02 -2.1727660713328113e+01 -7.5558883592664697e+03 -7.3267627139213248e+04 +2.7332829533914551e+07 
-5.9000000000000004e+00 -5.9278079689376084e-01 +8.1173147251737419e+00 +4.0548772617928344e-02 -2.1135479631963921e+01 -7.7217719198112418e+03 -7.6989152022707029e+04 +2.8106873919312336e+07 
-5.9999999999999902e+00 -5.9278109455616990e-01 +8.1172925766635231e+00 +4.9775294349540505e-02 -2.0579513113523408e+01 -7.8838468344545254e+03 -8.0366146510754290e+04 +2.8840730102653421e+07 
-6.0999999999999899e+00 -5.9278138445660922e-01 +8.1172712204994681e+00 +5.8989323574625011e-02 -2.0062884526622025e+01 -8.0411452203277859e+03 -8.3369514822369965e+04 +2.9528916429400325e+07 
-6.1999999999999904e+00 -5.9278166683529399e-01 +8.1172507606705651e+00 +6.8150712828275450e-02 -1.9588061587110264e+01 -8.1932331487420706e+03 -8.5990704023605736e+04 +3.0170699754880223e+07 
-6.2999999999999901e+00 -5.9278194220620462e-01 +8.1172313131470144e+00 +7.7219776018213601e-02 -1.9157163373906791e+01 -8.3397990421967042e+03 -8.8227874809132991e+04 +3.0766526404723622e+07 
-6.3999999999999897e+00 -5.9278221108334805e-01 +8.1172129939169384e+00 +8.6156832123606461e-02 -1.8772309439666330e+01 -8.4805314009665653e+03 -9.0079185766460301e+04 +3.1316843049410146e+07 
-6.4999999999999902e+00 -5.9278247398069062e-01 +8.1171959189842173e+00 +9.4922201915865478e-02 -1.8435619774867597e+01 -8.6151187453936418e+03 -9.1542793433925981e+04 +3.1822096429099888e+07 
-6.5999999999999899e+00 -5.9278273141231697e-01 +8.1171802043825974e+00 +1.0347620455511261e-01 -1.8149215217427582e+01 -8.7432495441609299e+03 -9.2616849939662425e+04 +3.2282732995614272e+07 
-6.6999999999999904e+00 -5.9278298389227824e-01 +8.1171659661517008e+00 +1.1177916542664892e-01 -1.7915216761708376e+01 -8.8646123672269696e+03 -9.3299507031716741e+04 +3.2699199650215719e+07 
-6.7999999999999901e+00 -5.9278323193463289e-01 +8.1171533203670005e+00 +1.1979140484564878e-01 -1.7735746424379773e+01 -8.9788956629055483e+03 -9.3588911084600404e+04 +3.3071942663996823e+07 
-6.8999999999999897e+00 -5.9278347605350934e-01 +8.1171423831199938e+00 +1.2747325146690752e-01 -1.7612926665691266e+01 -9.0857880217612674e+03 -9.3483206486714334e+04 +3.3401408956212774e+07 
-6.9999999999999902e+00 -5.9278371676305575e-01 +8.1171332705289654e+00 +1.3478503072903963e-01 -1.7548880708683892e+01 -9.1849779478070468e+03 -9.2980533796204807e+04 +3.3688044982895710e+07 
-7.0999999999999899e+00 -5.9278395457739830e-01 +8.1171260987346194e+00 +1.4168707104759037e-01 -1.7545732399377776e+01 -9.2761539773071108e+03 -9.2079030616531381e+04 +3.3932297307379603e+07 
-7.1999999999999904e+00 -5.9278419001071669e-01 +8.1171209839055773e+00 +1.4813970268889434e-01 -1.7605606377952320e+01 -9.3590046603007358e+03 -9.0776830586138487e+04 +3.4134612518561609e+07 
-7.2999999999999901e+00 -5.9278442357723049e-01 +8.1171180422353419e+00 +1.5410325541893768e-01 -1.7730627988513355e+01 -9.4332185102178701e+03 -8.9072063936163206e+04 +3.4295436977401540e+07 
-7.3999999999999897e+00 -5.9278465579111028e-01 +8.1171173899449265e+00 +1.5953806208038140e-01 -1.7922923339198288e+01 -9.4984840734102436e+03 -8.6962857217809375e+04 +3.4415217155682102e+07 
-7.4999999999999902e+00 -5.9278488716669309e-01 +8.1171191432855565e+00 +1.6440445624283490e-01 -1.8184619405820889e+01 -9.5544898823826697e+03 -8.4447332638874068e+04 +3.4494399403977163e+07 
-7.5999999999999899e+00 -5.9278511821816404e-01 +8.1171234185363037e+00 +1.6866277278063624e-01 -1.8517843938984267e+01 -9.6009244677987444e+03 -8.1523608710661138e+04 +3.4533430016899362e+07 
-7.6999999999999904e+00 -5.9278534945985561e-01 +8.1171303320067363e+00 +1.7227334817844706e-01 -1.8924725554153198e+01 -9.6374763594092838e+03 -7.8189799698663439e+04 +3.4532755221173115e+07 
-7.7999999999999901e+00 -5.9278558140611881e-01 +8.1171400000382601e+00 +1.7519651965960453e-01 -1.9407393759266924e+01 -9.6638340745470650e+03 -7.4444015527012074e+04 +3.4492821139193721e+07 
-7.8999999999999897e+00 -5.9278581457127910e-01 +8.1171525390018555e+00 +1.7739262613196330e-01 -1.9967978913753239e+01 -9.6796861295562776e+03 -7.0284361969493213e+04 +3.4414073824577272e+07 
-7.9999999999999902e+00 -5.9278604946973801e-01 +8.1171680653048295e+00 +1.7882200705241413e-01 -2.0608612343123209e+01 -9.6847210161485582e+03 -6.5708940141556624e+04 +3.4296959148635015e+07 
-8.0999999999999908e+00 -5.9278628661814869e-01 +8.1171866529305969e+00 +1.7945880069117673e-01 -2.1330116462871608e+01 -9.6787669418695496e+03 -6.0722618587234487e+04 +3.4142198890842117e+07 
-8.1999999999999904e+00 -5.9278652652936237e-01 +8.1172082018313176e+00 +1.7933280830066226e-01 -2.2128569681794964e+01 -9.6622409841446679e+03 -5.5353389319956237e+04 +3.3951772409653455e+07 
-8.2999999999999901e+00 -5.9278676971236655e-01 +8.1172325672147565e+00 +1.7848795180836868e-01 -2.2998982286564605e+01 -9.6357147806849298e+03 -4.9634051174169668e+04 +3.3728006018207185e+07 
-8.3999999999999897e+00 -5.9278701667615019e-01 +8.1172596042792335e+00 +1.7696814712048153e-01 -2.3936364432355454e+01 -9.5997598331266108e+03 -4.3597403532390825e+04 +3.3473225348220807e+07 
-8.4999999999999893e+00 -5.9278726792969927e-01 +8.1172891682251258e+00 +1.7481730633340667e-01 -2.4935726428744918e+01 -9.5549475701027459e+03 -3.7276244825200789e+04 +3.3189755709482431e+07 
-8.5999999999999908e+00 -5.9278752398187962e-01 +8.1173211142325119e+00 +1.7207933168512901e-01 -2.5992078101529341e+01 -9.5018492148222904e+03 -3.0703376206952529e+04 +3.2879921415895708e+07 
-8.6999999999999904e+00 -5.9278778534153576e-01 +8.1173552974838383e+00 +1.6879811783425491e-01 -2.7100429438788947e+01 -9.4410358376813692e+03 -2.3911597840175276e+04 +3.2546046060389396e+07 
-8.7999999999999794e+00 -5.9278805251749289e-01 +8.1173915731465431e+00 +1.6501755556804970e-01 -2.8255790110021696e+01 -9.3730784205552900e+03 -1.6933711632377210e+04 +3.2190452804369431e+07 
-8.8999999999999808e+00 -5.9278832601853093e-01 +8.1174297963844300e+00 +1.6078152533024279e-01 -2.9453169789113353e+01 -9.2985477429007969e+03 -9.8025193690918113e+03 +3.1815463863977708e+07 
-8.9999999999999805e+00 -5.9278860635331232e-01 +8.1174698223477808e+00 +1.5613389837117661e-01 -3.0687577872590495e+01 -9.2180143924482436e+03 -2.5508243608315302e+03 +3.1423400527982369e+07 
-9.0999999999999801e+00 -5.9278889403051394e-01 +8.1175115061828507e+00 +1.5111854278360454e-01 -3.1954023746943712e+01 -9.1320488878321157e+03 +4.7885701030822702e+03 +3.1016583767214265e+07 
-9.1999999999999797e+00 -5.9278918955872462e-01 +8.1175547030173316e+00 +1.4577931406678676e-01 -3.3247516394927722e+01 -9.0412214937666122e+03 +1.2182858530857995e+04 +3.0597333337614980e+07 
-9.2999999999999794e+00 -5.9278949344651344e-01 +8.1175992679776048e+00 +1.4016006034383899e-01 -3.4563064871298025e+01 -8.9461023254985666e+03 +1.9599235920132291e+04 +3.0167968294679467e+07 
-9.3999999999999808e+00 -5.9278980620233290e-01 +8.1176450561770803e+00 +1.3430462055537981e-01 -3.5895677983429650e+01 -8.8472613078032937e+03 +2.7004895954643449e+04 +2.9730806780754142e+07 
-9.4999999999999805e+00 -5.9279012833461442e-01 +8.1176919227160589e+00 +1.2825682598096799e-01 -3.7240364287277330e+01 -8.7452682096977478e+03 +3.4367030974945555e+04 +2.9288166206810128e+07 
-9.5999999999999801e+00 -5.9279046035171101e-01 +8.1177397226796781e+00 +1.2206049663787462e-01 -3.8592132035563409e+01 -8.6406925723749391e+03 +4.1652831701027419e+04 +2.8842362898619130e+07 
-9.6999999999999797e+00 -5.9279080276197638e-01 +8.1177883111538858e+00 +1.1575944669123497e-01 -3.9945989628778655e+01 -8.5341038100171427e+03 +4.8829489805335310e+04 +2.8395712575662918e+07 
-9.7999999999999794e+00 -5.9279115607359423e-01 +8.1178375431993821e+00 +1.0939747543068991e-01 -4.1296944884005057e+01 -8.4260710451484956e+03 +5.5864193733580527e+04 +2.7950529583476596e+07 
-9.8999999999999808e+00 -5.9279152079473363e-01 +8.1178872738725101e+00 +1.0301837481047278e-01 -4.2640005623920707e+01 -8.3171632458289423e+03 +6.2724132083559161e+04 +2.7509127532258939e+07 
-9.9999999999999805e+00 -5.9279189743355021e-01 +8.1179373582141370e+00 +9.6665929009187912e-02 -4.3970179375033915e+01 -8.2079492155185599e+03 +6.9376491928865114e+04 +2.7073819249810968e+07 
-1.0100000000000000e+01 -5.9279228628484992e-01 +8.1179876296541273e+00 +9.0376676236870152e-02 -4.5282370003089639e+01 -8.0989191054796274e+03 +7.5791186844823023e+04 +2.6646495117248297e+07 
