# multipoles
# s[mm] polynom_b[n=0][T/m^n] polynom_b[n=1][T/m^n] polynom_b[n=2][T/m^n] polynom_b[n=3][T/m^n] polynom_b[n=4][T/m^n] polynom_b[n=5][T/m^n] polynom_b[n=6][T/m^n] 
+0.0000000000000000e+00 -5.6473370215130947e-01 +7.7331865862802012e+00 +1.6006306790600699e-01 +1.5154043205552737e+01 -6.7247808819338288e+03 -1.4398524623215111e+05 +2.0554496895792518e+07 
-1.0000000000000001e-01 -5.6473372210730133e-01 +7.7331758352825783e+00 +1.6430737013821214e-01 +1.5406504867021251e+01 -6.7826753934900398e+03 -1.4578193644990015e+05 +2.0771507952376410e+07 
-2.0000000000000001e-01 -5.6473375586913832e-01 +7.7331637710182504e+00 +1.6860421400039957e-01 +1.5754755694713014e+01 -6.8384991081103981e+03 -1.4825594778749719e+05 +2.0978077727648795e+07 
-3.0000000000000004e-01 -5.6473380227714209e-01 +7.7331504599354677e+00 +1.7291262162156171e-01 +1.6193117309742100e+01 -6.8920167274476835e+03 -1.5136556834395570e+05 +2.1174227777749896e+07 
-4.0000000000000002e-01 -5.6473386017165550e-01 +7.7331359684834124e+00 +1.7719161618233398e-01 +1.6715911294504874e+01 -6.9429929667927263e+03 -1.5506908601349473e+05 +2.1359979721647803e+07 
-5.0000000000000000e-01 -5.6473392839299275e-01 +7.7331203631162584e+00 +1.8140021710959417e-01 +1.7317459040990318e+01 -6.9911924706289265e+03 -1.5932478751828743e+05 +2.1535354853357557e+07 
-5.9999999999999998e-01 -5.6473400578144040e-01 +7.7331037102833111e+00 +1.8549743970644367e-01 +1.7992082081929262e+01 -7.0363798051632602e+03 -1.6409096046330431e+05 +2.1700374106679164e+07 
-6.9999999999999996e-01 -5.6473409117730966e-01 +7.7330860764396014e+00 +1.8944230184075969e-01 +1.8734101758380831e+01 -7.0783195822492589e+03 -1.6932589133947788e+05 +2.1855058631404087e+07 
-7.9999999999999993e-01 -5.6473418342088400e-01 +7.7330675280452592e+00 +1.9319381740340588e-01 +1.9537839267846195e+01 -7.1167763375869099e+03 -1.7498786589728796e+05 +2.1999429220289350e+07 
-8.9999999999999991e-01 -5.6473428135245540e-01 +7.7330481315588235e+00 +1.9671100120351839e-01 +2.0397615857798353e+01 -7.1515146245819606e+03 -1.8103517027525502e+05 +2.2133506755360723e+07 
-9.9999999999999989e-01 -5.6473438381229835e-01 +7.7330279534480271e+00 +1.9995286548634505e-01 +2.1307752511605305e+01 -7.1822989469100394e+03 -1.8742608916789293e+05 +2.2257311882451907e+07 
-1.0999999999999999e+00 -5.6473448964069284e-01 +7.7330070601838079e+00 +2.0287842343919041e-01 +2.2262570142208894e+01 -7.2088938294649306e+03 -1.9411890702820409e+05 +2.2370865358367249e+07 
-1.2000000000000000e+00 -5.6473459767792156e-01 +7.7329855182390315e+00 +2.0544668821023859e-01 +2.3256389629182927e+01 -7.2310637923273198e+03 -2.0107190827670286e+05 +2.2474187903787680e+07 
-1.3000000000000000e+00 -5.6473470676426207e-01 +7.7329633940971760e+00 +2.0761667288679941e-01 +2.4283531576903826e+01 -7.2485733602086557e+03 -2.0824337593857668e+05 +2.2567300275311455e+07 
-1.4000000000000001e+00 -5.6473481573998796e-01 +7.7329407542422768e+00 +2.0934738986319831e-01 +2.5338316612380659e+01 -7.2611870422054108e+03 -2.1559159338719180e+05 +2.2650223142743949e+07 
-1.5000000000000002e+00 -5.6473492344539444e-01 +7.7329176651742024e+00 +2.1059785484191706e-01 +2.6415064943189762e+01 -7.2686694142538890e+03 -2.2307484179987686e+05 +2.2722977498714577e+07 
-1.6000000000000003e+00 -5.6473502872074943e-01 +7.7328941933916271e+00 +2.1132708045277931e-01 +2.7508096869279054e+01 -7.2707849945193375e+03 -2.3065140317254295e+05 +2.2785584053539876e+07 
-1.7000000000000004e+00 -5.6473513040635970e-01 +7.7328704054028439e+00 +2.1149408484782575e-01 +2.8611732473896136e+01 -7.2672984101419079e+03 -2.3827955855085337e+05 +2.2838064036928359e+07 
-1.8000000000000005e+00 -5.6473522734252302e-01 +7.7328463677280048e+00 +2.1105788561004898e-01 +2.9720291558323410e+01 -7.2579742779801327e+03 -2.4591758765318530e+05 +2.2880438617308762e+07 
-1.9000000000000006e+00 -5.6473531836953894e-01 +7.7328221468948923e+00 +2.0997750123252040e-01 +3.0828093778015713e+01 -7.2425772369352308e+03 -2.5352376971118103e+05 +2.2912729068485651e+07 
-2.0000000000000004e+00 -5.6473540232773567e-01 +7.7327978094379448e+00 +2.0821195461907152e-01 +3.1929458675695901e+01 -7.2208720104950407e+03 -2.6105638367008357e+05 +2.2934957050989743e+07 
-2.1000000000000005e+00 -5.6473547842382421e-01 +7.7327734418707585e+00 +2.0573491391014162e-01 +3.3018564565884816e+01 -7.1927167404398124e+03 -2.6847417859768466e+05 +2.2947070686797801e+07 
-2.2000000000000006e+00 -5.6473554732931797e-01 +7.7327492158180959e+00 +2.0257823744371159e-01 +3.4088811439933302e+01 -7.1583386706527162e+03 -2.7573628620893729e+05 +2.2948716354709916e+07 
-2.3000000000000007e+00 -5.6473561008167783e-01 +7.7327253254879071e+00 +1.9878822171490179e-01 +3.5133351471116434e+01 -7.1180558704148416e+03 -2.8280156127702194e+05 +2.2939461245436348e+07 
-2.4000000000000008e+00 -5.6473566771846295e-01 +7.7327019650902162e+00 +1.9441117655013851e-01 +3.6145336764397996e+01 -7.0721866632713445e+03 -2.8962885803869407e+05 +2.2918873746751644e+07 
-2.5000000000000009e+00 -5.6473572127720573e-01 +7.7326793288304447e+00 +1.8949340873871381e-01 +3.7117919562606154e+01 -7.0210493145326473e+03 -2.9617703141329985e+05 +2.2886521952582274e+07 
-2.6000000000000010e+00 -5.6473577179547940e-01 +7.7326576109094933e+00 +1.8408123071763594e-01 +3.8044252221637329e+01 -6.9649621961365110e+03 -3.0240493676488422e+05 +2.2841974446673218e+07 
-2.7000000000000011e+00 -5.6473582031087788e-01 +7.7326370055236495e+00 +1.7822095815004496e-01 +3.8917487217004535e+01 -6.9042437394877961e+03 -3.0827142993028101e+05 +2.2784800072717771e+07 
-2.8000000000000012e+00 -5.6473586786102425e-01 +7.7326177068645636e+00 +1.7195891077787373e-01 +3.9730777145496859e+01 -6.8392124533256529e+03 -3.1373536721488327e+05 +2.2714568024880894e+07 
-2.9000000000000012e+00 -5.6473591548358815e-01 +7.7325999091139206e+00 +1.6534141523280224e-01 +4.0477274863521707e+01 -6.7701869769087625e+03 -3.1875560611680138e+05 +2.2630848096660744e+07 
-3.0000000000000013e+00 -5.6473596421623773e-01 +7.7325838064499113e+00 +1.5841479822738175e-01 +4.1150133307473588e+01 -6.6974859489925248e+03 -3.2329100429649558e+05 +2.2533210055116359e+07 
-3.1000000000000014e+00 -5.6473601509670435e-01 +7.7325695930412293e+00 +1.5122539528523860e-01 +4.1742505655028964e+01 -6.6214281747829837e+03 -3.2730042044235708e+05 +2.2421224434563871e+07 
-3.2000000000000015e+00 -5.6473606916276053e-01 +7.7325574630473790e+00 +1.4381954772420572e-01 +4.2247545319327898e+01 -6.5423325670872400e+03 -3.3074271423115826e+05 +2.2294462253039353e+07 
-3.3000000000000016e+00 -5.6473612745218704e-01 +7.7325476106137216e+00 +1.3624359854320195e-01 +4.2658406080483260e+01 -6.4605180686337026e+03 -3.3357674703404558e+05 +2.2152494642367218e+07 
-3.4000000000000017e+00 -5.6473619100283068e-01 +7.7325402298804446e+00 +1.2854390005017044e-01 +4.2968241831838306e+01 -6.3763038002983767e+03 -3.3576138043531484e+05 +2.1994893562306948e+07 
-3.5000000000000018e+00 -5.6473626085256323e-01 +7.7325355149708832e+00 +1.2076680831239471e-01 +4.3170206898988361e+01 -6.2900089487416080e+03 -3.3725547800866031e+05 +2.1821231243906356e+07 
-3.6000000000000019e+00 -5.6473633803931045e-01 +7.7325336599991692e+00 +1.1295868675847548e-01 +4.3257455833436389e+01 -6.2019528386461243e+03 -3.3801790413897956e+05 +2.1631080545973100e+07 
-3.7000000000000020e+00 -5.6473642360105814e-01 +7.7325348590669494e+00 +1.0516590734434597e-01 +4.3223143485590221e+01 -6.1124549556844568e+03 -3.3800752436529950e+05 +2.1424015063243262e+07 
-3.8000000000000020e+00 -5.6473651857580842e-01 +7.7325393062563217e+00 +9.7434845626056102e-02 +4.3060425226457397e+01 -6.0218348534865045e+03 -3.3718320668338763e+05 +2.1199608683490109e+07 
-3.9000000000000021e+00 -5.6473662400163360e-01 +7.7325471956378919e+00 +8.9811885491611260e-02 +4.2762456677433228e+01 -5.9304122345638925e+03 -3.3550381986498839e+05 +2.0957435950307552e+07 
-4.0000000000000018e+00 -5.6473674091665327e-01 +7.7325587212657982e+00 +8.2343418810314192e-02 +4.2322393893153048e+01 -5.8385069576087726e+03 -3.3292823457395140e+05 +2.0697072134926796e+07 
-4.1000000000000014e+00 -5.6473687011050122e-01 +7.7325739760731524e+00 +7.5075647665915582e-02 +4.1736840488461134e+01 -5.7465313687493190e+03 -3.2943575020911329e+05 +2.0418879106533177e+07 
-4.2000000000000011e+00 -5.6473701135617604e-01 +7.7325926358765731e+00 +6.8053592529754181e-02 +4.1016552552020343e+01 -5.6552976798219115e+03 -3.2509006894828059e+05 +2.0126608105648983e+07 
-4.3000000000000007e+00 -5.6473716416687214e-01 +7.7326142688781392e+00 +6.1321896809149068e-02 +4.0175923008533715e+01 -5.5657262061102010e+03 -3.1997671808600670e+05 +1.9824923182463054e+07 
-4.4000000000000004e+00 -5.6473732805569044e-01 +7.7326384432732871e+00 +5.4925192067761863e-02 +3.9229345007175056e+01 -5.4787370485778274e+03 -3.1418122630675300e+05 +1.9518487423163485e+07 
-4.5000000000000000e+00 -5.6473750253571087e-01 +7.7326647272524642e+00 +4.8908107743600951e-02 +3.8191211880080672e+01 -5.3952502788938909e+03 -3.0778912347481097e+05 +1.9211963826131355e+07 
-4.5999999999999996e+00 -5.6473768711994610e-01 +7.7326926889971102e+00 +4.3315264295214068e-02 +3.7075917247949988e+01 -5.3161858058334192e+03 -3.0088594121801021e+05 +1.8910014662839327e+07 
-4.6999999999999993e+00 -5.6473788132134251e-01 +7.7327218966798048e+00 +3.8191274007187963e-02 +3.5897855035915427e+01 -5.2424633938180068e+03 -2.9355721308759862e+05 +1.8617301575631082e+07 
-4.7999999999999989e+00 -5.6473808465276487e-01 +7.7327519184679030e+00 +3.3580738749953765e-02 +3.4671419345609358e+01 -5.1750026215022717e+03 -2.8588847375795204e+05 +1.8338485386702746e+07 
-4.8999999999999986e+00 -5.6473829662706809e-01 +7.7327823225202073e+00 +2.9528259248509537e-02 +3.3411004572668936e+01 -5.1147230559177387e+03 -2.7796525977787533e+05 +1.8078226920910761e+07 
-4.9999999999999982e+00 -5.6473851675698150e-01 +7.7328126769859900e+00 +2.6078420046341026e-02 +3.2131005435224523e+01 -5.0625439701753921e+03 -2.6987310974509380e+05 +1.7841185678334258e+07 
-5.0999999999999979e+00 -5.6473874455517070e-01 +7.7328425500089564e+00 +2.3275797320683567e-02 +3.0845816849757853e+01 -5.0193844876707226e+03 -2.6169756357187743e+05 +1.7632020507442594e+07 
-5.1999999999999975e+00 -5.6473897953421492e-01 +7.7328715097228011e+00 +2.1164956748537276e-02 +2.9569834075444501e+01 -4.9861635505756794e+03 -2.5352416336585517e+05 +1.7455389483012658e+07 
-5.2999999999999972e+00 -5.6473922120662812e-01 +7.7328991242520662e+00 +1.9790455071926102e-02 +2.8317452688933692e+01 -4.9637999400880335e+03 -2.4543845330237286e+05 +1.7315949978289023e+07 
-5.3999999999999968e+00 -5.6473946908483474e-01 +7.7329249617146765e+00 +1.9196837895470192e-02 +2.7103068503368345e+01 -4.9532122432559145e+03 -2.3752597912876998e+05 +1.7218358533332475e+07 
-5.4999999999999964e+00 -5.6473972268112205e-01 +7.7329485902184985e+00 +1.9428632941689047e-02 +2.5941077678376001e+01 -4.9553187198131200e+03 -2.2987228885365705e+05 +1.7167270210112944e+07 
-5.5999999999999961e+00 -5.6473998150773597e-01 +7.7329695778640879e+00 +2.0530362661389540e-02 +2.4845876646839894e+01 -4.9710375459562201e+03 -2.2256293234219882e+05 +1.7167339765215795e+07 
-5.6999999999999957e+00 -5.6474024507682652e-01 +7.7329874927381042e+00 +2.2546536794720160e-02 +2.3831862302004627e+01 -5.0012866706299092e+03 -2.1568346239820306e+05 +1.7223220962988440e+07 
-5.7999999999999954e+00 -5.6474051290036720e-01 +7.7330019029244097e+00 +2.5521643046114723e-02 +2.2913431671113223e+01 -5.0469836418015775e+03 -2.0931943286862937e+05 +1.7339565756992802e+07 
-5.8999999999999950e+00 -5.6474078449027232e-01 +7.7330123764914331e+00 +2.9500160937873696e-02 +2.2104982296155974e+01 -5.1090458690663381e+03 -2.0355640090147147e+05 +1.7521025545374278e+07 
-5.9999999999999947e+00 -5.6474105935836061e-01 +7.7330184815039784e+00 +3.4526557325852407e-02 +2.1420911880633437e+01 -5.1883905376667726e+03 -1.9847992489404749e+05 +1.7772250757066257e+07 
-6.0999999999999943e+00 -5.6474133708829855e-01 +7.7330198876950407e+00 +4.0623328191114541e-02 +2.0872594079097411e+01 -5.2855493904948044e+03 -1.9415802737993374e+05 +1.8096219931063071e+07 
-6.1999999999999940e+00 -5.6474161757968655e-01 +7.7330166930584214e+00 +4.7724866897107490e-02 +2.0459078321028411e+01 -5.3994695827001105e+03 -1.9058781900977451e+05 +1.8488908713920835e+07 
-6.2999999999999936e+00 -5.6474190081789188e-01 +7.7330091083264403e+00 +5.5743382879066689e-02 +2.0176264132682689e+01 -5.5286898568817714e+03 -1.8774841079206776e+05 +1.8944456436672188e+07 
-6.3999999999999932e+00 -5.6474218678828825e-01 +7.7329973442583650e+00 +6.4591085284390920e-02 +2.0020050197370061e+01 -5.6717489496473263e+03 -1.8561890885657878e+05 +1.9457002404520940e+07 
-6.4999999999999929e+00 -5.6474247547630418e-01 +7.7329816116200316e+00 +7.4180187573302497e-02 +1.9986334968115418e+01 -5.8271856674583942e+03 -1.8417841811074840e+05 +2.0020686230024949e+07 
-6.5999999999999925e+00 -5.6474276686734515e-01 +7.7329621211999315e+00 +8.4422900046802099e-02 +2.0071016203368391e+01 -5.9935387612531194e+03 -1.8340603955899883e+05 +2.0629647280333329e+07 
-6.6999999999999922e+00 -5.6474306094686511e-01 +7.7329390838048688e+00 +9.5231436891306795e-02 +2.0269991050633525e+01 -6.1693470455809420e+03 -1.8328087068053056e+05 +2.1278025202949300e+07 
-6.7999999999999918e+00 -5.6474335770032502e-01 +7.7329127102585433e+00 +1.0651801164084067e-01 +2.0579156127676548e+01 -6.3531493186380585e+03 -1.8378200601964426e+05 +2.1959959564544640e+07 
-6.8999999999999915e+00 -5.6474365711323049e-01 +7.7328832114048378e+00 +1.1819484207249660e-01 +2.0994407406994110e+01 -6.5434844556370954e+03 -1.8488853647979436e+05 +2.2669590293940771e+07 
-6.9999999999999911e+00 -5.6474395917107045e-01 +7.7328507981104622e+00 +1.3017414176565439e-01 +2.1511640133741292e+01 -6.7388912455680666e+03 -1.8657954882865035e+05 +2.3401056900272585e+07 
-7.0999999999999908e+00 -5.6474426385941701e-01 +7.7328156812596989e+00 +1.4236813329788389e-01 +2.2126748980947315e+01 -6.9379086403435349e+03 -1.8883412662636460e+05 +2.4148499649278808e+07 
-7.1999999999999904e+00 -5.6474457116382382e-01 +7.7327780717641401e+00 +1.5468903475945026e-01 +2.2835627763200137e+01 -7.1390755024282889e+03 -1.9163134856307451e+05 +2.4906058378474001e+07 
-7.2999999999999901e+00 -5.6474488106990817e-01 +7.7327381805513768e+00 +1.6704907074234893e-01 +2.3634169768059071e+01 -7.3409308115924186e+03 -1.9495029039510569e+05 +2.5667873471951190e+07 
-7.3999999999999897e+00 -5.6474519356329134e-01 +7.7326962185823209e+00 +1.7936046371123396e-01 +2.4518267240002910e+01 -7.5420134956952479e+03 -1.9877002193158580e+05 +2.6428085041302778e+07 
-7.4999999999999893e+00 -5.6474550862965212e-01 +7.7326523968360474e+00 +1.9153544209128126e-01 +2.5483811825196742e+01 -7.7408625936662511e+03 -2.0306960962895706e+05 +2.7180833726624683e+07 
-7.5999999999999890e+00 -5.6474582625469383e-01 +7.7326069263184687e+00 +2.0348623495018159e-01 +2.6526694316452446e+01 -7.9360171457896286e+03 -2.0782811512465586e+05 +2.7920260150453616e+07 
-7.6999999999999886e+00 -5.6474614642414556e-01 +7.7325600180642819e+00 +2.1512507237768341e-01 +2.7642804595643188e+01 -8.1260162042160155e+03 -2.1302459489767719e+05 +2.8640504977904592e+07 
-7.7999999999999883e+00 -5.6474646912379656e-01 +7.7325118831316910e+00 +2.2636419001489899e-01 +2.8828031781527692e+01 -8.3093989182467412e+03 -2.1863810113291294e+05 +2.9335709318616055e+07 
-7.8999999999999879e+00 -5.6474679433945951e-01 +7.7324627326103288e+00 +2.3711582380463800e-01 +3.0078263989428041e+01 -8.4847044316876872e+03 -2.2464768029648217e+05 +3.0000014231362451e+07 
-7.9999999999999876e+00 -5.6474712205699906e-01 +7.7324127776191300e+00 +2.4729221470445900e-01 +3.1389388423333731e+01 -8.6504719804515335e+03 -2.3103237386582082e+05 +3.0627561201828737e+07 
-8.0999999999999872e+00 -5.6474745230307610e-01 +7.7323622629656752e+00 +2.5681839180492733e-01 +3.2755774846058607e+01 -8.8054358978034379e+03 -2.3776281866618927e+05 +3.1213224653899632e+07 
-8.1999999999999869e+00 -5.6474778528074221e-01 +7.7323115604007748e+00 +2.6567064744462121e-01 +3.4165640837539584e+01 -8.9490661878552655e+03 -2.4477482952580892e+05 +3.1754535325986054e+07 
-8.2999999999999865e+00 -5.6474812124080886e-01 +7.7322610717709805e+00 +2.7383818768123752e-01 +3.5605628828430341e+01 -9.0810060919208390e+03 -2.5199513505668394e+05 +3.2249618844078373e+07 
-8.3999999999999861e+00 -5.6474846043419380e-01 +7.7322111989370530e+00 +2.8131023161840585e-01 +3.7062380697122137e+01 -9.2008990591603961e+03 -2.5935046042790584e+05 +3.2696601675934065e+07 
-8.4999999999999858e+00 -5.6474880311191056e-01 +7.7321623437566958e+00 +2.8807601003886191e-01 +3.8522538272721903e+01 -9.3083887252047334e+03 -2.6676753019163501e+05 +3.3093611035774734e+07 
-8.5999999999999854e+00 -5.6474914952512001e-01 +7.7321149080944327e+00 +2.9412477134809012e-01 +3.9972743051687480e+01 -9.4031190187981119e+03 -2.7417306663427391e+05 +3.3438775371223606e+07 
-8.6999999999999851e+00 -5.6474949992507129e-01 +7.7320692938197579e+00 +2.9944577527107247e-01 +4.1399636263609267e+01 -9.4847340504095955e+03 -2.8149379020537349e+05 +3.3730223856299669e+07 
-8.7999999999999847e+00 -5.6474985456315896e-01 +7.7320259028063356e+00 +3.0402829902175987e-01 +4.2789858864397146e+01 -9.5528782178611964e+03 -2.8865641938464670e+05 +3.3966086858273365e+07 
-8.8999999999999844e+00 -5.6475021369089429e-01 +7.7319851369324475e+00 +3.0786163363897445e-01 +4.4130051544675503e+01 -9.6071961400190612e+03 -2.9558767079012643e+05 +3.4144495633437231e+07 
-8.9999999999999840e+00 -5.6475057755989722e-01 +7.7319473980806217e+00 +3.1093508466106334e-01 +4.5406854724294497e+01 -9.6473326751713521e+03 -3.0221425910618575e+05 +3.4263582424091846e+07 
-9.0999999999999837e+00 -5.6475094642196066e-01 +7.7319130881410931e+00 +3.1323797731826380e-01 +4.6606908442537609e+01 -9.6729330027950691e+03 -3.0846289641294500e+05 +3.4321480803401917e+07 
-9.1999999999999833e+00 -5.6475132052898702e-01 +7.7318826090052220e+00 +3.1475965157820751e-01 +4.7716852565909555e+01 -9.6836425466258606e+03 -3.1426029343996826e+05 +3.4316325352804191e+07 
-9.2999999999999829e+00 -5.6475170013301546e-01 +7.7318563625705234e+00 +3.1548946328843497e-01 +4.8723326623426878e+01 -9.6791069806877586e+03 -3.1953315856342664e+05 +3.4246251646998368e+07 
-9.3999999999999826e+00 -5.6475208548624367e-01 +7.7318347507369154e+00 +3.1541678814691460e-01 +4.9612969907531465e+01 -9.6589723107858590e+03 -3.2420819835976913e+05 +3.4109396656320184e+07 
-9.4999999999999822e+00 -5.6475247684100227e-01 +7.7318181754143387e+00 +3.1453101825872803e-01 +5.0372421271578055e+01 -9.6228848090974243e+03 -3.2821211648733437e+05 +3.3903898435532384e+07 
-9.5999999999999819e+00 -5.6475287444976996e-01 +7.7318070385129394e+00 +3.1282156394520616e-01 +5.0988319391469830e+01 -9.5704910424291847e+03 -3.3147161514185322e+05 +3.3627896236588858e+07 
-9.6999999999999815e+00 -5.6475327856520685e-01 +7.7318017419494636e+00 +3.1027785713812223e-01 +5.1447302580211449e+01 -9.5014379361526317e+03 -3.3391339397012664e+05 +3.3279530815596718e+07 
-9.7999999999999812e+00 -5.6475368944007454e-01 +7.7318026876456090e+00 +3.0688934337642432e-01 +5.1736008839753751e+01 -9.4153726284437635e+03 -3.3546415039050928e+05 +3.2856943747868285e+07 
-9.8999999999999808e+00 -5.6475410732735065e-01 +7.7318102775267450e+00 +3.0264549414577302e-01 +5.1841075888478699e+01 -9.3119426941548918e+03 -3.3605057972317317e+05 +3.2358278468092199e+07 
-9.9999999999999805e+00 -5.6475453248012875e-01 +7.7318249135222077e+00 +2.9753579514974393e-01 +5.1749141193155154e+01 -9.1907959205044099e+03 -3.3559937543013808e+05 +3.1781679196759891e+07 
-1.0099999999999980e+01 -5.6475496495357436e-01 +7.7318468399941080e+00 +2.9155691492680080e-01 +5.1451535959669613e+01 -9.0518188063348589e+03 -3.3406290637616429e+05 +3.1126516119625092e+07 
