# field on trajectory
# s[mm] rx[mm] ry[mm] rz[mm] bx[T] by[T] bz[T]
0.0000000000000000e+00 +8.1530000000000094e+00 +0.0000000000000000e+00 +0.0000000000000000e+00 -3.1627269324828990e-02 -5.9300171328735951e-01 +5.8928440108744961e-03
1.0000000000000001e-01 +8.1529997159377707e+00 +0.0000000000000000e+00 +1.0008006405070299e-01 -3.1627214243542465e-02 -5.9300176995284648e-01 +5.8929360583020096e-03
2.0000000000000001e-01 +8.1529988637557800e+00 +0.0000000000000000e+00 +2.0016012809818201e-01 -3.1627157010379540e-02 -5.9300183211254098e-01 +5.8930309556037477e-03
2.9999999999999999e-01 +8.1529974434524792e+00 +0.0000000000000000e+00 +3.0024019213920999e-01 -3.1627097720620938e-02 -5.9300189841691897e-01 +5.8931285238161598e-03
4.0000000000000002e-01 +8.1529954550242092e+00 +0.0000000000000000e+00 +4.0032025617056399e-01 -3.1627036469526006e-02 -5.9300196751645606e-01 +5.8932285839772619e-03
5.0000000000000000e-01 +8.1529928984782600e+00 +0.0000000000000000e+00 +5.0040032018901703e-01 -3.1626973352330126e-02 -5.9300203806152008e-01 +5.8933309571253117e-03
5.9999999999999998e-01 +8.1529897738146193e+00 +0.0000000000000000e+00 +6.0048038419134497e-01 -3.1626908464255803e-02 -5.9300210870252301e-01 +5.8934354643001502e-03
6.9999999999999996e-01 +8.1529860810223909e+00 +0.0000000000000000e+00 +7.0056044817432195e-01 -3.1626841900517524e-02 -5.9300217808995126e-01 +5.8935419265432939e-03
8.0000000000000004e-01 +8.1529818201124709e+00 +0.0000000000000000e+00 +8.0064051213472498e-01 -3.1626773756310504e-02 -5.9300224487410258e-01 +5.8936501648949773e-03
9.0000000000000002e-01 +8.1529769910812302e+00 +0.0000000000000000e+00 +9.0072057606932698e-01 -3.1626704126829747e-02 -5.9300230770538209e-01 +5.8937600003969937e-03
1.0000000000000000e+00 +8.1529715939250291e+00 +0.0000000000000000e+00 +1.0008006399749001e+00 -3.1626633107266905e-02 -5.9300236523418648e-01 +5.8938712540912812e-03
1.1000000000000001e+00 +8.1529656286511507e+00 +0.0000000000000000e+00 +1.1008807038482300e+00 -3.1626560792808650e-02 -5.9300241611081761e-01 +5.8939837470187786e-03
1.2000000000000000e+00 +8.1529590952522994e+00 +0.0000000000000000e+00 +1.2009607676860801e+00 -3.1626487278650896e-02 -5.9300245898569026e-01 +5.8940973002213782e-03
1.3000000000000000e+00 +8.1529519937357708e+00 +0.0000000000000000e+00 +1.3010408314852300e+00 -3.1626412659989320e-02 -5.9300249250909776e-01 +5.8942117347392494e-03
1.3999999999999999e+00 +8.1529443240979198e+00 +0.0000000000000000e+00 +1.4011208952424601e+00 -3.1626337032033547e-02 -5.9300251533142101e-01 +5.8943268716127864e-03
1.5000000000000000e+00 +8.1529360863350995e+00 +0.0000000000000000e+00 +1.5012009589545301e+00 -3.1626260490005692e-02 -5.9300252610304116e-01 +5.8944425318814804e-03
1.6000000000000001e+00 +8.1529272804509691e+00 +0.0000000000000000e+00 +1.6012810226182299e+00 -3.1626183129140201e-02 -5.9300252347428306e-01 +5.8945585365831063e-03
1.7000000000000000e+00 +8.1529179064491508e+00 +0.0000000000000000e+00 +1.7013610862303301e+00 -3.1626105044690239e-02 -5.9300250609547511e-01 +5.8946747067541074e-03
1.8000000000000000e+00 +8.1529079643223703e+00 +0.0000000000000000e+00 +1.8014411497875999e+00 -3.1626026331935578e-02 -5.9300247261703987e-01 +5.8947908634303242e-03
1.8999999999999999e+00 +8.1528974540779000e+00 +0.0000000000000000e+00 +1.9015212132868200e+00 -3.1625947086174756e-02 -5.9300242168929029e-01 +5.8949068276446430e-03
2.0000000000000000e+00 +8.1528863757084800e+00 +0.0000000000000000e+00 +2.0016012767247702e+00 -3.1625867402740808e-02 -5.9300235196266815e-01 +5.8950224204292910e-03
2.1000000000000001e+00 +8.1528747292177304e+00 +0.0000000000000000e+00 +2.1016813400982199e+00 -3.1625787393298355e-02 -5.9300226257379585e-01 +5.8951374805763981e-03
2.2000000000000002e+00 +8.1528625146056601e+00 +0.0000000000000000e+00 +2.2017614034039301e+00 -3.1625707231705560e-02 -5.9300215451324079e-01 +5.8952519145993162e-03
2.2999999999999998e+00 +8.1528497318759001e+00 +0.0000000000000000e+00 +2.3018414666387002e+00 -3.1625627106650449e-02 -5.9300202921330636e-01 +5.8953656451466441e-03
2.3999999999999999e+00 +8.1528363810211903e+00 +0.0000000000000000e+00 +2.4019215297993002e+00 -3.1625547206844157e-02 -5.9300188810639753e-01 +5.8954785948663133e-03
2.5000000000000000e+00 +8.1528224620451493e+00 +0.0000000000000000e+00 +2.5020015928824901e+00 -3.1625467721012428e-02 -5.9300173262484968e-01 +5.8955906864036596e-03
2.6000000000000001e+00 +8.1528079749477893e+00 +0.0000000000000000e+00 +2.6020816558850601e+00 -3.1625388837902745e-02 -5.9300156420104366e-01 +5.8957018424025485e-03
2.7000000000000002e+00 +8.1527929197291105e+00 +0.0000000000000000e+00 +2.7021617188037701e+00 -3.1625310746283775e-02 -5.9300138426738125e-01 +5.8958119855049883e-03
2.7999999999999998e+00 +8.1527772963891003e+00 +0.0000000000000000e+00 +2.8022417816354102e+00 -3.1625233634946216e-02 -5.9300119425628572e-01 +5.8959210383510412e-03
2.8999999999999999e+00 +8.1527611049277802e+00 +0.0000000000000000e+00 +2.9023218443767500e+00 -3.1625157692703680e-02 -5.9300099560020247e-01 +5.8960289235787267e-03
3.0000000000000000e+00 +8.1527443453451305e+00 +0.0000000000000000e+00 +3.0024019070245598e+00 -3.1625083108393730e-02 -5.9300078973160264e-01 +5.8961355638239409e-03
3.1000000000000001e+00 +8.1527270176411495e+00 +0.0000000000000000e+00 +3.1024819695756198e+00 -3.1625010070878694e-02 -5.9300057808298257e-01 +5.8962408817203596e-03
3.2000000000000002e+00 +8.1527091218158603e+00 +0.0000000000000000e+00 +3.2025620320267101e+00 -3.1624938769046596e-02 -5.9300036208686702e-01 +5.8963447998993538e-03
3.2999999999999998e+00 +8.1526906578692397e+00 +0.0000000000000000e+00 +3.3026420943745900e+00 -3.1624869391812097e-02 -5.9300014317581029e-01 +5.8964472409898999e-03
3.3999999999999999e+00 +8.1526716258013003e+00 +0.0000000000000000e+00 +3.4027221566160502e+00 -3.1624802128117420e-02 -5.9299992278239755e-01 +5.8965481276184875e-03
3.5000000000000000e+00 +8.1526520256120403e+00 +0.0000000000000000e+00 +3.5028022187478500e+00 -3.1624737166933196e-02 -5.9299970233924670e-01 +5.8966473824090338e-03
3.6000000000000001e+00 +8.1526318572978198e+00 +0.0000000000000000e+00 +3.6028822807667802e+00 -3.1624674697261032e-02 -5.9299948327903995e-01 +5.8967449279830903e-03
3.7000000000000002e+00 +8.1526111208659096e+00 +0.0000000000000000e+00 +3.7029623426696099e+00 -3.1624614908128096e-02 -5.9299926703440675e-01 +5.8968406869585564e-03
3.7999999999999998e+00 +8.1525898163126804e+00 +0.0000000000000000e+00 +3.8030424044531101e+00 -3.1624557988597465e-02 -5.9299905503810191e-01 +5.8969345819513859e-03
3.8999999999999999e+00 +8.1525679436344909e+00 +0.0000000000000000e+00 +3.9031224661140600e+00 -3.1624504127764318e-02 -5.9299884872292019e-01 +5.8970265355746156e-03
4.0000000000000000e+00 +8.1525455028386205e+00 +0.0000000000000000e+00 +4.0032025276492398e+00 -3.1624453514749254e-02 -5.9299864952160808e-01 +5.8971164704390115e-03
4.0999999999999996e+00 +8.1525224939177896e+00 +0.0000000000000000e+00 +4.1032825890554099e+00 -3.1624406240361842e-02 -5.9299845882449143e-01 +5.8972043652320413e-03
4.2000000000000002e+00 +8.1524989168792708e+00 +0.0000000000000000e+00 +4.2033626503293604e+00 -3.1624362037983522e-02 -5.9299827786704962e-01 +5.8972904024427340e-03
4.2999999999999998e+00 +8.1524747717157897e+00 +0.0000000000000000e+00 +4.3034427114678504e+00 -3.1624320559801480e-02 -5.9299810784969964e-01 +5.8973748108473723e-03
4.4000000000000004e+00 +8.1524500584346207e+00 +0.0000000000000000e+00 +4.4035227724676700e+00 -3.1624281457962797e-02 -5.9299794997269617e-01 +5.8974578192229855e-03
4.5000000000000000e+00 +8.1524247770285001e+00 +0.0000000000000000e+00 +4.5036028333255800e+00 -3.1624244384584041e-02 -5.9299780543636227e-01 +5.8975396563500241e-03
4.5999999999999996e+00 +8.1523989275046898e+00 +0.0000000000000000e+00 +4.6036828940383696e+00 -3.1624208991735701e-02 -5.9299767544085036e-01 +5.8976205510100944e-03
4.7000000000000002e+00 +8.1523725098559208e+00 +0.0000000000000000e+00 +4.7037629546028104e+00 -3.1624174931451726e-02 -5.9299756118637492e-01 +5.8977007319886247e-03
4.7999999999999998e+00 +8.1523455240894709e+00 +0.0000000000000000e+00 +4.8038430150156701e+00 -3.1624141855714008e-02 -5.9299746387297270e-01 +5.8977804280726277e-03
4.9000000000000004e+00 +8.1523179701980606e+00 +0.0000000000000000e+00 +4.9039230752737302e+00 -3.1624109416461897e-02 -5.9299738470073537e-01 +5.8978598680533524e-03
5.0000000000000000e+00 +8.1522898481889605e+00 +0.0000000000000000e+00 +5.0040031353737602e+00 -3.1624077265576672e-02 -5.9299732486956935e-01 +5.8979392807240339e-03
5.0999999999999996e+00 +8.1522611580549000e+00 +0.0000000000000000e+00 +5.1040831953125396e+00 -3.1624045054891144e-02 -5.9299728557942954e-01 +5.8980188948825635e-03
5.2000000000000002e+00 +8.1522318997995207e+00 +0.0000000000000000e+00 +5.2041632550868497e+00 -3.1624012436175561e-02 -5.9299726803010799e-01 +5.8980989393295482e-03
5.2999999999999998e+00 +8.1522020734228100e+00 +0.0000000000000000e+00 +5.3042433146934496e+00 -3.1623979061141012e-02 -5.9299727342134900e-01 +5.8981796428697331e-03
5.4000000000000004e+00 +8.1521716789247893e+00 +0.0000000000000000e+00 +5.4043233741291203e+00 -3.1623944581434776e-02 -5.9299730295281583e-01 +5.8982612343119068e-03
5.5000000000000000e+00 +8.1521407163090807e+00 +0.0000000000000000e+00 +5.5044034333906504e+00 -3.1623908648635797e-02 -5.9299735782405805e-01 +5.8983439424688099e-03
5.5999999999999996e+00 +8.1521091855684098e+00 +0.0000000000000000e+00 +5.6044834924747899e+00 -3.1623870914257980e-02 -5.9299743923462600e-01 +5.8984279961585510e-03
5.7000000000000002e+00 +8.1520770867064094e+00 +0.0000000000000000e+00 +5.7045635513783299e+00 -3.1623831029737717e-02 -5.9299754838388885e-01 +5.8985136242029933e-03
5.7999999999999998e+00 +8.1520444197231008e+00 +0.0000000000000000e+00 +5.8046436100980499e+00 -3.1623788646437230e-02 -5.9299768647115159e-01 +5.8986010554291620e-03
5.9000000000000004e+00 +8.1520111846184609e+00 +0.0000000000000000e+00 +5.9047236686307096e+00 -3.1623743415639942e-02 -5.9299785469561994e-01 +5.8986905186691639e-03
5.9999999999999902e+00 +8.1519773813925003e+00 +0.0000000000000000e+00 +6.0048037269731003e+00 -3.1623694988562122e-02 -5.9299805425632413e-01 +5.8987822427528543e-03
6.0999999999999899e+00 +8.1519430100452208e+00 +0.0000000000000000e+00 +6.1048837851219799e+00 -3.1623643167715279e-02 -5.9299828558810774e-01 +5.8988763781210570e-03
6.1999999999999904e+00 +8.1519080705766100e+00 +0.0000000000000000e+00 +6.2049638430741396e+00 -3.1623588280062974e-02 -5.9299854647838202e-01 +5.8989728035976213e-03
6.2999999999999901e+00 +8.1518725629866804e+00 +0.0000000000000000e+00 +6.3050439008263499e+00 -3.1623530766099993e-02 -5.9299883414161325e-01 +5.8990713392198940e-03
6.3999999999999897e+00 +8.1518364872754301e+00 +0.0000000000000000e+00 +6.4051239583753699e+00 -3.1623471066343431e-02 -5.9299914579231461e-01 +5.8991718050254932e-03
6.4999999999999902e+00 +8.1517998434428591e+00 +0.0000000000000000e+00 +6.5052040157180002e+00 -3.1623409621334024e-02 -5.9299947864504798e-01 +5.8992740210522957e-03
6.5999999999999899e+00 +8.1517626314889604e+00 +0.0000000000000000e+00 +6.6052840728510001e+00 -3.1623346871637724e-02 -5.9299982991442568e-01 +5.8993778073384209e-03
6.6999999999999904e+00 +8.1517248514137499e+00 +0.0000000000000000e+00 +6.7053641297711399e+00 -3.1623283257847030e-02 -5.9300019681511484e-01 +5.8994829839222086e-03
6.7999999999999901e+00 +8.1516865032135701e+00 +0.0000000000000000e+00 +6.8054441864752100e+00 -3.1623219220584142e-02 -5.9300057656186833e-01 +5.8995893708425184e-03
6.8999999999999897e+00 +8.1516475868957095e+00 +0.0000000000000000e+00 +6.9055242429599701e+00 -3.1623155200496050e-02 -5.9300096636941002e-01 +5.8996967881374809e-03
6.9999999999999902e+00 +8.1516081024565192e+00 +0.0000000000000000e+00 +7.0056042992222096e+00 -3.1623091638265419e-02 -5.9300136345261434e-01 +5.8998050558463225e-03
7.0999999999999899e+00 +8.1515680498960101e+00 +0.0000000000000000e+00 +7.1056843552586999e+00 -3.1623028974605845e-02 -5.9300176502639024e-01 +5.8999139940081272e-03
7.1999999999999904e+00 +8.1515274292141804e+00 +0.0000000000000000e+00 +7.2057644110662000e+00 -3.1622967650264767e-02 -5.9300216830571573e-01 +5.9000234226621266e-03
7.2999999999999901e+00 +8.1514862404073902e+00 +0.0000000000000000e+00 +7.3058444666415099e+00 -3.1622908106026616e-02 -5.9300257050566696e-01 +5.9001331618479830e-03
7.3999999999999897e+00 +8.1514444834829192e+00 +0.0000000000000000e+00 +7.4059245219813796e+00 -3.1622850782707858e-02 -5.9300296884130488e-01 +5.9002430316045630e-03
7.4999999999999902e+00 +8.1514021584334806e+00 +0.0000000000000000e+00 +7.5060045770826100e+00 -3.1622796121169583e-02 -5.9300336052788527e-01 +5.9003528519720582e-03
7.5999999999999899e+00 +8.1513592652663593e+00 +0.0000000000000000e+00 +7.6060846319419504e+00 -3.1622744562306272e-02 -5.9300374278062229e-01 +5.9004624429895170e-03
7.6999999999999904e+00 +8.1513158039779192e+00 +0.0000000000000000e+00 +7.7061646865561997e+00 -3.1622696547058321e-02 -5.9300411281490073e-01 +5.9005716246969776e-03
7.7999999999999901e+00 +8.1512717745681602e+00 +0.0000000000000000e+00 +7.8062447409221098e+00 -3.1622652516407258e-02 -5.9300446784615957e-01 +5.9006802171342335e-03
7.8999999999999897e+00 +8.1512271770334301e+00 +0.0000000000000000e+00 +7.9063247950364799e+00 -3.1622612911380174e-02 -5.9300480508995324e-01 +5.9007880403414217e-03
7.9999999999999902e+00 +8.1511820113773901e+00 +0.0000000000000000e+00 +8.0064048488960609e+00 -3.1622578173032087e-02 -5.9300512176203635e-01 +5.9008949143667120e-03
8.0999999999999908e+00 +8.1511362776036496e+00 +0.0000000000000000e+00 +8.1064849024976393e+00 -3.1622548675348382e-02 -5.9300541585724120e-01 +5.9010006988008150e-03
8.1999999999999904e+00 +8.1510899757086008e+00 +0.0000000000000000e+00 +8.2065649558379903e+00 -3.1622524570600989e-02 -5.9300568794421138e-01 +5.9011053838770857e-03
8.2999999999999901e+00 +8.1510431056885899e+00 +0.0000000000000000e+00 +8.3066450089139003e+00 -3.1622505965330672e-02 -5.9300593912239885e-01 +5.9012089867661530e-03
8.3999999999999897e+00 +8.1509956675508892e+00 +0.0000000000000000e+00 +8.4067250617221205e+00 -3.1622492966070490e-02 -5.9300617049118509e-01 +5.9013115246309726e-03
8.4999999999999893e+00 +8.1509476612882299e+00 +0.0000000000000000e+00 +8.5068051142594392e+00 -3.1622485679356549e-02 -5.9300638315008858e-01 +5.9014130146287291e-03
8.5999999999999908e+00 +8.1508990869078808e+00 +0.0000000000000000e+00 +8.6068851665226305e+00 -3.1622484211715374e-02 -5.9300657819852964e-01 +5.9015134739081937e-03
8.6999999999999904e+00 +8.1508499444025801e+00 +0.0000000000000000e+00 +8.7069652185084596e+00 -3.1622488669676305e-02 -5.9300675673606573e-01 +5.9016129196119453e-03
8.7999999999999794e+00 +8.1508002337759500e+00 +0.0000000000000000e+00 +8.8070452702137203e+00 -3.1622499159760405e-02 -5.9300691986218623e-01 +5.9017113688740221e-03
8.8999999999999808e+00 +8.1507499550316407e+00 +0.0000000000000000e+00 +8.9071253216351796e+00 -3.1622515788484969e-02 -5.9300706867640041e-01 +5.9018088388206082e-03
8.9999999999999805e+00 +8.1506991081623692e+00 +0.0000000000000000e+00 +9.0072053727696098e+00 -3.1622538662368214e-02 -5.9300720427832743e-01 +5.9019053465707728e-03
9.0999999999999801e+00 +8.1506476931717806e+00 +0.0000000000000000e+00 +9.1072854236137797e+00 -3.1622567887919638e-02 -5.9300732776751819e-01 +5.9020009092343780e-03
9.1999999999999797e+00 +8.1505957100635005e+00 +0.0000000000000000e+00 +9.2073654741644795e+00 -3.1622603571644550e-02 -5.9300744024354535e-01 +5.9020955439128050e-03
9.2999999999999794e+00 +8.1505431588302599e+00 +0.0000000000000000e+00 +9.3074455244184708e+00 -3.1622645820048832e-02 -5.9300754280609191e-01 +5.9021892676996640e-03
9.3999999999999808e+00 +8.1504900394757005e+00 +0.0000000000000000e+00 +9.4075255743725297e+00 -3.1622694739629163e-02 -5.9300763655477318e-01 +5.9022820976787150e-03
9.4999999999999805e+00 +8.1504363520034495e+00 +0.0000000000000000e+00 +9.5076056240234408e+00 -3.1622750436877768e-02 -5.9300772258922829e-01 +5.9023740509246041e-03
9.5999999999999801e+00 +8.1503820964062506e+00 +0.0000000000000000e+00 +9.6076856733679694e+00 -3.1622813018286955e-02 -5.9300780200920622e-01 +5.9024651445035523e-03
9.6999999999999797e+00 +8.1503272726913600e+00 +0.0000000000000000e+00 +9.7077657224029004e+00 -3.1622882590337895e-02 -5.9300787591436199e-01 +5.9025553954709792e-03
9.7999999999999794e+00 +8.1502718808515109e+00 +0.0000000000000000e+00 +9.8078457711250007e+00 -3.1622959259513209e-02 -5.9300794540449109e-01 +5.9026448208737798e-03
9.8999999999999808e+00 +8.1502159208903304e+00 +0.0000000000000000e+00 +9.9079258195310498e+00 -3.1623043132285741e-02 -5.9300801157932415e-01 +5.9027334377479267e-03
9.9999999999999805e+00 +8.1501593928078400e+00 +0.0000000000000000e+00 +1.0008005867617801e+01 -3.1623134315007156e-02 -5.9300807553869261e-01 +5.9028212631200439e-03
1.0100000000000000e+01 +8.1501022966040200e+00 +0.0000000000000000e+00 +1.0108085915382100e+01 -3.1623232625205076e-02 -5.9300813849763467e-01 +5.9029083153503501e-03
1.0199999999999999e+01 +8.1500446322825209e+00 +0.0000000000000000e+00 +1.0208165962820599e+01 -3.1623336970255662e-02 -5.9300820203413862e-01 +5.9029946170292228e-03
1.0300000000000001e+01 +8.1499863998360507e+00 +0.0000000000000000e+00 +1.0308246009930199e+01 -3.1623446078686231e-02 -5.9300826779759552e-01 +5.9030801915840696e-03
1.0400000000000000e+01 +8.1499275992682705e+00 +0.0000000000000000e+00 +1.0408326056707599e+01 -3.1623558678992844e-02 -5.9300833743729953e-01 +5.9031650624464692e-03
1.0500000000000000e+01 +8.1498682305791608e+00 +0.0000000000000000e+00 +1.0508406103149600e+01 -3.1623673499646114e-02 -5.9300841260256676e-01 +5.9032492530535757e-03
1.0600000000000000e+01 +8.1498082937723701e+00 +0.0000000000000000e+00 +1.0608486149253000e+01 -3.1623789269087349e-02 -5.9300849494267482e-01 +5.9033327868476719e-03
1.0699999999999999e+01 +8.1497477888406102e+00 +0.0000000000000000e+00 +1.0708566195014500e+01 -3.1623904715734244e-02 -5.9300858610698104e-01 +5.9034156872775521e-03
1.0800000000000001e+01 +8.1496867157875403e+00 +0.0000000000000000e+00 +1.0808646240430900e+01 -3.1624018567970764e-02 -5.9300868774474402e-01 +5.9034979777968727e-03
1.0900000000000000e+01 +8.1496250746131391e+00 +0.0000000000000000e+00 +1.0908726285499000e+01 -3.1624129554152898e-02 -5.9300880150524315e-01 +5.9035796818655336e-03
1.1000000000000000e+01 +8.1495628653174208e+00 +0.0000000000000000e+00 +1.1008806330215601e+01 -3.1624236402606296e-02 -5.9300892903774549e-01 +5.9036608229495382e-03
1.1100000000000000e+01 +8.1495000879040198e+00 +0.0000000000000000e+00 +1.1108886374577500e+01 -3.1624337841624224e-02 -5.9300907199147868e-01 +5.9037414245208626e-03
1.1199999999999999e+01 +8.1494367423620098e+00 +0.0000000000000000e+00 +1.1208966418581401e+01 -3.1624432599474728e-02 -5.9300923201577704e-01 +5.9038215100591564e-03
1.1300000000000001e+01 +8.1493728287059604e+00 +0.0000000000000000e+00 +1.1309046462224000e+01 -3.1624519404382587e-02 -5.9300941075975511e-01 +5.9039011030485320e-03
1.1400000000000000e+01 +8.1493083469249505e+00 +0.0000000000000000e+00 +1.1409126505502300e+01 -3.1624596984550932e-02 -5.9300960987272189e-01 +5.9039802269820309e-03
1.1500000000000000e+01 +8.1492432970226201e+00 +0.0000000000000000e+00 +1.1509206548412800e+01 -3.1624664068143106e-02 -5.9300983100385518e-01 +5.9040589053584178e-03
1.1600000000000000e+01 +8.1491776789989707e+00 +0.0000000000000000e+00 +1.1609286590952600e+01 -3.1624719383289965e-02 -5.9301007580234888e-01 +5.9041371616838775e-03
1.1699999999999999e+01 +8.1491114928576298e+00 +0.0000000000000000e+00 +1.1709366633118099e+01 -3.1624761658086094e-02 -5.9301034591735258e-01 +5.9042150194715797e-03
1.1800000000000001e+01 +8.1490447385876905e+00 +0.0000000000000000e+00 +1.1809446674906400e+01 -3.1624789620597088e-02 -5.9301064299811934e-01 +5.9042925022433695e-03
