# multipoles
# s[mm] polynom_b[n=0][T/m^n] polynom_b[n=1][T/m^n] polynom_b[n=2][T/m^n] polynom_b[n=3][T/m^n] polynom_b[n=4][T/m^n] polynom_b[n=5][T/m^n] polynom_b[n=6][T/m^n] 
+0.0000000000000000e+00 -5.9300350586190509e-01 +8.1240968866479708e+00 +3.7848400942333749e-01 -4.1997562247681522e+01 -8.2021342803995194e+03 +4.3208452889367203e+04 +2.3179527154252462e+07 
+1.0000000000000001e-01 -5.9300355013557782e-01 +8.1241110651211894e+00 +3.8805803216668300e-01 -4.2689792808882437e+01 -8.3002790438970314e+03 +4.8056761108594168e+04 +2.3478714068629198e+07 
+2.0000000000000001e-01 -5.9300359361380750e-01 +8.1241188964344371e+00 +3.9754096581046866e-01 -4.3267560488209455e+01 -8.4023972817219656e+03 +5.2429083569301649e+04 +2.3810640019729260e+07 
+2.9999999999999999e-01 -5.9300363564306557e-01 +8.1241208543989050e+00 +4.0687893832829530e-01 -4.3736440353976484e+01 -8.5074507165348350e+03 +5.6333224704851571e+04 +2.4170136076817483e+07 
+4.0000000000000002e-01 -5.9300367556976241e-01 +8.1241174128270703e+00 +4.1601807643555833e-01 -4.4102007477432650e+01 -8.6144010552930158e+03 +5.9776988820755862e+04 +2.4552033255545899e+07 
+5.0000000000000000e-01 -5.9300371274034080e-01 +8.1241090455366720e+00 +4.2490450403073521e-01 -4.4369837034364025e+01 -8.7222099577676436e+03 +6.2768180642990657e+04 +2.4951162365006723e+07 
+5.9999999999999998e-01 -5.9300374650121990e-01 +8.1240962263474241e+00 +4.3348434643707984e-01 -4.4545504218565853e+01 -8.8298391169846291e+03 +6.5314604854813049e+04 +2.5362354393123779e+07 
+6.9999999999999996e-01 -5.9300377619874123e-01 +8.1240794290862777e+00 +4.4170372319237816e-01 -4.4634584398393777e+01 -8.9362501163248326e+03 +6.7424067020421688e+04 +2.5780439810544141e+07 
+8.0000000000000004e-01 -5.9300380117932383e-01 +8.1240591275797236e+00 +4.4950875596525425e-01 -4.4642652885169433e+01 -9.0404045822744138e+03 +6.9104372219614059e+04 +2.6200249309649438e+07 
+9.0000000000000002e-01 -5.9300382078933167e-01 +8.1240357956582177e+00 +4.5684556283658923e-01 -4.4575285069682934e+01 -9.1412640695534737e+03 +7.0363325882607416e+04 +2.6616613241178479e+07 
+1.0000000000000000e+00 -5.9300383437509885e-01 +8.1240099071636180e+00 +4.6366026161984347e-01 -4.4438056632497783e+01 -9.2377901262772739e+03 +7.1208734993329810e+04 +2.7024361931364093e+07 
+1.1000000000000001e+00 -5.9300384128300221e-01 +8.1239819359349301e+00 +4.6989896710242707e-01 -4.4236543132276076e+01 -9.3289442376921161e+03 +7.1648405711641535e+04 +2.7418325409385622e+07 
+1.2000000000000000e+00 -5.9300384085941094e-01 +8.1239523558167068e+00 +4.7550779523072467e-01 -4.3976320256202840e+01 -9.4136878988435401e+03 +7.1690144863024776e+04 +2.7793333734026417e+07 
+1.3000000000000000e+00 -5.9300383245062294e-01 +8.1239216406633421e+00 +4.8043285631794758e-01 -4.3662963933387559e+01 -9.4909824960033220e+03 +7.1341760557983973e+04 +2.8144216460837014e+07 
+1.3999999999999999e+00 -5.9300381540306757e-01 +8.1238902643279900e+00 +4.8462026338226322e-01 -4.3302050025584350e+01 -9.5597894469373205e+03 +7.0611060453734681e+04 +2.8465803263409868e+07 
+1.5000000000000000e+00 -5.9300378906301587e-01 +8.1238587006710290e+00 +4.8801612673079864e-01 -4.2899154564575639e+01 -9.6190701093688185e+03 +6.9505853099594795e+04 +2.8752923530969866e+07 
+1.6000000000000001e+00 -5.9300375277688133e-01 +8.1238274235598915e+00 +4.9056655410066446e-01 -4.2459853760121320e+01 -9.6677857756753110e+03 +6.8033948046674093e+04 +2.9000406321377441e+07 
+1.7000000000000000e+00 -5.9300370589104157e-01 +8.1237969068653140e+00 +4.9221765286599145e-01 -4.1989723865807584e+01 -9.7048977110252017e+03 +6.6203154987067581e+04 +2.9203080539771564e+07 
+1.8000000000000000e+00 -5.9300364775187242e-01 +8.1237676244644916e+00 +4.9291552830570795e-01 -4.1494341304221784e+01 -9.7293671235960865e+03 +6.4021284591963886e+04 +2.9355774801540010e+07 
+1.8999999999999999e+00 -5.9300357770574097e-01 +8.1237400502409027e+00 +4.9260628490706854e-01 -4.0979282639805653e+01 -9.7401551840074771e+03 +6.1496148299743254e+04 +2.9453317517553926e+07 
+2.0000000000000000e+00 -5.9300349509909345e-01 +8.1237146580828838e+00 +4.9123602626347834e-01 -4.0450124541229805e+01 -9.7362230197131230e+03 +5.8635558110396392e+04 +2.9490536857251979e+07 
+2.1000000000000001e+00 -5.9300339958643533e-01 +8.1236918427979532e+00 +4.8877299879256653e-01 -3.9912503828660192e+01 -9.7168614804111476e+03 +5.5454964190109880e+04 +2.9463687805549189e+07 
+2.2000000000000002e+00 -5.9300329206395308e-01 +8.1236716819102543e+00 +4.8527643382255320e-01 -3.9372289797818333e+01 -9.6827066013782078e+03 +5.2000243791091816e+04 +2.9374762992504187e+07 
+2.2999999999999998e+00 -5.9300317374066158e-01 +8.1236541733955665e+00 +4.8082891254286914e-01 -3.8835409807949326e+01 -9.6347372738046997e+03 +4.8324867756206877e+04 +2.9227197049228750e+07 
+2.3999999999999999e+00 -5.9300304582556584e-01 +8.1236393152171562e+00 +4.7551301834159310e-01 -3.8307790882902836e+01 -9.5739324264400148e+03 +4.4482305098247940e+04 +2.9024424763788916e+07 
+2.5000000000000000e+00 -5.9300290952766432e-01 +8.1236271053432372e+00 +4.6941133792013651e-01 -3.7795360217851602e+01 -9.5012710508298842e+03 +4.0526025947140952e+04 +2.8769881209051680e+07 
+2.6000000000000001e+00 -5.9300276605603874e-01 +8.1236175417280467e+00 +4.6260646188027682e-01 -3.7304044642217278e+01 -9.4177322173442626e+03 +3.6509498462998912e+04 +2.8467001830457978e+07 
+2.7000000000000002e+00 -5.9300261661973930e-01 +8.1236106223252413e+00 +4.5518098100659515e-01 -3.6839771021474597e+01 -9.3242950003088499e+03 +3.2486191210669749e+04 +2.8119222074648559e+07 
+2.7999999999999998e+00 -5.9300246242783405e-01 +8.1236063450844451e+00 +4.4721749318934334e-01 -3.6408466146913909e+01 -9.2219386139348153e+03 +2.8509572490680457e+04 +2.7729978044106781e+07 
+2.8999999999999999e+00 -5.9300230468946291e-01 +8.1236047079397427e+00 +4.3879859882102079e-01 -3.6016056430963133e+01 -9.1116423233448622e+03 +2.4633108659577087e+04 +2.7302706067587771e+07 
+3.0000000000000000e+00 -5.9300214461373413e-01 +8.1236057088242077e+00 +4.3000689943966575e-01 -3.5668468310060135e+01 -8.9943854231354653e+03 +2.0910266411374971e+04 +2.6840842607137583e+07 
+3.1000000000000001e+00 -5.9300198340980026e-01 +8.1236093456635139e+00 +4.2092500725525805e-01 -3.5371628087840605e+01 -8.8711474155731521e+03 +1.7394511956133676e+04 +2.6347825092852566e+07 
+3.2000000000000002e+00 -5.9300182228687603e-01 +8.1236156163639812e+00 +4.1163553660926194e-01 -3.5131461572855919e+01 -8.7429078537272089e+03 +1.4139308875742552e+04 +2.5827091191237740e+07 
+3.2999999999999998e+00 -5.9300166245415631e-01 +8.1236245188313365e+00 +4.0222110515680781e-01 -3.4953894654745866e+01 -8.6106463637803681e+03 +1.1198121551454340e+04 +2.5282078905517772e+07 
+3.3999999999999999e+00 -5.9300150512087202e-01 +8.1236360509557102e+00 +3.9276434024521950e-01 -3.4844852855069583e+01 -8.4753427625740114e+03 +8.6244125294127571e+03 +2.4716227122459821e+07 
+3.5000000000000000e+00 -5.9300135149633959e-01 +8.1236502106130573e+00 +3.8334787505583495e-01 -3.4810261375190152e+01 -8.3379769924685352e+03 +6.4716428160417336e+03 +2.4132975322472844e+07 
+3.6000000000000001e+00 -5.9300120278984370e-01 +8.1236669956714795e+00 +3.7405434511579605e-01 -3.4856045304219634e+01 -8.1995290528639634e+03 +4.7932731565315325e+03 +2.3535763242731597e+07 
+3.7000000000000002e+00 -5.9300106021071319e-01 +8.1236864039796863e+00 +3.6496639739553571e-01 -3.4988129275364180e+01 -8.0609791723029703e+03 +3.6427620126820229e+03 +2.2928031691982877e+07 
+3.7999999999999998e+00 -5.9300092496835088e-01 +8.1237084333765530e+00 +3.5616668380851607e-01 -3.5212437743791618e+01 -7.9233076910166410e+03 +3.0735671889594428e+03 +2.2313222005918611e+07 
+3.8999999999999999e+00 -5.9300079827213992e-01 +8.1237330816844260e+00 +3.4773786394514322e-01 -3.5534894819800314e+01 -7.7874951085894481e+03 +3.1391449338435932e+03 +2.1694776257580072e+07 
+4.0000000000000000e+00 -5.9300068133159545e-01 +8.1237603467034099e+00 +3.3976260607219150e-01 -3.5961424091096127e+01 -7.6545221077163160e+03 +3.8929488686018212e+03 +2.1076137379585776e+07 
+4.0999999999999996e+00 -5.9300057524188821e-01 +8.1237901555517560e+00 +3.3231062930252614e-01 -3.6494809851230762e+01 -7.5252628679300324e+03 +5.3670655632667540e+03 +2.0460601725238677e+07 
+4.2000000000000002e+00 -5.9300048061396782e-01 +8.1238221503037114e+00 +3.2539789794405211e-01 -3.7124972975159466e+01 -7.4001732712921266e+03 +7.5060278629119457e+03 +1.9851078369851269e+07 
+4.2999999999999998e+00 -5.9300039793080139e-01 +8.1238559010556273e+00 +3.1902644125608981e-01 -3.7838533171828864e+01 -7.2796068911868770e+03 +1.0231891538682199e+04 +1.9250432044036385e+07 
+4.4000000000000004e+00 -5.9300032767530197e-01 +8.1238909779116444e+00 +3.1319828607861361e-01 -3.8622110381087793e+01 -7.1639172679452467e+03 +1.3466713525290041e+04 +1.8661527369556978e+07 
+4.5000000000000000e+00 -5.9300027033029779e-01 +8.1239269509789338e+00 +3.0791544890718503e-01 -3.9462324642833707e+01 -7.0534577564998208e+03 +1.7132551166562123e+04 +1.8087228132275172e+07 
+4.5999999999999996e+00 -5.9300022637852734e-01 +8.1239633903694433e+00 +3.0317993919619124e-01 -4.0345796150516712e+01 -6.9485815908831491e+03 +2.1151462531692356e+04 +1.7530397595229868e+07 
+4.7000000000000002e+00 -5.9300019630274670e-01 +8.1239998662006325e+00 +2.9899376137527606e-01 -4.1259145264927682e+01 -6.8496419217657967e+03 +2.5445506449663855e+04 +1.6993898676544346e+07 
+4.7999999999999998e+00 -5.9300018058559612e-01 +8.1240359485951057e+00 +2.9535890967178208e-01 -4.2188992513548449e+01 -6.7569917191174281e+03 +2.9936742524903952e+04 +1.6480593489678141e+07 
+4.9000000000000004e+00 -5.9300017970961705e-01 +8.1240712076852297e+00 +2.9227737009872773e-01 -4.3121958698787864e+01 -6.6709838142091558e+03 +3.4547231685077219e+04 +1.5993343559801254e+07 
+5.0000000000000000e+00 -5.9300019415734229e-01 +8.1241052136055245e+00 +2.8975112040293666e-01 -4.4044664714539593e+01 -6.5919708925443565e+03 +3.9199035199625723e+04 +1.5535009771205358e+07 
+5.0999999999999996e+00 -5.9300022441117262e-01 +8.1241375365004220e+00 +2.8778212958065563e-01 -4.4943731722805119e+01 -6.5203054895023661e+03 +4.3814215561046090e+04 +1.5108452363522064e+07 
+5.2000000000000002e+00 -5.9300027095344909e-01 +8.1241677465234474e+00 +2.8637235252978160e-01 -4.5805781170810874e+01 -6.4563398901501878e+03 +4.8314836685180664e+04 +1.4716530459967384e+07 
+5.2999999999999998e+00 -5.9300033426643817e-01 +8.1241954138334460e+00 +2.8552373793136171e-01 -4.6617434662592053e+01 -6.4004262734560743e+03 +5.2622963102167974e+04 +1.4362102741889853e+07 
+5.4000000000000004e+00 -5.9300041483230126e-01 +8.1242201086030441e+00 +2.8523822274681732e-01 -4.7365314190479189e+01 -6.3529166180826705e+03 +5.6660661241677575e+04 +1.4048027027462866e+07 
+5.5000000000000000e+00 -5.9300051313304669e-01 +8.1242414010075645e+00 +2.8551772804787418e-01 -4.8036041830752843e+01 -6.3141626136564919e+03 +6.0349997704419533e+04 +1.3777159826810243e+07 
+5.5999999999999996e+00 -5.9300062965068889e-01 +8.1242588612390794e+00 +2.8636416889101080e-01 -4.8616240151719985e+01 -6.2845158547303263e+03 +6.3613041625499434e+04 +1.3552357283796398e+07 
+5.7000000000000002e+00 -5.9300076486704023e-01 +8.1242720594954534e+00 +2.8777944280784257e-01 -4.9092531874594734e+01 -6.2643276229244011e+03 +6.6371862624701171e+04 +1.3376474143626645e+07 
+5.7999999999999998e+00 -5.9300091926389786e-01 +8.1242805659866431e+00 +2.8976543844780611e-01 -4.9451540071065807e+01 -6.2539490494023485e+03 +6.8548531980673841e+04 +1.3252364521409312e+07 
+5.9000000000000004e+00 -5.9300109332289330e-01 +8.1242839509352329e+00 +2.9232402714668776e-01 -4.9679888176835178e+01 -6.2537309535267959e+03 +7.0065122701977016e+04 +1.3182881135921100e+07 
+5.9999999999999902e+00 -5.9300128752556525e-01 +8.1242817845749400e+00 +2.9545706955407186e-01 -4.9764199928881709e+01 -6.2640239740317047e+03 +7.0843709034025567e+04 +1.3170875940979458e+07 
+6.0999999999999899e+00 -5.9300150193342061e-01 +8.1242737800019000e+00 +2.9915689006589635e-01 -4.9695029577847642e+01 -6.2850250037218848e+03 +7.0827223836045989e+04 +1.3218268463062506e+07 
+6.1999999999999904e+00 -5.9300173495841990e-01 +8.1242602153979018e+00 +3.0337616913804349e-01 -4.9478903810673117e+01 -6.3162411172246211e+03 +7.0045007278957419e+04 +1.3322811072520116e+07 
+6.2999999999999901e+00 -5.9300198460788522e-01 +8.1242415090105453e+00 +3.0805734884332364e-01 -4.9126419665781789e+01 -6.3569882176187848e+03 +6.8548824855220679e+04 +1.3481100653579758e+07 
+6.3999999999999897e+00 -5.9300224888925357e-01 +8.1242180790939251e+00 +3.1314287280000896e-01 -4.8648174175009295e+01 -6.4065822111684929e+03 +6.6390441795372943e+04 +1.3689734037001530e+07 
+6.4999999999999902e+00 -5.9300252580991308e-01 +8.1241903439024039e+00 +3.1857519610548080e-01 -4.8054764128187777e+01 -6.4643392043335034e+03 +6.3621621577263686e+04 +1.3945308961027279e+07 
+6.5999999999999899e+00 -5.9300281337743432e-01 +8.1241587216990165e+00 +3.2429677616191521e-01 -4.7356786315856830e+01 -6.5295753202531059e+03 +6.0294127335030775e+04 +1.4244423173681820e+07 
+6.6999999999999904e+00 -5.9300310959942137e-01 +8.1241236307457410e+00 +3.3025007686880331e-01 -4.6564837239956205e+01 -6.6016067814780517e+03 +5.6459720189037827e+04 +1.4583674833433753e+07 
+6.7999999999999901e+00 -5.9300341248343436e-01 +8.1240854893155507e+00 +3.3637756975780797e-01 -4.5689513459020915e+01 -6.6797499318089731e+03 +5.2170161249305849e+04 +1.4959662616495458e+07 
+6.8999999999999897e+00 -5.9300372003725066e-01 +8.1240447156784654e+00 +3.4262173345463920e-01 -4.4741411159141407e+01 -6.7633212222310767e+03 +4.7477209074076214e+04 +1.5368985636616388e+07 
+6.9999999999999902e+00 -5.9300403026869353e-01 +8.1240017281129422e+00 +3.4892505399525414e-01 -4.3731126487717873e+01 -6.8516372162079069e+03 +4.2432621629230380e+04 +1.5808243469962535e+07 
+7.0999999999999899e+00 -5.9300434118556167e-01 +8.1239569449007014e+00 +3.5523002361572886e-01 -4.2669255384747281e+01 -6.9440145670903894e+03 +3.7088155282871492e+04 +1.6274036049116176e+07 
+7.1999999999999904e+00 -5.9300465079580533e-01 +8.1239107843293539e+00 +3.6147914455239621e-01 -4.1566393658715093e+01 -7.0397700880791836e+03 +3.1495565250038122e+04 +1.6762963987125160e+07 
+7.2999999999999901e+00 -5.9300495710746792e-01 +8.1238636646922693e+00 +3.6761492448410876e-01 -4.0433136960858945e+01 -7.1382206643643467e+03 +2.5706605413197845e+04 +1.7271628160317753e+07 
+7.3999999999999897e+00 -5.9300525812868632e-01 +8.1238160042820056e+00 +3.7357988468281306e-01 -3.9280080591839891e+01 -7.2386834070723871e+03 +1.9773027196034123e+04 +1.7796630434511278e+07 
+7.4999999999999902e+00 -5.9300555186760329e-01 +8.1237682214047222e+00 +3.7931654872588966e-01 -3.8117819911677451e+01 -7.3404754387757457e+03 +1.3746581941259225e+04 +1.8334572646826584e+07 
+7.5999999999999899e+00 -5.9300583633255533e-01 +8.1237207343646318e+00 +3.8476745476844537e-01 -3.6956949885926491e+01 -7.4429141235685956e+03 +7.6790182892111097e+03 +1.8882057689600814e+07 
+7.6999999999999904e+00 -5.9300610953190047e-01 +8.1236739614726741e+00 +3.8987514861980804e-01 -3.5808065300721537e+01 -7.5453169347338317e+03 +1.6220833394601443e+03 +1.9435688881631918e+07 
+7.7999999999999901e+00 -5.9300636947419427e-01 +8.1236283210464535e+00 +3.9458218739457945e-01 -3.4681760784747041e+01 -7.6470015246869543e+03 -4.3724771432807165e+03 +1.9992070300369609e+07 
+7.8999999999999897e+00 -5.9300661416794498e-01 +8.1235842314087083e+00 +3.9883113487654659e-01 -3.3588630731376952e+01 -7.7472856350212214e+03 -1.0252919252029269e+04 +2.0547806349520143e+07 
+7.9999999999999902e+00 -5.9300684162185568e-01 +8.1235421108881418e+00 +4.0256456909035926e-01 -3.2539269339513481e+01 -7.8454872392610378e+03 -1.5967500373449800e+04 +2.1099502460011907e+07 
+8.0999999999999908e+00 -5.9300705043315716e-01 +8.1235023039572578e+00 +4.0573756431458652e-01 -3.1542651322768279e+01 -7.9409322045810513e+03 -2.1470726235344802e+04 +2.1643620654553778e+07 
+8.1999999999999904e+00 -5.9300724154699336e-01 +8.1234648932555569e+00 +4.0835812197579824e-01 -3.0602073806349743e+01 -8.0330436405970522e+03 -2.6739729601737356e+04 +2.2176290087958325e+07 
+8.2999999999999901e+00 -5.9300741649380750e-01 +8.1234299041430713e+00 +4.1044807124038479e-01 -2.9719611646886410e+01 -8.1212821004424486e+03 -3.1756685901668887e+04 +2.2693605502825707e+07 
+8.3999999999999897e+00 -5.9300757680404237e-01 +8.1233973619608246e+00 +4.1202924572494992e-01 -2.8897339611165531e+01 -8.2051082240324376e+03 -3.6503769901227621e+04 +2.3191662036364902e+07 
+8.4999999999999893e+00 -5.9300772400821566e-01 +8.1233672920332101e+00 +4.1312348208933530e-01 -2.8137332427206335e+01 -8.2839827126833025e+03 -4.0963155365499682e+04 +2.3666555092971522e+07 
+8.5999999999999908e+00 -5.9300785963682834e-01 +8.1233397196646813e+00 +4.1375262361205412e-01 -2.7441664725724884e+01 -8.3573664009201093e+03 -4.5117015290414769e+04 +2.4114380696956318e+07 
+8.6999999999999904e+00 -5.9300798522047971e-01 +8.1233146701437775e+00 +4.1393851941392362e-01 -2.6812411176393237e+01 -8.4247202369165989e+03 -4.8947521064105094e+04 +2.4531235384123921e+07 
+8.7999999999999794e+00 -5.9300810228973411e-01 +8.1232921687430881e+00 +4.1370301920713515e-01 -2.6251646469705278e+01 -8.4855051849127503e+03 -5.2436842629405051e+04 +2.4913215742230192e+07 
+8.8999999999999808e+00 -5.9300821237519574e-01 +8.1232722407050968e+00 +4.1306798260232042e-01 -2.5761444981117425e+01 -8.5391824044919395e+03 -5.5567150213978479e+04 +2.5256419270603079e+07 
+8.9999999999999805e+00 -5.9300831700755630e-01 +8.1232549112633485e+00 +4.1205527412588006e-01 -2.5343881341239918e+01 -8.5852131538818612e+03 -5.8320611157849118e+04 +2.5556943912308231e+07 
+9.0999999999999801e+00 -5.9300841771748225e-01 +8.1232402056285284e+00 +4.1068676004482241e-01 -2.5001030077645854e+01 -8.6230587291938718e+03 -6.0679391860106480e+04 +2.5810887763161898e+07 
+9.1999999999999797e+00 -5.9300851603566018e-01 +8.1232281489856728e+00 +4.0898431426449661e-01 -2.4734965546812766e+01 -8.6521805796132739e+03 -6.2625658144825211e+04 +2.6014349628242891e+07 
+9.2999999999999794e+00 -5.9300861349288192e-01 +8.1232187665009423e+00 +4.0696981785003128e-01 -2.4547762149830497e+01 -8.6720402958959839e+03 -6.4141573957182271e+04 +2.6163428957539827e+07 
+9.3999999999999808e+00 -5.9300871161992907e-01 +8.1232120833200181e+00 +4.0466515561317279e-01 -2.4441494288877610e+01 -8.6820995468986639e+03 -6.5209301612779935e+04 +2.6254225548618749e+07 
+9.4999999999999805e+00 -5.9300881194762167e-01 +8.1232081245616481e+00 +4.0209221887220381e-01 -2.4418236203138562e+01 -8.6818201324166075e+03 -6.5811002684915569e+04 +2.6282839795920841e+07 
+9.5999999999999801e+00 -5.9300891600675032e-01 +8.1232069153233706e+00 +3.9927290414850125e-01 -2.4480062166603204e+01 -8.6706639599871123e+03 -6.5928836768602472e+04 +2.6245372586014420e+07 
+9.6999999999999797e+00 -5.9300902532831501e-01 +8.1232084806813756e+00 +3.9622911683050510e-01 -2.4629046455430597e+01 -8.6480931095588166e+03 -6.5544961764455846e+04 +2.6137925589219488e+07 
+9.7999999999999794e+00 -5.9300914144315386e-01 +8.1232128456837938e+00 +3.9298276307538388e-01 -2.4867263221546519e+01 -8.6135696894004741e+03 -6.4641534408557534e+04 +2.5956600598866619e+07 
+9.8999999999999808e+00 -5.9300926588228020e-01 +8.1232200353534907e+00 +3.8955576028533384e-01 -2.5196786558765698e+01 -8.5665560229855273e+03 -6.3200709941593763e+04 +2.5697500388922308e+07 
+9.9999999999999805e+00 -5.9300940017671266e-01 +8.1232300746924153e+00 +3.8597003328810692e-01 -2.5619690681701091e+01 -8.5065145971719776e+03 -6.1204641339768314e+04 +2.5356728487888757e+07 
+1.0100000000000000e+01 -5.9300954563584174e-01 +8.1232429768260808e+00 +3.8224982862685081e-01 -2.6137417006679367e+01 -8.4332497794937808e+03 -5.8640486763674882e+04 +2.4932542453110535e+07 
