# field on trajectory
# s[mm] rx[mm] ry[mm] rz[mm] bx[T] by[T] bz[T]
0.0000000000000000e+00 +7.9199999999999999e+00 +0.0000000000000000e+00 +0.0000000000000000e+00 -3.1344940508887482e-02 -5.9430646860917302e-01 +5.9346395275307893e-03
1.0000000000000001e-01 +7.9199997170129945e+00 +0.0000000000000000e+00 +9.9999999999466113e-02 -3.1344982658585700e-02 -5.9430664083000428e-01 +5.9345948545154025e-03
2.0000000000000001e-01 +7.9199988680518674e+00 +0.0000000000000000e+00 +1.9999999999572898e-01 -3.1345023137001667e-02 -5.9430682154451608e-01 +5.9345521469456597e-03
3.0000000000000004e-01 +7.9199974531164461e+00 +0.0000000000000000e+00 +2.9999999998558530e-01 -3.1345061990104929e-02 -5.9430701011924947e-01 +5.9345113548346217e-03
4.0000000000000002e-01 +7.9199954722065513e+00 +0.0000000000000000e+00 +3.9999999996583180e-01 -3.1345099263864716e-02 -5.9430720592073727e-01 +5.9344724281948152e-03
5.0000000000000000e-01 +7.9199929253219965e+00 +0.0000000000000000e+00 +4.9999999993326522e-01 -3.1345135004251588e-02 -5.9430740831550521e-01 +5.9344353170384433e-03
5.9999999999999998e-01 +7.9199898124625898e+00 +0.0000000000000000e+00 +5.9999999988468233e-01 -3.1345169257239326e-02 -5.9430761667007415e-01 +5.9343999713776293e-03
6.9999999999999996e-01 +7.9199861336281323e+00 +0.0000000000000000e+00 +6.9999999981687977e-01 -3.1345202068806630e-02 -5.9430783035096413e-01 +5.9343663412246526e-03
7.9999999999999993e-01 +7.9199818888184206e+00 +0.0000000000000000e+00 +7.9999999972665425e-01 -3.1345233484938853e-02 -5.9430804872469345e-01 +5.9343343765921588e-03
8.9999999999999991e-01 +7.9199770780332477e+00 +0.0000000000000000e+00 +8.9999999961080257e-01 -3.1345263551629934e-02 -5.9430827115778406e-01 +5.9343040274934178e-03
9.9999999999999989e-01 +7.9199717012724014e+00 +0.0000000000000000e+00 +9.9999999946612128e-01 -3.1345292314883942e-02 -5.9430849701676136e-01 +5.9342752439425373e-03
1.0999999999999999e+00 +7.9199657585356666e+00 +0.0000000000000000e+00 +1.0999999992894072e+00 -3.1345319820716984e-02 -5.9430872566815784e-01 +5.9342479759546983e-03
1.2000000000000000e+00 +7.9199592498228260e+00 +0.0000000000000000e+00 +1.1999999990774570e+00 -3.1345346115158990e-02 -5.9430895647851534e-01 +5.9342221735463902e-03
1.3000000000000000e+00 +7.9199521751336599e+00 +0.0000000000000000e+00 +1.2999999988270674e+00 -3.1345371244255356e-02 -5.9430918881438510e-01 +5.9341977867356371e-03
1.4000000000000001e+00 +7.9199445344679482e+00 +0.0000000000000000e+00 +1.3999999985350351e+00 -3.1345395254068868e-02 -5.9430942204233361e-01 +5.9341747655422324e-03
1.5000000000000002e+00 +7.9199363278254680e+00 +0.0000000000000000e+00 +1.4999999981981567e+00 -3.1345418190681304e-02 -5.9430965552894122e-01 +5.9341530599879705e-03
1.6000000000000003e+00 +7.9199275552059980e+00 +0.0000000000000000e+00 +1.5999999978132289e+00 -3.1345440100195354e-02 -5.9430988864080736e-01 +5.9341326200968722e-03
1.7000000000000004e+00 +7.9199182166093163e+00 +0.0000000000000000e+00 +1.6999999973770485e+00 -3.1345461028736282e-02 -5.9431012074454981e-01 +5.9341133958954228e-03
1.8000000000000005e+00 +7.9199083120352016e+00 +0.0000000000000000e+00 +1.7999999968864122e+00 -3.1345481022453756e-02 -5.9431035120680997e-01 +5.9340953374128038e-03
1.9000000000000006e+00 +7.9198978414834356e+00 +0.0000000000000000e+00 +1.8999999963381164e+00 -3.1345500127523594e-02 -5.9431057939425280e-01 +5.9340783946811243e-03
2.0000000000000004e+00 +7.9198868049538014e+00 +0.0000000000000000e+00 +1.9999999957289580e+00 -3.1345518390149513e-02 -5.9431080467356978e-01 +5.9340625177356386e-03
2.1000000000000005e+00 +7.9198752024460841e+00 +0.0000000000000000e+00 +2.0999999950557338e+00 -3.1345535926093987e-02 -5.9431102660393742e-01 +5.9340476808593234e-03
2.2000000000000006e+00 +7.9198630339600733e+00 +0.0000000000000000e+00 +2.1999999943152400e+00 -3.1345553129257714e-02 -5.9431124551437975e-01 +5.9340339553149392e-03
2.3000000000000007e+00 +7.9198502994955611e+00 +0.0000000000000000e+00 +2.2999999935042736e+00 -3.1345570463075491e-02 -5.9431146192638473e-01 +5.9340214366100895e-03
2.4000000000000008e+00 +7.9198369990523414e+00 +0.0000000000000000e+00 +2.3999999926196312e+00 -3.1345588390983337e-02 -5.9431167636144677e-01 +5.9340102202524629e-03
2.5000000000000009e+00 +7.9198231326302100e+00 +0.0000000000000000e+00 +2.4999999916581093e+00 -3.1345607376416902e-02 -5.9431188934106538e-01 +5.9340004017496683e-03
2.6000000000000010e+00 +7.9198087002289652e+00 +0.0000000000000000e+00 +2.5999999906165048e+00 -3.1345627882809701e-02 -5.9431210138674384e-01 +5.9339920766090523e-03
2.7000000000000011e+00 +7.9197937018484046e+00 +0.0000000000000000e+00 +2.6999999894916140e+00 -3.1345650373591695e-02 -5.9431231301998966e-01 +5.9339853403375439e-03
2.8000000000000012e+00 +7.9197781374883283e+00 +0.0000000000000000e+00 +2.7999999882802342e+00 -3.1345675312187571e-02 -5.9431252476231256e-01 +5.9339802884414792e-03
2.9000000000000012e+00 +7.9197620071485337e+00 +0.0000000000000000e+00 +2.8999999869791613e+00 -3.1345703162015126e-02 -5.9431273713522481e-01 +5.9339770164264392e-03
3.0000000000000013e+00 +7.9197453108288203e+00 +0.0000000000000000e+00 +2.9999999855851924e+00 -3.1345734386483720e-02 -5.9431295066024004e-01 +5.9339756197970715e-03
3.1000000000000014e+00 +7.9197280485289845e+00 +0.0000000000000000e+00 +3.0999999840951240e+00 -3.1345769448992568e-02 -5.9431316585887206e-01 +5.9339761940569290e-03
3.2000000000000015e+00 +7.9197102202488221e+00 +0.0000000000000000e+00 +3.1999999825057528e+00 -3.1345808812929248e-02 -5.9431338325263505e-01 +5.9339788347083011e-03
3.3000000000000016e+00 +7.9196918259881262e+00 +0.0000000000000000e+00 +3.2999999808138751e+00 -3.1345852941668015e-02 -5.9431360336304240e-01 +5.9339836372520448e-03
3.4000000000000017e+00 +7.9196728657466888e+00 +0.0000000000000000e+00 +3.3999999790162878e+00 -3.1345902298568151e-02 -5.9431382671160560e-01 +5.9339906971874138e-03
3.5000000000000018e+00 +7.9196533395242970e+00 +0.0000000000000000e+00 +3.4999999771097876e+00 -3.1345957346972472e-02 -5.9431405381983349e-01 +5.9340001100118877e-03
3.6000000000000019e+00 +7.9196332473207347e+00 +0.0000000000000000e+00 +3.5999999750911709e+00 -3.1346018550205600e-02 -5.9431428520923235e-01 +5.9340119712210119e-03
3.7000000000000020e+00 +7.9196125891357827e+00 +0.0000000000000000e+00 +3.6999999729572344e+00 -3.1346086371572428e-02 -5.9431452140130547e-01 +5.9340263763082270e-03
3.8000000000000020e+00 +7.9195913649692171e+00 +0.0000000000000000e+00 +3.7999999707047745e+00 -3.1346161274356459e-02 -5.9431476291754959e-01 +5.9340434207646869e-03
3.9000000000000021e+00 +7.9195695748208079e+00 +0.0000000000000000e+00 +3.8999999683305879e+00 -3.1346243721818233e-02 -5.9431501027945743e-01 +5.9340632000791120e-03
4.0000000000000018e+00 +7.9195472186903197e+00 +0.0000000000000000e+00 +3.9999999658314715e+00 -3.1346334177193687e-02 -5.9431526400851598e-01 +5.9340858097376029e-03
4.1000000000000014e+00 +7.9195242965775128e+00 +0.0000000000000000e+00 +4.0999999632042217e+00 -3.1346432866475010e-02 -5.9431552459073245e-01 +5.9341113295649679e-03
4.2000000000000011e+00 +7.9195008084821392e+00 +0.0000000000000000e+00 +4.1999999604456351e+00 -3.1346539066760500e-02 -5.9431579237021226e-01 +5.9341397767498985e-03
4.3000000000000007e+00 +7.9194767544039442e+00 +0.0000000000000000e+00 +4.2999999575525081e+00 -3.1346651817915128e-02 -5.9431606765556810e-01 +5.9341711528220755e-03
4.4000000000000004e+00 +7.9194521343426665e+00 +0.0000000000000000e+00 +4.3999999545216371e+00 -3.1346770159789150e-02 -5.9431635075538969e-01 +5.9342054593109544e-03
4.5000000000000000e+00 +7.9194269482980379e+00 +0.0000000000000000e+00 +4.4999999513498192e+00 -3.1346893132217259e-02 -5.9431664197824097e-01 +5.9342426977457476e-03
4.5999999999999996e+00 +7.9194011962697815e+00 +0.0000000000000000e+00 +4.5999999480338509e+00 -3.1347019775018033e-02 -5.9431694163266091e-01 +5.9342828696554413e-03
4.6999999999999993e+00 +7.9193748782576128e+00 +0.0000000000000000e+00 +4.6999999445705285e+00 -3.1347149127993100e-02 -5.9431725002716007e-01 +5.9343259765687840e-03
4.7999999999999989e+00 +7.9193479942612379e+00 +0.0000000000000000e+00 +4.7999999409566483e+00 -3.1347280230926533e-02 -5.9431756747021969e-01 +5.9343720200142978e-03
4.8999999999999986e+00 +7.9193205442803567e+00 +0.0000000000000000e+00 +4.8999999371890075e+00 -3.1347412123584030e-02 -5.9431789427028958e-01 +5.9344210015202644e-03
4.9999999999999982e+00 +7.9192925283146582e+00 +0.0000000000000000e+00 +4.9999999332644025e+00 -3.1347543845712374e-02 -5.9431823073578904e-01 +5.9344729226147473e-03
5.0999999999999979e+00 +7.9192639463638228e+00 +0.0000000000000000e+00 +5.0999999291796296e+00 -3.1347674437038515e-02 -5.9431857717510139e-01 +5.9345277848255693e-03
5.1999999999999975e+00 +7.9192347984275218e+00 +0.0000000000000000e+00 +5.1999999249314852e+00 -3.1347802937269069e-02 -5.9431893389657520e-01 +5.9345855896803280e-03
5.2999999999999972e+00 +7.9192050845054167e+00 +0.0000000000000000e+00 +5.2999999205167656e+00 -3.1347928386089477e-02 -5.9431930120852272e-01 +5.9346463387063919e-03
5.3999999999999968e+00 +7.9191748045971577e+00 +0.0000000000000000e+00 +5.3999999159322680e+00 -3.1348049823163353e-02 -5.9431967941921671e-01 +5.9347100334308962e-03
5.4999999999999964e+00 +7.9191439587023860e+00 +0.0000000000000000e+00 +5.4999999111747879e+00 -3.1348166288131731e-02 -5.9432006883689048e-01 +5.9347766753807480e-03
5.5999999999999961e+00 +7.9191125468207320e+00 +0.0000000000000000e+00 +5.5999999062411225e+00 -3.1348276820612489e-02 -5.9432046976973552e-01 +5.9348462660826339e-03
5.6999999999999957e+00 +7.9190805689518147e+00 +0.0000000000000000e+00 +5.6999999011280682e+00 -3.1348380460199450e-02 -5.9432088252590032e-01 +5.9349188070630023e-03
5.7999999999999954e+00 +7.9190480250952415e+00 +0.0000000000000000e+00 +5.7999998958324213e+00 -3.1348476246461851e-02 -5.9432130741348854e-01 +5.9349942998480733e-03
5.8999999999999950e+00 +7.9190149152506093e+00 +0.0000000000000000e+00 +5.8999998903509789e+00 -3.1348563218943561e-02 -5.9432174474055799e-01 +5.9350727459638450e-03
5.9999999999999947e+00 +7.9189812394175032e+00 +0.0000000000000000e+00 +5.9999998846805367e+00 -3.1348640417162357e-02 -5.9432219481511839e-01 +5.9351541469360855e-03
6.0999999999999943e+00 +7.9189469975954951e+00 +0.0000000000000000e+00 +6.0999998788178909e+00 -3.1348707136933662e-02 -5.9432265769682480e-01 +5.9352384597703266e-03
6.1999999999999940e+00 +7.9189121897841446e+00 +0.0000000000000000e+00 +6.1999998727598387e+00 -3.1348763699359156e-02 -5.9432313245207891e-01 +5.9353254633915239e-03
6.2999999999999936e+00 +7.9188768159830021e+00 +0.0000000000000000e+00 +6.2999998665031756e+00 -3.1348810681874034e-02 -5.9432361789898935e-01 +5.9354148922048664e-03
6.3999999999999932e+00 +7.9188408761916058e+00 +0.0000000000000000e+00 +6.3999998600446988e+00 -3.1348848661924777e-02 -5.9432411285568620e-01 +5.9355064806161798e-03
6.4999999999999929e+00 +7.9188043704094859e+00 +0.0000000000000000e+00 +6.4999998533812047e+00 -3.1348878216969973e-02 -5.9432461614032273e-01 +5.9355999630319664e-03
6.5999999999999925e+00 +7.9187672986361637e+00 +0.0000000000000000e+00 +6.5999998465094887e+00 -3.1348899924481151e-02 -5.9432512657107606e-01 +5.9356950738594424e-03
6.6999999999999922e+00 +7.9187296608711550e+00 +0.0000000000000000e+00 +6.6999998394263480e+00 -3.1348914361943647e-02 -5.9432564296614943e-01 +5.9357915475065672e-03
6.7999999999999918e+00 +7.9186914571139688e+00 +0.0000000000000000e+00 +6.7999998321285791e+00 -3.1348922106857399e-02 -5.9432616414377282e-01 +5.9358891183820817e-03
6.8999999999999915e+00 +7.9186526873641103e+00 +0.0000000000000000e+00 +6.8999998246129781e+00 -3.1348923736737797e-02 -5.9432668892220453e-01 +5.9359875208955457e-03
6.9999999999999911e+00 +7.9186133516210813e+00 +0.0000000000000000e+00 +6.9999998168763407e+00 -3.1348919829116521e-02 -5.9432721611973227e-01 +5.9360864894573732e-03
7.0999999999999908e+00 +7.9185734498843816e+00 +0.0000000000000000e+00 +7.0999998089154639e+00 -3.1348910961542402e-02 -5.9432774455467563e-01 +5.9361857584788666e-03
7.1999999999999904e+00 +7.9185329821535086e+00 +0.0000000000000000e+00 +7.1999998007271442e+00 -3.1348897711582162e-02 -5.9432827304538560e-01 +5.9362850623722492e-03
7.2999999999999901e+00 +7.9184919484279606e+00 +0.0000000000000000e+00 +7.2999997923081770e+00 -3.1348880656821385e-02 -5.9432880041024805e-01 +5.9363841355507159e-03
7.3999999999999897e+00 +7.9184503487072364e+00 +0.0000000000000000e+00 +7.3999997836553595e+00 -3.1348860374865228e-02 -5.9432932546768302e-01 +5.9364827124284477e-03
7.4999999999999893e+00 +7.9184081829908379e+00 +0.0000000000000000e+00 +7.4999997747654872e+00 -3.1348837443339307e-02 -5.9432984703614733e-01 +5.9365805274206639e-03
7.5999999999999890e+00 +7.9183654512782695e+00 +0.0000000000000000e+00 +7.5999997656353573e+00 -3.1348812439890558e-02 -5.9433036393413574e-01 +5.9366773149436558e-03
7.6999999999999886e+00 +7.9183221535690409e+00 +0.0000000000000000e+00 +7.6999997562617652e+00 -3.1348785942188005e-02 -5.9433087498018256e-01 +5.9367728094148224e-03
7.7999999999999883e+00 +7.9182782898626662e+00 +0.0000000000000000e+00 +7.7999997466415074e+00 -3.1348758527923640e-02 -5.9433137899286259e-01 +5.9368667452527057e-03
7.8999999999999879e+00 +7.9182338601586677e+00 +0.0000000000000000e+00 +7.8999997367713801e+00 -3.1348730774813191e-02 -5.9433187479079141e-01 +5.9369588568770242e-03
7.9999999999999876e+00 +7.9181888644565745e+00 +0.0000000000000000e+00 +7.9999997266481797e+00 -3.1348703260597091e-02 -5.9433236119262978e-01 +5.9370488787087302e-03
8.0999999999999872e+00 +7.9181433027559249e+00 +0.0000000000000000e+00 +8.0999997162687034e+00 -3.1348676493220831e-02 -5.9433283738518139e-01 +5.9371366107879055e-03
8.1999999999999869e+00 +7.9180971750562659e+00 +0.0000000000000000e+00 +8.1999997056297467e+00 -3.1348650701368379e-02 -5.9433330402770435e-01 +5.9372221156284060e-03
8.2999999999999865e+00 +7.9180504813571559e+00 +0.0000000000000000e+00 +8.2999996947281041e+00 -3.1348626043916715e-02 -5.9433376214759925e-01 +5.9373055213608776e-03
8.3999999999999861e+00 +7.9180032216581591e+00 +0.0000000000000000e+00 +8.3999996835605746e+00 -3.1348602679756622e-02 -5.9433421277230525e-01 +5.9373869561134083e-03
8.4999999999999858e+00 +7.9179553959588480e+00 +0.0000000000000000e+00 +8.4999996721239537e+00 -3.1348580767793122e-02 -5.9433465692930032e-01 +5.9374665480114467e-03
8.5999999999999854e+00 +7.9179070042588009e+00 +0.0000000000000000e+00 +8.5999996604150368e+00 -3.1348560466945848e-02 -5.9433509564610243e-01 +5.9375444251777154e-03
8.6999999999999851e+00 +7.9178580465576021e+00 +0.0000000000000000e+00 +8.6999996484306195e+00 -3.1348541936149533e-02 -5.9433552995027084e-01 +5.9376207157321396e-03
8.7999999999999847e+00 +7.9178085228548394e+00 +0.0000000000000000e+00 +8.7999996361674988e+00 -3.1348525334354366e-02 -5.9433596086940643e-01 +5.9376955477917492e-03
8.8999999999999844e+00 +7.9177584331501034e+00 +0.0000000000000000e+00 +8.8999996236224721e+00 -3.1348510820526476e-02 -5.9433638943115397e-01 +5.9377690494706245e-03
8.9999999999999840e+00 +7.9177077774429874e+00 +0.0000000000000000e+00 +8.9999996107923348e+00 -3.1348498553648303e-02 -5.9433681666320182e-01 +5.9378413488797802e-03
9.0999999999999837e+00 +7.9176565557330862e+00 +0.0000000000000000e+00 +9.0999995976738823e+00 -3.1348488692719036e-02 -5.9433724359328399e-01 +5.9379125741271148e-03
9.1999999999999833e+00 +7.9176047680199950e+00 +0.0000000000000000e+00 +9.1999995842639120e+00 -3.1348481396755078e-02 -5.9433767124918102e-01 +5.9379828533173140e-03
9.2999999999999829e+00 +7.9175524143033087e+00 +0.0000000000000000e+00 +9.2999995705592191e+00 -3.1348476824790410e-02 -5.9433810065872084e-01 +5.9380523145517658e-03
9.3999999999999826e+00 +7.9174994945826187e+00 +0.0000000000000000e+00 +9.3999995565566010e+00 -3.1348475135877032e-02 -5.9433853284977922e-01 +5.9381210859284876e-03
9.4999999999999822e+00 +7.9174460088575165e+00 +0.0000000000000000e+00 +9.4999995422528531e+00 -3.1348476489085432e-02 -5.9433896885028259e-01 +5.9381892955420396e-03
9.5999999999999819e+00 +7.9173919571275873e+00 +0.0000000000000000e+00 +9.5999995276447709e+00 -3.1348481043504947e-02 -5.9433940968820709e-01 +5.9382570714834456e-03
9.6999999999999815e+00 +7.9173373393924136e+00 +0.0000000000000000e+00 +9.6999995127291516e+00 -3.1348488958244200e-02 -5.9433985639158105e-01 +5.9383245418401075e-03
9.7999999999999812e+00 +7.9172821556515709e+00 +0.0000000000000000e+00 +9.7999994975027906e+00 -3.1348500392431589e-02 -5.9434030998848542e-01 +5.9383918346957226e-03
9.8999999999999808e+00 +7.9172264059046293e+00 +0.0000000000000000e+00 +9.8999994819624852e+00 -3.1348515505215606e-02 -5.9434077150705467e-01 +5.9384590781302038e-03
9.9999999999999805e+00 +7.9171700901511510e+00 +0.0000000000000000e+00 +9.9999994661050309e+00 -3.1348534455765360e-02 -5.9434124197547866e-01 +5.9385264002195983e-03
1.0099999999999980e+01 +7.9171132083906901e+00 +0.0000000000000000e+00 +1.0099999449927223e+01 -3.1348557352867699e-02 -5.9434172228467796e-01 +5.9385939300621374e-03
1.0199999999999980e+01 +7.9170557606227909e+00 +0.0000000000000000e+00 +1.0199999433425859e+01 -3.1348584103703919e-02 -5.9434221277630594e-01 +5.9386618008586325e-03
1.0299999999999979e+01 +7.9169977468469881e+00 +0.0000000000000000e+00 +1.0299999416597734e+01 -3.1348614565041850e-02 -5.9434271365468905e-01 +5.9387301468374933e-03
1.0399999999999979e+01 +7.9169391670628055e+00 +0.0000000000000000e+00 +1.0399999399439643e+01 -3.1348648593637736e-02 -5.9434322512415139e-01 +5.9387991022291399e-03
1.0499999999999979e+01 +7.9168800212697592e+00 +0.0000000000000000e+00 +1.0499999381948385e+01 -3.1348686046235780e-02 -5.9434374738901452e-01 +5.9388688012660387e-03
1.0599999999999978e+01 +7.9168203094673535e+00 +0.0000000000000000e+00 +1.0599999364120753e+01 -3.1348726779567765e-02 -5.9434428065359612e-01 +5.9389393781827966e-03
1.0699999999999978e+01 +7.9167600316550821e+00 +0.0000000000000000e+00 +1.0699999345953545e+01 -3.1348770650352735e-02 -5.9434482512221076e-01 +5.9390109672162062e-03
1.0799999999999978e+01 +7.9166991878324282e+00 +0.0000000000000000e+00 +1.0799999327443556e+01 -3.1348817515296508e-02 -5.9434538099916845e-01 +5.9390837026053198e-03
1.0899999999999977e+01 +7.9166377779988641e+00 +0.0000000000000000e+00 +1.0899999308587583e+01 -3.1348867231091336e-02 -5.9434594848877464e-01 +5.9391577185915131e-03
1.0999999999999977e+01 +7.9165758021538526e+00 +0.0000000000000000e+00 +1.0999999289382421e+01 -3.1348919654415552e-02 -5.9434652779532970e-01 +5.9392331494185456e-03
1.1099999999999977e+01 +7.9165132602968429e+00 +0.0000000000000000e+00 +1.1099999269824867e+01 -3.1348974641933126e-02 -5.9434711912312876e-01 +5.9393101293326303e-03
1.1199999999999976e+01 +7.9164501524272746e+00 +0.0000000000000000e+00 +1.1199999249911716e+01 -3.1349032050293303e-02 -5.9434772267646108e-01 +5.9393887925824956e-03
1.1299999999999976e+01 +7.9163864785445739e+00 +0.0000000000000000e+00 +1.1299999229639765e+01 -3.1349091736130236e-02 -5.9434833865960923e-01 +5.9394692734194557e-03
1.1399999999999975e+01 +7.9163222386481573e+00 +0.0000000000000000e+00 +1.1399999209005808e+01 -3.1349153556062562e-02 -5.9434896727684960e-01 +5.9395517060974665e-03
1.1499999999999975e+01 +7.9162574327374271e+00 +0.0000000000000000e+00 +1.1499999188006642e+01 -3.1349217366693029e-02 -5.9434960873245080e-01 +5.9396362248731946e-03
1.1599999999999975e+01 +7.9161920608117757e+00 +0.0000000000000000e+00 +1.1599999166639064e+01 -3.1349283024608168e-02 -5.9435026323067541e-01 +5.9397229640060899e-03
1.1699999999999974e+01 +7.9161261228705806e+00 +0.0000000000000000e+00 +1.1699999144899868e+01 -3.1349350386377782e-02 -5.9435093097577585e-01 +5.9398120577584292e-03
1.1799999999999974e+01 +7.9160596189132093e+00 +0.0000000000000000e+00 +1.1799999122785851e+01 -3.1349419308554671e-02 -5.9435161217199739e-01 +5.9399036403954006e-03
