# trajectory
# s[mm] rx[mm] ry[mm] rz[mm] px[rad] py[rad] pz[rad]
0.0000000000000000e+00 +7.9199999999999999e+00 +0.0000000000000000e+00 +0.0000000000000000e+00 +0.0000000000000000e+00 +0.0000000000000000e+00 +1.0000000000000000e+00
-1.0000000000000001e-01 +7.9199997167567195e+00 +0.0000000000000000e+00 -9.9999999999465142e-02 +5.6648656251203726e-06 +0.0000000000000000e+00 +9.9999999998395461e-01
-2.0000000000000001e-01 +7.9199988670268704e+00 +0.0000000000000000e+00 -1.9999999999572121e-01 +1.1329731390435018e-05 +0.0000000000000000e+00 +9.9999999993581856e-01
-3.0000000000000004e-01 +7.9199974508104365e+00 +0.0000000000000000e+00 -2.9999999998555915e-01 +1.6994597317457561e-05 +0.0000000000000000e+00 +9.9999999985559185e-01
-4.0000000000000002e-01 +7.9199954681074010e+00 +0.0000000000000000e+00 -3.9999999996576990e-01 +2.2659463433504674e-05 +0.0000000000000000e+00 +9.9999999974327436e-01
-5.0000000000000000e-01 +7.9199929189177425e+00 +0.0000000000000000e+00 -4.9999999993314437e-01 +2.8324329771696060e-05 +0.0000000000000000e+00 +9.9999999959886621e-01
-5.9999999999999998e-01 +7.9199898032414380e+00 +0.0000000000000000e+00 -5.9999999988447350e-01 +3.3989196370954439e-05 +0.0000000000000000e+00 +9.9999999942236728e-01
-6.9999999999999996e-01 +7.9199861210784581e+00 +0.0000000000000000e+00 -6.9999999981654815e-01 +3.9654063276005553e-05 +0.0000000000000000e+00 +9.9999999921377769e-01
-7.9999999999999993e-01 +7.9199818724287709e+00 +0.0000000000000000e+00 -7.9999999972615932e-01 +4.5318930537378179e-05 +0.0000000000000000e+00 +9.9999999897309733e-01
-8.9999999999999991e-01 +7.9199770572923374e+00 +0.0000000000000000e+00 -8.9999999961009791e-01 +5.0983798211404129e-05 +0.0000000000000000e+00 +9.9999999870032619e-01
-9.9999999999999989e-01 +7.9199716756691130e+00 +0.0000000000000000e+00 -9.9999999946515483e-01 +5.6648666360218303e-05 +0.0000000000000000e+00 +9.9999999839546427e-01
-1.0999999999999999e+00 +7.9199657275590472e+00 +0.0000000000000000e+00 -1.0999999992881211e+00 +6.2313535051758729e-05 +0.0000000000000000e+00 +9.9999999805851170e-01
-1.2000000000000000e+00 +7.9199592129620822e+00 +0.0000000000000000e+00 -1.1999999990757875e+00 +6.7978404359766596e-05 +0.0000000000000000e+00 +9.9999999768946835e-01
-1.3000000000000000e+00 +7.9199521318781523e+00 +0.0000000000000000e+00 -1.2999999988249451e+00 +7.3643274363786328e-05 +0.0000000000000000e+00 +9.9999999728833411e-01
-1.4000000000000001e+00 +7.9199444843071838e+00 +0.0000000000000000e+00 -1.3999999985323848e+00 +7.9308145149165684e-05 +0.0000000000000000e+00 +9.9999999685510910e-01
-1.5000000000000002e+00 +7.9199362702490941e+00 +0.0000000000000000e+00 -1.4999999981948973e+00 +8.4973016807055775e-05 +0.0000000000000000e+00 +9.9999999638979320e-01
-1.6000000000000003e+00 +7.9199274897037908e+00 +0.0000000000000000e+00 -1.5999999978092736e+00 +9.0637889434411233e-05 +0.0000000000000000e+00 +9.9999999589238653e-01
-1.7000000000000004e+00 +7.9199181426711718e+00 +0.0000000000000000e+00 -1.6999999973723048e+00 +9.6302763133990259e-05 +0.0000000000000000e+00 +9.9999999536288897e-01
-1.8000000000000005e+00 +7.9199082291511242e+00 +0.0000000000000000e+00 -1.7999999968807816e+00 +1.0196763801435476e-04 +0.0000000000000000e+00 +9.9999999480130042e-01
-1.9000000000000006e+00 +7.9198977491435256e+00 +0.0000000000000000e+00 -1.8999999963314951e+00 +1.0763251418987048e-04 +0.0000000000000000e+00 +9.9999999420762098e-01
-2.0000000000000004e+00 +7.9198867026482391e+00 +0.0000000000000000e+00 -1.9999999957212360e+00 +1.1329739178070712e-04 +0.0000000000000000e+00 +9.9999999358185054e-01
-2.1000000000000005e+00 +7.9198750896651182e+00 +0.0000000000000000e+00 -2.0999999950467956e+00 +1.1896227091201549e-04 +0.0000000000000000e+00 +9.9999999292398911e-01
-2.2000000000000006e+00 +7.9198629101940021e+00 +0.0000000000000000e+00 -2.1999999943049642e+00 +1.2462715170487467e-04 +0.0000000000000000e+00 +9.9999999223403657e-01
-2.3000000000000007e+00 +7.9198501642347185e+00 +0.0000000000000000e+00 -2.2999999934925333e+00 +1.3029203426723901e-04 +0.0000000000000000e+00 +9.9999999151199293e-01
-2.4000000000000008e+00 +7.9198368517870863e+00 +0.0000000000000000e+00 -2.3999999926062934e+00 +1.3595691869311522e-04 +0.0000000000000000e+00 +9.9999999075785817e-01
-2.5000000000000009e+00 +7.9198229728509153e+00 +0.0000000000000000e+00 -2.4999999916430351e+00 +1.4162180506256238e-04 +0.0000000000000000e+00 +9.9999998997163220e-01
-2.6000000000000010e+00 +7.9198085274260075e+00 +0.0000000000000000e+00 -2.5999999905995499e+00 +1.4728669344169201e-04 +0.0000000000000000e+00 +9.9999998915331501e-01
-2.7000000000000011e+00 +7.9197935155121586e+00 +0.0000000000000000e+00 -2.6999999894726283e+00 +1.5295158388266801e-04 +0.0000000000000000e+00 +9.9999998830290648e-01
-2.8000000000000012e+00 +7.9197779371091608e+00 +0.0000000000000000e+00 -2.7999999882590614e+00 +1.5861647642370668e-04 +0.0000000000000000e+00 +9.9999998742040663e-01
-2.9000000000000012e+00 +7.9197617922168027e+00 +0.0000000000000000e+00 -2.8999999869556401e+00 +1.6428137108907679e-04 +0.0000000000000000e+00 +9.9999998650581545e-01
-3.0000000000000013e+00 +7.9197450808348719e+00 +0.0000000000000000e+00 -2.9999999855591550e+00 +1.6994626788909952e-04 +0.0000000000000000e+00 +9.9999998555913294e-01
-3.1000000000000014e+00 +7.9197278029631546e+00 +0.0000000000000000e+00 -3.0999999840663972e+00 +1.7561116682014851e-04 +0.0000000000000000e+00 +9.9999998458035899e-01
-3.2000000000000015e+00 +7.9197099586014374e+00 +0.0000000000000000e+00 -3.1999999824741572e+00 +1.8127606786464979e-04 +0.0000000000000000e+00 +9.9999998356949349e-01
-3.3000000000000016e+00 +7.9196915477495118e+00 +0.0000000000000000e+00 -3.2999999807792260e+00 +1.8694097099108183e-04 +0.0000000000000000e+00 +9.9999998252653655e-01
-3.4000000000000017e+00 +7.9196725704071715e+00 +0.0000000000000000e+00 -3.3999999789783946e+00 +1.9260587615397548e-04 +0.0000000000000000e+00 +9.9999998145148805e-01
-3.5000000000000018e+00 +7.9196530265742151e+00 +0.0000000000000000e+00 -3.4999999770684540e+00 +1.9827078329391393e-04 +0.0000000000000000e+00 +9.9999998034434801e-01
-3.6000000000000019e+00 +7.9196329162504489e+00 +0.0000000000000000e+00 -3.5999999750461948e+00 +2.0393569233753277e-04 +0.0000000000000000e+00 +9.9999997920511641e-01
-3.7000000000000020e+00 +7.9196122394356872e+00 +0.0000000000000000e+00 -3.6999999729084077e+00 +2.0960060319751987e-04 +0.0000000000000000e+00 +9.9999997803379326e-01
-3.8000000000000020e+00 +7.9195909961297524e+00 +0.0000000000000000e+00 -3.7999999706518839e+00 +2.1526551577261539e-04 +0.0000000000000000e+00 +9.9999997683037856e-01
-3.9000000000000021e+00 +7.9195691863324793e+00 +0.0000000000000000e+00 -3.8999999682734137e+00 +2.2093042994761168e-04 +0.0000000000000000e+00 +9.9999997559487219e-01
-4.0000000000000018e+00 +7.9195468100437143e+00 +0.0000000000000000e+00 -3.9999999657697884e+00 +2.2659534559335331e-04 +0.0000000000000000e+00 +9.9999997432727428e-01
-4.1000000000000014e+00 +7.9195238672633170e+00 +0.0000000000000000e+00 -4.0999999631377992e+00 +2.3226026256798171e-04 +0.0000000000000000e+00 +9.9999997302758481e-01
-4.2000000000000011e+00 +7.9195003579911614e+00 +0.0000000000000000e+00 -4.1999999603742362e+00 +2.3792518073062691e-04 +0.0000000000000000e+00 +9.9999997169580379e-01
-4.3000000000000007e+00 +7.9194762822271354e+00 +0.0000000000000000e+00 -4.2999999574758903e+00 +2.4359009995509936e-04 +0.0000000000000000e+00 +9.9999997033193122e-01
-4.4000000000000004e+00 +7.9194516399711388e+00 +0.0000000000000000e+00 -4.3999999544395525e+00 +2.4925502013113437e-04 +0.0000000000000000e+00 +9.9999996893596710e-01
-4.5000000000000000e+00 +7.9194264312230809e+00 +0.0000000000000000e+00 -4.4999999512620139e+00 +2.5491994116439185e-04 +0.0000000000000000e+00 +9.9999996750791142e-01
-4.5999999999999996e+00 +7.9194006559828800e+00 +0.0000000000000000e+00 -4.5999999479400655e+00 +2.6058486297645615e-04 +0.0000000000000000e+00 +9.9999996604776420e-01
-4.6999999999999993e+00 +7.9193743142504616e+00 +0.0000000000000000e+00 -4.6999999444704974e+00 +2.6624978550483569e-04 +0.0000000000000000e+00 +9.9999996455552542e-01
-4.7999999999999989e+00 +7.9193474060257563e+00 +0.0000000000000000e+00 -4.7999999408501006e+00 +2.7191470870296274e-04 +0.0000000000000000e+00 +9.9999996303119509e-01
-4.8999999999999986e+00 +7.9193199313086993e+00 +0.0000000000000000e+00 -4.8999999370756662e+00 +2.7757963254019315e-04 +0.0000000000000000e+00 +9.9999996147477321e-01
-4.9999999999999982e+00 +7.9192918900992275e+00 +0.0000000000000000e+00 -4.9999999331439851e+00 +2.8324455700180599e-04 +0.0000000000000000e+00 +9.9999995988625978e-01
-5.0999999999999979e+00 +7.9192632823972779e+00 +0.0000000000000000e+00 -5.0999999290518483e+00 +2.8890948208900333e-04 +0.0000000000000000e+00 +9.9999995826565480e-01
-5.1999999999999975e+00 +7.9192341082027884e+00 +0.0000000000000000e+00 -5.1999999247960460e+00 +2.9457440781890969e-04 +0.0000000000000000e+00 +9.9999995661295826e-01
-5.2999999999999972e+00 +7.9192043675156922e+00 +0.0000000000000000e+00 -5.2999999203733701e+00 +3.0023933422457201e-04 +0.0000000000000000e+00 +9.9999995492817018e-01
-5.3999999999999968e+00 +7.9191740603359193e+00 +0.0000000000000000e+00 -5.3999999157806107e+00 +3.0590426135495896e-04 +0.0000000000000000e+00 +9.9999995321129043e-01
-5.4999999999999964e+00 +7.9191431866633950e+00 +0.0000000000000000e+00 -5.4999999110145588e+00 +3.1156918927496081e-04 +0.0000000000000000e+00 +9.9999995146231901e-01
-5.5999999999999961e+00 +7.9191117464980358e+00 +0.0000000000000000e+00 -5.5999999060720054e+00 +3.1723411806538896e-04 +0.0000000000000000e+00 +9.9999994968125594e-01
-5.6999999999999957e+00 +7.9190797398397503e+00 +0.0000000000000000e+00 -5.6999999009497406e+00 +3.2289904782297553e-04 +0.0000000000000000e+00 +9.9999994786810109e-01
-5.7999999999999954e+00 +7.9190471666884354e+00 +0.0000000000000000e+00 -5.7999998956445555e+00 +3.2856397866037299e-04 +0.0000000000000000e+00 +9.9999994602285447e-01
-5.8999999999999950e+00 +7.9190140270439775e+00 +0.0000000000000000e+00 -5.8999998901532411e+00 +3.3422891070615361e-04 +0.0000000000000000e+00 +9.9999994414551607e-01
-5.9999999999999947e+00 +7.9189803209062486e+00 +0.0000000000000000e+00 -5.9999998844725884e+00 +3.3989384410480913e-04 +0.0000000000000000e+00 +9.9999994223608568e-01
-6.0999999999999943e+00 +7.9189460482751057e+00 +0.0000000000000000e+00 -6.0999998785993883e+00 +3.4555877901596452e-04 +0.0000000000000000e+00 +9.9999994029456329e-01
-6.1999999999999940e+00 +7.9189112091503890e+00 +0.0000000000000000e+00 -6.1999998725304311e+00 +3.5122371560573386e-04 +0.0000000000000000e+00 +9.9999993832094880e-01
-6.2999999999999936e+00 +7.9188758035319227e+00 +0.0000000000000000e+00 -6.2999998662625076e+00 +3.5688865403807666e-04 +0.0000000000000000e+00 +9.9999993631524220e-01
-6.3999999999999932e+00 +7.9188398314195148e+00 +0.0000000000000000e+00 -6.3999998597924090e+00 +3.6255359447401244e-04 +0.0000000000000000e+00 +9.9999993427744327e-01
-6.4999999999999929e+00 +7.9188032928129557e+00 +0.0000000000000000e+00 -6.4999998531169263e+00 +3.6821853707162130e-04 +0.0000000000000000e+00 +9.9999993220755201e-01
-6.5999999999999925e+00 +7.9187661877120226e+00 +0.0000000000000000e+00 -6.5999998462328495e+00 +3.7388348198604421e-04 +0.0000000000000000e+00 +9.9999993010556831e-01
-6.6999999999999922e+00 +7.9187285161164755e+00 +0.0000000000000000e+00 -6.6999998391369697e+00 +3.7954842936948360e-04 +0.0000000000000000e+00 +9.9999992797149206e-01
-6.7999999999999918e+00 +7.9186902780260606e+00 +0.0000000000000000e+00 -6.7999998318260779e+00 +3.8521337937120375e-04 +0.0000000000000000e+00 +9.9999992580532315e-01
-6.8999999999999915e+00 +7.9186514734405087e+00 +0.0000000000000000e+00 -6.8999998242969642e+00 +3.9087833213753150e-04 +0.0000000000000000e+00 +9.9999992360706158e-01
-6.9999999999999911e+00 +7.9186121023595364e+00 +0.0000000000000000e+00 -6.9999998165464206e+00 +3.9654328781185656e-04 +0.0000000000000000e+00 +9.9999992137670712e-01
-7.0999999999999908e+00 +7.9185721647828453e+00 +0.0000000000000000e+00 -7.0999998085712361e+00 +4.0220824653463226e-04 +0.0000000000000000e+00 +9.9999991911425967e-01
-7.1999999999999904e+00 +7.9185316607101237e+00 +0.0000000000000000e+00 -7.1999998003682029e+00 +4.0787320844337606e-04 +0.0000000000000000e+00 +9.9999991681971923e-01
-7.2999999999999901e+00 +7.9184905901410465e+00 +0.0000000000000000e+00 -7.2999997919341109e+00 +4.1353817367267013e-04 +0.0000000000000000e+00 +9.9999991449308556e-01
-7.3999999999999897e+00 +7.9184489530752744e+00 +0.0000000000000000e+00 -7.3999997832657503e+00 +4.1920314235416203e-04 +0.0000000000000000e+00 +9.9999991213435857e-01
-7.4999999999999893e+00 +7.9184067495124566e+00 +0.0000000000000000e+00 -7.4999997743599129e+00 +4.2486811461656538e-04 +0.0000000000000000e+00 +9.9999990974353825e-01
-7.5999999999999890e+00 +7.9183639794522280e+00 +0.0000000000000000e+00 -7.5999997652133882e+00 +4.3053309058566048e-04 +0.0000000000000000e+00 +9.9999990732062438e-01
-7.6999999999999886e+00 +7.9183206428942121e+00 +0.0000000000000000e+00 -7.6999997558229678e+00 +4.3619807038429502e-04 +0.0000000000000000e+00 +9.9999990486561685e-01
-7.7999999999999883e+00 +7.9182767398380198e+00 +0.0000000000000000e+00 -7.7999997461854420e+00 +4.4186305413238479e-04 +0.0000000000000000e+00 +9.9999990237851566e-01
-7.8999999999999879e+00 +7.9182322702832506e+00 +0.0000000000000000e+00 -7.8999997362976009e+00 +4.4752804194691446e-04 +0.0000000000000000e+00 +9.9999989985932058e-01
-7.9999999999999876e+00 +7.9181872342294914e+00 +0.0000000000000000e+00 -7.9999997261562363e+00 +4.5319303394193830e-04 +0.0000000000000000e+00 +9.9999989730803152e-01
-8.0999999999999872e+00 +7.9181416316763196e+00 +0.0000000000000000e+00 -8.0999997157581376e+00 +4.5885803022819389e-04 +0.0000000000000000e+00 +9.9999989472464834e-01
-8.1999999999999869e+00 +7.9180954626232998e+00 +0.0000000000000000e+00 -8.1999997051000957e+00 +4.6452303090884455e-04 +0.0000000000000000e+00 +9.9999989210917084e-01
-8.2999999999999865e+00 +7.9180487270699880e+00 +0.0000000000000000e+00 -8.2999996941789025e+00 +4.7018803607522112e-04 +0.0000000000000000e+00 +9.9999988946159901e-01
-8.3999999999999861e+00 +7.9180014250159321e+00 +0.0000000000000000e+00 -8.3999996829913464e+00 +4.7585304580643486e-04 +0.0000000000000000e+00 +9.9999988678193275e-01
-8.4999999999999858e+00 +7.9179535564606720e+00 +0.0000000000000000e+00 -8.4999996715342192e+00 +4.8151806016937692e-04 +0.0000000000000000e+00 +9.9999988407017193e-01
-8.5999999999999854e+00 +7.9179051214037415e+00 +0.0000000000000000e+00 -8.5999996598043111e+00 +4.8718307921871831e-04 +0.0000000000000000e+00 +9.9999988132631645e-01
-8.6999999999999851e+00 +7.9178561198446706e+00 +0.0000000000000000e+00 -8.6999996477984123e+00 +4.9284810299690966e-04 +0.0000000000000000e+00 +9.9999987855036609e-01
-8.7999999999999847e+00 +7.9178065517829834e+00 +0.0000000000000000e+00 -8.7999996355133145e+00 +4.9851313153418070e-04 +0.0000000000000000e+00 +9.9999987574232085e-01
-8.8999999999999844e+00 +7.9177564172182038e+00 +0.0000000000000000e+00 -8.8999996229458063e+00 +5.0417816484854029e-04 +0.0000000000000000e+00 +9.9999987290218073e-01
-8.9999999999999840e+00 +7.9177057161498539e+00 +0.0000000000000000e+00 -8.9999996100926793e+00 +5.0984320294577591e-04 +0.0000000000000000e+00 +9.9999987002994550e-01
-9.0999999999999837e+00 +7.9176544485774549e+00 +0.0000000000000000e+00 -9.0999995969507257e+00 +5.1550824581945358e-04 +0.0000000000000000e+00 +9.9999986712561517e-01
-9.1999999999999833e+00 +7.9176026145005309e+00 +0.0000000000000000e+00 -9.1999995835167336e+00 +5.2117329345091742e-04 +0.0000000000000000e+00 +9.9999986418918962e-01
-9.2999999999999829e+00 +7.9175502139186076e+00 +0.0000000000000000e+00 -9.2999995697874933e+00 +5.2683834580928926e-04 +0.0000000000000000e+00 +9.9999986122066886e-01
-9.3999999999999826e+00 +7.9174972468312133e+00 +0.0000000000000000e+00 -9.3999995557597966e+00 +5.3250340285146847e-04 +0.0000000000000000e+00 +9.9999985822005277e-01
-9.4999999999999822e+00 +7.9174437132378825e+00 +0.0000000000000000e+00 -9.4999995414304337e+00 +5.3816846452213148e-04 +0.0000000000000000e+00 +9.9999985518734125e-01
-9.5999999999999819e+00 +7.9173896131381563e+00 +0.0000000000000000e+00 -9.5999995267961946e+00 +5.4383353075373162e-04 +0.0000000000000000e+00 +9.9999985212253428e-01
-9.6999999999999815e+00 +7.9173349465315823e+00 +0.0000000000000000e+00 -9.6999995118538695e+00 +5.4949860146649861e-04 +0.0000000000000000e+00 +9.9999984902563188e-01
-9.7999999999999812e+00 +7.9172797134177166e+00 +0.0000000000000000e+00 -9.7999994966002504e+00 +5.5516367656843822e-04 +0.0000000000000000e+00 +9.9999984589663404e-01
-9.8999999999999808e+00 +7.9172239137961258e+00 +0.0000000000000000e+00 -9.8999994810321272e+00 +5.6082875595533195e-04 +0.0000000000000000e+00 +9.9999984273554066e-01
-9.9999999999999805e+00 +7.9171675476663870e+00 +0.0000000000000000e+00 -9.9999994651462885e+00 +5.6649383951073659e-04 +0.0000000000000000e+00 +9.9999983954235183e-01
-1.0099999999999980e+01 +7.9171106150280890e+00 +0.0000000000000000e+00 -1.0099999448939528e+01 +5.7215892710681256e-04 +0.0000000000000000e+00 +9.9999983631706746e-01
-1.0199999999999980e+01 +7.9170531158808348e+00 +0.0000000000000000e+00 -1.0199999432408633e+01 +5.7782401861343946e-04 +0.0000000000000000e+00 +9.9999983305968765e-01
-1.0299999999999979e+01 +7.9169950502242399e+00 +0.0000000000000000e+00 -1.0299999415550396e+01 +5.8348911390733210e-04 +0.0000000000000000e+00 +9.9999982977021229e-01
-1.0399999999999979e+01 +7.9169364180579311e+00 +0.0000000000000000e+00 -1.0399999398361606e+01 +5.8915421287286922e-04 +0.0000000000000000e+00 +9.9999982644864149e-01
-1.0499999999999979e+01 +7.9168772193815471e+00 +0.0000000000000000e+00 -1.0499999380839055e+01 +5.9481931540209356e-04 +0.0000000000000000e+00 +9.9999982309497515e-01
-1.0599999999999978e+01 +7.9168174541947360e+00 +0.0000000000000000e+00 -1.0599999362979531e+01 +6.0048442139471207e-04 +0.0000000000000000e+00 +9.9999981970921337e-01
-1.0699999999999978e+01 +7.9167571224971560e+00 +0.0000000000000000e+00 -1.0699999344779828e+01 +6.0614953075809606e-04 +0.0000000000000000e+00 +9.9999981629135615e-01
-1.0799999999999978e+01 +7.9166962242884749e+00 +0.0000000000000000e+00 -1.0799999326236733e+01 +6.1181464340728103e-04 +0.0000000000000000e+00 +9.9999981284140338e-01
-1.0899999999999977e+01 +7.9166347595683675e+00 +0.0000000000000000e+00 -1.0899999307347038e+01 +6.1747975926496697e-04 +0.0000000000000000e+00 +9.9999980935935506e-01
-1.0999999999999977e+01 +7.9165727283365168e+00 +0.0000000000000000e+00 -1.0999999288107533e+01 +6.2314487826151837e-04 +0.0000000000000000e+00 +9.9999980584521131e-01
-1.1099999999999977e+01 +7.9165101305926120e+00 +0.0000000000000000e+00 -1.1099999268515010e+01 +6.2881000033496452e-04 +0.0000000000000000e+00 +9.9999980229897201e-01
-1.1199999999999976e+01 +7.9164469663363484e+00 +0.0000000000000000e+00 -1.1199999248566257e+01 +6.3447512543099937e-04 +0.0000000000000000e+00 +9.9999979872063716e-01
-1.1299999999999976e+01 +7.9163832355674266e+00 +0.0000000000000000e+00 -1.1299999228258066e+01 +6.4014025350298161e-04 +0.0000000000000000e+00 +9.9999979511020676e-01
-1.1399999999999975e+01 +7.9163189382855501e+00 +0.0000000000000000e+00 -1.1399999207587229e+01 +6.4580538451193515e-04 +0.0000000000000000e+00 +9.9999979146768070e-01
-1.1499999999999975e+01 +7.9162540744904275e+00 +0.0000000000000000e+00 -1.1499999186550532e+01 +6.5147051842654878e-04 +0.0000000000000000e+00 +9.9999978779305909e-01
-1.1599999999999975e+01 +7.9161886441817693e+00 +0.0000000000000000e+00 -1.1599999165144769e+01 +6.5713565522317659e-04 +0.0000000000000000e+00 +9.9999978408634183e-01
-1.1699999999999974e+01 +7.9161226473592876e+00 +0.0000000000000000e+00 -1.1699999143366730e+01 +6.6280079488583788e-04 +0.0000000000000000e+00 +9.9999978034752879e-01
