# multipoles
# s[mm] polynom_b[n=0][T/m^n] polynom_b[n=1][T/m^n] polynom_b[n=2][T/m^n] polynom_b[n=3][T/m^n] polynom_b[n=4][T/m^n] polynom_b[n=5][T/m^n] polynom_b[n=6][T/m^n] 
+0.0000000000000000e+00 -5.9239573478059704e-01 +8.1063209596579622e+00 -8.0415755003569300e-03 +6.1711621301572414e+01 -1.1921810465553342e+03 -4.3721279906806716e+05 -5.6210159873082722e+06 
+1.0000000000000001e-01 -5.9239565267922867e-01 +8.1063109240158866e+00 -2.3191816732885027e-03 +6.1961049778140094e+01 -1.3367400543805268e+03 -4.3821080236766557e+05 -4.9421397867439641e+06 
+2.0000000000000001e-01 -5.9239556641106028e-01 +8.1063098846047623e+00 +2.9667433275499503e-03 +6.2005596758451119e+01 -1.4762811082122832e+03 -4.3815147906514053e+05 -4.2835783070223611e+06 
+2.9999999999999999e-01 -5.9239547703599726e-01 +8.1063171938486231e+00 +7.8326157552425345e-03 +6.1858745234856194e+01 -1.6106323447998859e+03 -4.3710252790831868e+05 -3.6465129407387800e+06 
+4.0000000000000002e-01 -5.9239538561407912e-01 +8.1063322041749952e+00 +1.2294854183405523e-02 +6.1533978118717236e+01 -1.7396219324665867e+03 -4.3513164719851076e+05 -3.0321249701714502e+06 
+5.0000000000000000e-01 -5.9239529320530815e-01 +8.1063542680108736e+00 +1.6369883345899994e-02 +6.1044778333403507e+01 -1.8630781519486247e+03 -4.3230653527759190e+05 -2.4415951600348484e+06 
+5.9999999999999998e-01 -5.9239520086976627e-01 +8.1063827377838109e+00 +2.0074129483546439e-02 +6.0404628789110220e+01 -1.9808293025014611e+03 -4.2869489041065902e+05 -1.8761042191294453e+06 
+6.9999999999999996e-01 -5.9239510966747044e-01 +8.1064169659242840e+00 +2.3424018084544893e-02 +5.9627012292993420e+01 -2.0927036656952118e+03 -4.2436441020618932e+05 -1.3368329555708533e+06 
+8.0000000000000004e-01 -5.9239502065850946e-01 +8.1064563048653113e+00 +2.6435979119823413e-02 +5.8725411557939033e+01 -2.1985296021860117e+03 -4.1938279166926153e+05 -8.2496181935097149e+05 
+9.0000000000000002e-01 -5.9239493490298112e-01 +8.1065001070386593e+00 +2.9126444249157800e-02 +5.7713309297292646e+01 -2.2981355045959635e+03 -4.1381773172140482e+05 -3.4167111502735375e+05 
+1.0000000000000000e+00 -5.9239485346097331e-01 +8.1065477248785509e+00 +3.1511843648040334e-02 +5.6604188107711479e+01 -2.3913497334984395e+03 -4.0773692649277922e+05 +1.1185868668586804e+05 
+1.1000000000000001e+00 -5.9239477739264856e-01 +8.1065985108184808e+00 +3.3608609634175488e-02 +5.5411530563965727e+01 -2.4780006912105819e+03 -4.0120807189542730e+05 +5.3444731380526454e+05 
+1.2000000000000000e+00 -5.9239470775801129e-01 +8.1066518172926418e+00 +3.5433173543228162e-02 +5.4148819149686517e+01 -2.5579167597406636e+03 -3.9429886314523203e+05 +9.2491438905102457e+05 
+1.3000000000000000e+00 -5.9239464561716670e-01 +8.1067069967361327e+00 +3.7001965537174754e-02 +5.2829536252877851e+01 -2.6309263047657469e+03 -3.8707699475056812e+05 +1.2820794706404659e+06 
+1.3999999999999999e+00 -5.9239459203020883e-01 +8.1067634015873331e+00 +3.8331414754094705e-02 +5.1467164080857430e+01 -2.6968576736917025e+03 -3.7961015997699019e+05 +1.6047620308578438e+06 
+1.5000000000000000e+00 -5.9239454805718561e-01 +8.1068203842779862e+00 +3.9437952976894015e-02 +5.0075184952589659e+01 -2.7555392701960900e+03 -3.7196605256796913e+05 +1.8917818234594876e+06 
+1.6000000000000001e+00 -5.9239451475809812e-01 +8.1068772972463847e+00 +4.0338003617245766e-02 +4.8667080886016272e+01 -2.8067993447475310e+03 -3.6421236427367869e+05 +2.1419578865751880e+06 
+1.7000000000000000e+00 -5.9239449319297321e-01 +8.1069334929269061e+00 +4.1047994581173849e-02 +4.7256333913501791e+01 -2.8504662412639818e+03 -3.5641678672154126e+05 +2.3541097224903167e+06 
+1.8000000000000000e+00 -5.9239448442178810e-01 +8.1069883237556759e+00 +4.1584344769545041e-02 +4.5856425878905128e+01 -2.8863681383791613e+03 -3.4864701013534813e+05 +2.5270560625571893e+06 
+1.8999999999999999e+00 -5.9239448950445062e-01 +8.1070411421651496e+00 +4.1963474346366852e-02 +4.4480838623133501e+01 -2.9143332543872821e+03 -3.4097072450168506e+05 +2.6596158659538692e+06 
+2.0000000000000000e+00 -5.9239450950087114e-01 +8.1070913005887260e+00 +4.2201797232116610e-02 +4.3143053808128890e+01 -2.9341896944989185e+03 -3.3345561843916250e+05 +2.7506075688587176e+06 
+2.1000000000000001e+00 -5.9239454520771728e-01 +8.1071382847296345e+00 +4.2316470618762286e-02 +4.1854020490037115e+01 -2.9459134265381927e+03 -3.2615739944894711e+05 +2.7996518439191459e+06 
+2.2000000000000002e+00 -5.9239459637432745e-01 +8.1071821069519530e+00 +4.2326545537263345e-02 +4.0614722653493573e+01 -2.9500522863032847e+03 -3.1908444946290285e+05 +2.8094884079142064e+06 
+2.2999999999999998e+00 -5.9239466248939887e-01 +8.1072229096959223e+00 +4.2251287170317925e-02 +3.9423694201721098e+01 -2.9472924376891651e+03 -3.1223346781562181e+05 +2.7836153828227380e+06 
+2.3999999999999999e+00 -5.9239474304171202e-01 +8.1072608354069278e+00 +4.2109963058959046e-02 +3.8279468868258313e+01 -2.9383200860418797e+03 -3.0560115283515054e+05 +2.7255310819058791e+06 
+2.5000000000000000e+00 -5.9239483751992639e-01 +8.1072960265299105e+00 +4.1921833846334036e-02 +3.7180580426873348e+01 -2.9238213105259551e+03 -2.9918420319963526e+05 +2.6387332352038934e+06 
+2.6000000000000001e+00 -5.9239494541276294e-01 +8.1073286255032908e+00 +4.1706166702230471e-02 +3.6125562842029368e+01 -2.9044823065503037e+03 -2.9297931873294048e+05 +2.5267201085185236e+06 
+2.7000000000000002e+00 -5.9239506620902493e-01 +8.1073587747723010e+00 +4.1482224703863063e-02 +3.5112949904442111e+01 -2.8809891961441981e+03 -2.8698319835432019e+05 +2.3929896368327029e+06 
+2.7999999999999998e+00 -5.9239519939732643e-01 +8.1073866167733968e+00 +4.1269268991890269e-02 +3.4141275685627996e+01 -2.8540280603416250e+03 -2.8119254272117151e+05 +2.2410395532724843e+06 
+2.8999999999999999e+00 -5.9239534446644193e-01 +8.1074122939448365e+00 +4.1086562141794118e-02 +3.3209074253194700e+01 -2.8242850079641798e+03 -2.7560405263402051e+05 +2.0743677309947365e+06 
+3.0000000000000000e+00 -5.9239550090505422e-01 +8.1074359487254259e+00 +4.0953365109380441e-02 +3.2314879695657659e+01 -2.7924461085360140e+03 -2.7021442915959551e+05 +1.8964718402953965e+06 
+3.1000000000000001e+00 -5.9239566820187983e-01 +8.1074577235501035e+00 +4.0888939744118988e-02 +3.1457226264846724e+01 -2.7591974531346709e+03 -2.6502037447658612e+05 +1.7108496734308051e+06 
+3.2000000000000002e+00 -5.9239584584567540e-01 +8.1074777608515909e+00 +4.0912548040643475e-02 +3.0634648348534409e+01 -2.7252251280688265e+03 -2.6001859179267898e+05 +1.5209989881691916e+06 
+3.2999999999999998e+00 -5.9239603332507507e-01 +8.1074962030611211e+00 +4.1043447369502974e-02 +2.9845680439447534e+01 -2.6912151301405811e+03 -2.5520578512205288e+05 +1.3304171201125241e+06 
+3.3999999999999999e+00 -5.9239623012890308e-01 +8.1075131926100781e+00 +4.1300899597611823e-02 +2.9088857099132333e+01 -2.6578535371775588e+03 -2.5057865911638807e+05 +1.1426017877751389e+06 
+3.5000000000000000e+00 -5.9239643574579537e-01 +8.1075288719273910e+00 +4.1704163895109551e-02 +2.8362713054730019e+01 -2.6258263690702247e+03 -2.4613391968347091e+05 +9.6105042572143395e+05 
+3.6000000000000001e+00 -5.9239664966450956e-01 +8.1075433834344590e+00 +4.2272496215508680e-02 +2.7665783348863879e+01 -2.5958195860089704e+03 -2.4186827485186915e+05 +7.8926019925366330e+05 
+3.7000000000000002e+00 -5.9239687137379138e-01 +8.1075568695613089e+00 +4.3025160184377291e-02 +2.6996602857371901e+01 -2.5685192830976234e+03 -2.3777843195252781e+05 +6.3072889649085037e+05 
+3.7999999999999998e+00 -5.9239710036234738e-01 +8.1075694727263077e+00 +4.3981410177184370e-02 +2.6353706917284999e+01 -2.5446113759158952e+03 -2.3386110135648522e+05 +4.8895345330891421e+05 
+3.8999999999999999e+00 -5.9239733611893020e-01 +8.1075813353470991e+00 +4.5160505331183869e-02 +2.5735631000669020e+01 -2.5247818671642699e+03 -2.3011299456526455e+05 +3.6743122308937256e+05 
+4.0000000000000000e+00 -5.9239757813233251e-01 +8.1075925998452743e+00 +4.6581704569031573e-02 +2.5140910586558515e+01 -2.5097167467530999e+03 -2.2653082347810493e+05 +2.6965948845998890e+05 
+4.0999999999999996e+00 -5.9239782582021427e-01 +8.1076033783498378e+00 +4.8251411296695988e-02 +2.4568517179223928e+01 -2.4998515781394908e+03 -2.2311268170127479e+05 +1.9799504032623232e+05 
+4.2000000000000002e+00 -5.9239807831549585e-01 +8.1076136681349773e+00 +5.0125340962596486e-02 +2.4019013527360372e+01 -2.4946301803119823e+03 -2.1986155603364526e+05 +1.5026129275093929e+05 
+4.2999999999999998e+00 -5.9239833467962988e-01 +8.1076234393067352e+00 +5.2146701877504364e-02 +2.3493322230923976e+01 -2.4932505002906205e+03 -2.1678149759956781e+05 +1.2315355014253975e+05 
+4.4000000000000004e+00 -5.9239859397416528e-01 +8.1076326619811141e+00 +5.4258698843764601e-02 +2.2992365661476917e+01 -2.4949104167429932e+03 -2.1387655635862931e+05 +1.1336679339546019e+05 
+4.5000000000000000e+00 -5.9239885526054992e-01 +8.1076413062797101e+00 +5.6404535305204638e-02 +2.2517066087466318e+01 -2.4988077858986271e+03 -2.1115078181673680e+05 +1.1759590818748543e+05 
+4.5999999999999996e+00 -5.9239911760026498e-01 +8.1076493423386911e+00 +5.8527415380830429e-02 +2.2068345405410390e+01 -2.5041404808973484e+03 -2.0860822144335648e+05 +1.3253587621751631e+05 
+4.7000000000000002e+00 -5.9239938005480253e-01 +8.1076567402984132e+00 +6.0570540114496196e-02 +2.1647125467057801e+01 -2.5101063143009314e+03 -2.0625292264175741e+05 +1.5488138840469686e+05 
+4.7999999999999998e+00 -5.9239964168557580e-01 +8.1076634703082906e+00 +6.2477108638026975e-02 +2.1254327911775217e+01 -2.5159030684013569e+03 -2.0408893169359580e+05 +1.8132701186819273e+05 
+4.9000000000000004e+00 -5.9239990155404876e-01 +8.1076695025311167e+00 +6.4190322343159842e-02 +2.0890874066192158e+01 -2.5207285682494521e+03 -2.0212029325100730e+05 +2.0856751935775371e+05 
+5.0000000000000000e+00 -5.9240015872165241e-01 +8.1076748071400306e+00 +6.5653378307062554e-02 +2.0557685028502949e+01 -2.5237805605103995e+03 -2.0035105080746865e+05 +2.3329732599401296e+05 
+5.0999999999999996e+00 -5.9240041224984941e-01 +8.1076793543162236e+00 +6.6809474093289953e-02 +2.0255681727512432e+01 -2.5242568037588935e+03 -1.9878524701431434e+05 +2.5221091230537297e+05 
+5.2000000000000002e+00 -5.9240066120005419e-01 +8.1076831142572985e+00 +6.7601808243101497e-02 +1.9985784700401165e+01 -2.5213550768348400e+03 -1.9742692245747914e+05 +2.6200286393082785e+05 
+5.2999999999999998e+00 -5.9240090463363482e-01 +8.1076860571683866e+00 +6.7973569987982443e-02 +1.9748914330924801e+01 -2.5142729861523612e+03 -1.9628011696281668e+05 +2.5936696237817901e+05 
+5.4000000000000004e+00 -5.9240114161205026e-01 +8.1076881532695850e+00 +6.7867956099063723e-02 +1.9545990654213124e+01 -2.5022082838310280e+03 -1.9534886853744666e+05 +2.4099769144975729e+05 
+5.5000000000000000e+00 -5.9240137119663216e-01 +8.1076893727931196e+00 +6.7228158137411703e-02 +1.9377933442968704e+01 -2.4843586248175920e+03 -1.9463721386536997e+05 +2.0358908164425881e+05 
+5.5999999999999996e+00 -5.9240159244884527e-01 +8.1076896859851626e+00 +6.5997366143757508e-02 +1.9245662124557178e+01 -2.4599216393465249e+03 -1.9414918774388632e+05 +1.4383505992182327e+05 
+5.7000000000000002e+00 -5.9240180442996870e-01 +8.1076890631052905e+00 +6.4118769001211495e-02 +1.9150095847783252e+01 -2.4280949406638360e+03 -1.9388882360593439e+05 +5.8429489875195795e+04 
+5.7999999999999998e+00 -5.9240200620143124e-01 +8.1076874744303868e+00 +6.1535555632331554e-02 +1.9092153338676354e+01 -2.3880761442119547e+03 -1.9386015260456561e+05 -5.5933748018596518e+04 
+5.9000000000000004e+00 -5.9240219682452644e-01 +8.1076848902488106e+00 +5.8190913056238580e-02 +1.9072753079106654e+01 -2.3390628352493945e+03 -1.9406720466469435e+05 -2.0256089671767029e+05 
+5.9999999999999902e+00 -5.9240237536066476e-01 +8.1076812808638508e+00 +5.4028023963654526e-02 +1.9092813213352272e+01 -2.2802525175632268e+03 -1.9451400794834434e+05 -3.8475858186784975e+05 
+6.0999999999999899e+00 -5.9240254118213020e-01 +8.1076766177687176e+00 +4.9009740360814055e-02 +1.9153115365028082e+01 -2.2111059895529638e+03 -1.9520386808953044e+05 -6.0480950453656726e+05 
+6.1999999999999904e+00 -5.9240269490724340e-01 +8.1076708787882374e+00 +4.3177779093625399e-02 +1.9253765170086321e+01 -2.1321359213890478e+03 -1.9613645648669929e+05 -8.6090959640715132e+05 
+6.2999999999999901e+00 -5.9240283746635891e-01 +8.1076640437598542e+00 +3.6593633626034003e-02 +1.9394665183606037e+01 -2.0441176513168930e+03 -1.9731034356590779e+05 -1.1502354299342195e+06 
+6.3999999999999897e+00 -5.9240296978980289e-01 +8.1076560925062431e+00 +2.9318798292848506e-02 +1.9575718306756876e+01 -1.9478265385793209e+03 -1.9872410149723466e+05 -1.4699634618009713e+06 
+6.4999999999999902e+00 -5.9240309280786907e-01 +8.1076470048413185e+00 +2.1414771141648418e-02 +1.9796827637350930e+01 -1.8440380165842644e+03 -2.0037630336137241e+05 -1.8172697834601020e+06 
+6.5999999999999899e+00 -5.9240320745091946e-01 +8.1076367605662334e+00 +1.2943044429471529e-02 +2.0057896579845838e+01 -1.7335274110087228e+03 -2.0226552377329688e+05 -2.1893309905417315e+06 
+6.6999999999999904e+00 -5.9240331464923179e-01 +8.1076253394707987e+00 +3.9651112197910156e-03 +2.0358828781263639e+01 -1.6170700657533005e+03 -2.0439033844302394e+05 -2.5833235815708730e+06 
+6.7999999999999901e+00 -5.9240341533311258e-01 +8.1076127213307387e+00 -5.4575346733519749e-03 +2.0699528220010972e+01 -1.4954413440206074e+03 -2.0674932471732766e+05 -2.9964239477481511e+06 
+6.8999999999999897e+00 -5.9240351043285666e-01 +8.1075988859133901e+00 -1.5263400594066350e-02 +2.1079899052957888e+01 -1.3694165897267083e+03 -2.0934106071360069e+05 -3.4258085621988173e+06 
+6.9999999999999902e+00 -5.9240360087878607e-01 +8.1075838129650251e+00 -2.5390993728127472e-02 +2.1499845942465676e+01 -1.2397711524664458e+03 -2.1216412711768009e+05 -3.8686538620708957e+06 
+7.0999999999999899e+00 -5.9240368760113848e-01 +8.1075674822229082e+00 -3.5778823919472090e-02 +2.1959273732033502e+01 -1.1072803355824244e+03 -2.1521710536040802e+05 -4.3221364902561316e+06 
+7.1999999999999904e+00 -5.9240377153020141e-01 +8.1075498734063700e+00 -4.6365397572804307e-02 +2.2458087692856843e+01 -9.7271951269823796e+02 -2.1849857900440512e+05 -4.7834327408218319e+06 
+7.2999999999999901e+00 -5.9240385359627135e-01 +8.1075309662235924e+00 -5.7089223320745321e-02 +2.2996193313490249e+01 -8.3686401762002083e+02 -2.2200713249767834e+05 -5.2497190883477945e+06 
+7.3999999999999897e+00 -5.9240393472952491e-01 +8.1075107403593574e+00 -6.7888812974286408e-02 +2.3573496669686730e+01 -7.0048912958400376e+02 -2.2574135335734606e+05 -5.7181722488734843e+06 
+7.4999999999999902e+00 -5.9240401586031843e-01 +8.1074891754880216e+00 -7.8702674056609134e-02 +2.4189904023653220e+01 -5.6437021003886923e+02 -2.2969982975120028e+05 -6.1859685437079370e+06 
+7.5999999999999899e+00 -5.9240409791880422e-01 +8.1074662512647002e+00 -8.9469316140814839e-02 +2.4845322098026291e+01 -4.2928258927445739e+02 -2.3388115216847282e+05 -6.6502844204980750e+06 
+7.6999999999999904e+00 -5.9240418183523880e-01 +8.1074419473250483e+00 -1.0012725074152071e-01 +2.5539658051444281e+01 -2.9600156177555931e+02 -2.3828391315981271e+05 -7.1082964904526286e+06 
+7.7999999999999901e+00 -5.9240426853988126e-01 +8.1074162432897765e+00 -1.1061498765261055e-01 +2.6272819375520545e+01 -1.6530246069911340e+02 -2.4290670683858896e+05 -7.5571811657145694e+06 
+7.8999999999999897e+00 -5.9240435896292332e-01 +8.1073891187573892e+00 -1.2087103715245111e-01 +2.7044714071057857e+01 -3.7960615336878469e+01 -2.4774812979040985e+05 -7.9941148588791704e+06 
+7.9999999999999902e+00 -5.9240445403458752e-01 +8.1073605533071440e+00 -1.3083391230651170e-01 +2.7855250564352101e+01 +8.5248693053969433e+01 -2.5280678060911535e+05 -8.4162741971025243e+06 
+8.0999999999999908e+00 -5.9240455476411236e-01 +8.1073305848236448e+00 -1.4044390654942571e-01 +2.8702775998750688e+01 +2.0359222605800684e+02 -2.5807256914815475e+05 -8.8210315189267341e+06 
+8.1999999999999904e+00 -5.9240466249224166e-01 +8.1072994921751373e+00 -1.4964953898056799e-01 +2.9579294931435360e+01 +3.1654755109031595e+02 -2.6350024462992570e+05 -9.2068047762870863e+06 
+8.2999999999999901e+00 -5.9240477864629137e-01 +8.1072676166777242e+00 -1.5840168163975971e-01 +3.0475191969371107e+01 +4.2365586668111274e+02 -2.6903559919960075e+05 -9.5723402926317025e+06 
+8.3999999999999897e+00 -5.9240490465370588e-01 +8.1072352996262662e+00 -1.6665119542458787e-01 +3.1380852123882292e+01 +5.2445818567764354e+02 -2.7462442664978508e+05 -9.9163836217173375e+06 
+8.4999999999999893e+00 -5.9240504194204924e-01 +8.1072028822913094e+00 -1.7434893037845603e-01 +3.2286660905816504e+01 +6.1849533157599774e+02 -2.8021252300444356e+05 -1.0237679500479525e+07 
+8.5999999999999908e+00 -5.9240519193891050e-01 +8.1071707059281888e+00 -1.8144572717886229e-01 +3.3183004045581050e+01 +7.0530797322996182e+02 -2.8574568484940182e+05 -1.0534972034613302e+07 
+8.6999999999999904e+00 -5.9240535607200728e-01 +8.1071391117614926e+00 -1.8789241481086405e-01 +3.4060267953304610e+01 +7.8443657765970306e+02 -2.9116971202876786e+05 -1.0807004466089038e+07 
+8.7999999999999794e+00 -5.9240553576916799e-01 +8.1071084409980045e+00 -1.9363980934933275e-01 +3.4908839324228516e+01 +8.5542139033259343e+02 -2.9643040529922344e+05 -1.1052519091301912e+07 
+8.8999999999999808e+00 -5.9240573245834904e-01 +8.1070790348199449e+00 -1.9863871632318980e-01 +3.5719105334421265e+01 +9.1780248355049321e+02 -3.0147356745694572e+05 -1.1270257499208247e+07 
+8.9999999999999805e+00 -5.9240594756754694e-01 +8.1070512343817782e+00 -2.0283992860492028e-01 +3.6481453726169619e+01 +9.7111970732736199e+02 -3.0624500382408377e+05 -1.1458960318793511e+07 
+9.0999999999999801e+00 -5.9240618252489718e-01 +8.1070253808197190e+00 -2.0619422753699290e-01 +3.7186272529143672e+01 +1.0149127214582264e+03 -3.1069052060517744e+05 -1.1617367395914048e+07 
+9.1999999999999797e+00 -5.9240643875866283e-01 +8.1070018152393928e+00 -2.0865237886126020e-01 +3.7823950409635039e+01 +1.0487209122068780e+03 -3.1475592690347397e+05 -1.1744217387119196e+07 
+9.2999999999999794e+00 -5.9240671769723552e-01 +8.1069808787228030e+00 -2.1016513737201184e-01 +3.8384876459414699e+01 +1.0720834866881548e+03 -3.1838703344899270e+05 -1.1838248224617843e+07 
+9.3999999999999808e+00 -5.9240702076906226e-01 +8.1069629123200944e+00 -2.1068324441024852e-01 +3.8859440439771895e+01 +1.0845394199530790e+03 -3.2152965405210864e+05 -1.1898196849539815e+07 
+9.4999999999999805e+00 -5.9240734940274398e-01 +8.1069482570645928e+00 -2.1015742728111217e-01 +3.9238032332270294e+01 +1.0856274514518700e+03 -3.2412960293207731e+05 -1.1922799219185920e+07 
+9.5999999999999801e+00 -5.9240770502700790e-01 +8.1069372539526530e+00 -2.0853839834610233e-01 +3.9511042910978233e+01 +1.0748860608835525e+03 -3.2613269802105933e+05 -1.1910790172322737e+07 
+9.6999999999999797e+00 -5.9240808907073050e-01 +8.1069302439585247e+00 -2.0577685655838490e-01 +3.9668863320731418e+01 +1.0518535059957646e+03 -3.2748475853162620e+05 -1.1860903636018611e+07 
+9.7999999999999794e+00 -5.9240850296286596e-01 +8.1069275680214812e+00 -2.0182348449283397e-01 +3.9701885430298255e+01 +1.0160677581459701e+03 -3.2813160695506615e+05 -1.1771872297048958e+07 
+9.8999999999999808e+00 -5.9240894813251332e-01 +8.1069295670606198e+00 -1.9662895191763261e-01 +3.9600501403494256e+01 +9.6706657849303031e+02 -3.2801906656113983e+05 -1.1642427988924796e+07 
+9.9999999999999805e+00 -5.9240942600895574e-01 +8.1069365819545300e+00 -1.9014391063304539e-01 +3.9355104318804344e+01 +9.0438742114861941e+02 -3.2709296503793960e+05 -1.1471301233556045e+07 
+1.0100000000000000e+01 -5.9240993735160896e-01 +8.1069488360040918e+00 -1.8234544195997748e-01 +3.8959628606344182e+01 +8.2785520583488358e+02 -3.2531906194718176e+05 -1.1258180648880847e+07 
