# field on trajectory
# s[mm] rx[mm] ry[mm] rz[mm] bx[T] by[T] bz[T]
0.0000000000000000e+00 +8.1649999999999991e+00 +0.0000000000000000e+00 +0.0000000000000000e+00 -3.2913296171615911e-02 -5.9224977544044421e-01 +5.8740543740293224e-03
1.0000000000000001e-01 +8.1649997170308897e+00 +0.0000000000000000e+00 +9.9999999999466210e-02 -3.2913450944944384e-02 -5.9224961531722653e-01 +5.8741057029072334e-03
2.0000000000000001e-01 +8.1649988681236625e+00 +0.0000000000000000e+00 +1.9999999999572954e-01 -3.2913613102608187e-02 -5.9224946663199696e-01 +5.8741574068501027e-03
3.0000000000000004e-01 +8.1649974532784579e+00 +0.0000000000000000e+00 +2.9999999998558713e-01 -3.2913782554689297e-02 -5.9224932998740809e-01 +5.8742095433696627e-03
4.0000000000000002e-01 +8.1649954724954075e+00 +0.0000000000000000e+00 +3.9999999996583613e-01 -3.2913959211264068e-02 -5.9224920598611086e-01 +5.8742621699786560e-03
5.0000000000000000e-01 +8.1649929257746301e+00 +0.0000000000000000e+00 +4.9999999993327371e-01 -3.2914142982405172e-02 -5.9224909523075253e-01 +5.8743153441908119e-03
5.9999999999999998e-01 +8.1649898131162324e+00 +0.0000000000000000e+00 +5.9999999988469710e-01 -3.2914333778183723e-02 -5.9224899832397615e-01 +5.8743691235208480e-03
6.9999999999999996e-01 +8.1649861345203050e+00 +0.0000000000000000e+00 +6.9999999981690331e-01 -3.2914531508671449e-02 -5.9224891586841710e-01 +5.8744235654844519e-03
7.9999999999999993e-01 +8.1649818899869278e+00 +0.0000000000000000e+00 +7.9999999972668956e-01 -3.2914736083942596e-02 -5.9224884846670245e-01 +5.8744787275982662e-03
8.9999999999999991e-01 +8.1649770795161665e+00 +0.0000000000000000e+00 +8.9999999961085297e-01 -3.2914947414076183e-02 -5.9224879672144959e-01 +5.8745346673798899e-03
9.9999999999999989e-01 +8.1649717031080691e+00 +0.0000000000000000e+00 +9.9999999946619067e-01 -3.2915165409157988e-02 -5.9224876123526438e-01 +5.8745914423478625e-03
1.0999999999999999e+00 +8.1649657607626693e+00 +0.0000000000000000e+00 +1.0999999992894998e+00 -3.2915389979282686e-02 -5.9224874261073845e-01 +5.8746491100216455e-03
1.2000000000000000e+00 +8.1649592524799868e+00 +0.0000000000000000e+00 +1.1999999990775776e+00 -3.2915621034555850e-02 -5.9224874145044959e-01 +5.8747077279216256e-03
1.3000000000000000e+00 +8.1649521782600214e+00 +0.0000000000000000e+00 +1.2999999988272213e+00 -3.2915858485096199e-02 -5.9224875835695889e-01 +5.8747673535690945e-03
1.4000000000000001e+00 +8.1649445381027572e+00 +0.0000000000000000e+00 +1.3999999985352278e+00 -3.2916102241037450e-02 -5.9224879393280883e-01 +5.8748280444862423e-03
1.5000000000000002e+00 +8.1649363320081605e+00 +0.0000000000000000e+00 +1.4999999981983945e+00 -3.2916352212530607e-02 -5.9224884878052197e-01 +5.8748898581961369e-03
1.6000000000000003e+00 +8.1649275599761797e+00 +0.0000000000000000e+00 +1.5999999978135182e+00 -3.2916608309745951e-02 -5.9224892350260039e-01 +5.8749528522227370e-03
1.7000000000000004e+00 +8.1649182220067420e+00 +0.0000000000000000e+00 +1.6999999973773963e+00 -3.2916870442875092e-02 -5.9224901870152202e-01 +5.8750170840908521e-03
1.8000000000000005e+00 +8.1649083180997586e+00 +0.0000000000000000e+00 +1.7999999968868259e+00 -3.2917138522133155e-02 -5.9224913497974019e-01 +5.8750826113261479e-03
1.9000000000000006e+00 +8.1648978482551176e+00 +0.0000000000000000e+00 +1.8999999963386043e+00 -3.2917412457760753e-02 -5.9224927293968244e-01 +5.8751494914551436e-03
2.0000000000000004e+00 +8.1648868124726892e+00 +0.0000000000000000e+00 +1.9999999957295282e+00 -3.2917692160026171e-02 -5.9224943318374790e-01 +5.8752177820051779e-03
2.1000000000000005e+00 +8.1648752107523190e+00 +0.0000000000000000e+00 +2.0999999950563950e+00 -3.2917977348158892e-02 -5.9224961598231451e-01 +5.8752875476838331e-03
2.2000000000000006e+00 +8.1648630430938329e+00 +0.0000000000000000e+00 +2.1999999943160020e+00 -3.2918266977134007e-02 -5.9224982027777395e-01 +5.8753588819165665e-03
2.3000000000000007e+00 +8.1648503094970355e+00 +0.0000000000000000e+00 +2.2999999935051463e+00 -3.2918559810856160e-02 -5.9225004468052311e-01 +5.8754318853072350e-03
2.4000000000000008e+00 +8.1648370099617136e+00 +0.0000000000000000e+00 +2.3999999926206246e+00 -3.2918854613222998e-02 -5.9225028780096134e-01 +5.8755066584583191e-03
2.5000000000000009e+00 +8.1648231444876362e+00 +0.0000000000000000e+00 +2.4999999916592341e+00 -3.2919150148122966e-02 -5.9225054824949153e-01 +5.8755833019706891e-03
2.6000000000000010e+00 +8.1648087130745548e+00 +0.0000000000000000e+00 +2.5999999906177722e+00 -3.2919445179433113e-02 -5.9225082463652323e-01 +5.8756619164433777e-03
2.7000000000000011e+00 +8.1647937157222046e+00 +0.0000000000000000e+00 +2.6999999894930360e+00 -3.2919738471016834e-02 -5.9225111557247334e-01 +5.8757426024733626e-03
2.8000000000000012e+00 +8.1647781524303085e+00 +0.0000000000000000e+00 +2.7999999882818223e+00 -3.2920028786721685e-02 -5.9225141966776929e-01 +5.8758254606553137e-03
2.9000000000000012e+00 +8.1647620231985769e+00 +0.0000000000000000e+00 +2.8999999869809283e+00 -3.2920314890377202e-02 -5.9225173553285015e-01 +5.8759105915813913e-03
3.0000000000000013e+00 +8.1647453280267097e+00 +0.0000000000000000e+00 +2.9999999855871509e+00 -3.2920595545792616e-02 -5.9225206177816925e-01 +5.8759980958409961e-03
3.1000000000000014e+00 +8.1647280669143942e+00 +0.0000000000000000e+00 +3.0999999840972876e+00 -3.2920869516754714e-02 -5.9225239701419563e-01 +5.8760880740205673e-03
3.2000000000000015e+00 +8.1647102398613107e+00 +0.0000000000000000e+00 +3.1999999825081349e+00 -3.2921135567025597e-02 -5.9225273985141669e-01 +5.8761806267033229e-03
3.3000000000000016e+00 +8.1646918468671323e+00 +0.0000000000000000e+00 +3.2999999808164904e+00 -3.2921392460340489e-02 -5.9225308890034001e-01 +5.8762758544690609e-03
3.4000000000000017e+00 +8.1646728879315269e+00 +0.0000000000000000e+00 +3.3999999790191509e+00 -3.2921638960405460e-02 -5.9225344277149461e-01 +5.8763738578939068e-03
3.5000000000000018e+00 +8.1646533630541569e+00 +0.0000000000000000e+00 +3.4999999771129131e+00 -3.2921873830895308e-02 -5.9225380007543416e-01 +5.8764747375501082e-03
3.6000000000000019e+00 +8.1646332722346813e+00 +0.0000000000000000e+00 +3.5999999750945744e+00 -3.2922095835451318e-02 -5.9225415942273762e-01 +5.8765785940057859e-03
3.7000000000000020e+00 +8.1646126154727590e+00 +0.0000000000000000e+00 +3.6999999729609319e+00 -3.2922303737679015e-02 -5.9225451942401319e-01 +5.8766855278247210e-03
3.8000000000000020e+00 +8.1645913927680454e+00 +0.0000000000000000e+00 +3.7999999707087824e+00 -3.2922496301145993e-02 -5.9225487868989801e-01 +5.8767956395661177e-03
3.9000000000000021e+00 +8.1645696041201976e+00 +0.0000000000000000e+00 +3.8999999683349231e+00 -3.2922672289379687e-02 -5.9225523583106165e-01 +5.8769090297843777e-03
4.0000000000000018e+00 +8.1645472495288764e+00 +0.0000000000000000e+00 +3.9999999658361509e+00 -3.2922830465865194e-02 -5.9225558945820767e-01 +5.8770257990288762e-03
4.1000000000000014e+00 +8.1645243289937426e+00 +0.0000000000000000e+00 +4.0999999632092630e+00 -3.2922970038836583e-02 -5.9225593841428315e-01 +5.8771459851846902e-03
4.2000000000000011e+00 +8.1645008425144656e+00 +0.0000000000000000e+00 +4.1999999604510556e+00 -3.2923091995677681e-02 -5.9225628247108086e-01 +5.8772693754978751e-03
4.3000000000000007e+00 +8.1644767900907169e+00 +0.0000000000000000e+00 +4.2999999575583265e+00 -3.2923197768576516e-02 -5.9225662163258808e-01 +5.8773956945577729e-03
4.4000000000000004e+00 +8.1644521717221732e+00 +0.0000000000000000e+00 +4.3999999545278730e+00 -3.2923288789737250e-02 -5.9225695590277239e-01 +5.8775246669571504e-03
4.5000000000000000e+00 +8.1644269874085147e+00 +0.0000000000000000e+00 +4.4999999513564912e+00 -3.2923366491381875e-02 -5.9225728528558130e-01 +5.8776560172925036e-03
4.5999999999999996e+00 +8.1644012371494288e+00 +0.0000000000000000e+00 +4.5999999480409786e+00 -3.2923432305751593e-02 -5.9225760978493980e-01 +5.8777894701643454e-03
4.6999999999999993e+00 +8.1643749209446046e+00 +0.0000000000000000e+00 +4.6999999445781322e+00 -3.2923487665108463e-02 -5.9225792940474997e-01 +5.8779247501774996e-03
4.7999999999999989e+00 +8.1643480387937384e+00 +0.0000000000000000e+00 +4.7999999409647485e+00 -3.2923534001736872e-02 -5.9225824414888828e-01 +5.8780615819413922e-03
4.8999999999999986e+00 +8.1643205906965317e+00 +0.0000000000000000e+00 +4.8999999371976246e+00 -3.2923572747945058e-02 -5.9225855402120586e-01 +5.8781996900703461e-03
4.9999999999999982e+00 +8.1642925766526879e+00 +0.0000000000000000e+00 +4.9999999332735579e+00 -3.2923605336066711e-02 -5.9225885902552544e-01 +5.8783387991838782e-03
5.0999999999999979e+00 +8.1642639966619157e+00 +0.0000000000000000e+00 +5.0999999291893445e+00 -3.2923633198462435e-02 -5.9225915916564120e-01 +5.8784786339069854e-03
5.1999999999999975e+00 +8.1642348507239308e+00 +0.0000000000000000e+00 +5.1999999249417828e+00 -3.2923657767521243e-02 -5.9225945444531736e-01 +5.8786189188704437e-03
5.2999999999999972e+00 +8.1642051388384509e+00 +0.0000000000000000e+00 +5.2999999205276689e+00 -3.2923680475662263e-02 -5.9225974486828581e-01 +5.8787593787110962e-03
5.3999999999999968e+00 +8.1641748610052005e+00 +0.0000000000000000e+00 +5.3999999159437992e+00 -3.2923702755336029e-02 -5.9226003043824504e-01 +5.8788997380721502e-03
5.4999999999999964e+00 +8.1641440172239079e+00 +0.0000000000000000e+00 +5.4999999111869711e+00 -3.2923726039026158e-02 -5.9226031115885935e-01 +5.8790397216034679e-03
5.5999999999999961e+00 +8.1641126074943049e+00 +0.0000000000000000e+00 +5.5999999062539816e+00 -3.2923751759250892e-02 -5.9226058703375728e-01 +5.8791790539618628e-03
5.6999999999999957e+00 +8.1640806318161285e+00 +0.0000000000000000e+00 +5.6999999011416280e+00 -3.2923781348564489e-02 -5.9226085806653028e-01 +5.8793174598113975e-03
5.7999999999999954e+00 +8.1640480901891213e+00 +0.0000000000000000e+00 +5.7999998958467067e+00 -3.2923816239558909e-02 -5.9226112426073008e-01 +5.8794546638236611e-03
5.8999999999999950e+00 +8.1640149826130290e+00 +0.0000000000000000e+00 +5.8999998903660149e+00 -3.2923857864865215e-02 -5.9226138561986941e-01 +5.8795903906780763e-03
5.9999999999999947e+00 +8.1639813090876050e+00 +0.0000000000000000e+00 +5.9999998846963498e+00 -3.2923907657155194e-02 -5.9226164214741883e-01 +5.8797243650621925e-03
6.0999999999999943e+00 +8.1639470696126040e+00 +0.0000000000000000e+00 +6.0999998788345078e+00 -3.2923966756040805e-02 -5.9226189385770112e-01 +5.8798563784768923e-03
6.1999999999999940e+00 +8.1639122641877861e+00 +0.0000000000000000e+00 +6.1999998727772860e+00 -3.2924035128749689e-02 -5.9226214080859307e-01 +5.8799864896476621e-03
6.2999999999999936e+00 +8.1638768928129171e+00 +0.0000000000000000e+00 +6.2999998665214818e+00 -3.2924112449405137e-02 -5.9226238306887902e-01 +5.8801148241011351e-03
6.3999999999999932e+00 +8.1638409554877658e+00 +0.0000000000000000e+00 +6.3999998600638914e+00 -3.2924198392125750e-02 -5.9226262070735947e-01 +5.8802415073582574e-03
6.4999999999999929e+00 +8.1638044522121067e+00 +0.0000000000000000e+00 +6.4999998534013121e+00 -3.2924292631025011e-02 -5.9226285379285626e-01 +5.8803666649340528e-03
6.5999999999999925e+00 +8.1637673829857196e+00 +0.0000000000000000e+00 +6.5999998465305403e+00 -3.2924394840210786e-02 -5.9226308239420900e-01 +5.8804904223372784e-03
6.6999999999999922e+00 +8.1637297478083859e+00 +0.0000000000000000e+00 +6.6999998394483740e+00 -3.2924504693784891e-02 -5.9226330658027915e-01 +5.8806129050701919e-03
6.7999999999999918e+00 +8.1636915466798925e+00 +0.0000000000000000e+00 +6.7999998321516095e+00 -3.2924621865842690e-02 -5.9226352641995106e-01 +5.8807342386282494e-03
6.8999999999999915e+00 +8.1636527796000316e+00 +0.0000000000000000e+00 +6.8999998246370433e+00 -3.2924746030472608e-02 -5.9226374198213172e-01 +5.8808545484998207e-03
6.9999999999999911e+00 +8.1636134465685970e+00 +0.0000000000000000e+00 +6.9999998169014725e+00 -3.2924876861755700e-02 -5.9226395333575288e-01 +5.8809739601659167e-03
7.0999999999999908e+00 +8.1635735475853881e+00 +0.0000000000000000e+00 +7.0999998089416945e+00 -3.2925014033765215e-02 -5.9226416054977160e-01 +5.8810925990998957e-03
7.1999999999999904e+00 +8.1635330826502095e+00 +0.0000000000000000e+00 +7.1999998007545054e+00 -3.2925157220566111e-02 -5.9226436369317159e-01 +5.8812105907671934e-03
7.2999999999999901e+00 +8.1634920517628675e+00 +0.0000000000000000e+00 +7.2999997923367026e+00 -3.2925306096214697e-02 -5.9226456283496509e-01 +5.8813280606250327e-03
7.3999999999999897e+00 +8.1634504549231739e+00 +0.0000000000000000e+00 +7.3999997836850833e+00 -3.2925460334758121e-02 -5.9226475804419165e-01 +5.8814451341221404e-03
7.4999999999999893e+00 +8.1634082921309421e+00 +0.0000000000000000e+00 +7.4999997747964438e+00 -3.2925619610233964e-02 -5.9226494938992236e-01 +5.8815619366984762e-03
7.5999999999999890e+00 +8.1633655633859910e+00 +0.0000000000000000e+00 +7.5999997656675813e+00 -3.2925783596669755e-02 -5.9226513694125826e-01 +5.8816785937849340e-03
7.6999999999999886e+00 +8.1633222686881428e+00 +0.0000000000000000e+00 +7.6999997562952931e+00 -3.2925951968082609e-02 -5.9226532076733274e-01 +5.8817952308030741e-03
7.7999999999999883e+00 +8.1632784080372236e+00 +0.0000000000000000e+00 +7.7999997466763755e+00 -3.2926124398478716e-02 -5.9226550093731278e-01 +5.8819119731648361e-03
7.8999999999999879e+00 +8.1632339814330628e+00 +0.0000000000000000e+00 +7.8999997368076258e+00 -3.2926300561852931e-02 -5.9226567752039960e-01 +5.8820289462722490e-03
7.9999999999999876e+00 +8.1631889888754934e+00 +0.0000000000000000e+00 +7.9999997266858403e+00 -3.2926480132188317e-02 -5.9226585058582915e-01 +5.8821462755171659e-03
8.0999999999999872e+00 +8.1631434303643502e+00 +0.0000000000000000e+00 +8.0999997163078170e+00 -3.2926662773155126e-02 -5.9226602048458354e-01 +5.8822640605461938e-03
8.1999999999999869e+00 +8.1630973058994734e+00 +0.0000000000000000e+00 +8.1999997056703524e+00 -3.2926848107205718e-02 -5.9226618869452607e-01 +5.8823822980614716e-03
8.2999999999999865e+00 +8.1630506154807030e+00 +0.0000000000000000e+00 +8.2999996947702428e+00 -3.2927035746472134e-02 -5.9226635697527563e-01 +5.8825009590362772e-03
8.3999999999999861e+00 +8.1630033591078792e+00 +0.0000000000000000e+00 +8.3999996836042854e+00 -3.2927225303065730e-02 -5.9226652708649630e-01 +5.8826200144520471e-03
8.4999999999999858e+00 +8.1629555367808404e+00 +0.0000000000000000e+00 +8.4999996721692757e+00 -3.2927416389076439e-02 -5.9226670078789612e-01 +5.8827394352986666e-03
8.5999999999999854e+00 +8.1629071484994231e+00 +0.0000000000000000e+00 +8.5999996604620126e+00 -3.2927608616572165e-02 -5.9226687983923121e-01 +5.8828591925747537e-03
8.6999999999999851e+00 +8.1628581942634568e+00 +0.0000000000000000e+00 +8.6999996484792916e+00 -3.2927801597598193e-02 -5.9226706600030399e-01 +5.8829792572879626e-03
8.7999999999999847e+00 +8.1628086740727657e+00 +0.0000000000000000e+00 +8.7999996362179118e+00 -3.2927994944176385e-02 -5.9226726103096705e-01 +5.8830996004552534e-03
8.8999999999999844e+00 +8.1627585879271649e+00 +0.0000000000000000e+00 +8.8999996236746668e+00 -3.2928188268304667e-02 -5.9226746669112318e-01 +5.8832201931032033e-03
8.9999999999999840e+00 +8.1627079358264591e+00 +0.0000000000000000e+00 +8.9999996108463556e+00 -3.2928381181956290e-02 -5.9226768474072622e-01 +5.8833410062682891e-03
9.0999999999999837e+00 +8.1626567177704423e+00 +0.0000000000000000e+00 +9.0999995977297754e+00 -3.2928573297079169e-02 -5.9226791693978309e-01 +5.8834620109971736e-03
9.1999999999999833e+00 +8.1626049337588924e+00 +0.0000000000000000e+00 +9.1999995843217217e+00 -3.2928764225595326e-02 -5.9226816504835489e-01 +5.8835831783470025e-03
9.2999999999999829e+00 +8.1625525837915749e+00 +0.0000000000000000e+00 +9.2999995706189917e+00 -3.2928953579400094e-02 -5.9226843082655811e-01 +5.8837044793856935e-03
9.3999999999999826e+00 +8.1624996678682376e+00 +0.0000000000000000e+00 +9.3999995566183827e+00 -3.2929140970361592e-02 -5.9226871603456477e-01 +5.8838258851922195e-03
9.4999999999999822e+00 +8.1624461859886086e+00 +0.0000000000000000e+00 +9.4999995423166901e+00 -3.2929326010319941e-02 -5.9226902243260571e-01 +5.8839473668569151e-03
9.5999999999999819e+00 +8.1623921381523985e+00 +0.0000000000000000e+00 +9.5999995277107129e+00 -3.2929508311086750e-02 -5.9226935178097018e-01 +5.8840688954817444e-03
9.6999999999999815e+00 +8.1623375243592928e+00 +0.0000000000000000e+00 +9.6999995127972465e+00 -3.2929687484444352e-02 -5.9226970584000838e-01 +5.8841904421806177e-03
9.7999999999999812e+00 +8.1622823446089541e+00 +0.0000000000000000e+00 +9.7999994975730882e+00 -3.2929863142145195e-02 -5.9227008637013034e-01 +5.8843119780796569e-03
9.8999999999999808e+00 +8.1622265989010216e+00 +0.0000000000000000e+00 +9.8999994820350334e+00 -3.2930034895911162e-02 -5.9227049513181051e-01 +5.8844334743175094e-03
9.9999999999999805e+00 +8.1621702872351047e+00 +0.0000000000000000e+00 +9.9999994661798794e+00 -3.2930202357432943e-02 -5.9227093388558638e-01 +5.8845549020456172e-03
1.0099999999999980e+01 +8.1621134096107877e+00 +0.0000000000000000e+00 +1.0099999450004423e+01 -3.2930365218946468e-02 -5.9227140375591403e-01 +5.8846762463652834e-03
1.0199999999999980e+01 +8.1620559660276228e+00 +0.0000000000000000e+00 +1.0199999433505463e+01 -3.2930523494991648e-02 -5.9227190332263757e-01 +5.8847975481304861e-03
1.0299999999999979e+01 +8.1619979564851359e+00 +0.0000000000000000e+00 +1.0299999416679793e+01 -3.2930677280718995e-02 -5.9227243052936096e-01 +5.8849188621220008e-03
1.0399999999999979e+01 +8.1619393809828225e+00 +0.0000000000000000e+00 +1.0399999399524210e+01 -3.2930826671316756e-02 -5.9227298331959843e-01 +5.8850402431077052e-03
1.0499999999999979e+01 +8.1618802395201584e+00 +0.0000000000000000e+00 +1.0499999382035512e+01 -3.2930971762011887e-02 -5.9227355963677353e-01 +5.8851617458422238e-03
1.0599999999999978e+01 +8.1618205320965949e+00 +0.0000000000000000e+00 +1.0599999364210495e+01 -3.2931112648071123e-02 -5.9227415742421574e-01 +5.8852834250665868e-03
1.0699999999999978e+01 +8.1617602587115616e+00 +0.0000000000000000e+00 +1.0699999346045955e+01 -3.2931249424801974e-02 -5.9227477462515776e-01 +5.8854053355078652e-03
1.0799999999999978e+01 +8.1616994193644725e+00 +0.0000000000000000e+00 +1.0799999327538689e+01 -3.2931382187553843e-02 -5.9227540918273369e-01 +5.8855275318788281e-03
1.0899999999999977e+01 +8.1616380140547218e+00 +0.0000000000000000e+00 +1.0899999308685494e+01 -3.2931511031719041e-02 -5.9227605903997582e-01 +5.8856500688775851e-03
1.0999999999999977e+01 +8.1615760427816912e+00 +0.0000000000000000e+00 +1.0999999289483165e+01 -3.2931636052733776e-02 -5.9227672213981275e-01 +5.8857730011872425e-03
1.1099999999999977e+01 +8.1615135055447503e+00 +0.0000000000000000e+00 +1.1099999269928500e+01 -3.2931757346079310e-02 -5.9227739642506638e-01 +5.8858963834755376e-03
1.1199999999999976e+01 +8.1614504023432559e+00 +0.0000000000000000e+00 +1.1199999250018294e+01 -3.2931875007282833e-02 -5.9227807983844860e-01 +5.8860202703944946e-03
1.1299999999999976e+01 +8.1613867331765579e+00 +0.0000000000000000e+00 +1.1299999229749345e+01 -3.2931989131918700e-02 -5.9227877032256149e-01 +5.8861447165800768e-03
1.1399999999999975e+01 +8.1613224980439973e+00 +0.0000000000000000e+00 +1.1399999209118448e+01 -3.2932099815609281e-02 -5.9227946581989110e-01 +5.8862697766518196e-03
1.1499999999999975e+01 +8.1612576969449133e+00 +0.0000000000000000e+00 +1.1499999188122400e+01 -3.2932207154026186e-02 -5.9228016427280861e-01 +5.8863955052124873e-03
1.1599999999999975e+01 +8.1611923298786397e+00 +0.0000000000000000e+00 +1.1599999166757998e+01 -3.2932311242891150e-02 -5.9228086362356369e-01 +5.8865219568477170e-03
1.1699999999999974e+01 +8.1611263968445105e+00 +0.0000000000000000e+00 +1.1699999145022037e+01 -3.2932412177977176e-02 -5.9228156181428659e-01 +5.8866491861256712e-03
1.1799999999999974e+01 +8.1610598978418611e+00 +0.0000000000000000e+00 +1.1799999122911315e+01 -3.2932510055109512e-02 -5.9228225678698154e-01 +5.8867772475966725e-03
