# field on trajectory
# s[mm] rx[mm] ry[mm] rz[mm] bx[T] by[T] bz[T]
0.0000000000000000e+00 +8.1530000000000094e+00 +0.0000000000000000e+00 +0.0000000000000000e+00 -2.9065315644965475e-02 -5.3637616285743683e-01 +5.2947136424148535e-03
1.0000000000000001e-01 +8.1529997159377707e+00 +0.0000000000000000e+00 +1.0008006405070299e-01 -2.9065305385127180e-02 -5.3637601338392282e-01 +5.2947023016620669e-03
2.0000000000000001e-01 +8.1529988637557800e+00 +0.0000000000000000e+00 +2.0016012809818201e-01 -2.9065303123069968e-02 -5.3637587713895729e-01 +5.2946930997725709e-03
2.9999999999999999e-01 +8.1529974434524792e+00 +0.0000000000000000e+00 +3.0024019213920999e-01 -2.9065308470859436e-02 -5.3637575357295952e-01 +5.2946860012321661e-03
4.0000000000000002e-01 +8.1529954550242092e+00 +0.0000000000000000e+00 +4.0032025617056399e-01 -2.9065321040564095e-02 -5.3637564213636357e-01 +5.2946809705271486e-03
5.0000000000000000e-01 +8.1529928984782600e+00 +0.0000000000000000e+00 +5.0040032018901703e-01 -2.9065340444249667e-02 -5.3637554227951911e-01 +5.2946779721432550e-03
5.9999999999999998e-01 +8.1529897738146193e+00 +0.0000000000000000e+00 +6.0048038419134497e-01 -2.9065366293985203e-02 -5.3637545345282878e-01 +5.2946769705669531e-03
6.9999999999999996e-01 +8.1529860810223909e+00 +0.0000000000000000e+00 +7.0056044817432195e-01 -2.9065398201843715e-02 -5.3637537510677258e-01 +5.2946779302856057e-03
8.0000000000000004e-01 +8.1529818201124709e+00 +0.0000000000000000e+00 +8.0064051213472498e-01 -2.9065435779888828e-02 -5.3637530669166922e-01 +5.2946808157849669e-03
9.0000000000000002e-01 +8.1529769910812302e+00 +0.0000000000000000e+00 +9.0072057606932698e-01 -2.9065478640187957e-02 -5.3637524765794242e-01 +5.2946855915517966e-03
1.0000000000000000e+00 +8.1529715939250291e+00 +0.0000000000000000e+00 +1.0008006399749001e+00 -2.9065526394805870e-02 -5.3637519745601492e-01 +5.2946922220727007e-03
1.1000000000000001e+00 +8.1529656286511507e+00 +0.0000000000000000e+00 +1.1008807038482300e+00 -2.9065578655799808e-02 -5.3637515553622817e-01 +5.2947006718332239e-03
1.2000000000000000e+00 +8.1529590952522994e+00 +0.0000000000000000e+00 +1.2009607676860801e+00 -2.9065635035228372e-02 -5.3637512134902920e-01 +5.2947109053196805e-03
1.3000000000000000e+00 +8.1529519937357708e+00 +0.0000000000000000e+00 +1.3010408314852300e+00 -2.9065695145139594e-02 -5.3637509434475794e-01 +5.2947228870168818e-03
1.3999999999999999e+00 +8.1529443240979198e+00 +0.0000000000000000e+00 +1.4011208952424601e+00 -2.9065758597579910e-02 -5.3637507397383277e-01 +5.2947365814099570e-03
1.5000000000000000e+00 +8.1529360863350995e+00 +0.0000000000000000e+00 +1.5012009589545301e+00 -2.9065825004589228e-02 -5.3637505968667354e-01 +5.2947519529834754e-03
1.6000000000000001e+00 +8.1529272804509691e+00 +0.0000000000000000e+00 +1.6012810226182299e+00 -2.9065893978197276e-02 -5.3637505093364479e-01 +5.2947689662207866e-03
1.7000000000000000e+00 +8.1529179064491508e+00 +0.0000000000000000e+00 +1.7013610862303301e+00 -2.9065965130425645e-02 -5.3637504716511208e-01 +5.2947875856045037e-03
1.8000000000000000e+00 +8.1529079643223703e+00 +0.0000000000000000e+00 +1.8014411497875999e+00 -2.9066038073291139e-02 -5.3637504783152046e-01 +5.2948077756172236e-03
1.8999999999999999e+00 +8.1528974540779000e+00 +0.0000000000000000e+00 +1.9015212132868200e+00 -2.9066112418795295e-02 -5.3637505238320904e-01 +5.2948295007395462e-03
2.0000000000000000e+00 +8.1528863757084800e+00 +0.0000000000000000e+00 +2.0016012767247702e+00 -2.9066187778935201e-02 -5.3637506027062454e-01 +5.2948527254521802e-03
2.1000000000000001e+00 +8.1528747292177304e+00 +0.0000000000000000e+00 +2.1016813400982199e+00 -2.9066263903526610e-02 -5.3637507114204586e-01 +5.2948774173091880e-03
2.2000000000000002e+00 +8.1528625146056601e+00 +0.0000000000000000e+00 +2.2017614034039301e+00 -2.9066341067886248e-02 -5.3637508540033207e-01 +5.2949035555892605e-03
2.2999999999999998e+00 +8.1528497318759001e+00 +0.0000000000000000e+00 +2.3018414666387002e+00 -2.9066419672552978e-02 -5.3637510362811058e-01 +5.2949311223656785e-03
2.3999999999999999e+00 +8.1528363810211903e+00 +0.0000000000000000e+00 +2.4019215297993002e+00 -2.9066500118077775e-02 -5.3637512640808471e-01 +5.2949600997139693e-03
2.5000000000000000e+00 +8.1528224620451493e+00 +0.0000000000000000e+00 +2.5020015928824901e+00 -2.9066582805016807e-02 -5.3637515432287464e-01 +5.2949904697104887e-03
2.6000000000000001e+00 +8.1528079749477893e+00 +0.0000000000000000e+00 +2.6020816558850601e+00 -2.9066668133938274e-02 -5.3637518795512462e-01 +5.2950222144336973e-03
2.7000000000000002e+00 +8.1527929197291105e+00 +0.0000000000000000e+00 +2.7021617188037701e+00 -2.9066756505422450e-02 -5.3637522788747372e-01 +5.2950553159640777e-03
2.7999999999999998e+00 +8.1527772963891003e+00 +0.0000000000000000e+00 +2.8022417816354102e+00 -2.9066848320063038e-02 -5.3637527470255775e-01 +5.2950897563843295e-03
2.8999999999999999e+00 +8.1527611049277802e+00 +0.0000000000000000e+00 +2.9023218443767500e+00 -2.9066943978468537e-02 -5.3637532898300821e-01 +5.2951255177795618e-03
3.0000000000000000e+00 +8.1527443453451305e+00 +0.0000000000000000e+00 +3.0024019070245598e+00 -2.9067043881263618e-02 -5.3637539131145173e-01 +5.2951625822374917e-03
3.1000000000000001e+00 +8.1527270176411495e+00 +0.0000000000000000e+00 +3.1024819695756198e+00 -2.9067148429090479e-02 -5.3637546227051025e-01 +5.2952009318486294e-03
3.2000000000000002e+00 +8.1527091218158603e+00 +0.0000000000000000e+00 +3.2025620320267101e+00 -2.9067258022610232e-02 -5.3637554244280083e-01 +5.2952405487064827e-03
3.2999999999999998e+00 +8.1526906578692397e+00 +0.0000000000000000e+00 +3.3026420943745900e+00 -2.9067373062504252e-02 -5.3637563241093500e-01 +5.2952814149077364e-03
3.3999999999999999e+00 +8.1526716258013003e+00 +0.0000000000000000e+00 +3.4027221566160502e+00 -2.9067493949475557e-02 -5.3637573275751849e-01 +5.2953235125524651e-03
3.5000000000000000e+00 +8.1526520256120403e+00 +0.0000000000000000e+00 +3.5028022187478500e+00 -2.9067621084250206e-02 -5.3637584406515204e-01 +5.2953668237443064e-03
3.6000000000000001e+00 +8.1526318572978198e+00 +0.0000000000000000e+00 +3.6028822807667802e+00 -2.9067754867579964e-02 -5.3637596691645606e-01 +5.2954113305909390e-03
3.7000000000000002e+00 +8.1526111208659096e+00 +0.0000000000000000e+00 +3.7029623426696099e+00 -2.9067895700238242e-02 -5.3637610189396523e-01 +5.2954570152031911e-03
3.7999999999999998e+00 +8.1525898163126804e+00 +0.0000000000000000e+00 +3.8030424044531101e+00 -2.9068043983029684e-02 -5.3637624958028773e-01 +5.2955038596968484e-03
3.8999999999999999e+00 +8.1525679436344909e+00 +0.0000000000000000e+00 +3.9031224661140600e+00 -2.9068200116787440e-02 -5.3637641055802410e-01 +5.2955518461920530e-03
4.0000000000000000e+00 +8.1525455028386205e+00 +0.0000000000000000e+00 +4.0032025276492398e+00 -2.9068364502361718e-02 -5.3637658540968081e-01 +5.2956009568130326e-03
4.0999999999999996e+00 +8.1525224939177896e+00 +0.0000000000000000e+00 +4.1032825890554099e+00 -2.9068537251225868e-02 -5.3637677445458898e-01 +5.2956511858685430e-03
4.2000000000000002e+00 +8.1524989168792708e+00 +0.0000000000000000e+00 +4.2033626503293604e+00 -2.9068717423051962e-02 -5.3637697705515552e-01 +5.2957025719289844e-03
4.2999999999999998e+00 +8.1524747717157897e+00 +0.0000000000000000e+00 +4.3034427114678504e+00 -2.9068903838619251e-02 -5.3637719235658987e-01 +5.2957551636150860e-03
4.4000000000000004e+00 +8.1524500584346207e+00 +0.0000000000000000e+00 +4.4035227724676700e+00 -2.9069095318663918e-02 -5.3637741950398399e-01 +5.2958090095431435e-03
4.5000000000000000e+00 +8.1524247770285001e+00 +0.0000000000000000e+00 +4.5036028333255800e+00 -2.9069290683887503e-02 -5.3637765764252598e-01 +5.2958641583268958e-03
4.5999999999999996e+00 +8.1523989275046898e+00 +0.0000000000000000e+00 +4.6036828940383696e+00 -2.9069488754943050e-02 -5.3637790591728507e-01 +5.2959206585750660e-03
4.7000000000000002e+00 +8.1523725098559208e+00 +0.0000000000000000e+00 +4.7037629546028104e+00 -2.9069688352443650e-02 -5.3637816347342626e-01 +5.2959785588932501e-03
4.7999999999999998e+00 +8.1523455240894709e+00 +0.0000000000000000e+00 +4.8038430150156701e+00 -2.9069888296948586e-02 -5.3637842945599512e-01 +5.2960379078814488e-03
4.9000000000000004e+00 +8.1523179701980606e+00 +0.0000000000000000e+00 +4.9039230752737302e+00 -2.9070087408971785e-02 -5.3637870301013213e-01 +5.2960987541359611e-03
5.0000000000000000e+00 +8.1522898481889605e+00 +0.0000000000000000e+00 +5.0040031353737602e+00 -2.9070284508968047e-02 -5.3637898328085698e-01 +5.2961611462469171e-03
5.0999999999999996e+00 +8.1522611580549000e+00 +0.0000000000000000e+00 +5.1040831953125396e+00 -2.9070478417341502e-02 -5.3637926941328395e-01 +5.2962251328001683e-03
5.2000000000000002e+00 +8.1522318997995207e+00 +0.0000000000000000e+00 +5.2041632550868497e+00 -2.9070667954433176e-02 -5.3637956055243274e-01 +5.2962907623750879e-03
5.2999999999999998e+00 +8.1522020734228100e+00 +0.0000000000000000e+00 +5.3042433146934496e+00 -2.9070851940523921e-02 -5.3637985584333592e-01 +5.2963580835453852e-03
5.4000000000000004e+00 +8.1521716789247893e+00 +0.0000000000000000e+00 +5.4043233741291203e+00 -2.9071029195830312e-02 -5.3638015443101172e-01 +5.2964271448785261e-03
5.5000000000000000e+00 +8.1521407163090807e+00 +0.0000000000000000e+00 +5.5044034333906504e+00 -2.9071198540500602e-02 -5.3638045546043633e-01 +5.2964979949351905e-03
5.5999999999999996e+00 +8.1521091855684098e+00 +0.0000000000000000e+00 +5.6044834924747899e+00 -2.9071358794617679e-02 -5.3638075807665131e-01 +5.2965706822700621e-03
5.7000000000000002e+00 +8.1520770867064094e+00 +0.0000000000000000e+00 +5.7045635513783299e+00 -2.9071508778187958e-02 -5.3638106142460218e-01 +5.2966452554299081e-03
5.7999999999999998e+00 +8.1520444197231008e+00 +0.0000000000000000e+00 +5.8046436100980499e+00 -2.9071647311144307e-02 -5.3638136464924457e-01 +5.2967217629543767e-03
5.9000000000000004e+00 +8.1520111846184609e+00 +0.0000000000000000e+00 +5.9047236686307096e+00 -2.9071773213342037e-02 -5.3638166689551869e-01 +5.2968002533754534e-03
5.9999999999999902e+00 +8.1519773813925003e+00 +0.0000000000000000e+00 +6.0048037269731003e+00 -2.9071885304603785e-02 -5.3638196730835996e-01 +5.2968807752149212e-03
6.0999999999999899e+00 +8.1519430100452208e+00 +0.0000000000000000e+00 +6.1048837851219799e+00 -2.9071982899991002e-02 -5.3638226516312237e-01 +5.2969633538325848e-03
6.1999999999999904e+00 +8.1519080705766100e+00 +0.0000000000000000e+00 +6.2049638430741396e+00 -2.9072067030720058e-02 -5.3638256018710073e-01 +5.2970479343603704e-03
6.2999999999999901e+00 +8.1518725629866804e+00 +0.0000000000000000e+00 +6.3050439008263499e+00 -2.9072139099497254e-02 -5.3638285220544668e-01 +5.2971344445679434e-03
6.3999999999999897e+00 +8.1518364872754301e+00 +0.0000000000000000e+00 +6.4051239583753699e+00 -2.9072200509096525e-02 -5.3638314104336482e-01 +5.2972228122262462e-03
6.4999999999999902e+00 +8.1517998434428591e+00 +0.0000000000000000e+00 +6.5052040157180002e+00 -2.9072252662362762e-02 -5.3638342652611359e-01 +5.2973129651076060e-03
6.5999999999999899e+00 +8.1517626314889604e+00 +0.0000000000000000e+00 +6.6052840728510001e+00 -2.9072296962215277e-02 -5.3638370847900763e-01 +5.2974048309858395e-03
6.6999999999999904e+00 +8.1517248514137499e+00 +0.0000000000000000e+00 +6.7053641297711399e+00 -2.9072334811651224e-02 -5.3638398672742160e-01 +5.2974983376363801e-03
6.7999999999999901e+00 +8.1516865032135701e+00 +0.0000000000000000e+00 +6.8054441864752100e+00 -2.9072367613750375e-02 -5.3638426109681681e-01 +5.2975934128366500e-03
6.8999999999999897e+00 +8.1516475868957095e+00 +0.0000000000000000e+00 +6.9055242429599701e+00 -2.9072396771672948e-02 -5.3638453141263898e-01 +5.2976899843650864e-03
6.9999999999999902e+00 +8.1516081024565192e+00 +0.0000000000000000e+00 +7.0056042992222096e+00 -2.9072423688671436e-02 -5.3638479750047963e-01 +5.2977879800028974e-03
7.0999999999999899e+00 +8.1515680498960101e+00 +0.0000000000000000e+00 +7.1056843552586999e+00 -2.9072449768088364e-02 -5.3638505918597146e-01 +5.2978873275330617e-03
7.1999999999999904e+00 +8.1515274292141804e+00 +0.0000000000000000e+00 +7.2057644110662000e+00 -2.9072476413361161e-02 -5.3638531629481845e-01 +5.2979879547407471e-03
7.2999999999999901e+00 +8.1514862404073902e+00 +0.0000000000000000e+00 +7.3058444666415099e+00 -2.9072505028026916e-02 -5.3638556865282327e-01 +5.2980897894136687e-03
7.3999999999999897e+00 +8.1514444834829192e+00 +0.0000000000000000e+00 +7.4059245219813796e+00 -2.9072537015720202e-02 -5.3638581608578417e-01 +5.2981927593411162e-03
7.4999999999999902e+00 +8.1514021584334806e+00 +0.0000000000000000e+00 +7.5060045770826100e+00 -2.9072573780186333e-02 -5.3638605841968390e-01 +5.2982967923159941e-03
7.5999999999999899e+00 +8.1513592652663593e+00 +0.0000000000000000e+00 +7.6060846319419504e+00 -2.9072616725273441e-02 -5.3638629548047811e-01 +5.2984018161327329e-03
7.6999999999999904e+00 +8.1513158039779192e+00 +0.0000000000000000e+00 +7.7061646865561997e+00 -2.9072667254945811e-02 -5.3638652709428425e-01 +5.2985077585893173e-03
7.7999999999999901e+00 +8.1512717745681602e+00 +0.0000000000000000e+00 +7.8062447409221098e+00 -2.9072726773281654e-02 -5.3638675308727879e-01 +5.2986145474863107e-03
7.8999999999999897e+00 +8.1512271770334301e+00 +0.0000000000000000e+00 +7.9063247950364799e+00 -2.9072796684479204e-02 -5.3638697328575047e-01 +5.2987221106275137e-03
7.9999999999999902e+00 +8.1511820113773901e+00 +0.0000000000000000e+00 +8.0064048488960609e+00 -2.9072878392747012e-02 -5.3638718751603531e-01 +5.2988303758239675e-03
8.0999999999999908e+00 +8.1511362776036496e+00 +0.0000000000000000e+00 +8.1064849024976393e+00 -2.9072972801511429e-02 -5.3638739565369664e-01 +5.2989392924913409e-03
8.1999999999999904e+00 +8.1510899757086008e+00 +0.0000000000000000e+00 +8.2065649558379903e+00 -2.9073079159318976e-02 -5.3638759773674238e-01 +5.2990488814187277e-03
8.2999999999999901e+00 +8.1510431056885899e+00 +0.0000000000000000e+00 +8.3066450089139003e+00 -2.9073196373372651e-02 -5.3638779383664736e-01 +5.2991591781192124e-03
8.3999999999999897e+00 +8.1509956675508892e+00 +0.0000000000000000e+00 +8.4067250617221205e+00 -2.9073323350821169e-02 -5.3638798402478371e-01 +5.2992702181105999e-03
8.4999999999999893e+00 +8.1509476612882299e+00 +0.0000000000000000e+00 +8.5068051142594392e+00 -2.9073458998766653e-02 -5.3638816837260661e-01 +5.2993820369175038e-03
8.5999999999999908e+00 +8.1508990869078808e+00 +0.0000000000000000e+00 +8.6068851665226305e+00 -2.9073602224251455e-02 -5.3638834695143955e-01 +5.2994946700693291e-03
8.6999999999999904e+00 +8.1508499444025801e+00 +0.0000000000000000e+00 +8.7069652185084596e+00 -2.9073751934267311e-02 -5.3638851983268687e-01 +5.2996081531026199e-03
8.7999999999999794e+00 +8.1508002337759500e+00 +0.0000000000000000e+00 +8.8070452702137203e+00 -2.9073907035743470e-02 -5.3638868708764487e-01 +5.2997225215593293e-03
8.8999999999999808e+00 +8.1507499550316407e+00 +0.0000000000000000e+00 +8.9071253216351796e+00 -2.9074066435548881e-02 -5.3638884878758109e-01 +5.2998378109877986e-03
8.9999999999999805e+00 +8.1506991081623692e+00 +0.0000000000000000e+00 +9.0072053727696098e+00 -2.9074229040494375e-02 -5.3638900500381381e-01 +5.2999540569437474e-03
9.0999999999999801e+00 +8.1506476931717806e+00 +0.0000000000000000e+00 +9.1072854236137797e+00 -2.9074393757322212e-02 -5.3638915580755009e-01 +5.3000712949888042e-03
9.1999999999999797e+00 +8.1505957100635005e+00 +0.0000000000000000e+00 +9.2073654741644795e+00 -2.9074559492708235e-02 -5.3638930126996365e-01 +5.3001895606915039e-03
9.2999999999999794e+00 +8.1505431588302599e+00 +0.0000000000000000e+00 +9.3074455244184708e+00 -2.9074725153264078e-02 -5.3638944146227585e-01 +5.3003088896282522e-03
9.3999999999999808e+00 +8.1504900394757005e+00 +0.0000000000000000e+00 +9.4075255743725297e+00 -2.9074889645526677e-02 -5.3638957645559182e-01 +5.3004293173818792e-03
9.4999999999999805e+00 +8.1504363520034495e+00 +0.0000000000000000e+00 +9.5076056240234408e+00 -2.9075051875960510e-02 -5.3638970632098204e-01 +5.3005508795426204e-03
9.5999999999999801e+00 +8.1503820964062506e+00 +0.0000000000000000e+00 +9.6076856733679694e+00 -2.9075210750959705e-02 -5.3638983112955885e-01 +5.3006736117090928e-03
9.6999999999999797e+00 +8.1503272726913600e+00 +0.0000000000000000e+00 +9.7077657224029004e+00 -2.9075365176836229e-02 -5.3638995095228859e-01 +5.3007975494865677e-03
9.7999999999999794e+00 +8.1502718808515109e+00 +0.0000000000000000e+00 +9.8078457711250007e+00 -2.9075514059829100e-02 -5.3639006586020610e-01 +5.3009227284893084e-03
9.8999999999999808e+00 +8.1502159208903304e+00 +0.0000000000000000e+00 +9.9079258195310498e+00 -2.9075656306092490e-02 -5.3639017592422378e-01 +5.3010491843388389e-03
9.9999999999999805e+00 +8.1501593928078400e+00 +0.0000000000000000e+00 +1.0008005867617801e+01 -2.9075790821842914e-02 -5.3639028121530585e-01 +5.3011769526469712e-03
1.0100000000000000e+01 +8.1501022966040200e+00 +0.0000000000000000e+00 +1.0108085915382100e+01 -2.9075916865917113e-02 -5.3639038196882249e-01 +5.3013060242548650e-03
1.0199999999999999e+01 +8.1500446322825209e+00 +0.0000000000000000e+00 +1.0208165962820599e+01 -2.9076034808555962e-02 -5.3639047893829039e-01 +5.3014362488990087e-03
1.0300000000000001e+01 +8.1499863998360507e+00 +0.0000000000000000e+00 +1.0308246009930199e+01 -2.9076145238390659e-02 -5.3639057297907744e-01 +5.3015674485906222e-03
1.0400000000000000e+01 +8.1499275992682705e+00 +0.0000000000000000e+00 +1.0408326056707599e+01 -2.9076248744054772e-02 -5.3639066494641785e-01 +5.3016994453393973e-03
1.0500000000000000e+01 +8.1498682305791608e+00 +0.0000000000000000e+00 +1.0508406103149600e+01 -2.9076345914190217e-02 -5.3639075569551808e-01 +5.3018320611545383e-03
1.0600000000000000e+01 +8.1498082937723701e+00 +0.0000000000000000e+00 +1.0608486149253000e+01 -2.9076437337444663e-02 -5.3639084608150178e-01 +5.3019651180441652e-03
1.0699999999999999e+01 +8.1497477888406102e+00 +0.0000000000000000e+00 +1.0708566195014500e+01 -2.9076523602477408e-02 -5.3639093695951501e-01 +5.3020984380163193e-03
1.0800000000000001e+01 +8.1496867157875403e+00 +0.0000000000000000e+00 +1.0808646240430900e+01 -2.9076605297951238e-02 -5.3639102918456483e-01 +5.3022318430773121e-03
1.0900000000000000e+01 +8.1496250746131391e+00 +0.0000000000000000e+00 +1.0908726285499000e+01 -2.9076683012538351e-02 -5.3639112361162500e-01 +5.3023651552327319e-03
1.1000000000000000e+01 +8.1495628653174208e+00 +0.0000000000000000e+00 +1.1008806330215601e+01 -2.9076757334919139e-02 -5.3639122109560688e-01 +5.3024981964871236e-03
1.1100000000000000e+01 +8.1495000879040198e+00 +0.0000000000000000e+00 +1.1108886374577500e+01 -2.9076828853781111e-02 -5.3639132249133270e-01 +5.3026307888436579e-03
1.1199999999999999e+01 +8.1494367423620098e+00 +0.0000000000000000e+00 +1.1208966418581401e+01 -2.9076898157826121e-02 -5.3639142865366662e-01 +5.3027627543054392e-03
1.1300000000000001e+01 +8.1493728287059604e+00 +0.0000000000000000e+00 +1.1309046462224000e+01 -2.9076965835755270e-02 -5.3639154043722026e-01 +5.3028939148724585e-03
1.1400000000000000e+01 +8.1493083469249505e+00 +0.0000000000000000e+00 +1.1409126505502300e+01 -2.9077032476288747e-02 -5.3639165869672523e-01 +5.3030240925453394e-03
1.1500000000000000e+01 +8.1492432970226201e+00 +0.0000000000000000e+00 +1.1509206548412800e+01 -2.9077098668150673e-02 -5.3639178428673706e-01 +5.3031531093223018e-03
1.1600000000000000e+01 +8.1491776789989707e+00 +0.0000000000000000e+00 +1.1609286590952600e+01 -2.9077165000076420e-02 -5.3639191806176778e-01 +5.3032807872004520e-03
1.1699999999999999e+01 +8.1491114928576298e+00 +0.0000000000000000e+00 +1.1709366633118099e+01 -2.9077232060809980e-02 -5.3639206087623237e-01 +5.3034069481751999e-03
1.1800000000000001e+01 +8.1490447385876905e+00 +0.0000000000000000e+00 +1.1809446674906400e+01 -2.9077300439111362e-02 -5.3639221358457900e-01 +5.3035314142415536e-03
