# field on trajectory
# s[mm] rx[mm] ry[mm] rz[mm] bx[T] by[T] bz[T]
0.0000000000000000e+00 +8.1649999999999991e+00 +0.0000000000000000e+00 +0.0000000000000000e+00 -3.2281150847185455e-02 -5.9265346861893442e-01 +5.8925157514968188e-03
-1.0000000000000001e-01 +8.1649997168379578e+00 +0.0000000000000000e+00 -9.9999999999465461e-02 -3.2281160509189347e-02 -5.9265363739574628e-01 +5.8925351052076169e-03
-2.0000000000000001e-01 +8.1649988673517253e+00 +0.0000000000000000e+00 -1.9999999999572368e-01 -3.2281176679517264e-02 -5.9265380660629052e-01 +5.8925551527237753e-03
-3.0000000000000004e-01 +8.1649974515411419e+00 +0.0000000000000000e+00 -2.9999999998556748e-01 -3.2281198203252141e-02 -5.9265397672128661e-01 +5.8925760716204085e-03
-4.0000000000000002e-01 +8.1649954694060440e+00 +0.0000000000000000e+00 -3.9999999996578955e-01 -3.2281223925462940e-02 -5.9265414821142937e-01 +5.8925980394720382e-03
-5.0000000000000000e-01 +8.1649929209462666e+00 +0.0000000000000000e+00 -4.9999999993318267e-01 -3.2281252691206422e-02 -5.9265432154739595e-01 +5.8926212338528405e-03
-5.9999999999999998e-01 +8.1649898061616462e+00 +0.0000000000000000e+00 -5.9999999988453956e-01 -3.2281283345528891e-02 -5.9265449719985219e-01 +5.8926458323368697e-03
-6.9999999999999996e-01 +8.1649861250520139e+00 +0.0000000000000000e+00 -6.9999999981665306e-01 -3.2281314733467667e-02 -5.9265467563945617e-01 +5.8926720124982766e-03
-7.9999999999999993e-01 +8.1649818776171994e+00 +0.0000000000000000e+00 -7.9999999972631586e-01 -3.2281345700053032e-02 -5.9265485733686651e-01 +5.8926999519115474e-03
-8.9999999999999991e-01 +8.1649770638570285e+00 +0.0000000000000000e+00 -8.9999999961032073e-01 -3.2281375090309712e-02 -5.9265504276274672e-01 +5.8927298281517271e-03
-9.9999999999999989e-01 +8.1649716837713253e+00 +0.0000000000000000e+00 -9.9999999946546048e-01 -3.2281401749258608e-02 -5.9265523238777162e-01 +5.8927618187946474e-03
-1.0999999999999999e+00 +8.1649657373599087e+00 +0.0000000000000000e+00 -1.0999999992885279e+00 -3.2281424521918560e-02 -5.9265542668263271e-01 +5.8927961014171581e-03
-1.2000000000000000e+00 +8.1649592246225922e+00 +0.0000000000000000e+00 -1.1999999990763155e+00 -3.2281442253307951e-02 -5.9265562611804457e-01 +5.8928328535973514e-03
-1.3000000000000000e+00 +8.1649521455591856e+00 +0.0000000000000000e+00 -1.2999999988256161e+00 -3.2281453788446407e-02 -5.9265583116474974e-01 +5.8928722529147867e-03
-1.4000000000000001e+00 +8.1649445001694936e+00 +0.0000000000000000e+00 -1.3999999985332225e+00 -3.2281457972356445e-02 -5.9265604229352586e-01 +5.8929144769507245e-03
-1.5000000000000002e+00 +8.1649362884533154e+00 +0.0000000000000000e+00 -1.4999999981959276e+00 -3.2281453650065267e-02 -5.9265625997519034e-01 +5.8929597032883561e-03
-1.6000000000000003e+00 +8.1649275104104415e+00 +0.0000000000000000e+00 -1.5999999978105237e+00 -3.2281439666606293e-02 -5.9265648468060617e-01 +5.8930081095130270e-03
-1.7000000000000004e+00 +8.1649181660406587e+00 +0.0000000000000000e+00 -1.6999999973738038e+00 -3.2281414867020977e-02 -5.9265671688068888e-01 +5.8930598732124589e-03
-1.8000000000000005e+00 +8.1649082553437449e+00 +0.0000000000000000e+00 -1.7999999968825606e+00 -3.2281378096360412e-02 -5.9265695704641130e-01 +5.8931151719769908e-03
-1.9000000000000006e+00 +8.1648977783194709e+00 +0.0000000000000000e+00 -1.8999999963335867e+00 -3.2281328199687022e-02 -5.9265720564880942e-01 +5.8931741833997998e-03
-2.0000000000000004e+00 +8.1648867349675989e+00 +0.0000000000000000e+00 -1.9999999957236749e+00 -3.2281264022076296e-02 -5.9265746315898904e-01 +5.8932370850771259e-03
-2.1000000000000005e+00 +8.1648751252878835e+00 +0.0000000000000000e+00 -2.0999999950496178e+00 -3.2281184842120753e-02 -5.9265772986328724e-01 +5.8933039999828985e-03
-2.2000000000000006e+00 +8.1648629492800708e+00 +0.0000000000000000e+00 -2.1999999943082083e+00 -3.2281091672432712e-02 -5.9265800530872614e-01 +5.8933748325914193e-03
-2.3000000000000007e+00 +8.1648502069438980e+00 +0.0000000000000000e+00 -2.2999999934962387e+00 -3.2280985959126783e-02 -5.9265828885749527e-01 +5.8934494327530203e-03
-2.4000000000000008e+00 +8.1648368982790949e+00 +0.0000000000000000e+00 -2.3999999926105025e+00 -3.2280869148315378e-02 -5.9265857987178838e-01 +5.8935276503194918e-03
-2.5000000000000009e+00 +8.1648230232853827e+00 +0.0000000000000000e+00 -2.4999999916477917e+00 -3.2280742686108164e-02 -5.9265887771379733e-01 +5.8936093351440585e-03
-2.6000000000000010e+00 +8.1648085819624772e+00 +0.0000000000000000e+00 -2.5999999906048989e+00 -3.2280608018611684e-02 -5.9265918174571031e-01 +5.8936943370813564e-03
-2.7000000000000011e+00 +8.1647935743100888e+00 +0.0000000000000000e+00 -2.6999999894786173e+00 -3.2280466591928701e-02 -5.9265949132970897e-01 +5.8937825059874032e-03
-2.8000000000000012e+00 +8.1647780003279227e+00 +0.0000000000000000e+00 -2.7999999882657391e+00 -3.2280319852157777e-02 -5.9265980582796396e-01 +5.8938736917195861e-03
-2.9000000000000012e+00 +8.1647618600156786e+00 +0.0000000000000000e+00 -2.8999999869630573e+00 -3.2280169245392711e-02 -5.9266012460263373e-01 +5.8939677441366212e-03
-3.0000000000000013e+00 +8.1647451533730528e+00 +0.0000000000000000e+00 -2.9999999855673640e+00 -3.2280016217722043e-02 -5.9266044701585852e-01 +5.8940645130985490e-03
-3.1000000000000014e+00 +8.1647278803997381e+00 +0.0000000000000000e+00 -3.0999999840754522e+00 -3.2279862215228564e-02 -5.9266077242976034e-01 +5.8941638484666867e-03
-3.2000000000000015e+00 +8.1647100410954234e+00 +0.0000000000000000e+00 -3.1999999824841145e+00 -3.2279708683988724e-02 -5.9266110020643692e-01 +5.8942656001036257e-03
-3.3000000000000016e+00 +8.1646916354597963e+00 +0.0000000000000000e+00 -3.2999999807901439e+00 -3.2279557070072282e-02 -5.9266142970796087e-01 +5.8943696178731953e-03
-3.4000000000000017e+00 +8.1646726634925422e+00 +0.0000000000000000e+00 -3.3999999789903326e+00 -3.2279408819541569e-02 -5.9266176029637452e-01 +5.8944757516404458e-03
-3.5000000000000018e+00 +8.1646531251933467e+00 +0.0000000000000000e+00 -3.4999999770814734e+00 -3.2279265378451182e-02 -5.9266209133368875e-01 +5.8945838512716132e-03
-3.6000000000000019e+00 +8.1646330205618938e+00 +0.0000000000000000e+00 -3.5999999750603586e+00 -3.2279128192847326e-02 -5.9266242218187759e-01 +5.8946937666341142e-03
-3.7000000000000020e+00 +8.1646123495978671e+00 +0.0000000000000000e+00 -3.6999999729237811e+00 -3.2278998708767374e-02 -5.9266275220287645e-01 +5.8948053475964997e-03
-3.8000000000000020e+00 +8.1645911123009540e+00 +0.0000000000000000e+00 -3.7999999706685337e+00 -3.2278878372239320e-02 -5.9266308075857910e-01 +5.8949184440284484e-03
-3.9000000000000021e+00 +8.1645693086708402e+00 +0.0000000000000000e+00 -3.8999999682914086e+00 -3.2278768629281286e-02 -5.9266340721083377e-01 +5.8950329058007345e-03
-4.0000000000000018e+00 +8.1645469387072129e+00 +0.0000000000000000e+00 -3.9999999657891987e+00 -3.2278670925900990e-02 -5.9266373092143987e-01 +5.8951485827852092e-03
-4.1000000000000014e+00 +8.1645240024097667e+00 +0.0000000000000000e+00 -4.0999999631586963e+00 -3.2278586218311298e-02 -5.9266405140482037e-01 +5.8952653492139254e-03
-4.2000000000000011e+00 +8.1645004997781943e+00 +0.0000000000000000e+00 -4.1999999603966938e+00 -3.2278513503583128e-02 -5.9266436878605788e-01 +5.8953831767553514e-03
-4.3000000000000007e+00 +8.1644764308121918e+00 +0.0000000000000000e+00 -4.2999999574999848e+00 -3.2278451289011363e-02 -5.9266468334289013e-01 +5.8955020614343562e-03
-4.4000000000000004e+00 +8.1644517955114608e+00 +0.0000000000000000e+00 -4.3999999544653612e+00 -3.2278398081902381e-02 -5.9266499535303774e-01 +5.8956219992724055e-03
-4.5000000000000000e+00 +8.1644265938757048e+00 +0.0000000000000000e+00 -4.4999999512896149e+00 -3.2278352389574848e-02 -5.9266530509420401e-01 +5.8957429862872912e-03
-4.5999999999999996e+00 +8.1644008259046270e+00 +0.0000000000000000e+00 -4.5999999479695397e+00 -3.2278312719360561e-02 -5.9266561284407271e-01 +5.8958650184928740e-03
-4.6999999999999993e+00 +8.1643744915979362e+00 +0.0000000000000000e+00 -4.6999999445019274e+00 -3.2278277578605179e-02 -5.9266591888030895e-01 +5.8959880918988058e-03
-4.7999999999999989e+00 +8.1643475909553391e+00 +0.0000000000000000e+00 -4.7999999408835707e+00 -3.2278245474669232e-02 -5.9266622348055775e-01 +5.8961122025102770e-03
-4.8999999999999986e+00 +8.1643201239765446e+00 +0.0000000000000000e+00 -4.8999999371112626e+00 -3.2278214914928771e-02 -5.9266652692244359e-01 +5.8962373463277325e-03
-4.9999999999999982e+00 +8.1642920906612648e+00 +0.0000000000000000e+00 -4.9999999331817948e+00 -3.2278184406776246e-02 -5.9266682948356852e-01 +5.8963635193466099e-03
-5.0999999999999979e+00 +8.1642634910092120e+00 +0.0000000000000000e+00 -5.0999999290919602e+00 -3.2278152457621286e-02 -5.9266713144151273e-01 +5.8964907175570866e-03
-5.1999999999999975e+00 +8.1642343250200984e+00 +0.0000000000000000e+00 -5.1999999248385516e+00 -3.2278117574891622e-02 -5.9266743307383452e-01 +5.8966189369437936e-03
-5.2999999999999972e+00 +8.1642045926936362e+00 +0.0000000000000000e+00 -5.2999999204183617e+00 -3.2278078266033752e-02 -5.9266773465806621e-01 +5.8967481734855526e-03
-5.3999999999999968e+00 +8.1641742940295376e+00 +0.0000000000000000e+00 -5.3999999158281824e+00 -3.2278033038513947e-02 -5.9266803647171795e-01 +5.8968784231551242e-03
-5.4999999999999964e+00 +8.1641434290275168e+00 +0.0000000000000000e+00 -5.4999999110648066e+00 -3.2277980399818898e-02 -5.9266833879227343e-01 +5.8970096819189180e-03
-5.5999999999999961e+00 +8.1641119976872840e+00 +0.0000000000000000e+00 -5.5999999061250270e+00 -3.2277918857456622e-02 -5.9266864189719071e-01 +5.8971419457367474e-03
-5.6999999999999957e+00 +8.1640800000085516e+00 +0.0000000000000000e+00 -5.6999999010056364e+00 -3.2277846918957298e-02 -5.9266894606390130e-01 +5.8972752105615383e-03
-5.7999999999999954e+00 +8.1640474359910300e+00 +0.0000000000000000e+00 -5.7999998957034267e+00 -3.2277763091874023e-02 -5.9266925156980943e-01 +5.8974094723390933e-03
-5.8999999999999950e+00 +8.1640143056344279e+00 +0.0000000000000000e+00 -5.8999998902151898e+00 -3.2277665883783717e-02 -5.9266955869229043e-01 +5.8975447270077971e-03
-5.9999999999999947e+00 +8.1639806089384521e+00 +0.0000000000000000e+00 -5.9999998845377194e+00 -3.2277553802287876e-02 -5.9266986770869257e-01 +5.8976809704983620e-03
-6.0999999999999943e+00 +8.1639463459028097e+00 +0.0000000000000000e+00 -6.0999998786678074e+00 -3.2277425829438780e-02 -5.9267017894997009e-01 +5.8978182001761846e-03
-6.1999999999999940e+00 +8.1639115165272038e+00 +0.0000000000000000e+00 -6.1999998726022465e+00 -3.2277282845018455e-02 -5.9267049296162466e-01 +5.8979564191719812e-03
-6.2999999999999936e+00 +8.1638761208113362e+00 +0.0000000000000000e+00 -6.2999998663378296e+00 -3.2277126203251925e-02 -5.9267081034283853e-01 +5.8980956320591861e-03
-6.3999999999999932e+00 +8.1638401587549048e+00 +0.0000000000000000e+00 -6.3999998598713486e+00 -3.2276957258377703e-02 -5.9267113169284369e-01 +5.8982358434121508e-03
-6.4999999999999929e+00 +8.1638036303576023e+00 +0.0000000000000000e+00 -6.4999998531995953e+00 -3.2276777364648096e-02 -5.9267145761092732e-01 +5.8983770578062544e-03
-6.5999999999999925e+00 +8.1637665356191178e+00 +0.0000000000000000e+00 -6.5999998463193634e+00 -3.2276587876329470e-02 -5.9267178869643145e-01 +5.8985192798180130e-03
-6.6999999999999922e+00 +8.1637288745391388e+00 +0.0000000000000000e+00 -6.6999998392274449e+00 -3.2276390147702422e-02 -5.9267212554875637e-01 +5.8986625140251712e-03
-6.7999999999999918e+00 +8.1636906471173418e+00 +0.0000000000000000e+00 -6.7999998319206325e+00 -3.2276185533062211e-02 -5.9267246876736412e-01 +5.8988067650068221e-03
-6.8999999999999915e+00 +8.1636518533534019e+00 +0.0000000000000000e+00 -6.8999998243957181e+00 -3.2275975386718843e-02 -5.9267281895177937e-01 +5.8989520373435014e-03
-6.9999999999999911e+00 +8.1636124932469851e+00 +0.0000000000000000e+00 -6.9999998166494946e+00 -3.2275761062997448e-02 -5.9267317670159281e-01 +5.8990983356172937e-03
-7.0999999999999908e+00 +8.1635725667977503e+00 +0.0000000000000000e+00 -7.0999998086787537e+00 -3.2275543916238554e-02 -5.9267354261646299e-01 +5.8992456644119387e-03
-7.1999999999999904e+00 +8.1635320740053494e+00 +0.0000000000000000e+00 -7.1999998004802883e+00 -3.2275325300798276e-02 -5.9267391729612040e-01 +5.8993940283129367e-03
-7.2999999999999901e+00 +8.1634910148694253e+00 +0.0000000000000000e+00 -7.2999997920508912e+00 -3.2275106571048623e-02 -5.9267430134036680e-01 +5.8995434319076461e-03
-7.3999999999999897e+00 +8.1634493893896121e+00 +0.0000000000000000e+00 -7.3999997833873543e+00 -3.2274889081377739e-02 -5.9267469534908046e-01 +5.8996938797853888e-03
-7.4999999999999893e+00 +8.1634071975655349e+00 +0.0000000000000000e+00 -7.4999997744864704e+00 -3.2274674186190212e-02 -5.9267509992221823e-01 +5.8998453765375641e-03
-7.5999999999999890e+00 +8.1633644393968101e+00 +0.0000000000000000e+00 -7.5999997653450313e+00 -3.2274463239907319e-02 -5.9267551565981613e-01 +5.8999979267577380e-03
-7.6999999999999886e+00 +8.1633211148830398e+00 +0.0000000000000000e+00 -7.6999997559598299e+00 -3.2274257596967226e-02 -5.9267594316199412e-01 +5.9001515350417637e-03
-7.7999999999999883e+00 +8.1632772240238172e+00 +0.0000000000000000e+00 -7.7999997463276580e+00 -3.2274058611825300e-02 -5.9267638302895653e-01 +5.9003062059878640e-03
-7.8999999999999879e+00 +8.1632327668187230e+00 +0.0000000000000000e+00 -7.8999997364453085e+00 -3.2273867638954450e-02 -5.9267683586099695e-01 +5.9004619441967590e-03
-7.9999999999999876e+00 +8.1631877432673274e+00 +0.0000000000000000e+00 -7.9999997263095732e+00 -3.2273686032845229e-02 -5.9267730225849746e-01 +5.9006187542717525e-03
-8.0999999999999872e+00 +8.1631421533691846e+00 +0.0000000000000000e+00 -8.0999997159172441e+00 -3.2273514868098534e-02 -5.9267778257882120e-01 +5.9007766321646270e-03
-8.1999999999999869e+00 +8.1630959971238379e+00 +0.0000000000000000e+00 -8.1999997052651157e+00 -3.2273354099661845e-02 -5.9267827620690505e-01 +5.9009355392136359e-03
-8.2999999999999865e+00 +8.1630492745308167e+00 +0.0000000000000000e+00 -8.2999996943499781e+00 -3.2273203402500145e-02 -5.9267878228450421e-01 +5.9010954281079227e-03
-8.3999999999999861e+00 +8.1630019855896379e+00 +0.0000000000000000e+00 -8.3999996831686232e+00 -3.2273062451497726e-02 -5.9267929995329127e-01 +5.9012562515422511e-03
-8.4999999999999858e+00 +8.1629541302998092e+00 +0.0000000000000000e+00 -8.4999996717178448e+00 -3.2272930921455507e-02 -5.9267982835485156e-01 +5.9014179622171974e-03
-8.5999999999999854e+00 +8.1629057086608281e+00 +0.0000000000000000e+00 -8.5999996599944346e+00 -3.2272808487088453e-02 -5.9268036663068269e-01 +5.9015805128393274e-03
-8.6999999999999851e+00 +8.1628567206721812e+00 +0.0000000000000000e+00 -8.6999996479951847e+00 -3.2272694823022821e-02 -5.9268091392219058e-01 +5.9017438561213796e-03
-8.7999999999999847e+00 +8.1628071663333479e+00 +0.0000000000000000e+00 -8.7999996357168886e+00 -3.2272589603793540e-02 -5.9268146937068622e-01 +5.9019079447824481e-03
-8.8999999999999844e+00 +8.1627570456437990e+00 +0.0000000000000000e+00 -8.8999996231563365e+00 -3.2272492503841566e-02 -5.9268203211738324e-01 +5.9020727315481532e-03
-8.9999999999999840e+00 +8.1627063586029980e+00 +0.0000000000000000e+00 -8.9999996103103221e+00 -3.2272403197511144e-02 -5.9268260130339490e-01 +5.9022381691508381e-03
-9.0999999999999837e+00 +8.1626551052104031e+00 +0.0000000000000000e+00 -9.0999995971756356e+00 -3.2272321359047285e-02 -5.9268317606973087e-01 +5.9024042103297293e-03
-9.1999999999999833e+00 +8.1626032854654653e+00 +0.0000000000000000e+00 -9.1999995837490705e+00 -3.2272246662592943e-02 -5.9268375555729480e-01 +5.9025708078311503e-03
-9.2999999999999829e+00 +8.1625508993676341e+00 +0.0000000000000000e+00 -9.2999995700274205e+00 -3.2272178782186467e-02 -5.9268433890688099e-01 +5.9027379144086668e-03
-9.3999999999999826e+00 +8.1624979469163534e+00 +0.0000000000000000e+00 -9.3999995560074758e+00 -3.2272117391758885e-02 -5.9268492525917105e-01 +5.9029054828232857e-03
-9.4999999999999822e+00 +8.1624444281110637e+00 +0.0000000000000000e+00 -9.4999995416860283e+00 -3.2272062165131253e-02 -5.9268551375473277e-01 +5.9030734658436449e-03
-9.5999999999999819e+00 +8.1623903429512055e+00 +0.0000000000000000e+00 -9.5999995270598717e+00 -3.2272012776012056e-02 -5.9268610353401474e-01 +5.9032418162461714e-03
-9.6999999999999815e+00 +8.1623356914362173e+00 +0.0000000000000000e+00 -9.6999995121257960e+00 -3.2271968897994371e-02 -5.9268669373734539e-01 +5.9034104868152769e-03
-9.7999999999999812e+00 +8.1622804735655361e+00 +0.0000000000000000e+00 -9.7999994968805950e+00 -3.2271930204553420e-02 -5.9268728350492916e-01 +5.9035794303435463e-03
-9.8999999999999808e+00 +8.1622246893386006e+00 +0.0000000000000000e+00 -9.8999994813210606e+00 -3.2271896369043790e-02 -5.9268787197684336e-01 +5.9037485996318992e-03
-9.9999999999999805e+00 +8.1621683387548511e+00 +0.0000000000000000e+00 -9.9999994654439845e+00 -3.2271867064696723e-02 -5.9268845829303629e-01 +5.9039179474897809e-03
-1.0099999999999980e+01 +8.1621114218137283e+00 +0.0000000000000000e+00 -1.0099999449246159e+01 -3.2271841926953038e-02 -5.9268904183050486e-01 +5.9040874415686971e-03
-1.0199999999999980e+01 +8.1620539385146760e+00 +0.0000000000000000e+00 -1.0199999432724375e+01 -3.2271820440531042e-02 -5.9268962291494298e-01 +5.9042571088576482e-03
-1.0299999999999979e+01 +8.1619958888571418e+00 +0.0000000000000000e+00 -1.0299999415875426e+01 -3.2271802052538108e-02 -5.9269020210934587e-01 +5.9044269911724661e-03
-1.0399999999999979e+01 +8.1619372728405732e+00 +0.0000000000000000e+00 -1.0399999398696105e+01 -3.2271786210155244e-02 -5.9269077997684749e-01 +5.9045971303203493e-03
-1.0499999999999979e+01 +8.1618780904644197e+00 +0.0000000000000000e+00 -1.0499999381183201e+01 -3.2271772360639349e-02 -5.9269135708072285e-01 +5.9047675680996030e-03
-1.0599999999999978e+01 +8.1618183417281323e+00 +0.0000000000000000e+00 -1.0599999363333509e+01 -3.2271759951325543e-02 -5.9269193398439368e-01 +5.9049383462994008e-03
-1.0699999999999978e+01 +8.1617580266311620e+00 +0.0000000000000000e+00 -1.0699999345143819e+01 -3.2271748429629418e-02 -5.9269251125143085e-01 +5.9051095066995473e-03
-1.0799999999999978e+01 +8.1616971451729583e+00 +0.0000000000000000e+00 -1.0799999326610925e+01 -3.2271737243049346e-02 -5.9269308944555865e-01 +5.9052810910702296e-03
-1.0899999999999977e+01 +8.1616356973529705e+00 +0.0000000000000000e+00 -1.0899999307731616e+01 -3.2271725839168826e-02 -5.9269366913065780e-01 +5.9054531411717754e-03
-1.0999999999999977e+01 +8.1615736831706478e+00 +0.0000000000000000e+00 -1.0999999288502686e+01 -3.2271713665658647e-02 -5.9269425087076977e-01 +5.9056256987544140e-03
-1.1099999999999977e+01 +8.1615111026254343e+00 +0.0000000000000000e+00 -1.1099999268920927e+01 -3.2271700170279326e-02 -5.9269483523010102e-01 +5.9057988055580381e-03
-1.1199999999999976e+01 +8.1614479557167758e+00 +0.0000000000000000e+00 -1.1199999248983131e+01 -3.2271684800883341e-02 -5.9269542277302489e-01 +5.9059725033119431e-03
-1.1299999999999976e+01 +8.1613842424441110e+00 +0.0000000000000000e+00 -1.1299999228686090e+01 -3.2271667005417420e-02 -5.9269601406408789e-01 +5.9061468337346171e-03
-1.1399999999999975e+01 +8.1613199628068784e+00 +0.0000000000000000e+00 -1.1399999208026596e+01 -3.2271646231924855e-02 -5.9269660966801141e-01 +5.9063218385334683e-03
-1.1499999999999975e+01 +8.1612551168045098e+00 +0.0000000000000000e+00 -1.1499999187001441e+01 -3.2271621928547767e-02 -5.9269721014969579e-01 +5.9064975594046009e-03
-1.1599999999999975e+01 +8.1611897044364330e+00 +0.0000000000000000e+00 -1.1599999165607416e+01 -3.2271593543529493e-02 -5.9269781607422445e-01 +5.9066740380325699e-03
-1.1699999999999974e+01 +8.1611237257020726e+00 +0.0000000000000000e+00 -1.1699999143841314e+01 -3.2271560525216764e-02 -5.9269842800686823e-01 +5.9068513160901405e-03
