# field on trajectory
# s[mm] rx[mm] ry[mm] rz[mm] bx[T] by[T] bz[T]
-0.0000000000000000e+00 +8.1530000000000094e+00 +0.0000000000000000e+00 -0.0000000000000000e+00 -2.9277861429706002e-02 -5.3686596722150981e-01 +5.3255516749393678e-03
-1.0000000000000001e-01 +8.1529997159377707e+00 +0.0000000000000000e+00 -1.0008006405070299e-01 -2.9277967279768554e-02 -5.3686580387256955e-01 +5.3255126052477739e-03
-2.0000000000000001e-01 +8.1529988637557800e+00 +0.0000000000000000e+00 -2.0016012809818201e-01 -2.9278057872968624e-02 -5.3686564692151917e-01 +5.3254735797638262e-03
-2.9999999999999999e-01 +8.1529974434524792e+00 +0.0000000000000000e+00 -3.0024019213920999e-01 -2.9278133437678093e-02 -5.3686549654978977e-01 +5.3254345650287898e-03
-4.0000000000000002e-01 +8.1529954550242092e+00 +0.0000000000000000e+00 -4.0032025617056399e-01 -2.9278194202276734e-02 -5.3686535293882598e-01 +5.3253955275846870e-03
-5.0000000000000000e-01 +8.1529928984782600e+00 +0.0000000000000000e+00 -5.0040032018901703e-01 -2.9278240395146198e-02 -5.3686521626998807e-01 +5.3253564339731671e-03
-5.9999999999999998e-01 +8.1529897738146193e+00 +0.0000000000000000e+00 -6.0048038419134497e-01 -2.9278272244676388e-02 -5.3686508672468647e-01 +5.3253172507367634e-03
-6.9999999999999996e-01 +8.1529860810223909e+00 +0.0000000000000000e+00 -7.0056044817432195e-01 -2.9278289979266042e-02 -5.3686496448440957e-01 +5.3252779444190046e-03
-8.0000000000000004e-01 +8.1529818201124709e+00 +0.0000000000000000e+00 -8.0064051213472498e-01 -2.9278293827309173e-02 -5.3686484973048254e-01 +5.3252384815618342e-03
-9.0000000000000002e-01 +8.1529769910812302e+00 +0.0000000000000000e+00 -9.0072057606932698e-01 -2.9278284017208413e-02 -5.3686474264433370e-01 +5.3251988287081930e-03
-1.0000000000000000e+00 +8.1529715939250291e+00 +0.0000000000000000e+00 -1.0008006399749001e+00 -2.9278260777368573e-02 -5.3686464340738982e-01 +5.3251589524008032e-03
-1.1000000000000001e+00 +8.1529656286511507e+00 +0.0000000000000000e+00 -1.1008807038482300e+00 -2.9278224336191538e-02 -5.3686455220099472e-01 +5.3251188191811979e-03
-1.2000000000000000e+00 +8.1529590952522994e+00 +0.0000000000000000e+00 -1.2009607676860801e+00 -2.9278174922085450e-02 -5.3686446920659625e-01 +5.3250783955915097e-03
-1.3000000000000000e+00 +8.1529519937357708e+00 +0.0000000000000000e+00 -1.3010408314852300e+00 -2.9278112763452473e-02 -5.3686439460553381e-01 +5.3250376481721344e-03
-1.3999999999999999e+00 +8.1529443240979198e+00 +0.0000000000000000e+00 -1.4011208952424601e+00 -2.9278038088697944e-02 -5.3686432857922428e-01 +5.3249965434635105e-03
-1.5000000000000000e+00 +8.1529360863350995e+00 +0.0000000000000000e+00 -1.5012009589545301e+00 -2.9277951126225343e-02 -5.3686427130908265e-01 +5.3249550480051764e-03
-1.6000000000000001e+00 +8.1529272804509691e+00 +0.0000000000000000e+00 -1.6012810226182299e+00 -2.9277852104432636e-02 -5.3686422297646852e-01 +5.3249131283350576e-03
-1.7000000000000000e+00 +8.1529179064491508e+00 +0.0000000000000000e+00 -1.7013610862303301e+00 -2.9277741251714257e-02 -5.3686418376273981e-01 +5.3248707509899063e-03
-1.8000000000000000e+00 +8.1529079643223703e+00 +0.0000000000000000e+00 -1.8014411497875999e+00 -2.9277618796464604e-02 -5.3686415384933239e-01 +5.3248278825059631e-03
-1.8999999999999999e+00 +8.1528974540779000e+00 +0.0000000000000000e+00 -1.9015212132868200e+00 -2.9277484967067308e-02 -5.3686413341757444e-01 +5.3247844894169132e-03
-2.0000000000000000e+00 +8.1528863757084800e+00 +0.0000000000000000e+00 -2.0016012767247702e+00 -2.9277339991906279e-02 -5.3686412264889827e-01 +5.3247405382560427e-03
-2.1000000000000001e+00 +8.1528747292177304e+00 +0.0000000000000000e+00 -2.1016813400982199e+00 -2.9277184244471181e-02 -5.3686412166103648e-01 +5.3246960203110266e-03
-2.2000000000000002e+00 +8.1528625146056601e+00 +0.0000000000000000e+00 -2.2017614034039301e+00 -2.9277018651517345e-02 -5.3686413032919533e-01 +5.3246510212570704e-03
-2.2999999999999998e+00 +8.1528497318759001e+00 +0.0000000000000000e+00 -2.3018414666387002e+00 -2.9276844271627831e-02 -5.3686414847076480e-01 +5.3246056492608235e-03
-2.3999999999999999e+00 +8.1528363810211903e+00 +0.0000000000000000e+00 -2.4019215297993002e+00 -2.9276662163384638e-02 -5.3686417590322477e-01 +5.3245600124909101e-03
-2.5000000000000000e+00 +8.1528224620451493e+00 +0.0000000000000000e+00 -2.5020015928824901e+00 -2.9276473385359793e-02 -5.3686421244398441e-01 +5.3245142191164713e-03
-2.6000000000000001e+00 +8.1528079749477893e+00 +0.0000000000000000e+00 -2.6020816558850601e+00 -2.9276278996120560e-02 -5.3686425791049219e-01 +5.3244683773084611e-03
-2.7000000000000002e+00 +8.1527929197291105e+00 +0.0000000000000000e+00 -2.7021617188037701e+00 -2.9276080054227601e-02 -5.3686431212020691e-01 +5.3244225952395518e-03
-2.7999999999999998e+00 +8.1527772963891003e+00 +0.0000000000000000e+00 -2.8022417816354102e+00 -2.9275877618234563e-02 -5.3686437489060246e-01 +5.3243769810843358e-03
-2.8999999999999999e+00 +8.1527611049277802e+00 +0.0000000000000000e+00 -2.9023218443767500e+00 -2.9275672746687638e-02 -5.3686444603916672e-01 +5.3243316430195177e-03
-3.0000000000000000e+00 +8.1527443453451305e+00 +0.0000000000000000e+00 -3.0024019070245598e+00 -2.9275466498125177e-02 -5.3686452538340357e-01 +5.3242866892240998e-03
-3.1000000000000001e+00 +8.1527270176411495e+00 +0.0000000000000000e+00 -3.1024819695756198e+00 -2.9275259931077175e-02 -5.3686461274083308e-01 +5.3242422278795814e-03
-3.2000000000000002e+00 +8.1527091218158603e+00 +0.0000000000000000e+00 -3.2025620320267101e+00 -2.9275054104064963e-02 -5.3686470792899366e-01 +5.3241983671701446e-03
-3.2999999999999998e+00 +8.1526906578692397e+00 +0.0000000000000000e+00 -3.3026420943745900e+00 -2.9274850075600666e-02 -5.3686481076544301e-01 +5.3241552152828520e-03
-3.3999999999999999e+00 +8.1526716258013003e+00 +0.0000000000000000e+00 -3.4027221566160502e+00 -2.9274648904186858e-02 -5.3686492106775885e-01 +5.3241128804078358e-03
-3.5000000000000000e+00 +8.1526520256120403e+00 +0.0000000000000000e+00 -3.5028022187478500e+00 -2.9274451648316137e-02 -5.3686503865353952e-01 +5.3240714707384939e-03
-3.6000000000000001e+00 +8.1526318572978198e+00 +0.0000000000000000e+00 -3.6028822807667802e+00 -2.9274259366471999e-02 -5.3686516334043366e-01 +5.3240310944719467e-03
-3.7000000000000002e+00 +8.1526111208659096e+00 +0.0000000000000000e+00 -3.7029623426696099e+00 -2.9274073117122920e-02 -5.3686529494603286e-01 +5.3239918598081450e-03
-3.7999999999999998e+00 +8.1525898163126804e+00 +0.0000000000000000e+00 -3.8030424044531101e+00 -2.9273893958730271e-02 -5.3686543328803227e-01 +5.3239538749516946e-03
-3.8999999999999999e+00 +8.1525679436344909e+00 +0.0000000000000000e+00 -3.9031224661140600e+00 -2.9273722949743741e-02 -5.3686557818415459e-01 +5.3239172481112373e-03
-4.0000000000000000e+00 +8.1525455028386205e+00 +0.0000000000000000e+00 -4.0032025276492398e+00 -2.9273561148592843e-02 -5.3686572945206834e-01 +5.3238820874971643e-03
-4.0999999999999996e+00 +8.1525224939177896e+00 +0.0000000000000000e+00 -4.1032825890554099e+00 -2.9273409487782176e-02 -5.3686588690139159e-01 +5.3238484458378406e-03
-4.2000000000000002e+00 +8.1524989168792708e+00 +0.0000000000000000e+00 -4.2033626503293604e+00 -2.9273268442190671e-02 -5.3686605031190238e-01 +5.3238161742067483e-03
-4.2999999999999998e+00 +8.1524747717157897e+00 +0.0000000000000000e+00 -4.3034427114678504e+00 -2.9273138382795480e-02 -5.3686621945670265e-01 +5.3237850778805390e-03
-4.4000000000000004e+00 +8.1524500584346207e+00 +0.0000000000000000e+00 -4.4035227724676700e+00 -2.9273019680591678e-02 -5.3686639410875736e-01 +5.3237549621330043e-03
-4.5000000000000000e+00 +8.1524247770285001e+00 +0.0000000000000000e+00 -4.5036028333255800e+00 -2.9272912706605189e-02 -5.3686657404110361e-01 +5.3237256322370870e-03
-4.5999999999999996e+00 +8.1523989275046898e+00 +0.0000000000000000e+00 -4.6036828940383696e+00 -2.9272817831883118e-02 -5.3686675902663417e-01 +5.3236968934624977e-03
-4.7000000000000002e+00 +8.1523725098559208e+00 +0.0000000000000000e+00 -4.7037629546028104e+00 -2.9272735427506753e-02 -5.3686694883830999e-01 +5.3236685510777296e-03
-4.7999999999999998e+00 +8.1523455240894709e+00 +0.0000000000000000e+00 -4.8038430150156701e+00 -2.9272665864581857e-02 -5.3686714324894313e-01 +5.3236404103476857e-03
-4.9000000000000004e+00 +8.1523179701980606e+00 +0.0000000000000000e+00 -4.9039230752737302e+00 -2.9272609514251684e-02 -5.3686734203140918e-01 +5.3236122765356851e-03
-5.0000000000000000e+00 +8.1522898481889605e+00 +0.0000000000000000e+00 -5.0040031353737602e+00 -2.9272566747687221e-02 -5.3686754495842981e-01 +5.3235839549010825e-03
-5.0999999999999996e+00 +8.1522611580549000e+00 +0.0000000000000000e+00 -5.1040831953125396e+00 -2.9272537936100247e-02 -5.3686775180278556e-01 +5.3235552507012911e-03
-5.2000000000000002e+00 +8.1522318997995207e+00 +0.0000000000000000e+00 -5.2041632550868497e+00 -2.9272523450735072e-02 -5.3686796233712453e-01 +5.3235259691896651e-03
-5.2999999999999998e+00 +8.1522020734228100e+00 +0.0000000000000000e+00 -5.3042433146934496e+00 -2.9272523662875787e-02 -5.3686817633406891e-01 +5.3234959156164335e-03
-5.4000000000000004e+00 +8.1521716789247893e+00 +0.0000000000000000e+00 -5.4043233741291203e+00 -2.9272538943846526e-02 -5.3686839356618432e-01 +5.3234648952282171e-03
-5.5000000000000000e+00 +8.1521407163090807e+00 +0.0000000000000000e+00 -5.5044034333906504e+00 -2.9272569665011738e-02 -5.3686861380595108e-01 +5.3234327132675964e-03
-5.5999999999999996e+00 +8.1521091855684098e+00 +0.0000000000000000e+00 -5.6044834924747899e+00 -2.9272616197783461e-02 -5.3686883682587017e-01 +5.3233991749740113e-03
-5.7000000000000002e+00 +8.1520770867064094e+00 +0.0000000000000000e+00 -5.7045635513783299e+00 -2.9272678913614476e-02 -5.3686906239829790e-01 +5.3233640855819379e-03
-5.7999999999999998e+00 +8.1520444197231008e+00 +0.0000000000000000e+00 -5.8046436100980499e+00 -2.9272758184005633e-02 -5.3686929029555197e-01 +5.3233272503217946e-03
-5.9000000000000004e+00 +8.1520111846184609e+00 +0.0000000000000000e+00 -5.9047236686307096e+00 -2.9272854380506114e-02 -5.3686952028988222e-01 +5.3232884744195044e-03
-5.9999999999999902e+00 +8.1519773813925003e+00 +0.0000000000000000e+00 -6.0048037269731003e+00 -2.9272967874681671e-02 -5.3686975215346844e-01 +5.3232475631045627e-03
-6.0999999999999899e+00 +8.1519430100452208e+00 +0.0000000000000000e+00 -6.1048837851219799e+00 -2.9273098690992976e-02 -5.3686998565662047e-01 +5.3232044076686009e-03
-6.1999999999999904e+00 +8.1519080705766100e+00 +0.0000000000000000e+00 -6.2049638430741396e+00 -2.9273245651099483e-02 -5.3687022056338662e-01 +5.3231591976056081e-03
-6.2999999999999901e+00 +8.1518725629866804e+00 +0.0000000000000000e+00 -6.3050439008263499e+00 -2.9273407316310208e-02 -5.3687045663648936e-01 +5.3231121869532364e-03
-6.3999999999999897e+00 +8.1518364872754301e+00 +0.0000000000000000e+00 -6.4051239583753699e+00 -2.9273582247905442e-02 -5.3687069363868167e-01 +5.3230636297528959e-03
-6.4999999999999902e+00 +8.1517998434428591e+00 +0.0000000000000000e+00 -6.5052040157180002e+00 -2.9273769007135117e-02 -5.3687093133274932e-01 +5.3230137800499124e-03
-6.5999999999999899e+00 +8.1517626314889604e+00 +0.0000000000000000e+00 -6.6052840728510001e+00 -2.9273966155217171e-02 -5.3687116948151226e-01 +5.3229628918936922e-03
-6.6999999999999904e+00 +8.1517248514137499e+00 +0.0000000000000000e+00 -6.7053641297711399e+00 -2.9274172253335912e-02 -5.3687140784782605e-01 +5.3229112193379172e-03
-6.7999999999999901e+00 +8.1516865032135701e+00 +0.0000000000000000e+00 -6.8054441864752100e+00 -2.9274385862641878e-02 -5.3687164619461247e-01 +5.3228590164409537e-03
-6.8999999999999897e+00 +8.1516475868957095e+00 +0.0000000000000000e+00 -6.9055242429599701e+00 -2.9274605544244388e-02 -5.3687188428475119e-01 +5.3228065372649480e-03
-6.9999999999999902e+00 +8.1516081024565192e+00 +0.0000000000000000e+00 -7.0056042992222096e+00 -2.9274829859218587e-02 -5.3687212188124500e-01 +5.3227540358776332e-03
-7.0999999999999899e+00 +8.1515680498960101e+00 +0.0000000000000000e+00 -7.1056843552586999e+00 -2.9275057368598062e-02 -5.3687235874711303e-01 +5.3227017663514068e-03
-7.1999999999999904e+00 +8.1515274292141804e+00 +0.0000000000000000e+00 -7.2057644110662000e+00 -2.9275286633374618e-02 -5.3687259464541992e-01 +5.3226499827637641e-03
-7.2999999999999901e+00 +8.1514862404073902e+00 +0.0000000000000000e+00 -7.3058444666415099e+00 -2.9275516214498122e-02 -5.3687282933930436e-01 +5.3225989391977504e-03
-7.3999999999999897e+00 +8.1514444834829192e+00 +0.0000000000000000e+00 -7.4059245219813796e+00 -2.9275744672869169e-02 -5.3687306259187406e-01 +5.3225488897410290e-03
-7.4999999999999902e+00 +8.1514021584334806e+00 +0.0000000000000000e+00 -7.5060045770826100e+00 -2.9275970569347404e-02 -5.3687329416639396e-01 +5.3225000884879765e-03
-7.5999999999999899e+00 +8.1513592652663593e+00 +0.0000000000000000e+00 -7.6060846319419504e+00 -2.9276192464738528e-02 -5.3687352382607623e-01 +5.3224527895376428e-03
-7.6999999999999904e+00 +8.1513158039779192e+00 +0.0000000000000000e+00 -7.7061646865561997e+00 -2.9276408919802602e-02 -5.3687375133426596e-01 +5.3224072469958599e-03
-7.7999999999999901e+00 +8.1512717745681602e+00 +0.0000000000000000e+00 -7.8062447409221098e+00 -2.9276618495246754e-02 -5.3687397645434043e-01 +5.3223637149742977e-03
-7.8999999999999897e+00 +8.1512271770334301e+00 +0.0000000000000000e+00 -7.9063247950364799e+00 -2.9276819751726389e-02 -5.3687419894975930e-01 +5.3223224475911855e-03
-7.9999999999999902e+00 +8.1511820113773901e+00 +0.0000000000000000e+00 -8.0064048488960609e+00 -2.9277011249899350e-02 -5.3687441858406704e-01 +5.3222836989530956e-03
-8.0999999999999908e+00 +8.1511362776036496e+00 +0.0000000000000000e+00 -8.1064849024976393e+00 -2.9277191826054868e-02 -5.3687463546877601e-01 +5.3222476425014969e-03
-8.1999999999999904e+00 +8.1510899757086008e+00 +0.0000000000000000e+00 -8.2065649558379903e+00 -2.9277361227300670e-02 -5.3687485086495768e-01 +5.3222141851493876e-03
-8.2999999999999901e+00 +8.1510431056885899e+00 +0.0000000000000000e+00 -8.3066450089139003e+00 -2.9277519388610368e-02 -5.3687506627077675e-01 +5.3221831788361363e-03
-8.3999999999999897e+00 +8.1509956675508892e+00 +0.0000000000000000e+00 -8.4067250617221205e+00 -2.9277666244978098e-02 -5.3687528318435673e-01 +5.3221544754934571e-03
-8.4999999999999893e+00 +8.1509476612882299e+00 +0.0000000000000000e+00 -8.5068051142594392e+00 -2.9277801731429406e-02 -5.3687550310396592e-01 +5.3221279270470748e-03
-8.5999999999999908e+00 +8.1508990869078808e+00 +0.0000000000000000e+00 -8.6068851665226305e+00 -2.9277925783010722e-02 -5.3687572752780521e-01 +5.3221033854143019e-03
-8.6999999999999904e+00 +8.1508499444025801e+00 +0.0000000000000000e+00 -8.7069652185084596e+00 -2.9278038334801696e-02 -5.3687595795422327e-01 +5.3220807025059881e-03
-8.7999999999999794e+00 +8.1508002337759500e+00 +0.0000000000000000e+00 -8.8070452702137203e+00 -2.9278139321906125e-02 -5.3687619588152935e-01 +5.3220597302243581e-03
-8.8999999999999808e+00 +8.1507499550316407e+00 +0.0000000000000000e+00 -8.9071253216351796e+00 -2.9278228679457161e-02 -5.3687644280807589e-01 +5.3220403204635933e-03
-8.9999999999999805e+00 +8.1506991081623692e+00 +0.0000000000000000e+00 -9.0072053727696098e+00 -2.9278306342622459e-02 -5.3687670023233802e-01 +5.3220223251104143e-03
-9.0999999999999801e+00 +8.1506476931717806e+00 +0.0000000000000000e+00 -9.1072854236137797e+00 -2.9278372246596563e-02 -5.3687696965275566e-01 +5.3220055960421968e-03
-9.1999999999999797e+00 +8.1505957100635005e+00 +0.0000000000000000e+00 -9.2073654741644795e+00 -2.9278426326606141e-02 -5.3687725256781382e-01 +5.3219899851275508e-03
-9.2999999999999794e+00 +8.1505431588302599e+00 +0.0000000000000000e+00 -9.3074455244184708e+00 -2.9278468517915036e-02 -5.3687755047612407e-01 +5.3219753442269044e-03
-9.3999999999999808e+00 +8.1504900394757005e+00 +0.0000000000000000e+00 -9.4075255743725297e+00 -2.9278498755816784e-02 -5.3687786487626399e-01 +5.3219615251906150e-03
-9.4999999999999805e+00 +8.1504363520034495e+00 +0.0000000000000000e+00 -9.5076056240234408e+00 -2.9278516975639751e-02 -5.3687819726686070e-01 +5.3219483798595552e-03
-9.5999999999999801e+00 +8.1503820964062506e+00 +0.0000000000000000e+00 -9.6076856733679694e+00 -2.9278523112752270e-02 -5.3687854914667010e-01 +5.3219357600656891e-03
-9.6999999999999797e+00 +8.1503272726913600e+00 +0.0000000000000000e+00 -9.7077657224029004e+00 -2.9278517102553640e-02 -5.3687892201439091e-01 +5.3219235176299182e-03
-9.7999999999999794e+00 +8.1502718808515109e+00 +0.0000000000000000e+00 -9.8078457711250007e+00 -2.9278498880486434e-02 -5.3687931736887984e-01 +5.3219115043640301e-03
-9.8999999999999808e+00 +8.1502159208903304e+00 +0.0000000000000000e+00 -9.9079258195310498e+00 -2.9278468382027450e-02 -5.3687973670896594e-01 +5.3218995720685346e-03
-9.9999999999999805e+00 +8.1501593928078400e+00 +0.0000000000000000e+00 -1.0008005867617801e+01 -2.9278425542822221e-02 -5.3688018153325645e-01 +5.3218875725517178e-03
-1.0100000000000000e+01 +8.1501022966040200e+00 +0.0000000000000000e+00 -1.0108085915382100e+01 -2.9278370612860614e-02 -5.3688065260217421e-01 +5.3218754022757849e-03
-1.0199999999999999e+01 +8.1500446322825209e+00 +0.0000000000000000e+00 -1.0208165962820599e+01 -2.9278304832581568e-02 -5.3688114834973466e-01 +5.3218630984466489e-03
-1.0300000000000001e+01 +8.1499863998360507e+00 +0.0000000000000000e+00 -1.0308246009930199e+01 -2.9278229636985148e-02 -5.3688166675283377e-01 +5.3218507259289822e-03
-1.0400000000000000e+01 +8.1499275992682705e+00 +0.0000000000000000e+00 -1.0408326056707599e+01 -2.9278146461007102e-02 -5.3688220578816914e-01 +5.3218383495903174e-03
-1.0500000000000000e+01 +8.1498682305791608e+00 +0.0000000000000000e+00 -1.0508406103149600e+01 -2.9278056739523065e-02 -5.3688276343234520e-01 +5.3218260343022529e-03
-1.0600000000000000e+01 +8.1498082937723701e+00 +0.0000000000000000e+00 -1.0608486149253000e+01 -2.9277961907344146e-02 -5.3688333766181706e-01 +5.3218138449400605e-03
-1.0699999999999999e+01 +8.1497477888406102e+00 +0.0000000000000000e+00 -1.0708566195014500e+01 -2.9277863399220932e-02 -5.3688392645299332e-01 +5.3218018463838694e-03
-1.0800000000000001e+01 +8.1496867157875403e+00 +0.0000000000000000e+00 -1.0808646240430900e+01 -2.9277762649833571e-02 -5.3688452778207296e-01 +5.3217901035171747e-03
-1.0900000000000000e+01 +8.1496250746131391e+00 +0.0000000000000000e+00 -1.0908726285499000e+01 -2.9277661093795745e-02 -5.3688513962514928e-01 +5.3217786812280463e-03
-1.1000000000000000e+01 +8.1495628653174208e+00 +0.0000000000000000e+00 -1.1008806330215601e+01 -2.9277560165651747e-02 -5.3688575995818000e-01 +5.3217676444089765e-03
-1.1100000000000000e+01 +8.1495000879040198e+00 +0.0000000000000000e+00 -1.1108886374577500e+01 -2.9277461299873443e-02 -5.3688638675695688e-01 +5.3217570579567322e-03
-1.1199999999999999e+01 +8.1494367423620098e+00 +0.0000000000000000e+00 -1.1208966418581401e+01 -2.9277365930865835e-02 -5.3688701799723715e-01 +5.3217469867738575e-03
-1.1300000000000001e+01 +8.1493728287059604e+00 +0.0000000000000000e+00 -1.1309046462224000e+01 -2.9277275492949860e-02 -5.3688765165444541e-01 +5.3217374957657696e-03
-1.1400000000000000e+01 +8.1493083469249505e+00 +0.0000000000000000e+00 -1.1409126505502300e+01 -2.9277191420380658e-02 -5.3688828570404523e-01 +5.3217286498447340e-03
-1.1500000000000000e+01 +8.1492432970226201e+00 +0.0000000000000000e+00 -1.1509206548412800e+01 -2.9277115147330401e-02 -5.3688891812124162e-01 +5.3217205139269620e-03
-1.1600000000000000e+01 +8.1491776789989707e+00 +0.0000000000000000e+00 -1.1609286590952600e+01 -2.9277048107893829e-02 -5.3688954688111212e-01 +5.3217131529341164e-03
-1.1699999999999999e+01 +8.1491114928576298e+00 +0.0000000000000000e+00 -1.1709366633118099e+01 -2.9276991736083779e-02 -5.3689016995854999e-01 +5.3217066317928800e-03
