# field on trajectory
# s[mm] rx[mm] ry[mm] rz[mm] bx[T] by[T] bz[T]
0.0000000000000000e+00 +7.9199999999999999e+00 +0.0000000000000000e+00 +0.0000000000000000e+00 -2.9154756819029747e-02 -5.3808840358283561e-01 +5.3120735996903838e-03
1.0000000000000001e-01 +7.9199997171899801e+00 +0.0000000000000000e+00 +9.9999999999466793e-02 -2.9154749925453770e-02 -5.3808825469109722e-01 +5.3120616318678157e-03
2.0000000000000001e-01 +7.9199988687600236e+00 +0.0000000000000000e+00 +1.9999999999573431e-01 -2.9154751164453964e-02 -5.3808811881522822e-01 +5.3120518366630062e-03
3.0000000000000004e-01 +7.9199974547102734e+00 +0.0000000000000000e+00 +2.9999999998560334e-01 -2.9154760122947349e-02 -5.3808799542179175e-01 +5.3120441745232744e-03
4.0000000000000002e-01 +7.9199954750408592e+00 +0.0000000000000000e+00 +3.9999999996587460e-01 -2.9154776387851307e-02 -5.3808788397734852e-01 +5.3120386058963989e-03
5.0000000000000000e-01 +7.9199929297518974e+00 +0.0000000000000000e+00 +4.9999999993334882e-01 -2.9154799546083125e-02 -5.3808778394845846e-01 +5.3120350912305107e-03
5.9999999999999998e-01 +7.9199898188434945e+00 +0.0000000000000000e+00 +5.9999999988482677e-01 -2.9154829184559555e-02 -5.3808769480168028e-01 +5.3120335909739710e-03
6.9999999999999996e-01 +7.9199861423157438e+00 +0.0000000000000000e+00 +6.9999999981710914e-01 -2.9154864890196260e-02 -5.3808761600357291e-01 +5.3120340655752590e-03
7.9999999999999993e-01 +7.9199819001687279e+00 +0.0000000000000000e+00 +7.9999999972699676e-01 -2.9154906249907415e-02 -5.3808754702069517e-01 +5.3120364754828397e-03
8.9999999999999991e-01 +7.9199770924025206e+00 +0.0000000000000000e+00 +8.9999999961129040e-01 -2.9154952850605202e-02 -5.3808748731960787e-01 +5.3120407811450675e-03
9.9999999999999989e-01 +7.9199717190171839e+00 +0.0000000000000000e+00 +9.9999999946679075e-01 -2.9155004279199297e-02 -5.3808743636687151e-01 +5.3120469430100502e-03
1.0999999999999999e+00 +7.9199657800127721e+00 +0.0000000000000000e+00 +1.0999999992902985e+00 -2.9155060122596482e-02 -5.3808739362905034e-01 +5.3120549215255478e-03
1.2000000000000000e+00 +7.9199592753893295e+00 +0.0000000000000000e+00 +1.1999999990786145e+00 -2.9155119967700073e-02 -5.3808735857271017e-01 +5.3120646771388381e-03
1.3000000000000000e+00 +7.9199522051468945e+00 +0.0000000000000000e+00 +1.2999999988285396e+00 -2.9155183401409525e-02 -5.3808733066442027e-01 +5.3120761702966160e-03
1.4000000000000001e+00 +7.9199445692854953e+00 +0.0000000000000000e+00 +1.3999999985368743e+00 -2.9155250010619894e-02 -5.3808730937075322e-01 +5.3120893614448600e-03
1.5000000000000002e+00 +7.9199363678051551e+00 +0.0000000000000000e+00 +1.4999999982004195e+00 -2.9155319382221403e-02 -5.3808729415828582e-01 +5.3121042110287290e-03
1.6000000000000003e+00 +7.9199276007058907e+00 +0.0000000000000000e+00 +1.5999999978159760e+00 -2.9155391103098949e-02 -5.3808728449360010e-01 +5.3121206794924354e-03
1.7000000000000004e+00 +7.9199182679877120e+00 +0.0000000000000000e+00 +1.6999999973803446e+00 -2.9155464760131627e-02 -5.3808727984328275e-01 +5.3121387272791276e-03
1.8000000000000005e+00 +7.9199083696506252e+00 +0.0000000000000000e+00 +1.7999999968903260e+00 -2.9155539940192269e-02 -5.3808727967392622e-01 +5.3121583148307821e-03
1.9000000000000006e+00 +7.9198979056946301e+00 +0.0000000000000000e+00 +1.8999999963427208e+00 -2.9155616230146963e-02 -5.3808728345213019e-01 +5.3121794025880777e-03
2.0000000000000004e+00 +7.9198868761197225e+00 +0.0000000000000000e+00 +1.9999999957343297e+00 -2.9155693216854527e-02 -5.3808729064449978e-01 +5.3122019509902734e-03
2.1000000000000005e+00 +7.9198752809258961e+00 +0.0000000000000000e+00 +2.0999999950619537e+00 -2.9155770630716404e-02 -5.3808730089951962e-01 +5.3122259255808241e-03
2.2000000000000006e+00 +7.9198631201131402e+00 +0.0000000000000000e+00 +2.1999999943223933e+00 -2.9155848776331206e-02 -5.3808731459315873e-01 +5.3122513123254524e-03
2.3000000000000007e+00 +7.9198503936814406e+00 +0.0000000000000000e+00 +2.2999999935124498e+00 -2.9155928101851435e-02 -5.3808733228325389e-01 +5.3122781022968343e-03
2.4000000000000008e+00 +7.9198371016307796e+00 +0.0000000000000000e+00 +2.3999999926289233e+00 -2.9156009055435118e-02 -5.3808735452763623e-01 +5.3123062865693717e-03
2.5000000000000009e+00 +7.9198232439611340e+00 +0.0000000000000000e+00 +2.4999999916686151e+00 -2.9156092085246863e-02 -5.3808738188413086e-01 +5.3123358562194231e-03
2.6000000000000010e+00 +7.9198088206724755e+00 +0.0000000000000000e+00 +2.5999999906283255e+00 -2.9156177639458814e-02 -5.3808741491055512e-01 +5.3123668023255565e-03
2.7000000000000011e+00 +7.9197938317647694e+00 +0.0000000000000000e+00 +2.6999999895048554e+00 -2.9156266166251648e-02 -5.3808745416471948e-01 +5.3123991159687934e-03
2.8000000000000012e+00 +7.9197782772379748e+00 +0.0000000000000000e+00 +2.7999999882950055e+00 -2.9156358113815565e-02 -5.3808750020442409e-01 +5.3124327882328347e-03
2.9000000000000012e+00 +7.9197621570920438e+00 +0.0000000000000000e+00 +2.8999999869955766e+00 -2.9156453930351291e-02 -5.3808755358746030e-01 +5.3124678102043294e-03
3.0000000000000013e+00 +7.9197454713269213e+00 +0.0000000000000000e+00 +2.9999999856033694e+00 -2.9156554064071066e-02 -5.3808761487160839e-01 +5.3125041729731003e-03
3.1000000000000014e+00 +7.9197282199425434e+00 +0.0000000000000000e+00 +3.0999999841151848e+00 -2.9156658963199609e-02 -5.3808768461463719e-01 +5.3125418676323892e-03
3.2000000000000015e+00 +7.9197104029388363e+00 +0.0000000000000000e+00 +3.1999999825278236e+00 -2.9156769075975156e-02 -5.3808776337430231e-01 +5.3125808852791017e-03
3.3000000000000016e+00 +7.9196920203157184e+00 +0.0000000000000000e+00 +3.2999999808380860e+00 -2.9156884850650433e-02 -5.3808785170834728e-01 +5.3126212170140543e-03
3.4000000000000017e+00 +7.9196730720730972e+00 +0.0000000000000000e+00 +3.3999999790427733e+00 -2.9157006735493651e-02 -5.3808795017450017e-01 +5.3126628539422157e-03
3.5000000000000018e+00 +7.9196535582108698e+00 +0.0000000000000000e+00 +3.4999999771386858e+00 -2.9157135178789446e-02 -5.3808805933047432e-01 +5.3127057871729397e-03
3.6000000000000019e+00 +7.9196334787289224e+00 +0.0000000000000000e+00 +3.5999999751226244e+00 -2.9157270628839962e-02 -5.3808817973396683e-01 +5.3127500078202225e-03
3.7000000000000020e+00 +7.9196128336271290e+00 +0.0000000000000000e+00 +3.6999999729913897e+00 -2.9157413533965795e-02 -5.3808831194265827e-01 +5.3127955070029469e-03
3.8000000000000020e+00 +7.9195916229053509e+00 +0.0000000000000000e+00 +3.7999999707417826e+00 -2.9157564342506947e-02 -5.3808845651421078e-01 +5.3128422758451071e-03
3.9000000000000021e+00 +7.9195698465634363e+00 +0.0000000000000000e+00 +3.8999999683706039e+00 -2.9157723502823883e-02 -5.3808861400626795e-01 +5.3128903054760687e-03
4.0000000000000018e+00 +7.9195475046012209e+00 +0.0000000000000000e+00 +3.9999999658746543e+00 -2.9157891463298474e-02 -5.3808878497645396e-01 +5.3129395870308155e-03
4.1000000000000014e+00 +7.9195245970185262e+00 +0.0000000000000000e+00 +4.0999999632507347e+00 -2.9158068385413294e-02 -5.3808896974440101e-01 +5.3129901189548903e-03
4.2000000000000011e+00 +7.9195011238151576e+00 +0.0000000000000000e+00 +4.1999999604956448e+00 -2.9158253282969466e-02 -5.3808916767783710e-01 +5.3130419289154351e-03
4.3000000000000007e+00 +7.9194770849909091e+00 +0.0000000000000000e+00 +4.2999999576061860e+00 -2.9158444882822855e-02 -5.3808937790650424e-01 +5.3130950518810397e-03
4.4000000000000004e+00 +7.9194524805455595e+00 +0.0000000000000000e+00 +4.3999999545791590e+00 -2.9158641911800308e-02 -5.3808959956012781e-01 +5.3131495228158025e-03
4.5000000000000000e+00 +7.9194273104788770e+00 +0.0000000000000000e+00 +4.4999999514113647e+00 -2.9158843096697612e-02 -5.3808983176841862e-01 +5.3132053766789681e-03
4.5999999999999996e+00 +7.9194015747906183e+00 +0.0000000000000000e+00 +4.5999999480996028e+00 -2.9159047164277457e-02 -5.3809007366107020e-01 +5.3132626484245519e-03
4.6999999999999993e+00 +7.9193752734805303e+00 +0.0000000000000000e+00 +4.6999999446406751e+00 -2.9159252841267462e-02 -5.3809032436775950e-01 +5.3133213730009671e-03
4.7999999999999989e+00 +7.9193484065483508e+00 +0.0000000000000000e+00 +4.7999999410313814e+00 -2.9159458854358083e-02 -5.3809058301814650e-01 +5.3133815853506506e-03
4.8999999999999986e+00 +7.9193209739938082e+00 +0.0000000000000000e+00 +4.8999999372685226e+00 -2.9159663930200631e-02 -5.3809084874187341e-01 +5.3134433204097033e-03
4.9999999999999982e+00 +7.9192929758166244e+00 +0.0000000000000000e+00 +4.9999999333488994e+00 -2.9159866795405203e-02 -5.3809112066856424e-01 +5.3135066131074996e-03
5.0999999999999979e+00 +7.9192644120165143e+00 +0.0000000000000000e+00 +5.0999999292693126e+00 -2.9160066176538699e-02 -5.3809139792782412e-01 +5.3135714983663269e-03
5.1999999999999975e+00 +7.9192352825931875e+00 +0.0000000000000000e+00 +5.1999999250265629e+00 -2.9160260800122764e-02 -5.3809167964923932e-01 +5.3136380111010045e-03
5.2999999999999972e+00 +7.9192055875463492e+00 +0.0000000000000000e+00 +5.2999999206174504e+00 -2.9160449392631790e-02 -5.3809196496237688e-01 +5.3137061862185255e-03
5.3999999999999968e+00 +7.9191753268756999e+00 +0.0000000000000000e+00 +5.3999999160387757e+00 -2.9160630680490820e-02 -5.3809225299678265e-01 +5.3137760586176672e-03
5.4999999999999964e+00 +7.9191445005809378e+00 +0.0000000000000000e+00 +5.4999999112873397e+00 -2.9160803390073646e-02 -5.3809254288198338e-01 +5.3138476631886273e-03
5.5999999999999961e+00 +7.9191131086617599e+00 +0.0000000000000000e+00 +5.5999999063599430e+00 -2.9160966247700666e-02 -5.3809283374748373e-01 +5.3139210348126520e-03
5.6999999999999957e+00 +7.9190811511178616e+00 +0.0000000000000000e+00 +5.6999999012533866e+00 -2.9161117979636931e-02 -5.3809312472276782e-01 +5.3139962083616583e-03
5.7999999999999954e+00 +7.9190486279489374e+00 +0.0000000000000000e+00 +5.7999998959644703e+00 -2.9161257312090082e-02 -5.3809341493729679e-01 +5.3140732186978635e-03
5.8999999999999950e+00 +7.9190155391546835e+00 +0.0000000000000000e+00 +5.8999998904899957e+00 -2.9161382971208360e-02 -5.3809370352051022e-01 +5.3141521006734175e-03
5.9999999999999947e+00 +7.9189818847347979e+00 +0.0000000000000000e+00 +5.9999998848267628e+00 -2.9161493683078549e-02 -5.3809398960182475e-01 +5.3142328891300147e-03
6.0999999999999943e+00 +7.9189476646889814e+00 +0.0000000000000000e+00 +6.0999998789715715e+00 -2.9161588639982926e-02 -5.3809427244516117e-01 +5.3143156022360249e-03
6.1999999999999940e+00 +7.9189128790169372e+00 +0.0000000000000000e+00 +6.1999998729212233e+00 -2.9161668899218667e-02 -5.3809455185256050e-01 +5.3144001915032442e-03
6.2999999999999936e+00 +7.9188775277183732e+00 +0.0000000000000000e+00 +6.2999998666725183e+00 -2.9161735984384526e-02 -5.3809482776064999e-01 +5.3144865917830377e-03
6.3999999999999932e+00 +7.9188416107930006e+00 +0.0000000000000000e+00 +6.3999998602222572e+00 -2.9161791419130677e-02 -5.3809510010612471e-01 +5.3145747379303842e-03
6.4999999999999929e+00 +7.9188051282405336e+00 +0.0000000000000000e+00 +6.4999998535672407e+00 -2.9161836727161283e-02 -5.3809536882575137e-01 +5.3146645648041065e-03
6.5999999999999925e+00 +7.9187680800606914e+00 +0.0000000000000000e+00 +6.5999998467042689e+00 -2.9161873432237098e-02 -5.3809563385636983e-01 +5.3147560072671013e-03
6.6999999999999922e+00 +7.9187304662531970e+00 +0.0000000000000000e+00 +6.6999998396301423e+00 -2.9161903058178132e-02 -5.3809589513489808e-01 +5.3148490001865625e-03
6.7999999999999918e+00 +7.9186922868177758e+00 +0.0000000000000000e+00 +6.7999998323416619e+00 -2.9161927128866227e-02 -5.3809615259833377e-01 +5.3149434784342097e-03
6.8999999999999915e+00 +7.9186535417541597e+00 +0.0000000000000000e+00 +6.8999998248356285e+00 -2.9161947168247680e-02 -5.3809640618375842e-01 +5.3150393768865156e-03
6.9999999999999911e+00 +7.9186142310620822e+00 +0.0000000000000000e+00 +6.9999998171088427e+00 -2.9161964700335871e-02 -5.3809665582833976e-01 +5.3151366304249343e-03
7.0999999999999908e+00 +7.9185743547412830e+00 +0.0000000000000000e+00 +7.0999998091581045e+00 -2.9161981249213865e-02 -5.3809690146933575e-01 +5.3152351739361257e-03
7.1999999999999904e+00 +7.9185339127915046e+00 +0.0000000000000000e+00 +7.1999998009802146e+00 -2.9161998339037012e-02 -5.3809714304409639e-01 +5.3153349423121854e-03
7.2999999999999901e+00 +7.9184929052124948e+00 +0.0000000000000000e+00 +7.2999997925719731e+00 -2.9162017494035578e-02 -5.3809738049006783e-01 +5.3154358704508731e-03
7.3999999999999897e+00 +7.9184513320040049e+00 +0.0000000000000000e+00 +7.3999997839301814e+00 -2.9162040238517348e-02 -5.3809761374479548e-01 +5.3155378932558369e-03
7.4999999999999893e+00 +7.9184091931657914e+00 +0.0000000000000000e+00 +7.4999997750516396e+00 -2.9162068096870251e-02 -5.3809784274592665e-01 +5.3156409456368509e-03
7.5999999999999890e+00 +7.9183664886976146e+00 +0.0000000000000000e+00 +7.5999997659331475e+00 -2.9162102593564936e-02 -5.3809806743121413e-01 +5.3157449625100247e-03
7.6999999999999886e+00 +7.9183232185992400e+00 +0.0000000000000000e+00 +7.6999997565715068e+00 -2.9162145253157388e-02 -5.3809828773851842e-01 +5.3158498787980527e-03
7.7999999999999883e+00 +7.9182793828704376e+00 +0.0000000000000000e+00 +7.7999997469635174e+00 -2.9162197600291578e-02 -5.3809850360581224e-01 +5.3159556294304312e-03
7.8999999999999879e+00 +7.9182349815109809e+00 +0.0000000000000000e+00 +7.8999997371059800e+00 -2.9162261159702014e-02 -5.3809871497118233e-01 +5.3160621493436831e-03
7.9999999999999876e+00 +7.9181900145206505e+00 +0.0000000000000000e+00 +7.9999997269956955e+00 -2.9162337456216381e-02 -5.3809892177283380e-01 +5.3161693734816032e-03
8.0999999999999872e+00 +7.9181444818992297e+00 +0.0000000000000000e+00 +8.0999997166294637e+00 -2.9162427567179693e-02 -5.3809912396181714e-01 +5.3162772543209379e-03
8.1999999999999869e+00 +7.9180983836465071e+00 +0.0000000000000000e+00 +8.1999997060040855e+00 -2.9162530779663607e-02 -5.3809932154015927e-01 +5.3163858144467885e-03
8.2999999999999865e+00 +7.9180517197622775e+00 +0.0000000000000000e+00 +8.2999996951163606e+00 -2.9162645933134095e-02 -5.3809951452259863e-01 +5.3164950939727619e-03
8.3999999999999861e+00 +7.9180044902463385e+00 +0.0000000000000000e+00 +8.3999996839630899e+00 -2.9162771867025171e-02 -5.3809970292384679e-01 +5.3166051330148217e-03
8.4999999999999858e+00 +7.9179566950984936e+00 +0.0000000000000000e+00 +8.4999996725410760e+00 -2.9162907420737544e-02 -5.3809988675858633e-01 +5.3167159716913277e-03
8.5999999999999854e+00 +7.9179083343185521e+00 +0.0000000000000000e+00 +8.5999996608471161e+00 -2.9163051433637285e-02 -5.3810006604146943e-01 +5.3168276501231026e-03
8.6999999999999851e+00 +7.9178594079063265e+00 +0.0000000000000000e+00 +8.6999996488780127e+00 -2.9163202745054427e-02 -5.3810024078711616e-01 +5.3169402084334832e-03
8.7999999999999847e+00 +7.9178099158616346e+00 +0.0000000000000000e+00 +8.7999996366305666e+00 -2.9163360194281621e-02 -5.3810041101011319e-01 +5.3170536867483600e-03
8.8999999999999844e+00 +7.9177598581842989e+00 +0.0000000000000000e+00 +8.8999996241015769e+00 -2.9163522620572806e-02 -5.3810057672501299e-01 +5.3171681251962550e-03
8.9999999999999840e+00 +7.9177092348741471e+00 +0.0000000000000000e+00 +8.9999996112878442e+00 -2.9163688863141805e-02 -5.3810073794633062e-01 +5.3172835639083487e-03
9.0999999999999837e+00 +7.9176580459310113e+00 +0.0000000000000000e+00 +9.0999995981861712e+00 -2.9163857761160997e-02 -5.3810089468854316e-01 +5.3174000430185600e-03
9.1999999999999833e+00 +7.9176062913547280e+00 +0.0000000000000000e+00 +9.1999995847933569e+00 -2.9164028153759965e-02 -5.3810104696608851e-01 +5.3175176026635709e-03
9.2999999999999829e+00 +7.9175539711451393e+00 +0.0000000000000000e+00 +9.2999995711062002e+00 -2.9164198880024139e-02 -5.3810119479336360e-01 +5.3176362829829059e-03
9.3999999999999826e+00 +7.9175010853020913e+00 +0.0000000000000000e+00 +9.3999995571215038e+00 -2.9164368778993425e-02 -5.3810133818472217e-01 +5.3177561241189667e-03
9.4999999999999822e+00 +7.9174476338254349e+00 +0.0000000000000000e+00 +9.4999995428360684e+00 -2.9164536689660861e-02 -5.3810147715447421e-01 +5.3178771662170943e-03
9.5999999999999819e+00 +7.9173936167150263e+00 +0.0000000000000000e+00 +9.5999995282466930e+00 -2.9164701450971296e-02 -5.3810161171688420e-01 +5.3179994494256151e-03
9.6999999999999815e+00 +7.9173390339707250e+00 +0.0000000000000000e+00 +9.6999995133501784e+00 -2.9164861901819997e-02 -5.3810174188616910e-01 +5.3181230138958967e-03
9.7999999999999812e+00 +7.9172838855923962e+00 +0.0000000000000000e+00 +9.7999994981433254e+00 -2.9165016881051317e-02 -5.3810186767649726e-01 +5.3182478997824047e-03
9.8999999999999808e+00 +7.9172281715799091e+00 +0.0000000000000000e+00 +9.8999994826229347e+00 -2.9165165227457334e-02 -5.3810198910198670e-01 +5.3183741472427413e-03
9.9999999999999805e+00 +7.9171718919331386e+00 +0.0000000000000000e+00 +9.9999994667858072e+00 -2.9165305779776537e-02 -5.3810210617670373e-01 +5.3185017964377098e-03
1.0099999999999980e+01 +7.9171150466519631e+00 +0.0000000000000000e+00 +1.0099999450628742e+01 -2.9165437668774857e-02 -5.3810221904452404e-01 +5.3186308511619660e-03
1.0199999999999980e+01 +7.9170576357362652e+00 +0.0000000000000000e+00 +1.0199999434148541e+01 -2.9165561193527527e-02 -5.3810232836872718e-01 +5.3187611697333072e-03
1.0299999999999979e+01 +7.9169996591859322e+00 +0.0000000000000000e+00 +1.0299999417342004e+01 -2.9165676945191812e-02 -5.3810243494240284e-01 +5.3188925741016442e-03
1.0399999999999979e+01 +7.9169411170008539e+00 +0.0000000000000000e+00 +1.0399999400205932e+01 -2.9165785514919496e-02 -5.3810253955858156e-01 +5.3190248862195364e-03
1.0499999999999979e+01 +7.9168820091809220e+00 +0.0000000000000000e+00 +1.0499999382737125e+01 -2.9165887493856658e-02 -5.3810264301023258e-01 +5.3191579280422278e-03
1.0599999999999978e+01 +7.9168223357260299e+00 +0.0000000000000000e+00 +1.0599999364932383e+01 -2.9165983473143718e-02 -5.3810274609026432e-01 +5.3192915215276911e-03
1.0699999999999978e+01 +7.9167620966360710e+00 +0.0000000000000000e+00 +1.0699999346788509e+01 -2.9166074043915198e-02 -5.3810284959152088e-01 +5.3194254886366659e-03
1.0799999999999978e+01 +7.9167012919109379e+00 +0.0000000000000000e+00 +1.0799999328302301e+01 -2.9166159797299723e-02 -5.3810295430678090e-01 +5.3195596513326907e-03
1.0899999999999977e+01 +7.9166399215505230e+00 +0.0000000000000000e+00 +1.0899999309470561e+01 -2.9166241324419907e-02 -5.3810306102875705e-01 +5.3196938315821516e-03
1.0999999999999977e+01 +7.9165779855547154e+00 +0.0000000000000000e+00 +1.0999999290290088e+01 -2.9166319216392202e-02 -5.3810317055009349e-01 +5.3198278513543187e-03
1.1099999999999977e+01 +7.9165154839234022e+00 +0.0000000000000000e+00 +1.1099999270757683e+01 -2.9166394064326855e-02 -5.3810328366336413e-01 +5.3199615326213799e-03
1.1199999999999976e+01 +7.9164524166564663e+00 +0.0000000000000000e+00 +1.1199999250870148e+01 -2.9166466459327755e-02 -5.3810340116107203e-01 +5.3200946973584809e-03
1.1299999999999976e+01 +7.9163887837537867e+00 +0.0000000000000000e+00 +1.1299999230624280e+01 -2.9166536992492411e-02 -5.3810352383564708e-01 +5.3202271675437760e-03
1.1399999999999975e+01 +7.9163245852152357e+00 +0.0000000000000000e+00 +1.1399999210016883e+01 -2.9166606254911770e-02 -5.3810365247944492e-01 +5.3203587651584608e-03
1.1499999999999975e+01 +7.9162598210406809e+00 +0.0000000000000000e+00 +1.1499999189044756e+01 -2.9166674837670142e-02 -5.3810378788474456e-01 +5.3204893121868027e-03
1.1599999999999975e+01 +7.9161944912299811e+00 +0.0000000000000000e+00 +1.1599999167704699e+01 -2.9166743331845130e-02 -5.3810393084374819e-01 +5.3206186306162008e-03
1.1699999999999974e+01 +7.9161285957829879e+00 +0.0000000000000000e+00 +1.1699999145993512e+01 -2.9166812328507465e-02 -5.3810408214857863e-01 +5.3207465424372075e-03
1.1799999999999974e+01 +7.9160621346995450e+00 +0.0000000000000000e+00 +1.1799999123907998e+01 -2.9166882418720955e-02 -5.3810424259127798e-01 +5.3208728696435810e-03
