# multipoles
# s[mm] polynom_b[n=0][T/m^n] polynom_b[n=1][T/m^n] polynom_b[n=2][T/m^n] polynom_b[n=3][T/m^n] polynom_b[n=4][T/m^n] polynom_b[n=5][T/m^n] polynom_b[n=6][T/m^n] 
+0.0000000000000000e+00 -5.3810926024768369e-01 +7.3541617959656929e+00 -9.5249264994628990e-01 +1.5631487854363545e+01 +1.7501999354214946e+04 -2.3616492636452429e+05 -8.6868635056667790e+07 
+1.0000000000000001e-01 -5.3810921694487135e-01 +7.3541797975519749e+00 -9.5974038344121182e-01 +1.5044014894784743e+01 +1.7583068251150646e+04 -2.3242626368324034e+05 -8.7104273944390520e+07 
+2.0000000000000001e-01 -5.3810917338388753e-01 +7.3541955388371250e+00 -9.6718679096990201e-01 +1.4499253869874959e+01 +1.7667875439725103e+04 -2.2889337595891597e+05 -8.7355059779550359e+07 
+3.0000000000000004e-01 -5.3810913082683209e-01 +7.3542090069314616e+00 -9.7476056164932812e-01 +1.3998786740128031e+01 +1.7755334905016727e+04 -2.2557769097055128e+05 -8.7616893800435945e+07 
+4.0000000000000002e-01 -5.3810909053582279e-01 +7.3542201889524144e+00 -9.8239038232972320e-01 +1.3544195248970741e+01 +1.7844360590260065e+04 -2.2249063521732503e+05 -8.7885677050574422e+07 
+5.0000000000000000e-01 -5.3810905377294205e-01 +7.3542290720114032e+00 -9.9000494341157308e-01 +1.3137061299545847e+01 +1.7933866499601321e+04 -2.1964363607242450e+05 -8.8157310845526621e+07 
+5.9999999999999998e-01 -5.3810902180026643e-01 +7.3542356432206333e+00 -9.9753293620697969e-01 +1.2778966771114231e+01 +1.8022766655316271e+04 -2.1704812076038466e+05 -8.8427696588666081e+07 
+6.9999999999999996e-01 -5.3810899587987404e-01 +7.3542398896944858e+00 -1.0049030516482989e+00 +1.2471493456675651e+01 +1.8109975071295063e+04 -2.1471551590751589e+05 -8.8692735639141217e+07 
+7.9999999999999993e-01 -5.3810897727380769e-01 +7.3542417985395536e+00 -1.0120439843669486e+00 +1.2216223374085692e+01 +1.8194405826612539e+04 -2.1265724940948572e+05 -8.8948329651828587e+07 
+8.9999999999999991e-01 -5.3810896724411861e-01 +7.3542413568625271e+00 -1.0188844281028160e+00 +1.2014738517617992e+01 +1.8274972984215947e+04 -2.1088474892137470e+05 -8.9190380205351725e+07 
+9.9999999999999989e-01 -5.3810896705283584e-01 +7.3542385517628244e+00 -1.0253530794361347e+00 +1.1868621085313675e+01 +1.8350590658730322e+04 -2.0940944320784920e+05 -8.9414789113239765e+07 
+1.0999999999999999e+00 -5.3810897796197465e-01 +7.3542333703373037e+00 -1.0313786362041331e+00 +1.1779453343747003e+01 +1.8420172987185517e+04 -2.0824276134569972e+05 -8.9617458291076899e+07 
+1.2000000000000000e+00 -5.3810900123354777e-01 +7.3542257996794564e+00 -1.0368897965360302e+00 +1.1748817638114442e+01 +1.8482634109369174e+04 -2.0739613274269865e+05 -8.9794289655259982e+07 
+1.3000000000000000e+00 -5.3810903812954725e-01 +7.3542158268744604e+00 -1.0418152612781497e+00 +1.1778296549472310e+01 +1.8536888216987260e+04 -2.0688098807231273e+05 -8.9941185366334528e+07 
+1.4000000000000001e+00 -5.3810908991195461e-01 +7.3542034389984581e+00 -1.0460837324123489e+00 +1.1869472904078425e+01 +1.8581849519986808e+04 -2.0670875929067298e+05 -9.0054047657260105e+07 
+1.5000000000000002e+00 -5.3810915784273061e-01 +7.3541886231270501e+00 -1.0496239147011102e+00 +1.2023929540859296e+01 +1.8616432281687623e+04 -2.0689087831320870e+05 -9.0128779011895776e+07 
+1.6000000000000003e+00 -5.3810924318380970e-01 +7.3541713663189689e+00 -1.0523645160364989e+00 +1.2243249769383944e+01 +1.8639550821291683e+04 -2.0743877961727834e+05 -9.0161282164188072e+07 
+1.7000000000000004e+00 -5.3810934719716963e-01 +7.3541516556302247e+00 -1.0542342391216282e+00 +1.2529016975804170e+01 +1.8650119360383473e+04 -2.0836389799142894e+05 -9.0147459380740300e+07 
+1.8000000000000005e+00 -5.3810947114469709e-01 +7.3541294781071347e+00 -1.0551617984304571e+00 +1.2882814805404207e+01 +1.8647052342329302e+04 -2.0967766953633411e+05 -9.0083213970042810e+07 
+1.9000000000000006e+00 -5.3810961628830822e-01 +7.3541048207804760e+00 -1.0550759042285089e+00 +1.3306227356406410e+01 +1.8629264127930826e+04 -2.1139153283256985e+05 -8.9964448835466072e+07 
+2.0000000000000004e+00 -5.3810978388990793e-01 +7.3540776706756876e+00 -1.0539052691073498e+00 +1.3800838862730245e+01 +1.8595669122882184e+04 -2.1351692704645838e+05 -8.9787067085308105e+07 
+2.1000000000000005e+00 -5.3810997478372657e-01 +7.3540480908443024e+00 -1.0516077667454642e+00 +1.4366342109044798e+01 +1.8545605742646061e+04 -2.1605507226984951e+05 -8.9548498349477589e+07 
+2.2000000000000006e+00 -5.3811018809864175e-01 +7.3540164482156429e+00 -1.0482581949495591e+00 +1.4994923605562624e+01 +1.8480118827235765e+04 -2.1896709548474549e+05 -8.9252340657663539e+07 
+2.3000000000000007e+00 -5.3811042253842556e-01 +7.3539831856272322e+00 -1.0439606658692870e+00 +1.5676908224145230e+01 +1.8400682637637263e+04 -2.2220429618402556e+05 -8.8903750365672588e+07 
+2.4000000000000008e+00 -5.3811067680686231e-01 +7.3539487459318771e+00 -1.0388192912814260e+00 +1.6402620396958259e+01 +1.8308771436344628e+04 -2.2571797141548377e+05 -8.8507883856454194e+07 
+2.5000000000000009e+00 -5.3811094960777395e-01 +7.3539135719799589e+00 -1.0329381791847563e+00 +1.7162384643102744e+01 +1.8205859420040462e+04 -2.2945941890179823e+05 -8.8069897211980462e+07 
+2.6000000000000010e+00 -5.3811123964499241e-01 +7.3538781066278460e+00 -1.0264214375593153e+00 +1.7946525321721378e+01 +1.8093420794553618e+04 -2.3337993560722884e+05 -8.7594946581173658e+07 
+2.7000000000000011e+00 -5.3811154562238817e-01 +7.3538427927463106e+00 -1.0193731711227167e+00 +1.8745366378677485e+01 +1.7972929716196570e+04 -2.3743081627431087e+05 -8.7088187907866746e+07 
+2.8000000000000012e+00 -5.3811186624386309e-01 +7.3538080732058342e+00 -1.0118974818207336e+00 +1.9549231789072039e+01 +1.7845860296675077e+04 -2.4156335604549886e+05 -8.6554776942675427e+07 
+2.9000000000000012e+00 -5.3811220021336026e-01 +7.3537743908929443e+00 -1.0040984680771441e+00 +2.0348445084484208e+01 +1.7713686593615967e+04 -2.4572884774908100e+05 -8.5999869211268052e+07 
+3.0000000000000013e+00 -5.3811254623486093e-01 +7.3537421887030048e+00 -9.9608022535578400e-01 +2.1133329551232894e+01 +1.7577882622250669e+04 -2.4987858303520296e+05 -8.5428620071832642e+07 
+3.1000000000000014e+00 -5.3811290301238135e-01 +7.3537119095410528e+00 -9.8794684615292383e-01 +2.1894208221474653e+01 +1.7439922352882957e+04 -2.5396385239016893e+05 -8.4846184698109627e+07 
+3.2000000000000015e+00 -5.3811326924998593e-01 +7.3536839963263798e+00 -9.7980241870113816e-01 +2.2621403731663701e+01 +1.7301279689074647e+04 -2.5793594430706601e+05 -8.4257717982328236e+07 
+3.3000000000000016e+00 -5.3811364365179448e-01 +7.3536588919923842e+00 -9.7175102673081926e-01 +2.3305238342423007e+01 +1.7163428468043057e+04 -2.6174614546463190e+05 -8.3668374551424429e+07 
+3.4000000000000017e+00 -5.3811402492197458e-01 +7.3536370394868387e+00 -9.6389674971291095e-01 +2.3936033918038444e+01 +1.7027842458668572e+04 -2.6534574059379584e+05 -8.3083308738408163e+07 
+3.5000000000000018e+00 -5.3811441176476371e-01 +7.3536188817751595e+00 -9.5634366010639893e-01 +2.4504111835082707e+01 +1.6895995311677983e+04 -2.6868601197606511e+05 -8.2507674353352159e+07 
+3.6000000000000019e+00 -5.3811480288443714e-01 +7.3536048618377814e+00 -9.4919582883382625e-01 +2.4999793078259373e+01 +1.6769360673720872e+04 -2.7171824007130734e+05 -8.1946625253523752e+07 
+3.7000000000000020e+00 -5.3811519698534105e-01 +7.3535954226747879e+00 -9.4255731926470632e-01 +2.5413398082238952e+01 +1.6649412059526850e+04 -2.7439370255940669e+05 -8.1405314698143467e+07 
+3.8000000000000020e+00 -5.3811559277189458e-01 +7.3535910073022217e+00 -9.3653218894047152e-01 +2.5735246859226827e+01 +1.6537622898152855e+04 -2.7666367514628399e+05 -8.0888895604672432e+07 
+3.9000000000000021e+00 -5.3811598894858192e-01 +7.3535920587637671e+00 -9.3122448903468213e-01 +2.5955658654794799e+01 +1.6435466514153464e+04 -2.7847942958523566e+05 -8.0402520437860042e+07 
+4.0000000000000018e+00 -5.3811638421994856e-01 +7.3535990201174011e+00 -9.2673826622667765e-01 +2.6064952340575498e+01 +1.6344416171058427e+04 -2.7979223598453938e+05 -7.9951341436007798e+07 
+4.1000000000000014e+00 -5.3811677746885223e-01 +7.3536121644758152e+00 -9.2315693176709201e-01 +2.6056949020658461e+01 +1.6265697254479499e+04 -2.8057030144827924e+05 -7.9539836070061609e+07 
+4.2000000000000011e+00 -5.3811716827732492e-01 +7.3536310848067146e+00 -9.2047872061304903e-01 +2.5939220463143268e+01 +1.6199489438062965e+04 -2.8084726654942345e+05 -7.9169528524803787e+07 
+4.3000000000000007e+00 -5.3811755639887071e-01 +7.3536552038285929e+00 -9.1867988744582829e-01 +2.5722713426830889e+01 +1.6145697320745672e+04 -2.8067255921121570e+05 -7.8841142414756492e+07 
+4.4000000000000004e+00 -5.3811794158696247e-01 +7.3536839442562201e+00 -9.1773668836117306e-01 +2.5418374723268087e+01 +1.6104225509889198e+04 -2.8009560738516710e+05 -7.8555401350284666e+07 
+4.5000000000000000e+00 -5.3811832359501155e-01 +7.3537167288033993e+00 -9.1762538541914140e-01 +2.5037151144853478e+01 +1.6074978710862892e+04 -2.7916583864172973e+05 -7.8313029369652078e+07 
+4.5999999999999996e+00 -5.3811870217638746e-01 +7.3537529801786210e+00 -9.1832224298133869e-01 +2.4589989584137744e+01 +1.6057861650268645e+04 -2.7793268083344289e+05 -7.8114750557836577e+07 
+4.6999999999999993e+00 -5.3811907708438844e-01 +7.3537921210906338e+00 -9.1980353146892213e-01 +2.4087836862809326e+01 +1.6052779146791780e+04 -2.7644556106018601e+05 -7.7961289380663663e+07 
+4.7999999999999989e+00 -5.3811944807228362e-01 +7.3538335742399035e+00 -9.2204552212968249e-01 +2.3541639991275996e+01 +1.6059636011834195e+04 -2.7475390718690248e+05 -7.7853370212716013e+07 
+4.8999999999999986e+00 -5.3811981489323923e-01 +7.3538767623255126e+00 -9.2502449626404060e-01 +2.2962345950653699e+01 +1.6078337224377359e+04 -2.7290714652679663e+05 -7.7791718167593062e+07 
+4.9999999999999982e+00 -5.3812017730037531e-01 +7.3539211080398141e+00 -9.2871673708772684e-01 +2.2360901848516303e+01 +1.6108787770781191e+04 -2.7095470672305138e+05 -7.7777058324490309e+07 
+5.0999999999999979e+00 -5.3812053504676560e-01 +7.3539660340698205e+00 -9.3309853079489136e-01 +2.1748254884868413e+01 +1.6150892669505703e+04 -2.6894601555767091e+05 -7.7810115853854775e+07 
+5.1999999999999975e+00 -5.3812088788537060e-01 +7.3540109630951473e+00 -9.3814617334061656e-01 +2.1135352389033777e+01 +1.6204557090407561e+04 -2.6693050108955480e+05 -7.7891616562862590e+07 
+5.2999999999999972e+00 -5.3812123556907543e-01 +7.3540553177922190e+00 -9.4383596687735871e-01 +2.0533141715509707e+01 +1.6269686294677565e+04 -2.6495759108068090e+05 -7.8022286629476145e+07 
+5.3999999999999968e+00 -5.3812157785070303e-01 +7.3540985208266534e+00 -9.5014421685773720e-01 +1.9952570445793484e+01 +1.6346185570475407e+04 -2.6307671410344448e+05 -7.8202852271008700e+07 
+5.4999999999999964e+00 -5.3812191448298585e-01 +7.3541399948601889e+00 -9.5704723597289298e-01 +1.9404586198183043e+01 +1.6433960311972227e+04 -2.6133729844985827e+05 -7.8434040133705199e+07 
+5.5999999999999961e+00 -5.3812224521854268e-01 +7.3541791625428807e+00 -9.6452134672556977e-01 +1.8900136833604922e+01 +1.6532916062295200e+04 -2.5978877325788100e+05 -7.8716577478222802e+07 
+5.6999999999999957e+00 -5.3812256980994622e-01 +7.3542154465214606e+00 -9.7254287292569619e-01 +1.8450170225548636e+01 +1.6642958354728846e+04 -2.5848056719296129e+05 -7.9051191435488716e+07 
+5.7999999999999954e+00 -5.3812288800960872e-01 +7.3542482694289006e+00 -9.8108815299487673e-01 +1.8065634549219673e+01 +1.6763992958361381e+04 -2.5746211007690680e+05 -7.9438610155037239e+07 
+5.8999999999999950e+00 -5.3812319956988863e-01 +7.3542770538913054e+00 -9.9013352798222654e-01 +1.7757478086555047e+01 +1.6895925656786952e+04 -2.5678283174950283e+05 -7.9879561768799290e+07 
+5.9999999999999947e+00 -5.3812350424301170e-01 +7.3543012225266988e+00 -9.9965534961358449e-01 +1.7536649244916067e+01 +1.7038662390723130e+04 -2.5649216216501317e+05 -8.0374775047595680e+07 
+6.0999999999999943e+00 -5.3812380194548082e-01 +7.3543203186550175e+00 -1.0096208300750333e+00 +1.7411651525543462e+01 +1.7191869651381727e+04 -2.5662811219484734e+05 -8.0923716255301222e+07 
+6.1999999999999940e+00 -5.3812409326213184e-01 +7.3543343620312758e+00 -1.0199639324781851e+00 +1.7381654341111656e+01 +1.7354321662567956e+04 -2.5718552547876435e+05 -8.1521097003985748e+07 
+6.2999999999999936e+00 -5.3812437894768717e-01 +7.3543434901152507e+00 -1.0306111172089691e+00 +1.7443602569443279e+01 +1.7524584781576879e+04 -2.5814907452098103e+05 -8.2160507389440104e+07 
+6.3999999999999932e+00 -5.3812465975686241e-01 +7.3543478403549090e+00 -1.0414888452539479e+00 +1.7594441533137005e+01 +1.7701225374499387e+04 -2.5950343448278590e+05 -8.2835537550373346e+07 
+6.4999999999999929e+00 -5.3812493644438231e-01 +7.3543475501851470e+00 -1.0525235760772225e+00 +1.7831117031185286e+01 +1.7882809778926807e+04 -2.6123328339244385e+05 -8.3539777497844175e+07 
+6.5999999999999925e+00 -5.3812520976498202e-01 +7.3543427570242290e+00 -1.0636417678800834e+00 +1.8150575438186074e+01 +1.8067904310151971e+04 -2.6332330270919699e+05 -8.4266817147719279e+07 
+6.6999999999999922e+00 -5.3812548047340003e-01 +7.3543335982804594e+00 -1.0747698785381801e+00 +1.8549763530183046e+01 +1.8255075278408167e+04 -2.6575817635152926e+05 -8.5010246400305614e+07 
+6.7999999999999918e+00 -5.3812574932439261e-01 +7.3543202113450983e+00 -1.0858343635650813e+00 +1.9025628674505196e+01 +1.8442888950967579e+04 -2.6852259176088823e+05 -8.5763654963483006e+07 
+6.8999999999999915e+00 -5.3812601707271013e-01 +7.3543027335943947e+00 -1.0967616789166783e+00 +1.9575118795507837e+01 +1.8629911603623801e+04 -2.7160123976049986e+05 -8.6520632593190759e+07 
+6.9999999999999911e+00 -5.3812628447312427e-01 +7.3542813023920068e+00 -1.1074782785526529e+00 +2.0195182301126753e+01 +1.8814709479912221e+04 -2.7497881411861407e+05 -8.7274768913219973e+07 
+7.0999999999999908e+00 -5.3812655228041550e-01 +7.3542560550818896e+00 -1.1179106149192894e+00 +2.0882768287120996e+01 +1.8995848795614511e+04 -2.7864001271606283e+05 -8.8019653426035419e+07 
+7.1999999999999904e+00 -5.3812682124937961e-01 +7.3542271289932026e+00 -1.1279851388759361e+00 +2.1634826408152229e+01 +1.9171895739005020e+04 -2.8256953684326459e+05 -8.8748875516304597e+07 
+7.2999999999999901e+00 -5.3812709213482868e-01 +7.3541946614345033e+00 -1.1376282991635915e+00 +2.2448307048828202e+01 +1.9341416461766545e+04 -2.8675209218270890e+05 -8.9456024413268134e+07 
+7.3999999999999897e+00 -5.3812736569158648e-01 +7.3541587897045524e+00 -1.1467665434348682e+00 +2.3320161005767080e+01 +1.9502977098304003e+04 -2.9117238695295923e+05 -9.0134689279087350e+07 
+7.4999999999999893e+00 -5.3812764267447977e-01 +7.3541196510753801e+00 -1.1553263192778218e+00 +2.4247340000491086e+01 +1.9655143787781250e+04 -2.9581513493888947e+05 -9.0778459323294684e+07 
+7.5999999999999890e+00 -5.3812792383836749e-01 +7.3540773828074082e+00 -1.1632340703460375e+00 +2.5226796237165086e+01 +1.9796482596745973e+04 -3.0066505291237752e+05 -9.1380923422781989e+07 
+7.6999999999999886e+00 -5.3812820993813593e-01 +7.3540321221344129e+00 -1.1704162373136835e+00 +2.6255482830519750e+01 +1.9925559542115680e+04 -3.0570686308221438e+05 -9.1935670245920867e+07 
+7.7999999999999883e+00 -5.3812850172865268e-01 +7.3539840062782247e+00 -1.1767992631297335e+00 +2.7330353406491501e+01 +2.0040940685844911e+04 -3.1092529085568874e+05 -9.2436288687770963e+07 
+7.8999999999999879e+00 -5.3812879996485385e-01 +7.3539331724361636e+00 -1.1823095830460091e+00 +2.8448362458234051e+01 +2.0141191952760917e+04 -3.1630506686581997e+05 -9.2876367024193838e+07 
+7.9999999999999876e+00 -5.3812910540164749e-01 +7.3538797577862915e+00 -1.1868736359278549e+00 +2.9606465183905918e+01 +2.0224879339716081e+04 -3.2183092592117237e+05 -9.3249493882790983e+07 
+8.0999999999999872e+00 -5.3812941865560460e-01 +7.3538239593992536e+00 -1.1904409916455216e+00 +3.0800323347789782e+01 +2.0291001269166449e+04 -3.2748116414899024e+05 -9.3551131000475734e+07 
+8.1999999999999869e+00 -5.3812973980172829e-01 +7.3537662337877823e+00 -1.1930554584294593e+00 +3.2020033205026301e+01 +2.0340324837997625e+04 -3.3320742178282380e+05 -9.3784420033167869e+07 
+8.2999999999999865e+00 -5.3813006878229408e-01 +7.3537071075121050e+00 -1.1947849458610751e+00 +3.3254197281359730e+01 +2.0374071361365750e+04 -3.3895443320119655e+05 -9.3954477591796830e+07 
+8.3999999999999861e+00 -5.3813040553973968e-01 +7.3536471071412395e+00 -1.1956973474609882e+00 +3.4491417792813280e+01 +2.0393461890366703e+04 -3.4466693114122434e+05 -9.4066419140826717e+07 
+8.4999999999999858e+00 -5.3813075001658262e-01 +7.3535867592589224e+00 -1.1958605510528881e+00 +3.5720296447761861e+01 +2.0399717410078054e+04 -3.5028964538558607e+05 -9.4125359952318922e+07 
+8.5999999999999854e+00 -5.3813110215547988e-01 +7.3535265904663314e+00 -1.1953424306254343e+00 +3.6929434376327372e+01 +2.0394058681314986e+04 -3.5576730238750594e+05 -9.4136414345793277e+07 
+8.6999999999999851e+00 -5.3813146189924388e-01 +7.3534671273745653e+00 -1.1942108458660308e+00 +3.8107432343692977e+01 +2.0377706241531858e+04 -3.6104462649495772e+05 -9.4104695716618478e+07 
+8.7999999999999847e+00 -5.3813182919078162e-01 +7.3534088966156661e+00 -1.1925336487294185e+00 +3.9242890420650234e+01 +2.0351880526071694e+04 -3.6606633803006401e+05 -9.4035317106128737e+07 
+8.8999999999999844e+00 -5.3813220397316031e-01 +7.3533524248357791e+00 -1.1903786759787103e+00 +4.0324408183169275e+01 +2.0317801727853373e+04 -3.7077715445636894e+05 -9.3933390535330921e+07 
+8.9999999999999840e+00 -5.3813258618957382e-01 +7.3532982386952916e+00 -1.1878137533834694e+00 +4.1340584710659634e+01 +2.0276689878849691e+04 -3.7512179037887638e+05 -9.3804027398426503e+07 
+9.0999999999999837e+00 -5.3813297578337693e-01 +7.3532468648750307e+00 -1.1849066911263142e+00 +4.2280018395634237e+01 +2.0229764763179668e+04 -3.7904495642540610e+05 -9.3652338051484957e+07 
+9.1999999999999833e+00 -5.3813337269806194e-01 +7.3531988300744313e+00 -1.1817252879012987e+00 +4.3131306995758905e+01 +2.0178246001191026e+04 -3.8249135955295968e+05 -9.3483432227634564e+07 
+9.2999999999999829e+00 -5.3813377687727293e-01 +7.3531546610059859e+00 -1.1783373280047709e+00 +4.3883047791881907e+01 +2.0123352987923310e+04 -3.8540570396181400e+05 -9.3302418729591802e+07 
+9.3999999999999826e+00 -5.3813418826481396e-01 +7.3531148844088898e+00 -1.1748105816446046e+00 +4.4523837193250721e+01 +2.0066304906846373e+04 -3.8773268882343941e+05 -9.3114405513442025e+07 
+9.4999999999999822e+00 -5.3813460680464342e-01 +7.3530800270345544e+00 -1.1712128046479238e+00 +4.5042271155752246e+01 +2.0008320720549207e+04 -3.8941701069971471e+05 -9.2924499637429610e+07 
+9.5999999999999819e+00 -5.3813503244089156e-01 +7.3530506156579154e+00 -1.1676117374202268e+00 +4.5426944838721354e+01 +1.9950619157211891e+04 -3.9040336153258744e+05 -9.2737807213092327e+07 
+9.6999999999999815e+00 -5.3813546511784194e-01 +7.3530271770744919e+00 -1.1640751066499904e+00 +4.5666452704165422e+01 +1.9894418739127290e+04 -3.9063642925423558e+05 -9.2559433529954985e+07 
+9.7999999999999812e+00 -5.3813590477995865e-01 +7.3530102381009437e+00 -1.1606706224753776e+00 +4.5749388482077137e+01 +1.9840937735023712e+04 -3.9006089754899929e+05 -9.2394482847554475e+07 
+9.8999999999999808e+00 -5.3813635137189131e-01 +7.3530003255753744e+00 -1.1574659776272109e+00 +4.5664345172165881e+01 +1.9791394140516342e+04 -3.8862144590255618e+05 -9.2248058292134166e+07 
+9.9999999999999805e+00 -5.3813680483843118e-01 +7.3529979663551543e+00 -1.1545288538540441e+00 +4.5399915128699362e+01 +1.9747005812657877e+04 -3.8626275010519149e+05 -9.2125262529517978e+07 
+1.0099999999999980e+01 -5.3813726518804927e-01 +7.3530034968487321e+00 -1.1519090971094534e+00 +4.4949330334732345e+01 +1.9708695988317602e+04 -3.8295350458760018e+05 -9.2029982129903793e+07 
