# trajectory
# s[mm] rx[mm] ry[mm] rz[mm] px[rad] py[rad] pz[rad]
0.0000000000000000e+00 +8.1649999999999991e+00 +0.0000000000000000e+00 +0.0000000000000000e+00 +0.0000000000000000e+00 +0.0000000000000000e+00 +1.0000000000000000e+00
1.0000000000000001e-01 +8.1649997168024644e+00 +0.0000000000000000e+00 +9.9999999999465322e-02 -5.6639512150404103e-06 +0.0000000000000000e+00 +9.9999999998395983e-01
2.0000000000000001e-01 +8.1649988672096541e+00 +0.0000000000000000e+00 +1.9999999999572263e-01 -1.1327905488975499e-05 +0.0000000000000000e+00 +9.9999999993583932e-01
3.0000000000000004e-01 +8.1649974512212644e+00 +0.0000000000000000e+00 +2.9999999998556381e-01 -1.6991862793041555e-05 +0.0000000000000000e+00 +9.9999999985563837e-01
4.0000000000000002e-01 +8.1649954688369935e+00 +0.0000000000000000e+00 +3.9999999996578095e-01 -2.2655823113278938e-05 +0.0000000000000000e+00 +9.9999999974335696e-01
5.0000000000000000e-01 +8.1649929200565410e+00 +0.0000000000000000e+00 +4.9999999993316591e-01 -2.8319786450532116e-05 +0.0000000000000000e+00 +9.9999999959899499e-01
5.9999999999999998e-01 +8.1649898048796032e+00 +0.0000000000000000e+00 +5.9999999988451058e-01 -3.3983752820449713e-05 +0.0000000000000000e+00 +9.9999999942255247e-01
6.9999999999999996e-01 +8.1649861233058747e+00 +0.0000000000000000e+00 +6.9999999981660699e-01 -3.9647722253484574e-05 +0.0000000000000000e+00 +9.9999999921402927e-01
7.9999999999999993e-01 +8.1649818753350480e+00 +0.0000000000000000e+00 +7.9999999972624702e-01 -4.5311694794893840e-05 +0.0000000000000000e+00 +9.9999999897342540e-01
8.9999999999999991e-01 +8.1649770609668106e+00 +0.0000000000000000e+00 +8.9999999961022270e-01 -5.0975670504739003e-05 +0.0000000000000000e+00 +9.9999999870074074e-01
9.9999999999999989e-01 +8.1649716802008392e+00 +0.0000000000000000e+00 +9.9999999946532581e-01 -5.6639649457886014e-05 +0.0000000000000000e+00 +9.9999999839597531e-01
1.0999999999999999e+00 +8.1649657330368068e+00 +0.0000000000000000e+00 +1.0999999992883485e+00 -6.2303631744005364e-05 +0.0000000000000000e+00 +9.9999999805912898e-01
1.2000000000000000e+00 +8.1649592194743761e+00 +0.0000000000000000e+00 +1.1999999990760823e+00 -6.7967617467572212e-05 +0.0000000000000000e+00 +9.9999999769020176e-01
1.3000000000000000e+00 +8.1649521395131952e+00 +0.0000000000000000e+00 +1.2999999988253195e+00 -7.3631606747866468e-05 +0.0000000000000000e+00 +9.9999999728919353e-01
1.4000000000000001e+00 +8.1649444931529036e+00 +0.0000000000000000e+00 +1.3999999985328517e+00 -7.9295599718972934e-05 +0.0000000000000000e+00 +9.9999999685610419e-01
1.5000000000000002e+00 +8.1649362803931247e+00 +0.0000000000000000e+00 +1.4999999981954710e+00 -8.4959596529781420e-05 +0.0000000000000000e+00 +9.9999999639093373e-01
1.6000000000000003e+00 +8.1649275012334659e+00 +0.0000000000000000e+00 +1.5999999978099693e+00 -9.0623597343986913e-05 +0.0000000000000000e+00 +9.9999999589368205e-01
1.7000000000000004e+00 +8.1649181556735169e+00 +0.0000000000000000e+00 +1.6999999973731381e+00 -9.6287602340089693e-05 +0.0000000000000000e+00 +9.9999999536434903e-01
1.8000000000000005e+00 +8.1649082437128513e+00 +0.0000000000000000e+00 +1.7999999968817697e+00 -1.0195161171139551e-04 +0.0000000000000000e+00 +9.9999999480293467e-01
1.9000000000000006e+00 +8.1648977653510215e+00 +0.0000000000000000e+00 +1.8999999963326557e+00 -1.0761562566601576e-04 +0.0000000000000000e+00 +9.9999999420943875e-01
2.0000000000000004e+00 +8.1648867205875586e+00 +0.0000000000000000e+00 +1.9999999957225880e+00 -1.1327964442686763e-04 +0.0000000000000000e+00 +9.9999999358386127e-01
2.1000000000000005e+00 +8.1648751094219687e+00 +0.0000000000000000e+00 +2.0999999950483588e+00 -1.1894366823045014e-04 +0.0000000000000000e+00 +9.9999999292620212e-01
2.2000000000000006e+00 +8.1648629318537367e+00 +0.0000000000000000e+00 +2.1999999943067592e+00 -1.2460769731337847e-04 +0.0000000000000000e+00 +9.9999999223646108e-01
2.3000000000000007e+00 +8.1648501878823225e+00 +0.0000000000000000e+00 +2.2999999934945814e+00 -1.3027173189891813e-04 +0.0000000000000000e+00 +9.9999999151463814e-01
2.4000000000000008e+00 +8.1648368775071667e+00 +0.0000000000000000e+00 +2.3999999926086173e+00 -1.3593577219576055e-04 +0.0000000000000000e+00 +9.9999999076073309e-01
2.5000000000000009e+00 +8.1648230007276865e+00 +0.0000000000000000e+00 +2.4999999916456588e+00 -1.4159981839802300e-04 +0.0000000000000000e+00 +9.9999998997474593e-01
2.6000000000000010e+00 +8.1648085575432834e+00 +0.0000000000000000e+00 +2.5999999906024973e+00 -1.4726387068524825e-04 +0.0000000000000000e+00 +9.9999998915667643e-01
2.7000000000000011e+00 +8.1647935479533409e+00 +0.0000000000000000e+00 +2.6999999894759248e+00 -1.5292792922240439e-04 +0.0000000000000000e+00 +9.9999998830652448e-01
2.8000000000000012e+00 +8.1647779719572249e+00 +0.0000000000000000e+00 +2.7999999882627327e+00 -1.5859199415988446e-04 +0.0000000000000000e+00 +9.9999998742428997e-01
2.9000000000000012e+00 +8.1647618295542905e+00 +0.0000000000000000e+00 +2.8999999869597133e+00 -1.6425606563350619e-04 +0.0000000000000000e+00 +9.9999998650997268e-01
3.0000000000000013e+00 +8.1647451207438770e+00 +0.0000000000000000e+00 +2.9999999855636581e+00 -1.6992014376451158e-04 +0.0000000000000000e+00 +9.9999998556357261e-01
3.1000000000000014e+00 +8.1647278455253129e+00 +0.0000000000000000e+00 +3.0999999840713586e+00 -1.7558422865956655e-04 +0.0000000000000000e+00 +9.9999998458508954e-01
3.2000000000000015e+00 +8.1647100038979161e+00 +0.0000000000000000e+00 +3.1999999824796066e+00 -1.8124832041076052e-04 +0.0000000000000000e+00 +9.9999998357452335e-01
3.3000000000000016e+00 +8.1646915958609991e+00 +0.0000000000000000e+00 +3.2999999807851936e+00 -1.8691241909560597e-04 +0.0000000000000000e+00 +9.9999998253187394e-01
3.4000000000000017e+00 +8.1646726214138639e+00 +0.0000000000000000e+00 +3.3999999789849116e+00 -1.9257652477703790e-04 +0.0000000000000000e+00 +9.9999998145714120e-01
3.5000000000000018e+00 +8.1646530805558086e+00 +0.0000000000000000e+00 +3.4999999770755523e+00 -1.9824063750341339e-04 +0.0000000000000000e+00 +9.9999998035032489e-01
3.6000000000000019e+00 +8.1646329732861265e+00 +0.0000000000000000e+00 +3.5999999750539073e+00 -2.0390475730851099e-04 +0.0000000000000000e+00 +9.9999997921142503e-01
3.7000000000000020e+00 +8.1646122996041104e+00 +0.0000000000000000e+00 +3.6999999729167681e+00 -2.0956888421153018e-04 +0.0000000000000000e+00 +9.9999997804044138e-01
3.8000000000000020e+00 +8.1645910595090481e+00 +0.0000000000000000e+00 +3.7999999706609264e+00 -2.1523301821709074e-04 +0.0000000000000000e+00 +9.9999997683737396e-01
3.9000000000000021e+00 +8.1645692530002307e+00 +0.0000000000000000e+00 +3.8999999682831734e+00 -2.2089715931523213e-04 +0.0000000000000000e+00 +9.9999997560222254e-01
4.0000000000000018e+00 +8.1645468800769496e+00 +0.0000000000000000e+00 +3.9999999657803014e+00 -2.2656130748141285e-04 +0.0000000000000000e+00 +9.9999997433498700e-01
4.1000000000000014e+00 +8.1645239407384995e+00 +0.0000000000000000e+00 +4.0999999631491013e+00 -2.3222546267720205e-04 +0.0000000000000000e+00 +9.9999997303566723e-01
4.2000000000000011e+00 +8.1645004349841805e+00 +0.0000000000000000e+00 +4.1999999603863651e+00 -2.3788962485789568e-04 +0.0000000000000000e+00 +9.9999997170426314e-01
4.3000000000000007e+00 +8.1644763628132964e+00 +0.0000000000000000e+00 +4.2999999574888843e+00 -2.4355379398013287e-04 +0.0000000000000000e+00 +9.9999997034077459e-01
4.4000000000000004e+00 +8.1644517242251542e+00 +0.0000000000000000e+00 +4.3999999544534507e+00 -2.4921797000258849e-04 +0.0000000000000000e+00 +9.9999996894520149e-01
4.5000000000000000e+00 +8.1644265192190666e+00 +0.0000000000000000e+00 +4.4999999512768554e+00 -2.5488215288597325e-04 +0.0000000000000000e+00 +9.9999996751754383e-01
4.5999999999999996e+00 +8.1644007477943497e+00 +0.0000000000000000e+00 +4.5999999479558902e+00 -2.6054634259303387e-04 +0.0000000000000000e+00 +9.9999996605780139e-01
4.6999999999999993e+00 +8.1643744099503213e+00 +0.0000000000000000e+00 +4.6999999444873461e+00 -2.6621053908855327e-04 +0.0000000000000000e+00 +9.9999996456597406e-01
4.7999999999999989e+00 +8.1643475056863064e+00 +0.0000000000000000e+00 +4.7999999408680152e+00 -2.7187474233935065e-04 +0.0000000000000000e+00 +9.9999996304206185e-01
4.8999999999999986e+00 +8.1643200350016301e+00 +0.0000000000000000e+00 +4.8999999370946892e+00 -2.7753895231428187e-04 +0.0000000000000000e+00 +9.9999996148606451e-01
4.9999999999999982e+00 +8.1642919978956208e+00 +0.0000000000000000e+00 +4.9999999331641591e+00 -2.8320316898423952e-04 +0.0000000000000000e+00 +9.9999995989798207e-01
5.0999999999999979e+00 +8.1642633943676106e+00 +0.0000000000000000e+00 +5.0999999290732161e+00 -2.8886739232215322e-04 +0.0000000000000000e+00 +9.9999995827781429e-01
5.1999999999999975e+00 +8.1642342244169352e+00 +0.0000000000000000e+00 +5.1999999248186519e+00 -2.9453162230298990e-04 +0.0000000000000000e+00 +9.9999995662556118e-01
5.2999999999999972e+00 +8.1642044880429303e+00 +0.0000000000000000e+00 +5.2999999203972585e+00 -3.0019585890375412e-04 +0.0000000000000000e+00 +9.9999995494122251e-01
5.3999999999999968e+00 +8.1641741852449350e+00 +0.0000000000000000e+00 +5.3999999158058269e+00 -3.0586010210348829e-04 +0.0000000000000000e+00 +9.9999995322479829e-01
5.4999999999999964e+00 +8.1641433160222903e+00 +0.0000000000000000e+00 +5.4999999110411490e+00 -3.1152435188327310e-04 +0.0000000000000000e+00 +9.9999995147628828e-01
5.5999999999999961e+00 +8.1641118803743389e+00 +0.0000000000000000e+00 +5.5999999061000159e+00 -3.1718860822622778e-04 +0.0000000000000000e+00 +9.9999994969569250e-01
5.6999999999999957e+00 +8.1640798783004254e+00 +0.0000000000000000e+00 +5.6999999009792184e+00 -3.2285287111751058e-04 +0.0000000000000000e+00 +9.9999994788301083e-01
5.7999999999999954e+00 +8.1640473097998960e+00 +0.0000000000000000e+00 +5.7999998956755485e+00 -3.2851714054431898e-04 +0.0000000000000000e+00 +9.9999994603824316e-01
5.8999999999999950e+00 +8.1640141748720989e+00 +0.0000000000000000e+00 +5.8999998901857973e+00 -3.3418141649589031e-04 +0.0000000000000000e+00 +9.9999994416138926e-01
5.9999999999999947e+00 +8.1639804735163803e+00 +0.0000000000000000e+00 +5.9999998845067566e+00 -3.3984569896350201e-04 +0.0000000000000000e+00 +9.9999994225244915e-01
6.0999999999999943e+00 +8.1639462057320902e+00 +0.0000000000000000e+00 +6.0999998786352174e+00 -3.4550998794037662e-04 +0.0000000000000000e+00 +9.9999994031142270e-01
6.1999999999999940e+00 +8.1639113715185765e+00 +0.0000000000000000e+00 +6.1999998725679717e+00 -3.5117428342063060e-04 +0.0000000000000000e+00 +9.9999993833830980e-01
6.2999999999999936e+00 +8.1638759708751891e+00 +0.0000000000000000e+00 +6.2999998663018104e+00 -3.5683858539822317e-04 +0.0000000000000000e+00 +9.9999993633311035e-01
6.3999999999999932e+00 +8.1638400038012797e+00 +0.0000000000000000e+00 +6.3999998598335246e+00 -3.6250289386686085e-04 +0.0000000000000000e+00 +9.9999993429582423e-01
6.4999999999999929e+00 +8.1638034702961999e+00 +0.0000000000000000e+00 +6.4999998531599061e+00 -3.6816720881999762e-04 +0.0000000000000000e+00 +9.9999993222645134e-01
6.5999999999999925e+00 +8.1637663703592995e+00 +0.0000000000000000e+00 +6.5999998462777461e+00 -3.7383153025083503e-04 +0.0000000000000000e+00 +9.9999993012499155e-01
6.6999999999999922e+00 +8.1637287039899338e+00 +0.0000000000000000e+00 +6.6999998391838353e+00 -3.7949585815232246e-04 +0.0000000000000000e+00 +9.9999992799144477e-01
6.7999999999999918e+00 +8.1636904711874543e+00 +0.0000000000000000e+00 +6.7999998318749659e+00 -3.8516019251715717e-04 +0.0000000000000000e+00 +9.9999992582581088e-01
6.8999999999999915e+00 +8.1636516719512144e+00 +0.0000000000000000e+00 +6.8999998243479279e+00 -3.9082453333778459e-04 +0.0000000000000000e+00 +9.9999992362808976e-01
6.9999999999999911e+00 +8.1636123062805712e+00 +0.0000000000000000e+00 +6.9999998165995141e+00 -3.9648888060639847e-04 +0.0000000000000000e+00 +9.9999992139828131e-01
7.0999999999999908e+00 +8.1635723741748780e+00 +0.0000000000000000e+00 +7.0999998086265146e+00 -4.0215323431494102e-04 +0.0000000000000000e+00 +9.9999991913638542e-01
7.1999999999999904e+00 +8.1635318756334936e+00 +0.0000000000000000e+00 +7.1999998004257213e+00 -4.0781759445510319e-04 +0.0000000000000000e+00 +9.9999991684240197e-01
7.2999999999999901e+00 +8.1634908106557731e+00 +0.0000000000000000e+00 +7.2999997919939252e+00 -4.1348196101832475e-04 +0.0000000000000000e+00 +9.9999991451633086e-01
7.3999999999999897e+00 +8.1634491792410753e+00 +0.0000000000000000e+00 +7.3999997833279174e+00 -4.1914633399579463e-04 +0.0000000000000000e+00 +9.9999991215817208e-01
7.4999999999999893e+00 +8.1634069813887606e+00 +0.0000000000000000e+00 +7.4999997744244897e+00 -4.2481071337845111e-04 +0.0000000000000000e+00 +9.9999990976792541e-01
7.5999999999999890e+00 +8.1633642170981879e+00 +0.0000000000000000e+00 +7.5999997652804332e+00 -4.3047509915698193e-04 +0.0000000000000000e+00 +9.9999990734559074e-01
7.6999999999999886e+00 +8.1633208863687177e+00 +0.0000000000000000e+00 +7.6999997558925388e+00 -4.3613949132182463e-04 +0.0000000000000000e+00 +9.9999990489116808e-01
7.7999999999999883e+00 +8.1632769891997121e+00 +0.0000000000000000e+00 +7.7999997462575976e+00 -4.4180388986316671e-04 +0.0000000000000000e+00 +9.9999990240465719e-01
7.8999999999999879e+00 +8.1632325255905336e+00 +0.0000000000000000e+00 +7.8999997363724006e+00 -4.4746829477094601e-04 +0.0000000000000000e+00 +9.9999989988605809e-01
7.9999999999999876e+00 +8.1631874955405461e+00 +0.0000000000000000e+00 +7.9999997262337397e+00 -4.5313270603485073e-04 +0.0000000000000000e+00 +9.9999989733537065e-01
8.0999999999999872e+00 +8.1631418990491156e+00 +0.0000000000000000e+00 +8.0999997158384058e+00 -4.5879712364431429e-04 +0.0000000000000000e+00 +9.9999989475259465e-01
8.1999999999999869e+00 +8.1630957361156060e+00 +0.0000000000000000e+00 +8.1999997051831901e+00 -4.6446154758845418e-04 +0.0000000000000000e+00 +9.9999989213773011e-01
8.2999999999999865e+00 +8.1630490067393868e+00 +0.0000000000000000e+00 +8.2999996942648835e+00 -4.7012597785601096e-04 +0.0000000000000000e+00 +9.9999988949077689e-01
8.3999999999999861e+00 +8.1630017109198256e+00 +0.0000000000000000e+00 +8.3999996830802761e+00 -4.7579041443534295e-04 +0.0000000000000000e+00 +9.9999988681173491e-01
8.4999999999999858e+00 +8.1629538486562900e+00 +0.0000000000000000e+00 +8.4999996716261599e+00 -4.8145485731442662e-04 +0.0000000000000000e+00 +9.9999988410060403e-01
8.5999999999999854e+00 +8.1629054199481530e+00 +0.0000000000000000e+00 +8.5999996598993267e+00 -4.8711930648085707e-04 +0.0000000000000000e+00 +9.9999988135738416e-01
8.6999999999999851e+00 +8.1628564247947857e+00 +0.0000000000000000e+00 +8.6999996478965667e+00 -4.9278376192184831e-04 +0.0000000000000000e+00 +9.9999987858207517e-01
8.7999999999999847e+00 +8.1628068631955610e+00 +0.0000000000000000e+00 +8.7999996356146717e+00 -4.9844822362423357e-04 +0.0000000000000000e+00 +9.9999987577467697e-01
8.8999999999999844e+00 +8.1627567351498538e+00 +0.0000000000000000e+00 +8.8999996230504319e+00 -5.0411269157446591e-04 +0.0000000000000000e+00 +9.9999987293518955e-01
8.9999999999999840e+00 +8.1627060406570386e+00 +0.0000000000000000e+00 +8.9999996102006392e+00 -5.0977716575861841e-04 +0.0000000000000000e+00 +9.9999987006361268e-01
9.0999999999999837e+00 +8.1626547797164939e+00 +0.0000000000000000e+00 +9.0999995970620837e+00 -5.1544164616238461e-04 +0.0000000000000000e+00 +9.9999986715994638e-01
9.1999999999999833e+00 +8.1626029523275996e+00 +0.0000000000000000e+00 +9.1999995836315573e+00 -5.2110613277107909e-04 +0.0000000000000000e+00 +9.9999986422419052e-01
9.2999999999999829e+00 +8.1625505584897340e+00 +0.0000000000000000e+00 +9.2999995699058520e+00 -5.2677062556963773e-04 +0.0000000000000000e+00 +9.9999986125634488e-01
9.3999999999999826e+00 +8.1624975982022789e+00 +0.0000000000000000e+00 +9.3999995558817577e+00 -5.3243512454261824e-04 +0.0000000000000000e+00 +9.9999985825640947e-01
9.4999999999999822e+00 +8.1624440714646198e+00 +0.0000000000000000e+00 +9.4999995415560647e+00 -5.3809962967420058e-04 +0.0000000000000000e+00 +9.9999985522438428e-01
9.5999999999999819e+00 +8.1623899782761402e+00 +0.0000000000000000e+00 +9.5999995269255649e+00 -5.4376414094818733e-04 +0.0000000000000000e+00 +9.9999985216026910e-01
9.6999999999999815e+00 +8.1623353186362255e+00 +0.0000000000000000e+00 +9.6999995119870484e+00 -5.4942865834800439e-04 +0.0000000000000000e+00 +9.9999984906406381e-01
9.7999999999999812e+00 +8.1622800925442665e+00 +0.0000000000000000e+00 +9.7999994967373070e+00 -5.5509318185670102e-04 +0.0000000000000000e+00 +9.9999984593576841e-01
9.8999999999999808e+00 +8.1622242999996519e+00 +0.0000000000000000e+00 +9.8999994811731327e+00 -5.6075771145695081e-04 +0.0000000000000000e+00 +9.9999984277538267e-01
9.9999999999999805e+00 +8.1621679410017727e+00 +0.0000000000000000e+00 +9.9999994652913138e+00 -5.6642224713105186e-04 +0.0000000000000000e+00 +9.9999983958290661e-01
1.0099999999999980e+01 +8.1621110155500229e+00 +0.0000000000000000e+00 +1.0099999449088644e+01 -5.7208678886121102e-04 +0.0000000000000000e+00 +9.9999983635834011e-01
1.0199999999999980e+01 +8.1620535236437988e+00 +0.0000000000000000e+00 +1.0199999432561913e+01 -5.7775133663266450e-04 +0.0000000000000000e+00 +9.9999983310168306e-01
1.0299999999999979e+01 +8.1619954652824962e+00 +0.0000000000000000e+00 +1.0299999415707912e+01 -5.8341589043679829e-04 +0.0000000000000000e+00 +9.9999982981293534e-01
1.0399999999999979e+01 +8.1619368404655113e+00 +0.0000000000000000e+00 +1.0399999398523430e+01 -5.8908045027143089e-04 +0.0000000000000000e+00 +9.9999982649209695e-01
1.0499999999999979e+01 +8.1618776491922418e+00 +0.0000000000000000e+00 +1.0499999381005262e+01 -5.9474501614081312e-04 +0.0000000000000000e+00 +9.9999982313916769e-01
1.0599999999999978e+01 +8.1618178914620820e+00 +0.0000000000000000e+00 +1.0599999363150195e+01 -6.0040958805562697e-04 +0.0000000000000000e+00 +9.9999981975414753e-01
1.0699999999999978e+01 +8.1617575672744280e+00 +0.0000000000000000e+00 +1.0699999344955021e+01 -6.0607416603298539e-04 +0.0000000000000000e+00 +9.9999981633703627e-01
1.0799999999999978e+01 +8.1616966766286723e+00 +0.0000000000000000e+00 +1.0799999326416533e+01 -6.1173875009643138e-04 +0.0000000000000000e+00 +9.9999981288783379e-01
1.0899999999999977e+01 +8.1616352195242055e+00 +0.0000000000000000e+00 +1.0899999307531520e+01 -6.1740334027593740e-04 +0.0000000000000000e+00 +9.9999980940653999e-01
1.0999999999999977e+01 +8.1615731959604130e+00 +0.0000000000000000e+00 +1.0999999288296772e+01 -6.2306793660790456e-04 +0.0000000000000000e+00 +9.9999980589315474e-01
1.1099999999999977e+01 +8.1615106059366784e+00 +0.0000000000000000e+00 +1.1099999268709080e+01 -6.2873253913516198e-04 +0.0000000000000000e+00 +9.9999980234767794e-01
1.1199999999999976e+01 +8.1614474494523783e+00 +0.0000000000000000e+00 +1.1199999248765238e+01 -6.3439714790696595e-04 +0.0000000000000000e+00 +9.9999979877010947e-01
1.1299999999999976e+01 +8.1613837265068874e+00 +0.0000000000000000e+00 +1.1299999228462033e+01 -6.4006176297899935e-04 +0.0000000000000000e+00 +9.9999979516044912e-01
1.1399999999999975e+01 +8.1613194370995714e+00 +0.0000000000000000e+00 +1.1399999207796258e+01 -6.4572638441337061e-04 +0.0000000000000000e+00 +9.9999979151869678e-01
1.1499999999999975e+01 +8.1612545812297910e+00 +0.0000000000000000e+00 +1.1499999186764702e+01 -6.5139101227861310e-04 +0.0000000000000000e+00 +9.9999978784485233e-01
1.1599999999999975e+01 +8.1611891588968994e+00 +0.0000000000000000e+00 +1.1599999165364158e+01 -6.5705564664968413e-04 +0.0000000000000000e+00 +9.9999978413891555e-01
1.1699999999999974e+01 +8.1611231701002414e+00 +0.0000000000000000e+00 +1.1699999143591416e+01 -6.6272028760796435e-04 +0.0000000000000000e+00 +9.9999978040088633e-01
1.1799999999999974e+01 +8.1610566148391541e+00 +0.0000000000000000e+00 +1.1799999121443266e+01 -6.6838493524125667e-04 +0.0000000000000000e+00 +9.9999977663076445e-01
