# multipoles
# s[mm] polynom_b[n=0][T/m^n] polynom_b[n=1][T/m^n] polynom_b[n=2][T/m^n] polynom_b[n=3][T/m^n] polynom_b[n=4][T/m^n] polynom_b[n=5][T/m^n] polynom_b[n=6][T/m^n] 
+0.0000000000000000e+00 -5.9430306090051943e-01 +8.1140822363007636e+00 -2.2141768806010317e-01 -4.0164411731703282e+01 -3.1757532181270194e+03 -1.3039640781037935e+04 +1.2560722341041209e+07 
-1.0000000000000001e-01 -5.9430290934442587e-01 +8.1140777514548077e+00 -2.2998920699822106e-01 -3.9724245491801121e+01 -2.9995317324801044e+03 -1.5757900251582387e+04 +1.1759995750252562e+07 
-2.0000000000000001e-01 -5.9430275093959317e-01 +8.1140695825993294e+00 -2.4029034408372732e-01 -3.9195626838629479e+01 -2.7909387158092454e+03 -1.8909383823822223e+04 +1.0806815362675548e+07 
-3.0000000000000004e-01 -5.9430258612865039e-01 +8.1140579974923934e+00 -2.5218187173234552e-01 -3.8586604310216970e+01 -2.5529293062136057e+03 -2.2451559781876145e+04 +9.7153954732470289e+06 
-4.0000000000000002e-01 -5.9430241535416994e-01 +8.1140432639029942e+00 -2.6552456844926492e-01 -3.7905226771103685e+01 -2.2884585343450849e+03 -2.6341894440373373e+04 +8.4999498897015825e+06 
-5.0000000000000000e-01 -5.9430223905871771e-01 +8.1140256495958027e+00 -2.8017921290599401e-01 -3.7159542955255453e+01 -2.0004814344313595e+03 -3.0537854845513742e+04 +7.1746924557050383e+06 
-5.9999999999999998e-01 -5.9430205768488131e-01 +8.1140054223440359e+00 -2.9600658120756485e-01 -3.6357601825573383e+01 -1.6919530911117704e+03 -3.4996906734549630e+04 +5.7538372616638979e+06 
-6.9999999999999996e-01 -5.9430187167522197e-01 +8.1139828499196547e+00 -3.1286745173636027e-01 -3.5507452292261654e+01 -1.3658285503501027e+03 -3.9676516151850461e+04 +4.2515982234629281e+06 
-7.9999999999999993e-01 -5.9430168147228524e-01 +8.1139582000988408e+00 -3.3062260480093691e-01 -3.4617143350847201e+01 -1.0250628236045479e+03 -4.4534148725113177e+04 +2.6821890988451028e+06 
-8.9999999999999991e-01 -5.9430148751863143e-01 +8.1139317406589164e+00 -3.4913281811184360e-01 -3.3694723981720124e+01 -6.7261097502508630e+02 -4.9527270269777087e+04 +1.0598239024512281e+06 
-9.9999999999999989e-01 -5.9430129025683909e-01 +8.1139037393752389e+00 -3.6825886736910679e-01 -3.2748243057998295e+01 -3.1142810476594894e+02 -5.4613347338680556e+04 -6.0128318791068287e+05 
-1.0999999999999999e+00 -5.9430109012943333e-01 +8.1138744640230716e+00 -3.8786153388300898e-01 -3.1785749388207414e+01 +5.5530789834360377e+01 -5.9749847008578923e+04 -2.2869184773557042e+06 
-1.2000000000000000e+00 -5.9430088757899013e-01 +8.1138441823822660e+00 -4.0780159256953197e-01 -3.0815291828436433e+01 +4.2531059193348239e+02 -6.4894236301148172e+04 -3.9828677128007398e+06 
-1.3000000000000000e+00 -5.9430068304809436e-01 +8.1138131622203620e+00 -4.2793981711071760e-01 -2.9844918801515185e+01 +7.9495616398906191e+02 -7.0003984942298470e+04 -5.6749165545741897e+06 
-1.4000000000000001e+00 -5.9430047697930377e-01 +8.1137816713136175e+00 -4.4813698407229913e-01 -2.8882678894871205e+01 +1.1615124233556439e+03 -7.5036561942342712e+04 -7.3488509306191113e+06 
-1.5000000000000002e+00 -5.9430026981522310e-01 +8.1137499774286717e+00 -4.6825386402270014e-01 -2.7936620288441745e+01 +1.5220241780794104e+03 -7.9949439016748642e+04 -8.9904562682332769e+06 
-1.6000000000000003e+00 -5.9430006199843788e-01 +8.1137183483335136e+00 -4.8815122972429470e-01 -2.7014791104503292e+01 +1.8735362817444652e+03 -8.4700088480953345e+04 -1.0585518229839079e+07 
-1.7000000000000004e+00 -5.9429985397157437e-01 +8.1136870517886965e+00 -5.0768984845850784e-01 -2.6125239122420716e+01 +2.2130934875608300e+03 -8.9245984989561082e+04 -1.2119822018704239e+07 
-1.8000000000000005e+00 -5.9429964617726871e-01 +8.1136563555510914e+00 -5.2673048614268414e-01 -2.5276011873662853e+01 +2.5377405275556002e+03 -9.3544605026412653e+04 -1.3579152759020362e+07 
-1.9000000000000006e+00 -5.9429943905815752e-01 +8.1136265273733379e+00 -5.4513390857503585e-01 -2.4475156622245564e+01 +2.8445221399339694e+03 -9.7553427033874847e+04 -1.4949295637843758e+07 
-2.0000000000000004e+00 -5.9429923305691590e-01 +8.1135978350006361e+00 -5.6276087668702379e-01 -2.3730720254619069e+01 +3.1304829770251949e+03 -1.0122993210020795e+05 -1.6216035461295716e+07 
-2.1000000000000005e+00 -5.9429902859927519e-01 +8.1135705181381610e+00 -5.7949604680449507e-01 -2.3049410235324153e+01 +3.3932917624852939e+03 -1.0453963034965732e+05 -1.7368300157529499e+07 
-2.2000000000000006e+00 -5.9429882603984019e-01 +8.1135447153614955e+00 -5.9531977002691894e-01 -2.2432937273493437e+01 +3.6331055143219728e+03 -1.0747842128596330e+05 -1.8407531301136486e+07 
-2.3000000000000007e+00 -5.9429862571464553e-01 +8.1135205427066008e+00 -6.1023635264216358e-01 -2.1881852196202267e+01 +3.8507015275767490e+03 -1.1004937561708364e+05 -1.9338285180613976e+07 
-2.4000000000000008e+00 -5.9429842795975552e-01 +8.1134981162040116e+00 -6.2425009799207865e-01 -2.1396705710689691e+01 +4.0468570488125315e+03 -1.1225556465116452e+05 -2.0165117872406326e+07 
-2.5000000000000009e+00 -5.9429823311121599e-01 +8.1134775518798481e+00 -6.3736531222158999e-01 -2.0978048438943127e+01 +4.2223493849041297e+03 -1.1410006005962405e+05 -2.0892585757806927e+07 
-2.6000000000000010e+00 -5.9429804150512155e-01 +8.1134589657547238e+00 -6.4958629632546749e-01 -2.0626430905570164e+01 +4.3779557525386826e+03 -1.1558593391580184e+05 -2.1525244806128792e+07 
-2.7000000000000011e+00 -5.9429785347754860e-01 +8.1134424738460567e+00 -6.6091735405449137e-01 -2.0342403637878043e+01 +4.5144534293905335e+03 -1.1671625800280336e+05 -2.2067651298799086e+07 
-2.8000000000000012e+00 -5.9429766936460837e-01 +8.1134281921648572e+00 -6.7136278616871425e-01 -2.0126517050188866e+01 +4.6326196448625087e+03 -1.1749410456064102e+05 -2.2524361304728106e+07 
-2.9000000000000012e+00 -5.9429748950243155e-01 +8.1134162367215712e+00 -6.8092689162376785e-01 -1.9979321644345745e+01 +4.7332316045676280e+03 -1.1792254503276816e+05 -2.2899930805720318e+07 
-3.0000000000000013e+00 -5.9429731422713650e-01 +8.1134067235099430e+00 -6.8961397236271693e-01 -1.9901367564488872e+01 +4.8170665798776163e+03 -1.1800465259344691e+05 -2.3198916113183420e+07 
-3.1000000000000014e+00 -5.9429714387490085e-01 +8.1133997685327301e+00 -6.9742832376767316e-01 -1.9893205339739293e+01 +4.8849017288512841e+03 -1.1774349783833527e+05 -2.3425873026494469e+07 
-3.2000000000000015e+00 -5.9429697878187049e-01 +8.1133954877758487e+00 -7.0437424642797630e-01 -1.9955385155407775e+01 +4.9375143156977583e+03 -1.1714215296296978e+05 -2.3585357860740915e+07 
-3.3000000000000016e+00 -5.9429681928425571e-01 +8.1133939972227740e+00 -7.1045603450717787e-01 -2.0088457279897874e+01 +4.9756814990519606e+03 -1.1620368925866284e+05 -2.3681926468003381e+07 
-3.4000000000000017e+00 -5.9429666571823592e-01 +8.1133954128527570e+00 -7.1567798749024347e-01 -2.0292972033982398e+01 +5.0001805481167712e+03 -1.1493117723011127e+05 -2.3720135241622794e+07 
-3.5000000000000018e+00 -5.9429651842006836e-01 +8.1133998506342078e+00 -7.2004439616460492e-01 -2.0569479602566151e+01 +5.0117885774215583e+03 -1.1332768768700078e+05 -2.3704539860637367e+07 
-3.6000000000000019e+00 -5.9429637772596677e-01 +8.1134074265345468e+00 -7.2355955886784451e-01 -2.0918530339015085e+01 +5.0112828607326801e+03 -1.1139628991709152e+05 -2.3639696794813033e+07 
-3.7000000000000020e+00 -5.9429624397219716e-01 +8.1134182565099042e+00 -7.2622776885599838e-01 -2.1340674483723451e+01 +4.9994405865719573e+03 -1.0914005328359280e+05 -2.3530162127702393e+07 
-3.8000000000000020e+00 -5.9429611749505040e-01 +8.1134324565106937e+00 -7.2805331788348027e-01 -2.1836462329069523e+01 +4.9770389279410983e+03 -1.0656204624254857e+05 -2.3380491893642776e+07 
-3.9000000000000021e+00 -5.9429599863082094e-01 +8.1134501424795733e+00 -7.2904049930513348e-01 -2.2406444176616180e+01 +4.9448551039878557e+03 -1.0366533657081552e+05 -2.3195242378227264e+07 
-4.0000000000000018e+00 -5.9429588771582376e-01 +8.1134714303554265e+00 -7.2919360610258921e-01 -2.3051170475952528e+01 +4.9036663417501159e+03 -1.0045299049162025e+05 -2.2978969932951406e+07 
-4.1000000000000014e+00 -5.9429578524301729e-01 +8.1134963531960089e+00 -7.2852508365979363e-01 -2.3769588877314415e+01 +4.8542822086745227e+03 -9.6934753342518045e+04 -2.2736157286326319e+07 
-4.2000000000000011e+00 -5.9429569232794122e-01 +8.1135246161892915e+00 -7.2707830965404718e-01 -2.4553981747156516e+01 +4.7976085201022433e+03 -9.3148433783443252e+04 -2.2470862403574452e+07 
-4.3000000000000007e+00 -5.9429561024082977e-01 +8.1135558433825476e+00 -7.2490397413179475e-01 -2.5394900472514870e+01 +4.7345662978244782e+03 -8.9139191084116595e+04 -2.2187001501218211e+07 
-4.4000000000000004e+00 -5.9429554025184517e-01 +8.1135896588315983e+00 -7.2205277634431919e-01 -2.6282896767896251e+01 +4.6660767302600625e+03 -8.4952182478033123e+04 -2.1888491564771526e+07 
-4.5000000000000000e+00 -5.9429548363112561e-01 +8.1136256865859870e+00 -7.1857541764777588e-01 -2.7208522269906073e+01 +4.5930610291848816e+03 -8.0632565491924397e+04 -2.1579249642834548e+07 
-4.5999999999999996e+00 -5.9429544164878612e-01 +8.1136635507054500e+00 -7.1452260190371497e-01 -2.8162329014913070e+01 +4.5164404419276561e+03 -7.6225495169590882e+04 -2.1263192918112259e+07 
-4.6999999999999993e+00 -5.9429541557485854e-01 +8.1137028752483413e+00 -7.0994504216162346e-01 -2.9134869093134309e+01 +4.4371363704846099e+03 -7.1776126129493074e+04 -2.0944239252688050e+07 
-4.7999999999999989e+00 -5.9429540667936609e-01 +8.1137432842791952e+00 -7.0489345241607915e-01 -3.0116694881842083e+01 +4.3560702231981495e+03 -6.7329611164727015e+04 -2.0626306503770664e+07 
-4.8999999999999986e+00 -5.9429541623228099e-01 +8.1137844018663756e+00 -6.9941855171681000e-01 -3.1098358979051628e+01 +4.2741634840555344e+03 -6.2931101641780740e+04 -2.0313312832410879e+07 
-4.9999999999999982e+00 -5.9429544550348645e-01 +8.1138258520801276e+00 -6.9357106919551370e-01 -3.2070414141369511e+01 +4.1923378068807178e+03 -5.8625747871919819e+04 -2.0009177144237019e+07 
-5.0999999999999979e+00 -5.9429549576285656e-01 +8.1138672589952545e+00 -6.8740173464425280e-01 -3.3023413366837843e+01 +4.1115148417896271e+03 -5.4458698633812208e+04 -1.9717818280568406e+07 
-5.1999999999999975e+00 -5.9429556828017738e-01 +8.1139082466960044e+00 -6.8096128730372529e-01 -3.3947910038879428e+01 +4.0326163951919502e+03 -5.0475100330084671e+04 -1.9443155762034968e+07 
-5.2999999999999972e+00 -5.9429566432519021e-01 +8.1139484392663164e+00 -6.7430047118258218e-01 -3.4834457649679379e+01 +3.9565643416825828e+03 -4.6720098589377812e+04 -1.9189109368321378e+07 
-5.3999999999999968e+00 -5.9429578516756376e-01 +8.1139874607986222e+00 -6.6747003774393787e-01 -3.5673610044962999e+01 +3.8842806728697351e+03 -4.3238836873428721e+04 -1.8959599368145395e+07 
-5.4999999999999964e+00 -5.9429593207693165e-01 +8.1140249353930081e+00 -6.6052074203861677e-01 -3.6455921414090255e+01 +3.8166874251089375e+03 -4.0076456506998155e+04 -1.8758546175285231e+07 
-5.5999999999999961e+00 -5.9429610632280361e-01 +8.1140604871531181e+00 -6.5350335290425010e-01 -3.7171946171933826e+01 +3.7547068696714355e+03 -3.7278097370413161e+04 -1.8589871245960545e+07 
-5.6999999999999957e+00 -5.9429630917467546e-01 +8.1140937401896771e+00 -6.4646863986067704e-01 -3.7812239048921832e+01 +3.6992612663152572e+03 -3.4888897409754580e+04 -1.8457495912642021e+07 
-5.7999999999999954e+00 -5.9429654190193149e-01 +8.1141243186232241e+00 -6.3946738428370886e-01 -3.8367355190402151e+01 +3.6512730669737552e+03 -3.2953992015253018e+04 -1.8365342328920554e+07 
-5.8999999999999950e+00 -5.9429680577389832e-01 +8.1141518465804214e+00 -6.3255037381833912e-01 -3.8827850048583578e+01 +3.6116648174335742e+03 -3.1518514659113109e+04 -1.8317333023935918e+07 
-5.9999999999999947e+00 -5.9429710205980513e-01 +8.1141759481944433e+00 -6.2576840581603477e-01 -3.9184279365665347e+01 +3.5813592141680297e+03 -3.0627597116024903e+04 -1.8317391154127836e+07 
-6.0999999999999943e+00 -5.9429743133352342e-01 +8.1141963251874962e+00 -6.1916660837660087e-01 -3.9429466645009690e+01 +3.5610033804216528e+03 -3.0314972515382276e+04 -1.8368000357632786e+07 
-6.1999999999999940e+00 -5.9429779140299788e-01 +8.1142129461733710e+00 -6.1276816710332871e-01 -3.9564608014505723e+01 +3.5501864058732012e+03 -3.0571530713239707e+04 -1.8466116318839382e+07 
-6.2999999999999936e+00 -5.9429817938875040e-01 +8.1142258358214612e+00 -6.0659083198476782e-01 -3.9592825921724213e+01 +3.5482417010617937e+03 -3.1378109523936262e+04 -1.8607360914996151e+07 
-6.3999999999999932e+00 -5.9429859241126870e-01 +8.1142350188109180e+00 -6.0065235500041403e-01 -3.9517242732737728e+01 +3.5545027057857196e+03 -3.2715548219946133e+04 -1.8787356139805913e+07 
-6.4999999999999929e+00 -5.9429902759107489e-01 +8.1142405198332064e+00 -5.9497048207636194e-01 -3.9340980765066938e+01 +3.5683027375272718e+03 -3.4564687405547033e+04 -1.9001723389106940e+07 
-6.5999999999999925e+00 -5.9429948204863481e-01 +8.1142423635920444e+00 -5.8956296439998401e-01 -3.9067162282910736e+01 +3.5889752070337754e+03 -3.6906369034646006e+04 -1.9246084488761578e+07 
-6.6999999999999922e+00 -5.9429995290447934e-01 +8.1142405748075923e+00 -5.8444754300564183e-01 -3.8698909596408768e+01 +3.6158533237186175e+03 -3.9721435902087796e+04 -1.9516060287425831e+07 
-6.7999999999999918e+00 -5.9430043727909709e-01 +8.1142351782084798e+00 -5.7964196176032667e-01 -3.8239344800878129e+01 +3.6482703407363920e+03 -4.2990733227345634e+04 -1.9807271819571152e+07 
-6.8999999999999915e+00 -5.9430093229299363e-01 +8.1142261985430473e+00 -5.7516396099626510e-01 -3.7691590110001250e+01 +3.6855594403328423e+03 -4.6695106691653717e+04 -2.0115339776499789e+07 
-6.9999999999999911e+00 -5.9430143506665722e-01 +8.1142136605714015e+00 -5.7103128019682003e-01 -3.7058767586017382e+01 +3.7270537754624852e+03 -5.0815404114203542e+04 -2.0435884679980718e+07 
-7.0999999999999908e+00 -5.9430194272062786e-01 +8.1141975890705567e+00 -5.6726165092958514e-01 -3.6343999270704010e+01 +3.7720863448621385e+03 -5.5332474732403651e+04 -2.0764526311808005e+07 
-7.1999999999999904e+00 -5.9430245237538826e-01 +8.1141780088288122e+00 -5.6387280884424773e-01 -3.5550407022436481e+01 +3.8199902125210892e+03 -6.0227170145248747e+04 -2.1096884737279881e+07 
-7.2999999999999901e+00 -5.9430296115147208e-01 +8.1141549446559385e+00 -5.6088248155594045e-01 -3.4681112778352031e+01 +3.8700982863674772e+03 -6.5480342871558838e+04 -2.1428579275228668e+07 
-7.3999999999999897e+00 -5.9430346616939467e-01 +8.1141284213797586e+00 -5.5830839588237091e-01 -3.3739238434054997e+01 +3.9217434460442637e+03 -7.1072847106560090e+04 -2.1755229080470297e+07 
-7.4999999999999893e+00 -5.9430396454967060e-01 +8.1140984638364664e+00 -5.5616827653043777e-01 -3.2727905573942451e+01 +3.9742585246887820e+03 -7.6985540242068164e+04 -2.2072453074528310e+07 
-7.5999999999999890e+00 -5.9430445341284066e-01 +8.1140650968869465e+00 -5.5447984210020618e-01 -3.1650235878950706e+01 +4.0269762299685376e+03 -8.3199280694234505e+04 -2.2375869564037893e+07 
-7.6999999999999886e+00 -5.9430492987944383e-01 +8.1140283454080038e+00 -5.5326080916587961e-01 -3.0509350896474508e+01 +4.0792292230765493e+03 -8.9694929139993124e+04 -2.2661096617407255e+07 
-7.7999999999999883e+00 -5.9430539107002667e-01 +8.1139882342933340e+00 -5.5252889018982965e-01 -2.9308372030407821e+01 +4.1303500786973000e+03 -9.6453348698803777e+04 -2.2923751877749041e+07 
-7.8999999999999879e+00 -5.9430583410513527e-01 +8.1139447884599623e+00 -5.5230179505548749e-01 -2.8050420716571452e+01 +4.1796713124644348e+03 -1.0345540392355937e+05 -2.3159452686205003e+07 
-7.9999999999999876e+00 -5.9430625610533705e-01 +8.1138980328382253e+00 -5.5259722832521252e-01 -2.6738618088540186e+01 +4.2265253359953340e+03 -1.1068196268256295e+05 -2.3363815875054438e+07 
-8.0999999999999872e+00 -5.9430665484738521e-01 +8.1138480496436607e+00 -5.5341848643478753e-01 -2.5376568798511343e+01 +4.2702912734328347e+03 -1.1811282955756789e+05 -2.3533201926781755e+07 
-8.1999999999999869e+00 -5.9430703072853364e-01 +8.1137951967317594e+00 -5.5471528238454493e-01 -2.3971233710122565e+01 +4.3105837860470510e+03 -1.2571648861962557e+05 -2.3667114909964718e+07 
-8.2999999999999865e+00 -5.9430738480021361e-01 +8.1137399126686685e+00 -5.5642508818800129e-01 -2.2530764970834010e+01 +4.3470930598069062e+03 -1.3345685133151032e+05 -2.3765909306063771e+07 
-8.3999999999999861e+00 -5.9430771811394767e-01 +8.1136826359978294e+00 -5.5848537064135528e-01 -2.1063314350476293e+01 +4.3795092291213341e+03 -1.4129783029054551e+05 -2.3829939466004591e+07 
-8.4999999999999858e+00 -5.9430803172131974e-01 +8.1136238052424030e+00 -5.6083359204264782e-01 -1.9577033326977979e+01 +4.4075223755232255e+03 -1.4920333858382728e+05 -2.3859559577078797e+07 
-8.5999999999999854e+00 -5.9430832667401812e-01 +8.1135638588973702e+00 -5.6340720737617578e-01 -1.8080072869832961e+01 +4.4308224862272618e+03 -1.5713729100282842e+05 -2.3855123493776441e+07 
-8.6999999999999851e+00 -5.9430860402380759e-01 +8.1135032354358678e+00 -5.6614366618946466e-01 -1.6580583619690309e+01 +4.4490994855233166e+03 -1.6506360300692555e+05 -2.3816984879080106e+07 
-8.7999999999999847e+00 -5.9430886482256495e-01 +8.1134423733024281e+00 -5.6898040918295323e-01 -1.5086715735977370e+01 +4.4620431714987762e+03 -1.7294619146175846e+05 -2.3745496905364819e+07 
-8.8999999999999844e+00 -5.9430911012224885e-01 +8.1133817109132149e+00 -5.7185487262444989e-01 -1.3606618883170364e+01 +4.4693433075422299e+03 -1.8074897477817448e+05 -2.3641012710387055e+07 
-8.9999999999999840e+00 -5.9430934097494037e-01 +8.1133216866614113e+00 -5.7470448183461509e-01 -1.2148442420304683e+01 +4.4706894898448454e+03 -1.8843587170431126e+05 -2.3503884745075300e+07 
-9.0999999999999837e+00 -5.9430955843278144e-01 +8.1132627389073129e+00 -5.7746666071800856e-01 -1.0720335120674855e+01 +4.4657713375980939e+03 -1.9597080291344793e+05 -2.3334465699991114e+07 
-9.1999999999999833e+00 -5.9430976354806320e-01 +8.1132053059818539e+00 -5.8007881981942355e-01 -9.3304452805393279e+00 +4.4542782639136849e+03 -2.0331769036543861e+05 -2.3133107412360497e+07 
-9.2999999999999829e+00 -5.9430995737314074e-01 +8.1131498261874420e+00 -5.8247836764137861e-01 -7.9869207608101469e+00 +4.4358996932330474e+03 -2.1044045697953188e+05 -2.2900161904783964e+07 
-9.3999999999999826e+00 -5.9431014096053003e-01 +8.1130967377962424e+00 -5.8460269862679703e-01 -6.6979089436099910e+00 +4.4103248346213340e+03 -2.1730302687949687e+05 -2.2635980311716951e+07 
-9.4999999999999822e+00 -5.9431031536281254e-01 +8.1130464790442485e+00 -5.8638920493404534e-01 -5.4715565869744003e+00 +4.3772429057215777e+03 -2.2386932613404150e+05 -2.2340913946463283e+07 
-9.5999999999999819e+00 -5.9431048163272060e-01 +8.1129994881374028e+00 -5.8777526603374297e-01 -4.3160099941401286e+00 +4.3363429357937994e+03 -2.3010328180404913e+05 -2.2015313364425927e+07 
-9.6999999999999815e+00 -5.9431064082307550e-01 +8.1129562032475953e+00 -5.8869825716763735e-01 -3.2394149251071678e+00 +4.2873139320820983e+03 -2.3596882234849551e+05 -2.1659529170180719e+07 
-9.7999999999999812e+00 -5.9431079398686104e-01 +8.1129170625114284e+00 -5.8909553935158343e-01 -2.2499165663681655e+00 +4.2298446846266106e+03 -2.4142987779280700e+05 -2.1273911074975457e+07 
-9.8999999999999808e+00 -5.9431094217712443e-01 +8.1128825040316848e+00 -5.8890447247084443e-01 -1.3556595891300880e+00 +4.1636240199689182e+03 -2.4645037932306077e+05 -2.0858809116960354e+07 
-9.9999999999999805e+00 -5.9431108644709318e-01 +8.1128529658771154e+00 -5.8806240122083708e-01 -5.6478826810080751e-01 +4.0883405232262016e+03 -2.5099425846757917e+05 -2.0414572316191409e+07 
-1.0099999999999980e+01 -5.9431122782167389e-01 +8.1128287665155412e+00 -5.8653172540579768e-01 +1.1611191363523249e-01 +4.0039718259318834e+03 -2.5503009763295852e+05 -1.9942407475698028e+07 
