# field on trajectory
# s[mm] rx[mm] ry[mm] rz[mm] bx[T] by[T] bz[T]
0.0000000000000000e+00 +8.1529999999999987e+00 +0.0000000000000000e+00 +0.0000000000000000e+00 -2.8426467536417734e-02 -5.3671248013329498e-01 +5.3509722724512949e-03
1.0000000000000001e-01 +8.1529997170290596e+00 +0.0000000000000000e+00 +9.9999999999466169e-02 -2.8426396519684767e-02 -5.3671226588320520e-01 +5.3509128413445246e-03
2.0000000000000001e-01 +8.1529988681163932e+00 +0.0000000000000000e+00 +1.9999999999572943e-01 -2.8426329768443781e-02 -5.3671205530528310e-01 +5.3508555430654397e-03
3.0000000000000004e-01 +8.1529974532622234e+00 +0.0000000000000000e+00 +2.9999999998558691e-01 -2.8426267485716659e-02 -5.3671184896738677e-01 +5.3508003021538767e-03
4.0000000000000002e-01 +8.1529954724667650e+00 +0.0000000000000000e+00 +3.9999999996583568e-01 -2.8426209874524579e-02 -5.3671164743737432e-01 +5.3507470431498963e-03
5.0000000000000000e-01 +8.1529929257302314e+00 +0.0000000000000000e+00 +4.9999999993327293e-01 -2.8426157137889391e-02 -5.3671145128310405e-01 +5.3506956905935493e-03
5.9999999999999998e-01 +8.1529898130528302e+00 +0.0000000000000000e+00 +5.9999999988469566e-01 -2.8426109478835018e-02 -5.3671126107243461e-01 +5.3506461690246429e-03
6.9999999999999996e-01 +8.1529861344347623e+00 +0.0000000000000000e+00 +6.9999999981690109e-01 -2.8426067100388881e-02 -5.3671107737322421e-01 +5.3505984029825092e-03
7.9999999999999993e-01 +8.1529818898762212e+00 +0.0000000000000000e+00 +7.9999999972668623e-01 -2.8426030205583309e-02 -5.3671090075333117e-01 +5.3505523170057573e-03
8.9999999999999991e-01 +8.1529770793773917e+00 +0.0000000000000000e+00 +8.9999999961084831e-01 -2.8425998997456906e-02 -5.3671073178061379e-01 +5.3505078356320505e-03
9.9999999999999989e-01 +8.1529717029384532e+00 +0.0000000000000000e+00 +9.9999999946618434e-01 -2.8425973679055999e-02 -5.3671057102292896e-01 +5.3504648833978610e-03
1.0999999999999999e+00 +8.1529657605595762e+00 +0.0000000000000000e+00 +1.0999999992894915e+00 -2.8425954453435990e-02 -5.3671041904813344e-01 +5.3504233848382377e-03
1.2000000000000000e+00 +8.1529592522409189e+00 +0.0000000000000000e+00 +1.1999999990775669e+00 -2.8425941523662838e-02 -5.3671027642408364e-01 +5.3503832644865752e-03
1.3000000000000000e+00 +8.1529521779826339e+00 +0.0000000000000000e+00 +1.2999999988272077e+00 -2.8425935092814381e-02 -5.3671014371863457e-01 +5.3503444468743734e-03
1.4000000000000001e+00 +8.1529445377848599e+00 +0.0000000000000000e+00 +1.3999999985352112e+00 -2.8425935363981754e-02 -5.3671002149963976e-01 +5.3503068565309980e-03
1.5000000000000002e+00 +8.1529363316477266e+00 +0.0000000000000000e+00 +1.4999999981983743e+00 -2.8425942540270879e-02 -5.3670991033495252e-01 +5.3502704179834533e-03
1.6000000000000003e+00 +8.1529275595713528e+00 +0.0000000000000000e+00 +1.5999999978134942e+00 -2.8425956824803741e-02 -5.3670981079242419e-01 +5.3502350557561437e-03
1.7000000000000004e+00 +8.1529182215558418e+00 +0.0000000000000000e+00 +1.6999999973773681e+00 -2.8425978420719911e-02 -5.3670972343990486e-01 +5.3502006943706350e-03
1.8000000000000005e+00 +8.1529083176012858e+00 +0.0000000000000000e+00 +1.7999999968867930e+00 -2.8426007531177834e-02 -5.3670964884524275e-01 +5.3501672583454209e-03
1.9000000000000006e+00 +8.1528978477077647e+00 +0.0000000000000000e+00 +1.8999999963385663e+00 -2.8426044359356310e-02 -5.3670958757628418e-01 +5.3501346721956857e-03
2.0000000000000004e+00 +8.1528868118753444e+00 +0.0000000000000000e+00 +1.9999999957294849e+00 -2.8426089108455926e-02 -5.3670954020087402e-01 +5.3501028604330744e-03
2.1000000000000005e+00 +8.1528752101040727e+00 +0.0000000000000000e+00 +2.0999999950563462e+00 -2.8426141893106497e-02 -5.3670950716754429e-01 +5.3500717683675906e-03
2.2000000000000006e+00 +8.1528630423939870e+00 +0.0000000000000000e+00 +2.1999999943159469e+00 -2.8426202473580124e-02 -5.3670948844758681e-01 +5.3500414245151850e-03
2.3000000000000007e+00 +8.1528503087451050e+00 +0.0000000000000000e+00 +2.2999999935050846e+00 -2.8426270521561100e-02 -5.3670948389299111e-01 +5.3500118781937972e-03
2.4000000000000008e+00 +8.1528370091574338e+00 +0.0000000000000000e+00 +2.3999999926205557e+00 -2.8426345708737144e-02 -5.3670949335575613e-01 +5.3499831787217917e-03
2.5000000000000009e+00 +8.1528231436309646e+00 +0.0000000000000000e+00 +2.4999999916591582e+00 -2.8426427706798461e-02 -5.3670951668789202e-01 +5.3499553754182069e-03
2.6000000000000010e+00 +8.1528087121656707e+00 +0.0000000000000000e+00 +2.5999999906176887e+00 -2.8426516187436728e-02 -5.3670955374141993e-01 +5.3499285176030215e-03
2.7000000000000011e+00 +8.1527937147615148e+00 +0.0000000000000000e+00 +2.6999999894929445e+00 -2.8426610822344121e-02 -5.3670960436837500e-01 +5.3499026545973990e-03
2.8000000000000012e+00 +8.1527781514184454e+00 +0.0000000000000000e+00 +2.7999999882817228e+00 -2.8426711283212325e-02 -5.3670966842080525e-01 +5.3498778357239513e-03
2.9000000000000012e+00 +8.1527620221363932e+00 +0.0000000000000000e+00 +2.8999999869808208e+00 -2.8426817241731569e-02 -5.3670974575077446e-01 +5.3498541103069912e-03
3.0000000000000013e+00 +8.1527453269152783e+00 +0.0000000000000000e+00 +2.9999999855870354e+00 -2.8426928369589582e-02 -5.3670983621036217e-01 +5.3498315276727833e-03
3.1000000000000014e+00 +8.1527280657550065e+00 +0.0000000000000000e+00 +3.0999999840971637e+00 -2.8427044338470681e-02 -5.3670993965166525e-01 +5.3498101371498097e-03
3.2000000000000015e+00 +8.1527102386554677e+00 +0.0000000000000000e+00 +3.1999999825080030e+00 -2.8427164820054720e-02 -5.3671005592679855e-01 +5.3497899880690135e-03
3.3000000000000016e+00 +8.1526918456165411e+00 +0.0000000000000000e+00 +3.2999999808163500e+00 -2.8427289486016173e-02 -5.3671018488789668e-01 +5.3497711297640603e-03
3.4000000000000017e+00 +8.1526728866380900e+00 +0.0000000000000000e+00 +3.3999999790190021e+00 -2.8427418008023075e-02 -5.3671032638711447e-01 +5.3497536115715994e-03
3.5000000000000018e+00 +8.1526533617199668e+00 +0.0000000000000000e+00 +3.4999999771127563e+00 -2.8427550057736090e-02 -5.3671048027662782e-01 +5.3497374828315007e-03
3.6000000000000019e+00 +8.1526332708620100e+00 +0.0000000000000000e+00 +3.5999999750944101e+00 -2.8427685306807483e-02 -5.3671064640863564e-01 +5.3497227928871322e-03
3.7000000000000020e+00 +8.1526126140640454e+00 +0.0000000000000000e+00 +3.6999999729607600e+00 -2.8427823426880203e-02 -5.3671082463536046e-01 +5.3497095910856026e-03
3.8000000000000020e+00 +8.1525913913258847e+00 +0.0000000000000000e+00 +3.7999999707086034e+00 -2.8427964089586807e-02 -5.3671101480904881e-01 +5.3496979267780107e-03
3.9000000000000021e+00 +8.1525696026473291e+00 +0.0000000000000000e+00 +3.8999999683347375e+00 -2.8428106966548562e-02 -5.3671121678197353e-01 +5.3496878493197219e-03
4.0000000000000018e+00 +8.1525472480281653e+00 +0.0000000000000000e+00 +3.9999999658359591e+00 -2.8428251729374389e-02 -5.3671143040643421e-01 +5.3496794080705994e-03
4.1000000000000014e+00 +8.1525243274681696e+00 +0.0000000000000000e+00 +4.0999999632090649e+00 -2.8428397944740752e-02 -5.3671165548891786e-01 +5.3496726394200445e-03
4.2000000000000011e+00 +8.1525008409671056e+00 +0.0000000000000000e+00 +4.1999999604508531e+00 -2.8428544759628770e-02 -5.3671189165255029e-01 +5.3496675278595042e-03
4.3000000000000007e+00 +8.1524767885247247e+00 +0.0000000000000000e+00 +4.2999999575581196e+00 -2.8428691216074296e-02 -5.3671213847457366e-01 +5.3496640449048598e-03
4.4000000000000004e+00 +8.1524521701407675e+00 +0.0000000000000000e+00 +4.3999999545276616e+00 -2.8428836356084598e-02 -5.3671239553217465e-01 +5.3496621620711020e-03
4.5000000000000000e+00 +8.1524269858149623e+00 +0.0000000000000000e+00 +4.4999999513562763e+00 -2.8428979221636858e-02 -5.3671266240248350e-01 +5.3496618508722315e-03
4.5999999999999996e+00 +8.1524012355470301e+00 +0.0000000000000000e+00 +4.5999999480407610e+00 -2.8429118854676291e-02 -5.3671293866256786e-01 +5.3496630828211555e-03
4.6999999999999993e+00 +8.1523749193366797e+00 +0.0000000000000000e+00 +4.6999999445779128e+00 -2.8429254297114719e-02 -5.3671322388943132e-01 +5.3496658294295979e-03
4.7999999999999989e+00 +8.1523480371836126e+00 +0.0000000000000000e+00 +4.7999999409645282e+00 -2.8429384590828707e-02 -5.3671351766000730e-01 +5.3496700622079748e-03
4.8999999999999986e+00 +8.1523205890875197e+00 +0.0000000000000000e+00 +4.8999999371974043e+00 -2.8429508777658000e-02 -5.3671381955115804e-01 +5.3496757526653232e-03
4.9999999999999982e+00 +8.1522925750480812e+00 +0.0000000000000000e+00 +4.9999999332733385e+00 -2.8429625899403854e-02 -5.3671412913966932e-01 +5.3496828723091768e-03
5.0999999999999979e+00 +8.1522639950649740e+00 +0.0000000000000000e+00 +5.0999999291891278e+00 -2.8429734997827322e-02 -5.3671444600224660e-01 +5.3496913926454675e-03
5.1999999999999975e+00 +8.1522348491378640e+00 +0.0000000000000000e+00 +5.1999999249415687e+00 -2.8429835114647615e-02 -5.3671476971551280e-01 +5.3497012851784409e-03
5.2999999999999972e+00 +8.1522051372664119e+00 +0.0000000000000000e+00 +5.2999999205274584e+00 -2.8429925291540429e-02 -5.3671509985600274e-01 +5.3497125214105358e-03
5.3999999999999968e+00 +8.1521748594502697e+00 +0.0000000000000000e+00 +5.3999999159435941e+00 -2.8430004570136305e-02 -5.3671543600016125e-01 +5.3497250728422882e-03
5.4999999999999964e+00 +8.1521440156890836e+00 +0.0000000000000000e+00 +5.4999999111867721e+00 -2.8430071992018888e-02 -5.3671577772433832e-01 +5.3497389109722383e-03
5.5999999999999961e+00 +8.1521126059824951e+00 +0.0000000000000000e+00 +5.5999999062537897e+00 -2.8430126598723383e-02 -5.3671612460478613e-01 +5.3497540072968237e-03
5.6999999999999957e+00 +8.1520806303301381e+00 +0.0000000000000000e+00 +5.6999999011414442e+00 -2.8430167431734751e-02 -5.3671647621765473e-01 +5.3497703333102702e-03
5.7999999999999954e+00 +8.1520480887316449e+00 +0.0000000000000000e+00 +5.7999998958465326e+00 -2.8430193532486148e-02 -5.3671683213898869e-01 +5.3497878605045070e-03
5.8999999999999950e+00 +8.1520149811866389e+00 +0.0000000000000000e+00 +5.8999998903658515e+00 -2.8430203942357173e-02 -5.3671719194472434e-01 +5.3498065603690493e-03
5.9999999999999947e+00 +8.1519813076947436e+00 +0.0000000000000000e+00 +5.9999998846961979e+00 -2.8430197702672300e-02 -5.3671755521068409e-01 +5.3498264043909142e-03
6.0999999999999943e+00 +8.1519470682555770e+00 +0.0000000000000000e+00 +6.0999998788343683e+00 -2.8430174326391583e-02 -5.3671792147872477e-01 +5.3498473801776043e-03
6.1999999999999940e+00 +8.1519122628687537e+00 +0.0000000000000000e+00 +6.1999998727771599e+00 -2.8430135213231501e-02 -5.3671829015524497e-01 +5.3498695398290375e-03
6.2999999999999936e+00 +8.1518768915338864e+00 +0.0000000000000000e+00 +6.2999998665213699e+00 -2.8430082234651773e-02 -5.3671866061283580e-01 +5.3498929515724538e-03
6.3999999999999932e+00 +8.1518409542505843e+00 +0.0000000000000000e+00 +6.3999998600637946e+00 -2.8430017262172109e-02 -5.3671903222415107e-01 +5.3499176836400318e-03
6.4999999999999929e+00 +8.1518044510184584e+00 +0.0000000000000000e+00 +6.4999998534012313e+00 -2.8429942167375110e-02 -5.3671940436190846e-01 +5.3499438042690587e-03
6.5999999999999925e+00 +8.1517673818371161e+00 +0.0000000000000000e+00 +6.5999998465304763e+00 -2.8429858821909390e-02 -5.3671977639889534e-01 +5.3499713817021493e-03
6.6999999999999922e+00 +8.1517297467061685e+00 +0.0000000000000000e+00 +6.6999998394483269e+00 -2.8429769097492501e-02 -5.3672014770797083e-01 +5.3500004841874321e-03
6.7999999999999918e+00 +8.1516915456252228e+00 +0.0000000000000000e+00 +6.7999998321515802e+00 -2.8429674865914030e-02 -5.3672051766207030e-01 +5.3500311799787661e-03
6.8999999999999915e+00 +8.1516527785938919e+00 +0.0000000000000000e+00 +6.8999998246370327e+00 -2.8429577999038575e-02 -5.3672088563420861e-01 +5.3500635373359192e-03
6.9999999999999911e+00 +8.1516134456117886e+00 +0.0000000000000000e+00 +6.9999998169014814e+00 -2.8429480368808734e-02 -5.3672125099748347e-01 +5.3500976245247842e-03
7.0999999999999908e+00 +8.1515735466785291e+00 +0.0000000000000000e+00 +7.0999998089417229e+00 -2.8429383847248187e-02 -5.3672161312507960e-01 +5.3501335098175657e-03
7.1999999999999904e+00 +8.1515330817937315e+00 +0.0000000000000000e+00 +7.1999998007545543e+00 -2.8429290306464669e-02 -5.3672197139027178e-01 +5.3501712614929964e-03
7.2999999999999901e+00 +8.1514920509570210e+00 +0.0000000000000000e+00 +7.2999997923367728e+00 -2.8429201618652998e-02 -5.3672232516642926e-01 +5.3502109478365100e-03
7.3999999999999897e+00 +8.1514504541680264e+00 +0.0000000000000000e+00 +7.3999997836851747e+00 -2.8429119656098095e-02 -5.3672267382701777e-01 +5.3502526371404678e-03
7.4999999999999893e+00 +8.1514082914263799e+00 +0.0000000000000000e+00 +7.4999997747965566e+00 -2.8429046291177994e-02 -5.3672301674560574e-01 +5.3502963977043417e-03
7.5999999999999890e+00 +8.1513655627317210e+00 +0.0000000000000000e+00 +7.5999997656677163e+00 -2.8428983396366854e-02 -5.3672335329586518e-01 +5.3503422978349114e-03
7.6999999999999886e+00 +8.1513222680836979e+00 +0.0000000000000000e+00 +7.6999997562954494e+00 -2.8428932844237999e-02 -5.3672368285157690e-01 +5.3503904058464771e-03
7.7999999999999883e+00 +8.1512784074819642e+00 +0.0000000000000000e+00 +7.7999997466765532e+00 -2.8428896507466887e-02 -5.3672400478663318e-01 +5.3504407900610432e-03
7.8999999999999879e+00 +8.1512339809261807e+00 +0.0000000000000000e+00 +7.8999997368078247e+00 -2.8428876258834210e-02 -5.3672431847504287e-01 +5.3504935188085278e-03
7.9999999999999876e+00 +8.1511889884160187e+00 +0.0000000000000000e+00 +7.9999997266860605e+00 -2.8428873971228820e-02 -5.3672462329093307e-01 +5.3505486604269580e-03
8.0999999999999872e+00 +8.1511434299511585e+00 +0.0000000000000000e+00 +8.0999997163080586e+00 -2.8428890971457742e-02 -5.3672491884906282e-01 +5.3506062618773253e-03
8.1999999999999869e+00 +8.1510973055312892e+00 +0.0000000000000000e+00 +8.1999997056706135e+00 -2.8428926401593602e-02 -5.3672520572632310e-01 +5.3506662845827901e-03
8.2999999999999865e+00 +8.1510506151561106e+00 +0.0000000000000000e+00 +8.2999996947705235e+00 -2.8428978857460704e-02 -5.3672548474014248e-01 +5.3507286685775431e-03
8.3999999999999861e+00 +8.1510033588253297e+00 +0.0000000000000000e+00 +8.3999996836045856e+00 -2.8429046934820346e-02 -5.3672575670796852e-01 +5.3507933538912422e-03
8.4999999999999858e+00 +8.1509555365386621e+00 +0.0000000000000000e+00 +8.4999996721695954e+00 -2.8429129229368383e-02 -5.3672602244726508e-01 +5.3508602805488166e-03
8.5999999999999854e+00 +8.1509071482958273e+00 +0.0000000000000000e+00 +8.5999996604623501e+00 -2.8429224336732933e-02 -5.3672628277551415e-01 +5.3509293885702905e-03
8.6999999999999851e+00 +8.1508581940965534e+00 +0.0000000000000000e+00 +8.6999996484796469e+00 -2.8429330852471884e-02 -5.3672653851021512e-01 +5.3510006179705522e-03
8.7999999999999847e+00 +8.1508086739405723e+00 +0.0000000000000000e+00 +8.7999996362182831e+00 -2.8429447372070663e-02 -5.3672679046888583e-01 +5.3510739087591925e-03
8.8999999999999844e+00 +8.1507585878276192e+00 +0.0000000000000000e+00 +8.8999996236750558e+00 -2.8429572490939754e-02 -5.3672703946906231e-01 +5.3511492009402951e-03
8.9999999999999840e+00 +8.1507079357574330e+00 +0.0000000000000000e+00 +8.9999996108467606e+00 -2.8429704804412412e-02 -5.3672728632829858e-01 +5.3512264345122393e-03
9.0999999999999837e+00 +8.1506567177297544e+00 +0.0000000000000000e+00 +9.0999995977301946e+00 -2.8429842907742187e-02 -5.3672753186416799e-01 +5.3513055494675216e-03
9.1999999999999833e+00 +8.1506049337443276e+00 +0.0000000000000000e+00 +9.1999995843221551e+00 -2.8429985396100674e-02 -5.3672777689426199e-01 +5.3513864857925282e-03
9.2999999999999829e+00 +8.1505525838008950e+00 +0.0000000000000000e+00 +9.2999995706194376e+00 -2.8430130864575048e-02 -5.3672802223619132e-01 +5.3514691834673856e-03
9.3999999999999826e+00 +8.1504996678991990e+00 +0.0000000000000000e+00 +9.3999995566188392e+00 -2.8430277908165734e-02 -5.3672826870758550e-01 +5.3515535824657226e-03
9.4999999999999822e+00 +8.1504461860389821e+00 +0.0000000000000000e+00 +9.4999995423171573e+00 -2.8430425121784040e-02 -5.3672851712609404e-01 +5.3516396227545025e-03
9.5999999999999819e+00 +8.1503921382199831e+00 +0.0000000000000000e+00 +9.5999995277111889e+00 -2.8430571100249751e-02 -5.3672876830938543e-01 +5.3517272442938245e-03
9.6999999999999815e+00 +8.1503375244419409e+00 +0.0000000000000000e+00 +9.6999995127977314e+00 -2.8430714438288800e-02 -5.3672902307514792e-01 +5.3518163870367157e-03
9.7999999999999812e+00 +8.1502823447045873e+00 +0.0000000000000000e+00 +9.7999994975735802e+00 -2.8430853730530895e-02 -5.3672928224108973e-01 +5.3519069909289570e-03
9.8999999999999808e+00 +8.1502265990076506e+00 +0.0000000000000000e+00 +9.8999994820355326e+00 -2.8430987571507096e-02 -5.3672954662493955e-01 +5.3519989959088694e-03
9.9999999999999805e+00 +8.1501702873508535e+00 +0.0000000000000000e+00 +9.9999994661803839e+00 -2.8431114555647518e-02 -5.3672981704444578e-01 +5.3520923419071347e-03
1.0099999999999980e+01 +8.1501134097339119e+00 +0.0000000000000000e+00 +1.0099999450004933e+01 -2.8431233525985054e-02 -5.3673009420876316e-01 +5.3521869627393588e-03
1.0199999999999980e+01 +8.1500559661565362e+00 +0.0000000000000000e+00 +1.0199999433505976e+01 -2.8431344320335630e-02 -5.3673037839258209e-01 +5.3522827677843715e-03
1.0299999999999979e+01 +8.1499979566184280e+00 +0.0000000000000000e+00 +1.0299999416680308e+01 -2.8431447025255466e-02 -5.3673066976193307e-01 +5.3523796603069966e-03
1.0399999999999979e+01 +8.1499393811192835e+00 +0.0000000000000000e+00 +1.0399999399524727e+01 -2.8431541727340019e-02 -5.3673096848279689e-01 +5.3524775435654526e-03
1.0499999999999979e+01 +8.1498802396587884e+00 +0.0000000000000000e+00 +1.0499999382036030e+01 -2.8431628513225182e-02 -5.3673127472110405e-01 +5.3525763208112113e-03
1.0599999999999978e+01 +8.1498205322366211e+00 +0.0000000000000000e+00 +1.0599999364211014e+01 -2.8431707469588487e-02 -5.3673158864273340e-01 +5.3526758952888633e-03
1.0699999999999978e+01 +8.1497602588524529e+00 +0.0000000000000000e+00 +1.0699999346046475e+01 -2.8431778683150263e-02 -5.3673191041350943e-01 +5.3527761702359426e-03
1.0799999999999978e+01 +8.1496994195059482e+00 +0.0000000000000000e+00 +1.0799999327539210e+01 -2.8431842240674843e-02 -5.3673224019920207e-01 +5.3528770488827917e-03
1.0899999999999977e+01 +8.1496380141967588e+00 +0.0000000000000000e+00 +1.0899999308686015e+01 -2.8431898228971696e-02 -5.3673257816552400e-01 +5.3529784344524050e-03
1.0999999999999977e+01 +8.1495760429245312e+00 +0.0000000000000000e+00 +1.0999999289483686e+01 -2.8431946734896695e-02 -5.3673292447813026e-01 +5.3530802301602854e-03
1.1099999999999977e+01 +8.1495135056889030e+00 +0.0000000000000000e+00 +1.1099999269929022e+01 -2.8431987845353227e-02 -5.3673327930261638e-01 +5.3531823392142909e-03
1.1199999999999976e+01 +8.1494504024895011e+00 +0.0000000000000000e+00 +1.1199999250018818e+01 -2.8432021647293401e-02 -5.3673364280451630e-01 +5.3532846648144741e-03
1.1299999999999976e+01 +8.1493867333259438e+00 +0.0000000000000000e+00 +1.1299999229749870e+01 -2.8432048227719258e-02 -5.3673401514930186e-01 +5.3533871101529556e-03
1.1399999999999975e+01 +8.1493224981978400e+00 +0.0000000000000000e+00 +1.1399999209118976e+01 -2.8432067673683892e-02 -5.3673439650238042e-01 +5.3534895784137513e-03
1.1499999999999975e+01 +8.1492576971047921e+00 +0.0000000000000000e+00 +1.1499999188122931e+01 -2.8432080072292715e-02 -5.3673478702909394e-01 +5.3535919727726389e-03
1.1599999999999975e+01 +8.1491923300463878e+00 +0.0000000000000000e+00 +1.1599999166758534e+01 -2.8432085510704547e-02 -5.3673518689471755e-01 +5.3536941963969967e-03
1.1699999999999974e+01 +8.1491263970222096e+00 +0.0000000000000000e+00 +1.1699999145022581e+01 -2.8432084076132871e-02 -5.3673559626445766e-01 +5.3537961524456595e-03
1.1799999999999974e+01 +8.1490598980318261e+00 +0.0000000000000000e+00 +1.1799999122911865e+01 -2.8432075855846967e-02 -5.3673601530345028e-01 +5.3538977440687752e-03
