# field on trajectory
# s[mm] rx[mm] ry[mm] rz[mm] bx[T] by[T] bz[T]
0.0000000000000000e+00 +8.1530000000000094e+00 +0.0000000000000000e+00 +0.0000000000000000e+00 -3.1430338179128318e-02 -5.9241426508200978e-01 +5.9014178328570255e-03
1.0000000000000001e-01 +8.1529997163925092e+00 +0.0000000000000000e+00 +9.9999999999463796e-02 -3.1430392771059856e-02 -5.9241443825056861e-01 +5.9014728991808232e-03
2.0000000000000001e-01 +8.1529988655711296e+00 +0.0000000000000000e+00 +1.9999999999571000e-01 -3.1430465144299292e-02 -5.9241458879765219e-01 +5.9015288691814521e-03
2.9999999999999999e-01 +8.1529974475415692e+00 +0.0000000000000000e+00 +2.9999999998552201e-01 -3.1430554648666370e-02 -5.9241471777103361e-01 +5.9015856875425828e-03
4.0000000000000002e-01 +8.1529954622965306e+00 +0.0000000000000000e+00 +3.9999999996568197e-01 -3.1430660634000053e-02 -5.9241482621857078e-01 +5.9016432989474820e-03
5.0000000000000000e-01 +8.1529929098396696e+00 +0.0000000000000000e+00 +4.9999999993297300e-01 -3.1430782450144829e-02 -5.9241491518801526e-01 +5.9017016480774785e-03
5.9999999999999998e-01 +8.1529897901673394e+00 +0.0000000000000000e+00 +5.9999999988417696e-01 -3.1430919446954933e-02 -5.9241498572716378e-01 +5.9017606796139578e-03
6.9999999999999996e-01 +8.1529861032831796e+00 +0.0000000000000000e+00 +6.9999999981607697e-01 -3.1431070974284561e-02 -5.9241503888374225e-01 +5.9018203382376075e-03
8.0000000000000004e-01 +8.1529818491871993e+00 +0.0000000000000000e+00 +7.9999999972545699e-01 -3.1431236381988997e-02 -5.9241507570549690e-01 +5.9018805686297856e-03
9.0000000000000002e-01 +8.1529770278793894e+00 +0.0000000000000000e+00 +8.9999999960909804e-01 -3.1431415019919466e-02 -5.9241509724016950e-01 +5.9019413154726887e-03
1.0000000000000000e+00 +8.1529716393597500e+00 +0.0000000000000000e+00 +9.9999999946378304e-01 -3.1431606237919671e-02 -5.9241510453549784e-01 +5.9020025234498234e-03
1.1000000000000001e+00 +8.1529656836210105e+00 +0.0000000000000000e+00 +1.0999999992862901e+00 -3.1431809385825293e-02 -5.9241509863928066e-01 +5.9020641372470742e-03
1.2000000000000000e+00 +8.1529591606740706e+00 +0.0000000000000000e+00 +1.1999999990734200e+00 -3.1432023813449582e-02 -5.9241508059917181e-01 +5.9021261015510347e-03
1.3000000000000000e+00 +8.1529520705153100e+00 +0.0000000000000000e+00 +1.2999999988219300e+00 -3.1432248870593781e-02 -5.9241505146294859e-01 +5.9021883610522177e-03
1.3999999999999999e+00 +8.1529444131410909e+00 +0.0000000000000000e+00 +1.3999999985286200e+00 -3.1432483907037366e-02 -5.9241501227839855e-01 +5.9022508604443030e-03
1.5000000000000000e+00 +8.1529361885550298e+00 +0.0000000000000000e+00 +1.4999999981902701e+00 -3.1432728272531414e-02 -5.9241496409326289e-01 +5.9023135444239974e-03
1.6000000000000001e+00 +8.1529273967571498e+00 +0.0000000000000000e+00 +1.5999999978036501e+00 -3.1432981316799682e-02 -5.9241490795532592e-01 +5.9023763576923922e-03
1.7000000000000000e+00 +8.1529180377474404e+00 +0.0000000000000000e+00 +1.6999999973655600e+00 -3.1433242389533524e-02 -5.9241484491239138e-01 +5.9024392449551601e-03
1.8000000000000000e+00 +8.1529081115222706e+00 +0.0000000000000000e+00 +1.7999999968727800e+00 -3.1433510840389874e-02 -5.9241477601231329e-01 +5.9025021509232899e-03
1.8999999999999999e+00 +8.1528976180852606e+00 +0.0000000000000000e+00 +1.8999999963220899e+00 -3.1433786018983112e-02 -5.9241470230291082e-01 +5.9025650203126685e-03
2.0000000000000000e+00 +8.1528865574327902e+00 +0.0000000000000000e+00 +1.9999999957102601e+00 -3.1434067274887637e-02 -5.9241462483208929e-01 +5.9026277978457345e-03
2.1000000000000001e+00 +8.1528749295721408e+00 +0.0000000000000000e+00 +2.0999999950340902e+00 -3.1434353783479883e-02 -5.9241454464221177e-01 +5.9026904425116562e-03
2.2000000000000002e+00 +8.1528627344960096e+00 +0.0000000000000000e+00 +2.1999999942903599e+00 -3.1434644023517977e-02 -5.9241446275384901e-01 +5.9027529703493641e-03
2.2999999999999998e+00 +8.1528499722080596e+00 +0.0000000000000000e+00 +2.2999999934758399e+00 -3.1434936299591723e-02 -5.9241438018200199e-01 +5.9028154116562695e-03
2.3999999999999999e+00 +8.1528366427046404e+00 +0.0000000000000000e+00 +2.3999999925873299e+00 -3.1435228916280748e-02 -5.9241429794173117e-01 +5.9028777967271755e-03
2.5000000000000000e+00 +8.1528227459894005e+00 +0.0000000000000000e+00 +2.4999999916215998e+00 -3.1435520178149233e-02 -5.9241421704803487e-01 +5.9029401558524418e-03
2.6000000000000001e+00 +8.1528082820659602e+00 +0.0000000000000000e+00 +2.5999999905754398e+00 -3.1435808389749853e-02 -5.9241413851591018e-01 +5.9030025193179542e-03
2.7000000000000002e+00 +8.1527932509234198e+00 +0.0000000000000000e+00 +2.6999999894456299e+00 -3.1436091855630892e-02 -5.9241406336046776e-01 +5.9030649174056952e-03
2.7999999999999998e+00 +8.1527776525726896e+00 +0.0000000000000000e+00 +2.7999999882289601e+00 -3.1436368880321475e-02 -5.9241399259663652e-01 +5.9031273803900781e-03
2.8999999999999999e+00 +8.1527614870065008e+00 +0.0000000000000000e+00 +2.8999999869222002e+00 -3.1436637768349589e-02 -5.9241392723948805e-01 +5.9031899385406442e-03
3.0000000000000000e+00 +8.1527447542284808e+00 +0.0000000000000000e+00 +2.9999999855221300e+00 -3.1436896824230488e-02 -5.9241386830399789e-01 +5.9032526221190025e-03
3.1000000000000001e+00 +8.1527274542386294e+00 +0.0000000000000000e+00 +3.0999999840255499e+00 -3.1437144352473780e-02 -5.9241381680516403e-01 +5.9033154613794096e-03
3.2000000000000002e+00 +8.1527095870333106e+00 +0.0000000000000000e+00 +3.1999999824292300e+00 -3.1437378657584253e-02 -5.9241377375800508e-01 +5.9033784865681217e-03
3.2999999999999998e+00 +8.1526911526198091e+00 +0.0000000000000000e+00 +3.2999999807299600e+00 -3.1437598044056506e-02 -5.9241374017744153e-01 +5.9034417279215500e-03
3.3999999999999999e+00 +8.1526721509872004e+00 +0.0000000000000000e+00 +3.3999999789245101e+00 -3.1437800816388327e-02 -5.9241371707853097e-01 +5.9035052156680605e-03
3.5000000000000000e+00 +8.1526525821464002e+00 +0.0000000000000000e+00 +3.4999999770096801e+00 -3.1437985279064357e-02 -5.9241370547614225e-01 +5.9035689800239896e-03
3.6000000000000001e+00 +8.1526324460901396e+00 +0.0000000000000000e+00 +3.5999999749822500e+00 -3.1438149736574071e-02 -5.9241370638527890e-01 +5.9036330511963416e-03
3.7000000000000002e+00 +8.1526117428220495e+00 +0.0000000000000000e+00 +3.6999999728389801e+00 -3.1438292493400258e-02 -5.9241372082084298e-01 +5.9036974593797385e-03
3.7999999999999998e+00 +8.1525904723421299e+00 +0.0000000000000000e+00 +3.7999999705766800e+00 -3.1438411854026023e-02 -5.9241374979775085e-01 +5.9037622347569898e-03
3.8999999999999999e+00 +8.1525686346503807e+00 +0.0000000000000000e+00 +3.8999999681921298e+00 -3.1438506122934154e-02 -5.9241379433090391e-01 +5.9038274074981467e-03
4.0000000000000000e+00 +8.1525462297431694e+00 +0.0000000000000000e+00 +3.9999999656820902e+00 -3.1438573604609464e-02 -5.9241385543521585e-01 +5.9038930077601800e-03
4.0999999999999996e+00 +8.1525232576241304e+00 +0.0000000000000000e+00 +4.0999999630433699e+00 -3.1438613210737779e-02 -5.9241393390208785e-01 +5.9039590742391108e-03
4.2000000000000002e+00 +8.1524997182896204e+00 +0.0000000000000000e+00 +4.1999999602727298e+00 -3.1438626281836572e-02 -5.9241402962922418e-01 +5.9040256798392077e-03
4.2999999999999998e+00 +8.1524756117469206e+00 +0.0000000000000000e+00 +4.2999999573669703e+00 -3.1438614765662641e-02 -5.9241414229080891e-01 +5.9040929060236707e-03
4.4000000000000004e+00 +8.1524509379887604e+00 +0.0000000000000000e+00 +4.3999999543228601e+00 -3.1438580610025295e-02 -5.9241427156114956e-01 +5.9041608342655771e-03
4.5000000000000000e+00 +8.1524256970187707e+00 +0.0000000000000000e+00 +4.4999999511372000e+00 -3.1438525762778835e-02 -5.9241441711447373e-01 +5.9042295460465175e-03
4.5999999999999996e+00 +8.1523998888369498e+00 +0.0000000000000000e+00 +4.5999999478067499e+00 -3.1438452171831860e-02 -5.9241457862504554e-01 +5.9042991228585280e-03
4.7000000000000002e+00 +8.1523735134396702e+00 +0.0000000000000000e+00 +4.6999999443283098e+00 -3.1438361785150512e-02 -5.9241475576716729e-01 +5.9043696462048158e-03
4.7999999999999998e+00 +8.1523465708305594e+00 +0.0000000000000000e+00 +4.7999999406986600e+00 -3.1438256550757042e-02 -5.9241494821509111e-01 +5.9044411975995945e-03
4.9000000000000004e+00 +8.1523190610096208e+00 +0.0000000000000000e+00 +4.8999999369145701e+00 -3.1438138416737697e-02 -5.9241515564310776e-01 +5.9045138585697050e-03
5.0000000000000000e+00 +8.1522909839768491e+00 +0.0000000000000000e+00 +4.9999999329728402e+00 -3.1438009331244320e-02 -5.9241537772551889e-01 +5.9045877106550602e-03
5.0999999999999996e+00 +8.1522623397286207e+00 +0.0000000000000000e+00 +5.0999999288702398e+00 -3.1437871242499110e-02 -5.9241561413666421e-01 +5.9046628354096631e-03
5.2000000000000002e+00 +8.1522331282685592e+00 +0.0000000000000000e+00 +5.1999999246035600e+00 -3.1437726098793278e-02 -5.9241586455083783e-01 +5.9047393144014406e-03
5.2999999999999998e+00 +8.1522033495966806e+00 +0.0000000000000000e+00 +5.2999999201695802e+00 -3.1437575848494735e-02 -5.9241612864237270e-01 +5.9048172292138768e-03
5.4000000000000004e+00 +8.1521730037093203e+00 +0.0000000000000000e+00 +5.3999999155650800e+00 -3.1437422440051488e-02 -5.9241640608564416e-01 +5.9048966614467383e-03
5.5000000000000000e+00 +8.1521420906137791e+00 +0.0000000000000000e+00 +5.4999999107868396e+00 -3.1437267821988475e-02 -5.9241669655495210e-01 +5.9049776927156006e-03
5.5999999999999996e+00 +8.1521106102991308e+00 +0.0000000000000000e+00 +5.5999999058316599e+00 -3.1437113942923291e-02 -5.9241699972475603e-01 +5.9050604046549989e-03
5.7000000000000002e+00 +8.1520785627762997e+00 +0.0000000000000000e+00 +5.6999999006963096e+00 -3.1436962751552298e-02 -5.9241731526935282e-01 +5.9051448789158188e-03
5.7999999999999998e+00 +8.1520459480379905e+00 +0.0000000000000000e+00 +5.7999998953775700e+00 -3.1436816196670818e-02 -5.9241764286320031e-01 +5.9052311971693680e-03
5.9000000000000004e+00 +8.1520127660915005e+00 +0.0000000000000000e+00 +5.8999998898722197e+00 -3.1436676227162515e-02 -5.9241798218065300e-01 +5.9053194411053693e-03
5.9999999999999902e+00 +8.1519790169259103e+00 +0.0000000000000000e+00 +5.9999998841770603e+00 -3.1436544792016421e-02 -5.9241833289622847e-01 +5.9054096924354271e-03
6.0999999999999899e+00 +8.1519447005521197e+00 +0.0000000000000000e+00 +6.0999998782888598e+00 -3.1436423520733184e-02 -5.9241869477688625e-01 +5.9055020071486376e-03
6.1999999999999904e+00 +8.1519098169665103e+00 +0.0000000000000000e+00 +6.1999998722044003e+00 -3.1436312764550431e-02 -5.9241906796012955e-01 +5.9055963382807584e-03
6.2999999999999901e+00 +8.1518743661654298e+00 +0.0000000000000000e+00 +6.2999998659204701e+00 -3.1436212555093206e-02 -5.9241945267606722e-01 +5.9056926131231475e-03
6.3999999999999897e+00 +8.1518383481488907e+00 +0.0000000000000000e+00 +6.3999998594338496e+00 -3.1436122923939977e-02 -5.9241984915477908e-01 +5.9057907589618840e-03
6.4999999999999902e+00 +8.1518017629241495e+00 +0.0000000000000000e+00 +6.4999998527413201e+00 -3.1436043902618276e-02 -5.9242025762628669e-01 +5.9058907030771178e-03
6.5999999999999899e+00 +8.1517646104839496e+00 +0.0000000000000000e+00 +6.5999998458396698e+00 -3.1435975522611168e-02 -5.9242067832072953e-01 +5.9059923727445198e-03
6.6999999999999904e+00 +8.1517268908319203e+00 +0.0000000000000000e+00 +6.6999998387256703e+00 -3.1435917815343724e-02 -5.9242111146815846e-01 +5.9060956952328107e-03
6.7999999999999901e+00 +8.1516886039680703e+00 +0.0000000000000000e+00 +6.7999998313961196e+00 -3.1435870812186392e-02 -5.9242155729865431e-01 +5.9062005978046186e-03
6.8999999999999897e+00 +8.1516497498923908e+00 +0.0000000000000000e+00 +6.8999998238477902e+00 -3.1435834544450654e-02 -5.9242201604229761e-01 +5.9063070077158145e-03
6.9999999999999902e+00 +8.1516103286012402e+00 +0.0000000000000000e+00 +6.9999998160774597e+00 -3.1435809043387906e-02 -5.9242248792919783e-01 +5.9064148522154740e-03
7.0999999999999899e+00 +8.1515703400982602e+00 +0.0000000000000000e+00 +7.0999998080819298e+00 -3.1435794340181858e-02 -5.9242297318940496e-01 +5.9065240585445813e-03
7.1999999999999904e+00 +8.1515297843834595e+00 +0.0000000000000000e+00 +7.1999997998579603e+00 -3.1435790465950568e-02 -5.9242347205299839e-01 +5.9066345539366188e-03
7.2999999999999901e+00 +8.1514886614531896e+00 +0.0000000000000000e+00 +7.2999997914023496e+00 -3.1435797451743651e-02 -5.9242398475008606e-01 +5.9067462656171906e-03
7.3999999999999897e+00 +8.1514469713147300e+00 +0.0000000000000000e+00 +7.3999997827118804e+00 -3.1435815328533206e-02 -5.9242451151068698e-01 +5.9068591208024561e-03
7.4999999999999902e+00 +8.1514047139571595e+00 +0.0000000000000000e+00 +7.4999997737833199e+00 -3.1435844127223535e-02 -5.9242505256496614e-01 +5.9069730467012005e-03
7.5999999999999899e+00 +8.1513618893914099e+00 +0.0000000000000000e+00 +7.5999997646134698e+00 -3.1435883878631304e-02 -5.9242560814291090e-01 +5.9070879705111498e-03
7.6999999999999904e+00 +8.1513184976138309e+00 +0.0000000000000000e+00 +7.6999997551991104e+00 -3.1435934613498258e-02 -5.9242617847462553e-01 +5.9072038194216371e-03
7.7999999999999901e+00 +8.1512745386207808e+00 +0.0000000000000000e+00 +7.7999997455370096e+00 -3.1435996362482267e-02 -5.9242676379021331e-01 +5.9073205206120532e-03
7.8999999999999897e+00 +8.1512300124159101e+00 +0.0000000000000000e+00 +7.8999997356239602e+00 -3.1436069156151387e-02 -5.9242736431971632e-01 +5.9074380012508520e-03
7.9999999999999902e+00 +8.1511849189955701e+00 +0.0000000000000000e+00 +7.9999997254567399e+00 -3.1436153024987430e-02 -5.9242798029323451e-01 +5.9075561884964411e-03
8.0999999999999908e+00 +8.1511392583670403e+00 +0.0000000000000000e+00 +8.0999997150321406e+00 -3.1436247789662926e-02 -5.9242861162510863e-01 +5.9076750131274247e-03
8.1999999999999904e+00 +8.1510930305230396e+00 +0.0000000000000000e+00 +8.1999997043469399e+00 -3.1436352431934773e-02 -5.9242925696710580e-01 +5.9077944204437710e-03
8.2999999999999901e+00 +8.1510462354672200e+00 +0.0000000000000000e+00 +8.2999996933979094e+00 -3.1436465723823345e-02 -5.9242991465521000e-01 +5.9079143593729630e-03
8.3999999999999897e+00 +8.1509988731995708e+00 +0.0000000000000000e+00 +8.3999996821818605e+00 -3.1436586437341707e-02 -5.9243058302541673e-01 +5.9080347788396355e-03
8.4999999999999893e+00 +8.1509509437164507e+00 +0.0000000000000000e+00 +8.4999996706955496e+00 -3.1436713344495472e-02 -5.9243126041373007e-01 +5.9081556277654872e-03
8.5999999999999908e+00 +8.1509024470215099e+00 +0.0000000000000000e+00 +8.5999996589357703e+00 -3.1436845217278096e-02 -5.9243194515607378e-01 +5.9082768550682658e-03
8.6999999999999904e+00 +8.1508533831147396e+00 +0.0000000000000000e+00 +8.6999996468993004e+00 -3.1436980827675501e-02 -5.9243263558837933e-01 +5.9083984096625995e-03
8.7999999999999794e+00 +8.1508037519961398e+00 +0.0000000000000000e+00 +8.7999996345829192e+00 -3.1437118947664364e-02 -5.9243333004655518e-01 +5.9085202404595789e-03
8.8999999999999808e+00 +8.1507535536620708e+00 +0.0000000000000000e+00 +8.8999996219834205e+00 -3.1437258349213702e-02 -5.9243402686651736e-01 +5.9086422963670060e-03
8.9999999999999805e+00 +8.1507027881161793e+00 +0.0000000000000000e+00 +8.9999996090975891e+00 -3.1437397804280072e-02 -5.9243472438409805e-01 +5.9087645262883518e-03
9.0999999999999801e+00 +8.1506514553584601e+00 +0.0000000000000000e+00 +9.0999995959221902e+00 -3.1437536084812152e-02 -5.9243542093513479e-01 +5.9088868791236015e-03
9.1999999999999797e+00 +8.1505995553889097e+00 +0.0000000000000000e+00 +9.1999995824540193e+00 -3.1437671962749221e-02 -5.9243611485544145e-01 +5.9090093037688484e-03
9.2999999999999794e+00 +8.1505470882038900e+00 +0.0000000000000000e+00 +9.2999995686898593e+00 -3.1437804210022520e-02 -5.9243680448083391e-01 +5.9091317491165021e-03
9.3999999999999808e+00 +8.1504940538070496e+00 +0.0000000000000000e+00 +9.3999995546264898e+00 -3.1437931598550600e-02 -5.9243748814704400e-01 +5.9092541640543006e-03
9.4999999999999805e+00 +8.1504404521983798e+00 +0.0000000000000000e+00 +9.4999995402606903e+00 -3.1438052900243860e-02 -5.9243816418980622e-01 +5.9093764974661187e-03
9.5999999999999801e+00 +8.1503862833778804e+00 +0.0000000000000000e+00 +9.5999995255892507e+00 -3.1438166887003016e-02 -5.9243883094482686e-01 +5.9094986982315672e-03
9.6999999999999797e+00 +8.1503315473419207e+00 +0.0000000000000000e+00 +9.6999995106089507e+00 -3.1438272330720454e-02 -5.9243948674781477e-01 +5.9096207152262202e-03
9.7999999999999794e+00 +8.1502762440941297e+00 +0.0000000000000000e+00 +9.7999994953165697e+00 -3.1438368003275687e-02 -5.9244012993438988e-01 +5.9097424973206057e-03
9.8999999999999808e+00 +8.1502203736345091e+00 +0.0000000000000000e+00 +9.8999994797088906e+00 -3.1438452676539740e-02 -5.9244075884017355e-01 +5.9098639933810159e-03
9.9999999999999805e+00 +8.1501639359594300e+00 +0.0000000000000000e+00 +9.9999994637827001e+00 -3.1438525122375265e-02 -5.9244137180078571e-01 +5.9099851522694371e-03
1.0100000000000000e+01 +8.1501069310761505e+00 +0.0000000000000000e+00 +1.0099999447534801e+01 -3.1438584484248223e-02 -5.9244196761348666e-01 +5.9101059615462867e-03
1.0199999999999999e+01 +8.1500493589774106e+00 +0.0000000000000000e+00 +1.0199999430961901e+01 -3.1438631392130108e-02 -5.9244254692270271e-01 +5.9102265635905017e-03
1.0300000000000001e+01 +8.1499912196668394e+00 +0.0000000000000000e+00 +1.0299999414060901e+01 -3.1438666847644389e-02 -5.9244311083455725e-01 +5.9103471394898180e-03
1.0400000000000000e+01 +8.1499325131444493e+00 +0.0000000000000000e+00 +1.0399999396828500e+01 -3.1438691852446965e-02 -5.9244366045521779e-01 +5.9104678703376465e-03
1.0500000000000000e+01 +8.1498732394065900e+00 +0.0000000000000000e+00 +1.0499999379261400e+01 -3.1438707408226997e-02 -5.9244419689089822e-01 +5.9105889372332325e-03
1.0600000000000000e+01 +8.1498133984568994e+00 +0.0000000000000000e+00 +1.0599999361356600e+01 -3.1438714516703187e-02 -5.9244472124776892e-01 +5.9107105212808922e-03
1.0699999999999999e+01 +8.1497529902953794e+00 +0.0000000000000000e+00 +1.0699999343110701e+01 -3.1438714179629276e-02 -5.9244523463204746e-01 +5.9108328035910760e-03
1.0800000000000001e+01 +8.1496920149220404e+00 +0.0000000000000000e+00 +1.0799999324520600e+01 -3.1438707398793425e-02 -5.9244573814996815e-01 +5.9109559652802159e-03
1.0900000000000000e+01 +8.1496304723332305e+00 +0.0000000000000000e+00 +1.0899999305583000e+01 -3.1438695176020659e-02 -5.9244623290781318e-01 +5.9110801874711922e-03
1.1000000000000000e+01 +8.1495683625325892e+00 +0.0000000000000000e+00 +1.0999999286294800e+01 -3.1438678513169102e-02 -5.9244672001182352e-01 +5.9112056512925530e-03
1.1100000000000000e+01 +8.1495056855201309e+00 +0.0000000000000000e+00 +1.1099999266652601e+01 -3.1438658412135535e-02 -5.9244720056828926e-01 +5.9113325378796020e-03
1.1199999999999999e+01 +8.1494424412958306e+00 +0.0000000000000000e+00 +1.1199999246653300e+01 -3.1438635874854695e-02 -5.9244767568351875e-01 +5.9114610283742281e-03
1.1300000000000001e+01 +8.1493786298560700e+00 +0.0000000000000000e+00 +1.1299999226293700e+01 -3.1438611903301765e-02 -5.9244814646386978e-01 +5.9115913039253700e-03
1.1400000000000000e+01 +8.1493142512044905e+00 +0.0000000000000000e+00 +1.1399999205570500e+01 -3.1438587499488586e-02 -5.9244861401566196e-01 +5.9117235456882444e-03
1.1500000000000000e+01 +8.1492493053447106e+00 +0.0000000000000000e+00 +1.1499999184480499e+01 -3.1438563665467663e-02 -5.9244907944523428e-01 +5.9118579348251274e-03
1.1600000000000000e+01 +8.1491837922658306e+00 +0.0000000000000000e+00 +1.1599999163020600e+01 -3.1438541403339251e-02 -5.9244954385906612e-01 +5.9119946525067017e-03
1.1699999999999999e+01 +8.1491177119787608e+00 +0.0000000000000000e+00 +1.1699999141187400e+01 -3.1438521715236742e-02 -5.9245000836348027e-01 +5.9121338799091681e-03
1.1800000000000001e+01 +8.1490510644762306e+00 +0.0000000000000000e+00 +1.1799999118977800e+01 -3.1438505603344546e-02 -5.9245047406496898e-01 +5.9122757982177573e-03
