# trajectory
# s[mm] rx[mm] ry[mm] rz[mm] px[rad] py[rad] pz[rad]
0.0000000000000000e+00 +8.1529999999999987e+00 +0.0000000000000000e+00 +0.0000000000000000e+00 +0.0000000000000000e+00 +0.0000000000000000e+00 +1.0000000000000000e+00
1.0000000000000001e-01 +8.1529997168095658e+00 +0.0000000000000000e+00 +9.9999999999465350e-02 -5.6638085759253998e-06 +0.0000000000000000e+00 +9.9999999998396061e-01
2.0000000000000001e-01 +8.1529988672382991e+00 +0.0000000000000000e+00 +1.9999999999572282e-01 -1.1327616696656581e-05 +0.0000000000000000e+00 +9.9999999993584254e-01
3.0000000000000004e-01 +8.1529974512862395e+00 +0.0000000000000000e+00 +2.9999999998556454e-01 -1.6991424425237621e-05 +0.0000000000000000e+00 +9.9999999985564569e-01
4.0000000000000002e-01 +8.1529954689534243e+00 +0.0000000000000000e+00 +3.9999999996578262e-01 -2.2655231822504921e-05 +0.0000000000000000e+00 +9.9999999974337017e-01
5.0000000000000000e-01 +8.1529929202398836e+00 +0.0000000000000000e+00 +4.9999999993316924e-01 -2.8319038947087052e-05 +0.0000000000000000e+00 +9.9999999959901598e-01
5.9999999999999998e-01 +8.1529898051456424e+00 +0.0000000000000000e+00 +5.9999999988451647e-01 -3.3982845855404600e-05 +0.0000000000000000e+00 +9.9999999942258311e-01
6.9999999999999996e-01 +8.1529861236707184e+00 +0.0000000000000000e+00 +6.9999999981661654e-01 -3.9646652601669982e-05 +0.0000000000000000e+00 +9.9999999921407146e-01
7.9999999999999993e-01 +8.1529818758151258e+00 +0.0000000000000000e+00 +7.9999999972626146e-01 -4.5310459237887313e-05 +0.0000000000000000e+00 +9.9999999897348113e-01
8.9999999999999991e-01 +8.1529770615788735e+00 +0.0000000000000000e+00 +8.9999999961024346e-01 -5.0974265813852229e-05 +0.0000000000000000e+00 +9.9999999870081213e-01
9.9999999999999989e-01 +8.1529716809619632e+00 +0.0000000000000000e+00 +9.9999999946535456e-01 -5.6638072377151726e-05 +0.0000000000000000e+00 +9.9999999839606435e-01
1.0999999999999999e+00 +8.1529657339643968e+00 +0.0000000000000000e+00 +1.0999999992883871e+00 -6.2301878973164000e-05 +0.0000000000000000e+00 +9.9999999805923789e-01
1.2000000000000000e+00 +8.1529592205861672e+00 +0.0000000000000000e+00 +1.1999999990761330e+00 -6.7965685645058298e-05 +0.0000000000000000e+00 +9.9999999769033276e-01
1.3000000000000000e+00 +8.1529521408272636e+00 +0.0000000000000000e+00 +1.2999999988253843e+00 -7.3629492433794732e-05 +0.0000000000000000e+00 +9.9999999728934885e-01
1.4000000000000001e+00 +8.1529444946876737e+00 +0.0000000000000000e+00 +1.3999999985329334e+00 -7.9293299378124126e-05 +0.0000000000000000e+00 +9.9999999685628627e-01
1.5000000000000002e+00 +8.1529362821673814e+00 +0.0000000000000000e+00 +1.4999999981955723e+00 -8.4957106514587874e-05 +0.0000000000000000e+00 +9.9999999639114501e-01
1.6000000000000003e+00 +8.1529275032663637e+00 +0.0000000000000000e+00 +1.5999999978100932e+00 -9.0620913877517752e-05 +0.0000000000000000e+00 +9.9999999589392496e-01
1.7000000000000004e+00 +8.1529181579845975e+00 +0.0000000000000000e+00 +1.6999999973732880e+00 -9.6284721499035757e-05 +0.0000000000000000e+00 +9.9999999536462614e-01
1.8000000000000005e+00 +8.1529082463220544e+00 +0.0000000000000000e+00 +1.7999999968819491e+00 -1.0194852940905394e-04 +0.0000000000000000e+00 +9.9999999480324864e-01
1.9000000000000006e+00 +8.1528977682787040e+00 +0.0000000000000000e+00 +1.8999999963328684e+00 -1.0761233763527427e-04 +0.0000000000000000e+00 +9.9999999420979235e-01
2.0000000000000004e+00 +8.1528867238545146e+00 +0.0000000000000000e+00 +1.9999999957228383e+00 -1.1327614620318845e-04 +0.0000000000000000e+00 +9.9999999358425729e-01
2.1000000000000005e+00 +8.1528751130494506e+00 +0.0000000000000000e+00 +2.0999999950486505e+00 -1.1893995513623786e-04 +0.0000000000000000e+00 +9.9999999292664343e-01
2.2000000000000006e+00 +8.1528629358634745e+00 +0.0000000000000000e+00 +2.1999999943070976e+00 -1.2460376445757486e-04 +0.0000000000000000e+00 +9.9999999223695080e-01
2.3000000000000007e+00 +8.1528501922965457e+00 +0.0000000000000000e+00 +2.2999999934949713e+00 -1.3026757419182426e-04 +0.0000000000000000e+00 +9.9999999151517938e-01
2.4000000000000008e+00 +8.1528368823486215e+00 +0.0000000000000000e+00 +2.3999999926090640e+00 -1.3593138436524349e-04 +0.0000000000000000e+00 +9.9999999076132917e-01
2.5000000000000009e+00 +8.1528230060196574e+00 +0.0000000000000000e+00 +2.4999999916461677e+00 -1.4159519500572294e-04 +0.0000000000000000e+00 +9.9999998997540018e-01
2.6000000000000010e+00 +8.1528085633096037e+00 +0.0000000000000000e+00 +2.5999999906030746e+00 -1.4725900614278616e-04 +0.0000000000000000e+00 +9.9999998915739230e-01
2.7000000000000011e+00 +8.1527935542184107e+00 +0.0000000000000000e+00 +2.6999999894765767e+00 -1.5292281780759009e-04 +0.0000000000000000e+00 +9.9999998830730563e-01
2.8000000000000012e+00 +8.1527779787460233e+00 +0.0000000000000000e+00 +2.7999999882634663e+00 -1.5858663003292541e-04 +0.0000000000000000e+00 +9.9999998742514007e-01
2.9000000000000012e+00 +8.1527618368923847e+00 +0.0000000000000000e+00 +2.8999999869605353e+00 -1.6425044285321689e-04 +0.0000000000000000e+00 +9.9999998651089572e-01
3.0000000000000013e+00 +8.1527451286574326e+00 +0.0000000000000000e+00 +2.9999999855645760e+00 -1.6991425630452373e-04 +0.0000000000000000e+00 +9.9999998556457248e-01
3.1000000000000014e+00 +8.1527278540411015e+00 +0.0000000000000000e+00 +3.0999999840723804e+00 -1.7557807042454005e-04 +0.0000000000000000e+00 +9.9999998458617034e-01
3.2000000000000015e+00 +8.1527100130433237e+00 +0.0000000000000000e+00 +3.1999999824807408e+00 -1.8124188525259525e-04 +0.0000000000000000e+00 +9.9999998357568920e-01
3.3000000000000016e+00 +8.1526916056640264e+00 +0.0000000000000000e+00 +3.2999999807864491e+00 -1.8690570082965455e-04 +0.0000000000000000e+00 +9.9999998253312916e-01
3.4000000000000017e+00 +8.1526726319031315e+00 +0.0000000000000000e+00 +3.3999999789862976e+00 -1.9256951719831951e-04 +0.0000000000000000e+00 +9.9999998145849012e-01
3.5000000000000018e+00 +8.1526530917605591e+00 +0.0000000000000000e+00 +3.4999999770770782e+00 -1.9823333440282856e-04 +0.0000000000000000e+00 +9.9999998035177218e-01
3.6000000000000019e+00 +8.1526329852362220e+00 +0.0000000000000000e+00 +3.5999999750555829e+00 -2.0389715248905763e-04 +0.0000000000000000e+00 +9.9999997921297523e-01
3.7000000000000020e+00 +8.1526123123300298e+00 +0.0000000000000000e+00 +3.6999999729186039e+00 -2.0956097150452070e-04 +0.0000000000000000e+00 +9.9999997804209917e-01
3.8000000000000020e+00 +8.1525910730418882e+00 +0.0000000000000000e+00 +3.7999999706629333e+00 -2.1522479149837056e-04 +0.0000000000000000e+00 +9.9999997683914410e-01
3.9000000000000021e+00 +8.1525692673716961e+00 +0.0000000000000000e+00 +3.8999999682853632e+00 -2.2088861252139944e-04 +0.0000000000000000e+00 +9.9999997560410991e-01
4.0000000000000018e+00 +8.1525468953193485e+00 +0.0000000000000000e+00 +3.9999999657826857e+00 -2.2655243462603976e-04 +0.0000000000000000e+00 +9.9999997433699661e-01
4.1000000000000014e+00 +8.1525239568847336e+00 +0.0000000000000000e+00 +4.0999999631516930e+00 -2.3221625786617919e-04 +0.0000000000000000e+00 +9.9999997303780419e-01
4.2000000000000011e+00 +8.1525004520677360e+00 +0.0000000000000000e+00 +4.1999999603891771e+00 -2.3788008229511882e-04 +0.0000000000000000e+00 +9.9999997170653254e-01
4.3000000000000007e+00 +8.1524763808682330e+00 +0.0000000000000000e+00 +4.2999999574919299e+00 -2.4354390796353079e-04 +0.0000000000000000e+00 +9.9999997034318178e-01
4.4000000000000004e+00 +8.1524517432861003e+00 +0.0000000000000000e+00 +4.3999999544567441e+00 -2.4920773491927245e-04 +0.0000000000000000e+00 +9.9999996894775167e-01
4.5000000000000000e+00 +8.1524265393212048e+00 +0.0000000000000000e+00 +4.4999999512804107e+00 -2.5487156320738616e-04 +0.0000000000000000e+00 +9.9999996752024234e-01
4.5999999999999996e+00 +8.1524007689734130e+00 +0.0000000000000000e+00 +4.5999999479597227e+00 -2.6053539287009919e-04 +0.0000000000000000e+00 +9.9999996606065367e-01
4.6999999999999993e+00 +8.1523744322425848e+00 +0.0000000000000000e+00 +4.6999999444914717e+00 -2.6619922394682344e-04 +0.0000000000000000e+00 +9.9999996456898566e-01
4.7999999999999989e+00 +8.1523475291285763e+00 +0.0000000000000000e+00 +4.7999999408724499e+00 -2.7186305647415511e-04 +0.0000000000000000e+00 +9.9999996304523830e-01
4.8999999999999986e+00 +8.1523200596312400e+00 +0.0000000000000000e+00 +4.8999999370994498e+00 -2.7752689048587465e-04 +0.0000000000000000e+00 +9.9999996148941150e-01
4.9999999999999982e+00 +8.1522920237504284e+00 +0.0000000000000000e+00 +4.9999999331692626e+00 -2.8319072601294622e-04 +0.0000000000000000e+00 +9.9999995990150525e-01
5.0999999999999979e+00 +8.1522634214859870e+00 +0.0000000000000000e+00 +5.0999999290786810e+00 -2.8885456308351754e-04 +0.0000000000000000e+00 +9.9999995828151955e-01
5.1999999999999975e+00 +8.1522342528377596e+00 +0.0000000000000000e+00 +5.1999999248244970e+00 -2.9451840172291959e-04 +0.0000000000000000e+00 +9.9999995662945429e-01
5.2999999999999972e+00 +8.1522045178055897e+00 +0.0000000000000000e+00 +5.2999999204035024e+00 -3.0018224195366605e-04 +0.0000000000000000e+00 +9.9999995494530947e-01
5.3999999999999968e+00 +8.1521742163893158e+00 +0.0000000000000000e+00 +5.3999999158124892e+00 -3.0584608379545319e-04 +0.0000000000000000e+00 +9.9999995322908508e-01
5.4999999999999964e+00 +8.1521433485887762e+00 +0.0000000000000000e+00 +5.4999999110482500e+00 -3.1150992726515915e-04 +0.0000000000000000e+00 +9.9999995148078114e-01
5.5999999999999961e+00 +8.1521119144038074e+00 +0.0000000000000000e+00 +5.5999999061075760e+00 -3.1717377237684382e-04 +0.0000000000000000e+00 +9.9999994970039752e-01
5.6999999999999957e+00 +8.1520799138342461e+00 +0.0000000000000000e+00 +5.6999999009872599e+00 -3.2283761914174815e-04 +0.0000000000000000e+00 +9.9999994788793423e-01
5.7999999999999954e+00 +8.1520473468799253e+00 +0.0000000000000000e+00 +5.7999998956840937e+00 -3.2850146756829379e-04 +0.0000000000000000e+00 +9.9999994604339115e-01
5.8999999999999950e+00 +8.1520142135406779e+00 +0.0000000000000000e+00 +5.8999998901948691e+00 -3.3416531766208260e-04 +0.0000000000000000e+00 +9.9999994416676841e-01
5.9999999999999947e+00 +8.1519805138163370e+00 +0.0000000000000000e+00 +5.9999998845163782e+00 -3.3982916942589610e-04 +0.0000000000000000e+00 +9.9999994225806588e-01
6.0999999999999943e+00 +8.1519462477067375e+00 +0.0000000000000000e+00 +6.0999998786454128e+00 -3.4549302285990933e-04 +0.0000000000000000e+00 +9.9999994031728356e-01
6.1999999999999940e+00 +8.1519114152117105e+00 +0.0000000000000000e+00 +6.1999998725787657e+00 -3.5115687796404937e-04 +0.0000000000000000e+00 +9.9999993834442136e-01
6.2999999999999936e+00 +8.1518760163310890e+00 +0.0000000000000000e+00 +6.2999998663132279e+00 -3.5682073474035383e-04 +0.0000000000000000e+00 +9.9999993633947937e-01
6.3999999999999932e+00 +8.1518400510647062e+00 +0.0000000000000000e+00 +6.3999998598455923e+00 -3.6248459319318516e-04 +0.0000000000000000e+00 +9.9999993430245748e-01
6.4999999999999929e+00 +8.1518035194123950e+00 +0.0000000000000000e+00 +6.4999998531726506e+00 -3.6814845332923027e-04 +0.0000000000000000e+00 +9.9999993223335570e-01
6.5999999999999925e+00 +8.1517664213739849e+00 +0.0000000000000000e+00 +6.5999998462911948e+00 -3.7381231515750025e-04 +0.0000000000000000e+00 +9.9999993013217392e-01
6.6999999999999922e+00 +8.1517287569493071e+00 +0.0000000000000000e+00 +6.6999998391980169e+00 -3.7947617868933027e-04 +0.0000000000000000e+00 +9.9999992799891213e-01
6.7999999999999918e+00 +8.1516905261381893e+00 +0.0000000000000000e+00 +6.7999998318899086e+00 -3.8514004393837905e-04 +0.0000000000000000e+00 +9.9999992583357034e-01
6.8999999999999915e+00 +8.1516517289404611e+00 +0.0000000000000000e+00 +6.8999998243636620e+00 -3.9080391092062870e-04 +0.0000000000000000e+00 +9.9999992363614854e-01
6.9999999999999911e+00 +8.1516123653559465e+00 +0.0000000000000000e+00 +6.9999998166160688e+00 -3.9646777965438436e-04 +0.0000000000000000e+00 +9.9999992140664662e-01
7.0999999999999908e+00 +8.1515724353844714e+00 +0.0000000000000000e+00 +7.0999998086439220e+00 -4.0213165016027383e-04 +0.0000000000000000e+00 +9.9999991914506459e-01
7.1999999999999904e+00 +8.1515319390258547e+00 +0.0000000000000000e+00 +7.1999998004440124e+00 -4.0779552246124741e-04 +0.0000000000000000e+00 +9.9999991685140233e-01
7.2999999999999901e+00 +8.1514908762799170e+00 +0.0000000000000000e+00 +7.2999997920131330e+00 -4.1345939658257735e-04 +0.0000000000000000e+00 +9.9999991452565984e-01
7.3999999999999897e+00 +8.1514492471464752e+00 +0.0000000000000000e+00 +7.3999997833480755e+00 -4.1912327255185758e-04 +0.0000000000000000e+00 +9.9999991216783712e-01
7.4999999999999893e+00 +8.1514070516253430e+00 +0.0000000000000000e+00 +7.4999997744456310e+00 -4.2478715039900346e-04 +0.0000000000000000e+00 +9.9999990977793418e-01
7.5999999999999890e+00 +8.1513642897163319e+00 +0.0000000000000000e+00 +7.5999997653025924e+00 -4.3045103015625124e-04 +0.0000000000000000e+00 +9.9999990735595090e-01
7.6999999999999886e+00 +8.1513209614192483e+00 +0.0000000000000000e+00 +7.6999997559157514e+00 -4.3611491185815775e-04 +0.0000000000000000e+00 +9.9999990490188717e-01
7.7999999999999883e+00 +8.1512770667338952e+00 +0.0000000000000000e+00 +7.7999997462819000e+00 -4.4177879554160003e-04 +0.0000000000000000e+00 +9.9999990241574299e-01
7.8999999999999879e+00 +8.1512326056600735e+00 +0.0000000000000000e+00 +7.8999997363978300e+00 -4.4744268124577495e-04 +0.0000000000000000e+00 +9.9999989989751836e-01
7.9999999999999876e+00 +8.1511875781975771e+00 +0.0000000000000000e+00 +7.9999997262603344e+00 -4.5310656901219879e-04 +0.0000000000000000e+00 +9.9999989734721317e-01
8.0999999999999872e+00 +8.1511419843462001e+00 +0.0000000000000000e+00 +8.0999997158662040e+00 -4.5877045888439484e-04 +0.0000000000000000e+00 +9.9999989476482742e-01
8.1999999999999869e+00 +8.1510958241057292e+00 +0.0000000000000000e+00 +8.1999997052122300e+00 -4.6443435090446229e-04 +0.0000000000000000e+00 +9.9999989215036100e-01
8.2999999999999865e+00 +8.1510490974759460e+00 +0.0000000000000000e+00 +8.2999996942952059e+00 -4.7009824510964521e-04 +0.0000000000000000e+00 +9.9999988950381380e-01
8.3999999999999861e+00 +8.1510018044566319e+00 +0.0000000000000000e+00 +8.3999996831119237e+00 -4.7576214153202071e-04 +0.0000000000000000e+00 +9.9999988682518592e-01
8.4999999999999858e+00 +8.1509539450475650e+00 +0.0000000000000000e+00 +8.4999996716591735e+00 -4.8142604019849907e-04 +0.0000000000000000e+00 +9.9999988411447716e-01
8.5999999999999854e+00 +8.1509055192485178e+00 +0.0000000000000000e+00 +8.5999996599337489e+00 -4.8708994113082378e-04 +0.0000000000000000e+00 +9.9999988137168760e-01
8.6999999999999851e+00 +8.1508565270592630e+00 +0.0000000000000000e+00 +8.6999996479324420e+00 -4.9275384434557183e-04 +0.0000000000000000e+00 +9.9999987859681705e-01
8.7999999999999847e+00 +8.1508069684795714e+00 +0.0000000000000000e+00 +8.7999996356520427e+00 -4.9841774985415351e-04 +0.0000000000000000e+00 +9.9999987578986560e-01
8.8999999999999844e+00 +8.1507568435092139e+00 +0.0000000000000000e+00 +8.8999996230893448e+00 -5.0408165766281285e-04 +0.0000000000000000e+00 +9.9999987295083315e-01
8.9999999999999840e+00 +8.1507061521479613e+00 +0.0000000000000000e+00 +8.9999996102411401e+00 -5.0974556777262767e-04 +0.0000000000000000e+00 +9.9999987007971969e-01
9.0999999999999837e+00 +8.1506548943955828e+00 +0.0000000000000000e+00 +9.0999995971042189e+00 -5.1540948017950964e-04 +0.0000000000000000e+00 +9.9999986717652511e-01
9.1999999999999833e+00 +8.1506030702518490e+00 +0.0000000000000000e+00 +9.1999995836753747e+00 -5.2107339487420456e-04 +0.0000000000000000e+00 +9.9999986424124943e-01
9.2999999999999829e+00 +8.1505506797165328e+00 +0.0000000000000000e+00 +9.2999995699513995e+00 -5.2673731184229222e-04 +0.0000000000000000e+00 +9.9999986127389262e-01
9.3999999999999826e+00 +8.1504977227894067e+00 +0.0000000000000000e+00 +9.3999995559290834e+00 -5.3240123106418694e-04 +0.0000000000000000e+00 +9.9999985827445459e-01
9.4999999999999822e+00 +8.1504441994702468e+00 +0.0000000000000000e+00 +9.4999995416052201e+00 -5.3806515251513757e-04 +0.0000000000000000e+00 +9.9999985524293544e-01
9.5999999999999819e+00 +8.1503901097588312e+00 +0.0000000000000000e+00 +9.5999995269766014e+00 -5.4372907616522762e-04 +0.0000000000000000e+00 +9.9999985217933507e-01
9.6999999999999815e+00 +8.1503354536549413e+00 +0.0000000000000000e+00 +9.6999995120400175e+00 -5.4939300197937556e-04 +0.0000000000000000e+00 +9.9999984908365347e-01
9.7999999999999812e+00 +8.1502802311583640e+00 +0.0000000000000000e+00 +9.7999994967922621e+00 -5.5505692991733482e-04 +0.0000000000000000e+00 +9.9999984595589053e-01
9.8999999999999808e+00 +8.1502244422688879e+00 +0.0000000000000000e+00 +9.8999994812301271e+00 -5.6072085993369414e-04 +0.0000000000000000e+00 +9.9999984279604637e-01
9.9999999999999805e+00 +8.1501680869863087e+00 +0.0000000000000000e+00 +9.9999994653504025e+00 -5.6638479197787777e-04 +0.0000000000000000e+00 +9.9999983960412098e-01
1.0099999999999980e+01 +8.1501111653104257e+00 +0.0000000000000000e+00 +1.0099999449149882e+01 -5.7204872599470849e-04 +0.0000000000000000e+00 +9.9999983638011425e-01
1.0199999999999980e+01 +8.1500536772410452e+00 +0.0000000000000000e+00 +1.0199999432625356e+01 -5.7771266193059841e-04 +0.0000000000000000e+00 +9.9999983312402629e-01
1.0299999999999979e+01 +8.1499956227779773e+00 +0.0000000000000000e+00 +1.0299999415773618e+01 -5.8337659973974065e-04 +0.0000000000000000e+00 +9.9999982983585700e-01
1.0399999999999979e+01 +8.1499370019210371e+00 +0.0000000000000000e+00 +1.0399999398591458e+01 -5.8904053938467309e-04 +0.0000000000000000e+00 +9.9999982651560648e-01
1.0499999999999979e+01 +8.1498778146700417e+00 +0.0000000000000000e+00 +1.0499999381075670e+01 -5.9470448083627937e-04 +0.0000000000000000e+00 +9.9999982316327463e-01
1.0599999999999978e+01 +8.1498180610248117e+00 +0.0000000000000000e+00 +1.0599999363223043e+01 -6.0036842407379019e-04 +0.0000000000000000e+00 +9.9999981977886143e-01
1.0699999999999978e+01 +8.1497577409851694e+00 +0.0000000000000000e+00 +1.0699999345030372e+01 -6.0603236908478427e-04 +0.0000000000000000e+00 +9.9999981636236690e-01
1.0799999999999978e+01 +8.1496968545509372e+00 +0.0000000000000000e+00 +1.0799999326494447e+01 -6.1169631586518948e-04 +0.0000000000000000e+00 +9.9999981291379103e-01
1.0899999999999977e+01 +8.1496354017219375e+00 +0.0000000000000000e+00 +1.0899999307612061e+01 -6.1736026441928417e-04 +0.0000000000000000e+00 +9.9999980943313371e-01
1.0999999999999977e+01 +8.1495733824979943e+00 +0.0000000000000000e+00 +1.0999999288380005e+01 -6.2302421475969811e-04 +0.0000000000000000e+00 +9.9999980592039495e-01
1.1099999999999977e+01 +8.1495107968789267e+00 +0.0000000000000000e+00 +1.1099999268795070e+01 -6.2868816690741396e-04 +0.0000000000000000e+00 +9.9999980237557473e-01
1.1199999999999976e+01 +8.1494476448645514e+00 +0.0000000000000000e+00 +1.1199999248854050e+01 -6.3435212089176841e-04 +0.0000000000000000e+00 +9.9999979879867296e-01
1.1299999999999976e+01 +8.1493839264546857e+00 +0.0000000000000000e+00 +1.1299999228553736e+01 -6.4001607675045352e-04 +0.0000000000000000e+00 +9.9999979518968962e-01
1.1399999999999975e+01 +8.1493196416491376e+00 +0.0000000000000000e+00 +1.1399999207890918e+01 -6.4568003452951785e-04 +0.0000000000000000e+00 +9.9999979154862462e-01
1.1499999999999975e+01 +8.1492547904477135e+00 +0.0000000000000000e+00 +1.1499999186862391e+01 -6.5134399428336796e-04 +0.0000000000000000e+00 +9.9999978787547794e-01
1.1599999999999975e+01 +8.1491893728502127e+00 +0.0000000000000000e+00 +1.1599999165464945e+01 -6.5700795607476984e-04 +0.0000000000000000e+00 +9.9999978417024937e-01
1.1699999999999974e+01 +8.1491233888564274e+00 +0.0000000000000000e+00 +1.1699999143695372e+01 -6.6267191997484997e-04 +0.0000000000000000e+00 +9.9999978043293902e-01
1.1799999999999974e+01 +8.1490568384661444e+00 +0.0000000000000000e+00 +1.1799999121550464e+01 -6.6833588606309707e-04 +0.0000000000000000e+00 +9.9999977666354667e-01
