# multipoles
# s[mm] polynom_b[n=0][T/m^n] polynom_b[n=1][T/m^n] polynom_b[n=2][T/m^n] polynom_b[n=3][T/m^n] polynom_b[n=4][T/m^n] polynom_b[n=5][T/m^n] polynom_b[n=6][T/m^n] 
+0.0000000000000000e+00 -5.9305174188401544e-01 +8.1235609482037869e+00 -8.8777218221613241e-01 -5.7972587168400780e-01 +4.5271852647058577e+03 -2.6728645260177786e+05 -1.4611579484955376e+07 
-1.0000000000000001e-01 -5.9305158682385062e-01 +8.1235825856554982e+00 -8.8834048425127510e-01 -8.4816747479390164e-01 +4.5329363045292093e+03 -2.6674486091527401e+05 -1.4663211432342747e+07 
-2.0000000000000001e-01 -5.9305144392855091e-01 +8.1236049513768886e+00 -8.8888318460483684e-01 -1.1187126147349611e+00 +4.5444440728282416e+03 -2.6625773582232202e+05 -1.4755563297634799e+07 
-3.0000000000000004e-01 -5.9305131253622778e-01 +8.1236278378285416e+00 -8.8938787111797668e-01 -1.3896109341070380e+00 +4.5610426633513352e+03 -2.6582165297746827e+05 -1.4884308539698051e+07 
-4.0000000000000002e-01 -5.9305119198501111e-01 +8.1236510374620394e+00 -8.8984212986346234e-01 -1.6591118511178709e+00 +4.5820661441254297e+03 -2.6543318918103282e+05 -1.5045120517791346e+07 
-5.0000000000000000e-01 -5.9305108161304132e-01 +8.1236743427296183e+00 -8.9023354630919005e-01 -1.9254648610881877e+00 +4.6068485759781088e+03 -2.6508892060058605e+05 -1.5233672569672842e+07 
-5.9999999999999998e-01 -5.9305098075844653e-01 +8.1236975460829388e+00 -8.9054970640213837e-01 -2.1869194655462678e+00 +4.6347240227304464e+03 -2.6478542327756545e+05 -1.5445638033777598e+07 
-6.9999999999999996e-01 -5.9305088875933820e-01 +8.1237204399705067e+00 -8.9077819868559915e-01 -2.4417251102339832e+00 +4.6650266015341822e+03 -2.6451927347386809e+05 -1.5676690515805947e+07 
-7.9999999999999993e-01 -5.9305080495383355e-01 +8.1237428168415828e+00 -8.9090661066476096e-01 -2.6881312955142711e+00 +4.6970904070342449e+03 -2.6428704704360827e+05 -1.5922503510179855e+07 
-8.9999999999999991e-01 -5.9305072868005293e-01 +8.1237644691452093e+00 -8.9092252855286291e-01 -2.9243875301503897e+00 +4.7302495034255253e+03 -2.6408531976555113e+05 -1.6178750357129982e+07 
-9.9999999999999989e-01 -5.9305065927609435e-01 +8.1237851893299986e+00 -8.9081354087562137e-01 -3.1487433243190699e+00 +4.7638379957314546e+03 -2.6391066740246746e+05 -1.6441104588108150e+07 
-1.0999999999999999e+00 -5.9305059608006705e-01 +8.1238047698448010e+00 -8.9056723393338422e-01 -3.3594482166020394e+00 +4.7971899390310145e+03 -2.6375966553043009e+05 -1.6705239482366165e+07 
-1.2000000000000000e+00 -5.9305053843007016e-01 +8.1238230031387477e+00 -8.9017119449930260e-01 -3.5547517532280368e+00 +4.8296393908430800e+03 -2.6362888973100990e+05 -1.6966828320736665e+07 
-1.3000000000000000e+00 -5.9305048566419216e-01 +8.1238396816641973e+00 -8.8961300966284873e-01 -3.7329035714445311e+00 +4.8605204080870872e+03 -2.6351491512764909e+05 -1.7221544373490449e+07 
-1.4000000000000001e+00 -5.9305043712051231e-01 +8.1238545978712793e+00 -8.8888026568320311e-01 -3.8921532381191675e+00 +4.8891670151386097e+03 -2.6341431734774582e+05 -1.7465060718853809e+07 
-1.5000000000000002e+00 -5.9305039213711053e-01 +8.1238675442167718e+00 -8.8796054817285375e-01 -4.0307505151183438e+00 +4.9149132182758858e+03 -2.6332367096233199e+05 -1.7693050343757804e+07 
-1.6000000000000003e+00 -5.9305035005206364e-01 +8.1238783131558527e+00 -8.8684144115271990e-01 -4.1469450856606578e+00 +4.9370929788660833e+03 -2.6323955118927121e+05 -1.7901185993521400e+07 
-1.7000000000000004e+00 -5.9305031020342458e-01 +8.1238866971456556e+00 -8.8551053001856195e-01 -4.2389866868539094e+00 +4.9550402703996197e+03 -2.6315853305072419e+05 -1.8085140445862982e+07 
-1.8000000000000005e+00 -5.9305027192922011e-01 +8.1238924886499433e+00 -8.8395540122126082e-01 -4.3051252107028777e+00 +4.9680890674294114e+03 -2.6307719089729898e+05 -1.8240586444032665e+07 
-1.9000000000000006e+00 -5.9305023456753003e-01 +8.1238954801338661e+00 -8.8216363290143596e-01 -4.3436105625842947e+00 +4.9755731737354899e+03 -2.6299209920767334e+05 -1.8363195899586100e+07 
-2.0000000000000004e+00 -5.9305019745636467e-01 +8.1238954640667309e+00 -8.8012280997473513e-01 -4.3526927266033102e+00 +4.9768265039692860e+03 -2.6289983227297390e+05 -1.8448641217149228e+07 
-2.1000000000000005e+00 -5.9305016010315470e-01 +8.1238923048742286e+00 -8.7782429518968186e-01 -4.3315258645586034e+00 +4.9713302684592081e+03 -2.6279585997518449e+05 -1.8493566567427184e+07 
-2.2000000000000006e+00 -5.9305012268845836e-01 +8.1238861606535657e+00 -8.7527620650211702e-01 -4.2830421111276369e+00 +4.9591807646755497e+03 -2.6267008386675076e+05 -1.8498586266844604e+07 
-2.3000000000000007e+00 -5.9305008556005079e-01 +8.1238772643744515e+00 -8.7249125495894775e-01 -4.2111574619342056e+00 +4.9406344319415166e+03 -2.6251073509534454e+05 -1.8465327706685022e+07 
-2.4000000000000008e+00 -5.9305004906569403e-01 +8.1238658490183351e+00 -8.6948215229148451e-01 -4.1197882449462222e+00 +4.9159477197057577e+03 -2.6230604288161296e+05 -1.8395418323544901e+07 
-2.5000000000000009e+00 -5.9305001355317610e-01 +8.1238521475623031e+00 -8.6626160755064763e-01 -4.0128506418925642e+00 +4.8853770307776031e+03 -2.6204423735177031e+05 -1.8290485344717976e+07 
-2.6000000000000010e+00 -5.9304997937025428e-01 +8.1238363929825042e+00 -8.6284233281077993e-01 -3.8942607837112906e+00 +4.8491788247532340e+03 -2.6171354896359838e+05 -1.8152156269889209e+07 
-2.7000000000000011e+00 -5.9304994686473544e-01 +8.1238188182547439e+00 -8.5923703499753845e-01 -3.7679347663922633e+00 +4.8076094708922965e+03 -2.6130220842247657e+05 -1.7982058188715219e+07 
-2.8000000000000012e+00 -5.9304991638440896e-01 +8.1237996563615287e+00 -8.5545842275071637e-01 -3.6377888531157625e+00 +4.7609253737860117e+03 -2.6079844550805542e+05 -1.7781818368946578e+07 
-2.9000000000000012e+00 -5.9304988827709038e-01 +8.1237791402705604e+00 -8.5151920214782406e-01 -3.5077388491238484e+00 +4.7093828951887663e+03 -2.6019049268768035e+05 -1.7553063888813440e+07 
-3.0000000000000013e+00 -5.9304986289059269e-01 +8.1237575029634108e+00 -8.4743207997771475e-01 -3.3817009363788815e+00 +4.6532384188756887e+03 -2.5946658026571324e+05 -1.7297421954784438e+07 
-3.1000000000000014e+00 -5.9304984057275423e-01 +8.1237349774139282e+00 -8.4320976027133310e-01 -3.2635910359139988e+00 +4.5927482833360655e+03 -2.5861494010578896e+05 -1.7016519576655556e+07 
-3.2000000000000015e+00 -5.9304982167143094e-01 +8.1237117965953338e+00 -8.3886494570223913e-01 -3.1573250292789532e+00 +4.5281688108543331e+03 -2.5762380429157763e+05 -1.6711983709718153e+07 
-3.3000000000000016e+00 -5.9304980653446204e-01 +8.1236881934791132e+00 -8.3441034159803129e-01 -3.0668187102538598e+00 +4.4597563840093289e+03 -2.5648140544315093e+05 -1.6385441622259133e+07 
-3.4000000000000017e+00 -5.9304979550974724e-01 +8.1236644010404930e+00 -8.2985864700182055e-01 -2.9959879374475586e+00 +4.3877672794186992e+03 -2.5517597585121269e+05 -1.6038520110365216e+07 
-3.5000000000000018e+00 -5.9304978894518767e-01 +8.1236406522495326e+00 -8.2522256128735239e-01 -2.9487483929069604e+00 +4.3124577897817499e+03 -2.5369574880867195e+05 -1.5672846070739890e+07 
-3.6000000000000019e+00 -5.9304978718868129e-01 +8.1236171800744810e+00 -8.2051478555534585e-01 -2.9290156664213685e+00 +4.2340842561935569e+03 -2.5202895815618732e+05 -1.5290046667884350e+07 
-3.7000000000000020e+00 -5.9304979058817942e-01 +8.1235942174835873e+00 -8.1574801521842932e-01 -2.9407053086231238e+00 +4.1529029241777062e+03 -2.5016383797048073e+05 -1.4891748640431909e+07 
-3.8000000000000020e+00 -5.9304979949162706e-01 +8.1235719974435252e+00 -8.1093494828473556e-01 -2.9877327769582140e+00 +4.0691701074813559e+03 -2.4808862288324957e+05 -1.4479579096721895e+07 
-3.9000000000000021e+00 -5.9304981424700920e-01 +8.1235507529197211e+00 -8.0608827858732446e-01 -3.0740134548354003e+00 +3.9831420546508484e+03 -2.4579154794005080e+05 -1.4055164868788039e+07 
-4.0000000000000018e+00 -5.9304983520233034e-01 +8.1235307168717767e+00 -8.0122069922058525e-01 -3.2034625260194400e+00 +3.8950750196125477e+03 -2.4326084927894612e+05 -1.3620132857289076e+07 
-4.1000000000000014e+00 -5.9304986260787684e-01 +8.1235120749351211e+00 -7.9635090824204358e-01 -3.3787722512205085e+00 +3.8053548371107931e+03 -2.4049039461807991e+05 -1.3176637582659343e+07 
-4.2000000000000011e+00 -5.9304989632044336e-01 +8.1234948244315017e+00 -7.9152070271752706e-01 -3.5978065777302350e+00 +3.7148599123674512e+03 -2.3749668249061710e+05 -1.2728826424338561e+07 
-4.3000000000000007e+00 -5.9304993609771217e-01 +8.1234789158124840e+00 -7.8677744130599858e-01 -3.8572370736772204e+00 +3.6245857858531785e+03 -2.3430189694968931e+05 -1.2281317029348470e+07 
-4.4000000000000004e+00 -5.9304998169739820e-01 +8.1234642995365345e+00 -7.8216847884629470e-01 -4.1537355671346781e+00 +3.5355279277104878e+03 -2.3092822040826202e+05 -1.1838726703699760e+07 
-4.5000000000000000e+00 -5.9305003287717029e-01 +8.1234509260637981e+00 -7.7774117703545198e-01 -4.4839739674350065e+00 +3.4486819400879203e+03 -2.2739783476069517e+05 -1.1405673371101355e+07 
-4.5999999999999996e+00 -5.9305008939471660e-01 +8.1234387458623480e+00 -7.7354289575698099e-01 -4.8446244826050968e+00 +3.3650433935552765e+03 -2.2373292001328812e+05 -1.0986774799117131e+07 
-4.6999999999999993e+00 -5.9305015100770053e-01 +8.1234277094010015e+00 -7.6962099955245677e-01 -5.2323593821258365e+00 +3.2856079532765671e+03 -2.1995565574639317e+05 -1.0586649205099339e+07 
-4.7999999999999989e+00 -5.9305021747379083e-01 +8.1234177671587524e+00 -7.6602285300223893e-01 -5.6438513010557809e+00 +3.2113712848018245e+03 -2.1608821927338693e+05 -1.0209914790048925e+07 
-4.8999999999999986e+00 -5.9305028855062214e-01 +8.1234088696167461e+00 -7.6279582604433682e-01 -6.0757729944957584e+00 +3.1433291618270482e+03 -2.1215278709803981e+05 -9.8611902714041844e+06 
-4.9999999999999982e+00 -5.9305036399584898e-01 +8.1234009672640113e+00 -7.5998728729885900e-01 -6.5247975192726981e+00 +3.0824773332300024e+03 -2.0817153381819194e+05 -9.5450942287497241e+06 
-5.0999999999999979e+00 -5.9305044356709435e-01 +8.1233940105983713e+00 -7.5764461066521349e-01 -6.9875982514438677e+00 +3.0298116539399757e+03 -2.0416663206242051e+05 -9.2662457428977769e+06 
-5.1999999999999975e+00 -5.9305052702197714e-01 +8.1233879501175306e+00 -7.5581517147431498e-01 -7.4608486417986759e+00 +2.9863280079476026e+03 -2.0016025386007206e+05 -9.0292640194249358e+06 
-5.2999999999999972e+00 -5.9305061411810533e-01 +8.1233827363335998e+00 -7.5454634819118160e-01 -7.9412226340814680e+00 +2.9530223438480375e+03 -1.9617456823539539e+05 -8.8387685624957271e+06 
-5.3999999999999968e+00 -5.9305070461306530e-01 +8.1233783197590057e+00 -7.5388552306337409e-01 -8.4253942669720701e+00 +2.9308906847693461e+03 -1.9223174348337419e+05 -8.6993792167525534e+06 
-5.4999999999999964e+00 -5.9305079826443108e-01 +8.1233746509200522e+00 -7.5388008085955582e-01 -8.9100380691906285e+00 +2.9209291026479500e+03 -1.8835394488086196e+05 -8.6157160398791227e+06 
-5.5999999999999961e+00 -5.9305089482977180e-01 +8.1233716803448459e+00 -7.5457740907639304e-01 -9.3918287028284091e+00 +2.9241337284863826e+03 -1.8456333677713198e+05 -8.5923993653817214e+06 
-5.6999999999999957e+00 -5.9305099406663508e-01 +8.1233693585720452e+00 -7.5602489877491064e-01 -9.8674412373685758e+00 +2.9415007605597916e+03 -1.8088208094561423e+05 -8.6340498220634628e+06 
-5.7999999999999954e+00 -5.9305109573255033e-01 +8.1233676361490197e+00 -7.5826994535058112e-01 -1.0333551090325177e+01 +2.9740264871880322e+03 -1.7733233694999741e+05 -8.7452884628710989e+06 
-5.8999999999999950e+00 -5.9305119958503416e-01 +8.1233664636289440e+00 -7.6135994689257158e-01 -1.0786833941653413e+01 +3.0227072478808623e+03 -1.7393626264939090e+05 -8.9307365580728259e+06 
-5.9999999999999947e+00 -5.9305130538157369e-01 +8.1233657915762993e+00 -7.6534230700114592e-01 -1.1223965919107133e+01 +3.0885394919922737e+03 -1.7071601306699181e+05 -9.1950158900115062e+06 
-6.0999999999999943e+00 -5.9305141301319664e-01 +8.1233655682842727e+00 -7.7024297079596471e-01 -1.1642111651961267e+01 +3.1721298077877136e+03 -1.6768986344536897e+05 -9.5410250032777581e+06 
-6.1999999999999940e+00 -5.9305152291325614e-01 +8.1233657198846547e+00 -7.7600072674548848e-01 -1.2040143214170353e+01 +3.2725204440959906e+03 -1.6486141183478665e+05 -9.9648069837516267e+06 
-6.2999999999999936e+00 -5.9305163565282493e-01 +8.1233661637380212e+00 -7.8253219645795669e-01 -1.2417302681264999e+01 +3.3883604402736501e+03 -1.6223076221315813e+05 -1.0460696909931282e+07 
-6.3999999999999932e+00 -5.9305175180299607e-01 +8.1233668171924194e+00 -7.8975399795251211e-01 -1.2772831808112965e+01 +3.5182987619323108e+03 -1.5979802020529812e+05 -1.1023029500799820e+07 
-6.4999999999999929e+00 -5.9305187193482500e-01 +8.1233675975800956e+00 -7.9758275330813633e-01 -1.3105971906407095e+01 +3.6609844470823791e+03 -1.5756329388103413e+05 -1.1646139812330585e+07 
-6.5999999999999925e+00 -5.9305199661936281e-01 +8.1233684222163518e+00 -8.0593508478050258e-01 -1.3415963822472706e+01 +3.8150665328824380e+03 -1.5552669384858303e+05 -1.2324362888758462e+07 
-6.6999999999999922e+00 -5.9305212642765370e-01 +8.1233692084047053e+00 -8.1472761387948600e-01 -1.3702048087395516e+01 +3.9791940324895122e+03 -1.5368833237729041e+05 -1.3052033641021604e+07 
-6.7999999999999918e+00 -5.9305226193072114e-01 +8.1233698734261921e+00 -8.2387696416347844e-01 -1.3963464614537509e+01 +4.1520159936449045e+03 -1.5204832512806743e+05 -1.3823487138637509e+07 
-6.8999999999999915e+00 -5.9305240369957957e-01 +8.1233703345502875e+00 -8.3329975920705579e-01 -1.4199452990268504e+01 +4.3321814559010309e+03 -1.5060678953295035e+05 -1.4633058395222560e+07 
-6.9999999999999911e+00 -5.9305255230522480e-01 +8.1233705090228430e+00 -8.4291262420797153e-01 -1.4409252159305352e+01 +4.5183394838984705e+03 -1.4936384652528385e+05 -1.5475082535372023e+07 
-7.0999999999999908e+00 -5.9305270831863788e-01 +8.1233703140758085e+00 -8.5263218478634761e-01 -1.4592100670228414e+01 +4.7091391429028736e+03 -1.4831961920747304e+05 -1.6343894675738441e+07 
-7.1999999999999904e+00 -5.9305287231079995e-01 +8.1233696669202917e+00 -8.6237506554309862e-01 -1.4747236513370494e+01 +4.9032294681667781e+03 -1.4747423367649538e+05 -1.7233829767352808e+07 
-7.2999999999999901e+00 -5.9305304485263877e-01 +8.1233684847434215e+00 -8.7205789660727451e-01 -1.4873896989419574e+01 +5.0992595941535237e+03 -1.4682781990613070e+05 -1.8139223227812503e+07 
-7.3999999999999897e+00 -5.9305322651512804e-01 +8.1233666847165935e+00 -8.8159730117892110e-01 -1.4971318984802183e+01 +5.2958785150789427e+03 -1.4638051002739539e+05 -1.9054409792465638e+07 
-7.4999999999999893e+00 -5.9305341786915322e-01 +8.1233641839903203e+00 -8.9090991219244442e-01 -1.5038738796554750e+01 +5.4917353998701637e+03 -1.4613243942957543e+05 -1.9973725010039993e+07 
-7.5999999999999890e+00 -5.9305361948563740e-01 +8.1233608996892084e+00 -8.9991235636160705e-01 -1.5075391993342164e+01 +5.6854792903549687e+03 -1.4608374753434715e+05 -2.0891503810706459e+07 
-7.6999999999999886e+00 -5.9305383193547301e-01 +8.1233567489184857e+00 -9.0852126315856763e-01 -1.5080513626597845e+01 +5.8757592721786878e+03 -1.4623457650743413e+05 -2.1802081320340410e+07 
-7.7999999999999883e+00 -5.9305405578950510e-01 +8.1233516487568753e+00 -9.1665326651008761e-01 -1.5053337982900581e+01 +6.0612245048809027e+03 -1.4658507280863088e+05 -2.2699792997462086e+07 
-7.8999999999999879e+00 -5.9305429161862078e-01 +8.1233455162626491e+00 -9.2422499352241871e-01 -1.4993098798015451e+01 +6.2405240080200829e+03 -1.4713538583447397e+05 -2.3578973618904628e+07 
-7.9999999999999876e+00 -5.9305453999363289e-01 +8.1233382684660018e+00 -9.3115307900816557e-01 -1.4899029011725966e+01 +6.4123069369032955e+03 -1.4788566939774639e+05 -2.4433958589109298e+07 
-8.0999999999999872e+00 -5.9305480120520526e-01 +8.1233298522920538e+00 -9.3737098452048029e-01 -1.4770731980439617e+01 +6.5754280972305014e+03 -1.4883457081522382e+05 -2.5259808678985622e+07 
-8.1999999999999869e+00 -5.9305507442612115e-01 +8.1233203295939944e+00 -9.4288069126766916e-01 -1.4609009422280705e+01 +6.7295753913114931e+03 -1.4997647097033667e+05 -2.6054517799980607e+07 
-8.2999999999999865e+00 -5.9305535855009284e-01 +8.1233097898159965e+00 -9.4770163734197532e-01 -1.4414888730108638e+01 +6.8746474414759141e+03 -1.5130513817822869e+05 -2.6816818994817898e+07 
-8.3999999999999861e+00 -5.9305565247086256e-01 +8.1232983224130280e+00 -9.5185325882489580e-01 -1.4189397386865229e+01 +7.0105428291339676e+03 -1.5281434071740360e+05 -2.7545445105255388e+07 
-8.4999999999999858e+00 -5.9305595508216413e-01 +8.1232860168521004e+00 -9.5535499352381670e-01 -1.3933563028006924e+01 +7.1371601632846277e+03 -1.5449784645186894e+05 -2.8239129089384958e+07 
-8.5999999999999854e+00 -5.9305626527778232e-01 +8.1232729626064746e+00 -9.5822627460017973e-01 -1.3648413278684567e+01 +7.2543979658199014e+03 -1.5634942376000393e+05 -2.8896603492452320e+07 
-8.6999999999999851e+00 -5.9305658195150524e-01 +8.1232592491648656e+00 -9.6048653574777321e-01 -1.3334975984390310e+01 +7.3621547636319383e+03 -1.5836284030156306e+05 -2.9516600868134126e+07 
-8.7999999999999847e+00 -5.9305690399713284e-01 +8.1232449660211774e+00 -9.6215521056194275e-01 -1.2994278935056039e+01 +7.4603290795163930e+03 -1.6053186454916935e+05 -3.0097853743337326e+07 
-8.8999999999999844e+00 -5.9305723030850843e-01 +8.1232302026873935e+00 -9.6325172869545261e-01 -1.2627350220239837e+01 +7.5488193604587377e+03 -1.6285026378356846e+05 -3.0639094280397557e+07 
-8.9999999999999840e+00 -5.9305755977947638e-01 +8.1232150486812476e+00 -9.6379552077230324e-01 -1.2235217858799809e+01 +7.6275240666032614e+03 -1.6531180626971414e+05 -3.1139054688275289e+07 
-9.0999999999999837e+00 -5.9305789130391762e-01 +8.1231995935400771e+00 -9.6380601465462024e-01 -1.1818910201555973e+01 +7.6963416063818431e+03 -1.6791025892839415e+05 -3.1596466931312837e+07 
-9.1999999999999833e+00 -5.9305822377572492e-01 +8.1231839268073642e+00 -9.6330263787998760e-01 -1.1379455548021673e+01 +7.7551703769547003e+03 -1.7063938952730366e+05 -3.2010062904177036e+07 
-9.2999999999999829e+00 -5.9305855608881475e-01 +8.1231681380420753e+00 -9.6230481650705746e-01 -1.0917882383797382e+01 +7.8039087443054150e+03 -1.7349296540127372e+05 -3.2378574344150938e+07 
-9.3999999999999826e+00 -5.9305888713715227e-01 +8.1231523168217326e+00 -9.6083197210675342e-01 -1.0435219479089660e+01 +7.8424549880762706e+03 -1.7646475285009985e+05 -3.2700732573860176e+07 
-9.4999999999999822e+00 -5.9305921581467957e-01 +8.1231365527295392e+00 -9.5890353068970613e-01 -9.9324955181765286e+00 +7.8707074682019647e+03 -1.7954851928411142e+05 -3.2975269284816708e+07 
-9.5999999999999819e+00 -5.9305954101541525e-01 +8.1231209353705545e+00 -9.5653891051032947e-01 -9.4107395356241579e+00 +7.8885643969093062e+03 -1.8273803077901478e+05 -3.3200915464138888e+07 
-9.6999999999999815e+00 -5.9305986163336621e-01 +8.1231055543597837e+00 -9.5375753235009464e-01 -8.8709805934697510e+00 +7.8959240271070103e+03 -1.8602705388524171e+05 -3.3376402271756653e+07 
-9.7999999999999812e+00 -5.9306017656259868e-01 +8.1230904993296491e+00 -9.5057881165863911e-01 -8.3142479623615806e+00 +7.8926845113473983e+03 -1.8940935467582275e+05 -3.3500460391304262e+07 
-9.8999999999999808e+00 -5.9306048469717254e-01 +8.1230758599309709e+00 -9.4702216635255854e-01 -7.7415711769914308e+00 +7.8787440439014017e+03 -1.9287869834586291e+05 -3.3571820689270385e+07 
-9.9999999999999805e+00 -5.9306078493120029e-01 +8.1230617258277587e+00 -9.4310700942973891e-01 -7.1539798788938622e+00 +7.8540007206905684e+03 -1.9642885036049475e+05 -3.3589213566497311e+07 
-1.0099999999999980e+01 -5.9306107655296314e-01 +8.1230481990305403e+00 -9.3885214626005686e-01 -6.5534646906990774e+00 +7.8184443537972838e+03 -2.0004869147905463e+05 -3.3551920831013769e+07 
