# multipoles
# s[mm] polynom_b[n=0][T/m^n] polynom_b[n=1][T/m^n] polynom_b[n=2][T/m^n] polynom_b[n=3][T/m^n] polynom_b[n=4][T/m^n] polynom_b[n=5][T/m^n] polynom_b[n=6][T/m^n] 
+0.0000000000000000e+00 -5.3709182369491859e-01 +7.3448651599332884e+00 +1.2192496012264839e-01 +1.2003664336366278e+01 -1.6032152557355623e+04 -3.4209515902265866e+05 +6.9340649302106783e+07 
-1.0000000000000001e-01 -5.3709193242992537e-01 +7.3448438810042340e+00 +1.2319925507499967e-01 +1.2489259486601352e+01 -1.6064775836556670e+04 -3.4424308608207118e+05 +6.9507887210724220e+07 
-2.0000000000000001e-01 -5.3709205087594414e-01 +7.3448245755982660e+00 +1.2443733894578833e-01 +1.2926947294968219e+01 -1.6096211097659714e+04 -3.4624161596883956e+05 +6.9669559775052294e+07 
-3.0000000000000004e-01 -5.3709217825931177e-01 +7.3448071374321238e+00 +1.2563138870031759e-01 +1.3319813375072453e+01 -1.6126418039680246e+04 -3.4810349520093331e+05 +6.9825540447805777e+07 
-4.0000000000000002e-01 -5.3709231380637690e-01 +7.3447914602206854e+00 +1.2677358249981963e-01 +1.3670943398182317e+01 -1.6155356379989140e+04 -3.4984147065635386e+05 +6.9975702762354478e+07 
-5.0000000000000000e-01 -5.3709245674347950e-01 +7.3447774376820183e+00 +1.2785609680748133e-01 +1.3983422934258163e+01 -1.6182985794565075e+04 -3.5146828860565770e+05 +7.0119920033996031e+07 
-5.9999999999999998e-01 -5.3709260629699673e-01 +7.3447649635329215e+00 +1.2887111232423903e-01 +1.4260337590639207e+01 -1.6209266033401589e+04 -3.5299669554520276e+05 +7.0258065915475979e+07 
-6.9999999999999996e-01 -5.3709276169325826e-01 +7.3447539314932966e+00 +1.2981080385500882e-01 +1.4504772904015310e+01 -1.6234156732301759e+04 -3.5443943761883507e+05 +7.0390013514256939e+07 
-7.9999999999999993e-01 -5.3709292215863924e-01 +7.3447442352787764e+00 +1.3066735110389210e-01 +1.4719814512217738e+01 -1.6257617612779770e+04 -3.5580926149049599e+05 +7.0515636330289140e+07 
-8.9999999999999991e-01 -5.3709308691949786e-01 +7.3447357686091834e+00 +1.3143293173433271e-01 +1.4908547964944466e+01 -1.6279608354639893e+04 -3.5711891340522782e+05 +7.0634807657956526e+07 
-9.9999999999999989e-01 -5.3709325520219431e-01 +7.3447284252023346e+00 +1.3209972322438321e-01 +1.5074058858414976e+01 -1.6300088629280817e+04 -3.5838113983215648e+05 +7.0747400742368937e+07 
-1.0999999999999999e+00 -5.3709342623308898e-01 +7.3447220987782300e+00 +1.3265990299442679e-01 +1.5219432746670105e+01 -1.6319018106542520e+04 -3.5960868704903842e+05 +7.0853288824027821e+07 
-1.2000000000000000e+00 -5.3709359923854272e-01 +7.3447166830578290e+00 +1.3310564781790196e-01 +1.5347755159019922e+01 -1.6336356437017446e+04 -3.6081430118194420e+05 +7.0952345033859551e+07 
-1.3000000000000000e+00 -5.3709377344491160e-01 +7.3447120717592416e+00 +1.3342913440601287e-01 +1.5462111731533351e+01 -1.6352063273951193e+04 -3.6201072902607574e+05 +7.1044442529837176e+07 
-1.4000000000000001e+00 -5.3709394807856181e-01 +7.3447081586077534e+00 +1.3362253985905889e-01 +1.5565587892708495e+01 -1.6366098271699468e+04 -3.6321071615497814e+05 +7.1129454460123494e+07 
-1.5000000000000002e+00 -5.3709412236584253e-01 +7.3447048373239481e+00 +1.3367803945833207e-01 +1.5661269238174784e+01 -1.6378421052167410e+04 -3.6442700917244499e+05 +7.1207253825955823e+07 
-1.6000000000000003e+00 -5.3709429553310173e-01 +7.3447020016328333e+00 +1.3358780776652404e-01 +1.5752241247437805e+01 -1.6388991220898901e+04 -3.6567235401562566e+05 +7.1277713546361879e+07 
-1.7000000000000004e+00 -5.3709446680669803e-01 +7.3446995452549997e+00 +1.3334402107279941e-01 +1.5841589548955929e+01 -1.6397768420366687e+04 -3.6695949751192593e+05 +7.1340706728975371e+07 
-1.8000000000000005e+00 -5.3709463541295788e-01 +7.3446973619208880e+00 +1.3293885089450261e-01 +1.5932399508183082e+01 -1.6404712198455010e+04 -3.6830118499474763e+05 +7.1396106022566110e+07 
-1.9000000000000006e+00 -5.3709480057824155e-01 +7.3446953453548005e+00 +1.3236447346273178e-01 +1.6027756690990095e+01 -1.6409782198693236e+04 -3.6971016298420593e+05 +7.1443784549392104e+07 
-2.0000000000000004e+00 -5.3709496152886294e-01 +7.3446933892847586e+00 +1.3161305868947995e-01 +1.6130746584135455e+01 -1.6412937942583900e+04 -3.7119917758170905e+05 +7.1483614847020239e+07 
-2.1000000000000005e+00 -5.3709511774718810e-01 +7.3446913901403645e+00 +1.3067522000096124e-01 +1.6243934370596463e+01 -1.6414058560169055e+04 -3.7277731666559691e+05 +7.1515089533076197e+07 
-2.2000000000000006e+00 -5.3709526974192567e-01 +7.3446892599967670e+00 +1.2953560263573619e-01 +1.6367741566777468e+01 -1.6412700561949052e+04 -3.7443888923874375e+05 +7.1536161870864391e+07 
-2.3000000000000007e+00 -5.3709541827893170e-01 +7.3446869160736359e+00 +1.2817742369789942e-01 +1.6502037168575374e+01 -1.6408339561544959e+04 -3.7617446705276001e+05 +7.1544395611943394e+07 
-2.4000000000000008e+00 -5.3709556412402559e-01 +7.3446842755839308e+00 +1.2658389720021843e-01 +1.6646690336227170e+01 -1.6400451121824455e+04 -3.7797462277245283e+05 +7.1537354276584536e+07 
-2.5000000000000009e+00 -5.3709570804305207e-01 +7.3446812557466394e+00 +1.2473824020373851e-01 +1.6801570000248365e+01 -1.6388510865145628e+04 -3.7982992762973026e+05 +7.1512601666149735e+07 
-2.6000000000000010e+00 -5.3709585080183875e-01 +7.3446777737852686e+00 +1.2262366885144074e-01 +1.6966544923574855e+01 -1.6371994404841260e+04 -3.8173095184418873e+05 +7.1467701550050661e+07 
-2.7000000000000011e+00 -5.3709599316622492e-01 +7.3446737469203063e+00 +1.2022340175233050e-01 +1.7141483884966419e+01 -1.6350377409216308e+04 -3.8366826559427415e+05 +7.1400217970390230e+07 
-2.8000000000000012e+00 -5.3709613590201799e-01 +7.3446690923763400e+00 +1.1752065441073382e-01 +1.7326255502131133e+01 -1.6323135493396619e+04 -3.8563243807726511e+05 +7.1307714718885109e+07 
-2.9000000000000012e+00 -5.3709627977505958e-01 +7.3446637273807713e+00 +1.1449864735357840e-01 +1.7520728227177187e+01 -1.6289744375828046e+04 -3.8761403737890936e+05 +7.1187756088450909e+07 
-3.0000000000000013e+00 -5.3709642555115311e-01 +7.3446575691657490e+00 +1.1114059790336260e-01 +1.7724770316835556e+01 -1.6249679724380627e+04 -3.8960363037638954e+05 +7.1037906143280521e+07 
-3.1000000000000014e+00 -5.3709657399612665e-01 +7.3446505349641846e+00 +1.0742972750014905e-01 +1.7938249925781058e+01 -1.6202417293818062e+04 -3.9159178322578571e+05 +7.0855729369330406e+07 
-3.2000000000000015e+00 -5.3709672587578861e-01 +7.3446425420088319e+00 +1.0334925650580842e-01 +1.8161035122800392e+01 -1.6147432828602536e+04 -3.9356906143001124e+05 +7.0638790214509740e+07 
-3.3000000000000016e+00 -5.3709688195595973e-01 +7.3446335075398350e+00 +9.8882408141491684e-02 +1.8392993688865200e+01 -1.6084202138981322e+04 -3.9552602873033291e+05 +7.0384653453754738e+07 
-3.4000000000000017e+00 -5.3709704300242589e-01 +7.3446233487970547e+00 +9.4012402699303124e-02 +1.8633993306013011e+01 -1.6012200989511002e+04 -3.9745324810336059e+05 +7.0090883651924059e+07 
-3.5000000000000018e+00 -5.3709720978101372e-01 +7.3446119830258310e+00 +8.8722467309777564e-02 +1.8883901410054541e+01 -1.5930905288345704e+04 -3.9934128097832872e+05 +6.9755046075121790e+07 
-3.6000000000000019e+00 -5.3709738305750243e-01 +7.3445993274728414e+00 +8.2995824613728966e-02 +1.9142585288541987e+01 -1.5839790869721097e+04 -4.0118068774428952e+05 +6.9374705647037506e+07 
-3.7000000000000020e+00 -5.3709756359769345e-01 +7.3445852993899212e+00 +7.6815701830693056e-02 +1.9409911970261579e+01 -1.5738333668222442e+04 -4.0296202712073392e+05 +6.8947427783656031e+07 
-3.8000000000000020e+00 -5.3709775216739086e-01 +7.3445698160295976e+00 +7.0165328346140601e-02 +1.9685748355722133e+01 -1.5626009674988078e+04 -4.0467585691777506e+05 +6.8470778188956022e+07 
-3.9000000000000021e+00 -5.3709794953237333e-01 +7.3445527946511566e+00 +6.3027932165082790e-02 +1.9969961018257745e+01 -1.5502294867010532e+04 -4.0631273283376230e+05 +6.7942322507462919e+07 
-4.0000000000000018e+00 -5.3709815645842607e-01 +7.3445341525134618e+00 +5.5386744441214164e-02 +2.0262416430947269e+01 -1.5366665299951481e+04 -4.0786320983674476e+05 +6.7359626783225909e+07 
-4.1000000000000014e+00 -5.3709837355898005e-01 +7.3445138682844870e+00 +4.7240079732960689e-02 +2.0562366894247656e+01 -1.5218922442507550e+04 -4.0931763055552507e+05 +6.6721680016176626e+07 
-4.2000000000000011e+00 -5.3709860083477157e-01 +7.3444921519028146e+00 +3.8644495839212395e-02 +2.0866826029332259e+01 -1.5060143894611119e+04 -4.1066594750989991e+05 +6.6033111379012272e+07 
-4.3000000000000007e+00 -5.3709883813261394e-01 +7.3444692675553167e+00 +2.9670623461864137e-02 +2.1172304160477022e+01 -1.4891720498185312e+04 -4.1189815067472303e+05 +6.5299949077104099e+07 
-4.4000000000000004e+00 -5.3709908529936801e-01 +7.3444454794190381e+00 +2.0389097905383412e-02 +2.1475311935901324e+01 -1.4715043176913381e+04 -4.1300423187652155e+05 +6.4528221698031478e+07 
-4.5000000000000000e+00 -5.3709934218190059e-01 +7.3444210516646784e+00 +1.0870553124576439e-02 +2.1772360235181903e+01 -1.4531502817065164e+04 -4.1397418427818274e+05 +6.3723957629454158e+07 
-4.5999999999999996e+00 -5.3709960862711492e-01 +7.3443962484528056e+00 +1.1856264752437068e-03 +2.2059960284162454e+01 -1.4342490362527760e+04 -4.1479800304829306e+05 +6.2893185523007952e+07 
-4.6999999999999993e+00 -5.3709988448194679e-01 +7.3443713339386747e+00 -8.5950428351158695e-03 +2.2334623527430367e+01 -1.4149396779815230e+04 -4.1546568464437674e+05 +6.2041934115852818e+07 
-4.7999999999999989e+00 -5.3710016959335849e-01 +7.3443465722628005e+00 -1.8400813978087918e-02 +2.2592861888495474e+01 -1.3953613055102905e+04 -4.1596722827491863e+05 +6.1176232219410598e+07 
-4.8999999999999986e+00 -5.3710046380834964e-01 +7.3443222275614843e+00 -2.8161043867350296e-02 +2.2831187488030697e+01 -1.3756530206007523e+04 -4.1629263431801699e+05 +6.0302108778587960e+07 
-4.9999999999999982e+00 -5.3710076697394959e-01 +7.3442985639554443e+00 -3.7805087513757399e-02 +2.3046112975569969e+01 -1.3559539272628839e+04 -4.1643190624766453e+05 +5.9425592820049495e+07 
-5.0999999999999979e+00 -5.3710107893722636e-01 +7.3442758455557948e+00 -4.7262297758907085e-02 +2.3234151350087334e+01 -1.3364031322836294e+04 -4.1637504955645546e+05 +5.8552713482804969e+07 
-5.1999999999999975e+00 -5.3710139954526881e-01 +7.3442543364672304e+00 -5.6462027282315627e-02 +2.3391815881552155e+01 -1.3171397411713655e+04 -4.1611207133457373e+05 +5.7689499818120226e+07 
-5.2999999999999972e+00 -5.3710172864523920e-01 +7.3442343007741862e+00 -6.5333622043028644e-02 +2.3515620521285332e+01 -1.2983028708272515e+04 -4.1563298266552383e+05 +5.6841981398419060e+07 
-5.3999999999999968e+00 -5.3710206608430466e-01 +7.3442160025537211e+00 -7.3806430142392757e-02 +2.3602079523713108e+01 -1.2800316323569999e+04 -4.1492779639985831e+05 +5.6016187492041357e+07 
-5.4999999999999964e+00 -5.3710241170970163e-01 +7.3441997058649147e+00 -8.1809793880019799e-02 +2.3647707765914831e+01 -1.2624651462589867e+04 -4.1398652904585371e+05 +5.5218147789667271e+07 
-5.5999999999999961e+00 -5.3710276536868162e-01 +7.3441856747618814e+00 -8.9273056555329619e-02 +2.3649020369212774e+01 -1.2457425292965427e+04 -4.1279919855124777e+05 +5.4453891773638114e+07 
-5.6999999999999957e+00 -5.3710312690856510e-01 +7.3441741732773158e+00 -9.6125556116193639e-02 +2.3602533192308613e+01 -1.2300029065692708e+04 -4.1135582720191183e+05 +5.3729449295927018e+07 
-5.7999999999999954e+00 -5.3710349617671582e-01 +7.3441654654288220e+00 -1.0229662840678050e-01 +2.3504762637173350e+01 -1.2153854050530555e+04 -4.0964644045063865e+05 +5.3050850261474662e+07 
-5.8999999999999950e+00 -5.3710387302053386e-01 +7.3441598152240042e+00 -1.0771560748625503e-01 +2.3352225519480168e+01 -1.2020291535432232e+04 -4.0766106621340150e+05 +5.2424124642887473e+07 
-5.9999999999999947e+00 -5.3710425728745215e-01 +7.3441574866503680e+00 -1.1231182777190869e-01 +2.3141439356276376e+01 -1.1900732774311346e+04 -4.0538973652419407e+05 +5.1855302200151011e+07 
-6.0999999999999943e+00 -5.3710464871631536e-01 +7.3441586546370976e+00 -1.1603751853547285e-01 +2.2870455044287951e+01 -1.1796187854816548e+04 -4.0282975292455941e+05 +5.1348831997895986e+07 
-6.1999999999999940e+00 -5.3710504659830616e-01 +7.3441631503183880e+00 -1.1893479352074290e-01 +2.2543352367603134e+01 -1.1706166391720526e+04 -4.0000762477318232e+05 +5.0902950617351420e+07 
-6.2999999999999936e+00 -5.3710545010932997e-01 +7.3441707218846997e+00 -1.2106785329394090e-01 +2.2165692628111039e+01 -1.1629808458616153e+04 -3.9695720359191846e+05 +5.0514368349087037e+07 
-6.3999999999999932e+00 -5.3710585842523628e-01 +7.3441811175320568e+00 -1.2250090466286719e-01 +2.1743037080173654e+01 -1.1566254012759813e+04 -3.9371234098601225e+05 +5.0179794958065808e+07 
-6.4999999999999929e+00 -5.3710627072184758e-01 +7.3441940854710444e+00 -1.2329815807115145e-01 +2.1280946669917572e+01 -1.1514642931956130e+04 -3.9030688710046641e+05 +4.9895939818240389e+07 
-6.5999999999999925e+00 -5.3710668617491597e-01 +7.3442093739205694e+00 -1.2352383225498899e-01 +2.0784982217749732e+01 -1.1474114934877160e+04 -3.8677469168963388e+05 +4.9659511560794234e+07 
-6.6999999999999922e+00 -5.3710710396017924e-01 +7.3442267311111218e+00 -1.2324214709288216e-01 +2.0260704320442589e+01 -1.1443809715337335e+04 -3.8314960353831144e+05 +4.9467218707325280e+07 
-6.7999999999999918e+00 -5.3710752325327360e-01 +7.3442459052879014e+00 -1.2251733527686740e-01 +1.9713673276121206e+01 -1.1422866716267386e+04 -3.7946547007956624e+05 +4.9315768584687881e+07 
-6.8999999999999915e+00 -5.3710794322983002e-01 +7.3442666447053861e+00 -1.2141362961756308e-01 +1.9149449235527094e+01 -1.1410425374501272e+04 -3.7575613824869844e+05 +4.9201868499406129e+07 
-6.9999999999999911e+00 -5.3710836306538112e-01 +7.3442886976349273e+00 -1.1999527440540883e-01 +1.8573591999082428e+01 -1.1405624906531168e+04 -3.7205545336334169e+05 +4.9122224723013215e+07 
-7.0999999999999908e+00 -5.3710878193544109e-01 +7.3443118123592690e+00 -1.1832651622193405e-01 +1.7991661164093181e+01 -1.1407604477429875e+04 -3.6839725995119143e+05 +4.9073543281498134e+07 
-7.1999999999999904e+00 -5.3710919901540555e-01 +7.3443357371744211e+00 -1.1647161565487005e-01 +1.7409216075668287e+01 -1.1415502983883574e+04 -3.6481540147066105e+05 +4.9052528938639782e+07 
-7.2999999999999901e+00 -5.3710961348067310e-01 +7.3443602203955507e+00 -1.1449483231863397e-01 +1.6831815672499083e+01 -1.1428459335760734e+04 -3.6134371947605279e+05 +4.9055886527431458e+07 
-7.3999999999999897e+00 -5.3711002450653900e-01 +7.3443850103487769e+00 -1.1246043836690950e-01 +1.6265018722419292e+01 -1.1445612199376168e+04 -3.5801605497518723e+05 +4.9080319730359174e+07 
-7.4999999999999893e+00 -5.3711043126822910e-01 +7.3444098553795287e+00 -1.1043271386050307e-01 +1.5714383567312266e+01 -1.1466100086916653e+04 -3.5486624692303268e+05 +4.9122531508308209e+07 
-7.5999999999999890e+00 -5.3711083294091644e-01 +7.3444345038480181e+00 -1.0847594469612232e-01 +1.5185468286843548e+01 -1.1489061395344876e+04 -3.5192813325622171e+05 +4.9179224284843870e+07 
-7.6999999999999886e+00 -5.3711122869968808e-01 +7.3444587041324958e+00 -1.0665442704191956e-01 +1.4683830590526215e+01 -1.1513634319106533e+04 -3.4923555023691128e+05 +4.9247099523786388e+07 
-7.7999999999999883e+00 -5.3711161771955851e-01 +7.3444822046268277e+00 -1.0503246508765525e-01 +1.4215027889835627e+01 -1.1538956898355798e+04 -3.4682233287775138e+05 +4.9322857973639533e+07 
-7.8999999999999879e+00 -5.3711199917547603e-01 +7.3445047537463815e+00 -1.0367437069426168e-01 +1.3784617134597356e+01 -1.1564167021316081e+04 -3.4472231401721598e+05 +4.9403199668731943e+07 
-7.9999999999999876e+00 -5.3711237224227215e-01 +7.3445260999217314e+00 -1.0264446953077741e-01 +1.3398154995076606e+01 -1.1588402309318246e+04 -3.4296932518055855e+05 +4.9484823404283762e+07 
-8.0999999999999872e+00 -5.3711273631914624e-01 +7.3445460593219423e+00 -1.0199484482526616e-01 +1.3059379853298921e+01 -1.1610921715658455e+04 -3.4158501868025429e+05 +4.9564852926614992e+07 
-8.1999999999999869e+00 -5.3711309173942789e-01 +7.3445647255862054e+00 -1.0172713941076754e-01 +1.2764438333505563e+01 -1.1631473814253934e+04 -3.4054098769985000e+05 +4.9641962217700243e+07 
-8.2999999999999865e+00 -5.3711343907927445e-01 +7.3445822636475508e+00 -1.0183002404769115e-01 +1.2507485256697427e+01 -1.1649929848197613e+04 -3.3979583656114648e+05 +4.9715171663428217e+07 
-8.3999999999999861e+00 -5.3711377891491097e-01 +7.3445988384241190e+00 -1.0229216048339389e-01 +1.2282675695395513e+01 -1.1666161237075208e+04 -3.3930817059497122e+05 +4.9783502458904468e+07 
-8.4999999999999858e+00 -5.3711411182257829e-01 +7.3446146148414257e+00 -1.0310220647556598e-01 +1.2084164353262134e+01 -1.1680039490175543e+04 -3.3903659266040142e+05 +4.9845976222287998e+07 
-8.5999999999999854e+00 -5.3711443837864226e-01 +7.3446297578128208e+00 -1.0424880303342397e-01 +1.1906106122601587e+01 -1.1691436444711499e+04 -3.3893970636098046e+05 +4.9901616115600578e+07 
-8.6999999999999851e+00 -5.3711475915948037e-01 +7.3446444322516422e+00 -1.0572058863005114e-01 +1.1742655728659521e+01 -1.1700223996021899e+04 -3.3897611397169961e+05 +4.9949445561677933e+07 
-8.7999999999999847e+00 -5.3711507474155251e-01 +7.3446588030627158e+00 -1.0750618984547698e-01 +1.1587967967326392e+01 -1.1706274278494397e+04 -3.3910441780116165e+05 +4.9988489110683367e+07 
-8.8999999999999844e+00 -5.3711538570138972e-01 +7.3446730351549077e+00 -1.0959422276126148e-01 +1.1436197339958907e+01 -1.1709459637524409e+04 -3.3928321807375120e+05 +5.0017772300341807e+07 
-8.9999999999999840e+00 -5.3711569261557945e-01 +7.3446872934214564e+00 -1.1197329535027885e-01 +1.1281498611408058e+01 -1.1709652584148582e+04 -3.3947111613210215e+05 +5.0036321441915609e+07 
-9.0999999999999837e+00 -5.3711599606079019e-01 +7.3447017427616190e+00 -1.1463200326049364e-01 +1.1118026174611650e+01 -1.1706725879650572e+04 -3.3962671073692333e+05 +5.0043164029966973e+07 
-9.1999999999999833e+00 -5.3711629661376481e-01 +7.3447165480582690e+00 -1.1755893213224175e-01 +1.0939934706368849e+01 -1.1700552483222347e+04 -3.3970860188919608e+05 +5.0037328471760653e+07 
-9.2999999999999829e+00 -5.3711659485129448e-01 +7.3447318741981613e+00 -1.2074265907457245e-01 +1.0741378565193914e+01 -1.1691005536042614e+04 -3.3967538730591524e+05 +5.0017844042183876e+07 
-9.3999999999999826e+00 -5.3711689135028051e-01 +7.3447478860613105e+00 -1.2417174635407768e-01 +1.0516512091092919e+01 -1.1677958470943548e+04 -3.3948566413303459e+05 +4.9983741375885196e+07 
-9.4999999999999822e+00 -5.3711718668769326e-01 +7.3447647485149066e+00 -1.2783474552089388e-01 +1.0259489775132892e+01 -1.1661284941643198e+04 -3.3909802992112195e+05 +4.9934052150504977e+07 
-9.5999999999999819e+00 -5.3711748144057603e-01 +7.3447826264283576e+00 -1.3172019767763399e-01 +9.9644658240069770e+00 -1.1640858812520417e+04 -3.3847108009701909e+05 +4.9867809022687726e+07 
-9.6999999999999815e+00 -5.3711777618605505e-01 +7.3448016846640298e+00 -1.3581663125186841e-01 +9.6255944221249923e+00 -1.1616554206944520e+04 -3.3756340948037239e+05 +4.9784045872281842e+07 
-9.7999999999999812e+00 -5.3711807150134327e-01 +7.3448220880743005e+00 -1.4011256244764697e-01 +9.2370298106423441e+00 -1.1588245494732899e+04 -3.3633361271454580e+05 +4.9681797731760792e+07 
-9.8999999999999808e+00 -5.3711836796373758e-01 +7.3448440015067566e+00 -1.4459649492735907e-01 +8.7929261179604534e+00 -1.1555807299591414e+04 -3.3474028324901307e+05 +4.9560100822603844e+07 
-9.9999999999999805e+00 -5.3711866615063475e-01 +7.3448675898055296e+00 -1.4925691783454254e-01 +8.2874373532772285e+00 -1.1519114537729958e+04 -3.3274201366411016e+05 +4.9417992714518204e+07 
-1.0099999999999980e+01 -5.3711896673528836e-01 +7.3448929604946045e+00 -1.5407824400443071e-01 +7.7163901659267005e+00 -1.1478144281705701e+04 -3.3030832382675481e+05 +4.9254989204171084e+07 
