# field on trajectory
# s[mm] rx[mm] ry[mm] rz[mm] bx[T] by[T] bz[T]
0.0000000000000000e+00 +8.1530000000000094e+00 +0.0000000000000000e+00 +0.0000000000000000e+00 -2.9443653632671915e-02 -5.6522474185014571e-01 +5.6297852188755774e-03
1.0000000000000001e-01 +8.1529997159377707e+00 +0.0000000000000000e+00 +1.0008006405070299e-01 -2.9443620414874166e-02 -5.6522466471938582e-01 +5.6298031681306102e-03
2.0000000000000001e-01 +8.1529988637557800e+00 +0.0000000000000000e+00 +2.0016012809818201e-01 -2.9443590187906939e-02 -5.6522459678876624e-01 +5.6298223064077235e-03
2.9999999999999999e-01 +8.1529974434524792e+00 +0.0000000000000000e+00 +3.0024019213920999e-01 -2.9443563146812478e-02 -5.6522453746045531e-01 +5.6298425620960194e-03
4.0000000000000002e-01 +8.1529954550242092e+00 +0.0000000000000000e+00 +4.0032025617056399e-01 -2.9443539486634893e-02 -5.6522448613661302e-01 +5.6298638635857183e-03
5.0000000000000000e-01 +8.1529928984782600e+00 +0.0000000000000000e+00 +5.0040032018901703e-01 -2.9443519402413399e-02 -5.6522444221929369e-01 +5.6298861392670057e-03
5.9999999999999998e-01 +8.1529897738146193e+00 +0.0000000000000000e+00 +6.0048038419134497e-01 -2.9443503089188722e-02 -5.6522440511058936e-01 +5.6299093175313040e-03
6.9999999999999996e-01 +8.1529860810223909e+00 +0.0000000000000000e+00 +7.0056044817432195e-01 -2.9443490742003461e-02 -5.6522437421266181e-01 +5.6299333267714477e-03
8.0000000000000004e-01 +8.1529818201124709e+00 +0.0000000000000000e+00 +8.0064051213472498e-01 -2.9443482555886982e-02 -5.6522434892749129e-01 +5.6299580953789131e-03
9.0000000000000002e-01 +8.1529769910812302e+00 +0.0000000000000000e+00 +9.0072057606932698e-01 -2.9443478725869516e-02 -5.6522432865716110e-01 +5.6299835517465788e-03
1.0000000000000000e+00 +8.1529715939250291e+00 +0.0000000000000000e+00 +1.0008006399749001e+00 -2.9443479446974816e-02 -5.6522431280374907e-01 +5.6300096242674069e-03
1.1000000000000001e+00 +8.1529656286511507e+00 +0.0000000000000000e+00 +1.1008807038482300e+00 -2.9443484914214273e-02 -5.6522430076924446e-01 +5.6300362413334590e-03
1.2000000000000000e+00 +8.1529590952522994e+00 +0.0000000000000000e+00 +1.2009607676860801e+00 -2.9443495322596460e-02 -5.6522429195574997e-01 +5.6300633313377492e-03
1.3000000000000000e+00 +8.1529519937357708e+00 +0.0000000000000000e+00 +1.3010408314852300e+00 -2.9443510867113536e-02 -5.6522428576525741e-01 +5.6300908226717987e-03
1.3999999999999999e+00 +8.1529443240979198e+00 +0.0000000000000000e+00 +1.4011208952424601e+00 -2.9443531742750814e-02 -5.6522428159984994e-01 +5.6301186437275027e-03
1.5000000000000000e+00 +8.1529360863350995e+00 +0.0000000000000000e+00 +1.5012009589545301e+00 -2.9443558144480891e-02 -5.6522427886161863e-01 +5.6301467228961439e-03
1.6000000000000001e+00 +8.1529272804509691e+00 +0.0000000000000000e+00 +1.6012810226182299e+00 -2.9443590267259345e-02 -5.6522427695261113e-01 +5.6301749885676444e-03
1.7000000000000000e+00 +8.1529179064491508e+00 +0.0000000000000000e+00 +1.7013610862303301e+00 -2.9443628306026523e-02 -5.6522427527488928e-01 +5.6302033691310030e-03
1.8000000000000000e+00 +8.1529079643223703e+00 +0.0000000000000000e+00 +1.8014411497875999e+00 -2.9443672455710949e-02 -5.6522427323061719e-01 +5.6302317929750323e-03
1.8999999999999999e+00 +8.1528974540779000e+00 +0.0000000000000000e+00 +1.9015212132868200e+00 -2.9443722911217312e-02 -5.6522427022186805e-01 +5.6302601884861735e-03
2.0000000000000000e+00 +8.1528863757084800e+00 +0.0000000000000000e+00 +2.0016012767247702e+00 -2.9443779867436980e-02 -5.6522426565085171e-01 +5.6302884840507264e-03
2.1000000000000001e+00 +8.1528747292177304e+00 +0.0000000000000000e+00 +2.1016813400982199e+00 -2.9443843385476922e-02 -5.6522425916209718e-01 +5.6303166220715833e-03
2.2000000000000002e+00 +8.1528625146056601e+00 +0.0000000000000000e+00 +2.2017614034039301e+00 -2.9443913016463909e-02 -5.6522425132426690e-01 +5.6303445983989378e-03
2.2999999999999998e+00 +8.1528497318759001e+00 +0.0000000000000000e+00 +2.3018414666387002e+00 -2.9443988190013568e-02 -5.6522424292620599e-01 +5.6303724216170692e-03
2.3999999999999999e+00 +8.1528363810211903e+00 +0.0000000000000000e+00 +2.4019215297993002e+00 -2.9444068335757790e-02 -5.6522423475686423e-01 +5.6304001003096007e-03
2.5000000000000000e+00 +8.1528224620451493e+00 +0.0000000000000000e+00 +2.5020015928824901e+00 -2.9444152883337918e-02 -5.6522422760512858e-01 +5.6304276430576596e-03
2.6000000000000001e+00 +8.1528079749477893e+00 +0.0000000000000000e+00 +2.6020816558850601e+00 -2.9444241262413112e-02 -5.6522422225993663e-01 +5.6304550584409399e-03
2.7000000000000002e+00 +8.1527929197291105e+00 +0.0000000000000000e+00 +2.7021617188037701e+00 -2.9444332902661192e-02 -5.6522421951025037e-01 +5.6304823550372921e-03
2.7999999999999998e+00 +8.1527772963891003e+00 +0.0000000000000000e+00 +2.8022417816354102e+00 -2.9444427233780934e-02 -5.6522422014505747e-01 +5.6305095414226425e-03
2.8999999999999999e+00 +8.1527611049277802e+00 +0.0000000000000000e+00 +2.9023218443767500e+00 -2.9444523685494325e-02 -5.6522422495337254e-01 +5.6305366261708697e-03
3.0000000000000000e+00 +8.1527443453451305e+00 +0.0000000000000000e+00 +3.0024019070245598e+00 -2.9444621687548991e-02 -5.6522423472423966e-01 +5.6305636178537117e-03
3.1000000000000001e+00 +8.1527270176411495e+00 +0.0000000000000000e+00 +3.1024819695756198e+00 -2.9444720669720401e-02 -5.6522425024673106e-01 +5.6305905250406563e-03
3.2000000000000002e+00 +8.1527091218158603e+00 +0.0000000000000000e+00 +3.2025620320267101e+00 -2.9444820061814227e-02 -5.6522427230995198e-01 +5.6306173562988377e-03
3.2999999999999998e+00 +8.1526906578692397e+00 +0.0000000000000000e+00 +3.3026420943745900e+00 -2.9444919293668680e-02 -5.6522430170303894e-01 +5.6306441201929396e-03
3.3999999999999999e+00 +8.1526716258013003e+00 +0.0000000000000000e+00 +3.4027221566160502e+00 -2.9445017795156767e-02 -5.6522433921516391e-01 +5.6306708252850833e-03
3.5000000000000000e+00 +8.1526520256120403e+00 +0.0000000000000000e+00 +3.5028022187478500e+00 -2.9445114996188657e-02 -5.6522438563553423e-01 +5.6306974801347328e-03
3.6000000000000001e+00 +8.1526318572978198e+00 +0.0000000000000000e+00 +3.6028822807667802e+00 -2.9445210326715463e-02 -5.6522444175342168e-01 +5.6307240932988636e-03
3.7000000000000002e+00 +8.1526111208659096e+00 +0.0000000000000000e+00 +3.7029623426696099e+00 -2.9445303216725532e-02 -5.6522450835805260e-01 +5.6307506733307266e-03
3.7999999999999998e+00 +8.1525898163126804e+00 +0.0000000000000000e+00 +3.8030424044531101e+00 -2.9445393096255792e-02 -5.6522458623877758e-01 +5.6307772287814530e-03
3.8999999999999999e+00 +8.1525679436344909e+00 +0.0000000000000000e+00 +3.9031224661140600e+00 -2.9445479395389638e-02 -5.6522467618498784e-01 +5.6308037681991070e-03
4.0000000000000000e+00 +8.1525455028386205e+00 +0.0000000000000000e+00 +4.0032025276492398e+00 -2.9445561544258547e-02 -5.6522477898602619e-01 +5.6308303001282294e-03
4.0999999999999996e+00 +8.1525224939177896e+00 +0.0000000000000000e+00 +4.1032825890554099e+00 -2.9445639107619305e-02 -5.6522489516943031e-01 +5.6308568509457479e-03
4.2000000000000002e+00 +8.1524989168792708e+00 +0.0000000000000000e+00 +4.2033626503293604e+00 -2.9445712139309358e-02 -5.6522502431061328e-01 +5.6308835118418646e-03
4.2999999999999998e+00 +8.1524747717157897e+00 +0.0000000000000000e+00 +4.3034427114678504e+00 -2.9445780804232463e-02 -5.6522516576886472e-01 +5.6309103887310268e-03
4.4000000000000004e+00 +8.1524500584346207e+00 +0.0000000000000000e+00 +4.4035227724676700e+00 -2.9445845267273986e-02 -5.6522531890333061e-01 +5.6309375875307072e-03
4.5000000000000000e+00 +8.1524247770285001e+00 +0.0000000000000000e+00 +4.5036028333255800e+00 -2.9445905693311507e-02 -5.6522548307323295e-01 +5.6309652141640432e-03
4.5999999999999996e+00 +8.1523989275046898e+00 +0.0000000000000000e+00 +4.6036828940383696e+00 -2.9445962247201030e-02 -5.6522565763764199e-01 +5.6309933745578482e-03
4.7000000000000002e+00 +8.1523725098559208e+00 +0.0000000000000000e+00 +4.7037629546028104e+00 -2.9446015093787605e-02 -5.6522584195569880e-01 +5.6310221746452456e-03
4.7999999999999998e+00 +8.1523455240894709e+00 +0.0000000000000000e+00 +4.8038430150156701e+00 -2.9446064397891526e-02 -5.6522603538638627e-01 +5.6310517203637033e-03
4.9000000000000004e+00 +8.1523179701980606e+00 +0.0000000000000000e+00 +4.9039230752737302e+00 -2.9446110324318986e-02 -5.6522623728875299e-01 +5.6310821176576552e-03
5.0000000000000000e+00 +8.1522898481889605e+00 +0.0000000000000000e+00 +5.0040031353737602e+00 -2.9446153037848206e-02 -5.6522644702168157e-01 +5.6311134724765189e-03
5.0999999999999996e+00 +8.1522611580549000e+00 +0.0000000000000000e+00 +5.1040831953125396e+00 -2.9446192703240184e-02 -5.6522666394411447e-01 +5.6311458907773448e-03
5.2000000000000002e+00 +8.1522318997995207e+00 +0.0000000000000000e+00 +5.2041632550868497e+00 -2.9446229485226266e-02 -5.6522688741485139e-01 +5.6311794785231101e-03
5.2999999999999998e+00 +8.1522020734228100e+00 +0.0000000000000000e+00 +5.3042433146934496e+00 -2.9446263548512833e-02 -5.6522711679266036e-01 +5.6312143416842163e-03
5.4000000000000004e+00 +8.1521716789247893e+00 +0.0000000000000000e+00 +5.4043233741291203e+00 -2.9446295057778061e-02 -5.6522735143624447e-01 +5.6312505862385013e-03
5.5000000000000000e+00 +8.1521407163090807e+00 +0.0000000000000000e+00 +5.5044034333906504e+00 -2.9446324177668862e-02 -5.6522759070421302e-01 +5.6312883181713139e-03
5.5999999999999996e+00 +8.1521091855684098e+00 +0.0000000000000000e+00 +5.6044834924747899e+00 -2.9446351072805424e-02 -5.6522783395518994e-01 +5.6313276434769629e-03
5.7000000000000002e+00 +8.1520770867064094e+00 +0.0000000000000000e+00 +5.7045635513783299e+00 -2.9446375907770418e-02 -5.6522808054764129e-01 +5.6313686681573353e-03
5.7999999999999998e+00 +8.1520444197231008e+00 +0.0000000000000000e+00 +5.8046436100980499e+00 -2.9446398847113558e-02 -5.6522832983998506e-01 +5.6314114982233630e-03
5.9000000000000004e+00 +8.1520111846184609e+00 +0.0000000000000000e+00 +5.9047236686307096e+00 -2.9446420055348463e-02 -5.6522858119056074e-01 +5.6314562396950745e-03
5.9999999999999902e+00 +8.1519773813925003e+00 +0.0000000000000000e+00 +6.0048037269731003e+00 -2.9446439696950856e-02 -5.6522883395764245e-01 +5.6315029985987662e-03
6.0999999999999899e+00 +8.1519430100452208e+00 +0.0000000000000000e+00 +6.1048837851219799e+00 -2.9446457933941725e-02 -5.6522908767432634e-01 +5.6315518482857718e-03
6.1999999999999904e+00 +8.1519080705766100e+00 +0.0000000000000000e+00 +6.2049638430741396e+00 -2.9446474919938369e-02 -5.6522934247967649e-01 +5.6316027488679549e-03
6.2999999999999901e+00 +8.1518725629866804e+00 +0.0000000000000000e+00 +6.3050439008263499e+00 -2.9446490806721033e-02 -5.6522959864392652e-01 +5.6316556359476003e-03
6.3999999999999897e+00 +8.1518364872754301e+00 +0.0000000000000000e+00 +6.4051239583753699e+00 -2.9446505746044654e-02 -5.6522985643732671e-01 +5.6317104451264885e-03
6.4999999999999902e+00 +8.1517998434428591e+00 +0.0000000000000000e+00 +6.5052040157180002e+00 -2.9446519889637934e-02 -5.6523011613014396e-01 +5.6317671120057746e-03
6.5999999999999899e+00 +8.1517626314889604e+00 +0.0000000000000000e+00 +6.6052840728510001e+00 -2.9446533389202553e-02 -5.6523037799266451e-01 +5.6318255721858864e-03
6.6999999999999904e+00 +8.1517248514137499e+00 +0.0000000000000000e+00 +6.7053641297711399e+00 -2.9446546396412240e-02 -5.6523064229519460e-01 +5.6318857612664341e-03
6.7999999999999901e+00 +8.1516865032135701e+00 +0.0000000000000000e+00 +6.8054441864752100e+00 -2.9446559062913501e-02 -5.6523090930809006e-01 +5.6319476148463778e-03
6.8999999999999897e+00 +8.1516475868957095e+00 +0.0000000000000000e+00 +6.9055242429599701e+00 -2.9446571540318545e-02 -5.6523117930164357e-01 +5.6320110685227735e-03
6.9999999999999902e+00 +8.1516081024565192e+00 +0.0000000000000000e+00 +7.0056042992222096e+00 -2.9446583980213690e-02 -5.6523145254625629e-01 +5.6320760578924007e-03
7.0999999999999899e+00 +8.1515680498960101e+00 +0.0000000000000000e+00 +7.1056843552586999e+00 -2.9446596534152329e-02 -5.6523172931232568e-01 +5.6321425185505026e-03
7.1999999999999904e+00 +8.1515274292141804e+00 +0.0000000000000000e+00 +7.2057644110662000e+00 -2.9446609353655610e-02 -5.6523200987027533e-01 +5.6322103860909781e-03
7.2999999999999901e+00 +8.1514862404073902e+00 +0.0000000000000000e+00 +7.3058444666415099e+00 -2.9446622590213106e-02 -5.6523229449058343e-01 +5.6322795961065491e-03
7.3999999999999897e+00 +8.1514444834829192e+00 +0.0000000000000000e+00 +7.4059245219813796e+00 -2.9446636395275814e-02 -5.6523258344367200e-01 +5.6323500841875132e-03
7.4999999999999902e+00 +8.1514021584334806e+00 +0.0000000000000000e+00 +7.5060045770826100e+00 -2.9446650920266059e-02 -5.6523287700010483e-01 +5.6324217859236624e-03
7.5999999999999899e+00 +8.1513592652663593e+00 +0.0000000000000000e+00 +7.6060846319419504e+00 -2.9446666316564278e-02 -5.6523317543036389e-01 +5.6324946369018551e-03
7.6999999999999904e+00 +8.1513158039779192e+00 +0.0000000000000000e+00 +7.7061646865561997e+00 -2.9446682735519002e-02 -5.6523347900504706e-01 +5.6325685727079454e-03
7.7999999999999901e+00 +8.1512717745681602e+00 +0.0000000000000000e+00 +7.8062447409221098e+00 -2.9446700328439775e-02 -5.6523378799475654e-01 +5.6326435289255176e-03
7.8999999999999897e+00 +8.1512271770334301e+00 +0.0000000000000000e+00 +7.9063247950364799e+00 -2.9446719246599404e-02 -5.6523410267015683e-01 +5.6327194411363597e-03
7.9999999999999902e+00 +8.1511820113773901e+00 +0.0000000000000000e+00 +8.0064048488960609e+00 -2.9446739641208846e-02 -5.6523442330185025e-01 +5.6327962449185020e-03
8.0999999999999908e+00 +8.1511362776036496e+00 +0.0000000000000000e+00 +8.1064849024976393e+00 -2.9446761573254220e-02 -5.6523474997157463e-01 +5.6328738713106912e-03
8.1999999999999904e+00 +8.1510899757086008e+00 +0.0000000000000000e+00 +8.2065649558379903e+00 -2.9446784805751334e-02 -5.6523508213706308e-01 +5.6329522363573531e-03
8.2999999999999901e+00 +8.1510431056885899e+00 +0.0000000000000000e+00 +8.3066450089139003e+00 -2.9446809040298550e-02 -5.6523541912740183e-01 +5.6330312530019572e-03
8.3999999999999897e+00 +8.1509956675508892e+00 +0.0000000000000000e+00 +8.4067250617221205e+00 -2.9446833978528954e-02 -5.6523576027166178e-01 +5.6331108341767166e-03
8.4999999999999893e+00 +8.1509476612882299e+00 +0.0000000000000000e+00 +8.5068051142594392e+00 -2.9446859322122609e-02 -5.6523610489909770e-01 +5.6331908928042886e-03
8.5999999999999908e+00 +8.1508990869078808e+00 +0.0000000000000000e+00 +8.6068851665226305e+00 -2.9446884772795789e-02 -5.6523645233892517e-01 +5.6332713417951230e-03
8.6999999999999904e+00 +8.1508499444025801e+00 +0.0000000000000000e+00 +8.7069652185084596e+00 -2.9446910032314855e-02 -5.6523680192054815e-01 +5.6333520940494422e-03
8.7999999999999794e+00 +8.1508002337759500e+00 +0.0000000000000000e+00 +8.8070452702137203e+00 -2.9446934802487015e-02 -5.6523715297336308e-01 +5.6334330624548939e-03
8.8999999999999808e+00 +8.1507499550316407e+00 +0.0000000000000000e+00 +8.9071253216351796e+00 -2.9446958785166462e-02 -5.6523750482684643e-01 +5.6335141598870741e-03
8.9999999999999805e+00 +8.1506991081623692e+00 +0.0000000000000000e+00 +9.0072053727696098e+00 -2.9446981682260526e-02 -5.6523785681064109e-01 +5.6335952992100837e-03
9.0999999999999801e+00 +8.1506476931717806e+00 +0.0000000000000000e+00 +9.1072854236137797e+00 -2.9447003195721983e-02 -5.6523820825438797e-01 +5.6336763932744345e-03
9.1999999999999797e+00 +8.1505957100635005e+00 +0.0000000000000000e+00 +9.2073654741644795e+00 -2.9447023027555246e-02 -5.6523855848781590e-01 +5.6337573549176097e-03
9.2999999999999794e+00 +8.1505431588302599e+00 +0.0000000000000000e+00 +9.3074455244184708e+00 -2.9447040879822424e-02 -5.6523890684082423e-01 +5.6338380969645947e-03
9.3999999999999808e+00 +8.1504900394757005e+00 +0.0000000000000000e+00 +9.4075255743725297e+00 -2.9447056454635714e-02 -5.6523925264331831e-01 +5.6339185322257911e-03
9.4999999999999805e+00 +8.1504363520034495e+00 +0.0000000000000000e+00 +9.5076056240234408e+00 -2.9447069454163543e-02 -5.6523959522529643e-01 +5.6339985734975857e-03
9.5999999999999801e+00 +8.1503820964062506e+00 +0.0000000000000000e+00 +9.6076856733679694e+00 -2.9447079580636640e-02 -5.6523993391693395e-01 +5.6340781335628637e-03
9.6999999999999797e+00 +8.1503272726913600e+00 +0.0000000000000000e+00 +9.7077657224029004e+00 -2.9447086536338915e-02 -5.6524026804839089e-01 +5.6341571251886640e-03
9.7999999999999794e+00 +8.1502718808515109e+00 +0.0000000000000000e+00 +9.8078457711250007e+00 -2.9447090023621180e-02 -5.6524059695003825e-01 +5.6342354611281543e-03
9.8999999999999808e+00 +8.1502159208903304e+00 +0.0000000000000000e+00 +9.9079258195310498e+00 -2.9447089744892029e-02 -5.6524091995226222e-01 +5.6343130541182812e-03
9.9999999999999805e+00 +8.1501593928078400e+00 +0.0000000000000000e+00 +1.0008005867617801e+01 -2.9447085402729809e-02 -5.6524123638574131e-01 +5.6343898168924600e-03
1.0100000000000000e+01 +8.1501022966040200e+00 +0.0000000000000000e+00 +1.0108085915382100e+01 -2.9447076956208386e-02 -5.6524154597769471e-01 +5.6344656913059890e-03
1.0199999999999999e+01 +8.1500446322825209e+00 +0.0000000000000000e+00 +1.0208165962820599e+01 -2.9447065172516732e-02 -5.6524184970459157e-01 +5.6345407110293018e-03
1.0300000000000001e+01 +8.1499863998360507e+00 +0.0000000000000000e+00 +1.0308246009930199e+01 -2.9447050977635184e-02 -5.6524214878833245e-01 +5.6346149277870924e-03
1.0400000000000000e+01 +8.1499275992682705e+00 +0.0000000000000000e+00 +1.0408326056707599e+01 -2.9447035297547639e-02 -5.6524244445059824e-01 +5.6346883933174842e-03
1.0500000000000000e+01 +8.1498682305791608e+00 +0.0000000000000000e+00 +1.0508406103149600e+01 -2.9447019058247714e-02 -5.6524273791295865e-01 +5.6347611593736083e-03
1.0600000000000000e+01 +8.1498082937723701e+00 +0.0000000000000000e+00 +1.0608486149253000e+01 -2.9447003185735753e-02 -5.6524303039681201e-01 +5.6348332777234247e-03
1.0699999999999999e+01 +8.1497477888406102e+00 +0.0000000000000000e+00 +1.0708566195014500e+01 -2.9446988606025029e-02 -5.6524332312349457e-01 +5.6349048001512981e-03
1.0800000000000001e+01 +8.1496867157875403e+00 +0.0000000000000000e+00 +1.0808646240430900e+01 -2.9446976245132581e-02 -5.6524361731410744e-01 +5.6349757784566771e-03
1.0900000000000000e+01 +8.1496250746131391e+00 +0.0000000000000000e+00 +1.0908726285499000e+01 -2.9446967029085429e-02 -5.6524391418962550e-01 +5.6350462644556547e-03
1.1000000000000000e+01 +8.1495628653174208e+00 +0.0000000000000000e+00 +1.1008806330215601e+01 -2.9446961883919074e-02 -5.6524421497086530e-01 +5.6351163099810928e-03
1.1100000000000000e+01 +8.1495000879040198e+00 +0.0000000000000000e+00 +1.1108886374577500e+01 -2.9446961735676021e-02 -5.6524452087845245e-01 +5.6351859668827414e-03
1.1199999999999999e+01 +8.1494367423620098e+00 +0.0000000000000000e+00 +1.1208966418581401e+01 -2.9446967510413542e-02 -5.6524483313296014e-01 +5.6352552870291093e-03
1.1300000000000001e+01 +8.1493728287059604e+00 +0.0000000000000000e+00 +1.1309046462224000e+01 -2.9446980134186822e-02 -5.6524515295459432e-01 +5.6353243223046749e-03
1.1400000000000000e+01 +8.1493083469249505e+00 +0.0000000000000000e+00 +1.1409126505502300e+01 -2.9447000533070464e-02 -5.6524548156358334e-01 +5.6353931246143569e-03
1.1500000000000000e+01 +8.1492432970226201e+00 +0.0000000000000000e+00 +1.1509206548412800e+01 -2.9447029633141754e-02 -5.6524582017986702e-01 +5.6354617458807396e-03
1.1600000000000000e+01 +8.1491776789989707e+00 +0.0000000000000000e+00 +1.1609286590952600e+01 -2.9447068360488306e-02 -5.6524617002323074e-01 +5.6355302380459360e-03
1.1699999999999999e+01 +8.1491114928576298e+00 +0.0000000000000000e+00 +1.1709366633118099e+01 -2.9447117641205073e-02 -5.6524653231324640e-01 +5.6355986530714089e-03
1.1800000000000001e+01 +8.1490447385876905e+00 +0.0000000000000000e+00 +1.1809446674906400e+01 -2.9447178401402079e-02 -5.6524690826941060e-01 +5.6356670429398440e-03
