# multipoles
# s[mm] polynom_b[n=0][T/m^n] polynom_b[n=1][T/m^n] polynom_b[n=2][T/m^n] polynom_b[n=3][T/m^n] polynom_b[n=4][T/m^n] polynom_b[n=5][T/m^n] polynom_b[n=6][T/m^n] 
+0.0000000000000000e+00 -5.9244490122931570e-01 +8.1173821094016851e+00 +6.8291781704148069e-01 -1.3226034523981781e+02 -1.1496934235033936e+04 +5.6708707094911253e+05 +3.2868583923739105e+07 
+1.0000000000000001e-01 -5.9244495300577582e-01 +8.1173610752084375e+00 +6.8886905593676107e-01 -1.3178457122763913e+02 -1.1547999423280742e+04 +5.6422473185540037e+05 +3.2947971147617623e+07 
+2.0000000000000001e-01 -5.9244499357390323e-01 +8.1173385081348268e+00 +6.9388247467211983e-01 -1.3122433333767026e+02 -1.1587471452521722e+04 +5.6075209155282704e+05 +3.2990497942777686e+07 
+2.9999999999999999e-01 -5.9244502350508899e-01 +8.1173144664764916e+00 +6.9798485930862320e-01 -1.3058538033157507e+02 -1.1615618543909633e+04 +5.5671562504602852e+05 +3.2996902129293211e+07 
+4.0000000000000002e-01 -5.9244504337073767e-01 +8.1172890085353266e+00 +7.0120299516746309e-01 -1.2987346111402536e+02 -1.1632708903170649e+04 +5.5216180798511882e+05 +3.2967921462392233e+07 
+5.0000000000000000e-01 -5.9244505374212564e-01 +8.1172621926148505e+00 +7.0356366214521882e-01 -1.2909432464062343e+02 -1.1639010631471505e+04 +5.4713711625145620e+05 +3.2904293205364365e+07 
+5.9999999999999998e-01 -5.9244505519060786e-01 +8.1172340770301279e+00 +7.0509364196641977e-01 -1.2825372017464994e+02 -1.1634791861537540e+04 +5.4168802736441419e+05 +3.2806754771147616e+07 
+6.9999999999999996e-01 -5.9244504828761768e-01 +8.1172047200978508e+00 +7.0581971549767430e-01 -1.2735739701524759e+02 -1.1620320716035714e+04 +5.3586101895667147e+05 +3.2676043548695650e+07 
+8.0000000000000004e-01 -5.9244503360439926e-01 +8.1171741801372885e+00 +7.0576866127131066e-01 -1.2641110453071812e+02 -1.1595865266270088e+04 +5.2970256897683034e+05 +3.2512896664906669e+07 
+9.0000000000000002e-01 -5.9244501171230324e-01 +8.1171425154791734e+00 +7.0496725757733569e-01 -1.2542059240071394e+02 -1.1561693589962952e+04 +5.2325915706292860e+05 +3.2318051309789106e+07 
+1.0000000000000000e+00 -5.9244498318270056e-01 +8.1171097844552467e+00 +7.0344228472530057e-01 -1.2439161035233320e+02 -1.1518073799948977e+04 +5.1657726311712636e+05 +3.2092244830246296e+07 
+1.1000000000000001e+00 -5.9244494858685159e-01 +8.1170760453983366e+00 +7.0122052107056121e-01 -1.2332990812267694e+02 -1.1465273978042509e+04 +5.0970336697728769e+05 +3.1836214437867537e+07 
+1.2000000000000000e+00 -5.9244490849614284e-01 +8.1170413566491337e+00 +6.9832874587046401e-01 -1.2224123568626757e+02 -1.1403562224909778e+04 +5.0268394983696082e+05 +3.1550697435693976e+07 
+1.3000000000000000e+00 -5.9244486348185321e-01 +8.1170057765500268e+00 +6.9479374086598822e-01 -1.2113134306799081e+02 -1.1333206695383049e+04 +4.9556549312438170e+05 +3.1236431393549714e+07 
+1.3999999999999999e+00 -5.9244481411534400e-01 +8.1169693634457403e+00 +6.9064228791685600e-01 -1.2000598036673018e+02 -1.1254475553669734e+04 +4.8839447867134248e+05 +3.0894153935791206e+07 
+1.5000000000000000e+00 -5.9244476096800192e-01 +8.1169321756864665e+00 +6.8590117223135039e-01 -1.1887089785396827e+02 -1.1167637030565529e+04 +4.8121738930315059e+05 +3.0524603000877619e+07 
+1.6000000000000001e+00 -5.9244470461112486e-01 +8.1168942716243997e+00 +6.8059717728360647e-01 -1.1773184586480210e+02 -1.1072959335743004e+04 +4.7408070817717502e+05 +3.0128516442966226e+07 
+1.7000000000000000e+00 -5.9244464561604371e-01 +8.1168557096091156e+00 +6.7475709091235259e-01 -1.1659457467221593e+02 -1.0970710765455844e+04 +4.6703091808969906e+05 +2.9706632522120174e+07 
+1.8000000000000000e+00 -5.9244458455419791e-01 +8.1168165479985355e+00 +6.6840770517060133e-01 -1.1546483481719760e+02 -1.0861159707584897e+04 +4.6011450342703221e+05 +2.9259689948298991e+07 
+1.8999999999999999e+00 -5.9244452199690023e-01 +8.1167768451522821e+00 +6.6157581237692764e-01 -1.1434837689929384e+02 -1.0744574563145739e+04 +4.5337794889963971e+05 +2.8788427492771033e+07 
+2.0000000000000000e+00 -5.9244445851561844e-01 +8.1167366594219406e+00 +6.5428821124281644e-01 -1.1325095130298197e+02 -1.0621223867380220e+04 +4.4686773796406115e+05 +2.8293584575810362e+07 
+2.1000000000000001e+00 -5.9244439462022347e-01 +8.1166960650955726e+00 +6.4657331091189851e-01 -1.1217748689259871e+02 -1.0491462990264736e+04 +4.4062152374046372e+05 +2.7776350676277306e+07 
+2.2000000000000002e+00 -5.9244433057828705e-01 +8.1166551948137347e+00 +6.3846434460584434e-01 -1.1112970339218175e+02 -1.0355966557794329e+04 +4.3464299113893003e+05 +2.7239634268702127e+07 
+2.2999999999999998e+00 -5.9244426659770044e-01 +8.1166141945549111e+00 +6.2999537726644284e-01 -1.1010853679331591e+02 -1.0215482404785274e+04 +4.2892765145792603e+05 +2.6686753896691903e+07 
+2.3999999999999999e+00 -5.9244420288647714e-01 +8.1165732103010555e+00 +6.2120047812190604e-01 -1.0911492316462385e+02 -1.0070758446286769e+04 +4.2347101636813371e+05 +2.6121028480708562e+07 
+2.5000000000000000e+00 -5.9244413965251286e-01 +8.1165323880264157e+00 +6.1211371229292033e-01 -1.0814979829337182e+02 -9.9225425162851498e+03 +4.1826859573992423e+05 +2.5545776548216101e+07 
+2.6000000000000001e+00 -5.9244407710378533e-01 +8.1164918737145832e+00 +6.0276915063691472e-01 -1.0721409818236661e+02 -9.7715825505558387e+03 +4.1331590054843173e+05 +2.4964317091951136e+07 
+2.7000000000000002e+00 -5.9244401544825254e-01 +8.1164518133384007e+00 +5.9320086091071544e-01 -1.0630875847808761e+02 -9.6186264230588258e+03 +4.0860843958020408e+05 +2.4379968806129262e+07 
+2.7999999999999998e+00 -5.9244395489389468e-01 +8.1164123528786511e+00 +5.8344291302892959e-01 -1.0543471498509616e+02 -9.4644220411392362e+03 +4.0414172235239897e+05 +2.3796050525161617e+07 
+2.8999999999999999e+00 -5.9244389564869970e-01 +8.1163736383036014e+00 +5.7352937685766869e-01 -1.0459290308249038e+02 -9.3097173054345822e+03 +3.9991125574644236e+05 +2.3215881040730551e+07 
+3.0000000000000000e+00 -5.9244383792065325e-01 +8.1163358155939669e+00 +5.6349432117893905e-01 -1.0378425844371233e+02 -9.1552600885393658e+03 +3.9591254819660779e+05 +2.2642778995387629e+07 
+3.1000000000000001e+00 -5.9244378191778191e-01 +8.1162990307171707e+00 +5.5337181806016245e-01 -1.0300971627322572e+02 -9.0017983126310955e+03 +3.9214110520290385e+05 +2.2080063239641771e+07 
+3.2000000000000002e+00 -5.9244372784809729e-01 +8.1162634296449170e+00 +5.4319593733448235e-01 -1.0227021182192033e+02 -8.8500798524738293e+03 +3.8859243234370986e+05 +2.1531052390677150e+07 
+3.2999999999999998e+00 -5.9244367591964497e-01 +8.1162291583380668e+00 +5.3300075123904089e-01 -1.0156667994496888e+02 -8.7008526162250255e+03 +3.8526203271095740e+05 +2.0999065199703831e+07 
+3.3999999999999999e+00 -5.9244362634046199e-01 +8.1161963627658551e+00 +5.2282032954814817e-01 -1.0090005564638001e+02 -8.5548644525158943e+03 +3.8214541003240418e+05 +2.0487420108304668e+07 
+3.5000000000000000e+00 -5.9244357931860281e-01 +8.1161651888841551e+00 +5.1268874248096619e-01 -1.0027127344821066e+02 -8.4128632067347207e+03 +3.7923806502704317e+05 +1.9999435521839961e+07 
+3.6000000000000001e+00 -5.9244353506219294e-01 +8.1161357826497920e+00 +5.0264006419932328e-01 -9.9681267797438338e+01 -8.2755967887821425e+03 +3.7653549772195151e+05 +1.9538430133680046e+07 
+3.7000000000000002e+00 -5.9244349377923577e-01 +8.1161082900166051e+00 +4.9270836259881140e-01 -9.9130972957688371e+01 -8.1438129728151152e+03 +3.7403320687779097e+05 +1.9107721958215836e+07 
+3.7999999999999998e+00 -5.9244345567786538e-01 +8.1160828569321044e+00 +4.8292770904212545e-01 -9.8621322888823741e+01 -8.0182595857030474e+03 +3.7172668920133373e+05 +1.8710629237405237e+07 
+3.8999999999999999e+00 -5.9244342096624791e-01 +8.1160596293409757e+00 +4.7333217662925192e-01 -9.8153251361904822e+01 -7.8996844692464620e+03 +3.6961144007125322e+05 +1.8350470247974485e+07 
+4.0000000000000000e+00 -5.9244338985244582e-01 +8.1160387531753635e+00 +4.6395583374705296e-01 -9.7727691683630354e+01 -7.7888353568385273e+03 +3.6768295213212731e+05 +1.8030562733642235e+07 
+4.0999999999999996e+00 -5.9244336259125097e-01 +8.1160203228390575e+00 +4.5482895637631704e-01 -9.7345081438875724e+01 -7.6862650564479754e+03 +3.6593658362544933e+05 +1.7753124532883365e+07 
+4.2000000000000002e+00 -5.9244333961107942e-01 +8.1160042537180157e+00 +4.4596989825204203e-01 -9.7004402038586491e+01 -7.5918415402866140e+03 +3.6436891536039795e+05 +1.7516435771657441e+07 
+4.2999999999999998e+00 -5.9244332138087752e-01 +8.1159904224149155e+00 +4.3739471302055632e-01 -9.6704384617724543e+01 -7.5052820158958320e+03 +3.6297721152356459e+05 +1.7317892838307682e+07 
+4.4000000000000004e+00 -5.9244330836945969e-01 +8.1159787055238546e+00 +4.2911945372759008e-01 -9.6443760151713519e+01 -7.4263036820218485e+03 +3.6175873580098170e+05 +1.7154892078262262e+07 
+4.5000000000000000e+00 -5.9244330104578358e-01 +8.1159689796263343e+00 +4.2116017622587737e-01 -9.6221259371756872e+01 -7.3546237895738113e+03 +3.6071075099500228e+05 +1.7024830078983601e+07 
+4.5999999999999996e+00 -5.9244329987864475e-01 +8.1159611213008986e+00 +4.1353293260940938e-01 -9.6035613054057364e+01 -7.2899595259704620e+03 +3.5983052073938301e+05 +1.6925103139200855e+07 
+4.7000000000000002e+00 -5.9244330533697864e-01 +8.1159550071087878e+00 +4.0625377854445738e-01 -9.5885551587137044e+01 -7.2320281512248157e+03 +3.5911530694952537e+05 +1.6853107909785978e+07 
+4.7999999999999998e+00 -5.9244331788959781e-01 +8.1159505136069878e+00 +3.9933876967715837e-01 -9.5769805396054281e+01 -7.1805469271125603e+03 +3.5856237241780316e+05 +1.6806241049568363e+07 
+4.9000000000000004e+00 -5.9244333800543691e-01 +8.1159475173383946e+00 +3.9280396324349132e-01 -9.5687104627246399e+01 -7.1352331501509207e+03 +3.5816897891669185e+05 +1.6781899387121391e+07 
+5.0000000000000000e+00 -5.9244336615326576e-01 +8.1159458948352210e+00 +3.8666541211136540e-01 -9.5636179300367573e+01 -7.0958040428474396e+03 +3.5793238824001653e+05 +1.6777479415402133e+07 
+5.0999999999999996e+00 -5.9244340280202490e-01 +8.1159455226213044e+00 +3.8093917652192089e-01 -9.5615759331425153e+01 -7.0619769699468079e+03 +3.5784986222154374e+05 +1.6790378302873485e+07 
+5.2000000000000002e+00 -5.9244344842051244e-01 +8.1159462772059019e+00 +3.7564131159724251e-01 -9.5624574409252403e+01 -7.0334692076269621e+03 +3.5791866218178015e+05 +1.6817992810219690e+07 
+5.2999999999999998e+00 -5.9244350347755670e-01 +8.1159480350865287e+00 +3.7078787383171341e-01 -9.5661354060860461e+01 -7.0099980651212190e+03 +3.5813604927640746e+05 +1.6857719866440639e+07 
+5.4000000000000004e+00 -5.9244356844200197e-01 +8.1159506727437982e+00 +3.6639492261329565e-01 -9.5724827511405536e+01 -6.9912809107506746e+03 +3.5849928371683980e+05 +1.6906956684309576e+07 
+5.5000000000000000e+00 -5.9244364378262404e-01 +8.1159540666521330e+00 +3.6247851441379020e-01 -9.5813724013492063e+01 -6.9770350672758732e+03 +3.5900562674500357e+05 +1.6963100276071358e+07 
+5.5999999999999996e+00 -5.9244372996830674e-01 +8.1159580932672739e+00 +3.5905470962481800e-01 -9.5926772486092361e+01 -6.9669779397517814e+03 +3.5965233855203399e+05 +1.7023548057063483e+07 
+5.7000000000000002e+00 -5.9244382746780710e-01 +8.1159626290327616e+00 +3.5613956521480283e-01 -9.6062701719544805e+01 -6.9608268752295016e+03 +3.6043667952669313e+05 +1.7085697175090656e+07 
+5.7999999999999998e+00 -5.9244393674991624e-01 +8.1159675503769559e+00 +3.5374914114664285e-01 -9.6220240280066420e+01 -6.9582992905189503e+03 +3.6135590967106813e+05 +1.7146945134489775e+07 
+5.9000000000000004e+00 -5.9244405828342428e-01 +8.1159727337126082e+00 +3.5189949768919887e-01 -9.6398116529208451e+01 -6.9591126099119911e+03 +3.6240728884047904e+05 +1.7204689469072852e+07 
+5.9999999999999902e+00 -5.9244419253705605e-01 +8.1159780554486076e+00 +3.5060669269643380e-01 -9.6595059113145282e+01 -6.9629842646434936e+03 +3.6358807966435491e+05 +1.7256327862733271e+07 
+6.0999999999999899e+00 -5.9244433979463818e-01 +8.1159834104935555e+00 +3.4988066714182514e-01 -9.6809980030359583e+01 -6.9697418515278778e+03 +3.6489576975776476e+05 +1.7300338109363861e+07 
+6.1999999999999904e+00 -5.9244449969699353e-01 +8.1159887413911118e+00 +3.4970927515289529e-01 -9.7041599239246395e+01 -6.9795860435814429e+03 +3.6632339924503950e+05 +1.7338927969701741e+07 
+6.2999999999999901e+00 -5.9244467174523396e-01 +8.1159939973950141e+00 +3.5007542434987965e-01 -9.7288412354085466e+01 -6.9927979858182634e+03 +3.6786188803356647e+05 +1.7375120097803853e+07 
+6.3999999999999897e+00 -5.9244485544039283e-01 +8.1159991277627945e+00 +3.5096201273620370e-01 -9.7548914975617265e+01 -7.0096586425138066e+03 +3.6950215527267655e+05 +1.7411936296526600e+07 
+6.4999999999999902e+00 -5.9244505028353889e-01 +8.1160040817625507e+00 +3.5235194293489341e-01 -9.7821602881223654e+01 -7.0304490641309903e+03 +3.7123512043108983e+05 +1.7452398774509665e+07 
+6.5999999999999899e+00 -5.9244525577572438e-01 +8.1160088086778313e+00 +3.5422811587856656e-01 -9.8104972143067087e+01 -7.0554502730807953e+03 +3.7305170389104064e+05 +1.7499529621521492e+07 
+6.6999999999999904e+00 -5.9244547141795656e-01 +8.1160132578031412e+00 +3.5657342711023488e-01 -9.8397519026928805e+01 -7.0849431898571111e+03 +3.7494282643123687e+05 +1.7556350446416847e+07 
+6.7999999999999901e+00 -5.9244569671130209e-01 +8.1160173784494418e+00 +3.5937077600473849e-01 -9.8697740099932702e+01 -7.1192088067076902e+03 +3.7689940968997311e+05 +1.7625883197935123e+07 
+6.8999999999999897e+00 -5.9244593115670552e-01 +8.1160211199367644e+00 +3.6260305837991985e-01 -9.9004132045492668e+01 -7.1585280537551571e+03 +3.7891237514900032e+05 +1.7711149547727421e+07 
+6.9999999999999902e+00 -5.9244617425517543e-01 +8.1160244316021242e+00 +3.6625316656532897e-01 -9.9315191864979525e+01 -7.2031817910056088e+03 +3.8097264521606197e+05 +1.7815170826971065e+07 
+7.0999999999999899e+00 -5.9244642550769033e-01 +8.1160272627983101e+00 +3.7030399386285706e-01 -9.9629416843941527e+01 -7.2534509032618607e+03 +3.8307114301352215e+05 +1.7940968504295863e+07 
+7.1999999999999904e+00 -5.9244668441523585e-01 +8.1160295628922494e+00 +3.7473843394700523e-01 -9.9945304501674286e+01 -7.3096162780735021e+03 +3.8519879205746227e+05 +1.8091564053026650e+07 
+7.2999999999999901e+00 -5.9244695047875362e-01 +8.1160312812721624e+00 +3.7953937234157520e-01 -1.0026135277365478e+02 -7.3719586565744949e+03 +3.8734651722772612e+05 +1.8269978277315252e+07 
+7.3999999999999897e+00 -5.9244722319915255e-01 +8.1160323673374890e+00 +3.8468970090890153e-01 -1.0057605974562256e+02 -7.4407588929504818e+03 +3.8950524328694888e+05 +1.8479232501695018e+07 
+7.4999999999999902e+00 -5.9244750207736441e-01 +8.1160327705082427e+00 +3.9017230062937841e-01 -1.0088792388370705e+02 -7.5162976442214422e+03 +3.9166589607809018e+05 +1.8722347144153140e+07 
+7.5999999999999899e+00 -5.9244778661427766e-01 +8.1160324402239787e+00 +3.9597006162160830e-01 -1.0119544400977701e+02 -7.5988557366432469e+03 +3.9381940237694239e+05 +1.9002343418523099e+07 
+7.6999999999999904e+00 -5.9244807631076257e-01 +8.1160313259401740e+00 +4.0206586112814113e-01 -1.0149711919936132e+02 -7.6887137562598873e+03 +3.9595668930225121e+05 +1.9322241413296700e+07 
+7.7999999999999901e+00 -5.9244837066771794e-01 +8.1160293771345202e+00 +4.0844258348478463e-01 -1.0179144895231728e+02 -7.7861524220023302e+03 +3.9806868524136551e+05 +1.9685061848179813e+07 
+7.8999999999999897e+00 -5.9244866918599270e-01 +8.1160265433057397e+00 +4.1508310413569499e-01 -1.0207693314042906e+02 -7.8914522917653176e+03 +4.0014631948399858e+05 +2.0093824703857232e+07 
+7.9999999999999902e+00 -5.9244897136640251e-01 +8.1160227739635307e+00 +4.2197030189491991e-01 -1.0235207108200417e+02 -8.0048939037813061e+03 +4.0218051557867683e+05 +2.0551549618153743e+07 
+8.0999999999999908e+00 -5.9244927668442982e-01 +8.1160180534340487e+00 +4.2908435639007853e-01 -1.0261591997826562e+02 -8.1265440713816233e+03 +4.0416421521444450e+05 +2.1059774832618393e+07 
+8.1999999999999904e+00 -5.9244958453198726e-01 +8.1160124975299759e+00 +4.3639486594227500e-01 -1.0287031994926886e+02 -8.2557317372723919e+03 +4.0610326170817704e+05 +2.1615008022519700e+07 
+8.2999999999999901e+00 -5.9244989428390249e-01 +8.1160062527685213e+00 +4.4386887346269482e-01 -1.0311788560326367e+02 -8.3916249407795021e+03 +4.0800748216391465e+05 +2.2212676503624585e+07 
+8.3999999999999897e+00 -5.9245020531494419e-01 +8.1159994656631671e+00 +4.5147342402894075e-01 -1.0336123153099489e+02 -8.5333917417629182e+03 +4.0988670408583881e+05 +2.2848207634100668e+07 
+8.4999999999999893e+00 -5.9245051700002171e-01 +8.1159922827367943e+00 +4.5917556326700437e-01 -1.0360297268160839e+02 -8.6802001882133300e+03 +4.1175075756491645e+05 +2.3517028658330891e+07 
+8.5999999999999908e+00 -5.9245082871396770e-01 +8.1159848505088341e+00 +4.6694233995054696e-01 -1.0384572399971084e+02 -8.8312183655173576e+03 +4.1360947319955123e+05 +2.4214566940559898e+07 
+8.6999999999999904e+00 -5.9245113983172915e-01 +8.1159773154997641e+00 +4.7474080068633134e-01 -1.0409210054741288e+02 -8.9856142979114720e+03 +4.1547268280292023e+05 +2.4936249501928441e+07 
+8.7999999999999794e+00 -5.9245144972820252e-01 +8.1159698242282534e+00 +4.8253799442367740e-01 -1.0434471743077606e+02 -9.1425560291458023e+03 +4.1735021899787983e+05 +2.5677503391610872e+07 
+8.8999999999999808e+00 -5.9245175777832260e-01 +8.1159625232180144e+00 +4.9030097256484245e-01 -1.0460619001992013e+02 -9.3012116237523642e+03 +4.1925191657721228e+05 +2.6433755689620558e+07 
+8.9999999999999805e+00 -5.9245206335711709e-01 +8.1159555589932122e+00 +4.9799678527941243e-01 -1.0487913378096788e+02 -9.4607491042879046e+03 +4.2118761143334070e+05 +2.7200433230189335e+07 
+9.0999999999999801e+00 -5.9245236583956740e-01 +8.1159490780699137e+00 +5.0559248549238245e-01 -1.0516616406604683e+02 -9.6203365158079523e+03 +4.2316713945383165e+05 +2.7972962874879841e+07 
+9.1999999999999797e+00 -5.9245266460068269e-01 +8.1159432269789367e+00 +5.1305512695896716e-01 -1.0546989676630082e+02 -9.7791418943189710e+03 +4.2520034030245739e+05 +2.8746771378958583e+07 
+9.2999999999999794e+00 -5.9245295901556261e-01 +8.1159381522367902e+00 +5.2035176154509544e-01 -1.0579294746704655e+02 -9.9363332136891604e+03 +4.2729705251570803e+05 +2.9517285133378092e+07 
+9.3999999999999808e+00 -5.9245324845931424e-01 +8.1159340003720182e+00 +5.2744945053383219e-01 -1.0613793222172977e+02 -1.0091078601800931e+04 +4.2946711802478018e+05 +3.0279931198247001e+07 
+9.4999999999999805e+00 -5.9245353230700193e-01 +8.1159309179091625e+00 +5.3431524712733103e-01 -1.0650746709720552e+02 -1.0242546002172972e+04 +4.3172037957004702e+05 +3.1030135675603468e+07 
+9.5999999999999801e+00 -5.9245380993385632e-01 +8.1159290513714542e+00 +5.4091621187350480e-01 -1.0690416823315175e+02 -1.0389903471794272e+04 +4.3406668099544174e+05 +3.1763325139753912e+07 
+9.6999999999999797e+00 -5.9245408071500438e-01 +8.1159285472851757e+00 +5.4721940432241023e-01 -1.0733065200151587e+02 -1.0532319020004250e+04 +4.3651586827391153e+05 +3.2474925864341833e+07 
+9.7999999999999794e+00 -5.9245434402571784e-01 +8.1159295521738084e+00 +5.5319188468389258e-01 -1.0778953480968038e+02 -1.0668960639328867e+04 +4.3907778830536897e+05 +3.3160363966909546e+07 
+9.8999999999999808e+00 -5.9245459924124333e-01 +8.1159322125648146e+00 +5.5880071811455578e-01 -1.0828343332404633e+02 -1.0798996384245060e+04 +4.4176229029326973e+05 +3.3815065775788493e+07 
+9.9999999999999805e+00 -5.9245484573695295e-01 +8.1159366749403752e+00 +5.6401295936698015e-01 -1.0881496414805306e+02 -1.0921594112781271e+04 +4.4457922790241591e+05 +3.4434456919876747e+07 
+1.0100000000000000e+01 -5.9245508317130613e-01 +8.1159430183876005e+00 +5.6879935074094778e-01 -1.0938535404774605e+02 -1.1036005323024667e+04 +4.4753351972105063e+05 +3.5014509550090887e+07 
