# field on trajectory
# s[mm] rx[mm] ry[mm] rz[mm] bx[T] by[T] bz[T]
0.0000000000000000e+00 +8.1649999999999991e+00 +0.0000000000000000e+00 +0.0000000000000000e+00 -2.9646818140850174e-02 -5.6499083027391994e-01 +5.6622987086132996e-03
1.0000000000000001e-01 +8.1649997167683566e+00 +0.0000000000000000e+00 +9.9999999999465197e-02 -2.9646835165442677e-02 -5.6499043498055357e-01 +5.6622942546967090e-03
2.0000000000000001e-01 +8.1649988670736935e+00 +0.0000000000000000e+00 +1.9999999999572160e-01 -2.9646855031165993e-02 -5.6499003629306244e-01 +5.6622914151599731e-03
3.0000000000000004e-01 +8.1649974509164114e+00 +0.0000000000000000e+00 +2.9999999998556037e-01 -2.9646877774573789e-02 -5.6498963507862121e-01 +5.6622900807243963e-03
4.0000000000000002e-01 +8.1649954682969099e+00 +0.0000000000000000e+00 +3.9999999996577279e-01 -2.9646903432221750e-02 -5.6498923220440000e-01 +5.6622901421129008e-03
5.0000000000000000e-01 +8.1649929192155941e+00 +0.0000000000000000e+00 +4.9999999993315003e-01 -2.9646932040668074e-02 -5.6498882853756716e-01 +5.6622914900496838e-03
5.9999999999999998e-01 +8.1649898036728690e+00 +0.0000000000000000e+00 +5.9999999988448327e-01 -2.9646963636473837e-02 -5.6498842494529133e-01 +5.6622940152598333e-03
6.9999999999999996e-01 +8.1649861216691395e+00 +0.0000000000000000e+00 +6.9999999981656380e-01 -2.9646998256203434e-02 -5.6498802229474443e-01 +5.6622976084689967e-03
7.9999999999999993e-01 +8.1649818732048089e+00 +0.0000000000000000e+00 +7.9999999972618285e-01 -2.9647035936424947e-02 -5.6498762145310322e-01 +5.6623021604030044e-03
8.9999999999999991e-01 +8.1649770582802788e+00 +0.0000000000000000e+00 +8.9999999961013166e-01 -2.9647076713710616e-02 -5.6498722328755191e-01 +5.6623075617875133e-03
9.9999999999999989e-01 +8.1649716768959486e+00 +0.0000000000000000e+00 +9.9999999946520146e-01 -2.9647120624637230e-02 -5.6498682866528493e-01 +5.6623137033476566e-03
1.0999999999999999e+00 +8.1649657290522146e+00 +0.0000000000000000e+00 +1.0999999992881835e+00 -2.9647167705786508e-02 -5.6498643845350982e-01 +5.6623204758076712e-03
1.2000000000000000e+00 +8.1649592147494676e+00 +0.0000000000000000e+00 +1.1999999990758692e+00 -2.9647217993745575e-02 -5.6498605351944786e-01 +5.6623277698905463e-03
1.3000000000000000e+00 +8.1649521339880948e+00 +0.0000000000000000e+00 +1.2999999988250497e+00 -2.9647271525107276e-02 -5.6498567473033745e-01 +5.6623354763176616e-03
1.4000000000000001e+00 +8.1649444867684746e+00 +0.0000000000000000e+00 +1.3999999985325162e+00 -2.9647328336470748e-02 -5.6498530295343752e-01 +5.6623434858084415e-03
1.5000000000000002e+00 +8.1649362730909800e+00 +0.0000000000000000e+00 +1.4999999981950600e+00 -2.9647388464441676e-02 -5.6498493905602831e-01 +5.6623516890799697e-03
1.6000000000000003e+00 +8.1649274929559770e+00 +0.0000000000000000e+00 +1.5999999978094726e+00 -2.9647451945632765e-02 -5.6498458390541406e-01 +5.6623599768466579e-03
1.7000000000000004e+00 +8.1649181463638207e+00 +0.0000000000000000e+00 +1.6999999973725450e+00 -2.9647518816664182e-02 -5.6498423836892664e-01 +5.6623682398198646e-03
1.8000000000000005e+00 +8.1649082333148595e+00 +0.0000000000000000e+00 +1.7999999968810687e+00 -2.9647589114163948e-02 -5.6498390331392601e-01 +5.6623763687075517e-03
1.9000000000000006e+00 +8.1648977538094289e+00 +0.0000000000000000e+00 +1.8999999963318348e+00 -2.9647662874768319e-02 -5.6498357960780421e-01 +5.6623842542139194e-03
2.0000000000000004e+00 +8.1648867078478524e+00 +0.0000000000000000e+00 +1.9999999957216348e+00 -2.9647740135122277e-02 -5.6498326811798716e-01 +5.6623917870390478e-03
2.1000000000000005e+00 +8.1648750954304443e+00 +0.0000000000000000e+00 +2.0999999950472601e+00 -2.9647820967197099e-02 -5.6498296950813587e-01 +5.6623989094166825e-03
2.2000000000000006e+00 +8.1648629165575031e+00 +0.0000000000000000e+00 +2.1999999943055015e+00 -2.9647905584240367e-02 -5.6498268362673498e-01 +5.6624057697300884e-03
2.3000000000000007e+00 +8.1648501712293164e+00 +0.0000000000000000e+00 +2.2999999934931510e+00 -2.9647994234820452e-02 -5.6498241011846828e-01 +5.6624125679005499e-03
2.4000000000000008e+00 +8.1648368594461598e+00 +0.0000000000000000e+00 +2.3999999926069995e+00 -2.9648087167508341e-02 -5.6498214862801210e-01 +5.6624195038498274e-03
2.5000000000000009e+00 +8.1648229812082942e+00 +0.0000000000000000e+00 +2.4999999916438385e+00 -2.9648184630877341e-02 -5.6498189880003336e-01 +5.6624267775004355e-03
2.6000000000000010e+00 +8.1648085365159719e+00 +0.0000000000000000e+00 +2.5999999906004589e+00 -2.9648286873502697e-02 -5.6498166027918739e-01 +5.6624345887758779e-03
2.7000000000000011e+00 +8.1647935253694310e+00 +0.0000000000000000e+00 +2.6999999894736528e+00 -2.9648394143961171e-02 -5.6498143271011436e-01 +5.6624431376008800e-03
2.8000000000000012e+00 +8.1647779477689024e+00 +0.0000000000000000e+00 +2.7999999882602111e+00 -2.9648506690830818e-02 -5.6498121573743765e-01 +5.6624526239016544e-03
2.9000000000000012e+00 +8.1647618037146028e+00 +0.0000000000000000e+00 +2.8999999869569248e+00 -2.9648624762690510e-02 -5.6498100900576020e-01 +5.6624632476061426e-03
3.0000000000000013e+00 +8.1647450932067400e+00 +0.0000000000000000e+00 +2.9999999855605859e+00 -2.9648748608119665e-02 -5.6498081215966256e-01 +5.6624752086442453e-03
3.1000000000000014e+00 +8.1647278162455112e+00 +0.0000000000000000e+00 +3.0999999840679853e+00 -2.9648878475697818e-02 -5.6498062484369993e-01 +5.6624887069480906e-03
3.2000000000000015e+00 +8.1647099728311066e+00 +0.0000000000000000e+00 +3.1999999824759144e+00 -2.9649014614004297e-02 -5.6498044670240033e-01 +5.6625039424522614e-03
3.3000000000000016e+00 +8.1646915629637036e+00 +0.0000000000000000e+00 +3.2999999807811649e+00 -2.9649157271617883e-02 -5.6498027738026013e-01 +5.6625211150940560e-03
3.4000000000000017e+00 +8.1646725866434746e+00 +0.0000000000000000e+00 +3.3999999789805275e+00 -2.9649306697116427e-02 -5.6498011652174329e-01 +5.6625404248137170e-03
3.5000000000000018e+00 +8.1646530438705796e+00 +0.0000000000000000e+00 +3.4999999770707939e+00 -2.9649463139076453e-02 -5.6497996377127802e-01 +5.6625620715546922e-03
3.6000000000000019e+00 +8.1646329346451729e+00 +0.0000000000000000e+00 +3.5999999750487555e+00 -2.9649626846072918e-02 -5.6497981877325376e-01 +5.6625862552638758e-03
3.7000000000000020e+00 +8.1646122589674022e+00 +0.0000000000000000e+00 +3.6999999729112036e+00 -2.9649798066678709e-02 -5.6497968117201891e-01 +5.6626131758918388e-03
3.8000000000000020e+00 +8.1645910168374041e+00 +0.0000000000000000e+00 +3.7999999706549294e+00 -2.9649977049464406e-02 -5.6497955061187921e-01 +5.6626430333931027e-03
3.9000000000000021e+00 +8.1645692082553118e+00 +0.0000000000000000e+00 +3.8999999682767243e+00 -2.9650164042997793e-02 -5.6497942673709234e-01 +5.6626760277263622e-03
4.0000000000000018e+00 +8.1645468332212481e+00 +0.0000000000000000e+00 +3.9999999657733798e+00 -2.9650359295843649e-02 -5.6497930919186756e-01 +5.6627123588547344e-03
4.1000000000000014e+00 +8.1645238917353335e+00 +0.0000000000000000e+00 +4.0999999631416868e+00 -2.9650562759479943e-02 -5.6497919757981996e-01 +5.6627521593512684e-03
4.2000000000000011e+00 +8.1645003837976802e+00 +0.0000000000000000e+00 +4.1999999603784373e+00 -2.9650773197042936e-02 -5.6497909134234492e-01 +5.6627952922136664e-03
4.3000000000000007e+00 +8.1644763094083945e+00 +0.0000000000000000e+00 +4.2999999574804226e+00 -2.9650989074571227e-02 -5.6497898988028217e-01 +5.6628415530471550e-03
4.4000000000000004e+00 +8.1644516685675796e+00 +0.0000000000000000e+00 +4.3999999544444339e+00 -2.9651208858087814e-02 -5.6497889259446066e-01 +5.6628907374591973e-03
4.5000000000000000e+00 +8.1644264612753350e+00 +0.0000000000000000e+00 +4.4999999512672622e+00 -2.9651431013599214e-02 -5.6497879888569913e-01 +5.6629426410595490e-03
4.5999999999999996e+00 +8.1644006875317547e+00 +0.0000000000000000e+00 +4.5999999479456992e+00 -2.9651654007094456e-02 -5.6497870815480733e-01 +5.6629970594603450e-03
4.6999999999999993e+00 +8.1643743473369295e+00 +0.0000000000000000e+00 +4.6999999444765361e+00 -2.9651876304544130e-02 -5.6497861980258612e-01 +5.6630537882761687e-03
4.7999999999999989e+00 +8.1643474406909498e+00 +0.0000000000000000e+00 +4.7999999408565648e+00 -2.9652096371899396e-02 -5.6497853322982605e-01 +5.6631126231241049e-03
4.8999999999999986e+00 +8.1643199675939044e+00 +0.0000000000000000e+00 +4.8999999370825753e+00 -2.9652312675091025e-02 -5.6497844783730899e-01 +5.6631733596238295e-03
4.9999999999999982e+00 +8.1642919280458788e+00 +0.0000000000000000e+00 +4.9999999331513605e+00 -2.9652523680028468e-02 -5.6497836302580728e-01 +5.6632357933976722e-03
5.0999999999999979e+00 +8.1642633220469580e+00 +0.0000000000000000e+00 +5.0999999290597104e+00 -2.9652727852598842e-02 -5.6497827819608493e-01 +5.6632997200706742e-03
5.1999999999999975e+00 +8.1642341495972293e+00 +0.0000000000000000e+00 +5.1999999248044180e+00 -2.9652923658666001e-02 -5.6497819274889638e-01 +5.6633649352706818e-03
5.2999999999999972e+00 +8.1642044106967795e+00 +0.0000000000000000e+00 +5.2999999203822732e+00 -2.9653109564069573e-02 -5.6497810608498789e-01 +5.6634312346283975e-03
5.3999999999999968e+00 +8.1641741053456958e+00 +0.0000000000000000e+00 +5.3999999157900680e+00 -2.9653284034623969e-02 -5.6497801760509725e-01 +5.6634984137774597e-03
5.4999999999999964e+00 +8.1641432335440687e+00 +0.0000000000000000e+00 +5.4999999110245934e+00 -2.9653445536117446e-02 -5.6497792670995306e-01 +5.6635662683545045e-03
5.5999999999999961e+00 +8.1641117952919888e+00 +0.0000000000000000e+00 +5.5999999060826413e+00 -2.9653592534311150e-02 -5.6497783280027647e-01 +5.6636345939992507e-03
5.6999999999999957e+00 +8.1640797905895521e+00 +0.0000000000000000e+00 +5.6999999009610027e+00 -2.9653723494938156e-02 -5.6497773527677919e-01 +5.6637031863545524e-03
5.7999999999999954e+00 +8.1640472194368581e+00 +0.0000000000000000e+00 +5.7999998956564687e+00 -2.9653836883702465e-02 -5.6497763354016606e-01 +5.6637718410664818e-03
5.8999999999999950e+00 +8.1640140818340097e+00 +0.0000000000000000e+00 +5.8999998901658310e+00 -2.9653931166278118e-02 -5.6497752699113302e-01 +5.6638403537843975e-03
5.9999999999999947e+00 +8.1639803777811153e+00 +0.0000000000000000e+00 +5.9999998844858808e+00 -2.9654004808308168e-02 -5.6497741503036891e-01 +5.6639085201610146e-03
6.0999999999999943e+00 +8.1639461072782868e+00 +0.0000000000000000e+00 +6.0999998786134100e+00 -2.9654056856522108e-02 -5.6497729725812973e-01 +5.6639761720728822e-03
6.1999999999999940e+00 +8.1639112703256451e+00 +0.0000000000000000e+00 +6.1999998725452095e+00 -2.9654088682114214e-02 -5.6497717407298353e-01 +5.6640432862779750e-03
6.2999999999999936e+00 +8.1638758669233127e+00 +0.0000000000000000e+00 +6.2999998662780712e+00 -2.9654102237413035e-02 -5.6497704607310462e-01 +5.6641098757466519e-03
6.3999999999999932e+00 +8.1638398970714210e+00 +0.0000000000000000e+00 +6.3999998598087862e+00 -2.9654099474764016e-02 -5.6497691385670212e-01 +5.6641759534395283e-03
6.4999999999999929e+00 +8.1638033607701015e+00 +0.0000000000000000e+00 +6.4999998531341454e+00 -2.9654082346530546e-02 -5.6497677802202073e-01 +5.6642415323070235e-03
6.5999999999999925e+00 +8.1637662580194927e+00 +0.0000000000000000e+00 +6.5999998462509408e+00 -2.9654052805094963e-02 -5.6497663916734353e-01 +5.6643066252889222e-03
6.6999999999999922e+00 +8.1637285888197368e+00 +0.0000000000000000e+00 +6.6999998391559634e+00 -2.9654012802859547e-02 -5.6497649789099291e-01 +5.6643712453139277e-03
6.7999999999999918e+00 +8.1636903531709741e+00 +0.0000000000000000e+00 +6.7999998318460051e+00 -2.9653964292247603e-02 -5.6497635479133335e-01 +5.6644354052992254e-03
6.8999999999999915e+00 +8.1636515510733503e+00 +0.0000000000000000e+00 +6.8999998243178569e+00 -2.9653909225704388e-02 -5.6497621046677171e-01 +5.6644991181500209e-03
6.9999999999999911e+00 +8.1636121825270109e+00 +0.0000000000000000e+00 +6.9999998165683106e+00 -2.9653849555698206e-02 -5.6497606551575996e-01 +5.6645623967591079e-03
7.0999999999999908e+00 +8.1635722475321018e+00 +0.0000000000000000e+00 +7.0999998085941574e+00 -2.9653787234721334e-02 -5.6497592053679668e-01 +5.6646252540064317e-03
7.1999999999999904e+00 +8.1635317460887702e+00 +0.0000000000000000e+00 +7.1999998003921890e+00 -2.9653724215291128e-02 -5.6497577612842920e-01 +5.6646877027586246e-03
7.2999999999999901e+00 +8.1634906781971637e+00 +0.0000000000000000e+00 +7.2999997919591966e+00 -2.9653662449950952e-02 -5.6497563288925434e-01 +5.6647497558685806e-03
7.3999999999999897e+00 +8.1634490438574243e+00 +0.0000000000000000e+00 +7.3999997832919711e+00 -2.9653603891271252e-02 -5.6497549141792081e-01 +5.6648114261749960e-03
7.4999999999999893e+00 +8.1634068430696978e+00 +0.0000000000000000e+00 +7.4999997743873044e+00 -2.9653550491850512e-02 -5.6497535231313156e-01 +5.6648727265019398e-03
7.5999999999999890e+00 +8.1633640758341226e+00 +0.0000000000000000e+00 +7.5999997652419884e+00 -2.9653504204316308e-02 -5.6497521617364377e-01 +5.6649336696583995e-03
7.6999999999999886e+00 +8.1633207421508391e+00 +0.0000000000000000e+00 +7.6999997558528142e+00 -2.9653466981326287e-02 -5.6497508359827242e-01 +5.6649942684378427e-03
7.7999999999999883e+00 +8.1632768420199788e+00 +0.0000000000000000e+00 +7.7999997462165727e+00 -2.9653440775569168e-02 -5.6497495518589114e-01 +5.6650545356177655e-03
7.8999999999999879e+00 +8.1632323754416731e+00 +0.0000000000000000e+00 +7.8999997363300558e+00 -2.9653427539765773e-02 -5.6497483153543382e-01 +5.6651144839592578e-03
7.9999999999999876e+00 +8.1631873424160482e+00 +0.0000000000000000e+00 +7.9999997261900546e+00 -2.9653429226670018e-02 -5.6497471324589699e-01 +5.6651741262065498e-03
8.0999999999999872e+00 +8.1631417429432229e+00 +0.0000000000000000e+00 +8.0999997157933610e+00 -2.9653447214073064e-02 -5.6497460085537332e-01 +5.6652334783283357e-03
8.1999999999999869e+00 +8.1630955770233111e+00 +0.0000000000000000e+00 +8.1999997051367650e+00 -2.9653480579797900e-02 -5.6497449465813787e-01 +5.6652925692517696e-03
8.2999999999999865e+00 +8.1630488446564229e+00 +0.0000000000000000e+00 +8.2999996942170604e+00 -2.9653527826706060e-02 -5.6497439488753298e-01 +5.6653514311530602e-03
8.3999999999999861e+00 +8.1630015458426577e+00 +0.0000000000000000e+00 +8.3999996830310373e+00 -2.9653587457705848e-02 -5.6497430177693531e-01 +5.6654100962182765e-03
8.4999999999999858e+00 +8.1629536805821115e+00 +0.0000000000000000e+00 +8.4999996715754875e+00 -2.9653657975753697e-02 -5.6497421555975491e-01 +5.6654685966437473e-03
8.5999999999999854e+00 +8.1629052488748712e+00 +0.0000000000000000e+00 +8.5999996598472013e+00 -2.9653737883855554e-02 -5.6497413646943828e-01 +5.6655269646364633e-03
8.6999999999999851e+00 +8.1628562507210187e+00 +0.0000000000000000e+00 +8.6999996478429722e+00 -2.9653825685068060e-02 -5.6497406473946643e-01 +5.6655852324144513e-03
8.7999999999999847e+00 +8.1628066861206268e+00 +0.0000000000000000e+00 +8.7999996355595904e+00 -2.9653919882499991e-02 -5.6497400060335723e-01 +5.6656434322071795e-03
8.8999999999999844e+00 +8.1627565550737611e+00 +0.0000000000000000e+00 +8.8999996229938461e+00 -2.9654018979313499e-02 -5.6497394429466652e-01 +5.6657015962559504e-03
8.9999999999999840e+00 +8.1627058575804803e+00 +0.0000000000000000e+00 +8.9999996101425328e+00 -2.9654121478725433e-02 -5.6497389604698700e-01 +5.6657597568142825e-03
9.0999999999999837e+00 +8.1626545936408341e+00 +0.0000000000000000e+00 +9.0999995970024408e+00 -2.9654225884008661e-02 -5.6497385609395012e-01 +5.6658179461483160e-03
9.1999999999999833e+00 +8.1626027632548634e+00 +0.0000000000000000e+00 +9.1999995835703618e+00 -2.9654330698493429e-02 -5.6497382466922730e-01 +5.6658761965371982e-03
9.2999999999999829e+00 +8.1625503664226020e+00 +0.0000000000000000e+00 +9.2999995698430862e+00 -2.9654434425568581e-02 -5.6497380200652902e-01 +5.6659345402734667e-03
9.3999999999999826e+00 +8.1624974031440747e+00 +0.0000000000000000e+00 +9.3999995558174074e+00 -2.9654535568682996e-02 -5.6497378833960654e-01 +5.6659930096634630e-03
9.4999999999999822e+00 +8.1624438734192957e+00 +0.0000000000000000e+00 +9.4999995414901157e+00 -2.9654632631346801e-02 -5.6497378390225239e-01 +5.6660516370277093e-03
9.5999999999999819e+00 +8.1623897772482721e+00 +0.0000000000000000e+00 +9.5999995268580030e+00 -2.9654724117132762e-02 -5.6497378892830175e-01 +5.6661104547012968e-03
9.6999999999999815e+00 +8.1623351146310004e+00 +0.0000000000000000e+00 +9.6999995119178593e+00 -2.9654808529677567e-02 -5.6497380365163141e-01 +5.6661694950342839e-03
9.7999999999999812e+00 +8.1622798855674681e+00 +0.0000000000000000e+00 +9.7999994966664765e+00 -2.9654884372683155e-02 -5.6497382830616205e-01 +5.6662287903920970e-03
9.8999999999999808e+00 +8.1622240900576521e+00 +0.0000000000000000e+00 +9.8999994811006466e+00 -2.9654950149918063e-02 -5.6497386312585873e-01 +5.6662883731559109e-03
9.9999999999999805e+00 +8.1621677281015188e+00 +0.0000000000000000e+00 +9.9999994652171615e+00 -2.9655004365218722e-02 -5.6497390834472994e-01 +5.6663482757230250e-03
1.0099999999999980e+01 +8.1621107996990254e+00 +0.0000000000000000e+00 +1.0099999449012811e+01 -2.9655045998092457e-02 -5.6497396405626354e-01 +5.6664085006971603e-03
1.0199999999999980e+01 +8.1620533048501169e+00 +0.0000000000000000e+00 +1.0199999432484388e+01 -2.9655075930490327e-02 -5.6497402979166544e-01 +5.6664689314504047e-03
1.0299999999999979e+01 +8.1619952435547294e+00 +0.0000000000000000e+00 +1.0299999415628683e+01 -2.9655095519874049e-02 -5.6497410494148670e-01 +5.6665294215441260e-03
1.0399999999999979e+01 +8.1619366158127900e+00 +0.0000000000000000e+00 +1.0399999398442487e+01 -2.9655106123579831e-02 -5.6497418889618067e-01 +5.6665898245385118e-03
1.0499999999999979e+01 +8.1618774216242169e+00 +0.0000000000000000e+00 +1.0499999380922592e+01 -2.9655109098814941e-02 -5.6497428104610059e-01 +5.6666499939925039e-03
1.0599999999999978e+01 +8.1618176609889179e+00 +0.0000000000000000e+00 +1.0599999363065789e+01 -2.9655105802654288e-02 -5.6497438078149564e-01 +5.6667097834637433e-03
1.0699999999999978e+01 +8.1617573339067970e+00 +0.0000000000000000e+00 +1.0699999344868869e+01 -2.9655097592037077e-02 -5.6497448749251089e-01 +5.6667690465085317e-03
1.0799999999999978e+01 +8.1616964403777477e+00 +0.0000000000000000e+00 +1.0799999326328624e+01 -2.9655085823763239e-02 -5.6497460056918092e-01 +5.6668276366817474e-03
1.0899999999999977e+01 +8.1616349804016597e+00 +0.0000000000000000e+00 +1.0899999307441846e+01 -2.9655071854490109e-02 -5.6497471940143040e-01 +5.6668854075368107e-03
1.0999999999999977e+01 +8.1615729539784159e+00 +0.0000000000000000e+00 +1.0999999288205323e+01 -2.9655057040728978e-02 -5.6497484337906934e-01 +5.6669422126256188e-03
1.1099999999999977e+01 +8.1615103611078919e+00 +0.0000000000000000e+00 +1.1099999268615850e+01 -2.9655042738841640e-02 -5.6497497189179102e-01 +5.6669979054984913e-03
1.1199999999999976e+01 +8.1614472017899633e+00 +0.0000000000000000e+00 +1.1199999248670217e+01 -2.9655030305037005e-02 -5.6497510432916886e-01 +5.6670523397041230e-03
1.1299999999999976e+01 +8.1613834760244988e+00 +0.0000000000000000e+00 +1.1299999228365214e+01 -2.9655021095367624e-02 -5.6497524008065436e-01 +5.6671053687895080e-03
1.1399999999999975e+01 +8.1613191838113650e+00 +0.0000000000000000e+00 +1.1399999207697634e+01 -2.9655016465726294e-02 -5.6497537853557345e-01 +5.6671568462999108e-03
1.1499999999999975e+01 +8.1612543251504235e+00 +0.0000000000000000e+00 +1.1499999186664269e+01 -2.9655017771842637e-02 -5.6497551908312449e-01 +5.6672066257787909e-03
1.1599999999999975e+01 +8.1611889000415374e+00 +0.0000000000000000e+00 +1.1599999165261908e+01 -2.9655026369279646e-02 -5.6497566111237529e-01 +5.6672545607677483e-03
1.1699999999999974e+01 +8.1611229084845647e+00 +0.0000000000000000e+00 +1.1699999143487343e+01 -2.9655043613430278e-02 -5.6497580401226033e-01 +5.6673005048064841e-03
1.1799999999999974e+01 +8.1610563504793650e+00 +0.0000000000000000e+00 +1.1799999121337367e+01 -2.9655070859513986e-02 -5.6497594717157773e-01 +5.6673443114327307e-03
