# field on trajectory
# s[mm] rx[mm] ry[mm] rz[mm] bx[T] by[T] bz[T]
0.0000000000000000e+00 +8.1529999999999987e+00 +0.0000000000000000e+00 +0.0000000000000000e+00 -3.0252421831729794e-02 -5.6439589872709373e-01 +5.6155150266971269e-03
1.0000000000000001e-01 +8.1529997171121948e+00 +0.0000000000000000e+00 +9.9999999999466502e-02 -3.0252510799088028e-02 -5.6439596331712683e-01 +5.6155490752595469e-03
2.0000000000000001e-01 +8.1529988684487407e+00 +0.0000000000000000e+00 +1.9999999999573198e-01 -3.0252608122203359e-02 -5.6439601646058524e-01 +5.6155840546794769e-03
3.0000000000000004e-01 +8.1529974540095846e+00 +0.0000000000000000e+00 +2.9999999998559546e-01 -3.0252713182731900e-02 -5.6439605853967034e-01 +5.6156199866976295e-03
4.0000000000000002e-01 +8.1529954737946841e+00 +0.0000000000000000e+00 +3.9999999996585583e-01 -3.0252825362327700e-02 -5.6439608993659207e-01 +5.6156568930550476e-03
5.0000000000000000e-01 +8.1529929278040072e+00 +0.0000000000000000e+00 +4.9999999993331212e-01 -3.0252944042641707e-02 -5.6439611103356879e-01 +5.6156947954931688e-03
5.9999999999999998e-01 +8.1529898160375325e+00 +0.0000000000000000e+00 +5.9999999988476327e-01 -3.0253068605320600e-02 -5.6439612221282565e-01 +5.6157337157539018e-03
6.9999999999999996e-01 +8.1529861384952493e+00 +0.0000000000000000e+00 +6.9999999981700833e-01 -3.0253198432005680e-02 -5.6439612385659210e-01 +5.6157736755796861e-03
7.9999999999999993e-01 +8.1529818951771560e+00 +0.0000000000000000e+00 +7.9999999972684621e-01 -3.0253332904331822e-02 -5.6439611634710063e-01 +5.6158146967135699e-03
8.9999999999999991e-01 +8.1529770860832613e+00 +0.0000000000000000e+00 +8.9999999961107591e-01 -3.0253471403926261e-02 -5.6439610006658436e-01 +5.6158568008992694e-03
9.9999999999999989e-01 +8.1529717112135796e+00 +0.0000000000000000e+00 +9.9999999946649643e-01 -3.0253613312407539e-02 -5.6439607539727621e-01 +5.6159000098812391e-03
1.0999999999999999e+00 +8.1529657705681373e+00 +0.0000000000000000e+00 +1.0999999992899068e+00 -3.0253758011384427e-02 -5.6439604272140731e-01 +5.6159443454047529e-03
1.2000000000000000e+00 +8.1529592641469666e+00 +0.0000000000000000e+00 +1.1999999990781058e+00 -3.0253904882454729e-02 -5.6439600242120402e-01 +5.6159898292159546e-03
1.3000000000000000e+00 +8.1529521919501082e+00 +0.0000000000000000e+00 +1.2999999988278925e+00 -3.0254053307204244e-02 -5.6439595487888816e-01 +5.6160364830619451e-03
1.4000000000000001e+00 +8.1529445539776102e+00 +0.0000000000000000e+00 +1.3999999985360660e+00 -3.0254202667205597e-02 -5.6439590047667332e-01 +5.6160843286908336e-03
1.5000000000000002e+00 +8.1529363502295276e+00 +0.0000000000000000e+00 +1.4999999981994252e+00 -3.0254352344017164e-02 -5.6439583959676420e-01 +5.6161333878518164e-03
1.6000000000000003e+00 +8.1529275807059207e+00 +0.0000000000000000e+00 +1.5999999978147690e+00 -3.0254501719181946e-02 -5.6439577262135499e-01 +5.6161836822952440e-03
1.7000000000000004e+00 +8.1529182454068572e+00 +0.0000000000000000e+00 +1.6999999973788966e+00 -3.0254650174226488e-02 -5.6439569993262695e-01 +5.6162352337726937e-03
1.8000000000000005e+00 +8.1529083443324115e+00 +0.0000000000000000e+00 +1.7999999968886069e+00 -3.0254797090659733e-02 -5.6439562191274817e-01 +5.6162880640370288e-03
1.9000000000000006e+00 +8.1528978774826601e+00 +0.0000000000000000e+00 +1.8999999963406988e+00 -3.0254941849971878e-02 -5.6439553894386973e-01 +5.6163421948424771e-03
2.0000000000000004e+00 +8.1528868448576883e+00 +0.0000000000000000e+00 +1.9999999957319714e+00 -3.0255083833633362e-02 -5.6439545140812564e-01 +5.6163976479446914e-03
2.1000000000000005e+00 +8.1528752464575831e+00 +0.0000000000000000e+00 +2.0999999950592234e+00 -3.0255222616483134e-02 -5.6439535984439271e-01 +5.6164544332175607e-03
2.2000000000000006e+00 +8.1528630822824368e+00 +0.0000000000000000e+00 +2.1999999943192541e+00 -3.0255358546906381e-02 -5.6439526541857965e-01 +5.6165125130033617e-03
2.3000000000000007e+00 +8.1528503523323437e+00 +0.0000000000000000e+00 +2.2999999935088624e+00 -3.0255492166684491e-02 -5.6439516945335289e-01 +5.6165718377623707e-03
2.4000000000000008e+00 +8.1528370566074013e+00 +0.0000000000000000e+00 +2.3999999926248474e+00 -3.0255624017610512e-02 -5.6439507327137362e-01 +5.6166323579561394e-03
2.5000000000000009e+00 +8.1528231951077057e+00 +0.0000000000000000e+00 +2.4999999916640081e+00 -3.0255754641491512e-02 -5.6439497819529982e-01 +5.6166940240475003e-03
2.6000000000000010e+00 +8.1528087678333527e+00 +0.0000000000000000e+00 +2.5999999906231435e+00 -3.0255884580151163e-02 -5.6439488554778672e-01 +5.6167567865006100e-03
2.7000000000000011e+00 +8.1527937747844366e+00 +0.0000000000000000e+00 +2.6999999894990525e+00 -3.0256014375432103e-02 -5.6439479665148606e-01 +5.6168205957809669e-03
2.8000000000000012e+00 +8.1527782159610460e+00 +0.0000000000000000e+00 +2.7999999882885342e+00 -3.0256144569198489e-02 -5.6439471282904741e-01 +5.6168854023554340e-03
2.9000000000000012e+00 +8.1527620913632646e+00 +0.0000000000000000e+00 +2.8999999869883877e+00 -3.0256275703338460e-02 -5.6439463540311707e-01 +5.6169511566922688e-03
3.0000000000000013e+00 +8.1527454009911704e+00 +0.0000000000000000e+00 +2.9999999855954118e+00 -3.0256408319766559e-02 -5.6439456569634161e-01 +5.6170178092611427e-03
3.1000000000000014e+00 +8.1527281448448345e+00 +0.0000000000000000e+00 +3.0999999841064056e+00 -3.0256542960426267e-02 -5.6439450503136424e-01 +5.6170853105331755e-03
3.2000000000000015e+00 +8.1527103229243192e+00 +0.0000000000000000e+00 +3.1999999825181682e+00 -3.0256680167292448e-02 -5.6439445473082717e-01 +5.6171536109809487e-03
3.3000000000000016e+00 +8.1526919352296741e+00 +0.0000000000000000e+00 +3.2999999808274980e+00 -3.0256820482373832e-02 -5.6439441611737251e-01 +5.6172226610785381e-03
3.4000000000000017e+00 +8.1526729817609382e+00 +0.0000000000000000e+00 +3.3999999790311946e+00 -3.0256964447715480e-02 -5.6439439051364193e-01 +5.6172924113015435e-03
3.5000000000000018e+00 +8.1526534625181366e+00 +0.0000000000000000e+00 +3.4999999771260568e+00 -3.0257112605401218e-02 -5.6439437924227609e-01 +5.6173628121271033e-03
3.6000000000000019e+00 +8.1526333775012834e+00 +0.0000000000000000e+00 +3.5999999751088838e+00 -3.0257265497556210e-02 -5.6439438362591632e-01 +5.6174338140339225e-03
3.7000000000000020e+00 +8.1526127267103732e+00 +0.0000000000000000e+00 +3.6999999729764745e+00 -3.0257423666349297e-02 -5.6439440498720495e-01 +5.6175053675023082e-03
3.8000000000000020e+00 +8.1525915101453865e+00 +0.0000000000000000e+00 +3.7999999707256280e+00 -3.0257587653995600e-02 -5.6439444464878397e-01 +5.6175774230141770e-03
3.9000000000000021e+00 +8.1525697278062825e+00 +0.0000000000000000e+00 +3.8999999683531432e+00 -3.0257758002758872e-02 -5.6439450393329837e-01 +5.6176499310530998e-03
4.0000000000000018e+00 +8.1525473796930026e+00 +0.0000000000000000e+00 +3.9999999658558192e+00 -3.0257935254954019e-02 -5.6439458416339316e-01 +5.6177228421043102e-03
4.1000000000000014e+00 +8.1525244658054685e+00 +0.0000000000000000e+00 +4.0999999632304549e+00 -3.0258119736730375e-02 -5.6439468627326650e-01 +5.6177961427605477e-03
4.2000000000000011e+00 +8.1525009861435773e+00 +0.0000000000000000e+00 +4.1999999604738489e+00 -3.0258310909387267e-02 -5.6439480964332378e-01 +5.6178699640379720e-03
4.3000000000000007e+00 +8.1524769407072064e+00 +0.0000000000000000e+00 +4.2999999575828003e+00 -3.0258508017983677e-02 -5.6439495326554245e-01 +5.6179444730555987e-03
4.4000000000000004e+00 +8.1524523294962137e+00 +0.0000000000000000e+00 +4.3999999545541080e+00 -3.0258710307548464e-02 -5.6439511613192095e-01 +5.6180198369287357e-03
4.5000000000000000e+00 +8.1524271525104357e+00 +0.0000000000000000e+00 +4.4999999513845719e+00 -3.0258917023077883e-02 -5.6439529723448478e-01 +5.6180962227687092e-03
4.5999999999999996e+00 +8.1524014097496913e+00 +0.0000000000000000e+00 +4.5999999480709901e+00 -3.0259127409532925e-02 -5.6439549556528379e-01 +5.6181737976825769e-03
4.6999999999999993e+00 +8.1523751012137833e+00 +0.0000000000000000e+00 +4.6999999446101617e+00 -3.0259340711836780e-02 -5.6439571011639800e-01 +5.6182527287728604e-03
4.7999999999999989e+00 +8.1523482269024985e+00 +0.0000000000000000e+00 +4.7999999409988856e+00 -3.0259556174872193e-02 -5.6439593987993486e-01 +5.6183331831372489e-03
4.8999999999999986e+00 +8.1523207868156060e+00 +0.0000000000000000e+00 +4.8999999372339600e+00 -3.0259773043478939e-02 -5.6439618384803325e-01 +5.6184153278683313e-03
4.9999999999999982e+00 +8.1522927809528625e+00 +0.0000000000000000e+00 +4.9999999333121847e+00 -3.0259990562451228e-02 -5.6439644101286468e-01 +5.6184993300533214e-03
5.0999999999999979e+00 +8.1522642093140121e+00 +0.0000000000000000e+00 +5.0999999292303588e+00 -3.0260207976535058e-02 -5.6439671036663419e-01 +5.6185853567737639e-03
5.1999999999999975e+00 +8.1522350718987848e+00 +0.0000000000000000e+00 +5.1999999249852804e+00 -3.0260424530425701e-02 -5.6439699090158169e-01 +5.6186735751052701e-03
5.2999999999999972e+00 +8.1522053687069000e+00 +0.0000000000000000e+00 +5.2999999205737485e+00 -3.0260639468765081e-02 -5.6439728160998404e-01 +5.6187641521172260e-03
5.3999999999999968e+00 +8.1521750997380682e+00 +0.0000000000000000e+00 +5.3999999159925629e+00 -3.0260852036139207e-02 -5.6439758148415653e-01 +5.6188572548725195e-03
5.4999999999999964e+00 +8.1521442649919909e+00 +0.0000000000000000e+00 +5.4999999112385218e+00 -3.0261061477075555e-02 -5.6439788951645320e-01 +5.6189530504272668e-03
5.5999999999999961e+00 +8.1521128644683589e+00 +0.0000000000000000e+00 +5.5999999063084243e+00 -3.0261267036040530e-02 -5.6439820469927016e-01 +5.6190517058305163e-03
5.6999999999999957e+00 +8.1520808981668580e+00 +0.0000000000000000e+00 +5.6999999011990683e+00 -3.0261467957436866e-02 -5.6439852602504503e-01 +5.6191533881239895e-03
5.7999999999999954e+00 +8.1520483660871665e+00 +0.0000000000000000e+00 +5.7999998959072538e+00 -3.0261663485601012e-02 -5.6439885248626032e-01 +5.6192582643417848e-03
5.8999999999999950e+00 +8.1520152682289577e+00 +0.0000000000000000e+00 +5.8999998904297790e+00 -3.0261852864800598e-02 -5.6439918307544334e-01 +5.6193665015101058e-03
5.9999999999999947e+00 +8.1519816045919029e+00 +0.0000000000000000e+00 +5.9999998847634428e+00 -3.0262035339231826e-02 -5.6439951678516886e-01 +5.6194782666469855e-03
6.0999999999999943e+00 +8.1519473751756681e+00 +0.0000000000000000e+00 +6.0999998789050442e+00 -3.0262210264723303e-02 -5.6439985263341386e-01 +5.6195936558885006e-03
6.1999999999999940e+00 +8.1519125799799177e+00 +0.0000000000000000e+00 +6.1999998728513823e+00 -3.0262377443891278e-02 -5.6440018973958994e-01 +5.6197124818698936e-03
6.2999999999999936e+00 +8.1518772190043141e+00 +0.0000000000000000e+00 +6.2999998665992560e+00 -3.0262536791083948e-02 -5.6440052724842638e-01 +5.6198344863513825e-03
6.3999999999999932e+00 +8.1518412922485215e+00 +0.0000000000000000e+00 +6.3999998601454635e+00 -3.0262688220685199e-02 -5.6440086430460501e-01 +5.6199594110929209e-03
6.4999999999999929e+00 +8.1518047997122025e+00 +0.0000000000000000e+00 +6.4999998534868038e+00 -3.0262831647116472e-02 -5.6440120005275829e-01 +5.6200869978542461e-03
6.5999999999999925e+00 +8.1517677413950231e+00 +0.0000000000000000e+00 +6.5999998466200758e+00 -3.0262966984838897e-02 -5.6440153363746726e-01 +5.6202169883949708e-03
6.6999999999999922e+00 +8.1517301172966494e+00 +0.0000000000000000e+00 +6.6999998395420786e+00 -3.0263094148354951e-02 -5.6440186420325789e-01 +5.6203491244746270e-03
6.7999999999999918e+00 +8.1516919274167510e+00 +0.0000000000000000e+00 +6.7999998322496102e+00 -3.0263213052210629e-02 -5.6440219089460042e-01 +5.6204831478527560e-03
6.8999999999999915e+00 +8.1516531717550009e+00 +0.0000000000000000e+00 +6.8999998247394698e+00 -3.0263323610997234e-02 -5.6440251285590570e-01 +5.6206188002889549e-03
6.9999999999999911e+00 +8.1516138503110795e+00 +0.0000000000000000e+00 +6.9999998170084563e+00 -3.0263425739353315e-02 -5.6440282923152352e-01 +5.6207558235429576e-03
7.0999999999999908e+00 +8.1515739630846689e+00 +0.0000000000000000e+00 +7.0999998090533687e+00 -3.0263519351966663e-02 -5.6440313916573970e-01 +5.6208939593746995e-03
7.1999999999999904e+00 +8.1515335100754616e+00 +0.0000000000000000e+00 +7.1999998008710051e+00 -3.0263604363576172e-02 -5.6440344180277446e-01 +5.6210329495443813e-03
7.2999999999999901e+00 +8.1514924912831539e+00 +0.0000000000000000e+00 +7.2999997924581645e+00 -3.0263680688973831e-02 -5.6440373628677909e-01 +5.6211725358125408e-03
7.3999999999999897e+00 +8.1514509067074528e+00 +0.0000000000000000e+00 +7.3999997838116460e+00 -3.0263748243006566e-02 -5.6440402176183480e-01 +5.6213124599401127e-03
7.4999999999999893e+00 +8.1514087563480739e+00 +0.0000000000000000e+00 +7.4999997749282485e+00 -3.0263806940578269e-02 -5.6440429737194908e-01 +5.6214524636885093e-03
7.5999999999999890e+00 +8.1513660402047421e+00 +0.0000000000000000e+00 +7.5999997658047702e+00 -3.0263856696651631e-02 -5.6440456226105429e-01 +5.6215922888196764e-03
7.6999999999999886e+00 +8.1513227582771943e+00 +0.0000000000000000e+00 +7.6999997564380100e+00 -3.0263897426250141e-02 -5.6440481557300493e-01 +5.6217316770961652e-03
7.7999999999999883e+00 +8.1512789105651766e+00 +0.0000000000000000e+00 +7.7999997468247670e+00 -3.0263929044459993e-02 -5.6440505645157446e-01 +5.6218703702811974e-03
7.8999999999999879e+00 +8.1512344970684492e+00 +0.0000000000000000e+00 +7.8999997369618393e+00 -3.0263951466431981e-02 -5.6440528404045565e-01 +5.6220081101387362e-03
7.9999999999999876e+00 +8.1511895177867864e+00 +0.0000000000000000e+00 +7.9999997268460268e+00 -3.0263964607383478e-02 -5.6440549748325430e-01 +5.6221446384335499e-03
8.0999999999999872e+00 +8.1511439727199750e+00 +0.0000000000000000e+00 +8.0999997164741266e+00 -3.0263968636885737e-02 -5.6440569628178461e-01 +5.6222797483048478e-03
8.1999999999999869e+00 +8.1510978618678163e+00 +0.0000000000000000e+00 +8.1999997058429397e+00 -3.0263964741700899e-02 -5.6440588137099634e-01 +5.6224134383915424e-03
8.2999999999999865e+00 +8.1510511852301271e+00 +0.0000000000000000e+00 +8.2999996949492640e+00 -3.0263954362870073e-02 -5.6440605404414390e-01 +5.6225457587157244e-03
8.3999999999999861e+00 +8.1510039428067351e+00 +0.0000000000000000e+00 +8.3999996837898969e+00 -3.0263938941415786e-02 -5.6440621559449566e-01 +5.6226767593092726e-03
8.4999999999999858e+00 +8.1509561345974806e+00 +0.0000000000000000e+00 +8.4999996723616391e+00 -3.0263919918341042e-02 -5.6440636731533322e-01 +5.6228064902141793e-03
8.5999999999999854e+00 +8.1509077606022124e+00 +0.0000000000000000e+00 +8.5999996606612878e+00 -3.0263898734628609e-02 -5.6440651049995438e-01 +5.6229350014828606e-03
8.6999999999999851e+00 +8.1508588208207886e+00 +0.0000000000000000e+00 +8.6999996486856421e+00 -3.0263876831240138e-02 -5.6440664644167271e-01 +5.6230623431784898e-03
8.7999999999999847e+00 +8.1508093152530741e+00 +0.0000000000000000e+00 +8.7999996364315010e+00 -3.0263855649115448e-02 -5.6440677643381798e-01 +5.6231885653753267e-03
8.8999999999999844e+00 +8.1507592438989409e+00 +0.0000000000000000e+00 +8.8999996238956651e+00 -3.0263836629171651e-02 -5.6440690176973840e-01 +5.6233137181590257e-03
8.9999999999999840e+00 +8.1507086067582630e+00 +0.0000000000000000e+00 +8.9999996110749301e+00 -3.0263821212302328e-02 -5.6440702374279961e-01 +5.6234378516269749e-03
9.0999999999999837e+00 +8.1506574038309214e+00 +0.0000000000000000e+00 +9.0999995979660966e+00 -3.0263810839376810e-02 -5.6440714364638755e-01 +5.6235610158886177e-03
9.1999999999999833e+00 +8.1506056351167970e+00 +0.0000000000000000e+00 +9.1999995845659637e+00 -3.0263806951239293e-02 -5.6440726277390729e-01 +5.6236832610657662e-03
9.2999999999999829e+00 +8.1505533006157727e+00 +0.0000000000000000e+00 +9.2999995708713286e+00 -3.0263810988708065e-02 -5.6440738241878508e-01 +5.6238046372929385e-03
9.3999999999999826e+00 +8.1505004003277293e+00 +0.0000000000000000e+00 +9.3999995568789920e+00 -3.0263824392574676e-02 -5.6440750387446970e-01 +5.6239251947176779e-03
9.4999999999999822e+00 +8.1504469342525461e+00 +0.0000000000000000e+00 +9.4999995425857513e+00 -3.0263848603603188e-02 -5.6440762843443060e-01 +5.6240449835008727e-03
9.5999999999999819e+00 +8.1503929023901005e+00 +0.0000000000000000e+00 +9.5999995279884054e+00 -3.0263885062529260e-02 -5.6440775739216198e-01 +5.6241640538170923e-03
9.6999999999999815e+00 +8.1503383047402647e+00 +0.0000000000000000e+00 +9.6999995130837533e+00 -3.0263935210059482e-02 -5.6440789204118236e-01 +5.6242824558548985e-03
9.7999999999999812e+00 +8.1502831413029053e+00 +0.0000000000000000e+00 +9.7999994978685940e+00 -3.0264000486870425e-02 -5.6440803367503400e-01 +5.6244002398171721e-03
9.8999999999999808e+00 +8.1502274120778821e+00 +0.0000000000000000e+00 +9.8999994823397266e+00 -3.0264082333607938e-02 -5.6440818358728584e-01 +5.6245174559214472e-03
9.9999999999999805e+00 +8.1501711170650459e+00 +0.0000000000000000e+00 +9.9999994664939500e+00 -3.0264182190886287e-02 -5.6440834307153365e-01 +5.6246341544002260e-03
1.0099999999999980e+01 +8.1501142562642386e+00 +0.0000000000000000e+00 +1.0099999450328061e+01 -3.0264300932828919e-02 -5.6440851327041475e-01 +5.6247503803890956e-03
1.0199999999999980e+01 +8.1500568296752913e+00 +0.0000000000000000e+00 +1.0199999433838862e+01 -3.0264437167661432e-02 -5.6440869472265154e-01 +5.6248661585814172e-03
1.0299999999999979e+01 +8.1499988372980248e+00 +0.0000000000000000e+00 +1.0299999417023148e+01 -3.0264588937113646e-02 -5.6440888781602028e-01 +5.6249815085499524e-03
1.0399999999999979e+01 +8.1499402791322471e+00 +0.0000000000000000e+00 +1.0399999399877720e+01 -3.0264754282897058e-02 -5.6440909293834285e-01 +5.6250964498567825e-03
1.0499999999999979e+01 +8.1498811551777539e+00 +0.0000000000000000e+00 +1.0499999382399375e+01 -3.0264931246704416e-02 -5.6440931047748855e-01 +5.6252110020529851e-03
1.0599999999999978e+01 +8.1498214654343304e+00 +0.0000000000000000e+00 +1.0599999364584912e+01 -3.0265117870209367e-02 -5.6440954082137473e-01 +5.6253251846783191e-03
1.0699999999999978e+01 +8.1497612099017456e+00 +0.0000000000000000e+00 +1.0699999346431131e+01 -3.0265312195066021e-02 -5.6440978435796829e-01 +5.6254390172609057e-03
1.0799999999999978e+01 +8.1497003885797579e+00 +0.0000000000000000e+00 +1.0799999327934829e+01 -3.0265512262908547e-02 -5.6441004147528695e-01 +5.6255525193169217e-03
1.0899999999999977e+01 +8.1496390014681133e+00 +0.0000000000000000e+00 +1.0899999309092808e+01 -3.0265716115350789e-02 -5.6441031256140017e-01 +5.6256657103502510e-03
1.0999999999999977e+01 +8.1495770485665400e+00 +0.0000000000000000e+00 +1.0999999289901861e+01 -3.0265921793985868e-02 -5.6441059800443094e-01 +5.6257786098522092e-03
1.1099999999999977e+01 +8.1495145298747538e+00 +0.0000000000000000e+00 +1.1099999270358792e+01 -3.0266127340385803e-02 -5.6441089819255552e-01 +5.6258912373011874e-03
1.1199999999999976e+01 +8.1494514453924563e+00 +0.0000000000000000e+00 +1.1199999250460397e+01 -3.0266330796101051e-02 -5.6441121351400636e-01 +5.6260036121623530e-03
1.1299999999999976e+01 +8.1493877951193330e+00 +0.0000000000000000e+00 +1.1299999230203476e+01 -3.0266530202660187e-02 -5.6441154435707241e-01 +5.6261157538873363e-03
1.1399999999999975e+01 +8.1493235790550553e+00 +0.0000000000000000e+00 +1.1399999209584825e+01 -3.0266723601569429e-02 -5.6441189111009993e-01 +5.6262276819138927e-03
1.1499999999999975e+01 +8.1492587971992769e+00 +0.0000000000000000e+00 +1.1499999188601246e+01 -3.0266909034312339e-02 -5.6441225416149454e-01 +5.6263394156656028e-03
1.1599999999999975e+01 +8.1491934495516354e+00 +0.0000000000000000e+00 +1.1599999167249536e+01 -3.0267084542349332e-02 -5.6441263389972185e-01 +5.6264509745515513e-03
1.1699999999999974e+01 +8.1491275361117523e+00 +0.0000000000000000e+00 +1.1699999145526492e+01 -3.0267248167117330e-02 -5.6441303071330895e-01 +5.6265623779659943e-03
1.1799999999999974e+01 +8.1490610568792334e+00 +0.0000000000000000e+00 +1.1799999123428915e+01 -3.0267397950029393e-02 -5.6441344499084511e-01 +5.6266736452880630e-03
