# field on trajectory
# s[mm] rx[mm] ry[mm] rz[mm] bx[T] by[T] bz[T]
0.0000000000000000e+00 +7.9199999999999999e+00 +0.0000000000000000e+00 +0.0000000000000000e+00 -2.7707844148385674e-02 -5.3862633205875965e-01 +5.3789003948478339e-03
-1.0000000000000001e-01 +7.9199997169072107e+00 +0.0000000000000000e+00 -9.9999999999465725e-02 -2.7707732990531329e-02 -5.3862642236947789e-01 +5.3788793580082485e-03
-2.0000000000000001e-01 +7.9199988676287845e+00 +0.0000000000000000e+00 -1.9999999999572579e-01 -2.7707617905003510e-02 -5.3862649031723508e-01 +5.3788583343161401e-03
-3.0000000000000004e-01 +7.9199974521646492e+00 +0.0000000000000000e+00 -2.9999999998557453e-01 -2.7707498706605126e-02 -5.3862653771426827e-01 +5.3788373693678341e-03
-4.0000000000000002e-01 +7.9199954705147553e+00 +0.0000000000000000e+00 -3.9999999996580626e-01 -2.7707375210136616e-02 -5.3862656637283557e-01 +5.3788165087591700e-03
-5.0000000000000000e-01 +7.9199929226790724e+00 +0.0000000000000000e+00 -4.9999999993321531e-01 -2.7707247230396519e-02 -5.3862657810521153e-01 +5.3787957980855009e-03
-5.9999999999999998e-01 +7.9199898086575882e+00 +0.0000000000000000e+00 -5.9999999988459607e-01 -2.7707114582181891e-02 -5.3862657472368236e-01 +5.3787752829416420e-03
-6.9999999999999996e-01 +7.9199861284503061e+00 +0.0000000000000000e+00 -6.9999999981674288e-01 -2.7706977080288742e-02 -5.3862655804054038e-01 +5.3787550089218449e-03
-7.9999999999999993e-01 +7.9199818820572441e+00 +0.0000000000000000e+00 -7.9999999972644997e-01 -2.7706834539512552e-02 -5.3862652986807980e-01 +5.3787350216197632e-03
-8.9999999999999991e-01 +7.9199770694784313e+00 +0.0000000000000000e+00 -8.9999999961051180e-01 -2.7706686774648680e-02 -5.3862649201859147e-01 +5.3787153666284152e-03
-9.9999999999999989e-01 +7.9199716907139077e+00 +0.0000000000000000e+00 -9.9999999946572271e-01 -2.7706533600492873e-02 -5.3862644630435708e-01 +5.3786960895401657e-03
-1.0999999999999999e+00 +7.9199657457637214e+00 +0.0000000000000000e+00 -1.0999999992888769e+00 -2.7706374831841653e-02 -5.3862639453764616e-01 +5.3786772359466738e-03
-1.2000000000000000e+00 +7.9199592346279264e+00 +0.0000000000000000e+00 -1.1999999990767689e+00 -2.7706210283492846e-02 -5.3862633853070885e-01 +5.3786588514388792e-03
-1.3000000000000000e+00 +7.9199521573065823e+00 +0.0000000000000000e+00 -1.2999999988261930e+00 -2.7706039770246008e-02 -5.3862628009577229e-01 +5.3786409816069507e-03
-1.4000000000000001e+00 +7.9199445137997495e+00 +0.0000000000000000e+00 -1.3999999985339433e+00 -2.7705863106902890e-02 -5.3862622104503555e-01 +5.3786236720402714e-03
-1.5000000000000002e+00 +7.9199363041074911e+00 +0.0000000000000000e+00 -1.4999999981968144e+00 -2.7705680108267922e-02 -5.3862616319066470e-01 +5.3786069683273950e-03
-1.6000000000000003e+00 +7.9199275282298673e+00 +0.0000000000000000e+00 -1.5999999978116006e+00 -2.7705490589148625e-02 -5.3862610834478708e-01 +5.3785909160560183e-03
-1.7000000000000004e+00 +7.9199181861669370e+00 +0.0000000000000000e+00 -1.6999999973750963e+00 -2.7705294364356106e-02 -5.3862605831948662e-01 +5.3785755608129412e-03
-1.8000000000000005e+00 +7.9199082779187524e+00 +0.0000000000000000e+00 -1.7999999968840958e+00 -2.7705091248705509e-02 -5.3862601492680018e-01 +5.3785609481840453e-03
-1.9000000000000006e+00 +7.9198978034853589e+00 +0.0000000000000000e+00 -1.8999999963353935e+00 -2.7704881057016472e-02 -5.3862597997871042e-01 +5.3785471237542551e-03
-2.0000000000000004e+00 +7.9198867628667937e+00 +0.0000000000000000e+00 -1.9999999957257837e+00 -2.7704663604113600e-02 -5.3862595528714297e-01 +5.3785341331075024e-03
-2.1000000000000005e+00 +7.9198751560630827e+00 +0.0000000000000000e+00 -2.0999999950520607e+00 -2.7704438989212626e-02 -5.3862594238756656e-01 +5.3785220084257021e-03
-2.2000000000000006e+00 +7.9198629830742400e+00 +0.0000000000000000e+00 -2.1999999943110189e+00 -2.7704208449077818e-02 -5.3862594170983247e-01 +5.3785107282860404e-03
-2.3000000000000007e+00 +7.9198502439002665e+00 +0.0000000000000000e+00 -2.2999999934994526e+00 -2.7703973504864476e-02 -5.3862595340737918e-01 +5.3785002578645427e-03
-2.4000000000000008e+00 +7.9198369385411507e+00 +0.0000000000000000e+00 -2.3999999926141560e+00 -2.7703735677733453e-02 -5.3862597763363296e-01 +5.3784905623372164e-03
-2.5000000000000009e+00 +7.9198230669968677e+00 +0.0000000000000000e+00 -2.4999999916519235e+00 -2.7703496488851412e-02 -5.3862601454200731e-01 +5.3784816068801469e-03
-2.6000000000000010e+00 +7.9198086292673784e+00 +0.0000000000000000e+00 -2.5999999906095499e+00 -2.7703257459391183e-02 -5.3862606428590565e-01 +5.3784733566695454e-03
-2.7000000000000011e+00 +7.9197936253526313e+00 +0.0000000000000000e+00 -2.6999999894838291e+00 -2.7703020110532092e-02 -5.3862612701872270e-01 +5.3784657768818625e-03
-2.8000000000000012e+00 +7.9197780552525607e+00 +0.0000000000000000e+00 -2.7999999882715554e+00 -2.7702785963460343e-02 -5.3862620289384633e-01 +5.3784588326938427e-03
-2.9000000000000012e+00 +7.9197619189670876e+00 +0.0000000000000000e+00 -2.8999999869695232e+00 -2.7702556539369226e-02 -5.3862629206465718e-01 +5.3784524892826098e-03
-3.0000000000000013e+00 +7.9197452164961195e+00 +0.0000000000000000e+00 -2.9999999855745267e+00 -2.7702333359459572e-02 -5.3862639468453277e-01 +5.3784467118257418e-03
-3.1000000000000014e+00 +7.9197279478395481e+00 +0.0000000000000000e+00 -3.0999999840833605e+00 -2.7702117944939993e-02 -5.3862651090684699e-01 +5.3784414655013548e-03
-3.2000000000000015e+00 +7.9197101129972518e+00 +0.0000000000000000e+00 -3.1999999824928191e+00 -2.7701911817027285e-02 -5.3862664088497281e-01 +5.3784367154881794e-03
-3.3000000000000016e+00 +7.9196917119690946e+00 +0.0000000000000000e+00 -3.2999999807996963e+00 -2.7701716496946679e-02 -5.3862678477228287e-01 +5.3784324269656346e-03
-3.4000000000000017e+00 +7.9196727447549264e+00 +0.0000000000000000e+00 -3.3999999790007864e+00 -2.7701533505932251e-02 -5.3862694272215150e-01 +5.3784285651139099e-03
-3.5000000000000018e+00 +7.9196532113545812e+00 +0.0000000000000000e+00 -3.4999999770928842e+00 -2.7701364365227167e-02 -5.3862711488795600e-01 +5.3784250951140408e-03
-3.6000000000000019e+00 +7.9196331117678787e+00 +0.0000000000000000e+00 -3.5999999750727838e+00 -2.7701210596084054e-02 -5.3862730142307846e-01 +5.3784219821479884e-03
-3.7000000000000020e+00 +7.9196124459946233e+00 +0.0000000000000000e+00 -3.6999999729372792e+00 -2.7701073719765382e-02 -5.3862750248090674e-01 +5.3784191913987256e-03
-3.8000000000000020e+00 +7.9195912140346048e+00 +0.0000000000000000e+00 -3.7999999706831651e+00 -2.7700955257543652e-02 -5.3862771821483635e-01 +5.3784166880502951e-03
-3.9000000000000021e+00 +7.9195694158875964e+00 +0.0000000000000000e+00 -3.8999999683072355e+00 -2.7700856730701856e-02 -5.3862794877827147e-01 +5.3784144372879062e-03
-4.0000000000000018e+00 +7.9195470515533568e+00 +0.0000000000000000e+00 -3.9999999658062846e+00 -2.7700779660533737e-02 -5.3862819432462716e-01 +5.3784124042980082e-03
-4.1000000000000014e+00 +7.9195241210316292e+00 +0.0000000000000000e+00 -4.0999999631771065e+00 -2.7700725090561630e-02 -5.3862845480515187e-01 +5.3784105603815625e-03
-4.2000000000000011e+00 +7.9195006243221400e+00 +0.0000000000000000e+00 -4.1999999604164957e+00 -2.7700692153175156e-02 -5.3862872936240880e-01 +5.3784089012931168e-03
-4.3000000000000007e+00 +7.9194765614246014e+00 +0.0000000000000000e+00 -4.2999999575212469e+00 -2.7700679502957778e-02 -5.3862901693683207e-01 +5.3784074289000656e-03
-4.4000000000000004e+00 +7.9194519323387116e+00 +0.0000000000000000e+00 -4.3999999544881536e+00 -2.7700685794465538e-02 -5.3862931646891565e-01 +5.3784061450692739e-03
-4.5000000000000000e+00 +7.9194267370641569e+00 +0.0000000000000000e+00 -4.4999999513140105e+00 -2.7700709682225145e-02 -5.3862962689921412e-01 +5.3784050516670137e-03
-4.5999999999999996e+00 +7.9194009756006123e+00 +0.0000000000000000e+00 -4.5999999479956122e+00 -2.7700749820732125e-02 -5.3862994716834756e-01 +5.3784041505589367e-03
-4.6999999999999993e+00 +7.9193746479477420e+00 +0.0000000000000000e+00 -4.6999999445297522e+00 -2.7700804864448959e-02 -5.3863027621700643e-01 +5.3784034436100379e-03
-4.7999999999999989e+00 +7.9193477541052006e+00 +0.0000000000000000e+00 -4.7999999409132243e+00 -2.7700873467803196e-02 -5.3863061298595283e-01 +5.3784029326846032e-03
-4.8999999999999986e+00 +7.9193202940726355e+00 +0.0000000000000000e+00 -4.8999999371428240e+00 -2.7700954285185635e-02 -5.3863095641602721e-01 +5.3784026196461903e-03
-4.9999999999999982e+00 +7.9192922678496869e+00 +0.0000000000000000e+00 -4.9999999332153449e+00 -2.7701045970948371e-02 -5.3863130544814997e-01 +5.3784025063575748e-03
-5.0999999999999979e+00 +7.9192636754359880e+00 +0.0000000000000000e+00 -5.0999999291275806e+00 -2.7701147179403026e-02 -5.3863165902332633e-01 +5.3784025946807135e-03
-5.1999999999999975e+00 +7.9192345168311684e+00 +0.0000000000000000e+00 -5.1999999248763258e+00 -2.7701256564818841e-02 -5.3863201608264977e-01 +5.3784028864767167e-03
-5.2999999999999972e+00 +7.9192047920348543e+00 +0.0000000000000000e+00 -5.2999999204583750e+00 -2.7701372781420753e-02 -5.3863237556730525e-01 +5.3784033836057855e-03
-5.3999999999999968e+00 +7.9191745010466690e+00 +0.0000000000000000e+00 -5.3999999158705219e+00 -2.7701494483387670e-02 -5.3863273641857479e-01 +5.3784040879272096e-03
-5.4999999999999964e+00 +7.9191436438662333e+00 +0.0000000000000000e+00 -5.4999999111095601e+00 -2.7701620324850448e-02 -5.3863309757783917e-01 +5.3784050012992864e-03
-5.5999999999999961e+00 +7.9191122204931697e+00 +0.0000000000000000e+00 -5.5999999061722843e+00 -2.7701748959890145e-02 -5.3863345798658313e-01 +5.3784061255793122e-03
-5.6999999999999957e+00 +7.9190802309270998e+00 +0.0000000000000000e+00 -5.6999999010554889e+00 -2.7701879042536071e-02 -5.3863381658639820e-01 +5.3784074626235289e-03
-5.7999999999999954e+00 +7.9190476751676480e+00 +0.0000000000000000e+00 -5.7999998957559677e+00 -2.7702009226764007e-02 -5.3863417231898736e-01 +5.3784090142870973e-03
-5.8999999999999950e+00 +7.9190145532144411e+00 +0.0000000000000000e+00 -5.8999998902705153e+00 -2.7702138166494247e-02 -5.3863452412616830e-01 +5.3784107824240346e-03
-5.9999999999999947e+00 +7.9189808650671107e+00 +0.0000000000000000e+00 -5.9999998845959253e+00 -2.7702264515589839e-02 -5.3863487094987739e-01 +5.3784127688872039e-03
-6.0999999999999943e+00 +7.9189466107252935e+00 +0.0000000000000000e+00 -6.0999998787289922e+00 -2.7702387056885838e-02 -5.3863521198108388e-01 +5.3784149847547627e-03
-6.1999999999999940e+00 +7.9189117901886323e+00 +0.0000000000000000e+00 -6.1999998726665098e+00 -2.7702505089318669e-02 -5.3863554740646347e-01 +5.3784174780103500e-03
-6.2999999999999936e+00 +7.9188764034567756e+00 +0.0000000000000000e+00 -6.2999998664052717e+00 -2.7702618040894182e-02 -5.3863587766154930e-01 +5.3784203058644441e-03
-6.3999999999999932e+00 +7.9188404505293768e+00 +0.0000000000000000e+00 -6.3999998599420733e+00 -2.7702725339666737e-02 -5.3863620318179983e-01 +5.3784235255279417e-03
-6.4999999999999929e+00 +7.9188039314060950e+00 +0.0000000000000000e+00 -6.4999998532737076e+00 -2.7702826413741676e-02 -5.3863652440259380e-01 +5.3784271942121905e-03
-6.5999999999999925e+00 +7.9187668460865943e+00 +0.0000000000000000e+00 -6.5999998463969689e+00 -2.7702920691277878e-02 -5.3863684175922699e-01 +5.3784313691290263e-03
-6.6999999999999922e+00 +7.9187291945705418e+00 +0.0000000000000000e+00 -6.6999998393086519e+00 -2.7703007600490177e-02 -5.3863715568690740e-01 +5.3784361074907926e-03
-6.7999999999999918e+00 +7.9186909768576079e+00 +0.0000000000000000e+00 -6.7999998320055504e+00 -2.7703086569651938e-02 -5.3863746662075174e-01 +5.3784414665103697e-03
-6.8999999999999915e+00 +7.9186521929474685e+00 +0.0000000000000000e+00 -6.8999998244844578e+00 -2.7703157027097455e-02 -5.3863777499577992e-01 +5.3784475034012050e-03
-6.9999999999999911e+00 +7.9186128428397993e+00 +0.0000000000000000e+00 -6.9999998167421689e+00 -2.7703218401224514e-02 -5.3863808124691170e-01 +5.3784542753773437e-03
-7.0999999999999908e+00 +7.9185729265342806e+00 +0.0000000000000000e+00 -7.0999998087754781e+00 -2.7703270120496868e-02 -5.3863838580896284e-01 +5.3784618396534572e-03
-7.1999999999999904e+00 +7.9185324440305926e+00 +0.0000000000000000e+00 -7.1999998005811783e+00 -2.7703311613446725e-02 -5.3863868911663948e-01 +5.3784702534448664e-03
-7.2999999999999901e+00 +7.9184913953284184e+00 +0.0000000000000000e+00 -7.2999997921560649e+00 -2.7703342308677246e-02 -5.3863899160453566e-01 +5.3784795739675786e-03
-7.3999999999999897e+00 +7.9184497804274407e+00 +0.0000000000000000e+00 -7.3999997834969307e+00 -2.7703361634865035e-02 -5.3863929370712771e-01 +5.3784898584383102e-03
-7.4999999999999893e+00 +7.9184075993273435e+00 +0.0000000000000000e+00 -7.4999997746005711e+00 -2.7703369020762651e-02 -5.3863959585877086e-01 +5.3785011640745169e-03
-7.5999999999999890e+00 +7.9183648520278114e+00 +0.0000000000000000e+00 -7.5999997654637790e+00 -2.7703363895201057e-02 -5.3863989849369409e-01 +5.3785135480944263e-03
-7.6999999999999886e+00 +7.9183215385285264e+00 +0.0000000000000000e+00 -7.6999997560833489e+00 -2.7703345687092172e-02 -5.3864020204599727e-01 +5.3785270677170604e-03
-7.7999999999999883e+00 +7.9182776588291715e+00 +0.0000000000000000e+00 -7.7999997464560744e+00 -2.7703313825431342e-02 -5.3864050694964594e-01 +5.3785417801622722e-03
-7.8999999999999879e+00 +7.9182332129294268e+00 +0.0000000000000000e+00 -7.8999997365787502e+00 -2.7703267739299819e-02 -5.3864081363846694e-01 +5.3785577426507672e-03
-7.9999999999999876e+00 +7.9181882008289719e+00 +0.0000000000000000e+00 -7.9999997264481699e+00 -2.7703206857867254e-02 -5.3864112254614471e-01 +5.3785750124041342e-03
-8.0999999999999872e+00 +7.9181426225274834e+00 +0.0000000000000000e+00 -8.0999997160611272e+00 -2.7703130857012138e-02 -5.3864143423823674e-01 +5.3785936391489561e-03
-8.1999999999999869e+00 +7.9180964780246352e+00 +0.0000000000000000e+00 -8.1999997054144167e+00 -2.7703040399139955e-02 -5.3864174980827650e-01 +5.3786136426307992e-03
-8.2999999999999865e+00 +7.9180497673200962e+00 +0.0000000000000000e+00 -8.2999996945048338e+00 -2.7702936393245496e-02 -5.3864207048178958e-01 +5.3786350351057027e-03
-8.3999999999999861e+00 +7.9180024904135315e+00 +0.0000000000000000e+00 -8.3999996833291704e+00 -2.7702819748277912e-02 -5.3864239748428311e-01 +5.3786578288369039e-03
-8.4999999999999858e+00 +7.9179546473045983e+00 +0.0000000000000000e+00 -8.4999996718842201e+00 -2.7702691373138931e-02 -5.3864273204124613e-01 +5.3786820360950697e-03
-8.5999999999999854e+00 +7.9179062379929466e+00 +0.0000000000000000e+00 -8.5999996601667785e+00 -2.7702552176681095e-02 -5.3864307537814804e-01 +5.3787076691584933e-03
-8.6999999999999851e+00 +7.9178572624782175e+00 +0.0000000000000000e+00 -8.6999996481736392e+00 -2.7702403067706112e-02 -5.3864342872044080e-01 +5.3787347403133198e-03
-8.7999999999999847e+00 +7.9178077207600399e+00 +0.0000000000000000e+00 -8.7999996359015960e+00 -2.7702244954962995e-02 -5.3864379329355694e-01 +5.3787632618537513e-03
-8.8999999999999844e+00 +7.9177576128380327e+00 +0.0000000000000000e+00 -8.8999996233474423e+00 -2.7702078747146360e-02 -5.3864417032290979e-01 +5.3787932460822550e-03
-8.9999999999999840e+00 +7.9177069387118015e+00 +0.0000000000000000e+00 -8.9999996105079720e+00 -2.7701905352894723e-02 -5.3864456103389424e-01 +5.3788247053097914e-03
-9.0999999999999837e+00 +7.9176556983809361e+00 +0.0000000000000000e+00 -9.0999995973799805e+00 -2.7701725680788693e-02 -5.3864496665188577e-01 +5.3788576518560109e-03
-9.1999999999999833e+00 +7.9176038918450127e+00 +0.0000000000000000e+00 -9.1999995839602597e+00 -2.7701540639349272e-02 -5.3864538840224119e-01 +5.3788920980494806e-03
-9.2999999999999829e+00 +7.9175515191035881e+00 +0.0000000000000000e+00 -9.2999995702456051e+00 -2.7701351137036076e-02 -5.3864582751029744e-01 +5.3789280562278833e-03
-9.3999999999999826e+00 +7.9174985801562032e+00 +0.0000000000000000e+00 -9.3999995562328102e+00 -2.7701158082245617e-02 -5.3864628520137203e-01 +5.3789655387382410e-03
-9.4999999999999822e+00 +7.9174450750023793e+00 +0.0000000000000000e+00 -9.4999995419186689e+00 -2.7700962383309539e-02 -5.3864676270076373e-01 +5.3790045579371242e-03
-9.5999999999999819e+00 +7.9173910036416144e+00 +0.0000000000000000e+00 -9.5999995272999747e+00 -2.7700764948492891e-02 -5.3864726123375117e-01 +5.3790451261908692e-03
-9.6999999999999815e+00 +7.9173363660733873e+00 +0.0000000000000000e+00 -9.6999995123735214e+00 -2.7700566685992356e-02 -5.3864778202559338e-01 +5.3790872558757852e-03
-9.7999999999999812e+00 +7.9172811622971517e+00 +0.0000000000000000e+00 -9.7999994971361026e+00 -2.7700368503934533e-02 -5.3864832630152992e-01 +5.3791309593783703e-03
-9.8999999999999808e+00 +7.9172253923123375e+00 +0.0000000000000000e+00 -9.8999994815845120e+00 -2.7700171310374146e-02 -5.3864889528678006e-01 +5.3791762490955249e-03
-9.9999999999999805e+00 +7.9171690561183476e+00 +0.0000000000000000e+00 -9.9999994657155433e+00 -2.7699976013292386e-02 -5.3864949020654340e-01 +5.3792231374347700e-03
-1.0099999999999980e+01 +7.9171121537145597e+00 +0.0000000000000000e+00 -1.0099999449525990e+01 -2.7699783417225649e-02 -5.3865011171568367e-01 +5.3792716312764171e-03
-1.0199999999999980e+01 +7.9170546851003207e+00 +0.0000000000000000e+00 -1.0199999433012648e+01 -2.7699593913191687e-02 -5.3865075818777874e-01 +5.3793217153496921e-03
-1.0299999999999979e+01 +7.9169966502749540e+00 +0.0000000000000000e+00 -1.0299999416172309e+01 -2.7699407788875460e-02 -5.3865142742614269e-01 +5.3793733688300895e-03
-1.0399999999999979e+01 +7.9169380492377588e+00 +0.0000000000000000e+00 -1.0399999399001766e+01 -2.7699225332013806e-02 -5.3865211723416917e-01 +5.3794265708747057e-03
-1.0499999999999979e+01 +7.9168788819880112e+00 +0.0000000000000000e+00 -1.0499999381497814e+01 -2.7699046830396819e-02 -5.3865282541533566e-01 +5.3794813006217438e-03
-1.0599999999999978e+01 +7.9168191485249695e+00 +0.0000000000000000e+00 -1.0599999363657245e+01 -2.7698872571869280e-02 -5.3865354977320368e-01 +5.3795375371900140e-03
-1.0699999999999978e+01 +7.9167588488478735e+00 +0.0000000000000000e+00 -1.0699999345476854e+01 -2.7698702844332002e-02 -5.3865428811142213e-01 +5.3795952596784264e-03
-1.0799999999999978e+01 +7.9166979829559496e+00 +0.0000000000000000e+00 -1.0799999326953435e+01 -2.7698537935743322e-02 -5.3865503823373029e-01 +5.3796544471654949e-03
-1.0899999999999977e+01 +7.9166365508484118e+00 +0.0000000000000000e+00 -1.0899999308083780e+01 -2.7698378134120412e-02 -5.3865579794395779e-01 +5.3797150787088252e-03
-1.0999999999999977e+01 +7.9165745525244633e+00 +0.0000000000000000e+00 -1.0999999288864684e+01 -2.7698223727540727e-02 -5.3865656504602999e-01 +5.3797771333446310e-03
-1.1099999999999977e+01 +7.9165119879833004e+00 +0.0000000000000000e+00 -1.1099999269292940e+01 -2.7698075004143390e-02 -5.3865733734396781e-01 +5.3798405900872094e-03
-1.1199999999999976e+01 +7.9164488572241130e+00 +0.0000000000000000e+00 -1.1199999249365341e+01 -2.7697932252130616e-02 -5.3865811264189112e-01 +5.3799054279284548e-03
-1.1299999999999976e+01 +7.9163851602460884e+00 +0.0000000000000000e+00 -1.1299999229078681e+01 -2.7697795759769071e-02 -5.3865888874402112e-01 +5.3799716258373471e-03
-1.1399999999999975e+01 +7.9163208970484131e+00 +0.0000000000000000e+00 -1.1399999208429753e+01 -2.7697665815391327e-02 -5.3865966345468264e-01 +5.3800391627594566e-03
-1.1499999999999975e+01 +7.9162560676302753e+00 +0.0000000000000000e+00 -1.1499999187415350e+01 -2.7697542707397188e-02 -5.3866043457830548e-01 +5.3801080176164376e-03
-1.1599999999999975e+01 +7.9161906719908659e+00 +0.0000000000000000e+00 -1.1599999166032266e+01 -2.7697426724255153e-02 -5.3866119991942840e-01 +5.3801781693055203e-03
-1.1699999999999974e+01 +7.9161247101293837e+00 +0.0000000000000000e+00 -1.1699999144277294e+01 -2.7697318154503794e-02 -5.3866195728269983e-01 +5.3802495966990115e-03
