# field on trajectory
# s[mm] rx[mm] ry[mm] rz[mm] bx[T] by[T] bz[T]
0.0000000000000000e+00 +8.1530000000000094e+00 +0.0000000000000000e+00 +0.0000000000000000e+00 -2.8426373577739854e-02 -5.3638731668147976e-01 +5.3323321229521176e-03
1.0000000000000001e-01 +8.1529997163925092e+00 +0.0000000000000000e+00 +9.9999999999463796e-02 -2.8426486005720467e-02 -5.3638727114007712e-01 +5.3322839823269023e-03
2.0000000000000001e-01 +8.1529988655711296e+00 +0.0000000000000000e+00 +1.9999999999571000e-01 -2.8426603720606711e-02 -5.3638722620321833e-01 +5.3322353600279175e-03
2.9999999999999999e-01 +8.1529974475415692e+00 +0.0000000000000000e+00 +2.9999999998552201e-01 -2.8426725928525440e-02 -5.3638718327184476e-01 +5.3321864204413250e-03
4.0000000000000002e-01 +8.1529954622965306e+00 +0.0000000000000000e+00 +3.9999999996568197e-01 -2.8426851835611822e-02 -5.3638714374698415e-01 +5.3321373279556017e-03
5.0000000000000000e-01 +8.1529929098396696e+00 +0.0000000000000000e+00 +4.9999999993297300e-01 -2.8426980647998087e-02 -5.3638710902957187e-01 +5.3320882469599052e-03
5.9999999999999998e-01 +8.1529897901673394e+00 +0.0000000000000000e+00 +5.9999999988417696e-01 -2.8427111571818764e-02 -5.3638708052058715e-01 +5.3320393418456241e-03
6.9999999999999996e-01 +8.1529861032831796e+00 +0.0000000000000000e+00 +6.9999999981607697e-01 -2.8427243813203169e-02 -5.3638705962094502e-01 +5.3319907770054496e-03
8.0000000000000004e-01 +8.1529818491871993e+00 +0.0000000000000000e+00 +7.9999999972545699e-01 -2.8427376578277701e-02 -5.3638704773157675e-01 +5.3319427168343706e-03
9.0000000000000002e-01 +8.1529770278793894e+00 +0.0000000000000000e+00 +8.9999999960909804e-01 -2.8427509073162573e-02 -5.3638704625340283e-01 +5.3318953257295689e-03
1.0000000000000000e+00 +8.1529716393597500e+00 +0.0000000000000000e+00 +9.9999999946378304e-01 -2.8427640503969950e-02 -5.3638705658733365e-01 +5.3318487680905878e-03
1.1000000000000001e+00 +8.1529656836210105e+00 +0.0000000000000000e+00 +1.0999999992862901e+00 -2.8427770076804925e-02 -5.3638708013432224e-01 +5.3318032083200630e-03
1.2000000000000000e+00 +8.1529591606740706e+00 +0.0000000000000000e+00 +1.1999999990734200e+00 -2.8427896997753586e-02 -5.3638711829517749e-01 +5.3317588108219684e-03
1.3000000000000000e+00 +8.1529520705153100e+00 +0.0000000000000000e+00 +1.2999999988219300e+00 -2.8428020472894031e-02 -5.3638717247080414e-01 +5.3317157400042487e-03
1.3999999999999999e+00 +8.1529444131410909e+00 +0.0000000000000000e+00 +1.3999999985286200e+00 -2.8428139708288776e-02 -5.3638724406209726e-01 +5.3316741602779018e-03
1.5000000000000000e+00 +8.1529361885550298e+00 +0.0000000000000000e+00 +1.4999999981902701e+00 -2.8428253909979995e-02 -5.3638733446988673e-01 +5.3316342360566109e-03
1.6000000000000001e+00 +8.1529273967571498e+00 +0.0000000000000000e+00 +1.5999999978036501e+00 -2.8428362283991909e-02 -5.3638744509501912e-01 +5.3315961317577125e-03
1.7000000000000000e+00 +8.1529180377474404e+00 +0.0000000000000000e+00 +1.6999999973655600e+00 -2.8428464036327511e-02 -5.3638757733833009e-01 +5.3315600118021269e-03
1.8000000000000000e+00 +8.1529081115222706e+00 +0.0000000000000000e+00 +1.7999999968727800e+00 -2.8428558372968125e-02 -5.3638773260067174e-01 +5.3315260406147690e-03
1.8999999999999999e+00 +8.1528976180852606e+00 +0.0000000000000000e+00 +1.8999999963220899e+00 -2.8428644499867168e-02 -5.3638791228283167e-01 +5.3314943826239360e-03
2.0000000000000000e+00 +8.1528865574327902e+00 +0.0000000000000000e+00 +1.9999999957102601e+00 -2.8428721622954067e-02 -5.3638811778564033e-01 +5.3314652022625380e-03
2.1000000000000001e+00 +8.1528749295721408e+00 +0.0000000000000000e+00 +2.0999999950340902e+00 -2.8428789176935091e-02 -5.3638835001678364e-01 +5.3314386110914717e-03
2.2000000000000002e+00 +8.1528627344960096e+00 +0.0000000000000000e+00 +2.1999999942903599e+00 -2.8428847511742638e-02 -5.3638860791183762e-01 +5.3314145091731772e-03
2.2999999999999998e+00 +8.1528499722080596e+00 +0.0000000000000000e+00 +2.2999999934758399e+00 -2.8428897206114342e-02 -5.3638888991325895e-01 +5.3313927436921234e-03
2.3999999999999999e+00 +8.1528366427046404e+00 +0.0000000000000000e+00 +2.3999999925873299e+00 -2.8428938838794809e-02 -5.3638919446357569e-01 +5.3313731618305727e-03
2.5000000000000000e+00 +8.1528227459894005e+00 +0.0000000000000000e+00 +2.4999999916215998e+00 -2.8428972988531823e-02 -5.3638952000528395e-01 +5.3313556107668948e-03
2.6000000000000001e+00 +8.1528082820659602e+00 +0.0000000000000000e+00 +2.5999999905754398e+00 -2.8429000234081226e-02 -5.3638986498090446e-01 +5.3313399376755510e-03
2.7000000000000002e+00 +8.1527932509234198e+00 +0.0000000000000000e+00 +2.6999999894456299e+00 -2.8429021154214553e-02 -5.3639022783309309e-01 +5.3313259897275807e-03
2.7999999999999998e+00 +8.1527776525726896e+00 +0.0000000000000000e+00 +2.7999999882289601e+00 -2.8429036327706728e-02 -5.3639060700437435e-01 +5.3313136140873069e-03
2.8999999999999999e+00 +8.1527614870065008e+00 +0.0000000000000000e+00 +2.8999999869222002e+00 -2.8429046333353750e-02 -5.3639100093743985e-01 +5.3313026579147466e-03
3.0000000000000000e+00 +8.1527447542284808e+00 +0.0000000000000000e+00 +2.9999999855221300e+00 -2.8429051749963255e-02 -5.3639140807493801e-01 +5.3312929683628600e-03
3.1000000000000001e+00 +8.1527274542386294e+00 +0.0000000000000000e+00 +3.0999999840255499e+00 -2.8429053156362159e-02 -5.3639182685958231e-01 +5.3312843925780546e-03
3.2000000000000002e+00 +8.1527095870333106e+00 +0.0000000000000000e+00 +3.1999999824292300e+00 -2.8429051131398656e-02 -5.3639225573415550e-01 +5.3312767776995933e-03
3.2999999999999998e+00 +8.1526911526198091e+00 +0.0000000000000000e+00 +3.2999999807299600e+00 -2.8429046253938470e-02 -5.3639269314140436e-01 +5.3312699708579405e-03
3.3999999999999999e+00 +8.1526721509872004e+00 +0.0000000000000000e+00 +3.3999999789245101e+00 -2.8429039102878223e-02 -5.3639313752425799e-01 +5.3312638191763493e-03
3.5000000000000000e+00 +8.1526525821464002e+00 +0.0000000000000000e+00 +3.4999999770096801e+00 -2.8429030257131740e-02 -5.3639358732553533e-01 +5.3312581697672907e-03
3.6000000000000001e+00 +8.1526324460901396e+00 +0.0000000000000000e+00 +3.5999999749822500e+00 -2.8429020295647700e-02 -5.3639404098824273e-01 +5.3312528697348656e-03
3.7000000000000002e+00 +8.1526117428220495e+00 +0.0000000000000000e+00 +3.6999999728389801e+00 -2.8429009797400158e-02 -5.3639449695536345e-01 +5.3312477661720389e-03
3.7999999999999998e+00 +8.1525904723421299e+00 +0.0000000000000000e+00 +3.7999999705766800e+00 -2.8428999341396283e-02 -5.3639495366996626e-01 +5.3312427061611651e-03
3.8999999999999999e+00 +8.1525686346503807e+00 +0.0000000000000000e+00 +3.8999999681921298e+00 -2.8428989506676858e-02 -5.3639540957518383e-01 +5.3312375367731120e-03
4.0000000000000000e+00 +8.1525462297431694e+00 +0.0000000000000000e+00 +3.9999999656820902e+00 -2.8428980872319681e-02 -5.3639586311423892e-01 +5.3312321050669733e-03
4.0999999999999996e+00 +8.1525232576241304e+00 +0.0000000000000000e+00 +4.0999999630433699e+00 -2.8428973993806839e-02 -5.3639631292614764e-01 +5.3312263025290310e-03
4.2000000000000002e+00 +8.1524997182896204e+00 +0.0000000000000000e+00 +4.1999999602727298e+00 -2.8428969332127876e-02 -5.3639675843311851e-01 +5.3312201984001377e-03
4.2999999999999998e+00 +8.1524756117469206e+00 +0.0000000000000000e+00 +4.2999999573669703e+00 -2.8428967324641889e-02 -5.3639719925302409e-01 +5.3312139063628134e-03
4.4000000000000004e+00 +8.1524509379887604e+00 +0.0000000000000000e+00 +4.3999999543228601e+00 -2.8428968408714259e-02 -5.3639763500379523e-01 +5.3312075401044500e-03
4.5000000000000000e+00 +8.1524256970187707e+00 +0.0000000000000000e+00 +4.4999999511372000e+00 -2.8428973021706345e-02 -5.3639806530323186e-01 +5.3312012133158145e-03
4.5999999999999996e+00 +8.1523998888369498e+00 +0.0000000000000000e+00 +4.5999999478067499e+00 -2.8428981600980782e-02 -5.3639848976910587e-01 +5.3311950396926116e-03
4.7000000000000002e+00 +8.1523735134396702e+00 +0.0000000000000000e+00 +4.6999999443283098e+00 -2.8428994583901007e-02 -5.3639890801915613e-01 +5.3311891329358681e-03
4.7999999999999998e+00 +8.1523465708305594e+00 +0.0000000000000000e+00 +4.7999999406986600e+00 -2.8429012407826602e-02 -5.3639931967100485e-01 +5.3311836067515706e-03
4.9000000000000004e+00 +8.1523190610096208e+00 +0.0000000000000000e+00 +4.8999999369145701e+00 -2.8429035510117190e-02 -5.3639972434223326e-01 +5.3311785748518881e-03
5.0000000000000000e+00 +8.1522909839768491e+00 +0.0000000000000000e+00 +4.9999999329728402e+00 -2.8429064328130534e-02 -5.3640012165035245e-01 +5.3311741509553534e-03
5.0999999999999996e+00 +8.1522623397286207e+00 +0.0000000000000000e+00 +5.0999999288702398e+00 -2.8429099299223558e-02 -5.3640051121282406e-01 +5.3311704487875380e-03
5.2000000000000002e+00 +8.1522331282685592e+00 +0.0000000000000000e+00 +5.1999999246035600e+00 -2.8429140860747711e-02 -5.3640089264697810e-01 +5.3311675820806852e-03
5.2999999999999998e+00 +8.1522033495966806e+00 +0.0000000000000000e+00 +5.2999999201695802e+00 -2.8429189450052746e-02 -5.3640126557008716e-01 +5.3311656645749330e-03
5.4000000000000004e+00 +8.1521730037093203e+00 +0.0000000000000000e+00 +5.3999999155650800e+00 -2.8429245504486372e-02 -5.3640162959936388e-01 +5.3311648100187554e-03
5.5000000000000000e+00 +8.1521420906137791e+00 +0.0000000000000000e+00 +5.4999999107868396e+00 -2.8429309461388070e-02 -5.3640198435184927e-01 +5.3311651321683020e-03
5.5999999999999996e+00 +8.1521106102991308e+00 +0.0000000000000000e+00 +5.5999999058316599e+00 -2.8429381758100166e-02 -5.3640232944462363e-01 +5.3311667447899953e-03
5.7000000000000002e+00 +8.1520785627762997e+00 +0.0000000000000000e+00 +5.6999999006963096e+00 -2.8429462831951628e-02 -5.3640266449450713e-01 +5.3311697616579687e-03
5.7999999999999998e+00 +8.1520459480379905e+00 +0.0000000000000000e+00 +5.7999998953775700e+00 -2.8429553120273406e-02 -5.3640298911835016e-01 +5.3311742965574845e-03
5.9000000000000004e+00 +8.1520127660915005e+00 +0.0000000000000000e+00 +5.8999998898722197e+00 -2.8429653060385144e-02 -5.3640330293279015e-01 +5.3311804632829151e-03
5.9999999999999902e+00 +8.1519790169259103e+00 +0.0000000000000000e+00 +5.9999998841770603e+00 -2.8429763089607620e-02 -5.3640360555448674e-01 +5.3311883756406260e-03
6.0999999999999899e+00 +8.1519447005521197e+00 +0.0000000000000000e+00 +6.0999998782888598e+00 -2.8429883355615082e-02 -5.3640389685857193e-01 +5.3311981156177312e-03
6.1999999999999904e+00 +8.1519098169665103e+00 +0.0000000000000000e+00 +6.1999998722044003e+00 -2.8430012847552616e-02 -5.3640417775520988e-01 +5.3312096378945132e-03
6.2999999999999901e+00 +8.1518743661654298e+00 +0.0000000000000000e+00 +6.2999998659204701e+00 -2.8430150264930350e-02 -5.3640444941331633e-01 +5.3312228653220892e-03
6.3999999999999897e+00 +8.1518383481488907e+00 +0.0000000000000000e+00 +6.3999998594338496e+00 -2.8430294307255882e-02 -5.3640471300179726e-01 +5.3312377207498547e-03
6.4999999999999902e+00 +8.1518017629241495e+00 +0.0000000000000000e+00 +6.4999998527413201e+00 -2.8430443674032749e-02 -5.3640496968952067e-01 +5.3312541270251037e-03
6.5999999999999899e+00 +8.1517646104839496e+00 +0.0000000000000000e+00 +6.5999998458396698e+00 -2.8430597064768821e-02 -5.3640522064547980e-01 +5.3312720069945757e-03
6.6999999999999904e+00 +8.1517268908319203e+00 +0.0000000000000000e+00 +6.6999998387256703e+00 -2.8430753178966119e-02 -5.3640546703860903e-01 +5.3312912835024318e-03
6.7999999999999901e+00 +8.1516886039680703e+00 +0.0000000000000000e+00 +6.7999998313961196e+00 -2.8430910716126422e-02 -5.3640571003788884e-01 +5.3313118793912482e-03
6.8999999999999897e+00 +8.1516497498923908e+00 +0.0000000000000000e+00 +6.8999998238477902e+00 -2.8431068375749709e-02 -5.3640595081232356e-01 +5.3313337175016472e-03
6.9999999999999902e+00 +8.1516103286012402e+00 +0.0000000000000000e+00 +6.9999998160774597e+00 -2.8431224857335350e-02 -5.3640619053096816e-01 +5.3313567206724555e-03
7.0999999999999899e+00 +8.1515703400982602e+00 +0.0000000000000000e+00 +7.0999998080819298e+00 -2.8431378860377759e-02 -5.3640643036284952e-01 +5.3313808117397910e-03
7.1999999999999904e+00 +8.1515297843834595e+00 +0.0000000000000000e+00 +7.1999997998579603e+00 -2.8431529084370501e-02 -5.3640667147704879e-01 +5.3314059135377784e-03
7.2999999999999901e+00 +8.1514886614531896e+00 +0.0000000000000000e+00 +7.2999997914023496e+00 -2.8431674228806141e-02 -5.3640691504270277e-01 +5.3314319488984487e-03
7.3999999999999897e+00 +8.1514469713147300e+00 +0.0000000000000000e+00 +7.3999997827118804e+00 -2.8431812993170404e-02 -5.3640716222889750e-01 +5.3314588406505412e-03
7.4999999999999902e+00 +8.1514047139571595e+00 +0.0000000000000000e+00 +7.4999997737833199e+00 -2.8431944076953423e-02 -5.3640741420488480e-01 +5.3314865116215887e-03
7.5999999999999899e+00 +8.1513618893914099e+00 +0.0000000000000000e+00 +7.5999997646134698e+00 -2.8432066179633939e-02 -5.3640767213978868e-01 +5.3315148846348071e-03
7.6999999999999904e+00 +8.1513184976138309e+00 +0.0000000000000000e+00 +7.6999997551991104e+00 -2.8432178000693378e-02 -5.3640793720287550e-01 +5.3315438825117323e-03
7.7999999999999901e+00 +8.1512745386207808e+00 +0.0000000000000000e+00 +7.7999997455370096e+00 -2.8432278239610104e-02 -5.3640821056344656e-01 +5.3315734280710231e-03
7.8999999999999897e+00 +8.1512300124159101e+00 +0.0000000000000000e+00 +7.8999997356239602e+00 -2.8432365595856244e-02 -5.3640849339078800e-01 +5.3316034441278056e-03
7.9999999999999902e+00 +8.1511849189955701e+00 +0.0000000000000000e+00 +7.9999997254567399e+00 -2.8432438768903456e-02 -5.3640878685427806e-01 +5.3316338534946679e-03
8.0999999999999908e+00 +8.1511392583670403e+00 +0.0000000000000000e+00 +8.0999997150321406e+00 -2.8432496837536344e-02 -5.3640909184186170e-01 +5.3316645980559770e-03
8.1999999999999904e+00 +8.1510930305230396e+00 +0.0000000000000000e+00 +8.1999997043469399e+00 -2.8432540397830993e-02 -5.3640940811606874e-01 +5.3316956960002982e-03
8.2999999999999901e+00 +8.1510462354672200e+00 +0.0000000000000000e+00 +8.2999996933979094e+00 -2.8432570425164880e-02 -5.3640973515804891e-01 +5.3317271845954740e-03
8.3999999999999897e+00 +8.1509988731995708e+00 +0.0000000000000000e+00 +8.3999996821818605e+00 -2.8432587894893301e-02 -5.3641007244908678e-01 +5.3317591011144243e-03
8.4999999999999893e+00 +8.1509509437164507e+00 +0.0000000000000000e+00 +8.4999996706955496e+00 -2.8432593782348570e-02 -5.3641041947060442e-01 +5.3317914828352924e-03
8.5999999999999908e+00 +8.1509024470215099e+00 +0.0000000000000000e+00 +8.5999996589357703e+00 -2.8432589062835082e-02 -5.3641077570408291e-01 +5.3318243670407613e-03
8.6999999999999904e+00 +8.1508533831147396e+00 +0.0000000000000000e+00 +8.6999996468993004e+00 -2.8432574711632741e-02 -5.3641114063114936e-01 +5.3318577910190183e-03
8.7999999999999794e+00 +8.1508037519961398e+00 +0.0000000000000000e+00 +8.7999996345829192e+00 -2.8432551703994915e-02 -5.3641151373355000e-01 +5.3318917920636101e-03
8.8999999999999808e+00 +8.1507535536620708e+00 +0.0000000000000000e+00 +8.8999996219834205e+00 -2.8432521015149030e-02 -5.3641189449318294e-01 +5.3319264074738896e-03
8.9999999999999805e+00 +8.1507027881161793e+00 +0.0000000000000000e+00 +8.9999996090975891e+00 -2.8432483620291601e-02 -5.3641228239201910e-01 +5.3319616745542949e-03
9.0999999999999801e+00 +8.1506514553584601e+00 +0.0000000000000000e+00 +9.0999995959221902e+00 -2.8432440494591756e-02 -5.3641267691218675e-01 +5.3319976306153462e-03
9.1999999999999797e+00 +8.1505995553889097e+00 +0.0000000000000000e+00 +9.1999995824540193e+00 -2.8432392613189056e-02 -5.3641307753594936e-01 +5.3320343129735024e-03
9.2999999999999794e+00 +8.1505470882038900e+00 +0.0000000000000000e+00 +9.2999995686898593e+00 -2.8432340951194221e-02 -5.3641348374573272e-01 +5.3320717589515690e-03
9.3999999999999808e+00 +8.1504940538070496e+00 +0.0000000000000000e+00 +9.3999995546264898e+00 -2.8432286483684038e-02 -5.3641389502405135e-01 +5.3321100058780274e-03
9.4999999999999805e+00 +8.1504404521983798e+00 +0.0000000000000000e+00 +9.4999995402606903e+00 -2.8432230185704947e-02 -5.3641431085358904e-01 +5.3321490910879926e-03
9.5999999999999801e+00 +8.1503862833778804e+00 +0.0000000000000000e+00 +9.5999995255892507e+00 -2.8432173032270878e-02 -5.3641473071717782e-01 +5.3321890519230919e-03
9.6999999999999797e+00 +8.1503315473419207e+00 +0.0000000000000000e+00 +9.6999995106089507e+00 -2.8432115998363885e-02 -5.3641515409782647e-01 +5.3322299257318601e-03
9.7999999999999794e+00 +8.1502762440941297e+00 +0.0000000000000000e+00 +9.7999994953165697e+00 -2.8432060058929173e-02 -5.3641558047864513e-01 +5.3322717498690865e-03
9.8999999999999808e+00 +8.1502203736345091e+00 +0.0000000000000000e+00 +9.8999994797088906e+00 -2.8432006188878568e-02 -5.3641600934292666e-01 +5.3323145616967545e-03
9.9999999999999805e+00 +8.1501639359594300e+00 +0.0000000000000000e+00 +9.9999994637827001e+00 -2.8431955363089845e-02 -5.3641644017415224e-01 +5.3323583985841905e-03
1.0100000000000000e+01 +8.1501069310761505e+00 +0.0000000000000000e+00 +1.0099999447534801e+01 -2.8431908444022075e-02 -5.3641687268119842e-01 +5.3324032754194974e-03
1.0199999999999999e+01 +8.1500493589774106e+00 +0.0000000000000000e+00 +1.0199999430961901e+01 -2.8431865844599502e-02 -5.3641730747436800e-01 +5.3324491171428895e-03
1.0300000000000001e+01 +8.1499912196668394e+00 +0.0000000000000000e+00 +1.0299999414060901e+01 -2.8431827865367645e-02 -5.3641774538907316e-01 +5.3324958262006422e-03
1.0400000000000000e+01 +8.1499325131444493e+00 +0.0000000000000000e+00 +1.0399999396828500e+01 -2.8431794806885239e-02 -5.3641818726058976e-01 +5.3325433050332664e-03
1.0500000000000000e+01 +8.1498732394065900e+00 +0.0000000000000000e+00 +1.0499999379261400e+01 -2.8431766969724690e-02 -5.3641863392405487e-01 +5.3325914560753201e-03
1.0600000000000000e+01 +8.1498133984568994e+00 +0.0000000000000000e+00 +1.0599999361356600e+01 -2.8431744654468183e-02 -5.3641908621437995e-01 +5.3326401817544071e-03
1.0699999999999999e+01 +8.1497529902953794e+00 +0.0000000000000000e+00 +1.0699999343110701e+01 -2.8431728161712515e-02 -5.3641954496632727e-01 +5.3326893844918141e-03
1.0800000000000001e+01 +8.1496920149220404e+00 +0.0000000000000000e+00 +1.0799999324520600e+01 -2.8431717792068038e-02 -5.3642001101447867e-01 +5.3327389667020579e-03
1.0900000000000000e+01 +8.1496304723332305e+00 +0.0000000000000000e+00 +1.0899999305583000e+01 -2.8431713846160601e-02 -5.3642048519325736e-01 +5.3327888307929689e-03
1.1000000000000000e+01 +8.1495683625325892e+00 +0.0000000000000000e+00 +1.0999999286294800e+01 -2.8431716624627693e-02 -5.3642096833684305e-01 +5.3328388791647032e-03
1.1100000000000000e+01 +8.1495056855201309e+00 +0.0000000000000000e+00 +1.1099999266652601e+01 -2.8431726428123204e-02 -5.3642146127924728e-01 +5.3328890142103685e-03
1.1199999999999999e+01 +8.1494424412958306e+00 +0.0000000000000000e+00 +1.1199999246653300e+01 -2.8431743557316376e-02 -5.3642196485428206e-01 +5.3329391383155631e-03
1.1300000000000001e+01 +8.1493786298560700e+00 +0.0000000000000000e+00 +1.1299999226293700e+01 -2.8431768312893815e-02 -5.3642247989558267e-01 +5.3329891538584900e-03
1.1400000000000000e+01 +8.1493142512044905e+00 +0.0000000000000000e+00 +1.1399999205570500e+01 -2.8431800995555520e-02 -5.3642300723652092e-01 +5.3330389632089284e-03
1.1500000000000000e+01 +8.1492493053447106e+00 +0.0000000000000000e+00 +1.1499999184480499e+01 -2.8431841906018298e-02 -5.3642354771025613e-01 +5.3330884687286190e-03
1.1600000000000000e+01 +8.1491837922658306e+00 +0.0000000000000000e+00 +1.1599999163020600e+01 -2.8431891345021883e-02 -5.3642410214983616e-01 +5.3331375727721656e-03
1.1699999999999999e+01 +8.1491177119787608e+00 +0.0000000000000000e+00 +1.1699999141187400e+01 -2.8431949613315088e-02 -5.3642467138792504e-01 +5.3331861776841185e-03
1.1800000000000001e+01 +8.1490510644762306e+00 +0.0000000000000000e+00 +1.1799999118977800e+01 -2.8432017011671997e-02 -5.3642525625709336e-01 +5.3332341858018080e-03
