# field on trajectory
# s[mm] rx[mm] ry[mm] rz[mm] bx[T] by[T] bz[T]
0.0000000000000000e+00 +8.1649999999999991e+00 +0.0000000000000000e+00 +0.0000000000000000e+00 -2.9410745964504284e-02 -5.6459095068896070e-01 +5.6455576314204349e-03
1.0000000000000001e-01 +8.1649997169688007e+00 +0.0000000000000000e+00 +9.9999999999465961e-02 -2.9410923818634825e-02 -5.6459066173186345e-01 +5.6455868649439760e-03
2.0000000000000001e-01 +8.1649988678753953e+00 +0.0000000000000000e+00 +1.9999999999572765e-01 -2.9411089071076812e-02 -5.6459037810377211e-01 +5.6456204719192221e-03
3.0000000000000004e-01 +8.1649974527200690e+00 +0.0000000000000000e+00 +2.9999999998558080e-01 -2.9411242652634405e-02 -5.6459010062229509e-01 +5.6456581835285478e-03
4.0000000000000002e-01 +8.1649954715031008e+00 +0.0000000000000000e+00 +3.9999999996582120e-01 -2.9411385494107888e-02 -5.6458983010503705e-01 +5.6456997309546168e-03
5.0000000000000000e-01 +8.1649929242247605e+00 +0.0000000000000000e+00 +4.9999999993324451e-01 -2.9411518526292518e-02 -5.6458956736960064e-01 +5.6457448453801056e-03
5.9999999999999998e-01 +8.1649898108853112e+00 +0.0000000000000000e+00 +5.9999999988464658e-01 -2.9411642679977441e-02 -5.6458931323358708e-01 +5.6457932579874488e-03
6.9999999999999996e-01 +8.1649861314850085e+00 +0.0000000000000000e+00 +6.9999999981682315e-01 -2.9411758885944550e-02 -5.6458906851459612e-01 +5.6458446999585570e-03
7.9999999999999993e-01 +8.1649818860240977e+00 +0.0000000000000000e+00 +7.9999999972656988e-01 -2.9411868074967425e-02 -5.6458883403022875e-01 +5.6458989024745559e-03
8.9999999999999991e-01 +8.1649770745028132e+00 +0.0000000000000000e+00 +8.9999999961068267e-01 -2.9411971177810171e-02 -5.6458861059808707e-01 +5.6459555967155253e-03
9.9999999999999989e-01 +8.1649716969213806e+00 +0.0000000000000000e+00 +9.9999999946595719e-01 -2.9412069125226346e-02 -5.6458839903577529e-01 +5.6460145138602135e-03
1.0999999999999999e+00 +8.1649657532800113e+00 +0.0000000000000000e+00 +1.0999999992891893e+00 -2.9412162847957807e-02 -5.6458820016090061e-01 +5.6460753850857814e-03
1.2000000000000000e+00 +8.1649592435789042e+00 +0.0000000000000000e+00 +1.1999999990771748e+00 -2.9412253276733646e-02 -5.6458801479107523e-01 +5.6461379415675399e-03
1.3000000000000000e+00 +8.1649521678182460e+00 +0.0000000000000000e+00 +1.2999999988267092e+00 -2.9412341342269083e-02 -5.6458784374391513e-01 +5.6462019144786655e-03
1.4000000000000001e+00 +8.1649445259982087e+00 +0.0000000000000000e+00 +1.3999999985345886e+00 -2.9412427975264228e-02 -5.6458768783704305e-01 +5.6462670349899441e-03
1.5000000000000002e+00 +8.1649363181189472e+00 +0.0000000000000000e+00 +1.4999999981976087e+00 -2.9412514106403186e-02 -5.6458754788808840e-01 +5.6463330342695047e-03
1.6000000000000003e+00 +8.1649275441806033e+00 +0.0000000000000000e+00 +1.5999999978125652e+00 -2.9412600666352776e-02 -5.6458742471468859e-01 +5.6463996434825423e-03
1.7000000000000004e+00 +8.1649182041833015e+00 +0.0000000000000000e+00 +1.6999999973762538e+00 -2.9412688585761473e-02 -5.6458731913449001e-01 +5.6464665937910547e-03
1.8000000000000005e+00 +8.1649082981271466e+00 +0.0000000000000000e+00 +1.7999999968854705e+00 -2.9412778795258301e-02 -5.6458723196514804e-01 +5.6465336163535780e-03
1.9000000000000006e+00 +8.1648978260122256e+00 +0.0000000000000000e+00 +1.8999999963370111e+00 -2.9412872225451730e-02 -5.6458716402432885e-01 +5.6466004423249179e-03
2.0000000000000004e+00 +8.1648867878386078e+00 +0.0000000000000000e+00 +1.9999999957276713e+00 -2.9412969806928545e-02 -5.6458711612971146e-01 +5.6466668028558771e-03
2.1000000000000005e+00 +8.1648751836063429e+00 +0.0000000000000000e+00 +2.0999999950542465e+00 -2.9413072250396632e-02 -5.6458708867819229e-01 +5.6467324867927040e-03
2.2000000000000006e+00 +8.1648630133154576e+00 +0.0000000000000000e+00 +2.1999999943135329e+00 -2.9413179387125923e-02 -5.6458708038350380e-01 +5.6467975137780846e-03
2.3000000000000007e+00 +8.1648502769659608e+00 +0.0000000000000000e+00 +2.2999999935023263e+00 -2.9413290828535721e-02 -5.6458708953858505e-01 +5.6468619611556121e-03
2.4000000000000008e+00 +8.1648369745578435e+00 +0.0000000000000000e+00 +2.3999999926174223e+00 -2.9413406186055775e-02 -5.6458711443637333e-01 +5.6469259062709521e-03
2.5000000000000009e+00 +8.1648231060910810e+00 +0.0000000000000000e+00 +2.4999999916556170e+00 -2.9413525071128925e-02 -5.6458715336980292e-01 +5.6469894264723260e-03
2.6000000000000010e+00 +8.1648086715656358e+00 +0.0000000000000000e+00 +2.5999999906137057e+00 -2.9413647095213585e-02 -5.6458720463180490e-01 +5.6470525991109306e-03
2.7000000000000011e+00 +8.1647936709814566e+00 +0.0000000000000000e+00 +2.6999999894884845e+00 -2.9413771869786300e-02 -5.6458726651530577e-01 +5.6471155015414085e-03
2.8000000000000012e+00 +8.1647781043384828e+00 +0.0000000000000000e+00 +2.7999999882767490e+00 -2.9413899006344332e-02 -5.6458733731322763e-01 +5.6471782111222803e-03
2.9000000000000012e+00 +8.1647619716366435e+00 +0.0000000000000000e+00 +2.8999999869752950e+00 -2.9414028116408152e-02 -5.6458741531848566e-01 +5.6472408052163983e-03
3.0000000000000013e+00 +8.1647452728758605e+00 +0.0000000000000000e+00 +2.9999999855809185e+00 -2.9414158811524066e-02 -5.6458749882398951e-01 +5.6473033611914008e-03
3.1000000000000014e+00 +8.1647280080560520e+00 +0.0000000000000000e+00 +3.0999999840904149e+00 -2.9414290703266663e-02 -5.6458758612264059e-01 +5.6473659564201407e-03
3.2000000000000015e+00 +8.1647101771771293e+00 +0.0000000000000000e+00 +3.1999999825005800e+00 -2.9414423403241491e-02 -5.6458767550733202e-01 +5.6474286682811686e-03
3.3000000000000016e+00 +8.1646917802390053e+00 +0.0000000000000000e+00 +3.2999999808082099e+00 -2.9414556523087481e-02 -5.6458776527094867e-01 +5.6474915741591388e-03
3.4000000000000017e+00 +8.1646728172415894e+00 +0.0000000000000000e+00 +3.3999999790100999e+00 -2.9414689674479577e-02 -5.6458785370636466e-01 +5.6475547514452870e-03
3.5000000000000018e+00 +8.1646532881847946e+00 +0.0000000000000000e+00 +3.4999999771030459e+00 -2.9414822469131255e-02 -5.6458793910644367e-01 +5.6476182775378660e-03
3.6000000000000019e+00 +8.1646331930685356e+00 +0.0000000000000000e+00 +3.5999999750838438e+00 -2.9414954518797078e-02 -5.6458801976403816e-01 +5.6476822298426044e-03
3.7000000000000020e+00 +8.1646125318927325e+00 +0.0000000000000000e+00 +3.6999999729492892e+00 -2.9415085435275257e-02 -5.6458809397198850e-01 +5.6477466857731340e-03
3.8000000000000020e+00 +8.1645913046573124e+00 +0.0000000000000000e+00 +3.7999999706961778e+00 -2.9415214830410170e-02 -5.6458816002312107e-01 +5.6478117227514594e-03
3.9000000000000021e+00 +8.1645695113622097e+00 +0.0000000000000000e+00 +3.8999999683213056e+00 -2.9415342316094939e-02 -5.6458821621024957e-01 +5.6478774182083906e-03
4.0000000000000018e+00 +8.1645471520073674e+00 +0.0000000000000000e+00 +3.9999999658214684e+00 -2.9415467504273988e-02 -5.6458826082617231e-01 +5.6479438495840003e-03
4.1000000000000014e+00 +8.1645242265927429e+00 +0.0000000000000000e+00 +4.0999999631934614e+00 -2.9415590061474182e-02 -5.6458829263997823e-01 +5.6480111126448532e-03
4.2000000000000011e+00 +8.1645007351183061e+00 +0.0000000000000000e+00 +4.1999999604340807e+00 -2.9415709872368391e-02 -5.6458831232597850e-01 +5.6480793764310411e-03
4.3000000000000007e+00 +8.1644766775840356e+00 +0.0000000000000000e+00 +4.2999999575401224e+00 -2.9415826876146033e-02 -5.6458832103480583e-01 +5.6481488282992161e-03
4.4000000000000004e+00 +8.1644520539899244e+00 +0.0000000000000000e+00 +4.3999999545083819e+00 -2.9415941011976206e-02 -5.6458831991711245e-01 +5.6482196556045727e-03
4.5000000000000000e+00 +8.1644268643359741e+00 +0.0000000000000000e+00 +4.4999999513356546e+00 -2.9416052219005756e-02 -5.6458831012357091e-01 +5.6482920457006239e-03
4.5999999999999996e+00 +8.1644011086221955e+00 +0.0000000000000000e+00 +4.5999999480187368e+00 -2.9416160436357249e-02 -5.6458829280487488e-01 +5.6483661859389432e-03
4.6999999999999993e+00 +8.1643747868486063e+00 +0.0000000000000000e+00 +4.6999999445544240e+00 -2.9416265603127011e-02 -5.6458826911174265e-01 +5.6484422636689253e-03
4.7999999999999989e+00 +8.1643478990152314e+00 +0.0000000000000000e+00 +4.7999999409395127e+00 -2.9416367658383111e-02 -5.6458824019491505e-01 +5.6485204662375318e-03
4.8999999999999986e+00 +8.1643204451221010e+00 +0.0000000000000000e+00 +4.8999999371707981e+00 -2.9416466541163356e-02 -5.6458820720515945e-01 +5.6486009809890506e-03
4.9999999999999982e+00 +8.1642924251692488e+00 +0.0000000000000000e+00 +4.9999999332450757e+00 -2.9416562190473325e-02 -5.6458817129326955e-01 +5.6486839952648487e-03
5.0999999999999979e+00 +8.1642638391567104e+00 +0.0000000000000000e+00 +5.0999999291591411e+00 -2.9416654545284394e-02 -5.6458813361006743e-01 +5.6487696964031249e-03
5.1999999999999975e+00 +8.1642346870845248e+00 +0.0000000000000000e+00 +5.1999999249097906e+00 -2.9416743544531672e-02 -5.6458809530640408e-01 +5.6488582717386729e-03
5.2999999999999972e+00 +8.1642049689527312e+00 +0.0000000000000000e+00 +5.2999999204938204e+00 -2.9416829127112101e-02 -5.6458805753316199e-01 +5.6489499086026188e-03
5.3999999999999968e+00 +8.1641746847613703e+00 +0.0000000000000000e+00 +5.3999999159080252e+00 -2.9416911231882361e-02 -5.6458802144125464e-01 +5.6490447943221807e-03
5.4999999999999964e+00 +8.1641438345104760e+00 +0.0000000000000000e+00 +5.4999999111492013e+00 -2.9416989797656966e-02 -5.6458798818162903e-01 +5.6491431162204349e-03
5.5999999999999961e+00 +8.1641124182000855e+00 +0.0000000000000000e+00 +5.5999999062141450e+00 -2.9417064763206258e-02 -5.6458795890526758e-01 +5.6492450616160610e-03
5.6999999999999957e+00 +8.1640804358302272e+00 +0.0000000000000000e+00 +5.6999999010996518e+00 -2.9417136067254320e-02 -5.6458793476318681e-01 +5.6493508178230845e-03
5.7999999999999954e+00 +8.1640478874009261e+00 +0.0000000000000000e+00 +5.7999998958025172e+00 -2.9417203648477119e-02 -5.6458791690644095e-01 +5.6494605721506457e-03
5.8999999999999950e+00 +8.1640147729122017e+00 +0.0000000000000000e+00 +5.8999998903195365e+00 -2.9417267445500432e-02 -5.6458790648612345e-01 +5.6495745119027546e-03
5.9999999999999947e+00 +8.1639810923640663e+00 +0.0000000000000000e+00 +5.9999998846475062e+00 -2.9417327396897845e-02 -5.6458790465336572e-01 +5.6496928243780359e-03
6.0999999999999943e+00 +8.1639468457565219e+00 +0.0000000000000000e+00 +6.0999998787832217e+00 -2.9417383570981944e-02 -5.6458791243435857e-01 +5.6498156018772597e-03
6.1999999999999940e+00 +8.1639120330895611e+00 +0.0000000000000000e+00 +6.1999998727234793e+00 -2.9417436555204953e-02 -5.6458793035538646e-01 +5.6499425567260097e-03
6.2999999999999936e+00 +8.1638766543631682e+00 +0.0000000000000000e+00 +6.2999998664650745e+00 -2.9417487066814858e-02 -5.6458795881774915e-01 +5.6500733062533519e-03
6.3999999999999932e+00 +8.1638407095773147e+00 +0.0000000000000000e+00 +6.3999998600048027e+00 -2.9417535823067231e-02 -5.6458799822273986e-01 +5.6502074677848091e-03
6.4999999999999929e+00 +8.1638041987319632e+00 +0.0000000000000000e+00 +6.4999998533394594e+00 -2.9417583541225790e-02 -5.6458804897164494e-01 +5.6503446586422101e-03
6.5999999999999925e+00 +8.1637671218270622e+00 +0.0000000000000000e+00 +6.5999998464658409e+00 -2.9417630938563064e-02 -5.6458811146574317e-01 +5.6504844961435688e-03
6.6999999999999922e+00 +8.1637294788625514e+00 +0.0000000000000000e+00 +6.6999998393807436e+00 -2.9417678732360966e-02 -5.6458818610630535e-01 +5.6506265976029209e-03
6.7999999999999918e+00 +8.1636912698383579e+00 +0.0000000000000000e+00 +6.7999998320809620e+00 -2.9417727639911437e-02 -5.6458827329459293e-01 +5.6507705803302208e-03
6.8999999999999915e+00 +8.1636524947543947e+00 +0.0000000000000000e+00 +6.8999998245632925e+00 -2.9417778378517050e-02 -5.6458837343185819e-01 +5.6509160616311843e-03
6.9999999999999911e+00 +8.1636131536105623e+00 +0.0000000000000000e+00 +6.9999998168245305e+00 -2.9417831665491632e-02 -5.6458848691934216e-01 +5.6510626588071496e-03
7.0999999999999908e+00 +8.1635732464067488e+00 +0.0000000000000000e+00 +7.0999998088614724e+00 -2.9417888218160871e-02 -5.6458861415827599e-01 +5.6512099891549514e-03
7.1999999999999904e+00 +8.1635327731428280e+00 +0.0000000000000000e+00 +7.1999998006709127e+00 -2.9417948753862933e-02 -5.6458875554987797e-01 +5.6513576699667844e-03
7.2999999999999901e+00 +8.1634917338186579e+00 +0.0000000000000000e+00 +7.2999997922496478e+00 -2.9418013989949091e-02 -5.6458891149535473e-01 +5.6515053185300533e-03
7.3999999999999897e+00 +8.1634501284340857e+00 +0.0000000000000000e+00 +7.3999997835944740e+00 -2.9418084643784335e-02 -5.6458908239589989e-01 +5.6516525521272546e-03
7.4999999999999893e+00 +8.1634079569889391e+00 +0.0000000000000000e+00 +7.4999997747021858e+00 -2.9418161432748002e-02 -5.6458926865269277e-01 +5.6517989880358306e-03
7.5999999999999890e+00 +8.1633652194830351e+00 +0.0000000000000000e+00 +7.5999997655695797e+00 -2.9418245074234340e-02 -5.6458947066689746e-01 +5.6519442435280327e-03
7.6999999999999886e+00 +8.1633219159161712e+00 +0.0000000000000000e+00 +7.6999997561934510e+00 -2.9418336285653216e-02 -5.6458968883966487e-01 +5.6520879358707907e-03
7.7999999999999883e+00 +8.1632780462881289e+00 +0.0000000000000000e+00 +7.7999997465705952e+00 -2.9418435784430673e-02 -5.6458992357212856e-01 +5.6522296823255727e-03
7.8999999999999879e+00 +8.1632336105986756e+00 +0.0000000000000000e+00 +7.8999997366978087e+00 -2.9418544288009565e-02 -5.6459017526540545e-01 +5.6523691001482525e-03
7.9999999999999876e+00 +8.1631886088475607e+00 +0.0000000000000000e+00 +7.9999997265718870e+00 -2.9418662513850176e-02 -5.6459044432059613e-01 +5.6525058065889783e-03
8.0999999999999872e+00 +8.1631430410345143e+00 +0.0000000000000000e+00 +8.0999997161896253e+00 -2.9418790877136763e-02 -5.6459073089474232e-01 +5.6526395289423007e-03
8.1999999999999869e+00 +8.1630969071592521e+00 +0.0000000000000000e+00 +8.1999997055478193e+00 -2.9418928583896713e-02 -5.6459103416868461e-01 +5.6527704347056600e-03
8.2999999999999865e+00 +8.1630502072214703e+00 +0.0000000000000000e+00 +8.2999996946432635e+00 -2.9419074537907389e-02 -5.6459135307916353e-01 +5.6528988014340059e-03
8.3999999999999861e+00 +8.1630029412208511e+00 +0.0000000000000000e+00 +8.3999996834727551e+00 -2.9419227642999299e-02 -5.6459168656285741e-01 +5.6530249066889708e-03
8.4999999999999858e+00 +8.1629551091570622e+00 +0.0000000000000000e+00 +8.4999996720330895e+00 -2.9419386803057761e-02 -5.6459203355638010e-01 +5.6531490280391089e-03
8.5999999999999854e+00 +8.1629067110297573e+00 +0.0000000000000000e+00 +8.5999996603210622e+00 -2.9419550922024421e-02 -5.6459239299628072e-01 +5.6532714430601524e-03
8.6999999999999851e+00 +8.1628577468385775e+00 +0.0000000000000000e+00 +8.6999996483334687e+00 -2.9419718903898908e-02 -5.6459276381903978e-01 +5.6533924293352420e-03
8.7999999999999847e+00 +8.1628082165831533e+00 +0.0000000000000000e+00 +8.7999996360671027e+00 -2.9419889652740318e-02 -5.6459314496106816e-01 +5.6535122644551716e-03
8.8999999999999844e+00 +8.1627581202631028e+00 +0.0000000000000000e+00 +8.8999996235187613e+00 -2.9420062072668930e-02 -5.6459353535870638e-01 +5.6536312260186397e-03
8.9999999999999840e+00 +8.1627074578780388e+00 +0.0000000000000000e+00 +8.9999996106852400e+00 -2.9420235067867666e-02 -5.6459393394821955e-01 +5.6537495916324718e-03
9.0999999999999837e+00 +8.1626562294275615e+00 +0.0000000000000000e+00 +9.0999995975633343e+00 -2.9420407542583744e-02 -5.6459433966579886e-01 +5.6538676389118929e-03
9.1999999999999833e+00 +8.1626044349112661e+00 +0.0000000000000000e+00 +9.1999995841498396e+00 -2.9420578401130257e-02 -5.6459475144755777e-01 +5.6539856454807420e-03
9.2999999999999829e+00 +8.1625520743287403e+00 +0.0000000000000000e+00 +9.2999995704415515e+00 -2.9420746547887729e-02 -5.6459516822953038e-01 +5.6541038889717319e-03
9.3999999999999826e+00 +8.1624991476795703e+00 +0.0000000000000000e+00 +9.3999995564352652e+00 -2.9420910887305696e-02 -5.6459558894766970e-01 +5.6542226470266740e-03
9.4999999999999822e+00 +8.1624456549633351e+00 +0.0000000000000000e+00 +9.4999995421277763e+00 -2.9421070323904324e-02 -5.6459601253784564e-01 +5.6543421972967455e-03
9.5999999999999819e+00 +8.1623915961796119e+00 +0.0000000000000000e+00 +9.5999995275158820e+00 -2.9421223762275951e-02 -5.6459643793584291e-01 +5.6544628174427071e-03
9.6999999999999815e+00 +8.1623369713279743e+00 +0.0000000000000000e+00 +9.6999995125963761e+00 -2.9421370107086706e-02 -5.6459686407736009e-01 +5.6545847851351607e-03
9.7999999999999812e+00 +8.1622817804079997e+00 +0.0000000000000000e+00 +9.7999994973660538e+00 -2.9421508263078010e-02 -5.6459728989800573e-01 +5.6547083780547746e-03
9.8999999999999808e+00 +8.1622260234192616e+00 +0.0000000000000000e+00 +9.8999994818217107e+00 -2.9421637135068280e-02 -5.6459771433329886e-01 +5.6548338738925492e-03
9.9999999999999805e+00 +8.1621697003613356e+00 +0.0000000000000000e+00 +9.9999994659601423e+00 -2.9421755627954366e-02 -5.6459813631866496e-01 +5.6549615503500355e-03
1.0099999999999980e+01 +8.1621128112338024e+00 +0.0000000000000000e+00 +1.0099999449778144e+01 -2.9421862989374856e-02 -5.6459855507686452e-01 +5.6550916170856631e-03
1.0199999999999980e+01 +8.1620553560362428e+00 +0.0000000000000000e+00 +1.0199999433272511e+01 -2.9421959837644694e-02 -5.6459897098033418e-01 +5.6552240115432788e-03
1.0299999999999979e+01 +8.1619973347682411e+00 +0.0000000000000000e+00 +1.0299999416440038e+01 -2.9422047133629739e-02 -5.6459938468896076e-01 +5.6553586031064087e-03
1.0399999999999979e+01 +8.1619387474293852e+00 +0.0000000000000000e+00 +1.0399999399277521e+01 -2.9422125838052021e-02 -5.6459979686265216e-01 +5.6554952611528302e-03
1.0499999999999979e+01 +8.1618795940192630e+00 +0.0000000000000000e+00 +1.0499999381781755e+01 -2.9422196911486037e-02 -5.6460020816133838e-01 +5.6556338550543964e-03
1.0599999999999978e+01 +8.1618198745374642e+00 +0.0000000000000000e+00 +1.0599999363949538e+01 -2.9422261314354877e-02 -5.6460061924497340e-01 +5.6557742541768728e-03
1.0699999999999978e+01 +8.1617595889835783e+00 +0.0000000000000000e+00 +1.0699999345777663e+01 -2.9422320006926309e-02 -5.6460103077353552e-01 +5.6559163278797724e-03
1.0799999999999978e+01 +8.1616987373571952e+00 +0.0000000000000000e+00 +1.0799999327262926e+01 -2.9422373949309018e-02 -5.6460144340702867e-01 +5.6560599455161807e-03
1.0899999999999977e+01 +8.1616373196579026e+00 +0.0000000000000000e+00 +1.0899999308402121e+01 -2.9422424101448706e-02 -5.6460185780548300e-01 +5.6562049764325925e-03
1.0999999999999977e+01 +8.1615753358852867e+00 +0.0000000000000000e+00 +1.0999999289192045e+01 -2.9422471423124298e-02 -5.6460227462895607e-01 +5.6563512899687413e-03
1.1099999999999977e+01 +8.1615127860389318e+00 +0.0000000000000000e+00 +1.1099999269629494e+01 -2.9422516873944076e-02 -5.6460269453753387e-01 +5.6564987554574338e-03
1.1199999999999976e+01 +8.1614496701184205e+00 +0.0000000000000000e+00 +1.1199999249711261e+01 -2.9422561413341767e-02 -5.6460311819133169e-01 +5.6566472422243759e-03
1.1299999999999976e+01 +8.1613859881233282e+00 +0.0000000000000000e+00 +1.1299999229434144e+01 -2.9422606000572855e-02 -5.6460354625049547e-01 +5.6567966195880254e-03
1.1399999999999975e+01 +8.1613217400532267e+00 +0.0000000000000000e+00 +1.1399999208794936e+01 -2.9422651594710619e-02 -5.6460397937520213e-01 +5.6569467568593889e-03
1.1499999999999975e+01 +8.1612569259076864e+00 +0.0000000000000000e+00 +1.1499999187790433e+01 -2.9422699154642299e-02 -5.6460441822566010e-01 +5.6570975233418844e-03
1.1599999999999975e+01 +8.1611915456862683e+00 +0.0000000000000000e+00 +1.1599999166417430e+01 -2.9422749639065351e-02 -5.6460486346211303e-01 +5.6572487883311635e-03
1.1699999999999974e+01 +8.1611255993885266e+00 +0.0000000000000000e+00 +1.1699999144672724e+01 -2.9422804006483470e-02 -5.6460531574483663e-01 +5.6574004211149415e-03
1.1799999999999974e+01 +8.1610590870140118e+00 +0.0000000000000000e+00 +1.1799999122553109e+01 -2.9422863215202866e-02 -5.6460577573414283e-01 +5.6575522909728332e-03
