# field on trajectory
# s[mm] rx[mm] ry[mm] rz[mm] bx[T] by[T] bz[T]
-0.0000000000000000e+00 +8.1530000000000094e+00 +0.0000000000000000e+00 -0.0000000000000000e+00 -2.9582757359394574e-02 -5.6497254567274668e-01 +5.6785596254531065e-03
-1.0000000000000001e-01 +8.1529997159377707e+00 +0.0000000000000000e+00 -1.0008006405070299e-01 -2.9582664470334735e-02 -5.6497237340366746e-01 +5.6785778510122084e-03
-2.0000000000000001e-01 +8.1529988637557800e+00 +0.0000000000000000e+00 -2.0016012809818201e-01 -2.9582580161630463e-02 -5.6497220536891390e-01 +5.6785930062102389e-03
-2.9999999999999999e-01 +8.1529974434524792e+00 +0.0000000000000000e+00 -3.0024019213920999e-01 -2.9582504331613635e-02 -5.6497204185824079e-01 +5.6786051731103123e-03
-4.0000000000000002e-01 +8.1529954550242092e+00 +0.0000000000000000e+00 -4.0032025617056399e-01 -2.9582436878622394e-02 -5.6497188316142455e-01 +5.6786144337751272e-03
-5.0000000000000000e-01 +8.1529928984782600e+00 +0.0000000000000000e+00 -5.0040032018901703e-01 -2.9582377700996310e-02 -5.6497172956816355e-01 +5.6786208702657697e-03
-5.9999999999999998e-01 +8.1529897738146193e+00 +0.0000000000000000e+00 -6.0048038419134497e-01 -2.9582326697084060e-02 -5.6497158136821934e-01 +5.6786245646430174e-03
-6.9999999999999996e-01 +8.1529860810223909e+00 +0.0000000000000000e+00 -7.0056044817432195e-01 -2.9582283765245236e-02 -5.6497143885144596e-01 +5.6786255989674916e-03
-8.0000000000000004e-01 +8.1529818201124709e+00 +0.0000000000000000e+00 -8.0064051213472498e-01 -2.9582248803837613e-02 -5.6497130230753756e-01 +5.6786240552968801e-03
-9.0000000000000002e-01 +8.1529769910812302e+00 +0.0000000000000000e+00 -9.0072057606932698e-01 -2.9582221711232034e-02 -5.6497117202630953e-01 +5.6786200156887061e-03
-1.0000000000000000e+00 +8.1529715939250291e+00 +0.0000000000000000e+00 -1.0008006399749001e+00 -2.9582202385807062e-02 -5.6497104829758749e-01 +5.6786135621990095e-03
-1.1000000000000001e+00 +8.1529656286511507e+00 +0.0000000000000000e+00 -1.1008807038482300e+00 -2.9582190725944865e-02 -5.6497093141112331e-01 +5.6786047768813382e-03
-1.2000000000000000e+00 +8.1529590952522994e+00 +0.0000000000000000e+00 -1.2009607676860801e+00 -2.9582186630041824e-02 -5.6497082165679324e-01 +5.6785937417886167e-03
-1.3000000000000000e+00 +8.1529519937357708e+00 +0.0000000000000000e+00 -1.3010408314852300e+00 -2.9582189996497275e-02 -5.6497071932437248e-01 +5.6785805389706857e-03
-1.3999999999999999e+00 +8.1529443240979198e+00 +0.0000000000000000e+00 -1.4011208952424601e+00 -2.9582200723724004e-02 -5.6497062470373349e-01 +5.6785652504761884e-03
-1.5000000000000000e+00 +8.1529360863350995e+00 +0.0000000000000000e+00 -1.5012009589545301e+00 -2.9582218710144340e-02 -5.6497053808476316e-01 +5.6785479583515378e-03
-1.6000000000000001e+00 +8.1529272804509691e+00 +0.0000000000000000e+00 -1.6012810226182299e+00 -2.9582243854187527e-02 -5.6497045975730575e-01 +5.6785287446402058e-03
-1.7000000000000000e+00 +8.1529179064491508e+00 +0.0000000000000000e+00 -1.7013610862303301e+00 -2.9582276054293036e-02 -5.6497039001122018e-01 +5.6785076913831401e-03
-1.8000000000000000e+00 +8.1529079643223703e+00 +0.0000000000000000e+00 -1.8014411497875999e+00 -2.9582315208915314e-02 -5.6497032913646583e-01 +5.6784848806194898e-03
-1.8999999999999999e+00 +8.1528974540779000e+00 +0.0000000000000000e+00 -1.9015212132868200e+00 -2.9582361216513916e-02 -5.6497027742290584e-01 +5.6784603943844355e-03
-2.0000000000000000e+00 +8.1528863757084800e+00 +0.0000000000000000e+00 -2.0016012767247702e+00 -2.9582413975565162e-02 -5.6497023516053313e-01 +5.6784343147112870e-03
-2.1000000000000001e+00 +8.1528747292177304e+00 +0.0000000000000000e+00 -2.1016813400982199e+00 -2.9582473271015059e-02 -5.6497020253287944e-01 +5.6784067069012263e-03
-2.2000000000000002e+00 +8.1528625146056601e+00 +0.0000000000000000e+00 -2.2017614034039301e+00 -2.9582538454944133e-02 -5.6497017931788462e-01 +5.6783775724766816e-03
-2.2999999999999998e+00 +8.1528497318759001e+00 +0.0000000000000000e+00 -2.3018414666387002e+00 -2.9582608776279558e-02 -5.6497016519681043e-01 +5.6783468977644122e-03
-2.3999999999999999e+00 +8.1528363810211903e+00 +0.0000000000000000e+00 -2.4019215297993002e+00 -2.9582683483943349e-02 -5.6497015985100763e-01 +5.6783146690945405e-03
-2.5000000000000000e+00 +8.1528224620451493e+00 +0.0000000000000000e+00 -2.5020015928824901e+00 -2.9582761826841646e-02 -5.6497016296174785e-01 +5.6782808727992799e-03
-2.6000000000000001e+00 +8.1528079749477893e+00 +0.0000000000000000e+00 -2.6020816558850601e+00 -2.9582843053868820e-02 -5.6497017421033247e-01 +5.6782454952145362e-03
-2.7000000000000002e+00 +8.1527929197291105e+00 +0.0000000000000000e+00 -2.7021617188037701e+00 -2.9582926413904059e-02 -5.6497019327806641e-01 +5.6782085226800786e-03
-2.7999999999999998e+00 +8.1527772963891003e+00 +0.0000000000000000e+00 -2.8022417816354102e+00 -2.9583011155809497e-02 -5.6497021984625506e-01 +5.6781699415400060e-03
-2.8999999999999999e+00 +8.1527611049277802e+00 +0.0000000000000000e+00 -2.9023218443767500e+00 -2.9583096528428398e-02 -5.6497025359620523e-01 +5.6781297381431868e-03
-3.0000000000000000e+00 +8.1527443453451305e+00 +0.0000000000000000e+00 -3.0024019070245598e+00 -2.9583181780583265e-02 -5.6497029420922329e-01 +5.6780878988437330e-03
-3.1000000000000001e+00 +8.1527270176411495e+00 +0.0000000000000000e+00 -3.1024819695756198e+00 -2.9583266161073967e-02 -5.6497034136661495e-01 +5.6780444100014357e-03
-3.2000000000000002e+00 +8.1527091218158603e+00 +0.0000000000000000e+00 -3.2025620320267101e+00 -2.9583348918675915e-02 -5.6497039474968380e-01 +5.6779992579822454e-03
-3.2999999999999998e+00 +8.1526906578692397e+00 +0.0000000000000000e+00 -3.3026420943745900e+00 -2.9583429302138111e-02 -5.6497045403973101e-01 +5.6779524291587094e-03
-3.3999999999999999e+00 +8.1526716258013003e+00 +0.0000000000000000e+00 -3.4027221566160502e+00 -2.9583506560181414e-02 -5.6497051891805483e-01 +5.6779039099104358e-03
-3.5000000000000000e+00 +8.1526520256120403e+00 +0.0000000000000000e+00 -3.5028022187478500e+00 -2.9583579941496560e-02 -5.6497058906594866e-01 +5.6778536866245542e-03
-3.6000000000000001e+00 +8.1526318572978198e+00 +0.0000000000000000e+00 -3.6028822807667802e+00 -2.9583648694743815e-02 -5.6497066416472974e-01 +5.6778017456964505e-03
-3.7000000000000002e+00 +8.1526111208659096e+00 +0.0000000000000000e+00 -3.7029623426696099e+00 -2.9583712068545275e-02 -5.6497074389562518e-01 +5.6777480735290811e-03
-3.7999999999999998e+00 +8.1525898163126804e+00 +0.0000000000000000e+00 -3.8030424044531101e+00 -2.9583769311491696e-02 -5.6497082793993902e-01 +5.6776926565351420e-03
-3.8999999999999999e+00 +8.1525679436344909e+00 +0.0000000000000000e+00 -3.9031224661140600e+00 -2.9583819672136382e-02 -5.6497091597896831e-01 +5.6776354811366907e-03
-4.0000000000000000e+00 +8.1525455028386205e+00 +0.0000000000000000e+00 -4.0032025276492398e+00 -2.9583862398994108e-02 -5.6497100769391873e-01 +5.6775765337648337e-03
-4.0999999999999996e+00 +8.1525224939177896e+00 +0.0000000000000000e+00 -4.1032825890554099e+00 -2.9583896917680933e-02 -5.6497110277909168e-01 +5.6775158052035099e-03
-4.2000000000000002e+00 +8.1524989168792708e+00 +0.0000000000000000e+00 -4.2033626503293604e+00 -2.9583923297544879e-02 -5.6497120097588527e-01 +5.6774533020183867e-03
-4.2999999999999998e+00 +8.1524747717157897e+00 +0.0000000000000000e+00 -4.3034427114678504e+00 -2.9583941754148878e-02 -5.6497130203651791e-01 +5.6773890343552215e-03
-4.4000000000000004e+00 +8.1524500584346207e+00 +0.0000000000000000e+00 -4.4035227724676700e+00 -2.9583952503064496e-02 -5.6497140571307680e-01 +5.6773230123526334e-03
-4.5000000000000000e+00 +8.1524247770285001e+00 +0.0000000000000000e+00 -4.5036028333255800e+00 -2.9583955759885133e-02 -5.6497151175774285e-01 +5.6772552461439073e-03
-4.5999999999999996e+00 +8.1523989275046898e+00 +0.0000000000000000e+00 -4.6036828940383696e+00 -2.9583951740215868e-02 -5.6497161992256406e-01 +5.6771857458541549e-03
-4.7000000000000002e+00 +8.1523725098559208e+00 +0.0000000000000000e+00 -4.7037629546028104e+00 -2.9583940659686725e-02 -5.6497172995967837e-01 +5.6771145216021101e-03
-4.7999999999999998e+00 +8.1523455240894709e+00 +0.0000000000000000e+00 -4.8038430150156701e+00 -2.9583922733942461e-02 -5.6497184162108904e-01 +5.6770415834972894e-03
-4.9000000000000004e+00 +8.1523179701980606e+00 +0.0000000000000000e+00 -4.9039230752737302e+00 -2.9583898178655834e-02 -5.6497195465888761e-01 +5.6769669416417987e-03
-5.0000000000000000e+00 +8.1522898481889605e+00 +0.0000000000000000e+00 -5.0040031353737602e+00 -2.9583867209517407e-02 -5.6497206882502804e-01 +5.6768906061274759e-03
-5.0999999999999996e+00 +8.1522611580549000e+00 +0.0000000000000000e+00 -5.1040831953125396e+00 -2.9583830042248828e-02 -5.6497218387155013e-01 +5.6768125870377151e-03
-5.2000000000000002e+00 +8.1522318997995207e+00 +0.0000000000000000e+00 -5.2041632550868497e+00 -2.9583786892594065e-02 -5.6497229955038153e-01 +5.6767328944448917e-03
-5.2999999999999998e+00 +8.1522020734228100e+00 +0.0000000000000000e+00 -5.3042433146934496e+00 -2.9583737976326869e-02 -5.6497241561345024e-01 +5.6766515384110202e-03
-5.4000000000000004e+00 +8.1521716789247893e+00 +0.0000000000000000e+00 -5.4043233741291203e+00 -2.9583683509250731e-02 -5.6497253181265283e-01 +5.6765685289869271e-03
-5.5000000000000000e+00 +8.1521407163090807e+00 +0.0000000000000000e+00 -5.5044034333906504e+00 -2.9583623707199077e-02 -5.6497264789982771e-01 +5.6764838762114536e-03
-5.5999999999999996e+00 +8.1521091855684098e+00 +0.0000000000000000e+00 -5.6044834924747899e+00 -2.9583558786042553e-02 -5.6497276362686488e-01 +5.6763975901120978e-03
-5.7000000000000002e+00 +8.1520770867064094e+00 +0.0000000000000000e+00 -5.7045635513783299e+00 -2.9583488961681836e-02 -5.6497287874553681e-01 +5.6763096807027329e-03
-5.7999999999999998e+00 +8.1520444197231008e+00 +0.0000000000000000e+00 -5.8046436100980499e+00 -2.9583414450054975e-02 -5.6497299300760895e-01 +5.6762201579842707e-03
-5.9000000000000004e+00 +8.1520111846184609e+00 +0.0000000000000000e+00 -5.9047236686307096e+00 -2.9583335467137515e-02 -5.6497310616481144e-01 +5.6761290319438358e-03
-5.9999999999999902e+00 +8.1519773813925003e+00 +0.0000000000000000e+00 -6.0048037269731003e+00 -2.9583252228948458e-02 -5.6497321796884747e-01 +5.6760363125542565e-03
-6.0999999999999899e+00 +8.1519430100452208e+00 +0.0000000000000000e+00 -6.1048837851219799e+00 -2.9583164998526194e-02 -5.6497332827857083e-01 +5.6759420097487944e-03
-6.1999999999999904e+00 +8.1519080705766100e+00 +0.0000000000000000e+00 -6.2049638430741396e+00 -2.9583074201702780e-02 -5.6497343732419947e-01 +5.6758461333662035e-03
-6.2999999999999901e+00 +8.1518725629866804e+00 +0.0000000000000000e+00 -6.3050439008263499e+00 -2.9582980299528955e-02 -5.6497354541633238e-01 +5.6757486932279598e-03
-6.3999999999999897e+00 +8.1518364872754301e+00 +0.0000000000000000e+00 -6.4051239583753699e+00 -2.9582883753040572e-02 -5.6497365286557322e-01 +5.6756496991583125e-03
-6.4999999999999902e+00 +8.1517998434428591e+00 +0.0000000000000000e+00 -6.5052040157180002e+00 -2.9582785023257736e-02 -5.6497375998253141e-01 +5.6755491609844812e-03
-6.5999999999999899e+00 +8.1517626314889604e+00 +0.0000000000000000e+00 -6.6052840728510001e+00 -2.9582684571184088e-02 -5.6497386707782205e-01 +5.6754470885368837e-03
-6.6999999999999904e+00 +8.1517248514137499e+00 +0.0000000000000000e+00 -6.7053641297711399e+00 -2.9582582857806027e-02 -5.6497397446206699e-01 +5.6753434916493430e-03
-6.7999999999999901e+00 +8.1516865032135701e+00 +0.0000000000000000e+00 -6.8054441864752100e+00 -2.9582480344093366e-02 -5.6497408244592373e-01 +5.6752383801596069e-03
-6.8999999999999897e+00 +8.1516475868957095e+00 +0.0000000000000000e+00 -6.9055242429599701e+00 -2.9582377490992739e-02 -5.6497419133997295e-01 +5.6751317639083705e-03
-6.9999999999999902e+00 +8.1516081024565192e+00 +0.0000000000000000e+00 -7.0056042992222096e+00 -2.9582274759435614e-02 -5.6497430145488836e-01 +5.6750236527412790e-03
-7.0999999999999899e+00 +8.1515680498960101e+00 +0.0000000000000000e+00 -7.1056843552586999e+00 -2.9582172610331661e-02 -5.6497441310132412e-01 +5.6749140565079429e-03
-7.1999999999999904e+00 +8.1515274292141804e+00 +0.0000000000000000e+00 -7.2057644110662000e+00 -2.9582071504569412e-02 -5.6497452658994518e-01 +5.6748029850624635e-03
-7.2999999999999901e+00 +8.1514862404073902e+00 +0.0000000000000000e+00 -7.3058444666415099e+00 -2.9581971903017017e-02 -5.6497464223145411e-01 +5.6746904482639360e-03
-7.3999999999999897e+00 +8.1514444834829192e+00 +0.0000000000000000e+00 -7.4059245219813796e+00 -2.9581874266515557e-02 -5.6497476033647975e-01 +5.6745764559754984e-03
-7.4999999999999902e+00 +8.1514021584334806e+00 +0.0000000000000000e+00 -7.5060045770826100e+00 -2.9581779055888591e-02 -5.6497488121577566e-01 +5.6744610180665886e-03
-7.5999999999999899e+00 +8.1513592652663593e+00 +0.0000000000000000e+00 -7.6060846319419504e+00 -2.9581686731929589e-02 -5.6497500517999466e-01 +5.6743441444108249e-03
-7.6999999999999904e+00 +8.1513158039779192e+00 +0.0000000000000000e+00 -7.7061646865561997e+00 -2.9581597755411478e-02 -5.6497513253988663e-01 +5.6742258448882641e-03
-7.7999999999999901e+00 +8.1512717745681602e+00 +0.0000000000000000e+00 -7.8062447409221098e+00 -2.9581512587079983e-02 -5.6497526360618711e-01 +5.6741061293844536e-03
-7.8999999999999897e+00 +8.1512271770334301e+00 +0.0000000000000000e+00 -7.9063247950364799e+00 -2.9581431687655771e-02 -5.6497539868967250e-01 +5.6739850077912254e-03
-7.9999999999999902e+00 +8.1511820113773901e+00 +0.0000000000000000e+00 -8.0064048488960609e+00 -2.9581355517798245e-02 -5.6497553810109635e-01 +5.6738624900070462e-03
-8.0999999999999908e+00 +8.1511362776036496e+00 +0.0000000000000000e+00 -8.1064849024976393e+00 -2.9581284395153656e-02 -5.6497568223111427e-01 +5.6737385905481384e-03
-8.1999999999999904e+00 +8.1510899757086008e+00 +0.0000000000000000e+00 -8.2065649558379903e+00 -2.9581218164961155e-02 -5.6497583173438881e-01 +5.6736133391723943e-03
-8.2999999999999901e+00 +8.1510431056885899e+00 +0.0000000000000000e+00 -8.3066450089139003e+00 -2.9581156575071273e-02 -5.6497598732002308e-01 +5.6734867687843775e-03
-8.3999999999999897e+00 +8.1509956675508892e+00 +0.0000000000000000e+00 -8.4067250617221205e+00 -2.9581099373374730e-02 -5.6497614969704002e-01 +5.6733589122923587e-03
-8.4999999999999893e+00 +8.1509476612882299e+00 +0.0000000000000000e+00 -8.5068051142594392e+00 -2.9581046307813986e-02 -5.6497631957458094e-01 +5.6732298026105077e-03
-8.5999999999999908e+00 +8.1508990869078808e+00 +0.0000000000000000e+00 -8.6068851665226305e+00 -2.9580997126373017e-02 -5.6497649766168023e-01 +5.6730994726567055e-03
-8.6999999999999904e+00 +8.1508499444025801e+00 +0.0000000000000000e+00 -8.7069652185084596e+00 -2.9580951577090498e-02 -5.6497668466749174e-01 +5.6729679553550044e-03
-8.7999999999999794e+00 +8.1508002337759500e+00 +0.0000000000000000e+00 -8.8070452702137203e+00 -2.9580909408050891e-02 -5.6497688130108970e-01 +5.6728352836337512e-03
-8.8999999999999808e+00 +8.1507499550316407e+00 +0.0000000000000000e+00 -8.9071253216351796e+00 -2.9580870367390329e-02 -5.6497708827155557e-01 +5.6727014904265852e-03
-8.9999999999999805e+00 +8.1506991081623692e+00 +0.0000000000000000e+00 -9.0072053727696098e+00 -2.9580834203302465e-02 -5.6497730628806253e-01 +5.6725666086734645e-03
-9.0999999999999801e+00 +8.1506476931717806e+00 +0.0000000000000000e+00 -9.1072854236137797e+00 -2.9580800664031032e-02 -5.6497753605970558e-01 +5.6724306713190568e-03
-9.1999999999999797e+00 +8.1505957100635005e+00 +0.0000000000000000e+00 -9.2073654741644795e+00 -2.9580769497875740e-02 -5.6497777829558704e-01 +5.6722937113137528e-03
-9.2999999999999794e+00 +8.1505431588302599e+00 +0.0000000000000000e+00 -9.3074455244184708e+00 -2.9580740453198053e-02 -5.6497803370490174e-01 +5.6721557616146966e-03
-9.3999999999999808e+00 +8.1504900394757005e+00 +0.0000000000000000e+00 -9.4075255743725297e+00 -2.9580713278413835e-02 -5.6497830299676710e-01 +5.6720168551841520e-03
-9.4999999999999805e+00 +8.1504363520034495e+00 +0.0000000000000000e+00 -9.5076056240234408e+00 -2.9580687721999253e-02 -5.6497858688030933e-01 +5.6718770249905501e-03
-9.5999999999999801e+00 +8.1503820964062506e+00 +0.0000000000000000e+00 -9.6076856733679694e+00 -2.9580663532496478e-02 -5.6497888606474722e-01 +5.6717363040094844e-03
-9.6999999999999797e+00 +8.1503272726913600e+00 +0.0000000000000000e+00 -9.7077657224029004e+00 -2.9580640458504944e-02 -5.6497920125919443e-01 +5.6715947252218195e-03
-9.7999999999999794e+00 +8.1502718808515109e+00 +0.0000000000000000e+00 -9.8078457711250007e+00 -2.9580618248694481e-02 -5.6497953317288707e-01 +5.6714523216161673e-03
-9.8999999999999808e+00 +8.1502159208903304e+00 +0.0000000000000000e+00 -9.9079258195310498e+00 -2.9580596651796486e-02 -5.6497988251498599e-01 +5.6713091261869821e-03
-9.9999999999999805e+00 +8.1501593928078400e+00 +0.0000000000000000e+00 -1.0008005867617801e+01 -2.9580575416617582e-02 -5.6498024999447172e-01 +5.6711651719419023e-03
-1.0100000000000000e+01 +8.1501022966040200e+00 +0.0000000000000000e+00 -1.0108085915382100e+01 -2.9580554307691454e-02 -5.6498063578812496e-01 +5.6710205067081101e-03
-1.0199999999999999e+01 +8.1500446322825209e+00 +0.0000000000000000e+00 -1.0208165962820599e+01 -2.9580533138912783e-02 -5.6498103839557989e-01 +5.6708752249961568e-03
-1.0300000000000001e+01 +8.1499863998360507e+00 +0.0000000000000000e+00 -1.0308246009930199e+01 -2.9580511733819946e-02 -5.6498145598702265e-01 +5.6707294304930433e-03
-1.0400000000000000e+01 +8.1499275992682705e+00 +0.0000000000000000e+00 -1.0408326056707599e+01 -2.9580489915880512e-02 -5.6498188673255045e-01 +5.6705832268887724e-03
-1.0500000000000000e+01 +8.1498682305791608e+00 +0.0000000000000000e+00 -1.0508406103149600e+01 -2.9580467508495266e-02 -5.6498232880228494e-01 +5.6704367178775656e-03
-1.0600000000000000e+01 +8.1498082937723701e+00 +0.0000000000000000e+00 -1.0608486149253000e+01 -2.9580444334993367e-02 -5.6498278036631588e-01 +5.6702900071573499e-03
-1.0699999999999999e+01 +8.1497477888406102e+00 +0.0000000000000000e+00 -1.0708566195014500e+01 -2.9580420218636317e-02 -5.6498323959481345e-01 +5.6701431984309677e-03
-1.0800000000000001e+01 +8.1496867157875403e+00 +0.0000000000000000e+00 -1.0808646240430900e+01 -2.9580394982607287e-02 -5.6498370465786019e-01 +5.6699963954044887e-03
-1.0900000000000000e+01 +8.1496250746131391e+00 +0.0000000000000000e+00 -1.0908726285499000e+01 -2.9580368450015146e-02 -5.6498417372556198e-01 +5.6698497017884462e-03
-1.1000000000000000e+01 +8.1495628653174208e+00 +0.0000000000000000e+00 -1.1008806330215601e+01 -2.9580340443891032e-02 -5.6498464496802092e-01 +5.6697032212975826e-03
-1.1100000000000000e+01 +8.1495000879040198e+00 +0.0000000000000000e+00 -1.1108886374577500e+01 -2.9580310787185066e-02 -5.6498511655530737e-01 +5.6695570576506329e-03
-1.1199999999999999e+01 +8.1494367423620098e+00 +0.0000000000000000e+00 -1.1208966418581401e+01 -2.9580279302771718e-02 -5.6498558665759990e-01 +5.6694113145718218e-03
-1.1300000000000001e+01 +8.1493728287059604e+00 +0.0000000000000000e+00 -1.1309046462224000e+01 -2.9580245813431945e-02 -5.6498605344487629e-01 +5.6692660957877389e-03
-1.1400000000000000e+01 +8.1493083469249505e+00 +0.0000000000000000e+00 -1.1409126505502300e+01 -2.9580210141871635e-02 -5.6498651508730691e-01 +5.6691215050314438e-03
-1.1500000000000000e+01 +8.1492432970226201e+00 +0.0000000000000000e+00 -1.1509206548412800e+01 -2.9580172110703795e-02 -5.6498696975494578e-01 +5.6689776460393543e-03
-1.1600000000000000e+01 +8.1491776789989707e+00 +0.0000000000000000e+00 -1.1609286590952600e+01 -2.9580131542453831e-02 -5.6498741561787036e-01 +5.6688346225527327e-03
-1.1699999999999999e+01 +8.1491114928576298e+00 +0.0000000000000000e+00 -1.1709366633118099e+01 -2.9580088259554878e-02 -5.6498785084612635e-01 +5.6686925383171672e-03
