# trajectory
# s[mm] rx[mm] ry[mm] rz[mm] px[rad] py[rad] pz[rad]
0.0000000000000000e+00 +7.9199999999999999e+00 +0.0000000000000000e+00 +0.0000000000000000e+00 +0.0000000000000000e+00 +0.0000000000000000e+00 +1.0000000000000000e+00
1.0000000000000001e-01 +7.9199997165625335e+00 +0.0000000000000000e+00 +9.9999999999464434e-02 -5.6687487539969516e-06 +0.0000000000000000e+00 +9.9999999998393263e-01
2.0000000000000001e-01 +7.9199988662503635e+00 +0.0000000000000000e+00 +1.9999999999571538e-01 -1.1337494080338727e-05 +0.0000000000000000e+00 +9.9999999993573063e-01
3.0000000000000004e-01 +7.9199974490638310e+00 +0.0000000000000000e+00 +2.9999999998553939e-01 -1.7006236002499494e-05 +0.0000000000000000e+00 +9.9999999985539401e-01
4.0000000000000002e-01 +7.9199954650032751e+00 +0.0000000000000000e+00 +3.9999999996572300e-01 -2.2674974555442514e-05 +0.0000000000000000e+00 +9.9999999974292275e-01
5.0000000000000000e-01 +7.9199929140690308e+00 +0.0000000000000000e+00 +4.9999999993305277e-01 -2.8343709785620130e-05 +0.0000000000000000e+00 +9.9999999959831709e-01
5.9999999999999998e-01 +7.9199897962614267e+00 +0.0000000000000000e+00 +5.9999999988431529e-01 -3.4012441750973745e-05 +0.0000000000000000e+00 +9.9999999942157691e-01
6.9999999999999996e-01 +7.9199861115807870e+00 +0.0000000000000000e+00 +6.9999999981629701e-01 -3.9681170520933774e-05 +0.0000000000000000e+00 +9.9999999921270233e-01
7.9999999999999993e-01 +7.9199818600274270e+00 +0.0000000000000000e+00 +7.9999999972578462e-01 -4.5349896176419582e-05 +0.0000000000000000e+00 +9.9999999897169345e-01
8.9999999999999991e-01 +7.9199770416016531e+00 +0.0000000000000000e+00 +8.9999999960956456e-01 -5.1018618809839401e-05 +0.0000000000000000e+00 +9.9999999869855027e-01
9.9999999999999989e-01 +7.9199716563037628e+00 +0.0000000000000000e+00 +9.9999999946442353e-01 -5.6687338525090245e-05 +0.0000000000000000e+00 +9.9999999839327280e-01
1.0999999999999999e+00 +7.9199657041340421e+00 +0.0000000000000000e+00 +1.0999999992871481e+00 -6.2356055437557781e-05 +0.0000000000000000e+00 +9.9999999805586115e-01
1.2000000000000000e+00 +7.9199591850927646e+00 +0.0000000000000000e+00 +1.1999999990745247e+00 -6.8024769674116187e-05 +0.0000000000000000e+00 +9.9999999768631531e-01
1.3000000000000000e+00 +7.9199520991801915e+00 +0.0000000000000000e+00 +1.2999999988233399e+00 -7.3693481373128045e-05 +0.0000000000000000e+00 +9.9999999728463540e-01
1.4000000000000001e+00 +7.9199444463965696e+00 +0.0000000000000000e+00 +1.3999999985303806e+00 -7.9362190684444136e-05 +0.0000000000000000e+00 +9.9999999685082130e-01
1.5000000000000002e+00 +7.9199362267421289e+00 +0.0000000000000000e+00 +1.4999999981924330e+00 -8.5030897769403243e-05 +0.0000000000000000e+00 +9.9999999638487314e-01
1.6000000000000003e+00 +7.9199274402170845e+00 +0.0000000000000000e+00 +1.5999999978062840e+00 -9.0699602800832003e-05 +0.0000000000000000e+00 +9.9999999588679089e-01
1.7000000000000004e+00 +7.9199180868216317e+00 +0.0000000000000000e+00 +1.6999999973687201e+00 -9.6368305963044623e-05 +0.0000000000000000e+00 +9.9999999535657469e-01
1.8000000000000005e+00 +7.9199081665559481e+00 +0.0000000000000000e+00 +1.7999999968765279e+00 -1.0203700745184270e-04 +0.0000000000000000e+00 +9.9999999479422441e-01
1.9000000000000006e+00 +7.9198976794201901e+00 +0.0000000000000000e+00 +1.8999999963264940e+00 -1.0770570747451494e-04 +0.0000000000000000e+00 +9.9999999419974017e-01
2.0000000000000004e+00 +7.9198866254144944e+00 +0.0000000000000000e+00 +1.9999999957154049e+00 -1.1337440624983686e-04 +0.0000000000000000e+00 +9.9999999357312186e-01
2.1000000000000005e+00 +7.9198750045389739e+00 +0.0000000000000000e+00 +2.0999999950400472e+00 -1.1904310400699473e-04 +0.0000000000000000e+00 +9.9999999291436958e-01
2.2000000000000006e+00 +7.9198628167937191e+00 +0.0000000000000000e+00 +2.1999999942972077e+00 -1.2471180097375128e-04 +0.0000000000000000e+00 +9.9999999222348324e-01
2.3000000000000007e+00 +7.9198500621787984e+00 +0.0000000000000000e+00 +2.2999999934836728e+00 -1.3038049736461161e-04 +0.0000000000000000e+00 +9.9999999150046281e-01
2.4000000000000008e+00 +7.9198367406942589e+00 +0.0000000000000000e+00 +2.3999999925962290e+00 -1.3604919337974729e-04 +0.0000000000000000e+00 +9.9999999074530832e-01
2.5000000000000009e+00 +7.9198228523401291e+00 +0.0000000000000000e+00 +2.4999999916316633e+00 -1.4171788920499639e-04 +0.0000000000000000e+00 +9.9999998995801975e-01
2.6000000000000010e+00 +7.9198083971164186e+00 +0.0000000000000000e+00 +2.5999999905867619e+00 -1.4738658501186350e-04 +0.0000000000000000e+00 +9.9999998913859711e-01
2.7000000000000011e+00 +7.9197933750231222e+00 +0.0000000000000000e+00 +2.6999999894583118e+00 -1.5305528095751968e-04 +0.0000000000000000e+00 +9.9999998828704029e-01
2.8000000000000012e+00 +7.9197777860602177e+00 +0.0000000000000000e+00 +2.7999999882430990e+00 -1.5872397718480249e-04 +0.0000000000000000e+00 +9.9999998740334928e-01
2.9000000000000012e+00 +7.9197616302276712e+00 +0.0000000000000000e+00 +2.8999999869379103e+00 -1.6439267382221612e-04 +0.0000000000000000e+00 +9.9999998648752408e-01
3.0000000000000013e+00 +7.9197449075254358e+00 +0.0000000000000000e+00 +2.9999999855395325e+00 -1.7006137098393132e-04 +0.0000000000000000e+00 +9.9999998553956471e-01
3.1000000000000014e+00 +7.9197276179534537e+00 +0.0000000000000000e+00 +3.0999999840447523e+00 -1.7573006876978557e-04 +0.0000000000000000e+00 +9.9999998455947114e-01
3.2000000000000015e+00 +7.9197097615116583e+00 +0.0000000000000000e+00 +3.1999999824503558e+00 -1.8139876726528320e-04 +0.0000000000000000e+00 +9.9999998354724329e-01
3.3000000000000016e+00 +7.9196913381999750e+00 +0.0000000000000000e+00 +3.2999999807531299e+00 -1.8706746654159530e-04 +0.0000000000000000e+00 +9.9999998250288114e-01
3.4000000000000017e+00 +7.9196723480183220e+00 +0.0000000000000000e+00 +3.3999999789498609e+00 -1.9273616665556011e-04 +0.0000000000000000e+00 +9.9999998142638469e-01
3.5000000000000018e+00 +7.9196527909666141e+00 +0.0000000000000000e+00 +3.4999999770373358e+00 -1.9840486764968293e-04 +0.0000000000000000e+00 +9.9999998031775383e-01
3.6000000000000019e+00 +7.9196326670447617e+00 +0.0000000000000000e+00 +3.5999999750123406e+00 -2.0407356955213639e-04 +0.0000000000000000e+00 +9.9999997917698868e-01
3.7000000000000020e+00 +7.9196119762526731e+00 +0.0000000000000000e+00 +3.6999999728716624e+00 -2.0974227237676056e-04 +0.0000000000000000e+00 +9.9999997800408913e-01
3.8000000000000020e+00 +7.9195907185902561e+00 +0.0000000000000000e+00 +3.7999999706120873e+00 -2.1541097612306316e-04 +0.0000000000000000e+00 +9.9999997679905517e-01
3.9000000000000021e+00 +7.9195688940574183e+00 +0.0000000000000000e+00 +3.8999999682304023e+00 -2.2107968077621974e-04 +0.0000000000000000e+00 +9.9999997556188680e-01
4.0000000000000018e+00 +7.9195465026540717e+00 +0.0000000000000000e+00 +3.9999999657233936e+00 -2.2674838630707390e-04 +0.0000000000000000e+00 +9.9999997429258403e-01
4.1000000000000014e+00 +7.9195235443801293e+00 +0.0000000000000000e+00 +4.0999999630878481e+00 -2.3241709267280057e-04 +0.0000000000000000e+00 +9.9999997299114685e-01
4.2000000000000011e+00 +7.9195000192355112e+00 +0.0000000000000000e+00 +4.1999999603205520e+00 -2.3808579982420033e-04 +0.0000000000000000e+00 +9.9999997165757526e-01
4.3000000000000007e+00 +7.9194759272201400e+00 +0.0000000000000000e+00 +4.2999999574182919e+00 -2.4375450771299355e-04 +0.0000000000000000e+00 +9.9999997029186927e-01
4.4000000000000004e+00 +7.9194512683339457e+00 +0.0000000000000000e+00 +4.3999999543778543e+00 -2.4942321629248368e-04 +0.0000000000000000e+00 +9.9999996889402887e-01
4.5000000000000000e+00 +7.9194260425768608e+00 +0.0000000000000000e+00 +4.4999999511960258e+00 -2.5509192551755733e-04 +0.0000000000000000e+00 +9.9999996746405395e-01
4.5999999999999996e+00 +7.9194002499488221e+00 +0.0000000000000000e+00 +4.5999999478695939e+00 -2.6076063534468454e-04 +0.0000000000000000e+00 +9.9999996600194463e-01
4.6999999999999993e+00 +7.9193738904497728e+00 +0.0000000000000000e+00 +4.6999999443953442e+00 -2.6642934573191889e-04 +0.0000000000000000e+00 +9.9999996450770090e-01
4.7999999999999989e+00 +7.9193469640796588e+00 +0.0000000000000000e+00 +4.7999999407700633e+00 -2.7209805663889759e-04 +0.0000000000000000e+00 +9.9999996298132277e-01
4.8999999999999986e+00 +7.9193194708384294e+00 +0.0000000000000000e+00 +4.8999999369905378e+00 -2.7776676802684176e-04 +0.0000000000000000e+00 +9.9999996142281022e-01
4.9999999999999982e+00 +7.9192914107260384e+00 +0.0000000000000000e+00 +4.9999999330535543e+00 -2.8343547985855660e-04 +0.0000000000000000e+00 +9.9999995983216328e-01
5.0999999999999979e+00 +7.9192627837424441e+00 +0.0000000000000000e+00 +5.0999999289558993e+00 -2.8910419209843161e-04 +0.0000000000000000e+00 +9.9999995820938192e-01
5.1999999999999975e+00 +7.9192335898876065e+00 +0.0000000000000000e+00 +5.1999999246943593e+00 -2.9477290471244065e-04 +0.0000000000000000e+00 +9.9999995655446616e-01
5.2999999999999972e+00 +7.9192038291614901e+00 +0.0000000000000000e+00 +5.2999999202657211e+00 -3.0044161766814241e-04 +0.0000000000000000e+00 +9.9999995486741600e-01
5.3999999999999968e+00 +7.9191735015640621e+00 +0.0000000000000000e+00 +5.3999999156667711e+00 -3.0611033093468038e-04 +0.0000000000000000e+00 +9.9999995314823142e-01
5.4999999999999964e+00 +7.9191426070952931e+00 +0.0000000000000000e+00 +5.4999999108942959e+00 -3.1177904448278316e-04 +0.0000000000000000e+00 +9.9999995139691245e-01
5.5999999999999961e+00 +7.9191111457551564e+00 +0.0000000000000000e+00 +5.5999999059450820e+00 -3.1744775828476478e-04 +0.0000000000000000e+00 +9.9999994961345906e-01
5.6999999999999957e+00 +7.9190791175436281e+00 +0.0000000000000000e+00 +5.6999999008159161e+00 -3.2311647231452481e-04 +0.0000000000000000e+00 +9.9999994779787127e-01
5.7999999999999954e+00 +7.9190465224606870e+00 +0.0000000000000000e+00 +5.7999998955035847e+00 -3.2878518654754873e-04 +0.0000000000000000e+00 +9.9999994595014907e-01
5.8999999999999950e+00 +7.9190133605063133e+00 +0.0000000000000000e+00 +5.8999998900048745e+00 -3.3445390096090811e-04 +0.0000000000000000e+00 +9.9999994407029247e-01
5.9999999999999947e+00 +7.9189796316804895e+00 +0.0000000000000000e+00 +5.9999998843165718e+00 -3.4012261553326086e-04 +0.0000000000000000e+00 +9.9999994215830146e-01
6.0999999999999943e+00 +7.9189453359832020e+00 +0.0000000000000000e+00 +6.0999998784354634e+00 -3.4579133024480386e-04 +0.0000000000000000e+00 +9.9999994021417615e-01
6.1999999999999940e+00 +7.9189104734144369e+00 +0.0000000000000000e+00 +6.1999998723583358e+00 -3.5146004507674811e-04 +0.0000000000000000e+00 +9.9999993823791644e-01
6.2999999999999936e+00 +7.9188750439741833e+00 +0.0000000000000000e+00 +6.2999998660819756e+00 -3.5712876001079395e-04 +0.0000000000000000e+00 +9.9999993622952232e-01
6.3999999999999932e+00 +7.9188390476624315e+00 +0.0000000000000000e+00 +6.3999998596031693e+00 -3.6279747502908301e-04 +0.0000000000000000e+00 +9.9999993418899391e-01
6.4999999999999929e+00 +7.9188024844791745e+00 +0.0000000000000000e+00 +6.4999998529187035e+00 -3.6846619011419811e-04 +0.0000000000000000e+00 +9.9999993211633109e-01
6.5999999999999925e+00 +7.9187653544244068e+00 +0.0000000000000000e+00 +6.5999998460253648e+00 -3.7413490524916326e-04 +0.0000000000000000e+00 +9.9999993001153387e-01
6.6999999999999922e+00 +7.9187276574981240e+00 +0.0000000000000000e+00 +6.6999998389199398e+00 -3.7980362041744334e-04 +0.0000000000000000e+00 +9.9999992787460235e-01
6.7999999999999918e+00 +7.9186893937003227e+00 +0.0000000000000000e+00 +6.7999998315992141e+00 -3.8547233560294407e-04 +0.0000000000000000e+00 +9.9999992570553642e-01
6.8999999999999915e+00 +7.9186505630310027e+00 +0.0000000000000000e+00 +6.8999998240599751e+00 -3.9114105079001170e-04 +0.0000000000000000e+00 +9.9999992350433620e-01
6.9999999999999911e+00 +7.9186111654901650e+00 +0.0000000000000000e+00 +6.9999998162990096e+00 -3.9680976596343285e-04 +0.0000000000000000e+00 +9.9999992127100168e-01
7.0999999999999908e+00 +7.9185712010778113e+00 +0.0000000000000000e+00 +7.0999998083131040e+00 -4.0247848110843451e-04 +0.0000000000000000e+00 +9.9999991900553276e-01
7.1999999999999904e+00 +7.9185306697939453e+00 +0.0000000000000000e+00 +7.1999998000990448e+00 -4.0814719621068359e-04 +0.0000000000000000e+00 +9.9999991670792954e-01
7.2999999999999901e+00 +7.9184895716385713e+00 +0.0000000000000000e+00 +7.2999997916536188e+00 -4.1381591125628684e-04 +0.0000000000000000e+00 +9.9999991437819202e-01
7.3999999999999897e+00 +7.9184479066116964e+00 +0.0000000000000000e+00 +7.3999997829736124e+00 -4.1948462623179062e-04 +0.0000000000000000e+00 +9.9999991201632021e-01
7.4999999999999893e+00 +7.9184056747133278e+00 +0.0000000000000000e+00 +7.4999997740558122e+00 -4.2515334112418066e-04 +0.0000000000000000e+00 +9.9999990962231411e-01
7.5999999999999890e+00 +7.9183628759434743e+00 +0.0000000000000000e+00 +7.5999997648970048e+00 -4.3082205592088183e-04 +0.0000000000000000e+00 +9.9999990719617371e-01
7.6999999999999886e+00 +7.9183195103021466e+00 +0.0000000000000000e+00 +7.6999997554939759e+00 -4.3649077060975791e-04 +0.0000000000000000e+00 +9.9999990473789901e-01
7.7999999999999883e+00 +7.9182755777893563e+00 +0.0000000000000000e+00 +7.7999997458435129e+00 -4.4215948517911137e-04 +0.0000000000000000e+00 +9.9999990224749002e-01
7.8999999999999879e+00 +7.9182310784051158e+00 +0.0000000000000000e+00 +7.8999997359424023e+00 -4.4782819961768295e-04 +0.0000000000000000e+00 +9.9999989972494674e-01
7.9999999999999876e+00 +7.9181860121494383e+00 +0.0000000000000000e+00 +7.9999997257874309e+00 -4.5349691391465159e-04 +0.0000000000000000e+00 +9.9999989717026916e-01
8.0999999999999872e+00 +7.9181403790223381e+00 +0.0000000000000000e+00 +8.0999997153753842e+00 -4.5916562806015330e-04 +0.0000000000000000e+00 +9.9999989458345739e-01
8.1999999999999869e+00 +7.9180941790238313e+00 +0.0000000000000000e+00 +8.1999997047030497e+00 -4.6483434205099182e-04 +0.0000000000000000e+00 +9.9999989196451133e-01
8.2999999999999865e+00 +7.9180474121539328e+00 +0.0000000000000000e+00 +8.2999996937672140e+00 -4.7050305589634950e-04 +0.0000000000000000e+00 +9.9999988931343098e-01
8.3999999999999861e+00 +7.9180000784126561e+00 +0.0000000000000000e+00 +8.3999996825646637e+00 -4.7617176961830599e-04 +0.0000000000000000e+00 +9.9999988663021644e-01
8.4999999999999858e+00 +7.9179521778000117e+00 +0.0000000000000000e+00 +8.4999996710921852e+00 -4.8184048325183772e-04 +0.0000000000000000e+00 +9.9999988391486760e-01
8.5999999999999854e+00 +7.9179037103160068e+00 +0.0000000000000000e+00 +8.5999996593465653e+00 -4.8750919684481720e-04 +0.0000000000000000e+00 +9.9999988116738447e-01
8.6999999999999851e+00 +7.9178546759606423e+00 +0.0000000000000000e+00 +8.6999996473245904e+00 -4.9317791045801272e-04 +0.0000000000000000e+00 +9.9999987838776694e-01
8.7999999999999847e+00 +7.9178050747339119e+00 +0.0000000000000000e+00 +8.7999996350230472e+00 -4.9884662416508751e-04 +0.0000000000000000e+00 +9.9999987557601511e-01
8.8999999999999844e+00 +7.9177549066358033e+00 +0.0000000000000000e+00 +8.8999996224387221e+00 -5.0451533805259934e-04 +0.0000000000000000e+00 +9.9999987273212876e-01
8.9999999999999840e+00 +7.9177041716662924e+00 +0.0000000000000000e+00 +8.9999996095684018e+00 -5.1018405221999992e-04 +0.0000000000000000e+00 +9.9999986985610800e-01
9.0999999999999837e+00 +7.9176528698253463e+00 +0.0000000000000000e+00 +9.0999995964088729e+00 -5.1585276677963406e-04 +0.0000000000000000e+00 +9.9999986694795273e-01
9.1999999999999833e+00 +7.9176010011129190e+00 +0.0000000000000000e+00 +9.1999995829569219e+00 -5.2152148185673946e-04 +0.0000000000000000e+00 +9.9999986400766283e-01
9.2999999999999829e+00 +7.9175485655289526e+00 +0.0000000000000000e+00 +9.2999995692093353e+00 -5.2719019758944554e-04 +0.0000000000000000e+00 +9.9999986103523819e-01
9.3999999999999826e+00 +7.9174955630733743e+00 +0.0000000000000000e+00 +9.3999995551628999e+00 -5.3285891412877331e-04 +0.0000000000000000e+00 +9.9999985803067881e-01
9.4999999999999822e+00 +7.9174419937460945e+00 +0.0000000000000000e+00 +9.4999995408144002e+00 -5.3852763163863421e-04 +0.0000000000000000e+00 +9.9999985499398458e-01
9.5999999999999819e+00 +7.9173878575470082e+00 +0.0000000000000000e+00 +9.5999995261606248e+00 -5.4419635029582982e-04 +0.0000000000000000e+00 +9.9999985192515528e-01
9.6999999999999815e+00 +7.9173331544759913e+00 +0.0000000000000000e+00 +9.6999995111983601e+00 -5.4986507029005087e-04 +0.0000000000000000e+00 +9.9999984882419091e-01
9.7999999999999812e+00 +7.9172778845328997e+00 +0.0000000000000000e+00 +9.7999994959243928e+00 -5.5553379182387663e-04 +0.0000000000000000e+00 +9.9999984569109124e-01
9.8999999999999808e+00 +7.9172220477175683e+00 +0.0000000000000000e+00 +9.8999994803355076e+00 -5.6120251511277417e-04 +0.0000000000000000e+00 +9.9999984252585616e-01
9.9999999999999805e+00 +7.9171656440298106e+00 +0.0000000000000000e+00 +9.9999994644284929e+00 -5.6687124038509761e-04 +0.0000000000000000e+00 +9.9999983932848557e-01
1.0099999999999980e+01 +7.9171086734694169e+00 +0.0000000000000000e+00 +1.0099999448200133e+01 -5.7253996788132332e-04 +0.0000000000000000e+00 +9.9999983609897924e-01
1.0199999999999980e+01 +7.9170511360361520e+00 +0.0000000000000000e+00 +1.0199999431647218e+01 -5.7820869784564366e-04 +0.0000000000000000e+00 +9.9999983283733695e-01
1.0299999999999979e+01 +7.9169930317297572e+00 +0.0000000000000000e+00 +1.0299999414766530e+01 -5.8387743051756204e-04 +0.0000000000000000e+00 +9.9999982954355859e-01
1.0399999999999979e+01 +7.9169343605499503e+00 +0.0000000000000000e+00 +1.0399999397554858e+01 -5.8954616613113005e-04 +0.0000000000000000e+00 +9.9999982621764394e-01
1.0499999999999979e+01 +7.9168751224964256e+00 +0.0000000000000000e+00 +1.0499999380008987e+01 -5.9521490491494836e-04 +0.0000000000000000e+00 +9.9999982285959288e-01
1.0599999999999978e+01 +7.9168153175688545e+00 +0.0000000000000000e+00 +1.0599999362125704e+01 -6.0088364709216845e-04 +0.0000000000000000e+00 +9.9999981946940508e-01
1.0699999999999978e+01 +7.9167549457668871e+00 +0.0000000000000000e+00 +1.0699999343901796e+01 -6.0655239288049366e-04 +0.0000000000000000e+00 +9.9999981604708044e-01
1.0799999999999978e+01 +7.9166940070901513e+00 +0.0000000000000000e+00 +1.0799999325334049e+01 -6.1222114249218063e-04 +0.0000000000000000e+00 +9.9999981259261883e-01
1.0899999999999977e+01 +7.9166325015382544e+00 +0.0000000000000000e+00 +1.0899999306419248e+01 -6.1788989613404061e-04 +0.0000000000000000e+00 +9.9999980910601993e-01
1.0999999999999977e+01 +7.9165704291107835e+00 +0.0000000000000000e+00 +1.0999999287154182e+01 -6.2355865400744105e-04 +0.0000000000000000e+00 +9.9999980558728363e-01
1.1099999999999977e+01 +7.9165077898073051e+00 +0.0000000000000000e+00 +1.1099999267535635e+01 -6.2922741630830684e-04 +0.0000000000000000e+00 +9.9999980203640970e-01
1.1199999999999976e+01 +7.9164445836273671e+00 +0.0000000000000000e+00 +1.1199999247560394e+01 -6.3489618322712209e-04 +0.0000000000000000e+00 +9.9999979845339793e-01
1.1299999999999976e+01 +7.9163808105704989e+00 +0.0000000000000000e+00 +1.1299999227225245e+01 -6.4056495494893128e-04 +0.0000000000000000e+00 +9.9999979483824819e-01
1.1399999999999975e+01 +7.9163164706362110e+00 +0.0000000000000000e+00 +1.1399999206526973e+01 -6.4623373165334128e-04 +0.0000000000000000e+00 +9.9999979119096027e-01
1.1499999999999975e+01 +7.9162515638239963e+00 +0.0000000000000000e+00 +1.1499999185462364e+01 -6.5190251351452246e-04 +0.0000000000000000e+00 +9.9999978751153384e-01
1.1599999999999975e+01 +7.9161860901333307e+00 +0.0000000000000000e+00 +1.1599999164028207e+01 -6.5757130070121059e-04 +0.0000000000000000e+00 +9.9999978379996890e-01
1.1699999999999974e+01 +7.9161200495636734e+00 +0.0000000000000000e+00 +1.1699999142221285e+01 -6.6324009337670855e-04 +0.0000000000000000e+00 +9.9999978005626511e-01
1.1799999999999974e+01 +7.9160534421144675e+00 +0.0000000000000000e+00 +1.1799999120038388e+01 -6.6890889169888786e-04 +0.0000000000000000e+00 +9.9999977628042236e-01
