# multipoles
# s[mm] polynom_b[n=0][T/m^n] polynom_b[n=1][T/m^n] polynom_b[n=2][T/m^n] polynom_b[n=3][T/m^n] polynom_b[n=4][T/m^n] polynom_b[n=5][T/m^n] polynom_b[n=6][T/m^n] 
+0.0000000000000000e+00 -5.9275154810089103e-01 +8.1224203225355787e+00 -1.9365476666323159e-01 -1.0085081958577264e+01 +1.8241059371717640e+03 -1.0794930630295241e+05 -1.1572432653925220e+07 
+1.0000000000000001e-01 -5.9275140951797123e-01 +8.1224547354281817e+00 -1.9694438703751688e-01 -1.0876225152418513e+01 +1.8753922273884264e+03 -1.0455369371404713e+05 -1.1811038591371253e+07 
+2.0000000000000001e-01 -5.9275128003864985e-01 +8.1224811197567153e+00 -2.0100087168079406e-01 -1.1547531798801655e+01 +1.9431347844285362e+03 -1.0160054925548364e+05 -1.2128468097560233e+07 
+2.9999999999999999e-01 -5.9275115949918078e-01 +8.1225000459551211e+00 -2.0573528612267383e-01 -1.2107315308330710e+01 +2.0255217672683398e+03 -9.9055237816902430e+04 -1.2516111041017864e+07 
+4.0000000000000002e-01 -5.9275104773581311e-01 +8.1225120844559733e+00 -2.1105869630361263e-01 -1.2563889089612447e+01 +2.1207413265516802e+03 -9.6883124202073421e+04 -1.2965357217420897e+07 
+5.0000000000000000e-01 -5.9275094458467426e-01 +8.1225178056916469e+00 -2.1688217115569150e-01 -1.2925566567693073e+01 +2.2269816625130666e+03 -9.5049573074735410e+04 -1.3467596646877361e+07 
+5.9999999999999998e-01 -5.9275084988193916e-01 +8.1225177801030526e+00 -2.2311677946141945e-01 -1.3200661436023085e+01 +2.3424309584979105e+03 -9.3519947487630052e+04 -1.4014219237329517e+07 
+6.9999999999999996e-01 -5.9275076346386568e-01 +8.1225125781180090e+00 -2.2967358996846171e-01 -1.3397487014084085e+01 +2.4652773930824569e+03 -9.2259612661500898e+04 -1.4596614869778922e+07 
+8.0000000000000004e-01 -5.9275068516654361e-01 +8.1225027701763075e+00 -2.3646366943279645e-01 -1.3524356971685437e+01 +2.5937090975642896e+03 -9.1233931785157358e+04 -1.5206173179187493e+07 
+9.0000000000000002e-01 -5.9275061482613067e-01 +8.1224889267092450e+00 -2.4339808989290460e-01 -1.3589584753293781e+01 +2.7259142955718544e+03 -9.0408269309127209e+04 -1.5834284222175591e+07 
+1.0000000000000000e+00 -5.9275055227879880e-01 +8.1224716181509429e+00 -2.5038792148793099e-01 -1.3601483865297793e+01 +2.8600811702740698e+03 -8.9747989390750838e+04 -1.6472337853198592e+07 
+1.1000000000000001e+00 -5.9275049736068208e-01 +8.1224514149312910e+00 -2.5734422805910945e-01 -1.3568367698790690e+01 +2.9943977818783055e+03 -8.9218456847925976e+04 -1.7111723333652601e+07 
+1.2000000000000000e+00 -5.9275044990796355e-01 +8.1224288874841442e+00 -2.6417808176295859e-01 -1.3498549742186773e+01 +3.1270523432407572e+03 -8.8785035992107092e+04 -1.7743830638179496e+07 
+1.3000000000000000e+00 -5.9275040975676652e-01 +8.1224046062301873e+00 -2.7080054814525939e-01 -1.3400343084200669e+01 +3.2562329414525252e+03 -8.8413093515063534e+04 -1.8360049140271619e+07 
+1.3999999999999999e+00 -5.9275037674330788e-01 +8.1223791416007920e+00 -2.7712269232977893e-01 -1.3282061117729697e+01 +3.3801276528309877e+03 -8.8067994372056433e+04 -1.8951768154082172e+07 
+1.5000000000000000e+00 -5.9275035070382132e-01 +8.1223530640144510e+00 -2.8305557871786696e-01 -1.3152016824382059e+01 +3.4969245433521073e+03 -8.7715106016672740e+04 -1.9510376949447159e+07 
+1.6000000000000001e+00 -5.9275033147448530e-01 +8.1223269438914336e+00 -2.8851027148342834e-01 -1.3018523222349494e+01 +3.6048116714748699e+03 -8.7319795751443875e+04 -2.0027264748017486e+07 
+1.7000000000000000e+00 -5.9275031889155461e-01 +8.1223013516463602e+00 -2.9339782689640914e-01 -1.2889893111951286e+01 +3.7019769499092263e+03 -8.6847432296033017e+04 -2.0493820084061604e+07 
+1.8000000000000000e+00 -5.9275031279132129e-01 +8.1222768576911353e+00 -2.9762930917545011e-01 -1.2774439195965472e+01 +3.7866084460756888e+03 -8.6263385003948817e+04 -2.0901432231332567e+07 
+1.8999999999999999e+00 -5.9275031301007597e-01 +8.1222540324303090e+00 -3.0111576958871683e-01 -1.2680473921185820e+01 +3.8568939861089584e+03 -8.5533024843770414e+04 -2.1241489320855189e+07 
+2.0000000000000000e+00 -5.9275031938421729e-01 +8.1222334462666819e+00 -3.0376826267334123e-01 -1.2616309641649316e+01 +3.9110214619360568e+03 -8.4621723482109679e+04 -2.1505379798872076e+07 
+2.1000000000000001e+00 -5.9275033183034109e-01 +8.1222155519344827e+00 -3.0552158640845789e-01 -1.2588499929611830e+01 +3.9476822152579443e+03 -8.3503212318026344e+04 -2.1686941901133940e+07 
+2.2000000000000002e+00 -5.9275035056506031e-01 +8.1222003629825554e+00 -3.0640041310035315e-01 -1.2597097261546589e+01 +3.9674819547098245e+03 -8.2182021696505210e+04 -2.1789333286585290e+07 
+2.2999999999999998e+00 -5.9275037587501855e-01 +8.1221877905480948e+00 -3.0645067986928870e-01 -1.2640653888868775e+01 +3.9714814434443319e+03 -8.0669765581122818e+04 -2.1817927932983045e+07 
+2.3999999999999999e+00 -5.9275040804692603e-01 +8.1221777457609043e+00 -3.0571832736653659e-01 -1.2717721875104145e+01 +3.9607415177783514e+03 -7.8978058934372384e+04 -2.1778100179629408e+07 
+2.5000000000000000e+00 -5.9275044736745819e-01 +8.1221701397530399e+00 -3.0424928947914209e-01 -1.2826853361238214e+01 +3.9363228849262860e+03 -7.7118516216844961e+04 -2.1675223747441277e+07 
+2.6000000000000001e+00 -5.9275049412325942e-01 +8.1221648836544507e+00 -3.0208950852580185e-01 -1.2966600452071370e+01 +3.8992864199982428e+03 -7.5102752002809517e+04 -2.1514673173957195e+07 
+2.7000000000000002e+00 -5.9275054860101173e-01 +8.1221618885917106e+00 -2.9928492246831151e-01 -1.3135515193218852e+01 +3.8506929194579739e+03 -7.2942381082727137e+04 -2.1301822630895656e+07 
+2.7999999999999998e+00 -5.9275061108740912e-01 +8.1221610656912411e+00 -2.9588146840123214e-01 -1.3332149643052121e+01 +3.7916031678148106e+03 -7.0649018092833605e+04 -2.1042046241387066e+07 
+2.8999999999999999e+00 -5.9275068186909918e-01 +8.1221623260765163e+00 -2.9192508911950427e-01 -1.3555055824835135e+01 +3.7230780613192505e+03 -6.8234277701816201e+04 -2.0740718666691139e+07 
+3.0000000000000000e+00 -5.9275076123274784e-01 +8.1221655808695772e+00 -2.8746172616312682e-01 -1.3802785752475749e+01 +3.6461784813698237e+03 -6.5709774513318029e+04 -2.0403214518641375e+07 
+3.1000000000000001e+00 -5.9275084946504275e-01 +8.1221707411921003e+00 -2.8253731839368146e-01 -1.4073891470526370e+01 +3.5619652615992222e+03 -6.3087122794032133e+04 -2.0034908186088443e+07 
+3.2000000000000002e+00 -5.9275094685263174e-01 +8.1221777181649646e+00 -2.7719780978089925e-01 -1.4366925054786432e+01 +3.4714993391620787e+03 -6.0377936450446396e+04 -1.9641174565781984e+07 
+3.2999999999999998e+00 -5.9275105368217518e-01 +8.1221864229041696e+00 -2.7148914431230448e-01 -1.4680438481612013e+01 +3.3758416644908389e+03 -5.7593829791311196e+04 -1.9227388646996591e+07 
+3.3999999999999999e+00 -5.9275117024032820e-01 +8.1221967665298980e+00 -2.6545726525484170e-01 -1.5012983908449410e+01 +3.2760531711448539e+03 -5.4746415877986408e+04 -1.8798925328882668e+07 
+3.5000000000000000e+00 -5.9275129681371530e-01 +8.1222086601573711e+00 -2.5914812146276495e-01 -1.5363113398995337e+01 +3.1731949154107106e+03 -5.1847308116231274e+04 -1.8361160133520398e+07 
+3.6000000000000001e+00 -5.9275143368902072e-01 +8.1222220148995614e+00 -2.5260765798323837e-01 -1.5729379034598384e+01 +3.0683278866537767e+03 -4.8908119534530393e+04 -1.7919468276727021e+07 
+3.7000000000000002e+00 -5.9275158115278936e-01 +8.1222367418708270e+00 -2.4588182656842514e-01 -1.6110332974533325e+01 +2.9625132110998029e+03 -4.5940462552286641e+04 -1.7479225646774236e+07 
+3.7999999999999998e+00 -5.9275173949166160e-01 +8.1222527521844174e+00 -2.3901657837540261e-01 -1.6504527427608611e+01 +2.8568120103285123e+03 -4.2955949008596021e+04 -1.7045808122991912e+07 
+3.8999999999999999e+00 -5.9275190899227570e-01 +8.1222699569525059e+00 -2.3205786499008171e-01 -1.6910514648897450e+01 +2.7522854249491475e+03 -3.9966190209101500e+04 -1.6624591702819664e+07 
+4.0000000000000000e+00 -5.9275208994115069e-01 +8.1222882672882477e+00 -2.2505164172890768e-01 -1.7326846996457384e+01 +2.6499946722041332e+03 -3.6982796491172492e+04 -1.6220952750214990e+07 
+4.0999999999999996e+00 -5.9275228240692523e-01 +8.1223075860709741e+00 -2.1804215442818550e-01 -1.7751948251406233e+01 +2.5508658837253697e+03 -3.4017064800672182e+04 -1.5839387193164244e+07 
+4.2000000000000002e+00 -5.9275248566996930e-01 +8.1223277751248215e+00 -2.1106661013288333e-01 -1.8183467970391067e+01 +2.4553181327044485e+03 -3.1081002925458972e+04 -1.5481133519243548e+07 
+4.2999999999999998e+00 -5.9275269883262183e-01 +8.1223486843897472e+00 -2.0416042440052526e-01 -1.8618809577486008e+01 +2.3636514501363904e+03 -2.8187199530328846e+04 -1.5146675771979401e+07 
+4.4000000000000004e+00 -5.9275292099713317e-01 +8.1223701638174468e+00 -1.9735900899406161e-01 -1.9055376806142061e+01 +2.2761657957987950e+03 -2.5348241635991959e+04 -1.4836497654708946e+07 
+4.5000000000000000e+00 -5.9275315126580708e-01 +8.1223920633653552e+00 -1.9069778307835941e-01 -1.9490573513826426e+01 +2.1931612683918588e+03 -2.2576715734004712e+04 -1.4551083526086116e+07 
+4.5999999999999996e+00 -5.9275338874082906e-01 +8.1224142330007414e+00 -1.8421216553543920e-01 -1.9921803812748305e+01 +2.1149379608371146e+03 -1.9885206997602814e+04 -1.4290917712757876e+07 
+4.7000000000000002e+00 -5.9275363252449487e-01 +8.1224365226986528e+00 -1.7793757505105193e-01 -2.0346471978423171e+01 +2.0417959580328509e+03 -1.7286299902326646e+04 -1.4056484490465699e+07 
+4.7999999999999998e+00 -5.9275388171893406e-01 +8.1224587824493515e+00 -1.7190943662502578e-01 -2.0761982702795752e+01 +1.9740354688191383e+03 -1.4792576669632484e+04 -1.3848268732745362e+07 
+4.9000000000000004e+00 -5.9275413542638955e-01 +8.1224808622472864e+00 -1.6616317394416716e-01 -2.1165740739886253e+01 +1.9119566666248602e+03 -1.2416619410130186e+04 -1.3666755113864375e+07 
+5.0000000000000000e+00 -5.9275439274895247e-01 +8.1225026121042436e+00 -1.6073421510481981e-01 -2.1555151282510710e+01 +1.8558598124027653e+03 -1.0171007960599456e+04 -1.3512428732738057e+07 
+5.0999999999999996e+00 -5.9275465278882500e-01 +8.1225238820401255e+00 -1.5565798786635543e-01 -2.1927619715924429e+01 +1.8060451580017905e+03 -8.0683212684787386e+03 -1.3385774636609308e+07 
+5.2000000000000002e+00 -5.9275491464807173e-01 +8.1225445220837820e+00 -1.5096992509246654e-01 -2.2280551615004619e+01 +1.7628130448350844e+03 -6.1211374730568241e+03 -1.3287278275640288e+07 
+5.2999999999999998e+00 -5.9275517742877337e-01 +8.1225643822839722e+00 -1.4670546082626390e-01 -2.2611353079498517e+01 +1.7264638380729054e+03 -4.3420319258634809e+03 -1.3217425214672506e+07 
+5.4000000000000004e+00 -5.9275544023298055e-01 +8.1225833127018809e+00 -1.4290003157821887e-01 -2.2917430499079824e+01 +1.6972979436258709e+03 -2.7435786070609479e+03 -1.3176701194762381e+07 
+5.5000000000000000e+00 -5.9275570216267615e-01 +8.1226011634062179e+00 -1.3958907775256019e-01 -2.3196190400195999e+01 +1.6756158391224494e+03 -1.3383510533733261e+03 -1.3165592289045760e+07 
+5.5999999999999996e+00 -5.9275596231991146e-01 +8.1226177844850387e+00 -1.3680804123664234e-01 -2.3445039813153624e+01 +1.6617180263678231e+03 -1.3892015293881403e+02 -1.3184584674506044e+07 
+5.7000000000000002e+00 -5.9275621980663207e-01 +8.1226330260436139e+00 -1.3459236478155295e-01 -2.3661386183956772e+01 +1.6559050171205583e+03 +8.4214524810926071e+02 -1.3234164554249998e+07 
+5.7999999999999998e+00 -5.9275647372473517e-01 +8.1226467381968259e+00 -1.3297750000687483e-01 -2.3842637158143109e+01 +1.6584774916408717e+03 +1.5922771089105995e+03 -1.3314818933571555e+07 
+5.9000000000000004e+00 -5.9275672317614425e-01 +8.1226587710801912e+00 -1.3199889370695289e-01 -2.3986200899469996e+01 +1.6697360286786607e+03 +2.0989100353606159e+03 -1.3427034304352852e+07 
+5.9999999999999902e+00 -5.9275696726273486e-01 +8.1226689748468974e+00 -1.3169199874898896e-01 -2.4089485837332401e+01 +1.6899813419381235e+03 +2.3494796443727660e+03 -1.3571297838494983e+07 
+6.0999999999999899e+00 -5.9275720539987942e-01 +8.1226772487501400e+00 -1.3207330885401855e-01 -2.4150745197980882e+01 +1.7192898572250251e+03 +2.3361060541041775e+03 -1.3747390188977562e+07 
+6.1999999999999904e+00 -5.9275743809857717e-01 +8.1226836666876512e+00 -1.3309404630395413e-01 -2.4171426208502886e+01 +1.7569651186808542e+03 +2.0691093933195957e+03 -1.3952686308914127e+07 
+6.2999999999999901e+00 -5.9275766610919156e-01 +8.1226883413832880e+00 -1.3469138104820452e-01 -2.4153726326689494e+01 +1.8021443190386551e+03 +1.5631924158798779e+03 -1.4184051077326160e+07 
+6.3999999999999897e+00 -5.9275789018208591e-01 +8.1226913855455276e+00 -1.3680248426832417e-01 -2.4099842585902760e+01 +1.8539646761353486e+03 +8.3305556718267223e+02 -1.4438349498705495e+07 
+6.4999999999999902e+00 -5.9275811106765341e-01 +8.1226929118719351e+00 -1.3936452284304224e-01 -2.4011971737922078e+01 +1.9115633162753577e+03 -1.0660213880649513e+02 -1.4712446117037941e+07 
+6.5999999999999899e+00 -5.9275832951633178e-01 +8.1226930330470992e+00 -1.4231465886141390e-01 -2.3892310172091253e+01 +1.9740772708320992e+03 -1.2410836499956818e+03 -1.5003205014077015e+07 
+6.6999999999999904e+00 -5.9275854627854441e-01 +8.1226918617324468e+00 -1.4559005612732559e-01 -2.3743053649233826e+01 +2.0406435975110280e+03 -2.5556953327178680e+03 -1.5307490382671673e+07 
+6.7999999999999901e+00 -5.9275876210477541e-01 +8.1226895105877279e+00 -1.4912787510007738e-01 -2.3566397906580896e+01 +2.1103992846838037e+03 -4.0357435047465128e+03 -1.5622166070872078e+07 
+6.8999999999999897e+00 -5.9275897774547626e-01 +8.1226860922425743e+00 -1.5286526897435224e-01 -2.3364537835998664e+01 +2.1824811733484021e+03 -5.6665391828701213e+03 -1.5944095201677604e+07 
+6.9999999999999902e+00 -5.9275919395115861e-01 +8.1226817193179173e+00 -1.5673939546752122e-01 -2.3139668120020641e+01 +2.2560261880830149e+03 -7.4333943625062984e+03 -1.6270141291651392e+07 
+7.0999999999999899e+00 -5.9275941147239053e-01 +8.1226765044137075e+00 -1.6068740149966279e-01 -2.2893982855016958e+01 +2.3301710389698947e+03 -9.3216242443881565e+03 -1.6597166813245008e+07 
+7.1999999999999904e+00 -5.9275963105972052e-01 +8.1226705601129598e+00 -1.6464643651081737e-01 -2.2629675704739526e+01 +2.4040524749020728e+03 -1.1316546236452774e+04 -1.6922034400719043e+07 
+7.2999999999999901e+00 -5.9275985346377080e-01 +8.1226639989792293e+00 -1.6855364511428678e-01 -2.2348939783918357e+01 +2.4768071488157602e+03 -1.3403480755135950e+04 -1.7241606223085582e+07 
+7.3999999999999897e+00 -5.9276007943512554e-01 +8.1226569335536940e+00 -1.7234616585211066e-01 -2.2053967612090439e+01 +2.5475715893515162e+03 -1.5567751373172850e+04 -1.7552743835530058e+07 
+7.4999999999999902e+00 -5.9276030972448701e-01 +8.1226494763617936e+00 -1.7596113772383545e-01 -2.1746951284106089e+01 +2.6154823262898767e+03 -1.7794683885926999e+04 -1.7852308780401040e+07 
+7.5999999999999899e+00 -5.9276054508249587e-01 +8.1226417399057915e+00 -1.7933569276787395e-01 -2.1430082278647330e+01 +2.6796757483498777e+03 -2.0069607357533718e+04 -1.8137161908598427e+07 
+7.6999999999999904e+00 -5.9276078625989626e-01 +8.1226338366627466e+00 -1.8240696160914305e-01 -2.1105551375110604e+01 +2.7392882079982319e+03 -2.2377854653961142e+04 -1.8404163874589805e+07 
+7.7999999999999901e+00 -5.9276103400745095e-01 +8.1226258790938797e+00 -1.8511206953931239e-01 -2.0775548942178276e+01 +2.7934559515996125e+03 -2.4704760728682355e+04 -1.8650174819147255e+07 
+7.8999999999999897e+00 -5.9276128907597581e-01 +8.1226179796325049e+00 -1.8738813893260139e-01 -2.0442264597586945e+01 +2.8413151558746158e+03 -2.7035664556785610e+04 -1.8872054514848489e+07 
+7.9999999999999902e+00 -5.9276155221624260e-01 +8.1226102506848594e+00 -1.8917228958816804e-01 -2.0107887442051918e+01 +2.8820019103712784e+03 -2.9355907904332642e+04 -1.9066662262618918e+07 
+8.0999999999999908e+00 -5.9276182394318166e-01 +8.1226027889499015e+00 -1.9042203980571570e-01 -1.9774383316736991e+01 +2.9149498984999859e+03 -3.1653272470843731e+04 -1.9231976812933944e+07 
+8.1999999999999904e+00 -5.9276210397902940e-01 +8.1225956420456189e+00 -1.9116354854210305e-01 -1.9442876890279841e+01 +2.9406043317473600e+03 -3.3924988769692944e+04 -1.9369750121193837e+07 
+8.2999999999999901e+00 -5.9276239187927748e-01 +8.1225888480549848e+00 -1.9143745654333022e-01 -1.9114296636766401e+01 +2.9596258433446451e+03 -3.6170561374357741e+04 -1.9482529721313309e+07 
+8.3999999999999897e+00 -5.9276268719936864e-01 +8.1225824450805142e+00 -1.9128440099601948e-01 -1.8789571658154227e+01 +2.9726750178007501e+03 -3.8389491200700075e+04 -1.9572862958005067e+07 
+8.4999999999999893e+00 -5.9276298949484951e-01 +8.1225764712297241e+00 -1.9074502144858577e-01 -1.8469631247350723e+01 +2.9804125014147958e+03 -4.0581278088295461e+04 -1.9643297511000581e+07 
+8.5999999999999908e+00 -5.9276329832114572e-01 +8.1225709646268545e+00 -1.8985995881255122e-01 -1.8155405250614283e+01 +2.9834989840937656e+03 -4.2745418641724056e+04 -1.9696381307582185e+07 
+8.6999999999999904e+00 -5.9276361323380966e-01 +8.1225659634114322e+00 -1.8866985397785879e-01 -1.7847824009733781e+01 +2.9825951738683352e+03 -4.4881406615396649e+04 -1.9734662404388696e+07 
+8.7999999999999794e+00 -5.9276393378830261e-01 +8.1225615057328966e+00 -1.8721534910834325e-01 -1.7547818206646976e+01 +2.9783618239404491e+03 -4.6988733817403801e+04 -1.9760689122957051e+07 
+8.8999999999999808e+00 -5.9276425954008738e-01 +8.1225576297530537e+00 -1.8553708693037427e-01 -1.7256318947047475e+01 +2.9714597144292297e+03 -4.9066889600497139e+04 -1.9777009950006101e+07 
+8.9999999999999805e+00 -5.9276459004470905e-01 +8.1225543736527843e+00 -1.8367571262760141e-01 -1.6974257949957455e+01 +2.9625496970418053e+03 -5.1115359775092162e+04 -1.9786173771253824e+07 
+9.0999999999999801e+00 -5.9276492485764709e-01 +8.1225517756247836e+00 -1.8167186912523439e-01 -1.6702567352574516e+01 +2.9522925989179726e+03 -5.3133627706827945e+04 -1.9790729399017967e+07 
+9.1999999999999797e+00 -5.9276526353436143e-01 +8.1225498738797004e+00 -1.7956620276947308e-01 -1.6442179858193441e+01 +2.9413493326878474e+03 -5.5121173546451580e+04 -1.9793226099466898e+07 
+9.2999999999999794e+00 -5.9276560563039782e-01 +8.1225487066415862e+00 -1.7739936197206796e-01 -1.6194028641666119e+01 +2.9303808753744106e+03 -5.7077474681774729e+04 -1.9796213504910886e+07 
+9.3999999999999808e+00 -5.9276595070124138e-01 +8.1225483121536346e+00 -1.7521199245918673e-01 -1.5959047485927941e+01 +2.9200481743395612e+03 -5.9002005034070586e+04 -1.9802241156538617e+07 
+9.4999999999999805e+00 -5.9276629830234273e-01 +8.1225487286706279e+00 -1.7304474504896994e-01 -1.5738170593178912e+01 +2.9110122940600568e+03 -6.0894236064220786e+04 -1.9813859200455841e+07 
+9.5999999999999801e+00 -5.9276664798926759e-01 +8.1225499944696811e+00 -1.7093826925747552e-01 -1.5532332877881082e+01 +2.9039343031748303e+03 -6.2753635149646187e+04 -1.9833617870878056e+07 
+9.6999999999999797e+00 -5.9276699931744758e-01 +8.1225521478433258e+00 -1.6893321738701178e-01 -1.5342469771322927e+01 +2.8994753440572126e+03 -6.4579666688348298e+04 -1.9864067801250555e+07 
+9.7999999999999794e+00 -5.9276735184245466e-01 +8.1225552271024810e+00 -1.6707024028528566e-01 -1.5169517317070797e+01 +2.8982965574589593e+03 -6.6371791541310056e+04 -1.9907759679290190e+07 
+9.8999999999999808e+00 -5.9276770511975729e-01 +8.1225592705762715e+00 -1.6538999196875009e-01 -1.5014412155010264e+01 +2.9010591702091124e+03 -6.8129467147361836e+04 -1.9967244662915722e+07 
+9.9999999999999805e+00 -5.9276805870487326e-01 +8.1225643165995933e+00 -1.6393312938588128e-01 -1.4878091477432847e+01 +2.9084244787553612e+03 -6.9852146708606044e+04 -2.0045074217744943e+07 
+1.0100000000000000e+01 -5.9276841225701637e-01 +8.1225703625757433e+00 -1.6273056320440818e-01 -1.4760746644274445e+01 +2.9208642558916931e+03 -7.1540700871213368e+04 -2.0143006862629019e+07 
