# multipoles
# s[mm] polynom_b[n=0][T/m^n] polynom_b[n=1][T/m^n] polynom_b[n=2][T/m^n] polynom_b[n=3][T/m^n] polynom_b[n=4][T/m^n] polynom_b[n=5][T/m^n] polynom_b[n=6][T/m^n] 
+0.0000000000000000e+00 -5.6443084097610730e-01 +7.7310887119961142e+00 -2.9743580873146802e-01 +1.2363022232088193e+01 -4.3090648717604527e+03 -2.4668791292364639e+05 +1.5591929508954709e+07 
+1.0000000000000001e-01 -5.6443080783363042e-01 +7.7310727511061144e+00 -2.9322938006154126e-01 +1.2891860998537123e+01 -4.3912499669641829e+03 -2.4968544280964331e+05 +1.6027094135742327e+07 
+2.0000000000000001e-01 -5.6443078463016694e-01 +7.7310576267282398e+00 -2.8840777367158416e-01 +1.3418921606399367e+01 -4.4814764053080953e+03 -2.5275280583455606e+05 +1.6492091250880023e+07 
+2.9999999999999999e-01 -5.6443077075393433e-01 +7.7310433815439685e+00 -2.8302485623564416e-01 +1.3941432864968940e+01 -4.5788903952518012e+03 -2.5587002083902879e+05 +1.6982847721386556e+07 
+4.0000000000000002e-01 -5.6443076559309091e-01 +7.7310300582322844e+00 -2.7713449752011576e-01 +1.4456623644289477e+01 -4.6826380791010151e+03 -2.5901710695348543e+05 +1.7495290081654061e+07 
+5.0000000000000000e-01 -5.6443076853587226e-01 +7.7310176994676496e+00 -2.7079056451129102e-01 +1.4961722934559113e+01 -4.7918656518745029e+03 -2.6217408394172112e+05 +1.8025345120011613e+07 
+5.9999999999999998e-01 -5.6443077897046978e-01 +7.7310063479225200e+00 -2.6404692712633671e-01 +1.5453959766688440e+01 -4.9057192456907778e+03 -2.6532097170285980e+05 +1.8568939307128899e+07 
+6.9999999999999996e-01 -5.6443079628505666e-01 +7.7309960462662000e+00 -2.5695745383271973e-01 +1.5930563255939715e+01 -5.0233450210954688e+03 -2.6843779055157129e+05 +1.9121999253167342e+07 
+8.0000000000000004e-01 -5.6443081986787680e-01 +7.7309868371676869e+00 -2.4957601201964608e-01 +1.6388762526679308e+01 -5.1438891505713354e+03 -2.7150456079051009e+05 +1.9680451600930817e+07 
+9.0000000000000002e-01 -5.6443084910712293e-01 +7.7309787632935834e+00 -2.4195647160396055e-01 +1.6825786763061103e+01 -5.2664977598531295e+03 -2.7450130296177691e+05 +2.0240222773325305e+07 
+1.0000000000000000e+00 -5.6443088339100855e-01 +7.7309718673069483e+00 -2.3415269724336452e-01 +1.7238865246607475e+01 -5.3903170679187788e+03 -2.7740803807500668e+05 +2.0797239618690107e+07 
+1.1000000000000001e+00 -5.6443092210776125e-01 +7.7309661918717936e+00 -2.2621855832343907e-01 +1.7625227245031223e+01 -5.5144932046734812e+03 -2.8020478699669556e+05 +2.1347428559769146e+07 
+1.2000000000000000e+00 -5.6443096464564146e-01 +7.7309617796486130e+00 -2.1820791704161932e-01 +1.7982102114490125e+01 -5.6381724312369115e+03 -2.8287157096645847e+05 +2.1886716626296848e+07 
+1.3000000000000000e+00 -5.6443101039282273e-01 +7.7309586733001892e+00 -2.1017464284592760e-01 +1.8306719163265988e+01 -5.7605008698472766e+03 -2.8538841087931208e+05 +2.2411030180148315e+07 
+1.3999999999999999e+00 -5.6443105873762589e-01 +7.7309569154853923e+00 -2.0217259728987783e-01 +1.8596307811967392e+01 -5.8806247903600579e+03 -2.8773532815204351e+05 +2.2916296274488255e+07 
+1.5000000000000000e+00 -5.6443110906823735e-01 +7.7309565488662546e+00 -1.9425564129033979e-01 +1.8848097409041497e+01 -5.9976904716218687e+03 -2.8989234370362113e+05 +2.3398441990823198e+07 
+1.6000000000000001e+00 -5.6443116077295685e-01 +7.7309576161028044e+00 -1.8647763892929628e-01 +1.9059317359255854e+01 -6.1108441300171135e+03 -2.9183947862692300e+05 +2.3853394100393668e+07 
+1.7000000000000000e+00 -5.6443121324005141e-01 +7.7309601598558331e+00 -1.7889245076394039e-01 +1.9227197078663814e+01 -6.2192320507737077e+03 -2.9355675401764206e+05 +2.4277079699369300e+07 
+1.8000000000000000e+00 -5.6443126585783288e-01 +7.7309642227854383e+00 -1.7155393251294548e-01 +1.9348966005896116e+01 -6.3220006035671931e+03 -2.9502419094429485e+05 +2.4665426258887250e+07 
+1.8999999999999999e+00 -5.6443131801456192e-01 +7.7309698475534514e+00 -1.6451594168161632e-01 +1.9421853553214003e+01 -6.4182961275824064e+03 -2.9622181021312537e+05 +2.5014361103630714e+07 
+2.0000000000000000e+00 -5.6443136909858371e-01 +7.7309770768229473e+00 -1.5783233258284288e-01 +1.9443089119282575e+01 -6.5072650175327117e+03 -2.9712963242391252e+05 +2.5319811799888022e+07 
+2.1000000000000001e+00 -5.6443141867865165e-01 +7.7309859331228319e+00 -1.5154364065934353e-01 +1.9410845114402569e+01 -6.5882742621062689e+03 -2.9773363233594701e+05 +2.5578864680476870e+07 
+2.2000000000000002e+00 -5.6443146704260161e-01 +7.7309963566976601e+00 -1.4563722669236714e-01 +1.9327139984665145e+01 -6.6615785262294312e+03 -2.9804438093795907e+05 +2.5793285636894517e+07 
+2.2999999999999998e+00 -5.6443151465740127e-01 +7.7310082667793214e+00 -1.4008718642677859e-01 +1.9194972685228894e+01 -6.7276556887491897e+03 -2.9807879662413255e+05 +2.5966021781975340e+07 
+2.3999999999999999e+00 -5.6443156199000388e-01 +7.7310215825942930e+00 -1.3486761365165365e-01 +1.9017342307600234e+01 -6.7869836664258955e+03 -2.9785379858227744e+05 +2.6100020410538211e+07 
+2.5000000000000000e+00 -5.6443160950730797e-01 +7.7310362233722651e+00 -1.2995260536440081e-01 +1.8797247827951598e+01 -6.8400403190216057e+03 -2.9738630532934819e+05 +2.6198228558744673e+07 
+2.6000000000000001e+00 -5.6443165767629855e-01 +7.7310521083456223e+00 -1.2531625549774758e-01 +1.8537688141252978e+01 -6.8873035587480463e+03 -2.9669323499910900e+05 +2.6263593497219935e+07 
+2.7000000000000002e+00 -5.6443170696393263e-01 +7.7310691567421328e+00 -1.2093265728907272e-01 +1.8241662248713354e+01 -6.9292513183677711e+03 -2.9579150635898899e+05 +2.6299062616770223e+07 
+2.7999999999999998e+00 -5.6443175783710564e-01 +7.7310872877959946e+00 -1.1677590891325537e-01 +1.7912168934160359e+01 -6.9663614343970285e+03 -2.9469803695878084e+05 +2.6307582846789874e+07 
+2.8999999999999999e+00 -5.6443181076280580e-01 +7.7311064207389339e+00 -1.1282010320525593e-01 +1.7552207041091545e+01 -6.9991118506674893e+03 -2.9342974479676690e+05 +2.6292101644418389e+07 
+3.0000000000000000e+00 -5.6443186620795571e-01 +7.7311264748043662e+00 -1.0903933864397965e-01 +1.7164775330593802e+01 -7.0279804004901180e+03 -2.9200354745792947e+05 +2.6255565937007774e+07 
+3.1000000000000001e+00 -5.6443192463948699e-01 +7.7311473692273331e+00 -1.0540770855480110e-01 +1.6752872486390118e+01 -7.0534450222985306e+03 -2.9043636217106500e+05 +2.6200923175504826e+07 
+3.2000000000000002e+00 -5.6443198652435278e-01 +7.7311690232414128e+00 -1.0189931104253476e-01 +1.6319497204066039e+01 -7.0759835628095971e+03 -2.8874510633866704e+05 +2.6131120376142189e+07 
+3.2999999999999998e+00 -5.6443205232948579e-01 +7.7311913560864287e+00 -9.8488242726839509e-02 +1.5867647964156424e+01 -7.0960739042375981e+03 -2.8694669623442390e+05 +2.6049104749152575e+07 
+3.3999999999999999e+00 -5.6443212252177444e-01 +7.7312142869987781e+00 -9.5148603224726083e-02 +1.5400323319304009e+01 -7.1141938696516572e+03 -2.8505804870155564e+05 +2.5957823223231949e+07 
+3.5000000000000000e+00 -5.6443219756818030e-01 +7.7312377352204606e+00 -9.1854489564082695e-02 +1.4920521605569222e+01 -7.1308213373455128e+03 -2.8309607942399388e+05 +2.5860223011853751e+07 
+3.6000000000000001e+00 -5.6443227793561912e-01 +7.7312616199907378e+00 -8.8580001007082257e-02 +1.4431241211353344e+01 -7.1464341490071274e+03 -2.8107770457283925e+05 +2.5759251177398730e+07 
+3.7000000000000002e+00 -5.6443236409094999e-01 +7.7312858605518304e+00 -8.5299240971753149e-02 +1.3935480392358828e+01 -7.1615100672349918e+03 -2.7901983970820892e+05 +2.5657854412837651e+07 
+3.7999999999999998e+00 -5.6443245650112639e-01 +7.7313103761509820e+00 -8.1986307899697977e-02 +1.3436237215656925e+01 -7.1765269561776358e+03 -2.7693939946837345e+05 +2.5558979920999281e+07 
+3.8999999999999999e+00 -5.6443255563300421e-01 +7.7313350860327157e+00 -7.8615305432609930e-02 +1.2936509773667686e+01 -7.1919625848760943e+03 -2.7485329880806553e+05 +2.5465574469648749e+07 
+4.0000000000000000e+00 -5.6443266195351227e-01 +7.7313599094457981e+00 -7.5160338904664656e-02 +1.2439296000150248e+01 -7.2082946959370702e+03 -2.7277845202046185e+05 +2.5380584724689309e+07 
+4.0999999999999996e+00 -5.6443277580490425e-01 +7.7313847731883341e+00 -7.1600719338628299e-02 +1.1947006722298241e+01 -7.2259293558693080e+03 -2.7072830903505703e+05 +2.5306500966990601e+07 
+4.2000000000000002e+00 -5.6443289703252042e-01 +7.7314096342232412e+00 -6.7936600759179316e-02 +1.1459642191968406e+01 -7.2449734835409963e+03 -2.6870142175528861e+05 +2.5243908549175669e+07 
+4.2999999999999998e+00 -5.6443302535783779e-01 +7.7314344570779827e+00 -6.4173348963462398e-02 +1.0976582470247138e+01 -7.2654560712208659e+03 -2.6669234670403355e+05 +2.5192895370754339e+07 
+4.4000000000000004e+00 -5.6443316050232584e-01 +7.7314592062937901e+00 -6.0316327379093940e-02 +1.0497207240289312e+01 -7.2874061517567434e+03 -2.6469563822747784e+05 +2.5153549502836782e+07 
+4.5000000000000000e+00 -5.6443330218745214e-01 +7.7314838464031173e+00 -5.6370898062476492e-02 +1.0020896477535246e+01 -7.3108527902221103e+03 -2.6270585243145254e+05 +2.5125959176255617e+07 
+4.5999999999999996e+00 -5.6443345013464430e-01 +7.7315083419466930e+00 -5.2342424357506280e-02 +9.5470299539841186e+00 -7.3358250245576082e+03 -2.6071754429617419e+05 +2.5110212475030355e+07 
+4.7000000000000002e+00 -5.6443360406538190e-01 +7.7315326574591170e+00 -4.8236269127301265e-02 +9.0749876510818339e+00 -7.3623519042279804e+03 -2.5872527005132189e+05 +2.5106397534127928e+07 
+4.7999999999999998e+00 -5.6443376370110299e-01 +7.7315567574831423e+00 -4.4057796289088125e-02 +8.6041493653773298e+00 -7.3904624568482177e+03 -2.5672358493522613e+05 +2.5114602367104806e+07 
+4.9000000000000004e+00 -5.6443392876323351e-01 +7.7315806065589756e+00 -3.9812367169724708e-02 +8.1338950045445646e+00 -7.4201857601911688e+03 -2.5470704486860574e+05 +2.5134915218444344e+07 
+5.0000000000000000e+00 -5.6443409897323560e-01 +7.7316041692320674e+00 -3.5505344654077987e-02 +7.6636043741660753e+00 -7.4515508607153497e+03 -2.5267020524790761e+05 +2.5167424164321329e+07 
+5.0999999999999996e+00 -5.6443427405253854e-01 +7.7316274100427309e+00 -3.1142087584383107e-02 +7.1926574760557553e+00 -7.4845868862739662e+03 -2.5060762264836836e+05 +2.5212217668804646e+07 
+5.2000000000000002e+00 -5.6443445372258827e-01 +7.7316502935412341e+00 -2.6727959386187158e-02 +6.7204340773043905e+00 -7.5193228723434859e+03 -2.4851385235623721e+05 +2.5269383727835990e+07 
+5.2999999999999998e+00 -5.6443463770480573e-01 +7.7316727842719946e+00 -2.2268321732278582e-02 +6.2463141706101935e+00 -7.5557878906078431e+03 -2.4638345102437754e+05 +2.5339010502423026e+07 
+5.4000000000000004e+00 -5.6443482572062897e-01 +7.7316948467851088e+00 -1.7768533344555321e-02 +5.7696776362792610e+00 -7.5940110689726853e+03 -2.4421097469767605e+05 +2.5421186407482542e+07 
+5.5000000000000000e+00 -5.6443501749143887e-01 +7.7317164456302443e+00 -1.3233955632974938e-02 +5.2899044386170573e+00 -7.6340214828945673e+03 -2.4199098000021983e+05 +2.5515999588467717e+07 
+5.5999999999999996e+00 -5.6443521273866393e-01 +7.7317375453616775e+00 -8.6699496872895236e-03 +4.8063744569000768e+00 -7.6758482157813942e+03 -2.3971802308029219e+05 +2.5623538217131961e+07 
+5.7000000000000002e+00 -5.6443541118370844e-01 +7.7317581105323807e+00 -4.0818722874388985e-03 +4.3184676872565220e+00 -7.7195204287226034e+03 -2.3738666086953247e+05 +2.5743890807714988e+07 
+5.7999999999999998e+00 -5.6443561254799068e-01 +7.7317781056964430e+00 +5.2491656893767025e-04 +3.8255641544188146e+00 -7.7650672276778050e+03 -2.3499145050496692e+05 +2.5877145610711806e+07 
+5.9000000000000004e+00 -5.6443581655289610e-01 +7.7317974954138995e+00 +5.1450567475362138e-03 +3.3270437873718963e+00 -7.8125177093765142e+03 -2.3252694864156030e+05 +2.6023390795042045e+07 
+5.9999999999999902e+00 -5.6443602291982131e-01 +7.7318162442422151e+00 +9.7731909284149380e-03 +2.8222866647355178e+00 -7.8619010278599662e+03 -2.2998771285197951e+05 +2.6182714798869815e+07 
+6.0999999999999899e+00 -5.6443623133418408e-01 +7.7318343199086206e+00 +1.4400359425770209e-02 +2.3112295077685476e+00 -7.9131649326973675e+03 -2.2737235254971587e+05 +2.6354804676591642e+07 
+6.1999999999999904e+00 -5.6443644133232540e-01 +7.7318517055167337e+00 +1.9002291086997261e-02 +1.7959314976535155e+00 -7.9659383929372252e+03 -2.2469516415165688e+05 +2.6537828861453358e+07 
+6.2999999999999901e+00 -5.6443665241192120e-01 +7.7318683886293211e+00 +2.3550654476765881e-02 +1.2789619008312283e+00 -8.0197721341862971e+03 -2.2197426931989624e+05 +2.6729596557809163e+07 
+6.3999999999999897e+00 -5.6443686407071558e-01 +7.7318843568118476e+00 +2.8017115219450956e-02 +7.6288996713112522e-01 -8.0742168280648539e+03 -2.1922778963371890e+05 +2.6927916736978989e+07 
+6.4999999999999902e+00 -5.6443707580629521e-01 +7.7318995976371321e+00 +3.2373336227957898e-02 +2.5028479835064632e-01 -8.1288230962977841e+03 -2.1647384583859207e+05 +2.7130598153190028e+07 
+6.5999999999999899e+00 -5.6443728711637875e-01 +7.7319140986760138e+00 +3.6590977514466799e-02 -2.5628441184458634e-01 -8.1831415012883781e+03 -2.1373055914114838e+05 +2.7335449287483323e+07 
+6.6999999999999904e+00 -5.6443749749864203e-01 +7.7319278475099962e+00 +4.0641696645355073e-02 -7.5424870369885177e-01 -8.2367225611515569e+03 -2.1101604943536539e+05 +2.7540278435084905e+07 
+6.7999999999999901e+00 -5.6443770645063385e-01 +7.7319408317217668e+00 +4.4497147787832599e-02 -1.2410391050009040e+00 -8.2891167277271597e+03 -2.0834843663784713e+05 +2.7742893592511740e+07 
+6.8999999999999897e+00 -5.6443791347002925e-01 +7.7319530388994373e+00 +4.8128982110340023e-02 -1.7140867294172706e+00 -8.3398743938624648e+03 -2.0574584018636102e+05 +2.7941102490801048e+07 
+6.9999999999999902e+00 -5.6443811805445265e-01 +7.7319644566359020e+00 +5.1508846645963523e-02 -2.1708227813287566e+00 -8.3885458759789071e+03 -2.0322637893579790e+05 +2.8132712527098138e+07 
+7.0999999999999899e+00 -5.6443831970144875e-01 +7.7319750725296448e+00 +5.4608387385999657e-02 -2.6086785505902146e+00 -8.4346814664836147e+03 -2.0080817126678114e+05 +2.8315530995132793e+07 
+7.1999999999999904e+00 -5.6443851790856603e-01 +7.7319848741825608e+00 +5.7399242743001559e-02 -3.0250853693187798e+00 -8.4778313159474856e+03 -1.9850933526900483e+05 +2.8487364543526556e+07 
+7.2999999999999901e+00 -5.6443871217341501e-01 +7.7319938492035822e+00 +5.9853053396362141e-02 -3.4174747008887651e+00 -8.5175456146614160e+03 -1.9634798827314150e+05 +2.8646020026747379e+07 
+7.3999999999999897e+00 -5.6443890199352575e-01 +7.7320019852047004e+00 +6.1941452183450547e-02 -3.7832780363886731e+00 -8.5533744050068235e+03 -1.9434224740140341e+05 +2.8789303624153301e+07 
+7.4999999999999902e+00 -5.6443908686638233e-01 +7.7320092698039815e+00 +6.3636067893090745e-02 -4.1199269723767626e+00 -8.5848676502061717e+03 -1.9251022914117997e+05 +2.8915021158995006e+07 
+7.5999999999999899e+00 -5.6443926628952523e-01 +7.7320156906290229e+00 +6.4908527839965285e-02 -4.4248533093249574e+00 -8.6115752846497744e+03 -1.9087004877987012e+05 +2.9020978342882492e+07 
+7.6999999999999904e+00 -5.6443943976041511e-01 +7.7320212353049902e+00 +6.5730454541163913e-02 -4.6954887053699608e+00 -8.6330471511599699e+03 -1.8943982239722952e+05 +2.9104980479659751e+07 
+7.7999999999999901e+00 -5.6443960677657301e-01 +7.7320258914668898e+00 +6.6073465784142388e-02 -4.9292650319338609e+00 -8.6488330003612591e+03 -1.8823766479654584e+05 +2.9164832456420131e+07 
+7.8999999999999897e+00 -5.6443976683539165e-01 +7.7320296467588827e+00 +6.5909175314775179e-02 -5.1236143489546055e+00 -8.6584825060821840e+03 -1.8728168966662380e+05 +2.9198338827480640e+07 
+7.9999999999999902e+00 -5.6443991943431016e-01 +7.7320324888271257e+00 +6.5209194125855921e-02 -5.2759687288656183e+00 -8.6615452916780887e+03 -1.8659001043980630e+05 +2.9203303948186584e+07 
+8.0999999999999908e+00 -5.6444006425575244e-01 +7.7320344134254171e+00 +6.3950444599502262e-02 -5.3847638624529264e+00 -8.6576438546946847e+03 -1.8617342777142677e+05 +2.9177978608686410e+07 
+8.1999999999999904e+00 -5.6444020174246345e-01 +7.7320354526856798e+00 +6.2133542012171250e-02 -5.4523761351141200e+00 -8.6466971593523504e+03 -1.8601513909310923e+05 +2.9122305194596309e+07 
+8.2999999999999901e+00 -5.6444033253215875e-01 +7.7320356489719497e+00 +5.9765587250866503e-02 -5.4821614853917815e+00 -8.6286989845145345e+03 -1.8609176685231840e+05 +2.9036626898528796e+07 
+8.3999999999999897e+00 -5.6444045726258285e-01 +7.7320350446555146e+00 +5.6853690525414863e-02 -5.4774761726153862e+00 -8.6036432940457307e+03 -1.8637993186793360e+05 +2.8921287803612616e+07 
+8.4999999999999893e+00 -5.6444057657153701e-01 +7.7320336821126538e+00 +5.3404964368339303e-02 -5.4416767219175490e+00 -8.5715241087866798e+03 -1.8685625350875867e+05 +2.8776632282872170e+07 
+8.5999999999999908e+00 -5.6444069109680184e-01 +7.7320316037231906e+00 +4.9426527507396449e-02 -5.3781198675087136e+00 -8.5323355738025530e+03 -1.8749735009553691e+05 +2.8603005298556473e+07 
+8.6999999999999904e+00 -5.6444080147623910e-01 +7.7320288518714868e+00 +4.4925503880869806e-02 -5.2901626061308997e+00 -8.4860719427962322e+03 -1.8827983852938580e+05 +2.8400752336404976e+07 
+8.7999999999999794e+00 -5.6444090834771365e-01 +7.7320254689476329e+00 +3.9909023630447460e-02 -5.1811622251894471e+00 -8.4327275985257966e+03 -1.8918033416078586e+05 +2.8170219506908491e+07 
+8.8999999999999808e+00 -5.6444101234908328e-01 +7.7320214973485024e+00 +3.4384221839151692e-02 -5.0544763356506719e+00 -8.3722970285468200e+03 -1.9017545060792653e+05 +2.7911753427829348e+07 
+8.9999999999999805e+00 -5.6444111411828157e-01 +7.7320169794704299e+00 +2.8358238079468540e-02 -4.9134626641637507e+00 -8.3047748136492519e+03 -1.9124180096539686e+05 +2.7625701160266928e+07 
+9.0999999999999801e+00 -5.6444121429326632e-01 +7.7320119577222890e+00 +2.1838221130415118e-02 -4.7614794532489872e+00 -8.2301557222245938e+03 -1.9235599543149915e+05 +2.7312410670405343e+07 
+9.1999999999999797e+00 -5.6444131351198945e-01 +7.7320064745140789e+00 +1.4831324673447173e-02 -4.6018851063789219e+00 -8.1484346259270233e+03 -1.9349464346445087e+05 +2.6972230420782957e+07 
+9.2999999999999794e+00 -5.6444141241248769e-01 +7.7320005722591523e+00 +7.3447088809555326e-03 -4.4380382734390116e+00 -8.0596065319445306e+03 -1.9463435322609666e+05 +2.6605509527828183e+07 
+9.3999999999999808e+00 -5.6444151163279321e-01 +7.7319942933799046e+00 -6.1446104485358727e-04 -4.2732980204167790e+00 -7.9636665526571169e+03 -1.9575173060817324e+05 +2.6212597611179620e+07 
+9.4999999999999805e+00 -5.6444161181098873e-01 +7.7319876803013736e+00 -9.0390105687459445e-03 -4.1110236465416206e+00 -7.8606099924237697e+03 -1.9682338029922466e+05 +2.5793845219027244e+07 
+9.5999999999999801e+00 -5.6444171358511375e-01 +7.7319807754563685e+00 -1.7921761311833543e-02 -3.9545748319092406e+00 -7.7504322358235895e+03 -1.9782590493895664e+05 +2.5349603274035353e+07 
+9.6999999999999797e+00 -5.6444181759342071e-01 +7.7319736212807140e+00 -2.7255522412887735e-02 -3.8073115048535606e+00 -7.6331289236832281e+03 -1.9873590589935044e+05 +2.4880223945829123e+07 
+9.7999999999999794e+00 -5.6444192447401720e-01 +7.7319662602154704e+00 -3.7033101439098014e-02 -3.6725939221963992e+00 -7.5086957322037561e+03 -1.9952998277748117e+05 +2.4386059559043687e+07 
+9.8999999999999808e+00 -5.6444203486515254e-01 +7.7319587347144232e+00 -4.7247295228225274e-02 -3.5537828738611879e+00 -7.3771285602436446e+03 -2.0018473226649448e+05 +2.3867463521460302e+07 
+9.9999999999999805e+00 -5.6444214940507587e-01 +7.7319510872264026e+00 -5.7890894660481571e-02 -3.4542391103359704e+00 -7.2384234217886760e+03 -2.0067675178195469e+05 +2.3324789748969395e+07 
+1.0100000000000000e+01 -5.6444226873553671e-01 +7.7319433850412489e+00 -6.8945290037173562e-02 -3.3772722672404876e+00 -7.0927444599754490e+03 -2.0098478585477694e+05 +2.2758880957501281e+07 
