# trajectory
# s[mm] rx[mm] ry[mm] rz[mm] px[rad] py[rad] pz[rad]
0.0000000000000000e+00 +8.1649999999999991e+00 +0.0000000000000000e+00 +0.0000000000000000e+00 +0.0000000000000000e+00 +0.0000000000000000e+00 +1.0000000000000000e+00
1.0000000000000001e-01 +8.1649997169723374e+00 +0.0000000000000000e+00 +9.9999999999465961e-02 -5.6605532960479857e-06 +0.0000000000000000e+00 +9.9999999998397904e-01
2.0000000000000001e-01 +8.1649988678893326e+00 +0.0000000000000000e+00 +1.9999999999572773e-01 -1.1321106852492475e-05 +0.0000000000000000e+00 +9.9999999993591626e-01
3.0000000000000004e-01 +8.1649974527509599e+00 +0.0000000000000000e+00 +2.9999999998558113e-01 -1.6981660635983824e-05 +0.0000000000000000e+00 +9.9999999985581156e-01
4.0000000000000002e-01 +8.1649954715571980e+00 +0.0000000000000000e+00 +3.9999999996582197e-01 -2.2642214624137745e-05 +0.0000000000000000e+00 +9.9999999974366505e-01
5.0000000000000000e-01 +8.1649929243080273e+00 +0.0000000000000000e+00 +4.9999999993324606e-01 -2.8302768805535386e-05 +0.0000000000000000e+00 +9.9999999959947661e-01
5.9999999999999998e-01 +8.1649898110034300e+00 +0.0000000000000000e+00 +5.9999999988464925e-01 -3.3963323179723373e-05 +0.0000000000000000e+00 +9.9999999942324636e-01
6.9999999999999996e-01 +8.1649861316433849e+00 +0.0000000000000000e+00 +6.9999999981682726e-01 -3.9623877757213860e-05 +0.0000000000000000e+00 +9.9999999921497418e-01
7.9999999999999993e-01 +8.1649818862278707e+00 +0.0000000000000000e+00 +7.9999999972657598e-01 -4.5284432559484537e-05 +0.0000000000000000e+00 +9.9999999897466008e-01
8.9999999999999991e-01 +8.1649770747568642e+00 +0.0000000000000000e+00 +8.9999999961069121e-01 -5.0944987618978649e-05 +0.0000000000000000e+00 +9.9999999870230416e-01
9.9999999999999989e-01 +8.1649716972303370e+00 +0.0000000000000000e+00 +9.9999999946596874e-01 -5.6605542979104967e-05 +0.0000000000000000e+00 +9.9999999839790632e-01
1.0999999999999999e+00 +8.1649657536482572e+00 +0.0000000000000000e+00 +1.0999999992892044e+00 -6.2266098694237776e-05 +0.0000000000000000e+00 +9.9999999806146656e-01
1.2000000000000000e+00 +8.1649592440105856e+00 +0.0000000000000000e+00 +1.1999999990771941e+00 -6.7926654829716845e-05 +0.0000000000000000e+00 +9.9999999769298487e-01
1.3000000000000000e+00 +8.1649521683172761e+00 +0.0000000000000000e+00 +1.2999999988267334e+00 -7.3587211461847326e-05 +0.0000000000000000e+00 +9.9999999729246125e-01
1.4000000000000001e+00 +8.1649445265682736e+00 +0.0000000000000000e+00 +1.3999999985346183e+00 -7.9247768677899742e-05 +0.0000000000000000e+00 +9.9999999685989571e-01
1.5000000000000002e+00 +8.1649363187635178e+00 +0.0000000000000000e+00 +1.4999999981976444e+00 -8.4908326576109845e-05 +0.0000000000000000e+00 +9.9999999639528814e-01
1.6000000000000003e+00 +8.1649275449029322e+00 +0.0000000000000000e+00 +1.5999999978126078e+00 -9.0568885265678530e-05 +0.0000000000000000e+00 +9.9999999589863864e-01
1.7000000000000004e+00 +8.1649182049864333e+00 +0.0000000000000000e+00 +1.6999999973763040e+00 -9.6229444866771733e-05 +0.0000000000000000e+00 +9.9999999536994710e-01
1.8000000000000005e+00 +8.1649082990139235e+00 +0.0000000000000000e+00 +1.7999999968855291e+00 -1.0189000551052025e-04 +0.0000000000000000e+00 +9.9999999480921353e-01
1.9000000000000006e+00 +8.1648978269852908e+00 +0.0000000000000000e+00 +1.8999999963370788e+00 -1.0755056733901965e-04 +0.0000000000000000e+00 +9.9999999421643793e-01
2.0000000000000004e+00 +8.1648867889004109e+00 +0.0000000000000000e+00 +1.9999999957277488e+00 -1.1321113050533004e-04 +0.0000000000000000e+00 +9.9999999359162017e-01
2.1000000000000005e+00 +8.1648751847591399e+00 +0.0000000000000000e+00 +2.0999999950543349e+00 -1.1887169517271566e-04 +0.0000000000000000e+00 +9.9999999293476027e-01
2.2000000000000006e+00 +8.1648630145613197e+00 +0.0000000000000000e+00 +2.1999999943136328e+00 -1.2453226150628197e-04 +0.0000000000000000e+00 +9.9999999224585812e-01
2.3000000000000007e+00 +8.1648502783067762e+00 +0.0000000000000000e+00 +2.2999999935024382e+00 -1.3019282966461270e-04 +0.0000000000000000e+00 +9.9999999152491370e-01
2.4000000000000008e+00 +8.1648369759953194e+00 +0.0000000000000000e+00 +2.3999999926175475e+00 -1.3585339979900975e-04 +0.0000000000000000e+00 +9.9999999077192703e-01
2.5000000000000009e+00 +8.1648231076267450e+00 +0.0000000000000000e+00 +2.4999999916557556e+00 -1.4151397205349308e-04 +0.0000000000000000e+00 +9.9999998998689799e-01
2.6000000000000010e+00 +8.1648086732008327e+00 +0.0000000000000000e+00 +2.5999999906138589e+00 -1.4717454656480077e-04 +0.0000000000000000e+00 +9.9999998916982658e-01
2.7000000000000011e+00 +8.1647936727173516e+00 +0.0000000000000000e+00 +2.6999999894886528e+00 -1.5283512346238908e-04 +0.0000000000000000e+00 +9.9999998832071268e-01
2.8000000000000012e+00 +8.1647781061760565e+00 +0.0000000000000000e+00 +2.7999999882769333e+00 -1.5849570286843252e-04 +0.0000000000000000e+00 +9.9999998743955620e-01
2.9000000000000012e+00 +8.1647619735766899e+00 +0.0000000000000000e+00 +2.8999999869754962e+00 -1.6415628489782380e-04 +0.0000000000000000e+00 +9.9999998652635713e-01
3.0000000000000013e+00 +8.1647452749189853e+00 +0.0000000000000000e+00 +2.9999999855811370e+00 -1.6981686965817405e-04 +0.0000000000000000e+00 +9.9999998558111547e-01
3.1000000000000014e+00 +8.1647280102026638e+00 +0.0000000000000000e+00 +3.0999999840906511e+00 -1.7547745724981272e-04 +0.0000000000000000e+00 +9.9999998460383110e-01
3.2000000000000015e+00 +8.1647101794274377e+00 +0.0000000000000000e+00 +3.1999999825008349e+00 -1.8113804776578781e-04 +0.0000000000000000e+00 +9.9999998359450393e-01
3.3000000000000016e+00 +8.1646917825930103e+00 +0.0000000000000000e+00 +3.2999999808084839e+00 -1.8679864129186587e-04 +0.0000000000000000e+00 +9.9999998255313394e-01
3.4000000000000017e+00 +8.1646728196990761e+00 +0.0000000000000000e+00 +3.3999999790103939e+00 -1.9245923790653209e-04 +0.0000000000000000e+00 +9.9999998147972102e-01
3.5000000000000018e+00 +8.1646532907453242e+00 +0.0000000000000000e+00 +3.4999999771033603e+00 -1.9811983768099051e-04 +0.0000000000000000e+00 +9.9999998037426507e-01
3.6000000000000019e+00 +8.1646331957314331e+00 +0.0000000000000000e+00 +3.5999999750841787e+00 -2.0378044067916404e-04 +0.0000000000000000e+00 +9.9999997923676609e-01
3.7000000000000020e+00 +8.1646125346570795e+00 +0.0000000000000000e+00 +3.6999999729496453e+00 -2.0944104695769464e-04 +0.0000000000000000e+00 +9.9999997806722396e-01
3.8000000000000020e+00 +8.1645913075219312e+00 +0.0000000000000000e+00 +3.7999999706965557e+00 -2.1510165656594344e-04 +0.0000000000000000e+00 +9.9999997686563868e-01
3.9000000000000021e+00 +8.1645695143256543e+00 +0.0000000000000000e+00 +3.8999999683217053e+00 -2.2076226954599086e-04 +0.0000000000000000e+00 +9.9999997563201015e-01
4.0000000000000018e+00 +8.1645471550679094e+00 +0.0000000000000000e+00 +3.9999999658218899e+00 -2.2642288593263682e-04 +0.0000000000000000e+00 +9.9999997436633836e-01
4.1000000000000014e+00 +8.1645242297483538e+00 +0.0000000000000000e+00 +4.0999999631939046e+00 -2.3208350575372143e-04 +0.0000000000000000e+00 +9.9999997306862309e-01
4.2000000000000011e+00 +8.1645007383666428e+00 +0.0000000000000000e+00 +4.1999999604345462e+00 -2.3774412903365122e-04 +0.0000000000000000e+00 +9.9999997173886446e-01
4.3000000000000007e+00 +8.1644766809224301e+00 +0.0000000000000000e+00 +4.2999999575406092e+00 -2.4340475579692539e-04 +0.0000000000000000e+00 +9.9999997037706234e-01
4.4000000000000004e+00 +8.1644520574153656e+00 +0.0000000000000000e+00 +4.3999999545088899e+00 -2.4906538606845653e-04 +0.0000000000000000e+00 +9.9999996898321664e-01
4.5000000000000000e+00 +8.1644268678450977e+00 +0.0000000000000000e+00 +4.4999999513361839e+00 -2.5472601987357093e-04 +0.0000000000000000e+00 +9.9999996755732723e-01
4.5999999999999996e+00 +8.1644011122112712e+00 +0.0000000000000000e+00 +4.5999999480192866e+00 -2.6038665723800868e-04 +0.0000000000000000e+00 +9.9999996609939412e-01
4.6999999999999993e+00 +8.1643747905135307e+00 +0.0000000000000000e+00 +4.6999999445549943e+00 -2.6604729818792395e-04 +0.0000000000000000e+00 +9.9999996460941731e-01
4.7999999999999989e+00 +8.1643479027515138e+00 +0.0000000000000000e+00 +4.7999999409401024e+00 -2.7170794274988520e-04 +0.0000000000000000e+00 +9.9999996308739658e-01
4.8999999999999986e+00 +8.1643204489248600e+00 +0.0000000000000000e+00 +4.8999999371714056e+00 -2.7736859095087542e-04 +0.0000000000000000e+00 +9.9999996153333193e-01
4.9999999999999982e+00 +8.1642924290332015e+00 +0.0000000000000000e+00 +4.9999999332457001e+00 -2.8302924281829240e-04 +0.0000000000000000e+00 +9.9999995994722335e-01
5.0999999999999979e+00 +8.1642638430761725e+00 +0.0000000000000000e+00 +5.0999999291597815e+00 -2.8868989837994901e-04 +0.0000000000000000e+00 +9.9999995832907074e-01
5.1999999999999975e+00 +8.1642346910534016e+00 +0.0000000000000000e+00 +5.1999999249104460e+00 -2.9435055766407342e-04 +0.0000000000000000e+00 +9.9999995667887398e-01
5.2999999999999972e+00 +8.1642049729645141e+00 +0.0000000000000000e+00 +5.2999999204944883e+00 -3.0001122069930945e-04 +0.0000000000000000e+00 +9.9999995499663308e-01
5.3999999999999968e+00 +8.1641746888091351e+00 +0.0000000000000000e+00 +5.3999999159087047e+00 -3.0567188751471676e-04 +0.0000000000000000e+00 +9.9999995328234781e-01
5.4999999999999964e+00 +8.1641438385868845e+00 +0.0000000000000000e+00 +5.4999999111498896e+00 -3.1133255813977126e-04 +0.0000000000000000e+00 +9.9999995153601828e-01
5.5999999999999961e+00 +8.1641124222973787e+00 +0.0000000000000000e+00 +5.5999999062148396e+00 -3.1699323260436535e-04 +0.0000000000000000e+00 +9.9999994975764428e-01
5.6999999999999957e+00 +8.1640804399402338e+00 +0.0000000000000000e+00 +5.6999999011003499e+00 -3.2265391093880827e-04 +0.0000000000000000e+00 +9.9999994794722580e-01
5.7999999999999954e+00 +8.1640478915150609e+00 +0.0000000000000000e+00 +5.7999998958032162e+00 -3.2831459317382642e-04 +0.0000000000000000e+00 +9.9999994610476273e-01
5.8999999999999950e+00 +8.1640147770214675e+00 +0.0000000000000000e+00 +5.8999998903202338e+00 -3.3397527934056367e-04 +0.0000000000000000e+00 +9.9999994423025507e-01
5.9999999999999947e+00 +8.1639810964590609e+00 +0.0000000000000000e+00 +5.9999998846481990e+00 -3.3963596947058174e-04 +0.0000000000000000e+00 +9.9999994232370271e-01
6.0999999999999943e+00 +8.1639468498274415e+00 +0.0000000000000000e+00 +6.0999998787839065e+00 -3.4529666359571086e-04 +0.0000000000000000e+00 +9.9999994038510553e-01
6.1999999999999940e+00 +8.1639120371262077e+00 +0.0000000000000000e+00 +6.1999998727241517e+00 -3.5095736174640323e-04 +0.0000000000000000e+00 +9.9999993841446344e-01
6.2999999999999936e+00 +8.1638766583549565e+00 +0.0000000000000000e+00 +6.2999998664657308e+00 -3.5661806395008606e-04 +0.0000000000000000e+00 +9.9999993641177642e-01
6.3999999999999932e+00 +8.1638407135132809e+00 +0.0000000000000000e+00 +6.3999998600054386e+00 -3.6227877023101184e-04 +0.0000000000000000e+00 +9.9999993437704437e-01
6.4999999999999929e+00 +8.1638042026007724e+00 +0.0000000000000000e+00 +6.4999998533400714e+00 -3.6793948061025804e-04 +0.0000000000000000e+00 +9.9999993231026718e-01
6.5999999999999925e+00 +8.1637671256170208e+00 +0.0000000000000000e+00 +6.5999998464664236e+00 -3.7360019510572690e-04 +0.0000000000000000e+00 +9.9999993021144484e-01
6.6999999999999922e+00 +8.1637294825616138e+00 +0.0000000000000000e+00 +6.6999998393812916e+00 -3.7926091373214526e-04 +0.0000000000000000e+00 +9.9999992808057725e-01
6.7999999999999918e+00 +8.1636912734341358e+00 +0.0000000000000000e+00 +6.7999998320814710e+00 -3.8492163650106424e-04 +0.0000000000000000e+00 +9.9999992591766429e-01
6.8999999999999915e+00 +8.1636524982341747e+00 +0.0000000000000000e+00 +6.8999998245637562e+00 -3.9058236342085899e-04 +0.0000000000000000e+00 +9.9999992372270596e-01
6.9999999999999911e+00 +8.1636131569613131e+00 +0.0000000000000000e+00 +6.9999998168249435e+00 -3.9624309449672848e-04 +0.0000000000000000e+00 +9.9999992149570216e-01
7.0999999999999908e+00 +8.1635732496151370e+00 +0.0000000000000000e+00 +7.0999998088618286e+00 -4.0190382973069523e-04 +0.0000000000000000e+00 +9.9999991923665277e-01
7.1999999999999904e+00 +8.1635327761952290e+00 +0.0000000000000000e+00 +7.1999998006712058e+00 -4.0756456912160489e-04 +0.0000000000000000e+00 +9.9999991694555779e-01
7.2999999999999901e+00 +8.1634917367011735e+00 +0.0000000000000000e+00 +7.2999997922498716e+00 -4.1322531266512608e-04 +0.0000000000000000e+00 +9.9999991462241711e-01
7.3999999999999897e+00 +8.1634501311325565e+00 +0.0000000000000000e+00 +7.3999997835946214e+00 -4.1888606035374993e-04 +0.0000000000000000e+00 +9.9999991226723062e-01
7.4999999999999893e+00 +8.1634079594889641e+00 +0.0000000000000000e+00 +7.4999997747022498e+00 -4.2454681217678989e-04 +0.0000000000000000e+00 +9.9999990987999832e-01
7.5999999999999890e+00 +8.1633652217699844e+00 +0.0000000000000000e+00 +7.5999997655695530e+00 -4.3020756812038130e-04 +0.0000000000000000e+00 +9.9999990746072009e-01
7.6999999999999886e+00 +8.1633219179752032e+00 +0.0000000000000000e+00 +7.6999997561933258e+00 -4.3586832816748105e-04 +0.0000000000000000e+00 +9.9999990500939595e-01
7.7999999999999883e+00 +8.1632780481042140e+00 +0.0000000000000000e+00 +7.7999997465703643e+00 -4.4152909229786712e-04 +0.0000000000000000e+00 +9.9999990252602577e-01
7.8999999999999879e+00 +8.1632336121566080e+00 +0.0000000000000000e+00 +7.8999997366974632e+00 -4.4718986048813833e-04 +0.0000000000000000e+00 +9.9999990001060957e-01
7.9999999999999876e+00 +8.1631886101319822e+00 +0.0000000000000000e+00 +7.9999997265714180e+00 -4.5285063271171389e-04 +0.0000000000000000e+00 +9.9999989746314721e-01
8.0999999999999872e+00 +8.1631430420299331e+00 +0.0000000000000000e+00 +8.0999997161890249e+00 -4.5851140893925311e-04 +0.0000000000000000e+00 +9.9999989488363861e-01
8.1999999999999869e+00 +8.1630969078500613e+00 +0.0000000000000000e+00 +8.1999997055470786e+00 -4.6417218914327662e-04 +0.0000000000000000e+00 +9.9999989227208386e-01
8.2999999999999865e+00 +8.1630502075919722e+00 +0.0000000000000000e+00 +8.2999996946423735e+00 -4.6983297330278765e-04 +0.0000000000000000e+00 +9.9999988962848274e-01
8.3999999999999861e+00 +8.1630029412552698e+00 +0.0000000000000000e+00 +8.3999996834717070e+00 -4.7549376140369141e-04 +0.0000000000000000e+00 +9.9999988695283526e-01
8.4999999999999858e+00 +8.1629551088395598e+00 +0.0000000000000000e+00 +8.4999996720318727e+00 -4.8115455343879449e-04 +0.0000000000000000e+00 +9.9999988424514141e-01
8.5999999999999854e+00 +8.1629067103444495e+00 +0.0000000000000000e+00 +8.5999996603196660e+00 -4.8681534940780410e-04 +0.0000000000000000e+00 +9.9999988150540098e-01
8.6999999999999851e+00 +8.1628577457695464e+00 +0.0000000000000000e+00 +8.6999996483318842e+00 -4.9247614931732743e-04 +0.0000000000000000e+00 +9.9999987873361407e-01
8.7999999999999847e+00 +8.1628082151144543e+00 +0.0000000000000000e+00 +8.7999996360653210e+00 -4.9813695318087076e-04 +0.0000000000000000e+00 +9.9999987592978046e-01
8.8999999999999844e+00 +8.1627581183787772e+00 +0.0000000000000000e+00 +8.8999996235167718e+00 -5.0379776101883893e-04 +0.0000000000000000e+00 +9.9999987309390015e-01
8.9999999999999840e+00 +8.1627074555621171e+00 +0.0000000000000000e+00 +8.9999996106830320e+00 -5.0945857285853433e-04 +0.0000000000000000e+00 +9.9999987022597303e-01
9.0999999999999837e+00 +8.1626562266640708e+00 +0.0000000000000000e+00 +9.0999995975608972e+00 -5.1511938873415638e-04 +0.0000000000000000e+00 +9.9999986732599910e-01
9.1999999999999833e+00 +8.1626044316842332e+00 +0.0000000000000000e+00 +9.1999995841471627e+00 -5.2078020868680057e-04 +0.0000000000000000e+00 +9.9999986439397814e-01
9.2999999999999829e+00 +8.1625520706221959e+00 +0.0000000000000000e+00 +9.2999995704386240e+00 -5.2644103276445748e-04 +0.0000000000000000e+00 +9.9999986142991015e-01
9.3999999999999826e+00 +8.1624991434775414e+00 +0.0000000000000000e+00 +9.3999995564320766e+00 -5.3210186102201215e-04 +0.0000000000000000e+00 +9.9999985843379502e-01
9.4999999999999822e+00 +8.1624456502498504e+00 +0.0000000000000000e+00 +9.4999995421243142e+00 -5.3776269352124315e-04 +0.0000000000000000e+00 +9.9999985540563252e-01
9.5999999999999819e+00 +8.1623915909386948e+00 +0.0000000000000000e+00 +9.5999995275121339e+00 -5.4342353033082170e-04 +0.0000000000000000e+00 +9.9999985234542266e-01
9.6999999999999815e+00 +8.1623369655436395e+00 +0.0000000000000000e+00 +9.6999995125923295e+00 -5.4908437152631061e-04 +0.0000000000000000e+00 +9.9999984925316532e-01
9.7999999999999812e+00 +8.1622817740642422e+00 +0.0000000000000000e+00 +9.7999994973616982e+00 -5.5474521719016368e-04 +0.0000000000000000e+00 +9.9999984612886039e-01
9.8999999999999808e+00 +8.1622260165000498e+00 +0.0000000000000000e+00 +9.8999994818170336e+00 -5.6040606741172448e-04 +0.0000000000000000e+00 +9.9999984297250766e-01
9.9999999999999805e+00 +8.1621696928506040e+00 +0.0000000000000000e+00 +9.9999994659551312e+00 -5.6606692228722538e-04 +0.0000000000000000e+00 +9.9999983978410711e-01
1.0099999999999980e+01 +8.1621128031154342e+00 +0.0000000000000000e+00 +1.0099999449772787e+01 -5.7172778191913335e-04 +0.0000000000000000e+00 +9.9999983656365854e-01
1.0199999999999980e+01 +8.1620553472940589e+00 +0.0000000000000000e+00 +1.0199999433266795e+01 -5.7738864640896235e-04 +0.0000000000000000e+00 +9.9999983331116182e-01
1.0299999999999979e+01 +8.1619973253859879e+00 +0.0000000000000000e+00 +1.0299999416433950e+01 -5.8304951585008659e-04 +0.0000000000000000e+00 +9.9999983002661685e-01
1.0399999999999979e+01 +8.1619387373907220e+00 +0.0000000000000000e+00 +1.0399999399271049e+01 -5.8871039032708814e-04 +0.0000000000000000e+00 +9.9999982671002341e-01
1.0499999999999979e+01 +8.1618795833077531e+00 +0.0000000000000000e+00 +1.0499999381774886e+01 -5.9437126991575826e-04 +0.0000000000000000e+00 +9.9999982336138138e-01
1.0599999999999978e+01 +8.1618198631365662e+00 +0.0000000000000000e+00 +1.0599999363942256e+01 -6.0003215468309838e-04 +0.0000000000000000e+00 +9.9999981998069065e-01
1.0699999999999978e+01 +8.1617595768766407e+00 +0.0000000000000000e+00 +1.0699999345769955e+01 -6.0569304468732115e-04 +0.0000000000000000e+00 +9.9999981656795112e-01
1.0799999999999978e+01 +8.1616987245274508e+00 +0.0000000000000000e+00 +1.0799999327254778e+01 -6.1135393997785177e-04 +0.0000000000000000e+00 +9.9999981312316266e-01
1.0899999999999977e+01 +8.1616373060884673e+00 +0.0000000000000000e+00 +1.0899999308393520e+01 -6.1701484059532928e-04 +0.0000000000000000e+00 +9.9999980964632518e-01
1.0999999999999977e+01 +8.1615753215591536e+00 +0.0000000000000000e+00 +1.0999999289182975e+01 -6.2267574657160754e-04 +0.0000000000000000e+00 +9.9999980613743855e-01
1.1099999999999977e+01 +8.1615127709389732e+00 +0.0000000000000000e+00 +1.1099999269619939e+01 -6.2833665792975664e-04 +0.0000000000000000e+00 +9.9999980259650267e-01
1.1199999999999976e+01 +8.1614496542273880e+00 +0.0000000000000000e+00 +1.1199999249701207e+01 -6.3399757468406441e-04 +0.0000000000000000e+00 +9.9999979902351743e-01
1.1299999999999976e+01 +8.1613859714238561e+00 +0.0000000000000000e+00 +1.1299999229423575e+01 -6.3965849684003730e-04 +0.0000000000000000e+00 +9.9999979541848272e-01
1.1399999999999975e+01 +8.1613217225278394e+00 +0.0000000000000000e+00 +1.1399999208783836e+01 -6.4531942439440232e-04 +0.0000000000000000e+00 +9.9999979178139853e-01
1.1499999999999975e+01 +8.1612569075387977e+00 +0.0000000000000000e+00 +1.1499999187778785e+01 -6.5098035733510791e-04 +0.0000000000000000e+00 +9.9999978811226464e-01
1.1599999999999975e+01 +8.1611915264561929e+00 +0.0000000000000000e+00 +1.1599999166405219e+01 -6.5664129564132567e-04 +0.0000000000000000e+00 +9.9999978441108106e-01
1.1699999999999974e+01 +8.1611255792794903e+00 +0.0000000000000000e+00 +1.1699999144659932e+01 -6.6230223928345191e-04 +0.0000000000000000e+00 +9.9999978067784778e-01
1.1799999999999974e+01 +8.1610590660081588e+00 +0.0000000000000000e+00 +1.1799999122539720e+01 -6.6796318822310880e-04 +0.0000000000000000e+00 +9.9999977691256459e-01
