# field on trajectory
# s[mm] rx[mm] ry[mm] rz[mm] bx[T] by[T] bz[T]
-0.0000000000000000e+00 +8.1530000000000094e+00 +0.0000000000000000e+00 -0.0000000000000000e+00 -2.8047625139742176e-02 -5.3664394971828300e-01 +5.3119043255117323e-03
-1.0000000000000001e-01 +8.1529997163925092e+00 +0.0000000000000000e+00 -9.9999999999463796e-02 -2.8047493026528578e-02 -5.3664380724206895e-01 +5.3118784794464876e-03
-2.0000000000000001e-01 +8.1529988655711296e+00 +0.0000000000000000e+00 -1.9999999999571000e-01 -2.8047355555466873e-02 -5.3664366487172355e-01 +5.3118513339536280e-03
-2.9999999999999999e-01 +8.1529974475415692e+00 +0.0000000000000000e+00 -2.9999999998552201e-01 -2.8047213477704780e-02 -5.3664352300814711e-01 +5.3118231237743192e-03
-4.0000000000000002e-01 +8.1529954622965306e+00 +0.0000000000000000e+00 -3.9999999996568197e-01 -2.8047067544393817e-02 -5.3664338205234419e-01 +5.3117940836532309e-03
-5.0000000000000000e-01 +8.1529929098396696e+00 +0.0000000000000000e+00 -4.9999999993297300e-01 -2.8046918506681267e-02 -5.3664324240524552e-01 +5.3117644483359943e-03
-5.9999999999999998e-01 +8.1529897901673394e+00 +0.0000000000000000e+00 -5.9999999988417696e-01 -2.8046767115718765e-02 -5.3664310446784058e-01 +5.3117344525698013e-03
-6.9999999999999996e-01 +8.1529861032831796e+00 +0.0000000000000000e+00 -6.9999999981607697e-01 -2.8046614122658027e-02 -5.3664296864106964e-01 +5.3117043311015771e-03
-8.0000000000000004e-01 +8.1529818491871993e+00 +0.0000000000000000e+00 -7.9999999972545699e-01 -2.8046460278656461e-02 -5.3664283532590085e-01 +5.3116743186780273e-03
-9.0000000000000002e-01 +8.1529770278793894e+00 +0.0000000000000000e+00 -8.9999999960909804e-01 -2.8046306334877192e-02 -5.3664270492330302e-01 +5.3116446500446057e-03
-1.0000000000000000e+00 +8.1529716393597500e+00 +0.0000000000000000e+00 -9.9999999946378304e-01 -2.8046153042490515e-02 -5.3664257783424307e-01 +5.3116155599447819e-03
-1.1000000000000001e+00 +8.1529656836210105e+00 +0.0000000000000000e+00 -1.0999999992862901e+00 -2.8046001152678121e-02 -5.3664245445973902e-01 +5.3115872831198015e-03
-1.2000000000000000e+00 +8.1529591606740706e+00 +0.0000000000000000e+00 -1.1999999990734200e+00 -2.8045851416624464e-02 -5.3664233520067017e-01 +5.3115600543060543e-03
-1.3000000000000000e+00 +8.1529520705153100e+00 +0.0000000000000000e+00 -1.2999999988219300e+00 -2.8045704585531083e-02 -5.3664222045801568e-01 +5.3115341082367465e-03
-1.3999999999999999e+00 +8.1529444131410909e+00 +0.0000000000000000e+00 -1.3999999985286200e+00 -2.8045561410612325e-02 -5.3664211063274780e-01 +5.3115096796400646e-03
-1.5000000000000000e+00 +8.1529361885550298e+00 +0.0000000000000000e+00 -1.4999999981902701e+00 -2.8045422643093808e-02 -5.3664200612577428e-01 +5.3114870032378797e-03
-1.6000000000000001e+00 +8.1529273967571498e+00 +0.0000000000000000e+00 -1.5999999978036501e+00 -2.8045289034218181e-02 -5.3664190733801909e-01 +5.3114663137458088e-03
-1.7000000000000000e+00 +8.1529180377474404e+00 +0.0000000000000000e+00 -1.6999999973655600e+00 -2.8045161335245095e-02 -5.3664181467039263e-01 +5.3114478458721765e-03
-1.8000000000000000e+00 +8.1529081115222706e+00 +0.0000000000000000e+00 -1.7999999968727800e+00 -2.8045040297454037e-02 -5.3664172852381753e-01 +5.3114318343175414e-03
-1.8999999999999999e+00 +8.1528976180852606e+00 +0.0000000000000000e+00 -1.8999999963220899e+00 -2.8044926672141462e-02 -5.3664164929914582e-01 +5.3114185137731309e-03
-2.0000000000000000e+00 +8.1528865574327902e+00 +0.0000000000000000e+00 -1.9999999957102601e+00 -2.8044821210627881e-02 -5.3664157739726615e-01 +5.3114081189211577e-03
-2.1000000000000001e+00 +8.1528749295721408e+00 +0.0000000000000000e+00 -2.0999999950340902e+00 -2.8044724409715394e-02 -5.3664151314252972e-01 +5.3114008395424217e-03
-2.2000000000000002e+00 +8.1528627344960096e+00 +0.0000000000000000e+00 -2.1999999942903599e+00 -2.8044635748080526e-02 -5.3664145655364037e-01 +5.3113966858505815e-03
-2.2999999999999998e+00 +8.1528499722080596e+00 +0.0000000000000000e+00 -2.2999999934758399e+00 -2.8044554449860190e-02 -5.3664140757279000e-01 +5.3113956231680423e-03
-2.3999999999999999e+00 +8.1528366427046404e+00 +0.0000000000000000e+00 -2.3999999925873299e+00 -2.8044479739192274e-02 -5.3664136614223168e-01 +5.3113976168192023e-03
-2.5000000000000000e+00 +8.1528227459894005e+00 +0.0000000000000000e+00 -2.4999999916215998e+00 -2.8044410840208481e-02 -5.3664133220417509e-01 +5.3114026321300191e-03
-2.6000000000000001e+00 +8.1528082820659602e+00 +0.0000000000000000e+00 -2.5999999905754398e+00 -2.8044346977035756e-02 -5.3664130570084234e-01 +5.3114106344292009e-03
-2.7000000000000002e+00 +8.1527932509234198e+00 +0.0000000000000000e+00 -2.6999999894456299e+00 -2.8044287373800495e-02 -5.3664128657457510e-01 +5.3114215890499314e-03
-2.7999999999999998e+00 +8.1527776525726896e+00 +0.0000000000000000e+00 -2.7999999882289601e+00 -2.8044231254612761e-02 -5.3664127476756929e-01 +5.3114354613278047e-03
-2.8999999999999999e+00 +8.1527614870065008e+00 +0.0000000000000000e+00 -2.8999999869222002e+00 -2.8044177843580632e-02 -5.3664127022217101e-01 +5.3114522166044596e-03
-3.0000000000000000e+00 +8.1527447542284808e+00 +0.0000000000000000e+00 -2.9999999855221300e+00 -2.8044126364797212e-02 -5.3664127288066532e-01 +5.3114718202260597e-03
-3.1000000000000001e+00 +8.1527274542386294e+00 +0.0000000000000000e+00 -3.0999999840255499e+00 -2.8044076042344952e-02 -5.3664128268538203e-01 +5.3114942375450235e-03
-3.2000000000000002e+00 +8.1527095870333106e+00 +0.0000000000000000e+00 -3.1999999824292300e+00 -2.8044026100294155e-02 -5.3664129957870099e-01 +5.3115194339206596e-03
-3.2999999999999998e+00 +8.1526911526198091e+00 +0.0000000000000000e+00 -3.2999999807299600e+00 -2.8043975762695763e-02 -5.3664132350294325e-01 +5.3115473747187489e-03
-3.3999999999999999e+00 +8.1526721509872004e+00 +0.0000000000000000e+00 -3.3999999789245101e+00 -2.8043924253591420e-02 -5.3664135440058980e-01 +5.3115780253143426e-03
-3.5000000000000000e+00 +8.1526525821464002e+00 +0.0000000000000000e+00 -3.4999999770096801e+00 -2.8043870796996172e-02 -5.3664139221398599e-01 +5.3116113510894404e-03
-3.6000000000000001e+00 +8.1526324460901396e+00 +0.0000000000000000e+00 -3.5999999749822500e+00 -2.8043814616912820e-02 -5.3664143688564014e-01 +5.3116473174366144e-03
-3.7000000000000002e+00 +8.1526117428220495e+00 +0.0000000000000000e+00 -3.6999999728389801e+00 -2.8043754937318942e-02 -5.3664148835800918e-01 +5.3116858897574804e-03
-3.7999999999999998e+00 +8.1525904723421299e+00 +0.0000000000000000e+00 -3.7999999705766800e+00 -2.8043690982171219e-02 -5.3664154657360852e-01 +5.3117270334644478e-03
-3.8999999999999999e+00 +8.1525686346503807e+00 +0.0000000000000000e+00 -3.8999999681921298e+00 -2.8043621975402503e-02 -5.3664161147498646e-01 +5.3117707139810734e-03
-4.0000000000000000e+00 +8.1525462297431694e+00 +0.0000000000000000e+00 -3.9999999656820902e+00 -2.8043547140921762e-02 -5.3664168300475190e-01 +5.3118168967429902e-03
-4.0999999999999996e+00 +8.1525232576241304e+00 +0.0000000000000000e+00 -4.0999999630433699e+00 -2.8043465893047650e-02 -5.3664176099606264e-01 +5.3118655315450578e-03
-4.2000000000000002e+00 +8.1524997182896204e+00 +0.0000000000000000e+00 -4.1999999602727298e+00 -2.8043378407838951e-02 -5.3664184484440058e-01 +5.3119165055801254e-03
-4.2999999999999998e+00 +8.1524756117469206e+00 +0.0000000000000000e+00 -4.2999999573669703e+00 -2.8043285051781938e-02 -5.3664193383570014e-01 +5.3119696903875585e-03
-4.4000000000000004e+00 +8.1524509379887604e+00 +0.0000000000000000e+00 -4.3999999543228601e+00 -2.8043186191362469e-02 -5.3664202725596089e-01 +5.3120249575064372e-03
-4.5000000000000000e+00 +8.1524256970187707e+00 +0.0000000000000000e+00 -4.4999999511372000e+00 -2.8043082193055884e-02 -5.3664212439105519e-01 +5.3120821784734635e-03
-4.5999999999999996e+00 +8.1523998888369498e+00 +0.0000000000000000e+00 -4.5999999478067499e+00 -2.8042973423332746e-02 -5.3664222452683674e-01 +5.3121412248237814e-03
-4.7000000000000002e+00 +8.1523735134396702e+00 +0.0000000000000000e+00 -4.6999999443283098e+00 -2.8042860248658649e-02 -5.3664232694913327e-01 +5.3122019680907871e-03
-4.7999999999999998e+00 +8.1523465708305594e+00 +0.0000000000000000e+00 -4.7999999406986600e+00 -2.8042743035489922e-02 -5.3664243094366582e-01 +5.3122642798050582e-03
-4.9000000000000004e+00 +8.1523190610096208e+00 +0.0000000000000000e+00 -4.8999999369145701e+00 -2.8042622150277835e-02 -5.3664253579612420e-01 +5.3123280314949532e-03
-5.0000000000000000e+00 +8.1522909839768491e+00 +0.0000000000000000e+00 -4.9999999329728402e+00 -2.8042497959467082e-02 -5.3664264079213964e-01 +5.3123930946861143e-03
-5.0999999999999996e+00 +8.1522623397286207e+00 +0.0000000000000000e+00 -5.0999999288702398e+00 -2.8042370829497155e-02 -5.3664274521730582e-01 +5.3124593409014965e-03
-5.2000000000000002e+00 +8.1522331282685592e+00 +0.0000000000000000e+00 -5.1999999246035600e+00 -2.8042241126797998e-02 -5.3664284835709808e-01 +5.3125266416603539e-03
-5.2999999999999998e+00 +8.1522033495966806e+00 +0.0000000000000000e+00 -5.2999999201695802e+00 -2.8042109217794133e-02 -5.3664294949694935e-01 +5.3125948684787979e-03
-5.4000000000000004e+00 +8.1521730037093203e+00 +0.0000000000000000e+00 -5.3999999155650800e+00 -2.8041975468904728e-02 -5.3664304792224715e-01 +5.3126638928695886e-03
-5.5000000000000000e+00 +8.1521420906137791e+00 +0.0000000000000000e+00 -5.4999999107868396e+00 -2.8041840246537664e-02 -5.3664314291822379e-01 +5.3127335863408136e-03
-5.5999999999999996e+00 +8.1521106102991308e+00 +0.0000000000000000e+00 -5.5999999058316599e+00 -2.8041703917101028e-02 -5.3664323377016798e-01 +5.3128038203978344e-03
-5.7000000000000002e+00 +8.1520785627762997e+00 +0.0000000000000000e+00 -5.6999999006963096e+00 -2.8041566846987210e-02 -5.3664331976312729e-01 +5.3128744665400726e-03
-5.7999999999999998e+00 +8.1520459480379905e+00 +0.0000000000000000e+00 -5.7999998953775700e+00 -2.8041429402588608e-02 -5.3664340018219892e-01 +5.3129453962637695e-03
-5.9000000000000004e+00 +8.1520127660915005e+00 +0.0000000000000000e+00 -5.8999998898722197e+00 -2.8041291950284659e-02 -5.3664347431228576e-01 +5.3130164810593202e-03
-5.9999999999999902e+00 +8.1519790169259103e+00 +0.0000000000000000e+00 -5.9999998841770603e+00 -2.8041154856454711e-02 -5.3664354143833581e-01 +5.3130875924134822e-03
-6.0999999999999899e+00 +8.1519447005521197e+00 +0.0000000000000000e+00 -6.0999998782888598e+00 -2.8041018478990851e-02 -5.3664360106258691e-01 +5.3131586273505484e-03
-6.1999999999999904e+00 +8.1519098169665103e+00 +0.0000000000000000e+00 -6.1999998722044003e+00 -2.8040883141912568e-02 -5.3664365355751009e-01 +5.3132295850714844e-03
-6.2999999999999901e+00 +8.1518743661654298e+00 +0.0000000000000000e+00 -6.2999998659204701e+00 -2.8040749160800078e-02 -5.3664369951315216e-01 +5.3133004903249638e-03
-6.3999999999999897e+00 +8.1518383481488907e+00 +0.0000000000000000e+00 -6.3999998594338496e+00 -2.8040616851269289e-02 -5.3664373951957722e-01 +5.3133713678634531e-03
-6.4999999999999902e+00 +8.1518017629241495e+00 +0.0000000000000000e+00 -6.4999998527413201e+00 -2.8040486528972047e-02 -5.3664377416684317e-01 +5.3134422424431201e-03
-6.5999999999999899e+00 +8.1517646104839496e+00 +0.0000000000000000e+00 -6.5999998458396698e+00 -2.8040358509606376e-02 -5.3664380404516443e-01 +5.3135131388255914e-03
-6.6999999999999904e+00 +8.1517268908319203e+00 +0.0000000000000000e+00 -6.6999998387256703e+00 -2.8040233108908071e-02 -5.3664382974472746e-01 +5.3135840817762200e-03
-6.7999999999999901e+00 +8.1516886039680703e+00 +0.0000000000000000e+00 -6.7999998313961196e+00 -2.8040110642658087e-02 -5.3664385185580077e-01 +5.3136550960653332e-03
-6.8999999999999897e+00 +8.1516497498923908e+00 +0.0000000000000000e+00 -6.8999998238477902e+00 -2.8039991426682755e-02 -5.3664387096871002e-01 +5.3137262064680973e-03
-6.9999999999999902e+00 +8.1516103286012402e+00 +0.0000000000000000e+00 -6.9999998160774597e+00 -2.8039875776856901e-02 -5.3664388767386828e-01 +5.3137974377649696e-03
-7.0999999999999899e+00 +8.1515703400982602e+00 +0.0000000000000000e+00 -7.0999998080819298e+00 -2.8039764009101107e-02 -5.3664390256169714e-01 +5.3138688147410127e-03
-7.1999999999999904e+00 +8.1515297843834595e+00 +0.0000000000000000e+00 -7.1999997998579603e+00 -2.8039656439387741e-02 -5.3664391622271113e-01 +5.3139403621868895e-03
-7.2999999999999901e+00 +8.1514886614531896e+00 +0.0000000000000000e+00 -7.2999997914023496e+00 -2.8039553383742581e-02 -5.3664392924752002e-01 +5.3140121048989965e-03
-7.3999999999999897e+00 +8.1514469713147300e+00 +0.0000000000000000e+00 -7.3999997827118804e+00 -2.8039455158240707e-02 -5.3664394222672263e-01 +5.3140840676785548e-03
-7.4999999999999902e+00 +8.1514047139571595e+00 +0.0000000000000000e+00 -7.4999997737833199e+00 -2.8039362079019650e-02 -5.3664395575112644e-01 +5.3141562753339132e-03
-7.5999999999999899e+00 +8.1513618893914099e+00 +0.0000000000000000e+00 -7.5999997646134698e+00 -2.8039274462265219e-02 -5.3664397041145373e-01 +5.3142287526777377e-03
-7.6999999999999904e+00 +8.1513184976138309e+00 +0.0000000000000000e+00 -7.6999997551991104e+00 -2.8039192624227556e-02 -5.3664398679861236e-01 +5.3143015245298714e-03
-7.7999999999999901e+00 +8.1512745386207808e+00 +0.0000000000000000e+00 -7.7999997455370096e+00 -2.8039116881217043e-02 -5.3664400550359193e-01 +5.3143746157164060e-03
-7.8999999999999897e+00 +8.1512300124159101e+00 +0.0000000000000000e+00 -7.8999997356239602e+00 -2.8039047549602986e-02 -5.3664402711741166e-01 +5.3144480510692879e-03
-7.9999999999999902e+00 +8.1511849189955701e+00 +0.0000000000000000e+00 -7.9999997254567399e+00 -2.8038984945821115e-02 -5.3664405223123179e-01 +5.3145218554275682e-03
-8.0999999999999908e+00 +8.1511392583670403e+00 +0.0000000000000000e+00 -8.0999997150321406e+00 -2.8038929197473628e-02 -5.3664408134327424e-01 +5.3145960512826062e-03
-8.1999999999999904e+00 +8.1510930305230396e+00 +0.0000000000000000e+00 -8.1999997043469399e+00 -2.8038879676606773e-02 -5.3664411458014105e-01 +5.3146706517136957e-03
-8.2999999999999901e+00 +8.1510462354672200e+00 +0.0000000000000000e+00 -8.2999996933979094e+00 -2.8038835566308290e-02 -5.3664415197541460e-01 +5.3147456674371447e-03
-8.3999999999999897e+00 +8.1509988731995708e+00 +0.0000000000000000e+00 -8.3999996821818605e+00 -2.8038796049597237e-02 -5.3664419356270698e-01 +5.3148211091592675e-03
-8.4999999999999893e+00 +8.1509509437164507e+00 +0.0000000000000000e+00 -8.4999996706955496e+00 -2.8038760309421450e-02 -5.3664423937565908e-01 +5.3148969875760326e-03
-8.5999999999999908e+00 +8.1509024470215099e+00 +0.0000000000000000e+00 -8.5999996589357703e+00 -2.8038727528650834e-02 -5.3664428944786013e-01 +5.3149733133718881e-03
-8.6999999999999904e+00 +8.1508533831147396e+00 +0.0000000000000000e+00 -8.6999996468993004e+00 -2.8038696890079106e-02 -5.3664434381292769e-01 +5.3150500972202145e-03
-8.7999999999999794e+00 +8.1508037519961398e+00 +0.0000000000000000e+00 -8.7999996345829192e+00 -2.8038667576419946e-02 -5.3664440250448131e-01 +5.3151273497827074e-03
-8.8999999999999808e+00 +8.1507535536620708e+00 +0.0000000000000000e+00 -8.8999996219834205e+00 -2.8038638770305963e-02 -5.3664446555616818e-01 +5.3152050817092808e-03
-8.9999999999999805e+00 +8.1507027881161793e+00 +0.0000000000000000e+00 -8.9999996090975891e+00 -2.8038609654281888e-02 -5.3664453300158366e-01 +5.3152833036369130e-03
-9.0999999999999801e+00 +8.1506514553584601e+00 +0.0000000000000000e+00 -9.0999995959221902e+00 -2.8038579410806386e-02 -5.3664460487435073e-01 +5.3153620261900871e-03
-9.1999999999999797e+00 +8.1505995553889097e+00 +0.0000000000000000e+00 -9.1999995824540193e+00 -2.8038547222248227e-02 -5.3664468120809383e-01 +5.3154412599801760e-03
-9.2999999999999794e+00 +8.1505470882038900e+00 +0.0000000000000000e+00 -9.2999995686898593e+00 -2.8038512270885146e-02 -5.3664476203646438e-01 +5.3155210156053487e-03
-9.3999999999999808e+00 +8.1504940538070496e+00 +0.0000000000000000e+00 -9.3999995546264898e+00 -2.8038473738897132e-02 -5.3664484739306151e-01 +5.3156013036494082e-03
-9.4999999999999805e+00 +8.1504404521983798e+00 +0.0000000000000000e+00 -9.4999995402606903e+00 -2.8038430808368230e-02 -5.3664493731151086e-01 +5.3156821346822475e-03
-9.5999999999999801e+00 +8.1503862833778804e+00 +0.0000000000000000e+00 -9.5999995255892507e+00 -2.8038382661282696e-02 -5.3664503182543977e-01 +5.3157635192592209e-03
-9.6999999999999797e+00 +8.1503315473419207e+00 +0.0000000000000000e+00 -9.6999995106089507e+00 -2.8038328479523821e-02 -5.3664513096850097e-01 +5.3158454679210591e-03
-9.7999999999999794e+00 +8.1502762440941297e+00 +0.0000000000000000e+00 -9.7999994953165697e+00 -2.8038267444867350e-02 -5.3664523477429538e-01 +5.3159279911927032e-03
-9.8999999999999808e+00 +8.1502203736345091e+00 +0.0000000000000000e+00 -9.8999994797088906e+00 -2.8038198738983101e-02 -5.3664534327644908e-01 +5.3160110995837595e-03
-9.9999999999999805e+00 +8.1501639359594300e+00 +0.0000000000000000e+00 -9.9999994637827001e+00 -2.8038121543432666e-02 -5.3664545650861539e-01 +5.3160948035881469e-03
-1.0100000000000000e+01 +8.1501069310761505e+00 +0.0000000000000000e+00 -1.0099999447534801e+01 -2.8038035346859877e-02 -5.3664557445019589e-01 +5.3161790850824852e-03
-1.0199999999999999e+01 +8.1500493589774106e+00 +0.0000000000000000e+00 -1.0199999430961901e+01 -2.8037940866673033e-02 -5.3664569686399244e-01 +5.3162638115325485e-03
-1.0300000000000001e+01 +8.1499912196668394e+00 +0.0000000000000000e+00 -1.0299999414060901e+01 -2.8037839127530755e-02 -5.3664582345851131e-01 +5.3163488218054599e-03
-1.0400000000000000e+01 +8.1499325131444493e+00 +0.0000000000000000e+00 -1.0399999396828500e+01 -2.8037731154155348e-02 -5.3664595394223857e-01 +5.3164339547738136e-03
-1.0500000000000000e+01 +8.1498732394065900e+00 +0.0000000000000000e+00 -1.0499999379261400e+01 -2.8037617971334621e-02 -5.3664608802363789e-01 +5.3165190493158765e-03
-1.0600000000000000e+01 +8.1498133984568994e+00 +0.0000000000000000e+00 -1.0599999361356600e+01 -2.8037500603919466e-02 -5.3664622541107054e-01 +5.3166039443149470e-03
-1.0699999999999999e+01 +8.1497529902953794e+00 +0.0000000000000000e+00 -1.0699999343110701e+01 -2.8037380076829967e-02 -5.3664636581287239e-01 +5.3166884786603526e-03
-1.0800000000000001e+01 +8.1496920149220404e+00 +0.0000000000000000e+00 -1.0799999324520600e+01 -2.8037257415055833e-02 -5.3664650893732768e-01 +5.3167724912473553e-03
-1.0900000000000000e+01 +8.1496304723332305e+00 +0.0000000000000000e+00 -1.0899999305583000e+01 -2.8037133643659687e-02 -5.3664665449269411e-01 +5.3168558209776137e-03
-1.1000000000000000e+01 +8.1495683625325892e+00 +0.0000000000000000e+00 -1.0999999286294800e+01 -2.8037009787774566e-02 -5.3664680218712013e-01 +5.3169383067585441e-03
-1.1100000000000000e+01 +8.1495056855201309e+00 +0.0000000000000000e+00 -1.1099999266652601e+01 -2.8036886872610117e-02 -5.3664695172872590e-01 +5.3170197875043162e-03
-1.1199999999999999e+01 +8.1494424412958306e+00 +0.0000000000000000e+00 -1.1199999246653300e+01 -2.8036765923452958e-02 -5.3664710282557293e-01 +5.3171001021357581e-03
-1.1300000000000001e+01 +8.1493786298560700e+00 +0.0000000000000000e+00 -1.1299999226293700e+01 -2.8036647965669972e-02 -5.3664725518569245e-01 +5.3171790895808280e-03
-1.1400000000000000e+01 +8.1493142512044905e+00 +0.0000000000000000e+00 -1.1399999205570500e+01 -2.8036534024705830e-02 -5.3664740851700088e-01 +5.3172565887739482e-03
-1.1500000000000000e+01 +8.1492493053447106e+00 +0.0000000000000000e+00 -1.1499999184480499e+01 -2.8036425126087738e-02 -5.3664756252735391e-01 +5.3173324386567656e-03
-1.1600000000000000e+01 +8.1491837922658306e+00 +0.0000000000000000e+00 -1.1599999163020600e+01 -2.8036322295432990e-02 -5.3664771692465241e-01 +5.3174064781793947e-03
-1.1699999999999999e+01 +8.1491177119787608e+00 +0.0000000000000000e+00 -1.1699999141187400e+01 -2.8036226558436423e-02 -5.3664787141657244e-01 +5.3174785462978911e-03
