# multipoles
# s[mm] polynom_b[n=0][T/m^n] polynom_b[n=1][T/m^n] polynom_b[n=2][T/m^n] polynom_b[n=3][T/m^n] polynom_b[n=4][T/m^n] polynom_b[n=5][T/m^n] polynom_b[n=6][T/m^n] 
-0.0000000000000000e+00 -5.3664630696148941e-01 +7.3449662587364353e+00 -1.2307748078060770e+00 +3.9820506002643924e+01 +6.9476726997820506e+03 -4.5135011031455040e+05 -2.8364094844367135e+07 
-1.0000000000000001e-01 -5.3664612440747061e-01 +7.3449785802512100e+00 -1.2311430072433740e+00 +3.9425572868255770e+01 +6.9490134474722163e+03 -4.4942909475240670e+05 -2.8284889381973147e+07 
-2.0000000000000001e-01 -5.3664594332601945e-01 +7.3449936708244215e+00 -1.2317127970137265e+00 +3.8980635809566586e+01 +6.9543647503969551e+03 -4.4726273693309189e+05 -2.8224993887879606e+07 
-2.9999999999999999e-01 -5.3664576410030451e-01 +7.3450112583895324e+00 -1.2324405981447097e+00 +3.8490855284336661e+01 +6.9631398247115449e+03 -4.4487216601250932e+05 -2.8182366255821750e+07 
-4.0000000000000002e-01 -5.3664558711358290e-01 +7.3450310708788598e+00 -1.2332828330578305e+00 +3.7961391768341237e+01 +6.9747519177156719e+03 -4.4227851118280203e+05 -2.8154964541847799e+07 
-5.0000000000000000e-01 -5.3664541274904654e-01 +7.3450528362243910e+00 -1.2341959224576680e+00 +3.7397405744575074e+01 +6.9886142428233461e+03 -4.3950290164550039e+05 -2.8140746638277963e+07 
-5.9999999999999998e-01 -5.3664524138994463e-01 +7.3450762823593170e+00 -1.2351362868069620e+00 +3.6804057638221103e+01 +7.0041400097192000e+03 -4.3656646616810025e+05 -2.8137670424270116e+07 
-6.9999999999999996e-01 -5.3664507341949286e-01 +7.3451011372115769e+00 -1.2360603442811675e+00 +3.6186508025548832e+01 +7.0207423852191823e+03 -4.3349033435032610e+05 -2.8143693579295319e+07 
-8.0000000000000004e-01 -5.3664490922089325e-01 +7.3451271287104181e+00 -1.2369245179701733e+00 +3.5549917424288850e+01 +7.0378346252779438e+03 -4.3029563535292551e+05 -2.8156774196654506e+07 
-9.0000000000000002e-01 -5.3664474917740113e-01 +7.3451539847807403e+00 -1.2376852244585763e+00 +3.4899446460876646e+01 +7.0548298627784225e+03 -4.2700349886344897e+05 -2.8174869790080316e+07 
-1.0000000000000000e+00 -5.3664459367224404e-01 +7.3451814333501142e+00 -1.2382988834221687e+00 +3.4240255671039691e+01 +7.0711412834830162e+03 -4.2363505395376752e+05 -2.8195938111509372e+07 
-1.1000000000000001e+00 -5.3664444308869041e-01 +7.3452092023337281e+00 -1.2387219160345433e+00 +3.3577505930003866e+01 +7.0861821000977970e+03 -4.2021143154595874e+05 -2.8217937041101243e+07 
-1.2000000000000000e+00 -5.3664429780988798e-01 +7.3452370196503427e+00 -1.2389107415494278e+00 +3.2916357990992424e+01 +7.0993654822079179e+03 -4.1675376173688832e+05 -2.8238824239334434e+07 
-1.3000000000000000e+00 -5.3664415821908762e-01 +7.3452646132125796e+00 -1.2388217788657381e+00 +3.2261972761969204e+01 +7.1101045861868488e+03 -4.1328317538195383e+05 -2.8256557292125814e+07 
-1.3999999999999999e+00 -5.3664402469952532e-01 +7.3452917109266584e+00 -1.2384114485461739e+00 +3.1619511314124868e+01 +7.1178125927555202e+03 -4.0982080414182221e+05 -2.8269093884329859e+07 
-1.5000000000000000e+00 -5.3664389763436904e-01 +7.3453180406949592e+00 -1.2376361723072886e+00 +3.0994134812993273e+01 +7.1219026981128964e+03 -4.0638778009402234e+05 -2.8274391763021693e+07 
-1.6000000000000001e+00 -5.3664377740679692e-01 +7.3453433304161990e+00 -1.2364523730114183e+00 +3.0391004500759959e+01 +7.1217881107441772e+03 -4.0300523558531445e+05 -2.8270408714572705e+07 
-1.7000000000000000e+00 -5.3664366439999189e-01 +7.3453673079793642e+00 -1.2348164723050208e+00 +2.9815281873081322e+01 +7.1168820074803416e+03 -3.9969430425982276e+05 -2.8255102356582988e+07 
-1.8000000000000000e+00 -5.3664355899714156e-01 +7.3453897012690019e+00 -1.2326848933723076e+00 +2.9272128535702180e+01 +7.1065975803784640e+03 -3.9647612024496135e+05 -2.8226430346966408e+07 
-1.8999999999999999e+00 -5.3664346158136211e-01 +7.3454102381623398e+00 -1.2300140608121923e+00 +2.8766706264801385e+01 +7.0903480402397427e+03 -3.9337181843664363e+05 -2.8182350418396018e+07 
-2.0000000000000000e+00 -5.3664337253581296e-01 +7.3454286465317482e+00 -1.2267603994575851e+00 +2.8304176964385427e+01 +7.0675465887448054e+03 -3.9040253432279575e+05 -2.8120820229827173e+07 
-2.1000000000000001e+00 -5.3664329213137285e-01 +7.3454447475766367e+00 -1.2228923804092586e+00 +2.7887827495950248e+01 +7.0377233470684541e+03 -3.8758252460576233e+05 -2.8040041459579192e+07 
-2.2000000000000002e+00 -5.3664322019072708e-01 +7.3454587352460710e+00 -1.2184278645688280e+00 +2.7513553479529126e+01 +7.0009001932170704e+03 -3.8489932749253768e+05 -2.7939278023435064e+07 
-2.2999999999999998e+00 -5.3664315642447979e-01 +7.3454708965464395e+00 -1.2133973676894003e+00 +2.7175430108259548e+01 +6.9572280021999768e+03 -3.8233400537598773e+05 -2.7818080888212342e+07 
-2.3999999999999999e+00 -5.3664310054329889e-01 +7.3454815184826838e+00 -1.2078314045838963e+00 +2.6867532637355911e+01 +6.9068576374875956e+03 -3.7986762109512673e+05 -2.7676000978300594e+07 
-2.5000000000000000e+00 -5.3664305225780229e-01 +7.3454908880633951e+00 -1.2017604902534025e+00 +2.6583936244116941e+01 +6.8499399749137037e+03 -3.7748123716598272e+05 -2.7512589294113014e+07 
-2.6000000000000001e+00 -5.3664301127861591e-01 +7.3454992922936597e+00 -1.1952151396020487e+00 +2.6318716251030292e+01 +6.7866259022772983e+03 -3.7515591711660178e+05 -2.7327396925593026e+07 
-2.7000000000000002e+00 -5.3664297731649557e-01 +7.3455070181849784e+00 -1.1882258653551647e+00 +2.6065947826505763e+01 +6.7170662744360388e+03 -3.7287272374700481e+05 -2.7119974818532839e+07 
-2.7999999999999998e+00 -5.3664295008203700e-01 +7.3455143527481699e+00 -1.1808231815547199e+00 +2.5819706205293407e+01 +6.6414119890632437e+03 -3.7061272044364864e+05 -2.6889874163580727e+07 
-2.8999999999999999e+00 -5.3664292928599877e-01 +7.3455215829993712e+00 -1.1730375989388333e+00 +2.5574066525111249e+01 +6.5598138916075250e+03 -3.6835697028375661e+05 -2.6636645921496302e+07 
-3.0000000000000000e+00 -5.3664291463906633e-01 +7.3455289959574825e+00 -1.1648996291515090e+00 +2.5323103887388477e+01 +6.4724228657308950e+03 -3.6608653635789972e+05 -2.6359841281590957e+07 
-3.1000000000000001e+00 -5.3664290585196017e-01 +7.3455368786445616e+00 -1.1564397840001772e+00 +2.5060893369113654e+01 +6.3793898150693522e+03 -3.6378248191394366e+05 -2.6059011561400469e+07 
-3.2000000000000002e+00 -5.3664290263546255e-01 +7.3455455180854496e+00 -1.1476885721660119e+00 +2.4781510023362337e+01 +6.2808656028010801e+03 -3.6142587034330121e+05 -2.5733707925317522e+07 
-3.2999999999999998e+00 -5.3664290470030296e-01 +7.3455552013156336e+00 -1.1386765006132658e+00 +2.4479028675063976e+01 +6.1770010819615036e+03 -3.5899776407593605e+05 -2.5383481536399171e+07 
-3.3999999999999999e+00 -5.3664291175734580e-01 +7.3455662153704129e+00 -1.1294340773341047e+00 +2.4147524216518882e+01 +6.0679471464936760e+03 -3.5647922624838602e+05 -2.5007883796930019e+07 
-3.5000000000000000e+00 -5.3664292351734111e-01 +7.3455788472929413e+00 -1.1199918070294144e+00 +2.3781071394618564e+01 +5.9538546537980046e+03 -3.5385131954477751e+05 -2.4606465988254860e+07 
-3.6000000000000001e+00 -5.3664293969117871e-01 +7.3455933841328260e+00 -1.1103801949373715e+00 +2.3373744855174049e+01 +5.8348744972721215e+03 -3.5109510647169035e+05 -2.4178779619070403e+07 
-3.7000000000000002e+00 -5.3664295998970868e-01 +7.3456101129493128e+00 -1.1006297432127807e+00 +2.2919619046089892e+01 +5.7111575361792720e+03 -3.4819164879486477e+05 -2.3724376082199965e+07 
-3.7999999999999998e+00 -5.3664298412382694e-01 +7.3456293208034227e+00 -1.0907709538766335e+00 +2.2412768464974334e+01 +5.5828546585721060e+03 -3.4512200904306304e+05 -2.3242806974937856e+07 
-3.8999999999999999e+00 -5.3664301180446894e-01 +7.3456512947677712e+00 -1.0808343260326694e+00 +2.1847267361169099e+01 +5.4501167260901166e+03 -3.4186724875311920e+05 -2.2733623828326613e+07 
-4.0000000000000000e+00 -5.3664304274261820e-01 +7.3456763219232082e+00 -1.0708503584566877e+00 +2.1217189860509134e+01 +5.3130946265635048e+03 -3.3840842925732647e+05 -2.2196378363679979e+07 
-4.0999999999999996e+00 -5.3664307664763267e-01 +7.3457045697696497e+00 -1.0608512335755775e+00 +2.0519200812833255e+01 +5.1720561497413737e+03 -3.3473669936750008e+05 -2.1631396523607478e+07 
-4.2000000000000002e+00 -5.3664311321963731e-01 +7.3457357327459691e+00 -1.0508730439239500e+00 +1.9760038817937033e+01 +5.0276753844882678e+03 -3.3088168105755653e+05 -2.1041873364824012e+07 
-4.2999999999999998e+00 -5.3664315215570590e-01 +7.3457693882581259e+00 -1.0409521491299558e+00 +1.8948889357978377e+01 +4.8807129107585479e+03 -3.2688213017746247e+05 -2.0431666339033328e+07 
-4.4000000000000004e+00 -5.3664319315296494e-01 +7.3458051137118900e+00 -1.0311249145224040e+00 +1.8094937912831938e+01 +4.7319294030567480e+03 -3.2277680244944390e+05 -1.9804633315070517e+07 
-4.5000000000000000e+00 -5.3664323590840735e-01 +7.3458424865213976e+00 -1.0214277104703444e+00 +1.7207369713007814e+01 +4.5820856146589958e+03 -3.1860445206214860e+05 -1.9164632494672060e+07 
-4.5999999999999996e+00 -5.3664328011904794e-01 +7.3458810840994992e+00 -1.0118969063657428e+00 +1.6295370025887504e+01 +4.4319422604057945e+03 -3.1440383332895330e+05 -1.8515521846820816e+07 
-4.7000000000000002e+00 -5.3664332548183513e-01 +7.3459204838674967e+00 -1.0025688810561553e+00 +1.5368123860320937e+01 +4.2822602121572636e+03 -3.1021369893906044e+05 -1.7861160030547757e+07 
-4.7999999999999998e+00 -5.3664337169364451e-01 +7.3459602632490890e+00 -9.9348001393022500e-01 +1.4434816147205501e+01 +4.1338003301590861e+03 -3.0607280100844946e+05 -1.7205405596008386e+07 
-4.9000000000000004e+00 -5.3664341845131602e-01 +7.3459999996746728e+00 -9.8466669037630206e-01 +1.3504631610534961e+01 +3.9873235667958634e+03 -3.0201989031737176e+05 -1.6552117477594823e+07 
-5.0000000000000000e+00 -5.3664346545164432e-01 +7.3460392705769895e+00 -9.7616529882213332e-01 +1.2586754895444988e+01 +3.8435909035605014e+03 -2.9809371704617207e+05 -1.5905154677635614e+07 
-5.0999999999999996e+00 -5.3664351239136243e-01 +7.3460776533931336e+00 -9.6801223678548221e-01 +1.1690370492955939e+01 +3.7033634710492579e+03 -2.9433303028516547e+05 -1.5268376850102847e+07 
-5.2000000000000002e+00 -5.3664355896713301e-01 +7.3461147255657417e+00 -9.6024390081830546e-01 +1.0824662726020808e+01 +3.5674023476173688e+03 -2.9077657800822437e+05 -1.4645643316381304e+07 
-5.2999999999999998e+00 -5.3664360487554341e-01 +7.3461500645452906e+00 -9.5289669856620207e-01 +9.9988156627543940e+00 +3.4364687997712572e+03 -2.8746310650165315e+05 -1.4040814239460215e+07 
-5.4000000000000004e+00 -5.3664364981315615e-01 +7.3461832477825544e+00 -9.4600704056625007e-01 +9.2220133441678556e+00 +3.3113241110007407e+03 -2.8443136170557473e+05 -1.3457749768844198e+07 
-5.5000000000000000e+00 -5.3664369347640251e-01 +7.3462138527376162e+00 -9.3961134143130398e-01 +8.5034395106720257e+00 +3.1927296132821607e+03 -2.8172008758473897e+05 -1.2900310215094065e+07 
-5.5999999999999996e+00 -5.3664373556174427e-01 +7.3462414568739272e+00 -9.3374602496083992e-01 +7.8522777830760440e+00 +3.0814467729422499e+03 -2.7936802719738206e+05 -1.2372356429004230e+07 
-5.7000000000000002e+00 -5.3664377576542532e-01 +7.3462656376603741e+00 -9.2844752015972498e-01 +7.2777115927223743e+00 +2.9782371269066189e+03 -2.7741392225954676e+05 -1.1877749530216608e+07 
-5.7999999999999998e+00 -5.3664381378374360e-01 +7.3462859725732663e+00 -9.2375226206225813e-01 +6.7889241261241020e+00 +2.8838622839054779e+03 -2.7589651281437057e+05 -1.1420350875068335e+07 
-5.9000000000000004e+00 -5.3664384931282028e-01 +7.3463020390945806e+00 -9.1969669095249751e-01 +6.3950983694415573e+00 +2.7990839132324872e+03 -2.7485453746918362e+05 -1.1004022013620695e+07 
-5.9999999999999902e+00 -5.3664388204881619e-01 +7.3463134147105302e+00 -9.1631725592658420e-01 +6.1054171527305234e+00 +2.7246638131453997e+03 -2.7432673366618005e+05 -1.0632625016634293e+07 
-6.0999999999999899e+00 -5.3664391179395288e-01 +7.3463198044239153e+00 -9.1363859438570161e-01 +5.9263530440341592e+00 +2.6611505036046324e+03 -2.7433943854322186e+05 -1.0309000060309809e+07 
-6.1999999999999904e+00 -5.3664393878980110e-01 +7.3463214170769522e+00 -9.1164125586966127e-01 +5.8537183859753972e+00 +2.6083084956873818e+03 -2.7487064860328648e+05 -1.0032198974214938e+07 
-6.2999999999999901e+00 -5.3664396339120835e-01 +7.3463185861535605e+00 -9.1029555636420323e-01 +5.8807014551228454e+00 +2.5657233606991699e+03 -2.7588658414604876e+05 -9.8003991514133159e+06 
-6.3999999999999897e+00 -5.3664398595307972e-01 +7.3463116451318209e+00 -9.0957180332027598e-01 +6.0004906467808379e+00 +2.5329805205028538e+03 -2.7735346612136904e+05 -9.6117773034972902e+06 
-6.4999999999999902e+00 -5.3664400683028113e-01 +7.3463009274910256e+00 -9.0944030345898130e-01 +6.2062742813584855e+00 +2.5096653873653090e+03 -2.7923751499965624e+05 -9.4645101059781313e+06 
-6.5999999999999899e+00 -5.3664402637784259e-01 +7.3462867667046519e+00 -9.0987135839909228e-01 +6.4912407977843394e+00 +2.4953632915408039e+03 -2.8150495186947001e+05 -9.3567738840705901e+06 
-6.6999999999999904e+00 -5.3664404495078899e-01 +7.3462694962504678e+00 -9.1083526184407393e-01 +6.8485784692655756e+00 +2.4896594188952427e+03 -2.8412199682151468e+05 -9.2867442896111384e+06 
-6.7999999999999901e+00 -5.3664406290416788e-01 +7.3462494495944792e+00 -9.1230231032560516e-01 +7.2714758436461828e+00 +2.4921390248646389e+03 -2.8705487142422883e+05 -9.2525973473832626e+06 
-6.8999999999999897e+00 -5.3664408059313917e-01 +7.3462269602050192e+00 -9.1424278773863876e-01 +7.7531213589572818e+00 +2.5023871331262881e+03 -2.9026979657851241e+05 -9.2525080005656946e+06 
-6.9999999999999902e+00 -5.3664409837292182e-01 +7.3462023615490581e+00 -9.1662697658278791e-01 +8.2867034358459559e+00 +2.5199887579786532e+03 -2.9373299300824979e+05 -9.2846511925426107e+06 
-7.0999999999999899e+00 -5.3664411659872002e-01 +7.3461759870862062e+00 -9.1942515602352726e-01 +8.8654106468207345e+00 +2.5445288579182238e+03 -2.9741068223558925e+05 -9.3472016193295661e+06 
-7.1999999999999904e+00 -5.3664413562586288e-01 +7.3461481702745823e+00 -9.2260759567057893e-01 +9.4824315520757310e+00 +2.5755922293267940e+03 -3.0126908564331819e+05 -9.4383332578966264e+06 
-7.2999999999999901e+00 -5.3664415580976577e-01 +7.3461192445708381e+00 -9.2614455978728083e-01 +1.0130954691067899e+01 +2.6127635774169089e+03 -3.0527442441897612e+05 -9.5562196760408338e+06 
-7.3999999999999897e+00 -5.3664417750579574e-01 +7.3460895434233535e+00 -9.3000631108887855e-01 +1.0804168772999466e+01 +2.6556275964939687e+03 -3.0939292063572019e+05 -9.6990344397669453e+06 
-7.4999999999999902e+00 -5.3664420106956656e-01 +7.3460594002776176e+00 -9.3416310076070874e-01 +1.1495262533916346e+01 +2.7037687760649692e+03 -3.1359079646341671e+05 -9.8649501761938259e+06 
-7.5999999999999899e+00 -5.3664422685657032e-01 +7.3460291485800440e+00 -9.3858517724224666e-01 +1.2197424611034513e+01 +2.7567715683326396e+03 -3.1783427340378106e+05 -1.0052139374045666e+07 
-7.6999999999999904e+00 -5.3664425522251036e-01 +7.3459991217668072e+00 -9.4324277905414911e-01 +1.2903843869647055e+01 +2.8142202561474087e+03 -3.2208957420188270e+05 -1.0258773766135715e+07 
-7.7999999999999901e+00 -5.3664428652313323e-01 +7.3459696532719017e+00 -9.4810614208547261e-01 +1.3607709164575878e+01 +2.8756990911115131e+03 -3.2632292144813313e+05 -1.0483024985032206e+07 
-7.8999999999999897e+00 -5.3664432111424432e-01 +7.3459410765231530e+00 -9.5314549056385067e-01 +1.4302209453993441e+01 +2.9407921175665438e+03 -3.3050053823201673e+05 -1.0723063714055231e+07 
-7.9999999999999902e+00 -5.3664435935176102e-01 +7.3459137249446700e+00 -9.5833104485269638e-01 +1.4980533735086937e+01 +3.0090833298841785e+03 -3.3458864788404485e+05 -1.0977060467560982e+07 
-8.0999999999999908e+00 -5.3664440157518789e-01 +7.3458878753498302e+00 -9.6363336452702253e-01 +1.5636892184424116e+01 +3.0801772412271225e+03 -3.3855867468747863e+05 -1.1243394384842768e+07 
-8.1999999999999904e+00 -5.3664444804574096e-01 +7.3458635799678094e+00 -9.6902313632644732e-01 +1.6269417291233747e+01 +3.1537431265211262e+03 -3.4240127940522379e+05 -1.1521190587588096e+07 
-8.2999999999999901e+00 -5.3664449900201050e-01 +7.3458408352212690e+00 -9.7447073419321550e-01 +1.6877181923716947e+01 +3.2294618291054758e+03 -3.4611154943622119e+05 -1.1809739676347280e+07 
-8.3999999999999897e+00 -5.3664455468261663e-01 +7.3458196375129914e+00 -9.7994653176128710e-01 +1.7459259467466509e+01 +3.3070141961128156e+03 -3.4968457482008263e+05 -1.2108332303158203e+07 
-8.4999999999999893e+00 -5.3664461532622609e-01 +7.3457999832351746e+00 -9.8542089965520374e-01 +1.8014723555216833e+01 +3.3860810226164535e+03 -3.5311544665779598e+05 -1.2416258894337196e+07 
-8.5999999999999908e+00 -5.3664468117142872e-01 +7.3457818687605894e+00 -9.9086421085558507e-01 +1.8542648342969041e+01 +3.4663431526517761e+03 -3.5639925875422091e+05 -1.2732810128930122e+07 
-8.6999999999999904e+00 -5.3664475245687770e-01 +7.3457652904466002e+00 -9.9624683387114998e-01 +1.9042108383931357e+01 +3.5474813545517345e+03 -3.5953110686200904e+05 -1.3057276358009247e+07 
-8.7999999999999794e+00 -5.3664482942120906e-01 +7.3457502446319172e+00 -1.0015391386894379e+00 +1.9512178711309573e+01 +3.6291764299551264e+03 -3.6250608911892632e+05 -1.3388948114953559e+07 
-8.8999999999999808e+00 -5.3664491230309674e-01 +7.3457367276387524e+00 -1.0067114936944177e+00 +1.9951934794513495e+01 +3.7111091583940147e+03 -3.6531930583820719e+05 -1.3727115858359165e+07 
-8.9999999999999805e+00 -5.3664500134118476e-01 +7.3457247357737323e+00 -1.0117342637414624e+00 +2.0360452495763866e+01 +3.7929602565782825e+03 -3.6796585920811375e+05 -1.4071069768787963e+07 
-9.0999999999999801e+00 -5.3664509677412553e-01 +7.3457142653225675e+00 -1.0165778155520842e+00 +2.0736808231371668e+01 +3.8744104854405928e+03 -3.7044085423952498e+05 -1.4420100270296477e+07 
-9.1999999999999797e+00 -5.3664519884059814e-01 +7.3457053125505283e+00 -1.0212125126208960e+00 +2.1080078954932006e+01 +3.9551405538062750e+03 -3.7273939864804572e+05 -1.4773497572389632e+07 
-9.2999999999999794e+00 -5.3664530777930508e-01 +7.3456978737056060e+00 -1.0256087174886648e+00 +2.1389342062559756e+01 +4.0348311553890030e+03 -3.7485660229104332e+05 -1.5130551831767682e+07 
-9.3999999999999808e+00 -5.3664542382890090e-01 +7.3456919450176033e+00 -1.0297367920817744e+00 +2.1663675423944362e+01 +4.1131629823398416e+03 -3.7678757736460131e+05 -1.5490553234059673e+07 
-9.4999999999999805e+00 -5.3664554722806945e-01 +7.3456875226922245e+00 -1.0335670975555311e+00 +2.1902157545478250e+01 +4.1898167210598649e+03 -3.7852743930300575e+05 -1.5852791972406842e+07 
-9.5999999999999801e+00 -5.3664567821551268e-01 +7.3456846029166565e+00 -1.0370699920056994e+00 +2.2103867418505857e+01 +4.2644730052259074e+03 -3.8007130593242054e+05 -1.6216558013988014e+07 
-9.6999999999999797e+00 -5.3664581702995573e-01 +7.3456831818555735e+00 -1.0402158336514991e+00 +2.2267884616463675e+01 +4.3368124802315488e+03 -3.8141429797199421e+05 -1.6581141417247966e+07 
-9.7999999999999794e+00 -5.3664596391006847e-01 +7.3456832556538254e+00 -1.0429749804441018e+00 +2.2393289233831048e+01 +4.4065157955033037e+03 -3.8255153872425260e+05 -1.6945832295722634e+07 
-9.8999999999999808e+00 -5.3664611909457904e-01 +7.3456848204329575e+00 -1.0453177855111759e+00 +2.2479161975528264e+01 +4.4732635145336590e+03 -3.8347815454775747e+05 -1.7309920380525421e+07 
-9.9999999999999805e+00 -5.3664628282222171e-01 +7.3456878722924337e+00 -1.0472146044216148e+00 +2.2524584078049116e+01 +4.5367362547217044e+03 -3.8418927419463982e+05 -1.7672695679358970e+07 
-1.0100000000000000e+01 -5.3664645518798004e-01 +7.3456923715508937e+00 -1.0486488367348636e+00 +2.2529375130219236e+01 +4.5967390049451760e+03 -3.8468272422316449e+05 -1.8033670184753031e+07 
