# multipoles
# s[mm] polynom_b[n=0][T/m^n] polynom_b[n=1][T/m^n] polynom_b[n=2][T/m^n] polynom_b[n=3][T/m^n] polynom_b[n=4][T/m^n] polynom_b[n=5][T/m^n] polynom_b[n=6][T/m^n] 
+0.0000000000000000e+00 -5.6452167974557077e-01 +7.7348496805268105e+00 -6.5778104318213138e-01 -5.7923570541568509e+01 +8.5556875878559567e+03 +1.3801377949791355e+05 -4.6779565349660031e+07 
+1.0000000000000001e-01 -5.6452169498106408e-01 +7.7349010951644077e+00 -6.5726417620305833e-01 -5.8821758747321503e+01 +8.5600805987000640e+03 +1.4151761014246155e+05 -4.6802152515839644e+07 
+2.0000000000000001e-01 -5.6452171669398976e-01 +7.7349481854350977e+00 -6.5629500405312546e-01 -5.9685200652528273e+01 +8.5568411589822172e+03 +1.4509791818686441e+05 -4.6784591623151422e+07 
+2.9999999999999999e-01 -5.6452174552305268e-01 +7.7349910097741814e+00 -6.5490027374567039e-01 -6.0514211214597644e+01 +8.5464799107443687e+03 +1.4874731180796487e+05 -4.6729849551369347e+07 
+4.0000000000000002e-01 -5.6452178210694559e-01 +7.7350296266199230e+00 -6.5310673406573982e-01 -6.1309105480499525e+01 +8.5295075150709399e+03 +1.5245839964724865e+05 -4.6640893245023258e+07 
+5.0000000000000000e-01 -5.6452182708428178e-01 +7.7350640944050300e+00 -6.5094113187988301e-01 -6.2070198366585764e+01 +8.5064345881390109e+03 +1.5622378963714169e+05 -4.6520689427314013e+07 
+5.9999999999999998e-01 -5.6452188109370893e-01 +7.7350944715682015e+00 -6.4843021444137039e-01 -6.2797804963186934e+01 +8.4777717368972480e+03 +1.6003609067646874e+05 -4.6372204746129334e+07 
+6.9999999999999996e-01 -5.6452194477394679e-01 +7.7351208165425192e+00 -6.4560072989968853e-01 -6.3492240219791952e+01 +8.4440295797208291e+03 +1.6388791089188639e+05 -4.6198405899630368e+07 
+8.0000000000000004e-01 -5.6452201876355435e-01 +7.7351431877588954e+00 -6.4247942321573592e-01 -6.4153819020063125e+01 +8.4057186626290550e+03 +1.6777185800364811e+05 -4.6002259224249750e+07 
+9.0000000000000002e-01 -5.6452210370117561e-01 +7.7351616436537753e+00 -6.3909304192488048e-01 -6.4782856422233692e+01 +8.3633495727998416e+03 +1.7168054078728094e+05 -4.5786731240255080e+07 
+1.0000000000000000e+00 -5.6452220022545041e-01 +7.7351762426583699e+00 -6.3546833242211365e-01 -6.5379667337071638e+01 +8.3174328676591522e+03 +1.7560656718104758e+05 -4.5554788316120319e+07 
+1.1000000000000001e+00 -5.6452230897494016e-01 +7.7351870432034850e+00 -6.3163203908306098e-01 -6.5944566661117108e+01 +8.2684790582245641e+03 +1.7954254505751684e+05 -4.5309396586872041e+07 
+1.2000000000000000e+00 -5.6452243058826812e-01 +7.7351941037177703e+00 -6.2761091172981520e-01 -6.6477869234245375e+01 +8.2169987555447715e+03 +1.8348108200625968e+05 -4.5053522663225725e+07 
+1.3000000000000000e+00 -5.6452256570395987e-01 +7.7351974826294549e+00 -6.2343169680108412e-01 -6.6979889868487305e+01 +8.1635024993100315e+03 +1.8741478545950615e+05 -4.4790132805853181e+07 
+1.3999999999999999e+00 -5.6452271496063100e-01 +7.7351972383647061e+00 -6.1912113932400459e-01 -6.7450943327123071e+01 +8.1085007988730385e+03 +1.9133626264948104e+05 -4.4522193128020257e+07 
+1.5000000000000000e+00 -5.6452287899685227e-01 +7.7351934293509474e+00 -6.1470598871879389e-01 -6.7891344390201454e+01 +8.0525042435780415e+03 +1.9523812091600816e+05 -4.4252670121510327e+07 
+1.6000000000000001e+00 -5.6452305845113671e-01 +7.7351861140075870e+00 -6.1021299377740801e-01 -6.8301407602846666e+01 +7.9960234073121546e+03 +1.9911296630764168e+05 -4.3984530199739933e+07 
+1.7000000000000000e+00 -5.6452325396200631e-01 +7.7351753507597678e+00 -6.0566890116423588e-01 -6.8681447655861092e+01 +7.9395688233481651e+03 +2.0295340574914456e+05 -4.3720739589175053e+07 
+1.8000000000000000e+00 -5.6452346616803017e-01 +7.7351611980225146e+00 -6.0110046167875542e-01 -6.9031778948459916e+01 +7.8836511018766842e+03 +2.0675204457460550e+05 -4.3464264880493686e+07 
+1.8999999999999999e+00 -5.6452369570765648e-01 +7.7351437142142156e+00 -5.9653442598220097e-01 -6.9352715939100321e+01 +7.8287808494129276e+03 +2.1050148846972108e+05 -4.3218072648958564e+07 
+2.0000000000000000e+00 -5.6452394321944599e-01 +7.7351229577499172e+00 -5.9199754443659569e-01 -6.9644572971852796e+01 +7.7754686716062834e+03 +2.1419434258167745e+05 -4.2985129477526695e+07 
+2.1000000000000001e+00 -5.6452420898247657e-01 +7.7350990062266449e+00 -5.8751528435561118e-01 -6.9907256624679491e+01 +7.7241734675896823e+03 +2.1782045344957043e+05 -4.2768027021119975e+07 
+2.2000000000000002e+00 -5.6452449190555321e-01 +7.7350720044323689e+00 -5.8310847546748468e-01 -7.0139056310107293e+01 +7.6751519707853167e+03 +2.2135865514213007e+05 -4.2567892727100670e+07 
+2.2999999999999998e+00 -5.6452479057086435e-01 +7.7350421117339003e+00 -5.7879690337652634e-01 -7.0337860327436175e+01 +7.6286115745188390e+03 +2.2478503569447200e+05 -4.2385496819455728e+07 
+2.3999999999999999e+00 -5.6452510356067498e-01 +7.7350094875018982e+00 -5.7460035659984288e-01 -7.0501557065878202e+01 +7.5847597372909304e+03 +2.2807568368264163e+05 -4.2221609846709520e+07 
+2.5000000000000000e+00 -5.6452542945717366e-01 +7.7349742911044181e+00 -5.7053862237830888e-01 -7.0628034795520335e+01 +7.5438038874701451e+03 +2.3120668694591505e+05 -4.2077002183968693e+07 
+2.6000000000000001e+00 -5.6452576684256905e-01 +7.7349366819108401e+00 -5.6663149129041035e-01 -7.0715181798813376e+01 +7.5059515295650999e+03 +2.3415413340761201e+05 -4.1952444588444442e+07 
+2.7000000000000002e+00 -5.6452611429903521e-01 +7.7348968192926160e+00 -5.6289875870014883e-01 -7.0760886384476251e+01 +7.4714102554385290e+03 +2.3689411114041528e+05 -4.1848708204358973e+07 
+2.7999999999999998e+00 -5.6452647040876225e-01 +7.7348548626166949e+00 -5.5936021986866702e-01 -7.0763036690857746e+01 +7.4403876641094794e+03 +2.3940270719941330e+05 -4.1766564216537930e+07 
+2.8999999999999999e+00 -5.6452683375393997e-01 +7.7348109712626680e+00 -5.5603567169964530e-01 -7.0719521177584753e+01 +7.4130913890449920e+03 +2.4165601046777540e+05 -4.1706783959742062e+07 
+3.0000000000000000e+00 -5.6452720291672576e-01 +7.7347653046000362e+00 -5.5294491719647343e-01 -7.0628227978728390e+01 +7.3897291873075001e+03 +2.4363010794231651e+05 -4.1670139354610868e+07 
+3.1000000000000001e+00 -5.6452757647929452e-01 +7.7347180220034275e+00 -5.5010775922659727e-01 -7.0487045325396167e+01 +7.3705088193445190e+03 +2.4530108713622048e+05 -4.1657402328675419e+07 
+3.2000000000000002e+00 -5.6452795302380521e-01 +7.7346692828509740e+00 -5.4754400450563645e-01 -7.0293861500673231e+01 +7.3556381253779045e+03 +2.4664503581563127e+05 -4.1669345180805765e+07 
+3.2999999999999998e+00 -5.6452833113240486e-01 +7.7346192465214507e+00 -5.4527346436180690e-01 -7.0046564766227320e+01 +7.3453250423868585e+03 +2.4763804161935477e+05 -4.1706740663477711e+07 
+3.3999999999999999e+00 -5.6452870938724331e-01 +7.7345680723970176e+00 -5.4331595189053628e-01 -6.9743043417524618e+01 +7.3397775489410360e+03 +2.4825619229916119e+05 -4.1770361719853491e+07 
+3.5000000000000000e+00 -5.6452908637046517e-01 +7.7345159198581399e+00 -5.4169128372922581e-01 -6.9381185656643254e+01 +7.3392037001551289e+03 +2.4847557504956159e+05 -4.1860981648795180e+07 
+3.6000000000000001e+00 -5.6452946066424481e-01 +7.7344629482883454e+00 -5.4041927940829915e-01 -6.8958879711658696e+01 +7.3438116154627705e+03 +2.4827227714233857e+05 -4.1979374044419453e+07 
+3.7000000000000002e+00 -5.6452983085064568e-01 +7.7344093170804271e+00 -5.3951976509708666e-01 -6.8474014021764191e+01 +7.3538095527850919e+03 +2.4762238702889590e+05 -4.2126313157516532e+07 
+3.7999999999999998e+00 -5.6453019551182926e-01 +7.7343551856219035e+00 -5.3901256839902267e-01 -6.7924476811256085e+01 +7.3694058073161077e+03 +2.4650199184949318e+05 -4.2302573404231764e+07 
+3.8999999999999999e+00 -5.6453055322996348e-01 +7.7343007133060242e+00 -5.3891751969744894e-01 -6.7308156413064481e+01 +7.3908087387461555e+03 +2.4488717932955685e+05 -4.2508929498528562e+07 
+4.0000000000000000e+00 -5.6453090258710070e-01 +7.7342460595306211e+00 -5.3925445788279114e-01 -6.6622941330629672e+01 +7.4182268700061604e+03 +2.4275403833531582e+05 -4.2746156883580081e+07 
+4.0999999999999996e+00 -5.6453124249786923e-01 +7.7341913996704061e+00 -5.4002879373928137e-01 -6.5868555913272857e+01 +7.4516166275905171e+03 +2.4009144391164411e+05 -4.3013722609877199e+07 
+4.2000000000000002e+00 -5.6453157309946855e-01 +7.7341369669566911e+00 -5.4119183853149633e-01 -6.5051245026642121e+01 +7.4900212241952286e+03 +2.3693331890869775e+05 -4.3306442116886131e+07 
+4.2999999999999998e+00 -5.6453189481014077e-01 +7.7340830077905913e+00 -5.4268224573828017e-01 -6.4178705077030784e+01 +7.5322771341726220e+03 +2.3332352611012623e+05 -4.3618096992607750e+07 
+4.4000000000000004e+00 -5.6453220804803939e-01 +7.7340297685676411e+00 -5.4443866715531586e-01 -6.3258632303876063e+01 +7.5772208127380300e+03 +2.2930592708507986e+05 -4.3942468770897418e+07 
+4.5000000000000000e+00 -5.6453251323147180e-01 +7.7339774956894027e+00 -5.4639975068684343e-01 -6.2298723131294665e+01 +7.6236886520907401e+03 +2.2492438425025123e+05 -4.4273338715438157e+07 
+4.5999999999999996e+00 -5.6453281077868234e-01 +7.7339264355536361e+00 -5.4850413863865977e-01 -6.1306673870098173e+01 +7.6705169479557580e+03 +2.2022275908517509e+05 -4.4604487661655523e+07 
+4.7000000000000002e+00 -5.6453310110805777e-01 +7.7338768345614612e+00 -5.5069047125447468e-01 -6.0290180932215165e+01 +7.7165419719830834e+03 +2.1524491338540267e+05 -4.4929696374442711e+07 
+4.7999999999999998e+00 -5.6453338463789871e-01 +7.7338289391132706e+00 -5.5289738629466612e-01 -5.9256940723398365e+01 +7.7605999590167748e+03 +2.1003470863992083e+05 -4.5242745475538887e+07 
+4.9000000000000004e+00 -5.6453366178667996e-01 +7.7337829956093884e+00 -5.5506351515491703e-01 -5.8214649649737389e+01 +7.8015270386123721e+03 +2.0463600603254148e+05 -4.5537415134559222e+07 
+5.0000000000000000e+00 -5.6453393297280441e-01 +7.7337392504519160e+00 -5.5712748510764987e-01 -5.7171004180014627e+01 +7.8381592735162731e+03 +1.9909266679916598e+05 -4.5807485240097649e+07 
+5.0999999999999996e+00 -5.6453419861482113e-01 +7.7336979500448226e+00 -5.5902792038915250e-01 -5.6133700853948611e+01 +7.8693326836457245e+03 +1.9344855227834577e+05 -4.6046735524246074e+07 
+5.2000000000000002e+00 -5.6453445913126132e-01 +7.7336593407915730e+00 -5.6070343785408827e-01 -5.5110436205702058e+01 +7.8938831623174447e+03 +1.8774752342690740e+05 -4.6248945163254581e+07 
+5.2999999999999998e+00 -5.6453471494072660e-01 +7.7336236690936691e+00 -5.6209265075798376e-01 -5.4108906731591020e+01 +7.9106465507821540e+03 +1.8203344064515902e+05 -4.6407893136008017e+07 
+5.4000000000000004e+00 -5.6453496646187840e-01 +7.7335911813559779e+00 -5.6313416511718450e-01 -5.3136809044056598e+01 +7.9184585657709576e+03 +1.7635016464834727e+05 -4.6517357877547823e+07 
+5.5000000000000000e+00 -5.6453521411339769e-01 +7.7335621239863430e+00 -5.6376658284264569e-01 -5.2201839858535237e+01 +7.9161548629526014e+03 +1.7074155636737117e+05 -4.6571117586380981e+07 
+5.5999999999999996e+00 -5.6453545831411034e-01 +7.7335367433869111e+00 -5.6392849900260700e-01 -5.1311695750462249e+01 +7.9025709851406491e+03 +1.6525147554972724e+05 -4.6562949984690890e+07 
+5.7000000000000002e+00 -5.6453569948282611e-01 +7.7335152859655549e+00 -5.6355850148000253e-01 -5.0474073484751777e+01 +7.8765423528053925e+03 +1.5992378264425544e+05 -4.6486632261205435e+07 
+5.7999999999999998e+00 -5.6453593803842772e-01 +7.7334979981285947e+00 -5.6259517351885779e-01 -4.9696669802306999e+01 +7.8369043178876027e+03 +1.5480233753879159e+05 -4.6335941347495161e+07 
+5.9000000000000004e+00 -5.6453617439988613e-01 +7.7334851262828144e+00 -5.6097708839669636e-01 -4.8987181493038541e+01 +7.7824920580800926e+03 +1.4993100001180772e+05 -4.6104653400738426e+07 
+5.9999999999999902e+00 -5.6453640898621893e-01 +7.7334769168097273e+00 -5.5864282096502005e-01 -4.8353304929103629e+01 +7.7121407963110478e+03 +1.4535362683967961e+05 -4.5786544894313306e+07 
+6.0999999999999899e+00 -5.6453664217561139e-01 +7.7334734975966137e+00 -5.5556545056454032e-01 -4.7800446508930364e+01 +7.6253124883677565e+03 +1.4110360252713924e+05 -4.5378449548106231e+07 
+6.1999999999999904e+00 -5.6453687419401344e-01 +7.7334746125802010e+00 -5.5183511657282791e-01 -4.7326589962324341e+01 +7.5235937433137033e+03 +1.3718168997133549e+05 -4.4887598126032278e+07 
+6.2999999999999901e+00 -5.6453710523218503e-01 +7.7334799283027182e+00 -5.4756678440738249e-01 -4.6928223515253109e+01 +7.4090214324759118e+03 +1.3358239777642244e+05 -4.4323434572772764e+07 
+6.3999999999999897e+00 -5.6453733548085039e-01 +7.7334891113331343e+00 -5.4287542091304053e-01 -4.6601836179476074e+01 +7.2836324373757407e+03 +1.3030023916633111e+05 -4.3695402868996769e+07 
+6.4999999999999902e+00 -5.6453756513071129e-01 +7.7335018282424786e+00 -5.3787599112865880e-01 -4.6343917016575467e+01 +7.1494635759414286e+03 +1.2732972767903174e+05 -4.3012946647572339e+07 
+6.5999999999999899e+00 -5.6453779437243456e-01 +7.7335177456326463e+00 -5.3268346044344783e-01 -4.6150955993822237e+01 +7.0085516484872360e+03 +1.2466538219147779e+05 -4.2285509426637031e+07 
+6.6999999999999904e+00 -5.6453802339666270e-01 +7.7335365301191459e+00 -5.2741279324714074e-01 -4.6019443472974224e+01 +6.8629334115961765e+03 +1.2230172392824067e+05 -4.1522534486231476e+07 
+6.7999999999999901e+00 -5.6453825239405220e-01 +7.7335578483339660e+00 -5.2217895044262719e-01 -4.5945870283101904e+01 +6.7146455224414658e+03 +1.2023327686166027e+05 -4.0733464582368419e+07 
+6.8999999999999897e+00 -5.6453848155509334e-01 +7.7335813669375435e+00 -5.1709689919991186e-01 -4.5926728097692163e+01 +6.5657247331797671e+03 +1.1845456999421696e+05 -3.9927742896289229e+07 
+6.9999999999999902e+00 -5.6453871107038023e-01 +7.7336067526005321e+00 -5.1228159848208166e-01 -4.5958508879729983e+01 +6.4182076041254613e+03 +1.1696013406635224e+05 -3.9114811641143844e+07 
+7.0999999999999899e+00 -5.6453894113042224e-01 +7.7336336720180539e+00 -5.0784800970749633e-01 -4.6037705303628655e+01 +6.2741307137830399e+03 +1.1574450404045383e+05 -3.8304113082269639e+07 
+7.1999999999999904e+00 -5.6453917192567193e-01 +7.7336617919091442e+00 -5.0391109596221828e-01 -4.6160810745164085e+01 +6.1355306385204722e+03 +1.1480221906254128e+05 -3.7505089426856577e+07 
+7.2999999999999901e+00 -5.6453940364659116e-01 +7.7336907790143430e+00 -5.0058581678479785e-01 -4.6324319206633362e+01 +6.0044438502682142e+03 +1.1412782202286781e+05 -3.6727182330027133e+07 
+7.3999999999999897e+00 -5.6453963648352434e-01 +7.7337203000952357e+00 -4.9798713112842352e-01 -4.6524725299762416e+01 +5.8829067805521026e+03 +1.1371585944794548e+05 -3.5979833222377270e+07 
+7.4999999999999902e+00 -5.6453987062684996e-01 +7.7337500219364790e+00 -4.9623000065230333e-01 -4.6758524316901770e+01 +5.7729558678430112e+03 +1.1356088196442943e+05 -3.5272483495154038e+07 
+7.5999999999999899e+00 -5.6454010626681728e-01 +7.7337796113490915e+00 -4.9542938353430344e-01 -4.7022212310647475e+01 +5.6766274499484180e+03 +1.1365744470713988e+05 -3.4614574017434619e+07 
+7.6999999999999904e+00 -5.6454034359371019e-01 +7.7338087351687861e+00 -4.9570023785535683e-01 -4.7312286070303692e+01 +5.5959578237560800e+03 +1.1400010727949742e+05 -3.4015545408934988e+07 
+7.7999999999999901e+00 -5.6454058279774211e-01 +7.7338370602524513e+00 -4.9715752081546616e-01 -4.7625242989269175e+01 +5.5329832301823826e+03 +1.1458343289039579e+05 -3.3484837968329441e+07 
+7.8999999999999897e+00 -5.6454082406908823e-01 +7.7338642534884610e+00 -4.9991619064464204e-01 -4.7957581389245533e+01 +5.4897398836136108e+03 +1.1540199031077189e+05 -3.3031891797458708e+07 
+7.9999999999999902e+00 -5.6454106759787404e-01 +7.7338899818206635e+00 -5.0409118810669606e-01 -4.8305799484040548e+01 +5.4682637882736353e+03 +1.1645034558829504e+05 -3.2666146357395079e+07 
+8.0999999999999908e+00 -5.6454131371396155e-01 +7.7339139710337896e+00 -5.0975281909974246e-01 -4.8665933654145732e+01 +5.4699696984167595e+03 +1.1771576099166434e+05 -3.2394658199984487e+07 
+8.1999999999999904e+00 -5.6454156318799709e-01 +7.7339361192781197e+00 -5.1682936199552942e-01 -4.9032729340301685e+01 +5.4942619321800521e+03 +1.1916330442339656e+05 -3.2216602867148507e+07 
+8.2999999999999901e+00 -5.6454181687740013e-01 +7.7339563555511770e+00 -5.2522084620047904e-01 -4.9400701317045758e+01 +5.5401386121672394e+03 +1.2075376208696851e+05 -3.2129528315465413e+07 
+8.3999999999999897e+00 -5.6454207563949488e-01 +7.7339746088100370e+00 -5.3482730459933492e-01 -4.9764363467060406e+01 +5.6065979311578621e+03 +1.2244791623280956e+05 -3.2130982803670298e+07 
+8.4999999999999893e+00 -5.6454234033166650e-01 +7.7339908079726438e+00 -5.4554877883348740e-01 -5.0118228810958776e+01 +5.6926382530739047e+03 +1.2420654531788998e+05 -3.2218515371441405e+07 
+8.5999999999999908e+00 -5.6454261181111798e-01 +7.7340048819231582e+00 -5.5728532118035723e-01 -5.0456809677972302e+01 +5.7972581439060841e+03 +1.2599042505649370e+05 -3.2389675972970504e+07 
+8.6999999999999904e+00 -5.6454289093512366e-01 +7.7340167594984113e+00 -5.6993699165838774e-01 -5.0774617323448027e+01 +5.9194563235821433e+03 +1.2776032624438748e+05 -3.2642015264471743e+07 
+8.7999999999999794e+00 -5.6454317856085012e-01 +7.7340263694988609e+00 -5.8340385557240160e-01 -5.1066162242402704e+01 +6.0582316166741766e+03 +1.2947701657180437e+05 -3.2973084362196572e+07 
+8.8999999999999808e+00 -5.6454347554537843e-01 +7.7340336406786561e+00 -5.9758599146361335e-01 -5.1325953915635544e+01 +6.2125831020465484e+03 +1.3110125927535159e+05 -3.3380435546078634e+07 
+8.9999999999999805e+00 -5.6454378274581707e-01 +7.7340385017505682e+00 -6.1238348747933491e-01 -5.1548500926893738e+01 +6.3815100467218053e+03 +1.3259381374741401e+05 -3.3861621954334535e+07 
+9.0999999999999801e+00 -5.6454410101917318e-01 +7.7340408813742538e+00 -6.2769643688350274e-01 -5.1728310659319582e+01 +6.5640118201759196e+03 +1.3391543389881280e+05 -3.4414197170167126e+07 
+9.1999999999999797e+00 -5.6454443122236619e-01 +7.7340407081722606e+00 -6.4342494653748727e-01 -5.1859889747700592e+01 +6.7590880545389136e+03 +1.3502687075583049e+05 -3.5035715982000194e+07 
+9.2999999999999794e+00 -5.6454477421236038e-01 +7.7340379107103043e+00 -6.5946913128201168e-01 -5.1937743536248284e+01 +6.9657385413729171e+03 +1.3588886942677642e+05 -3.5723733899500184e+07 
+9.3999999999999808e+00 -5.6454513084595070e-01 +7.7340324175074997e+00 -6.7572911927595436e-01 -5.1956376353974456e+01 +7.1829633273494674e+03 +1.3646217063082135e+05 -3.6475807590492658e+07 
+9.4999999999999805e+00 -5.6454550197991016e-01 +7.7340241570333559e+00 -6.9210504473814405e-01 -5.1910291465121418e+01 +7.4097625815136480e+03 +1.3670751055446500e+05 -3.7289494262437358e+07 
+9.5999999999999801e+00 -5.6454588847100562e-01 +7.7340130577023602e+00 -7.0849705648340755e-01 -5.1793990901822490e+01 +7.6451367596401724e+03 +1.3658561985180527e+05 -3.8162352450924471e+07 
+9.6999999999999797e+00 -5.6454629117583144e-01 +7.7339990478760994e+00 -7.2480531388440050e-01 -5.1601975542449928e+01 +7.8880865207520947e+03 +1.3605722415977620e+05 -3.9091941598042719e+07 
+9.7999999999999794e+00 -5.6454671095106490e-01 +7.7339820558629837e+00 -7.4092998343756145e-01 -5.1328745103649986e+01 +8.1376126673726130e+03 +1.3508304407046500e+05 -4.0075821785291210e+07 
+9.8999999999999808e+00 -5.6454714865317313e-01 +7.7339620099119140e+00 -7.5677125121747346e-01 -5.0968797973633890e+01 +8.3927163831542475e+03 +1.3362379423055149e+05 -4.1111554862574816e+07 
+9.9999999999999805e+00 -5.6454760513841429e-01 +7.7339388383636276e+00 -7.7222930797310996e-01 -5.0516637333475984e+01 +8.6523985505599649e+03 +1.3164021999971668e+05 -4.2196700280769311e+07 
+1.0100000000000000e+01 -5.6454808094964160e-01 +7.7339126043544502e+00 -7.8720863467692637e-01 -4.9971300042599076e+01 +8.9153895034578545e+03 +1.2911971610284803e+05 -4.3326752298328690e+07 
