# field on trajectory
# s[mm] rx[mm] ry[mm] rz[mm] bx[T] by[T] bz[T]
-0.0000000000000000e+00 +8.1530000000000094e+00 +0.0000000000000000e+00 -0.0000000000000000e+00 -2.9945789155919781e-02 -5.6436575011255230e-01 +5.6224715171500957e-03
-1.0000000000000001e-01 +8.1529997163925092e+00 +0.0000000000000000e+00 -9.9999999999463796e-02 -2.9945719152416787e-02 -5.6436559615170645e-01 +5.6225255200339158e-03
-2.0000000000000001e-01 +8.1529988655711296e+00 +0.0000000000000000e+00 -1.9999999999571000e-01 -2.9945648050391498e-02 -5.6436544303162728e-01 +5.6225778554453657e-03
-2.9999999999999999e-01 +8.1529974475415692e+00 +0.0000000000000000e+00 -2.9999999998552201e-01 -2.9945576150851312e-02 -5.6436529150336967e-01 +5.6226288305598893e-03
-4.0000000000000002e-01 +8.1529954622965306e+00 +0.0000000000000000e+00 -3.9999999996568197e-01 -2.9945503754802549e-02 -5.6436514231809776e-01 +5.6226787525532427e-03
-5.0000000000000000e-01 +8.1529929098396696e+00 +0.0000000000000000e+00 -4.9999999993297300e-01 -2.9945431163240253e-02 -5.6436499622690017e-01 +5.6227279285995194e-03
-5.9999999999999998e-01 +8.1529897901673394e+00 +0.0000000000000000e+00 -5.9999999988417696e-01 -2.9945358677155514e-02 -5.6436485398092762e-01 +5.6227766658725553e-03
-6.9999999999999996e-01 +8.1529861032831796e+00 +0.0000000000000000e+00 -6.9999999981607697e-01 -2.9945286597529198e-02 -5.6436471633128216e-01 +5.6228252715447187e-03
-8.0000000000000004e-01 +8.1529818491871993e+00 +0.0000000000000000e+00 -7.9999999972545699e-01 -2.9945215225336164e-02 -5.6436458402909773e-01 +5.6228740527877038e-03
-9.0000000000000002e-01 +8.1529770278793894e+00 +0.0000000000000000e+00 -8.9999999960909804e-01 -2.9945144861543552e-02 -5.6436445782551303e-01 +5.6229233167722032e-03
-1.0000000000000000e+00 +8.1529716393597500e+00 +0.0000000000000000e+00 -9.9999999946378304e-01 -2.9945075807110505e-02 -5.6436433847166922e-01 +5.6229733706678470e-03
-1.1000000000000001e+00 +8.1529656836210105e+00 +0.0000000000000000e+00 -1.0999999992862901e+00 -2.9945008362990966e-02 -5.6436422671876674e-01 +5.6230245216437229e-03
-1.2000000000000000e+00 +8.1529591606740706e+00 +0.0000000000000000e+00 -1.1999999990734200e+00 -2.9944942830122879e-02 -5.6436412331786512e-01 +5.6230770768662995e-03
-1.3000000000000000e+00 +8.1529520705153100e+00 +0.0000000000000000e+00 -1.2999999988219300e+00 -2.9944879509441413e-02 -5.6436402902013671e-01 +5.6231313435019682e-03
-1.3999999999999999e+00 +8.1529444131410909e+00 +0.0000000000000000e+00 -1.3999999985286200e+00 -2.9944818701872825e-02 -5.6436394457675310e-01 +5.6231876287158285e-03
-1.5000000000000000e+00 +8.1529361885550298e+00 +0.0000000000000000e+00 -1.4999999981902701e+00 -2.9944760708331093e-02 -5.6436387073882743e-01 +5.6232462396710739e-03
-1.6000000000000001e+00 +8.1529273967571498e+00 +0.0000000000000000e+00 -1.5999999978036501e+00 -2.9944705829722178e-02 -5.6436380825749732e-01 +5.6233074835297736e-03
-1.7000000000000000e+00 +8.1529180377474404e+00 +0.0000000000000000e+00 -1.6999999973655600e+00 -2.9944654366942391e-02 -5.6436375788389614e-01 +5.6233716674525440e-03
-1.8000000000000000e+00 +8.1529081115222706e+00 +0.0000000000000000e+00 -1.7999999968727800e+00 -2.9944606620879482e-02 -5.6436372036918159e-01 +5.6234390985987854e-03
-1.8999999999999999e+00 +8.1528976180852606e+00 +0.0000000000000000e+00 -1.8999999963220899e+00 -2.9944562892407982e-02 -5.6436369646444695e-01 +5.6235100841257506e-03
-2.0000000000000000e+00 +8.1528865574327902e+00 +0.0000000000000000e+00 -1.9999999957102601e+00 -2.9944523482394951e-02 -5.6436368692083594e-01 +5.6235849311896471e-03
-2.1000000000000001e+00 +8.1528749295721408e+00 +0.0000000000000000e+00 -2.0999999950340902e+00 -2.9944488496483863e-02 -5.6436369221482041e-01 +5.6236638646209782e-03
-2.2000000000000002e+00 +8.1528627344960096e+00 +0.0000000000000000e+00 -2.1999999942903599e+00 -2.9944457259485097e-02 -5.6436371172466970e-01 +5.6237467799580198e-03
-2.2999999999999998e+00 +8.1528499722080596e+00 +0.0000000000000000e+00 -2.2999999934758399e+00 -2.9944428900999784e-02 -5.6436374455399141e-01 +5.6238334904160801e-03
-2.3999999999999999e+00 +8.1528366427046404e+00 +0.0000000000000000e+00 -2.3999999925873299e+00 -2.9944402550638394e-02 -5.6436378980645208e-01 +5.6239238092126572e-03
-2.5000000000000000e+00 +8.1528227459894005e+00 +0.0000000000000000e+00 -2.4999999916215998e+00 -2.9944377338016272e-02 -5.6436384658566574e-01 +5.6240175495665522e-03
-2.6000000000000001e+00 +8.1528082820659602e+00 +0.0000000000000000e+00 -2.5999999905754398e+00 -2.9944352392758184e-02 -5.6436391399524943e-01 +5.6241145246987605e-03
-2.7000000000000002e+00 +8.1527932509234198e+00 +0.0000000000000000e+00 -2.6999999894456299e+00 -2.9944326844505844e-02 -5.6436399113893698e-01 +5.6242145478338909e-03
-2.7999999999999998e+00 +8.1527776525726896e+00 +0.0000000000000000e+00 -2.7999999882289601e+00 -2.9944299822904429e-02 -5.6436407712029746e-01 +5.6243174321975835e-03
-2.8999999999999999e+00 +8.1527614870065008e+00 +0.0000000000000000e+00 -2.8999999869222002e+00 -2.9944270457620631e-02 -5.6436417104304493e-01 +5.6244229910199662e-03
-3.0000000000000000e+00 +8.1527447542284808e+00 +0.0000000000000000e+00 -2.9999999855221300e+00 -2.9944237878332183e-02 -5.6436427201081540e-01 +5.6245310375336432e-03
-3.1000000000000001e+00 +8.1527274542386294e+00 +0.0000000000000000e+00 -3.0999999840255499e+00 -2.9944201214735438e-02 -5.6436437912727733e-01 +5.6246413849751304e-03
-3.2000000000000002e+00 +8.1527095870333106e+00 +0.0000000000000000e+00 -3.1999999824292300e+00 -2.9944159596546831e-02 -5.6436449149613377e-01 +5.6247538465851437e-03
-3.2999999999999998e+00 +8.1526911526198091e+00 +0.0000000000000000e+00 -3.2999999807299600e+00 -2.9944112153498455e-02 -5.6436460822100920e-01 +5.6248682356077441e-03
-3.3999999999999999e+00 +8.1526721509872004e+00 +0.0000000000000000e+00 -3.3999999789245101e+00 -2.9944058015351611e-02 -5.6436472840567553e-01 +5.6249843652929239e-03
-3.5000000000000000e+00 +8.1526525821464002e+00 +0.0000000000000000e+00 -3.4999999770096801e+00 -2.9943996311881826e-02 -5.6436485115374346e-01 +5.6251020488937240e-03
-3.6000000000000001e+00 +8.1526324460901396e+00 +0.0000000000000000e+00 -3.5999999749822500e+00 -2.9943926172896866e-02 -5.6436497556897058e-01 +5.6252210996697088e-03
-3.7000000000000002e+00 +8.1526117428220495e+00 +0.0000000000000000e+00 -3.6999999728389801e+00 -2.9943846728226330e-02 -5.6436510075503887e-01 +5.6253413308849226e-03
-3.7999999999999998e+00 +8.1525904723421299e+00 +0.0000000000000000e+00 -3.7999999705766800e+00 -2.9943757107729157e-02 -5.6436522581566628e-01 +5.6254625558093685e-03
-3.8999999999999999e+00 +8.1525686346503807e+00 +0.0000000000000000e+00 -3.8999999681921298e+00 -2.9943656441293671e-02 -5.6436534985457976e-01 +5.6255845877189745e-03
-4.0000000000000000e+00 +8.1525462297431694e+00 +0.0000000000000000e+00 -3.9999999656820902e+00 -2.9943543858840592e-02 -5.6436547197554243e-01 +5.6257072398961869e-03
-4.0999999999999996e+00 +8.1525232576241304e+00 +0.0000000000000000e+00 -4.0999999630433699e+00 -2.9943418895744256e-02 -5.6436559148144616e-01 +5.6258303445228175e-03
-4.2000000000000002e+00 +8.1524997182896204e+00 +0.0000000000000000e+00 -4.1999999602727298e+00 -2.9943282709099364e-02 -5.6436570847194134e-01 +5.6259538093592510e-03
-4.2999999999999998e+00 +8.1524756117469206e+00 +0.0000000000000000e+00 -4.2999999573669703e+00 -2.9943136861414869e-02 -5.6436582324575912e-01 +5.6260775610582998e-03
-4.4000000000000004e+00 +8.1524509379887604e+00 +0.0000000000000000e+00 -4.3999999543228601e+00 -2.9942982915194743e-02 -5.6436593610172969e-01 +5.6262015262729687e-03
-4.5000000000000000e+00 +8.1524256970187707e+00 +0.0000000000000000e+00 -4.4999999511372000e+00 -2.9942822432926387e-02 -5.6436604733858498e-01 +5.6263256316542503e-03
-4.5999999999999996e+00 +8.1523998888369498e+00 +0.0000000000000000e+00 -4.5999999478067499e+00 -2.9942656977085515e-02 -5.6436615725506944e-01 +5.6264498038521337e-03
-4.7000000000000002e+00 +8.1523735134396702e+00 +0.0000000000000000e+00 -4.6999999443283098e+00 -2.9942488110134967e-02 -5.6436626614994012e-01 +5.6265739695153978e-03
-4.7999999999999998e+00 +8.1523465708305594e+00 +0.0000000000000000e+00 -4.7999999406986600e+00 -2.9942317394519122e-02 -5.6436637432188086e-01 +5.6266980552905953e-03
-4.9000000000000004e+00 +8.1523190610096208e+00 +0.0000000000000000e+00 -4.8999999369145701e+00 -2.9942146392667218e-02 -5.6436648206958540e-01 +5.6268219878227183e-03
-5.0000000000000000e+00 +8.1522909839768491e+00 +0.0000000000000000e+00 -4.9999999329728402e+00 -2.9941976666990788e-02 -5.6436658969172915e-01 +5.6269456937547658e-03
-5.0999999999999996e+00 +8.1522623397286207e+00 +0.0000000000000000e+00 -5.0999999288702398e+00 -2.9941809779883890e-02 -5.6436669748699553e-01 +5.6270690997278321e-03
-5.2000000000000002e+00 +8.1522331282685592e+00 +0.0000000000000000e+00 -5.1999999246035600e+00 -2.9941647293717649e-02 -5.6436680575399145e-01 +5.6271921323800900e-03
-5.2999999999999998e+00 +8.1522033495966806e+00 +0.0000000000000000e+00 -5.2999999201695802e+00 -2.9941490770843446e-02 -5.6436691479133050e-01 +5.6273147183474488e-03
-5.4000000000000004e+00 +8.1521730037093203e+00 +0.0000000000000000e+00 -5.3999999155650800e+00 -2.9941341773591892e-02 -5.6436702489763091e-01 +5.6274367842634150e-03
-5.5000000000000000e+00 +8.1521420906137791e+00 +0.0000000000000000e+00 -5.4999999107868396e+00 -2.9941201864265663e-02 -5.6436713637140401e-01 +5.6275582567577439e-03
-5.5999999999999996e+00 +8.1521106102991308e+00 +0.0000000000000000e+00 -5.5999999058316599e+00 -2.9941072605150301e-02 -5.6436724951127726e-01 +5.6276790624585835e-03
-5.7000000000000002e+00 +8.1520785627762997e+00 +0.0000000000000000e+00 -5.6999999006963096e+00 -2.9940955558496667e-02 -5.6436736461568393e-01 +5.6277991279891091e-03
-5.7999999999999998e+00 +8.1520459480379905e+00 +0.0000000000000000e+00 -5.7999998953775700e+00 -2.9940852286536219e-02 -5.6436748198317166e-01 +5.6279183799705411e-03
-5.9000000000000004e+00 +8.1520127660915005e+00 +0.0000000000000000e+00 -5.8999998898722197e+00 -2.9940764351466396e-02 -5.6436760191214830e-01 +5.6280367450193625e-03
-5.9999999999999902e+00 +8.1519790169259103e+00 +0.0000000000000000e+00 -5.9999998841770603e+00 -2.9940693315463035e-02 -5.6436772470113483e-01 +5.6281541497497575e-03
-6.0999999999999899e+00 +8.1519447005521197e+00 +0.0000000000000000e+00 -6.0999998782888598e+00 -2.9940640365742094e-02 -5.6436785073932438e-01 +5.6282705580647518e-03
-6.1999999999999904e+00 +8.1519098169665103e+00 +0.0000000000000000e+00 -6.1999998722044003e+00 -2.9940605189826674e-02 -5.6436798077948613e-01 +5.6283860830432823e-03
-6.2999999999999901e+00 +8.1518743661654298e+00 +0.0000000000000000e+00 -6.2999998659204701e+00 -2.9940587100339450e-02 -5.6436811566526435e-01 +5.6285008750555044e-03
-6.3999999999999897e+00 +8.1518383481488907e+00 +0.0000000000000000e+00 -6.3999998594338496e+00 -2.9940585409930453e-02 -5.6436825624028342e-01 +5.6286150844676586e-03
-6.4999999999999902e+00 +8.1518017629241495e+00 +0.0000000000000000e+00 -6.4999998527413201e+00 -2.9940599431276776e-02 -5.6436840334811844e-01 +5.6287288616416230e-03
-6.5999999999999899e+00 +8.1517646104839496e+00 +0.0000000000000000e+00 -6.5999998458396698e+00 -2.9940628477092876e-02 -5.6436855783246698e-01 +5.6288423569365240e-03
-6.6999999999999904e+00 +8.1517268908319203e+00 +0.0000000000000000e+00 -6.6999998387256703e+00 -2.9940671860121344e-02 -5.6436872053695120e-01 +5.6289557207065541e-03
-6.7999999999999901e+00 +8.1516886039680703e+00 +0.0000000000000000e+00 -6.7999998313961196e+00 -2.9940728893140159e-02 -5.6436889230523102e-01 +5.6290691033019881e-03
-6.8999999999999897e+00 +8.1516497498923908e+00 +0.0000000000000000e+00 -6.8999998238477902e+00 -2.9940798888962502e-02 -5.6436907398097735e-01 +5.6291826550687483e-03
-6.9999999999999902e+00 +8.1516103286012402e+00 +0.0000000000000000e+00 -6.9999998160774597e+00 -2.9940881160439511e-02 -5.6436926640790042e-01 +5.6292965263485678e-03
-7.0999999999999899e+00 +8.1515703400982602e+00 +0.0000000000000000e+00 -7.0999998080819298e+00 -2.9940975020456999e-02 -5.6436947042966534e-01 +5.6294108674779450e-03
-7.1999999999999904e+00 +8.1515297843834595e+00 +0.0000000000000000e+00 -7.1999997998579603e+00 -2.9941079781941327e-02 -5.6436968688997813e-01 +5.6295258287888993e-03
-7.2999999999999901e+00 +8.1514886614531896e+00 +0.0000000000000000e+00 -7.2999997914023496e+00 -2.9941194757860608e-02 -5.6436991663258562e-01 +5.6296415606088140e-03
-7.3999999999999897e+00 +8.1514469713147300e+00 +0.0000000000000000e+00 -7.3999997827118804e+00 -2.9941319261219991e-02 -5.6437016050116406e-01 +5.6297582132591312e-03
-7.4999999999999902e+00 +8.1514047139571595e+00 +0.0000000000000000e+00 -7.4999997737833199e+00 -2.9941452605075001e-02 -5.6437041933954346e-01 +5.6298759370575300e-03
-7.5999999999999899e+00 +8.1513618893914099e+00 +0.0000000000000000e+00 -7.5999997646134698e+00 -2.9941594102516202e-02 -5.6437069399140050e-01 +5.6299948823145965e-03
-7.6999999999999904e+00 +8.1513184976138309e+00 +0.0000000000000000e+00 -7.6999997551991104e+00 -2.9941743066685553e-02 -5.6437098530053897e-01 +5.6301151993365748e-03
-7.7999999999999901e+00 +8.1512745386207808e+00 +0.0000000000000000e+00 -7.7999997455370096e+00 -2.9941898810771733e-02 -5.6437129411077924e-01 +5.6302370384240675e-03
-7.8999999999999897e+00 +8.1512300124159101e+00 +0.0000000000000000e+00 -7.8999997356239602e+00 -2.9942060648008240e-02 -5.6437162126590057e-01 +5.6303605498712979e-03
-7.9999999999999902e+00 +8.1511849189955701e+00 +0.0000000000000000e+00 -7.9999997254567399e+00 -2.9942227891680884e-02 -5.6437196760975605e-01 +5.6304858839671453e-03
-8.0999999999999908e+00 +8.1511392583670403e+00 +0.0000000000000000e+00 -8.0999997150321406e+00 -2.9942399810224323e-02 -5.6437233363973338e-01 +5.6306131408065500e-03
-8.1999999999999904e+00 +8.1510930305230396e+00 +0.0000000000000000e+00 -8.1999997043469399e+00 -2.9942575492505438e-02 -5.6437271846776016e-01 +5.6307422197331520e-03
-8.2999999999999901e+00 +8.1510462354672200e+00 +0.0000000000000000e+00 -8.2999996933979094e+00 -2.9942753982441530e-02 -5.6437312085932767e-01 +5.6308729699049917e-03
-8.3999999999999897e+00 +8.1509988731995708e+00 +0.0000000000000000e+00 -8.3999996821818605e+00 -2.9942934323893441e-02 -5.6437353958001368e-01 +5.6310052404844879e-03
-8.4999999999999893e+00 +8.1509509437164507e+00 +0.0000000000000000e+00 -8.4999996706955496e+00 -2.9943115560663411e-02 -5.6437397339548390e-01 +5.6311388806386097e-03
-8.5999999999999908e+00 +8.1509024470215099e+00 +0.0000000000000000e+00 -8.5999996589357703e+00 -2.9943296736488646e-02 -5.6437442107140867e-01 +5.6312737395381686e-03
-8.6999999999999904e+00 +8.1508533831147396e+00 +0.0000000000000000e+00 -8.6999996468993004e+00 -2.9943476895043682e-02 -5.6437488137354974e-01 +5.6314096663588661e-03
-8.7999999999999794e+00 +8.1508037519961398e+00 +0.0000000000000000e+00 -8.7999996345829192e+00 -2.9943655079936952e-02 -5.6437535306773323e-01 +5.6315465102811640e-03
-8.8999999999999808e+00 +8.1507535536620708e+00 +0.0000000000000000e+00 -8.8999996219834205e+00 -2.9943830334710247e-02 -5.6437583491988008e-01 +5.6316841204907602e-03
-8.9999999999999805e+00 +8.1507027881161793e+00 +0.0000000000000000e+00 -8.9999996090975891e+00 -2.9944001702832106e-02 -5.6437632569592289e-01 +5.6318223461778675e-03
-9.0999999999999801e+00 +8.1506514553584601e+00 +0.0000000000000000e+00 -9.0999995959221902e+00 -2.9944168227700383e-02 -5.6437682416189239e-01 +5.6319610365382668e-03
-9.1999999999999797e+00 +8.1505995553889097e+00 +0.0000000000000000e+00 -9.1999995824540193e+00 -2.9944328952638693e-02 -5.6437732908389127e-01 +5.6321000407731905e-03
-9.2999999999999794e+00 +8.1505470882038900e+00 +0.0000000000000000e+00 -9.2999995686898593e+00 -2.9944482920895864e-02 -5.6437783922812346e-01 +5.6322392080897657e-03
-9.3999999999999808e+00 +8.1504940538070496e+00 +0.0000000000000000e+00 -9.3999995546264898e+00 -2.9944629175639430e-02 -5.6437835336081121e-01 +5.6323783877003358e-03
-9.4999999999999805e+00 +8.1504404521983798e+00 +0.0000000000000000e+00 -9.4999995402606903e+00 -2.9944766759958091e-02 -5.6437887024828226e-01 +5.6325174288234751e-03
-9.5999999999999801e+00 +8.1503862833778804e+00 +0.0000000000000000e+00 -9.5999995255892507e+00 -2.9944894716858236e-02 -5.6437938865694326e-01 +5.6326561806839025e-03
-9.6999999999999797e+00 +8.1503315473419207e+00 +0.0000000000000000e+00 -9.6999995106089507e+00 -2.9945012089263336e-02 -5.6437990735330812e-01 +5.6327944925129055e-03
-9.7999999999999794e+00 +8.1502762440941297e+00 +0.0000000000000000e+00 -9.7999994953165697e+00 -2.9945117920007498e-02 -5.6438042510391750e-01 +5.6329322135476711e-03
-9.8999999999999808e+00 +8.1502203736345091e+00 +0.0000000000000000e+00 -9.8999994797088906e+00 -2.9945211251837880e-02 -5.6438094067542366e-01 +5.6330691930323090e-03
-9.9999999999999805e+00 +8.1501639359594300e+00 +0.0000000000000000e+00 -9.9999994637827001e+00 -2.9945291127412711e-02 -5.6438145283459207e-01 +5.6332052802180229e-03
-1.0100000000000000e+01 +8.1501069310761505e+00 +0.0000000000000000e+00 -1.0099999447534801e+01 -2.9945356852834903e-02 -5.6438196056832013e-01 +5.6333403610130872e-03
-1.0199999999999999e+01 +8.1500493589774106e+00 +0.0000000000000000e+00 -1.0199999430961901e+01 -2.9945408788350253e-02 -5.6438246374416157e-01 +5.6334744679379569e-03
-1.0300000000000001e+01 +8.1499912196668394e+00 +0.0000000000000000e+00 -1.0299999414060901e+01 -2.9945447557787015e-02 -5.6438296244960606e-01 +5.6336076701653352e-03
-1.0400000000000000e+01 +8.1499325131444493e+00 +0.0000000000000000e+00 -1.0399999396828500e+01 -2.9945473785025021e-02 -5.6438345677203205e-01 +5.6337400368686140e-03
-1.0500000000000000e+01 +8.1498732394065900e+00 +0.0000000000000000e+00 -1.0499999379261400e+01 -2.9945488093997209e-02 -5.6438394679870552e-01 +5.6338716372219023e-03
-1.0600000000000000e+01 +8.1498133984568994e+00 +0.0000000000000000e+00 -1.0599999361356600e+01 -2.9945491108686641e-02 -5.6438443261668925e-01 +5.6340025403991360e-03
-1.0699999999999999e+01 +8.1497529902953794e+00 +0.0000000000000000e+00 -1.0699999343110701e+01 -2.9945483453132467e-02 -5.6438491431292603e-01 +5.6341328155749409e-03
-1.0800000000000001e+01 +8.1496920149220404e+00 +0.0000000000000000e+00 -1.0799999324520600e+01 -2.9945465751429947e-02 -5.6438539197420434e-01 +5.6342625319243667e-03
-1.0900000000000000e+01 +8.1496304723332305e+00 +0.0000000000000000e+00 -1.0899999305583000e+01 -2.9945438627733478e-02 -5.6438586568718452e-01 +5.6343917586231520e-03
-1.1000000000000000e+01 +8.1495683625325892e+00 +0.0000000000000000e+00 -1.0999999286294800e+01 -2.9945402706253531e-02 -5.6438633553830952e-01 +5.6345205648468642e-03
-1.1100000000000000e+01 +8.1495056855201309e+00 +0.0000000000000000e+00 -1.1099999266652601e+01 -2.9945358611262737e-02 -5.6438680161388677e-01 +5.6346490197717669e-03
-1.1199999999999999e+01 +8.1494424412958306e+00 +0.0000000000000000e+00 -1.1199999246653300e+01 -2.9945306967095794e-02 -5.6438726400005468e-01 +5.6347771925745220e-03
-1.1300000000000001e+01 +8.1493786298560700e+00 +0.0000000000000000e+00 -1.1299999226293700e+01 -2.9945248398152564e-02 -5.6438772278280835e-01 +5.6349051524324902e-03
-1.1400000000000000e+01 +8.1493142512044905e+00 +0.0000000000000000e+00 -1.1399999205570500e+01 -2.9945183528894959e-02 -5.6438817804790997e-01 +5.6350329685228460e-03
-1.1500000000000000e+01 +8.1492493053447106e+00 +0.0000000000000000e+00 -1.1499999184480499e+01 -2.9945112983851545e-02 -5.6438862988094374e-01 +5.6351607100231637e-03
-1.1600000000000000e+01 +8.1491837922658306e+00 +0.0000000000000000e+00 -1.1599999163020600e+01 -2.9945037387624978e-02 -5.6438907836742236e-01 +5.6352884461125753e-03
-1.1699999999999999e+01 +8.1491177119787608e+00 +0.0000000000000000e+00 -1.1699999141187400e+01 -2.9944957364878545e-02 -5.6438952359250261e-01 +5.6354162459688632e-03
