# field on trajectory
# s[mm] rx[mm] ry[mm] rz[mm] bx[T] by[T] bz[T]
0.0000000000000000e+00 +8.1530000000000094e+00 +0.0000000000000000e+00 +0.0000000000000000e+00 -2.8728184939446521e-02 -5.3645278184999234e-01 +5.3228157270568226e-03
1.0000000000000001e-01 +8.1529997159377707e+00 +0.0000000000000000e+00 +1.0008006405070299e-01 -2.8728258027898398e-02 -5.3645277990100182e-01 +5.3228179136822129e-03
2.0000000000000001e-01 +8.1529988637557800e+00 +0.0000000000000000e+00 +2.0016012809818201e-01 -2.8728331951472581e-02 -5.3645276985939550e-01 +5.3228199345582081e-03
2.9999999999999999e-01 +8.1529974434524792e+00 +0.0000000000000000e+00 +3.0024019213920999e-01 -2.8728406991362952e-02 -5.3645275203595899e-01 +5.3228220010131007e-03
4.0000000000000002e-01 +8.1529954550242092e+00 +0.0000000000000000e+00 +4.0032025617056399e-01 -2.8728483428755627e-02 -5.3645272674149280e-01 +5.3228243243736168e-03
5.0000000000000000e-01 +8.1529928984782600e+00 +0.0000000000000000e+00 +5.0040032018901703e-01 -2.8728561544826212e-02 -5.3645269428671616e-01 +5.3228271159641077e-03
5.9999999999999998e-01 +8.1529897738146193e+00 +0.0000000000000000e+00 +6.0048038419134497e-01 -2.8728641620749000e-02 -5.3645265498239803e-01 +5.3228305871080980e-03
6.9999999999999996e-01 +8.1529860810223909e+00 +0.0000000000000000e+00 +7.0056044817432195e-01 -2.8728723937700495e-02 -5.3645260913938286e-01 +5.3228349491287160e-03
8.0000000000000004e-01 +8.1529818201124709e+00 +0.0000000000000000e+00 +8.0064051213472498e-01 -2.8728808776849215e-02 -5.3645255706834738e-01 +5.3228404133464444e-03
9.0000000000000002e-01 +8.1529769910812302e+00 +0.0000000000000000e+00 +9.0072057606932698e-01 -2.8728896419371708e-02 -5.3645249908006554e-01 +5.3228471910819943e-03
1.0000000000000000e+00 +8.1529715939250291e+00 +0.0000000000000000e+00 +1.0008006399749001e+00 -2.8728987146449274e-02 -5.3645243548530153e-01 +5.3228554936553991e-03
1.1000000000000001e+00 +8.1529656286511507e+00 +0.0000000000000000e+00 +1.1008807038482300e+00 -2.8729081239265972e-02 -5.3645236659472539e-01 +5.3228655323853888e-03
1.2000000000000000e+00 +8.1529590952522994e+00 +0.0000000000000000e+00 +1.2009607676860801e+00 -2.8729178979020546e-02 -5.3645229271909989e-01 +5.3228775185914434e-03
1.3000000000000000e+00 +8.1529519937357708e+00 +0.0000000000000000e+00 +1.3010408314852300e+00 -2.8729280646917564e-02 -5.3645221416906375e-01 +5.3228916635918123e-03
1.3999999999999999e+00 +8.1529443240979198e+00 +0.0000000000000000e+00 +1.4011208952424601e+00 -2.8729386524179296e-02 -5.3645213125531699e-01 +5.3229081787055828e-03
1.5000000000000000e+00 +8.1529360863350995e+00 +0.0000000000000000e+00 +1.5012009589545301e+00 -2.8729496892043824e-02 -5.3645204428854021e-01 +5.3229272752520458e-03
1.6000000000000001e+00 +8.1529272804509691e+00 +0.0000000000000000e+00 +1.6012810226182299e+00 -2.8729612031764426e-02 -5.3645195357933717e-01 +5.3229491645503269e-03
1.7000000000000000e+00 +8.1529179064491508e+00 +0.0000000000000000e+00 +1.7013610862303301e+00 -2.8729732224614595e-02 -5.3645185943828722e-01 +5.3229740579200987e-03
1.8000000000000000e+00 +8.1529079643223703e+00 +0.0000000000000000e+00 +1.8014411497875999e+00 -2.8729857751894343e-02 -5.3645176217602386e-01 +5.3230021666825778e-03
1.8999999999999999e+00 +8.1528974540779000e+00 +0.0000000000000000e+00 +1.9015212132868200e+00 -2.8729988894922832e-02 -5.3645166210304596e-01 +5.3230337021587986e-03
2.0000000000000000e+00 +8.1528863757084800e+00 +0.0000000000000000e+00 +2.0016012767247702e+00 -2.8730125935050799e-02 -5.3645155952992896e-01 +5.3230688756717662e-03
2.1000000000000001e+00 +8.1528747292177304e+00 +0.0000000000000000e+00 +2.1016813400982199e+00 -2.8730268961162691e-02 -5.3645145499062119e-01 +5.3231078499371628e-03
2.2000000000000002e+00 +8.1528625146056601e+00 +0.0000000000000000e+00 +2.2017614034039301e+00 -2.8730417328274544e-02 -5.3645134987112819e-01 +5.3231506023503298e-03
2.2999999999999998e+00 +8.1528497318759001e+00 +0.0000000000000000e+00 +2.3018414666387002e+00 -2.8730570216530995e-02 -5.3645124576045033e-01 +5.3231970661477678e-03
2.3999999999999999e+00 +8.1528363810211903e+00 +0.0000000000000000e+00 +2.4019215297993002e+00 -2.8730726806079541e-02 -5.3645114424766571e-01 +5.3232471745668511e-03
2.5000000000000000e+00 +8.1528224620451493e+00 +0.0000000000000000e+00 +2.5020015928824901e+00 -2.8730886277060910e-02 -5.3645104692177181e-01 +5.3233008608442227e-03
2.6000000000000001e+00 +8.1528079749477893e+00 +0.0000000000000000e+00 +2.6020816558850601e+00 -2.8731047809613022e-02 -5.3645095537179210e-01 +5.3233580582168613e-03
2.7000000000000002e+00 +8.1527929197291105e+00 +0.0000000000000000e+00 +2.7021617188037701e+00 -2.8731210583868180e-02 -5.3645087118675228e-01 +5.3234186999218331e-03
2.7999999999999998e+00 +8.1527772963891003e+00 +0.0000000000000000e+00 +2.8022417816354102e+00 -2.8731373779951549e-02 -5.3645079595568224e-01 +5.3234827191962859e-03
2.8999999999999999e+00 +8.1527611049277802e+00 +0.0000000000000000e+00 +2.9023218443767500e+00 -2.8731536577979722e-02 -5.3645073126761644e-01 +5.3235500492774543e-03
3.0000000000000000e+00 +8.1527443453451305e+00 +0.0000000000000000e+00 +3.0024019070245598e+00 -2.8731698158059236e-02 -5.3645067871159635e-01 +5.3236206234026709e-03
3.1000000000000001e+00 +8.1527270176411495e+00 +0.0000000000000000e+00 +3.1024819695756198e+00 -2.8731857700285097e-02 -5.3645063987667119e-01 +5.3236943748093566e-03
3.2000000000000002e+00 +8.1527091218158603e+00 +0.0000000000000000e+00 +3.2025620320267101e+00 -2.8732014384739272e-02 -5.3645061635190061e-01 +5.3237712367350393e-03
3.2999999999999998e+00 +8.1526906578692397e+00 +0.0000000000000000e+00 +3.3026420943745900e+00 -2.8732167391489278e-02 -5.3645060972635517e-01 +5.3238511424173489e-03
3.3999999999999999e+00 +8.1526716258013003e+00 +0.0000000000000000e+00 +3.4027221566160502e+00 -2.8732315900586627e-02 -5.3645062158911905e-01 +5.3239340250940265e-03
3.5000000000000000e+00 +8.1526520256120403e+00 +0.0000000000000000e+00 +3.5028022187478500e+00 -2.8732459092065444e-02 -5.3645065352929089e-01 +5.3240198180029242e-03
3.6000000000000001e+00 +8.1526318572978198e+00 +0.0000000000000000e+00 +3.6028822807667802e+00 -2.8732596145942264e-02 -5.3645070713601184e-01 +5.3241084543822828e-03
3.7000000000000002e+00 +8.1526111208659096e+00 +0.0000000000000000e+00 +3.7029623426696099e+00 -2.8732726242209145e-02 -5.3645078399836110e-01 +5.3241998674696533e-03
3.7999999999999998e+00 +8.1525898163126804e+00 +0.0000000000000000e+00 +3.8030424044531101e+00 -2.8732848560840383e-02 -5.3645088570551680e-01 +5.3242939905035263e-03
3.8999999999999999e+00 +8.1525679436344909e+00 +0.0000000000000000e+00 +3.9031224661140600e+00 -2.8732962281786935e-02 -5.3645101384667848e-01 +5.3243907567225128e-03
4.0000000000000000e+00 +8.1525455028386205e+00 +0.0000000000000000e+00 +4.0032025276492398e+00 -2.8733066584979924e-02 -5.3645117001096321e-01 +5.3244900993642758e-03
4.0999999999999996e+00 +8.1525224939177896e+00 +0.0000000000000000e+00 +4.1032825890554099e+00 -2.8733160954667290e-02 -5.3645135495030705e-01 +5.3245919421611842e-03
4.2000000000000002e+00 +8.1524989168792708e+00 +0.0000000000000000e+00 +4.2033626503293604e+00 -2.8733245981115856e-02 -5.3645156637356084e-01 +5.3246961742961646e-03
4.2999999999999998e+00 +8.1524747717157897e+00 +0.0000000000000000e+00 +4.3034427114678504e+00 -2.8733322505779660e-02 -5.3645180129864001e-01 +5.3248026771088135e-03
4.4000000000000004e+00 +8.1524500584346207e+00 +0.0000000000000000e+00 +4.4035227724676700e+00 -2.8733391370105006e-02 -5.3645205674339058e-01 +5.3249113319397082e-03
4.5000000000000000e+00 +8.1524247770285001e+00 +0.0000000000000000e+00 +4.5036028333255800e+00 -2.8733453415541597e-02 -5.3645232972580625e-01 +5.3250220201326685e-03
4.5999999999999996e+00 +8.1523989275046898e+00 +0.0000000000000000e+00 +4.6036828940383696e+00 -2.8733509483531611e-02 -5.3645261726381543e-01 +5.3251346230327153e-03
4.7000000000000002e+00 +8.1523725098559208e+00 +0.0000000000000000e+00 +4.7037629546028104e+00 -2.8733560415520863e-02 -5.3645291637549741e-01 +5.3252490219883224e-03
4.7999999999999998e+00 +8.1523455240894709e+00 +0.0000000000000000e+00 +4.8038430150156701e+00 -2.8733607052947828e-02 -5.3645322407887130e-01 +5.3253650983493888e-03
4.9000000000000004e+00 +8.1523179701980606e+00 +0.0000000000000000e+00 +4.9039230752737302e+00 -2.8733650237254851e-02 -5.3645353739211166e-01 +5.3254827334695051e-03
5.0000000000000000e+00 +8.1522898481889605e+00 +0.0000000000000000e+00 +5.0040031353737602e+00 -2.8733690809877151e-02 -5.3645385333333573e-01 +5.3256018087038809e-03
5.0999999999999996e+00 +8.1522611580549000e+00 +0.0000000000000000e+00 +5.1040831953125396e+00 -2.8733729612254032e-02 -5.3645416892082076e-01 +5.3257222054116466e-03
5.2000000000000002e+00 +8.1522318997995207e+00 +0.0000000000000000e+00 +5.2041632550868497e+00 -2.8733767485819281e-02 -5.3645448117281869e-01 +5.3258438049540524e-03
5.2999999999999998e+00 +8.1522020734228100e+00 +0.0000000000000000e+00 +5.3042433146934496e+00 -2.8733805272006845e-02 -5.3645478710766448e-01 +5.3259664886956730e-03
5.4000000000000004e+00 +8.1521716789247893e+00 +0.0000000000000000e+00 +5.4043233741291203e+00 -2.8733843812249488e-02 -5.3645508374375173e-01 +5.3260901380042256e-03
5.5000000000000000e+00 +8.1521407163090807e+00 +0.0000000000000000e+00 +5.5044034333906504e+00 -2.8733883947977601e-02 -5.3645536809950922e-01 +5.3262146342504396e-03
5.5999999999999996e+00 +8.1521091855684098e+00 +0.0000000000000000e+00 +5.6044834924747899e+00 -2.8733926520624824e-02 -5.3645563719350786e-01 +5.3263398588092332e-03
5.7000000000000002e+00 +8.1520770867064094e+00 +0.0000000000000000e+00 +5.7045635513783299e+00 -2.8733972371619801e-02 -5.3645588804430422e-01 +5.3264656930581897e-03
5.7999999999999998e+00 +8.1520444197231008e+00 +0.0000000000000000e+00 +5.8046436100980499e+00 -2.8734022342391884e-02 -5.3645611767054835e-01 +5.3265920183787748e-03
5.9000000000000004e+00 +8.1520111846184609e+00 +0.0000000000000000e+00 +5.9047236686307096e+00 -2.8734077274369857e-02 -5.3645632309096014e-01 +5.3267187161561615e-03
5.9999999999999902e+00 +8.1519773813925003e+00 +0.0000000000000000e+00 +6.0048037269731003e+00 -2.8734138008953997e-02 -5.3645650132443834e-01 +5.3268456677807293e-03
6.0999999999999899e+00 +8.1519430100452208e+00 +0.0000000000000000e+00 +6.1048837851219799e+00 -2.8734205095909654e-02 -5.3645665051328462e-01 +5.3269727690970744e-03
6.1999999999999904e+00 +8.1519080705766100e+00 +0.0000000000000000e+00 +6.2049638430741396e+00 -2.8734278074554573e-02 -5.3645677269193259e-01 +5.3270999660198883e-03
6.2999999999999901e+00 +8.1518725629866804e+00 +0.0000000000000000e+00 +6.3050439008263499e+00 -2.8734356265527568e-02 -5.3645687073714432e-01 +5.3272272153009935e-03
6.3999999999999897e+00 +8.1518364872754301e+00 +0.0000000000000000e+00 +6.4051239583753699e+00 -2.8734438989483992e-02 -5.3645694752562523e-01 +5.3273544736929922e-03
6.4999999999999902e+00 +8.1517998434428591e+00 +0.0000000000000000e+00 +6.5052040157180002e+00 -2.8734525567096408e-02 -5.3645700593402157e-01 +5.3274816979492308e-03
6.5999999999999899e+00 +8.1517626314889604e+00 +0.0000000000000000e+00 +6.6052840728510001e+00 -2.8734615319055364e-02 -5.3645704883891743e-01 +5.3276088448237831e-03
6.6999999999999904e+00 +8.1517248514137499e+00 +0.0000000000000000e+00 +6.7053641297711399e+00 -2.8734707566070147e-02 -5.3645707911683094e-01 +5.3277358710714286e-03
6.7999999999999901e+00 +8.1516865032135701e+00 +0.0000000000000000e+00 +6.8054441864752100e+00 -2.8734801628870876e-02 -5.3645709964423904e-01 +5.3278627334478945e-03
6.8999999999999897e+00 +8.1516475868957095e+00 +0.0000000000000000e+00 +6.9055242429599701e+00 -2.8734896828203686e-02 -5.3645711329746559e-01 +5.3279893887087440e-03
6.9999999999999902e+00 +8.1516081024565192e+00 +0.0000000000000000e+00 +7.0056042992222096e+00 -2.8734992484839881e-02 -5.3645712295284032e-01 +5.3281157936109925e-03
7.0999999999999899e+00 +8.1515680498960101e+00 +0.0000000000000000e+00 +7.1056843552586999e+00 -2.8735087919570978e-02 -5.3645713148658791e-01 +5.3282419049119848e-03
7.1999999999999904e+00 +8.1515274292141804e+00 +0.0000000000000000e+00 +7.2057644110662000e+00 -2.8735182453210995e-02 -5.3645714177485160e-01 +5.3283676793696522e-03
7.2999999999999901e+00 +8.1514862404073902e+00 +0.0000000000000000e+00 +7.3058444666415099e+00 -2.8735275406598450e-02 -5.3645715669371752e-01 +5.3284930737427507e-03
7.3999999999999897e+00 +8.1514444834829192e+00 +0.0000000000000000e+00 +7.4059245219813796e+00 -2.8735366100591637e-02 -5.3645717911910318e-01 +5.3286180447897624e-03
7.4999999999999902e+00 +8.1514021584334806e+00 +0.0000000000000000e+00 +7.5060045770826100e+00 -2.8735453856079039e-02 -5.3645721192694329e-01 +5.3287425492707661e-03
7.5999999999999899e+00 +8.1513592652663593e+00 +0.0000000000000000e+00 +7.6060846319419504e+00 -2.8735537993968965e-02 -5.3645725799297106e-01 +5.3288665439452394e-03
7.6999999999999904e+00 +8.1513158039779192e+00 +0.0000000000000000e+00 +7.7061646865561997e+00 -2.8735617835200025e-02 -5.3645732019290260e-01 +5.3289899855739325e-03
7.7999999999999901e+00 +8.1512717745681602e+00 +0.0000000000000000e+00 +7.8062447409221098e+00 -2.8735692700736320e-02 -5.3645740140232823e-01 +5.3291128309177743e-03
7.8999999999999897e+00 +8.1512271770334301e+00 +0.0000000000000000e+00 +7.9063247950364799e+00 -2.8735761911570897e-02 -5.3645750449676066e-01 +5.3292350367383666e-03
7.9999999999999902e+00 +8.1511820113773901e+00 +0.0000000000000000e+00 +8.0064048488960609e+00 -2.8735824788776409e-02 -5.3645763235137323e-01 +5.3293565597996757e-03
8.0999999999999908e+00 +8.1511362776036496e+00 +0.0000000000000000e+00 +8.1064849024976393e+00 -2.8735880901341562e-02 -5.3645778701436664e-01 +5.3294773683516539e-03
8.1999999999999904e+00 +8.1510899757086008e+00 +0.0000000000000000e+00 +8.2065649558379903e+00 -2.8735930637256282e-02 -5.3645796780203858e-01 +5.3295974685900315e-03
8.2999999999999901e+00 +8.1510431056885899e+00 +0.0000000000000000e+00 +8.3066450089139003e+00 -2.8735974553384048e-02 -5.3645817346723002e-01 +5.3297168745306276e-03
8.3999999999999897e+00 +8.1509956675508892e+00 +0.0000000000000000e+00 +8.4067250617221205e+00 -2.8736013206547468e-02 -5.3645840276265244e-01 +5.3298356001818268e-03
8.4999999999999893e+00 +8.1509476612882299e+00 +0.0000000000000000e+00 +8.5068051142594392e+00 -2.8736047153536667e-02 -5.3645865444107455e-01 +5.3299536595462441e-03
8.5999999999999908e+00 +8.1508990869078808e+00 +0.0000000000000000e+00 +8.6068851665226305e+00 -2.8736076951096999e-02 -5.3645892725510758e-01 +5.3300710666183181e-03
8.6999999999999904e+00 +8.1508499444025801e+00 +0.0000000000000000e+00 +8.7069652185084596e+00 -2.8736103155938823e-02 -5.3645921995741830e-01 +5.3301878353862776e-03
8.7999999999999794e+00 +8.1508002337759500e+00 +0.0000000000000000e+00 +8.8070452702137203e+00 -2.8736126324726601e-02 -5.3645953130054025e-01 +5.3303039798299930e-03
8.8999999999999808e+00 +8.1507499550316407e+00 +0.0000000000000000e+00 +8.9071253216351796e+00 -2.8736147014081750e-02 -5.3645986003695301e-01 +5.3304195139215749e-03
8.9999999999999805e+00 +8.1506991081623692e+00 +0.0000000000000000e+00 +9.0072053727696098e+00 -2.8736165780585576e-02 -5.3646020491916191e-01 +5.3305344516259680e-03
9.0999999999999801e+00 +8.1506476931717806e+00 +0.0000000000000000e+00 +9.1072854236137797e+00 -2.8736183180769721e-02 -5.3646056469953518e-01 +5.3306488068990713e-03
9.1999999999999797e+00 +8.1505957100635005e+00 +0.0000000000000000e+00 +9.2073654741644795e+00 -2.8736199771119041e-02 -5.3646093813038520e-01 +5.3307625936883634e-03
9.2999999999999794e+00 +8.1505431588302599e+00 +0.0000000000000000e+00 +9.3074455244184708e+00 -2.8736216108074499e-02 -5.3646132396404544e-01 +5.3308758259334611e-03
9.3999999999999808e+00 +8.1504900394757005e+00 +0.0000000000000000e+00 +9.4075255743725297e+00 -2.8736232748023605e-02 -5.3646172095271005e-01 +5.3309885175642667e-03
9.4999999999999805e+00 +8.1504363520034495e+00 +0.0000000000000000e+00 +9.5076056240234408e+00 -2.8736250247303384e-02 -5.3646212784851366e-01 +5.3311006825015736e-03
9.5999999999999801e+00 +8.1503820964062506e+00 +0.0000000000000000e+00 +9.6076856733679694e+00 -2.8736269162203152e-02 -5.3646254340360877e-01 +5.3312123346576428e-03
9.6999999999999797e+00 +8.1503272726913600e+00 +0.0000000000000000e+00 +9.7077657224029004e+00 -2.8736290048953683e-02 -5.3646296636997937e-01 +5.3313234879340688e-03
9.7999999999999794e+00 +8.1502718808515109e+00 +0.0000000000000000e+00 +9.8078457711250007e+00 -2.8736313463736982e-02 -5.3646339549965227e-01 +5.3314341562237426e-03
9.8999999999999808e+00 +8.1502159208903304e+00 +0.0000000000000000e+00 +9.9079258195310498e+00 -2.8736339962675335e-02 -5.3646382954450955e-01 +5.3315443534087160e-03
9.9999999999999805e+00 +8.1501593928078400e+00 +0.0000000000000000e+00 +1.0008005867617801e+01 -2.8736370101780401e-02 -5.3646426725648177e-01 +5.3316540933603818e-03
1.0100000000000000e+01 +8.1501022966040200e+00 +0.0000000000000000e+00 +1.0108085915382100e+01 -2.8736404301334659e-02 -5.3646470760153198e-01 +5.3317633882820270e-03
1.0199999999999999e+01 +8.1500446322825209e+00 +0.0000000000000000e+00 +1.0208165962820599e+01 -2.8736442554064476e-02 -5.3646515022028518e-01 +5.3318722451465260e-03
1.0300000000000001e+01 +8.1499863998360507e+00 +0.0000000000000000e+00 +1.0308246009930199e+01 -2.8736484768728286e-02 -5.3646559488615730e-01 +5.3319806699008605e-03
1.0400000000000000e+01 +8.1499275992682705e+00 +0.0000000000000000e+00 +1.0408326056707599e+01 -2.8736530854119594e-02 -5.3646604137264642e-01 +5.3320886684915950e-03
1.0500000000000000e+01 +8.1498682305791608e+00 +0.0000000000000000e+00 +1.0508406103149600e+01 -2.8736580719073861e-02 -5.3646648945344466e-01 +5.3321962468660319e-03
1.0600000000000000e+01 +8.1498082937723701e+00 +0.0000000000000000e+00 +1.0608486149253000e+01 -2.8736634272466713e-02 -5.3646693890239094e-01 +5.3323034109717012e-03
1.0699999999999999e+01 +8.1497477888406102e+00 +0.0000000000000000e+00 +1.0708566195014500e+01 -2.8736691423220669e-02 -5.3646738949357931e-01 +5.3324101667574951e-03
1.0800000000000001e+01 +8.1496867157875403e+00 +0.0000000000000000e+00 +1.0808646240430900e+01 -2.8736752080297998e-02 -5.3646784100120581e-01 +5.3325165201720927e-03
1.0900000000000000e+01 +8.1496250746131391e+00 +0.0000000000000000e+00 +1.0908726285499000e+01 -2.8736816152707383e-02 -5.3646829319967881e-01 +5.3326224771650839e-03
1.1000000000000000e+01 +8.1495628653174208e+00 +0.0000000000000000e+00 +1.1008806330215601e+01 -2.8736883549503687e-02 -5.3646874586359661e-01 +5.3327280436867566e-03
1.1100000000000000e+01 +8.1495000879040198e+00 +0.0000000000000000e+00 +1.1108886374577500e+01 -2.8736954179787687e-02 -5.3646919876772559e-01 +5.3328332256878525e-03
1.1199999999999999e+01 +8.1494367423620098e+00 +0.0000000000000000e+00 +1.1208966418581401e+01 -2.8737027952714163e-02 -5.3646965168713778e-01 +5.3329380291209953e-03
1.1300000000000001e+01 +8.1493728287059604e+00 +0.0000000000000000e+00 +1.1309046462224000e+01 -2.8737104777477797e-02 -5.3647010439692233e-01 +5.3330424599377264e-03
1.1400000000000000e+01 +8.1493083469249505e+00 +0.0000000000000000e+00 +1.1409126505502300e+01 -2.8737184563333691e-02 -5.3647055667256272e-01 +5.3331465240923715e-03
1.1500000000000000e+01 +8.1492432970226201e+00 +0.0000000000000000e+00 +1.1509206548412800e+01 -2.8737267219583307e-02 -5.3647100828964933e-01 +5.3332502275390868e-03
1.1600000000000000e+01 +8.1491776789989707e+00 +0.0000000000000000e+00 +1.1609286590952600e+01 -2.8737352655582464e-02 -5.3647145902401483e-01 +5.3333535762332710e-03
1.1699999999999999e+01 +8.1491114928576298e+00 +0.0000000000000000e+00 +1.1709366633118099e+01 -2.8737440780739788e-02 -5.3647190865168770e-01 +5.3334565761310633e-03
1.1800000000000001e+01 +8.1490447385876905e+00 +0.0000000000000000e+00 +1.1809446674906400e+01 -2.8737531504524714e-02 -5.3647235694902951e-01 +5.3335592331907548e-03
