# trajectory
# s[mm] rx[mm] ry[mm] rz[mm] px[rad] py[rad] pz[rad]
0.0000000000000000e+00 +8.1529999999999987e+00 +0.0000000000000000e+00 +0.0000000000000000e+00 +0.0000000000000000e+00 +0.0000000000000000e+00 +1.0000000000000000e+00
-1.0000000000000001e-01 +8.1529997168248389e+00 +0.0000000000000000e+00 -9.9999999999465405e-02 +5.6635030988050050e-06 +0.0000000000000000e+00 +9.9999999998396238e-01
-2.0000000000000001e-01 +8.1529988672993969e+00 +0.0000000000000000e+00 -1.9999999999572329e-01 +1.1327005648078373e-05 +0.0000000000000000e+00 +9.9999999993584954e-01
-3.0000000000000004e-01 +8.1529974514237242e+00 +0.0000000000000000e+00 -2.9999999998556615e-01 +1.6990507719174901e-05 +0.0000000000000000e+00 +9.9999999985566135e-01
-4.0000000000000002e-01 +8.1529954691978652e+00 +0.0000000000000000e+00 -3.9999999996578639e-01 +2.2654009382648484e-05 +0.0000000000000000e+00 +9.9999999974339793e-01
-5.0000000000000000e-01 +8.1529929206218590e+00 +0.0000000000000000e+00 -4.9999999993317656e-01 +2.8317510708252218e-05 +0.0000000000000000e+00 +9.9999999959905927e-01
-5.9999999999999998e-01 +8.1529898056957339e+00 +0.0000000000000000e+00 -5.9999999988452912e-01 +3.3981011764938489e-05 +0.0000000000000000e+00 +9.9999999942264539e-01
-6.9999999999999996e-01 +8.1529861244195132e+00 +0.0000000000000000e+00 -6.9999999981663652e-01 +3.9644512620859019e-05 +0.0000000000000000e+00 +9.9999999921415628e-01
-7.9999999999999993e-01 +8.1529818767932145e+00 +0.0000000000000000e+00 -7.9999999972629121e-01 +4.5308013343364913e-05 +0.0000000000000000e+00 +9.9999999897359193e-01
-8.9999999999999991e-01 +8.1529770628168468e+00 +0.0000000000000000e+00 -8.9999999961028565e-01 +5.0971513999006671e-05 +0.0000000000000000e+00 +9.9999999870095235e-01
-9.9999999999999989e-01 +8.1529716824904153e+00 +0.0000000000000000e+00 -9.9999999946541240e-01 +5.6635014653534139e-05 +0.0000000000000000e+00 +9.9999999839623754e-01
-1.0999999999999999e+00 +8.1529657358139147e+00 +0.0000000000000000e+00 -1.0999999992884639e+00 +6.2298515371896505e-05 +0.0000000000000000e+00 +9.9999999805944750e-01
-1.2000000000000000e+00 +8.1529592227873362e+00 +0.0000000000000000e+00 -1.1999999990762327e+00 +6.7962016218242214e-05 +0.0000000000000000e+00 +9.9999999769058223e-01
-1.3000000000000000e+00 +8.1529521434106638e+00 +0.0000000000000000e+00 -1.2999999988255111e+00 +7.3625517255918870e-05 +0.0000000000000000e+00 +9.9999999728964162e-01
-1.4000000000000001e+00 +8.1529444976838761e+00 +0.0000000000000000e+00 -1.3999999985330918e+00 +7.9289018547473120e-05 +0.0000000000000000e+00 +9.9999999685662577e-01
-1.5000000000000002e+00 +8.1529362856069447e+00 +0.0000000000000000e+00 -1.4999999981957670e+00 +8.4952520154650522e-05 +0.0000000000000000e+00 +9.9999999639153470e-01
-1.6000000000000003e+00 +8.1529275071798342e+00 +0.0000000000000000e+00 -1.5999999978103294e+00 +9.0616022138395380e-05 +0.0000000000000000e+00 +9.9999999589436828e-01
-1.7000000000000004e+00 +8.1529181624025036e+00 +0.0000000000000000e+00 -1.6999999973735713e+00 +9.6279524558850544e-05 +0.0000000000000000e+00 +9.9999999536512663e-01
-1.8000000000000005e+00 +8.1529082512749067e+00 +0.0000000000000000e+00 -1.7999999968822855e+00 +1.0194302747535718e-04 +0.0000000000000000e+00 +9.9999999480380963e-01
-1.9000000000000006e+00 +8.1528977737969903e+00 +0.0000000000000000e+00 -1.8999999963332641e+00 +1.0760653094645454e-04 +0.0000000000000000e+00 +9.9999999421041730e-01
-2.0000000000000004e+00 +8.1528867299686976e+00 +0.0000000000000000e+00 -1.9999999957232997e+00 +1.1327003502987973e-04 +0.0000000000000000e+00 +9.9999999358494962e-01
-2.1000000000000005e+00 +8.1528751197899627e+00 +0.0000000000000000e+00 -2.0999999950491848e+00 +1.1893353978234772e-04 +0.0000000000000000e+00 +9.9999999292740660e-01
-2.2000000000000006e+00 +8.1528629432607165e+00 +0.0000000000000000e+00 -2.1999999943077118e+00 +1.2459704525713525e-04 +0.0000000000000000e+00 +9.9999999223778824e-01
-2.3000000000000007e+00 +8.1528502003808843e+00 +0.0000000000000000e+00 -2.2999999934956730e+00 +1.3026055150166491e-04 +0.0000000000000000e+00 +9.9999999151609442e-01
-2.4000000000000008e+00 +8.1528368911503879e+00 +0.0000000000000000e+00 -2.3999999926098612e+00 +1.3592405855728567e-04 +0.0000000000000000e+00 +9.9999999076232515e-01
-2.5000000000000009e+00 +8.1528230155691439e+00 +0.0000000000000000e+00 -2.4999999916470688e+00 +1.4158756645927305e-04 +0.0000000000000000e+00 +9.9999998997648054e-01
-2.6000000000000010e+00 +8.1528085736370670e+00 +0.0000000000000000e+00 -2.5999999906040880e+00 +1.4725107523682937e-04 +0.0000000000000000e+00 +9.9999998915856048e-01
-2.7000000000000011e+00 +8.1527935653540666e+00 +0.0000000000000000e+00 -2.6999999894777118e+00 +1.5291458491308396e-04 +0.0000000000000000e+00 +9.9999998830856496e-01
-2.8000000000000012e+00 +8.1527779907200539e+00 +0.0000000000000000e+00 -2.7999999882647320e+00 +1.5857809550509351e-04 +0.0000000000000000e+00 +9.9999998742649387e-01
-2.9000000000000012e+00 +8.1527618497349348e+00 +0.0000000000000000e+00 -2.8999999869619413e+00 +1.6424160702384230e-04 +0.0000000000000000e+00 +9.9999998651234734e-01
-3.0000000000000013e+00 +8.1527451423986168e+00 +0.0000000000000000e+00 -2.9999999855661321e+00 +1.6990511947424260e-04 +0.0000000000000000e+00 +9.9999998556612524e-01
-3.1000000000000014e+00 +8.1527278687110076e+00 +0.0000000000000000e+00 -3.0999999840740973e+00 +1.7556863285513499e-04 +0.0000000000000000e+00 +9.9999998458782757e-01
-3.2000000000000015e+00 +8.1527100286720149e+00 +0.0000000000000000e+00 -3.1999999824826286e+00 +1.8123214715928880e-04 +0.0000000000000000e+00 +9.9999998357745434e-01
-3.3000000000000016e+00 +8.1526916222815462e+00 +0.0000000000000000e+00 -3.2999999807885190e+00 +1.8689566237340254e-04 +0.0000000000000000e+00 +9.9999998253500555e-01
-3.4000000000000017e+00 +8.1526726495395110e+00 +0.0000000000000000e+00 -3.3999999789885607e+00 +1.9255917847810436e-04 +0.0000000000000000e+00 +9.9999998146048119e-01
-3.5000000000000018e+00 +8.1526531104458222e+00 +0.0000000000000000e+00 -3.4999999770795460e+00 +1.9822269544795252e-04 +0.0000000000000000e+00 +9.9999998035388127e-01
-3.6000000000000019e+00 +8.1526330050003946e+00 +0.0000000000000000e+00 -3.5999999750582679e+00 +2.0388621325143592e-04 +0.0000000000000000e+00 +9.9999997921520578e-01
-3.7000000000000020e+00 +8.1526123332031464e+00 +0.0000000000000000e+00 -3.6999999729215181e+00 +2.0954973185097472e-04 +0.0000000000000000e+00 +9.9999997804445462e-01
-3.8000000000000020e+00 +8.1525910950539995e+00 +0.0000000000000000e+00 -3.7999999706660894e+00 +2.1521325120292076e-04 +0.0000000000000000e+00 +9.9999997684162789e-01
-3.9000000000000021e+00 +8.1525692905528828e+00 +0.0000000000000000e+00 -3.8999999682887743e+00 +2.2087677125755837e-04 +0.0000000000000000e+00 +9.9999997560672560e-01
-4.0000000000000018e+00 +8.1525469196997271e+00 +0.0000000000000000e+00 -3.9999999657863654e+00 +2.2654029195910491e-04 +0.0000000000000000e+00 +9.9999997433974763e-01
-4.1000000000000014e+00 +8.1525239824944720e+00 +0.0000000000000000e+00 -4.0999999631556552e+00 +2.3220381324623424e-04 +0.0000000000000000e+00 +9.9999997304069410e-01
-4.2000000000000011e+00 +8.1525004789370605e+00 +0.0000000000000000e+00 -4.1999999603934350e+00 +2.3786733505782828e-04 +0.0000000000000000e+00 +9.9999997170956501e-01
-4.3000000000000007e+00 +8.1524764090274449e+00 +0.0000000000000000e+00 -4.2999999574964987e+00 +2.4353085733872803e-04 +0.0000000000000000e+00 +9.9999997034636023e-01
-4.4000000000000004e+00 +8.1524517727655788e+00 +0.0000000000000000e+00 -4.3999999544616379e+00 +2.4919438004025615e-04 +0.0000000000000000e+00 +9.9999996895107990e-01
-4.5000000000000000e+00 +8.1524265701514231e+00 +0.0000000000000000e+00 -4.4999999512856457e+00 +2.5485790312021678e-04 +0.0000000000000000e+00 +9.9999996752372400e-01
-4.5999999999999996e+00 +8.1524008011849425e+00 +0.0000000000000000e+00 -4.5999999479653138e+00 +2.6052142654289518e-04 +0.0000000000000000e+00 +9.9999996606429253e-01
-4.6999999999999993e+00 +8.1523744658661030e+00 +0.0000000000000000e+00 -4.6999999444974350e+00 +2.6618495027905741e-04 +0.0000000000000000e+00 +9.9999996457278539e-01
-4.7999999999999989e+00 +8.1523475641948764e+00 +0.0000000000000000e+00 -4.7999999408788021e+00 +2.7184847430595008e-04 +0.0000000000000000e+00 +9.9999996304920269e-01
-4.8999999999999986e+00 +8.1523200961712323e+00 +0.0000000000000000e+00 -4.8999999371062071e+00 +2.7751199860729997e-04 +0.0000000000000000e+00 +9.9999996149354442e-01
-4.9999999999999982e+00 +8.1522920617951460e+00 +0.0000000000000000e+00 -4.9999999331764418e+00 +2.8317552317331363e-04 +0.0000000000000000e+00 +9.9999995990581059e-01
-5.0999999999999979e+00 +8.1522634610665889e+00 +0.0000000000000000e+00 -5.0999999290862998e+00 +2.8883904800067699e-04 +0.0000000000000000e+00 +9.9999995828600119e-01
-5.1999999999999975e+00 +8.1522342939855363e+00 +0.0000000000000000e+00 -5.1999999248325732e+00 +2.9450257309255489e-04 +0.0000000000000000e+00 +9.9999995663411612e-01
-5.2999999999999972e+00 +8.1522045605519615e+00 +0.0000000000000000e+00 -5.2999999204120538e+00 +3.0016609845859066e-04 +0.0000000000000000e+00 +9.9999995495015548e-01
-5.3999999999999968e+00 +8.1521742607658361e+00 +0.0000000000000000e+00 -5.3999999158215353e+00 +3.0582962411490562e-04 +0.0000000000000000e+00 +9.9999995323411928e-01
-5.4999999999999964e+00 +8.1521433946271280e+00 +0.0000000000000000e+00 -5.4999999110578086e+00 +3.1149315008409856e-04 +0.0000000000000000e+00 +9.9999995148600740e-01
-5.5999999999999961e+00 +8.1521119621358071e+00 +0.0000000000000000e+00 -5.5999999061176675e+00 +3.1715667639524518e-04 +0.0000000000000000e+00 +9.9999994970581985e-01
-5.6999999999999957e+00 +8.1520799632918362e+00 +0.0000000000000000e+00 -5.6999999009979039e+00 +3.2282020308389760e-04 +0.0000000000000000e+00 +9.9999994789355673e-01
-5.7999999999999954e+00 +8.1520473980951760e+00 +0.0000000000000000e+00 -5.7999998956953096e+00 +3.2848373019208374e-04 +0.0000000000000000e+00 +9.9999994604921794e-01
-5.8999999999999950e+00 +8.1520142665457822e+00 +0.0000000000000000e+00 -5.8999998902066784e+00 +3.3414725776830662e-04 +0.0000000000000000e+00 +9.9999994417280336e-01
-5.9999999999999947e+00 +8.1519805686436051e+00 +0.0000000000000000e+00 -5.9999998845288012e+00 +3.3981078586754380e-04 +0.0000000000000000e+00 +9.9999994226431310e-01
-6.0999999999999943e+00 +8.1519463043885896e+00 +0.0000000000000000e+00 -6.0999998786584717e+00 +3.4547431455123382e-04 +0.0000000000000000e+00 +9.9999994032374706e-01
-6.1999999999999940e+00 +8.1519114737806735e+00 +0.0000000000000000e+00 -6.1999998725924819e+00 +3.5113784388713396e-04 +0.0000000000000000e+00 +9.9999993835110523e-01
-6.2999999999999936e+00 +8.1518760768197875e+00 +0.0000000000000000e+00 -6.2999998663276235e+00 +3.5680137394917828e-04 +0.0000000000000000e+00 +9.9999993634638762e-01
-6.3999999999999932e+00 +8.1518401135058571e+00 +0.0000000000000000e+00 -6.3999998598606895e+00 +3.6246490481746461e-04 +0.0000000000000000e+00 +9.9999993430959411e-01
-6.4999999999999929e+00 +8.1518035838387952e+00 +0.0000000000000000e+00 -6.4999998531884726e+00 +3.6812843657825446e-04 +0.0000000000000000e+00 +9.9999993224072470e-01
-6.5999999999999925e+00 +8.1517664878185094e+00 +0.0000000000000000e+00 -6.5999998463077647e+00 +3.7379196932397287e-04 +0.0000000000000000e+00 +9.9999993013977928e-01
-6.6999999999999922e+00 +8.1517288254448950e+00 +0.0000000000000000e+00 -6.6999998392153586e+00 +3.7945550315320828e-04 +0.0000000000000000e+00 +9.9999992800675785e-01
-6.7999999999999918e+00 +8.1516905967178399e+00 +0.0000000000000000e+00 -6.7999998319080470e+00 +3.8511903817071242e-04 +0.0000000000000000e+00 +9.9999992584166031e-01
-6.8999999999999915e+00 +8.1516518016372181e+00 +0.0000000000000000e+00 -6.8999998243826219e+00 +3.9078257448740020e-04 +0.0000000000000000e+00 +9.9999992364448664e-01
-6.9999999999999911e+00 +8.1516124402028947e+00 +0.0000000000000000e+00 -6.9999998166358752e+00 +3.9644611222034945e-04 +0.0000000000000000e+00 +9.9999992141523675e-01
-7.0999999999999908e+00 +8.1515725124147220e+00 +0.0000000000000000e+00 -7.0999998086645997e+00 +4.0210965149280095e-04 +0.0000000000000000e+00 +9.9999991915391062e-01
-7.1999999999999904e+00 +8.1515320182725404e+00 +0.0000000000000000e+00 -7.1999998004655881e+00 +4.0777319243415824e-04 +0.0000000000000000e+00 +9.9999991686050815e-01
-7.2999999999999901e+00 +8.1514909577761756e+00 +0.0000000000000000e+00 -7.2999997920356323e+00 +4.1343673517998741e-04 +0.0000000000000000e+00 +9.9999991453502923e-01
-7.3999999999999897e+00 +8.1514493309254394e+00 +0.0000000000000000e+00 -7.3999997833715252e+00 +4.1910027987201705e-04 +0.0000000000000000e+00 +9.9999991217747375e-01
-7.4999999999999893e+00 +8.1514071377201311e+00 +0.0000000000000000e+00 -7.4999997744700586e+00 +4.2476382665813809e-04 +0.0000000000000000e+00 +9.9999990978784159e-01
-7.5999999999999890e+00 +8.1513643781600322e+00 +0.0000000000000000e+00 -7.5999997653280245e+00 +4.3042737569240366e-04 +0.0000000000000000e+00 +9.9999990736613276e-01
-7.6999999999999886e+00 +8.1513210522449118e+00 +0.0000000000000000e+00 -7.6999997559422155e+00 +4.3609092713502883e-04 +0.0000000000000000e+00 +9.9999990491234703e-01
-7.7999999999999883e+00 +8.1512771599745193e+00 +0.0000000000000000e+00 -7.7999997463094246e+00 +4.4175448115239065e-04 +0.0000000000000000e+00 +9.9999990242648429e-01
-7.8999999999999879e+00 +8.1512327013485901e+00 +0.0000000000000000e+00 -7.8999997364264436e+00 +4.4741803791702791e-04 +0.0000000000000000e+00 +9.9999989990854454e-01
-7.9999999999999876e+00 +8.1511876763668383e+00 +0.0000000000000000e+00 -7.9999997262900644e+00 +4.5308159760764098e-04 +0.0000000000000000e+00 +9.9999989735852757e-01
-8.0999999999999872e+00 +8.1511420850289635e+00 +0.0000000000000000e+00 -8.0999997158970789e+00 +4.5874516040841353e-04 +0.0000000000000000e+00 +9.9999989477643325e-01
-8.1999999999999869e+00 +8.1510959273346462e+00 +0.0000000000000000e+00 -8.1999997052442808e+00 +4.6440872650155328e-04 +0.0000000000000000e+00 +9.9999989216226148e-01
-8.2999999999999865e+00 +8.1510492032835469e+00 +0.0000000000000000e+00 -8.2999996943284611e+00 +4.7007229605983277e-04 +0.0000000000000000e+00 +9.9999988951601204e-01
-8.3999999999999861e+00 +8.1510019128753122e+00 +0.0000000000000000e+00 -8.3999996831464134e+00 +4.7573586924591149e-04 +0.0000000000000000e+00 +9.9999988683768481e-01
-8.4999999999999858e+00 +8.1509540561095708e+00 +0.0000000000000000e+00 -8.4999996716949298e+00 +4.8139944621233599e-04 +0.0000000000000000e+00 +9.9999988412727969e-01
-8.5999999999999854e+00 +8.1509056329859391e+00 +0.0000000000000000e+00 -8.5999996599708002e+00 +4.8706302710154029e-04 +0.0000000000000000e+00 +9.9999988138479656e-01
-8.6999999999999851e+00 +8.1508566435040155e+00 +0.0000000000000000e+00 -8.6999996479708184e+00 +4.9272661204584594e-04 +0.0000000000000000e+00 +9.9999987861023532e-01
-8.7999999999999847e+00 +8.1508070876633898e+00 +0.0000000000000000e+00 -8.7999996356917780e+00 +4.9839020116746249e-04 +0.0000000000000000e+00 +9.9999987580359573e-01
-8.8999999999999844e+00 +8.1507569654636391e+00 +0.0000000000000000e+00 -8.8999996231304692e+00 +5.0405379457848739e-04 +0.0000000000000000e+00 +9.9999987296487780e-01
-8.9999999999999840e+00 +8.1507062769043284e+00 +0.0000000000000000e+00 -8.9999996102836839e+00 +5.0971739238090655e-04 +0.0000000000000000e+00 +9.9999987009408131e-01
-9.0999999999999837e+00 +8.1506550219850133e+00 +0.0000000000000000e+00 -9.0999995971482157e+00 +5.1538099466659460e-04 +0.0000000000000000e+00 +9.9999986719120615e-01
-9.1999999999999833e+00 +8.1506032007052429e+00 +0.0000000000000000e+00 -9.1999995837208566e+00 +5.2104460151731515e-04 +0.0000000000000000e+00 +9.9999986425625220e-01
-9.2999999999999829e+00 +8.1505508130645552e+00 +0.0000000000000000e+00 -9.2999995699983966e+00 +5.2670821300472093e-04 +0.0000000000000000e+00 +9.9999986128921936e-01
-9.3999999999999826e+00 +8.1504978590624848e+00 +0.0000000000000000e+00 -9.3999995559776295e+00 +5.3237182919035420e-04 +0.0000000000000000e+00 +9.9999985829010751e-01
-9.4999999999999822e+00 +8.1504443386985592e+00 +0.0000000000000000e+00 -9.4999995416553489e+00 +5.3803545012564723e-04 +0.0000000000000000e+00 +9.9999985525891655e-01
-9.5999999999999819e+00 +8.1503902519723006e+00 +0.0000000000000000e+00 -9.5999995270283449e+00 +5.4369907585192232e-04 +0.0000000000000000e+00 +9.9999985219564635e-01
-9.6999999999999815e+00 +8.1503355988832276e+00 +0.0000000000000000e+00 -9.6999995120934095e+00 +5.4936270640039246e-04 +0.0000000000000000e+00 +9.9999984910029682e-01
-9.7999999999999812e+00 +8.1502803794308587e+00 +0.0000000000000000e+00 -9.7999994968473345e+00 +5.5502634179216122e-04 +0.0000000000000000e+00 +9.9999984597286795e-01
-9.8999999999999808e+00 +8.1502245936147073e+00 +0.0000000000000000e+00 -9.8999994812869136e+00 +5.6068998203822370e-04 +0.0000000000000000e+00 +9.9999984281335952e-01
-9.9999999999999805e+00 +8.1501682414342884e+00 +0.0000000000000000e+00 -9.9999994654089370e+00 +5.6635362713946624e-04 +0.0000000000000000e+00 +9.9999983962177152e-01
-1.0099999999999980e+01 +8.1501113228891171e+00 +0.0000000000000000e+00 -1.0099999449210198e+01 +5.7201727708691696e-04 +0.0000000000000000e+00 +9.9999983639810386e-01
-1.0199999999999980e+01 +8.1500538379787102e+00 +0.0000000000000000e+00 -1.0199999432687489e+01 +5.7768093186449151e-04 +0.0000000000000000e+00 +9.9999983314235641e-01
-1.0299999999999979e+01 +8.1499957867025845e+00 +0.0000000000000000e+00 -1.0299999415837600e+01 +5.8334459145173922e-04 +0.0000000000000000e+00 +9.9999982985452918e-01
-1.0399999999999979e+01 +8.1499371690602604e+00 +0.0000000000000000e+00 -1.0399999398657325e+01 +5.8900825582409305e-04 +0.0000000000000000e+00 +9.9999982653462205e-01
-1.0499999999999979e+01 +8.1498779850512619e+00 +0.0000000000000000e+00 -1.0499999381143455e+01 +5.9467192495286979e-04 +0.0000000000000000e+00 +9.9999982318263503e-01
-1.0599999999999978e+01 +8.1498182346751129e+00 +0.0000000000000000e+00 -1.0599999363292783e+01 +6.0033559880527036e-04 +0.0000000000000000e+00 +9.9999981979856800e-01
-1.0699999999999978e+01 +8.1497579179313444e+00 +0.0000000000000000e+00 -1.0699999345102100e+01 +6.0599927734438018e-04 +0.0000000000000000e+00 +9.9999981638242086e-01
-1.0799999999999978e+01 +8.1496970348194893e+00 +0.0000000000000000e+00 -1.0799999326568198e+01 +6.1166296052916956e-04 +0.0000000000000000e+00 +9.9999981293419360e-01
-1.0899999999999977e+01 +8.1496355853390856e+00 +0.0000000000000000e+00 -1.0899999307687869e+01 +6.1732664831449396e-04 +0.0000000000000000e+00 +9.9999980945388622e-01
-1.0999999999999977e+01 +8.1495735694896752e+00 +0.0000000000000000e+00 -1.0999999288457905e+01 +6.2299034065109405e-04 +0.0000000000000000e+00 +9.9999980594149862e-01
-1.1099999999999977e+01 +8.1495109872708049e+00 +0.0000000000000000e+00 -1.1099999268875099e+01 +6.2865403748559663e-04 +0.0000000000000000e+00 +9.9999980239703079e-01
-1.1199999999999976e+01 +8.1494478386820290e+00 +0.0000000000000000e+00 -1.1199999248936242e+01 +6.3431773876051437e-04 +0.0000000000000000e+00 +9.9999979882048262e-01
-1.1299999999999976e+01 +8.1493841237229070e+00 +0.0000000000000000e+00 -1.1299999228638127e+01 +6.3998144441424648e-04 +0.0000000000000000e+00 +9.9999979521185411e-01
-1.1399999999999975e+01 +8.1493198423930036e+00 +0.0000000000000000e+00 -1.1399999207977544e+01 +6.4564515438107902e-04 +0.0000000000000000e+00 +9.9999979157114527e-01
-1.1499999999999975e+01 +8.1492549946918906e+00 +0.0000000000000000e+00 -1.1499999186951285e+01 +6.5130886859118538e-04 +0.0000000000000000e+00 +9.9999978789835609e-01
-1.1599999999999975e+01 +8.1491895806191472e+00 +0.0000000000000000e+00 -1.1599999165556145e+01 +6.5697258697062632e-04 +0.0000000000000000e+00 +9.9999978419348645e-01
-1.1699999999999974e+01 +8.1491236001743612e+00 +0.0000000000000000e+00 -1.1699999143788913e+01 +6.6263630944135056e-04 +0.0000000000000000e+00 +9.9999978045653637e-01
