# field on trajectory
# s[mm] rx[mm] ry[mm] rz[mm] bx[T] by[T] bz[T]
0.0000000000000000e+00 +8.1649999999999991e+00 +0.0000000000000000e+00 +0.0000000000000000e+00 -3.1476780445816782e-02 -5.9236178786514415e-01 +5.9106599146053805e-03
1.0000000000000001e-01 +8.1649997169773112e+00 +0.0000000000000000e+00 +9.9999999999466002e-02 -3.1476824907544089e-02 -5.9236199792443478e-01 +5.9106087196407857e-03
2.0000000000000001e-01 +8.1649988679091177e+00 +0.0000000000000000e+00 +1.9999999999572793e-01 -3.1476879769113633e-02 -5.9236218527132289e-01 +5.9105579711238735e-03
3.0000000000000004e-01 +8.1649974527952391e+00 +0.0000000000000000e+00 +2.9999999998558169e-01 -3.1476944527174561e-02 -5.9236235103506807e-01 +5.9105076715208768e-03
4.0000000000000002e-01 +8.1649954716355175e+00 +0.0000000000000000e+00 +3.9999999996582319e-01 -3.1477018678370154e-02 -5.9236249634492821e-01 +5.9104578232984034e-03
5.0000000000000000e-01 +8.1649929244298143e+00 +0.0000000000000000e+00 +4.9999999993324840e-01 -3.1477101719338853e-02 -5.9236262233015891e-01 +5.9104084289235467e-03
5.9999999999999998e-01 +8.1649898111780086e+00 +0.0000000000000000e+00 +5.9999999988465325e-01 -3.1477193146715182e-02 -5.9236273012001217e-01 +5.9103594908640157e-03
6.9999999999999996e-01 +8.1649861318799992e+00 +0.0000000000000000e+00 +6.9999999981683358e-01 -3.1477292457130789e-02 -5.9236282084373582e-01 +5.9103110115882544e-03
7.9999999999999993e-01 +8.1649818865356973e+00 +0.0000000000000000e+00 +7.9999999972658531e-01 -3.1477399147215417e-02 -5.9236289563057298e-01 +5.9102629935655704e-03
8.9999999999999991e-01 +8.1649770751450319e+00 +0.0000000000000000e+00 +8.9999999961070443e-01 -3.1477512713597909e-02 -5.9236295560976138e-01 +5.9102154392662587e-03
9.9999999999999989e-01 +8.1649716977079461e+00 +0.0000000000000000e+00 +9.9999999946598672e-01 -3.1477632652907206e-02 -5.9236300191053270e-01 +5.9101683511617190e-03
1.0999999999999999e+00 +8.1649657542243954e+00 +0.0000000000000000e+00 +1.0999999992892282e+00 -3.1477758461773302e-02 -5.9236303566211201e-01 +5.9101217317245837e-03
1.2000000000000000e+00 +8.1649592446943480e+00 +0.0000000000000000e+00 +1.1999999990772248e+00 -3.1477889636828252e-02 -5.9236305799371614e-01 +5.9100755834288476e-03
1.3000000000000000e+00 +8.1649521691177824e+00 +0.0000000000000000e+00 +1.2999999988267723e+00 -3.1478025674707158e-02 -5.9236307003455457e-01 +5.9100299087499778e-03
1.4000000000000001e+00 +8.1649445274946864e+00 +0.0000000000000000e+00 +1.3999999985346667e+00 -3.1478166072049250e-02 -5.9236307291382728e-01 +5.9099847101650492e-03
1.5000000000000002e+00 +8.1649363198250580e+00 +0.0000000000000000e+00 +1.4999999981977039e+00 -3.1478310325498693e-02 -5.9236306776072511e-01 +5.9099399901528715e-03
1.6000000000000003e+00 +8.1649275461089026e+00 +0.0000000000000000e+00 +1.5999999978126800e+00 -3.1478457931705763e-02 -5.9236305570442871e-01 +5.9098957511940853e-03
1.7000000000000004e+00 +8.1649182063462327e+00 +0.0000000000000000e+00 +1.6999999973763906e+00 -3.1478608387327710e-02 -5.9236303787410716e-01 +5.9098519957713307e-03
1.8000000000000005e+00 +8.1649083005370642e+00 +0.0000000000000000e+00 +1.7999999968856319e+00 -3.1478761189029814e-02 -5.9236301539891845e-01 +5.9098087263693300e-03
1.9000000000000006e+00 +8.1648978286814202e+00 +0.0000000000000000e+00 +1.8999999963371996e+00 -3.1478915833486373e-02 -5.9236298940800780e-01 +5.9097659454750394e-03
2.0000000000000004e+00 +8.1648867907793239e+00 +0.0000000000000000e+00 +1.9999999957278898e+00 -3.1479071817381646e-02 -5.9236296103050845e-01 +5.9097236555777487e-03
2.1000000000000005e+00 +8.1648751868308036e+00 +0.0000000000000000e+00 +2.0999999950544983e+00 -3.1479228657152060e-02 -5.9236293147977304e-01 +5.9096818742712847e-03
2.2000000000000006e+00 +8.1648630168358896e+00 +0.0000000000000000e+00 +2.1999999943138211e+00 -3.1479385948209197e-02 -5.9236290230609090e-01 +5.9096406795592100e-03
2.3000000000000007e+00 +8.1648502807946066e+00 +0.0000000000000000e+00 +2.2999999935026540e+00 -3.1479543305714966e-02 -5.9236287514399455e-01 +5.9096001645467470e-03
2.4000000000000008e+00 +8.1648369787069832e+00 +0.0000000000000000e+00 +2.3999999926177931e+00 -3.1479700344840579e-02 -5.9236285162803293e-01 +5.9095604223382220e-03
2.5000000000000009e+00 +8.1648231105730424e+00 +0.0000000000000000e+00 +2.4999999916560340e+00 -3.1479856680767158e-02 -5.9236283339277140e-01 +5.9095215460368070e-03
2.6000000000000010e+00 +8.1648086763928003e+00 +0.0000000000000000e+00 +2.5999999906141729e+00 -3.1480011928686262e-02 -5.9236282207279456e-01 +5.9094836287442781e-03
2.7000000000000011e+00 +8.1647936761662692e+00 +0.0000000000000000e+00 +2.6999999894890054e+00 -3.1480165703800363e-02 -5.9236281930270851e-01 +5.9094467635607637e-03
2.8000000000000012e+00 +8.1647781098934509e+00 +0.0000000000000000e+00 +2.7999999882773277e+00 -3.1480317621323473e-02 -5.9236282671714491e-01 +5.9094110435844978e-03
2.9000000000000012e+00 +8.1647619775743401e+00 +0.0000000000000000e+00 +2.8999999869759354e+00 -3.1480467296481539e-02 -5.9236284595076016e-01 +5.9093765619115486e-03
3.0000000000000013e+00 +8.1647452792089190e+00 +0.0000000000000000e+00 +2.9999999855816251e+00 -3.1480614344513144e-02 -5.9236287863824078e-01 +5.9093434116355989e-03
3.1000000000000014e+00 +8.1647280147971557e+00 +0.0000000000000000e+00 +3.0999999840911920e+00 -3.1480758380669854e-02 -5.9236292641430355e-01 +5.9093116858476760e-03
3.2000000000000015e+00 +8.1647101843390040e+00 +0.0000000000000000e+00 +3.1999999825014322e+00 -3.1480899020216911e-02 -5.9236299091369982e-01 +5.9092814776359089e-03
3.3000000000000016e+00 +8.1646917878344052e+00 +0.0000000000000000e+00 +3.2999999808091420e+00 -3.1481035878433684e-02 -5.9236307377121677e-01 +5.9092528800852714e-03
3.4000000000000017e+00 +8.1646728252832794e+00 +0.0000000000000000e+00 +3.3999999790111168e+00 -3.1481168570614199e-02 -5.9236317662167859e-01 +5.9092259862773382e-03
3.5000000000000018e+00 +8.1646532966855290e+00 +0.0000000000000000e+00 +3.4999999771041526e+00 -3.1481296712067688e-02 -5.9236330109995228e-01 +5.9092008892900347e-03
3.6000000000000019e+00 +8.1646332020410348e+00 +0.0000000000000000e+00 +3.5999999750850455e+00 -3.1481419918119133e-02 -5.9236344884094583e-01 +5.9091776821973818e-03
3.7000000000000020e+00 +8.1646125413496566e+00 +0.0000000000000000e+00 +3.6999999729505912e+00 -3.1481537804109748e-02 -5.9236362147961408e-01 +5.9091564580692497e-03
3.8000000000000020e+00 +8.1645913146112292e+00 +0.0000000000000000e+00 +3.7999999706975855e+00 -3.1481649985397625e-02 -5.9236382065095849e-01 +5.9091373099711044e-03
3.9000000000000021e+00 +8.1645695218255643e+00 +0.0000000000000000e+00 +3.8999999683228244e+00 -3.1481756077358099e-02 -5.9236404799003217e-01 +5.9091203309637646e-03
4.0000000000000018e+00 +8.1645471629924433e+00 +0.0000000000000000e+00 +3.9999999658231036e+00 -3.1481855695384413e-02 -5.9236430513193861e-01 +5.9091056141031299e-03
4.1000000000000014e+00 +8.1645242381116230e+00 +0.0000000000000000e+00 +4.0999999631952191e+00 -3.1481948565846914e-02 -5.9236459314732426e-01 +5.9090932258528744e-03
4.2000000000000011e+00 +8.1645007471828279e+00 +0.0000000000000000e+00 +4.1999999604359672e+00 -3.1482034858956634e-02 -5.9236491084880161e-01 +5.9090831263249521e-03
4.3000000000000007e+00 +8.1644766902057562e+00 +0.0000000000000000e+00 +4.2999999575421430e+00 -3.1482114855864690e-02 -5.9236525648444627e-01 +5.9090752490447490e-03
4.4000000000000004e+00 +8.1644520671800791e+00 +0.0000000000000000e+00 +4.3999999545105428e+00 -3.1482188837698294e-02 -5.9236562830230011e-01 +5.9090695275389009e-03
4.5000000000000000e+00 +8.1644268781054397e+00 +0.0000000000000000e+00 +4.4999999513379620e+00 -3.1482257085558664e-02 -5.9236602455036913e-01 +5.9090658953354367e-03
4.5999999999999996e+00 +8.1644011229814630e+00 +0.0000000000000000e+00 +4.5999999480211962e+00 -3.1482319880519243e-02 -5.9236644347662115e-01 +5.9090642859639343e-03
4.6999999999999993e+00 +8.1643748018077478e+00 +0.0000000000000000e+00 +4.6999999445570415e+00 -3.1482377503623746e-02 -5.9236688332898102e-01 +5.9090646329556570e-03
4.7999999999999989e+00 +8.1643479145838764e+00 +0.0000000000000000e+00 +4.7999999409422935e+00 -3.1482430235884248e-02 -5.9236734235532984e-01 +5.9090668698437050e-03
4.8999999999999986e+00 +8.1643204613094102e+00 +0.0000000000000000e+00 +4.8999999371737486e+00 -3.1482478358279241e-02 -5.9236781880350142e-01 +5.9090709301631711e-03
4.9999999999999982e+00 +8.1642924419838945e+00 +0.0000000000000000e+00 +4.9999999332482021e+00 -3.1482522151751798e-02 -5.9236831092127817e-01 +5.9090767474512720e-03
5.0999999999999979e+00 +8.1642638566068602e+00 +0.0000000000000000e+00 +5.0999999291624496e+00 -3.1482561897207557e-02 -5.9236881695638954e-01 +5.9090842552475039e-03
5.1999999999999975e+00 +8.1642347051778259e+00 +0.0000000000000000e+00 +5.1999999249132873e+00 -3.1482597875512913e-02 -5.9236933515650825e-01 +5.9090933870937857e-03
5.2999999999999972e+00 +8.1642049876962961e+00 +0.0000000000000000e+00 +5.2999999204975099e+00 -3.1482630367493006e-02 -5.9236986376924783e-01 +5.9091040765346147e-03
5.3999999999999968e+00 +8.1641747041617680e+00 +0.0000000000000000e+00 +5.3999999159119136e+00 -3.1482659653929879e-02 -5.9237040104215943e-01 +5.9091162571172041e-03
5.4999999999999964e+00 +8.1641438545737284e+00 +0.0000000000000000e+00 +5.4999999111532949e+00 -3.1482686015560528e-02 -5.9237094522272971e-01 +5.9091298623916311e-03
5.5999999999999961e+00 +8.1641124389316584e+00 +0.0000000000000000e+00 +5.5999999062184482e+00 -3.1482709733075008e-02 -5.9237149455837623e-01 +5.9091448259109836e-03
5.6999999999999957e+00 +8.1640804572350341e+00 +0.0000000000000000e+00 +5.6999999011041700e+00 -3.1482731087114510e-02 -5.9237204729644621e-01 +5.9091610812315133e-03
5.7999999999999954e+00 +8.1640479094833296e+00 +0.0000000000000000e+00 +5.7999998958072556e+00 -3.1482750358269418e-02 -5.9237260168421224e-01 +5.9091785619127752e-03
5.8999999999999950e+00 +8.1640147956760156e+00 +0.0000000000000000e+00 +5.8999998903245006e+00 -3.1482767827077464e-02 -5.9237315596887075e-01 +5.9091972015177839e-03
5.9999999999999947e+00 +8.1639811158125628e+00 +0.0000000000000000e+00 +5.9999998846527012e+00 -3.1482783774021764e-02 -5.9237370839753800e-01 +5.9092169336131444e-03
6.0999999999999943e+00 +8.1639468698924453e+00 +0.0000000000000000e+00 +6.0999998787886520e+00 -3.1482798504282261e-02 -5.9237425752707007e-01 +5.9092377014398154e-03
6.1999999999999940e+00 +8.1639120579151410e+00 +0.0000000000000000e+00 +6.1999998727291494e+00 -3.1482812422012882e-02 -5.9237480315357205e-01 +5.9092594869252059e-03
6.2999999999999936e+00 +8.1638766798801274e+00 +0.0000000000000000e+00 +6.2999998664709889e+00 -3.1482825956112424e-02 -5.9237534538299563e-01 +5.9092822816714319e-03
6.3999999999999932e+00 +8.1638407357868878e+00 +0.0000000000000000e+00 +6.3999998600109658e+00 -3.1482839535475919e-02 -5.9237588432132504e-01 +5.9093060772847806e-03
6.4999999999999929e+00 +8.1638042256349088e+00 +0.0000000000000000e+00 +6.4999998533458765e+00 -3.1482853588994934e-02 -5.9237642007458102e-01 +5.9093308653758872e-03
6.5999999999999925e+00 +8.1637671494236805e+00 +0.0000000000000000e+00 +6.5999998464725156e+00 -3.1482868545557950e-02 -5.9237695274882041e-01 +5.9093566375598488e-03
6.6999999999999922e+00 +8.1637295071526932e+00 +0.0000000000000000e+00 +6.6999998393876794e+00 -3.1482884834050651e-02 -5.9237748245013910e-01 +5.9093833854563915e-03
6.7999999999999918e+00 +8.1636912988214441e+00 +0.0000000000000000e+00 +6.7999998320881625e+00 -3.1482902883356312e-02 -5.9237800928467388e-01 +5.9094111006900117e-03
6.8999999999999915e+00 +8.1636525244294287e+00 +0.0000000000000000e+00 +6.8999998245707612e+00 -3.1482923122356024e-02 -5.9237853335860446e-01 +5.9094397748901259e-03
6.9999999999999911e+00 +8.1636131839761497e+00 +0.0000000000000000e+00 +6.9999998168322710e+00 -3.1482945979929199e-02 -5.9237905477815400e-01 +5.9094693996912112e-03
7.0999999999999908e+00 +8.1635732774611078e+00 +0.0000000000000000e+00 +7.0999998088694873e+00 -3.1482971884953720e-02 -5.9237957364959370e-01 +5.9094999667329571e-03
7.1999999999999904e+00 +8.1635328048838112e+00 +0.0000000000000000e+00 +7.1999998006792056e+00 -3.1483001266306480e-02 -5.9238009007924197e-01 +5.9095314676604191e-03
7.2999999999999901e+00 +8.1634917662437658e+00 +0.0000000000000000e+00 +7.2999997922582223e+00 -3.1483034552863540e-02 -5.9238060417346816e-01 +5.9095638941241485e-03
7.3999999999999897e+00 +8.1634501615404815e+00 +0.0000000000000000e+00 +7.3999997836033318e+00 -3.1483072173500562e-02 -5.9238111603869259e-01 +5.9095972377803604e-03
7.4999999999999893e+00 +8.1634079907734716e+00 +0.0000000000000000e+00 +7.4999997747113296e+00 -3.1483114557093093e-02 -5.9238162578139086e-01 +5.9096314902910623e-03
7.5999999999999890e+00 +8.1633652539422492e+00 +0.0000000000000000e+00 +7.5999997655790121e+00 -3.1483162132516979e-02 -5.9238213350809377e-01 +5.9096666433242151e-03
7.6999999999999886e+00 +8.1633219510463313e+00 +0.0000000000000000e+00 +7.6999997562031739e+00 -3.1483215328648596e-02 -5.9238263932538948e-01 +5.9097026885538730e-03
7.7999999999999883e+00 +8.1632780820852346e+00 +0.0000000000000000e+00 +7.7999997465806112e+00 -3.1483274574365276e-02 -5.9238314333992681e-01 +5.9097396176603333e-03
7.8999999999999879e+00 +8.1632336470584796e+00 +0.0000000000000000e+00 +7.8999997367081196e+00 -3.1483340298545610e-02 -5.9238364565841506e-01 +5.9097774223302799e-03
7.9999999999999876e+00 +8.1631886459655885e+00 +0.0000000000000000e+00 +7.9999997265824936e+00 -3.1483412930069767e-02 -5.9238414638762771e-01 +5.9098160942569443e-03
8.0999999999999872e+00 +8.1631430788060833e+00 +0.0000000000000000e+00 +8.0999997162005286e+00 -3.1483492757690967e-02 -5.9238464555333292e-01 +5.9098556089067300e-03
8.1999999999999869e+00 +8.1630969455794897e+00 +0.0000000000000000e+00 +8.1999997055590210e+00 -3.1483579509669096e-02 -5.9238514285704957e-01 +5.9098958768134093e-03
8.2999999999999865e+00 +8.1630502462853336e+00 +0.0000000000000000e+00 +8.2999996946547672e+00 -3.1483672774203948e-02 -5.9238563791920007e-01 +5.9099367922701785e-03
8.3999999999999861e+00 +8.1630029809231424e+00 +0.0000000000000000e+00 +8.3999996834845607e+00 -3.1483772139574921e-02 -5.9238613036016918e-01 +5.9099782495618943e-03
8.4999999999999858e+00 +8.1629551494924488e+00 +0.0000000000000000e+00 +8.4999996720451971e+00 -3.1483877194143750e-02 -5.9238661980030582e-01 +5.9100201429647834e-03
8.5999999999999854e+00 +8.1629067519927858e+00 +0.0000000000000000e+00 +8.5999996603334736e+00 -3.1483987526356963e-02 -5.9238710585991916e-01 +5.9100623667461150e-03
8.6999999999999851e+00 +8.1628577884236897e+00 +0.0000000000000000e+00 +8.6999996483461839e+00 -3.1484102724748574e-02 -5.9238758815927905e-01 +5.9101048151639097e-03
8.7999999999999847e+00 +8.1628082587847022e+00 +0.0000000000000000e+00 +8.7999996360801234e+00 -3.1484222377942579e-02 -5.9238806631861418e-01 +5.9101473824666236e-03
8.8999999999999844e+00 +8.1627581630753667e+00 +0.0000000000000000e+00 +8.8999996235320893e+00 -3.1484346074655660e-02 -5.9238853995811092e-01 +5.9101899628928390e-03
8.9999999999999840e+00 +8.1627075012952339e+00 +0.0000000000000000e+00 +8.9999996106988753e+00 -3.1484473403699698e-02 -5.9238900869791111e-01 +5.9102324506709724e-03
9.0999999999999837e+00 +8.1626562734438579e+00 +0.0000000000000000e+00 +9.0999995975772769e+00 -3.1484603953984378e-02 -5.9238947215811288e-01 +5.9102747400189420e-03
9.1999999999999833e+00 +8.1626044795207964e+00 +0.0000000000000000e+00 +9.1999995841640896e+00 -3.1484737314519784e-02 -5.9238992995876705e-01 +5.9103167251438760e-03
9.2999999999999829e+00 +8.1625521195256123e+00 +0.0000000000000000e+00 +9.2999995704561105e+00 -3.1484873074419030e-02 -5.9239038171987801e-01 +5.9103583002418098e-03
9.3999999999999826e+00 +8.1624991934578777e+00 +0.0000000000000000e+00 +9.3999995564501333e+00 -3.1485010822900755e-02 -5.9239082706140012e-01 +5.9103993594973652e-03
9.4999999999999822e+00 +8.1624457013171678e+00 +0.0000000000000000e+00 +9.4999995421429535e+00 -3.1485150149291846e-02 -5.9239126560323863e-01 +5.9104397970834504e-03
9.5999999999999819e+00 +8.1623916431030654e+00 +0.0000000000000000e+00 +9.5999995275313665e+00 -3.1485290643029885e-02 -5.9239169696524652e-01 +5.9104795071609484e-03
9.6999999999999815e+00 +8.1623370188151601e+00 +0.0000000000000000e+00 +9.6999995126121679e+00 -3.1485431893665879e-02 -5.9239212076722525e-01 +5.9105183838784161e-03
9.7999999999999812e+00 +8.1622818284530503e+00 +0.0000000000000000e+00 +9.7999994973821529e+00 -3.1485573490866760e-02 -5.9239253662892200e-01 +5.9105563213717729e-03
9.8999999999999808e+00 +8.1622260720163382e+00 +0.0000000000000000e+00 +9.8999994818381172e+00 -3.1485715024417993e-02 -5.9239294417002786e-01 +5.9105932137639879e-03
9.9999999999999805e+00 +8.1621697495046366e+00 +0.0000000000000000e+00 +9.9999994659768561e+00 -3.1485856084226188e-02 -5.9239334301017854e-01 +5.9106289551647834e-03
1.0099999999999980e+01 +8.1621128609175670e+00 +0.0000000000000000e+00 +1.0099999449795165e+01 -3.1485996248322261e-02 -5.9239373309450627e-01 +5.9106634745149586e-03
1.0199999999999980e+01 +8.1620554062547583e+00 +0.0000000000000000e+00 +1.0199999433289840e+01 -3.1486135046800055e-02 -5.9239411567034961e-01 +5.9106968401278701e-03
1.0299999999999979e+01 +8.1619973855158463e+00 +0.0000000000000000e+00 +1.0299999416457673e+01 -3.1486271997702084e-02 -5.9239449231062558e-01 +5.9107291551642113e-03
1.0399999999999979e+01 +8.1619387987004721e+00 +0.0000000000000000e+00 +1.0399999399295464e+01 -3.1486406619001102e-02 -5.9239486458827351e-01 +5.9107605227877525e-03
1.0499999999999979e+01 +8.1618796458082823e+00 +0.0000000000000000e+00 +1.0499999381800006e+01 -3.1486538428597957e-02 -5.9239523407625350e-01 +5.9107910461654546e-03
1.0599999999999978e+01 +8.1618199268389269e+00 +0.0000000000000000e+00 +1.0599999363968093e+01 -3.1486666944319418e-02 -5.9239560234754884e-01 +5.9108208284675764e-03
1.0699999999999978e+01 +8.1617596417920542e+00 +0.0000000000000000e+00 +1.0699999345796524e+01 -3.1486791683915889e-02 -5.9239597097516639e-01 +5.9108499728677951e-03
1.0799999999999978e+01 +8.1616987906673142e+00 +0.0000000000000000e+00 +1.0799999327282093e+01 -3.1486912165059319e-02 -5.9239634153213594e-01 +5.9108785825432997e-03
1.0899999999999977e+01 +8.1616373734643535e+00 +0.0000000000000000e+00 +1.0899999308421593e+01 -3.1487027905340928e-02 -5.9239671559151363e-01 +5.9109067606749124e-03
1.0999999999999977e+01 +8.1615753901828185e+00 +0.0000000000000000e+00 +1.0999999289211821e+01 -3.1487138422269072e-02 -5.9239709472638025e-01 +5.9109346104471994e-03
1.1099999999999977e+01 +8.1615128408223470e+00 +0.0000000000000000e+00 +1.1099999269649574e+01 -3.1487243233267001e-02 -5.9239748050984331e-01 +5.9109622350485792e-03
1.1199999999999976e+01 +8.1614497253825729e+00 +0.0000000000000000e+00 +1.1199999249731645e+01 -3.1487341855670696e-02 -5.9239787451503589e-01 +5.9109897376714154e-03
1.1299999999999976e+01 +8.1613860438631232e+00 +0.0000000000000000e+00 +1.1299999229454830e+01 -3.1487433806726660e-02 -5.9239827831512037e-01 +5.9110172215121604e-03
1.1399999999999975e+01 +8.1613217962636124e+00 +0.0000000000000000e+00 +1.1399999208815924e+01 -3.1487518603589719e-02 -5.9239869348328655e-01 +5.9110447897714347e-03
1.1499999999999975e+01 +8.1612569825836445e+00 +0.0000000000000000e+00 +1.1499999187811722e+01 -3.1487595763320851e-02 -5.9239912159275410e-01 +5.9110725456541502e-03
1.1599999999999975e+01 +8.1611916028228144e+00 +0.0000000000000000e+00 +1.1599999166439021e+01 -3.1487664802884958e-02 -5.9239956421677120e-01 +5.9111005923696220e-03
1.1699999999999974e+01 +8.1611256569807011e+00 +0.0000000000000000e+00 +1.1699999144694615e+01 -3.1487725239148716e-02 -5.9240002292861760e-01 +5.9111290331316626e-03
1.1799999999999974e+01 +8.1610591450568677e+00 +0.0000000000000000e+00 +1.1799999122575299e+01 -3.1487776588878365e-02 -5.9240049930160410e-01 +5.9111579711587170e-03
