# multipoles
# s[mm] polynom_b[n=0][T/m^n] polynom_b[n=1][T/m^n] polynom_b[n=2][T/m^n] polynom_b[n=3][T/m^n] polynom_b[n=4][T/m^n] polynom_b[n=5][T/m^n] polynom_b[n=6][T/m^n] 
+0.0000000000000000e+00 -5.3702266002439469e-01 +7.3592094122569067e+00 -1.6988956599995211e+00 -6.7875774283797782e+01 +1.7522577212127104e+04 +1.0966172031292914e+05 -8.3448259320054621e+07 
+1.0000000000000001e-01 -5.3702226685829657e-01 +7.3591857514424479e+00 -1.7062665476169900e+00 -6.7072232769219042e+01 +1.7646710632760311e+04 +1.0428398788491421e+05 -8.3950995342713296e+07 
+2.0000000000000001e-01 -5.3702189087287133e-01 +7.3591620139799838e+00 -1.7128150222042398e+00 -6.6239682485074553e+01 +1.7759431075979308e+04 +9.8678155377476098e+04 -8.4414023605153441e+07 
+2.9999999999999999e-01 -5.3702153126654928e-01 +7.3591382101944447e+00 -1.7185481022330493e+00 -6.5382002612167071e+01 +1.7860760490640198e+04 +9.2875406653177168e+04 -8.4837142690838501e+07 
+4.0000000000000002e-01 -5.3702118723785774e-01 +7.3591143504083645e+00 -1.7234728064622504e+00 -6.4503072262971457e+01 +1.7950720833547512e+04 +8.6906925248340427e+04 -8.5220151222341582e+07 
+5.0000000000000000e-01 -5.3702085798524191e-01 +7.3590904449343260e+00 -1.7275961538363975e+00 -6.3606770272965441e+01 +1.8029334063527855e+04 +8.0803893184981949e+04 -8.5562847823747620e+07 
+5.9999999999999998e-01 -5.3702054270717703e-01 +7.3590665040805847e+00 -1.7309251664270384e+00 -6.2696975346503820e+01 +1.8096622200013640e+04 +7.4597491770345747e+04 -8.5865031408798426e+07 
+6.9999999999999996e-01 -5.3702024060211651e-01 +7.3590425381532292e+00 -1.7334668625635994e+00 -6.1777566139510867e+01 +1.8152607191417439e+04 +6.8318902128444766e+04 -8.6126500552558064e+07 
+8.0000000000000004e-01 -5.3701995086853427e-01 +7.3590185574512210e+00 -1.7352282607934004e+00 -6.0852421084251013e+01 +1.8197310986858589e+04 +6.1999304097887405e+04 -8.6347053824873865e+07 
+9.0000000000000002e-01 -5.3701967270489659e-01 +7.3589945722679007e+00 -1.7362163805212445e+00 -5.9925418464420147e+01 +1.8230755550260747e+04 +5.5669876746418922e+04 -8.6526489863739923e+07 
+1.0000000000000000e+00 -5.3701940530967429e-01 +7.3589705928939146e+00 -1.7364382403488399e+00 -5.9000436481953294e+01 +1.8252962829814925e+04 +4.9361798712829717e+04 -8.6664607235833600e+07 
+1.1000000000000001e+00 -5.3701914788140015e-01 +7.3589466296150601e+00 -1.7359008573201296e+00 -5.8081353191460423e+01 +1.8263954739782195e+04 +4.3106247810091132e+04 -8.6761204338280544e+07 
+1.2000000000000000e+00 -5.3701889961848359e-01 +7.3589226927132048e+00 -1.7346112467787560e+00 -5.7172046532511338e+01 +1.8263753162179317e+04 +3.6934401232952405e+04 -8.6816079424173638e+07 
+1.3000000000000000e+00 -5.3701865971943796e-01 +7.3588987924660429e+00 -1.7325764233088239e+00 -5.6276394322181559e+01 +1.8252379955211421e+04 +3.0877435503165809e+04 -8.6829030613444492e+07 
+1.3999999999999999e+00 -5.3701842738278216e-01 +7.3588749391459336e+00 -1.7298034006986771e+00 -5.5398274215593062e+01 +1.8229856964372044e+04 +2.4966526229999454e+04 -8.6799855983988941e+07 
+1.5000000000000000e+00 -5.3701820180699122e-01 +7.3588511430221475e+00 -1.7262991900105227e+00 -5.4541563779843472e+01 +1.8196205973321630e+04 +1.9232848555752094e+04 -8.6728353302595049e+07 
+1.6000000000000001e+00 -5.3701798219058461e-01 +7.3588274143646686e+00 -1.7220707998281168e+00 -5.3710140581003330e+01 +1.8151448718320426e+04 +1.3707577597949874e+04 -8.6614320122480378e+07 
+1.7000000000000000e+00 -5.3701776773208554e-01 +7.3588037634322516e+00 -1.7171252363270195e+00 -5.2907881864791371e+01 +1.8095606880089668e+04 +8.4218866696689256e+03 -8.6457553721865609e+07 
+1.8000000000000000e+00 -5.3701755763003745e-01 +7.3587802004834657e+00 -1.7114695063923331e+00 -5.2138664866557612e+01 +1.8028702151201785e+04 +3.4069490422426661e+03 -8.6257851444337338e+07 
+1.8999999999999999e+00 -5.3701735108296400e-01 +7.3587567357799353e+00 -1.7051106102584757e+00 -5.1406366886073897e+01 +1.7950756086440419e+04 -1.3060616717952737e+03 -8.6015009966852859e+07 
+2.0000000000000000e+00 -5.3701714728946093e-01 +7.3587333795705341e+00 -1.6980555452833730e+00 -5.0714864857541023e+01 +1.7861790183802590e+04 -5.6859739361589436e+03 -8.5728825708249703e+07 
+2.1000000000000001e+00 -5.3701694554115054e-01 +7.3587101662248884e+00 -1.6903206479608681e+00 -5.0067630401187763e+01 +1.7761983450865620e+04 -9.7067368047714044e+03 -8.5399778573570654e+07 
+2.2000000000000002e+00 -5.3701674549711198e-01 +7.3586872303047661e+00 -1.6819606768162645e+00 -4.9466534408042016e+01 +1.7652154319307003e+04 -1.3362717009021122e+04 -8.5031086526775822e+07 
+2.2999999999999998e+00 -5.3701654690680045e-01 +7.3586647323437973e+00 -1.6730402784345122e+00 -4.8913051825595744e+01 +1.7533283684199119e+04 -1.6653376978111079e+04 -8.4626654294714525e+07 
+2.3999999999999999e+00 -5.3701634951969890e-01 +7.3586428328830928e+00 -1.6636241028876868e+00 -4.8408657809341705e+01 +1.7406352508263957e+04 -1.9578177950877947e+04 -8.4190386932518408e+07 
+2.5000000000000000e+00 -5.3701615308531392e-01 +7.3586216924630348e+00 -1.6537767909424284e+00 -4.7954827483357512e+01 +1.7272341583478410e+04 -2.2136581373773966e+04 -8.3726188703966767e+07 
+2.6000000000000001e+00 -5.3701595735312269e-01 +7.3586014716281332e+00 -1.6435629872868933e+00 -4.7553036082652447e+01 +1.7132231778073816e+04 -2.4328048062357175e+04 -8.3237964242452264e+07 
+2.7000000000000002e+00 -5.3701576207274437e-01 +7.3585823309276952e+00 -1.6330473336263618e+00 -4.7204758965561034e+01 +1.6987003915691916e+04 -2.6152038169506184e+04 -8.2729618004095182e+07 
+2.7999999999999998e+00 -5.3701556699364272e-01 +7.3585644309147602e+00 -1.6222944706270142e+00 -4.6911471591995912e+01 +1.6837638798276588e+04 -2.7608011280330356e+04 -8.2205054337744951e+07 
+2.8999999999999999e+00 -5.3701537186542991e-01 +7.3585479321469975e+00 -1.6113690389378195e+00 -4.6674649535719347e+01 +1.6685117242174121e+04 -2.8695426378477361e+04 -8.1668177702274919e+07 
+3.0000000000000000e+00 -5.3701517643766650e-01 +7.3585329951871916e+00 -1.6003356759262435e+00 -4.6495768514889086e+01 +1.6530420005999891e+04 -2.9413741638496271e+04 -8.1122892294786826e+07 
+3.1000000000000001e+00 -5.3701498045996199e-01 +7.3585197806076854e+00 -1.5892590173905135e+00 -4.6376304498774957e+01 +1.6374527827097018e+04 -2.9762413862370893e+04 -8.0573102233392209e+07 
+3.2000000000000002e+00 -5.3701478368193933e-01 +7.3585084489854218e+00 -1.5782037019277475e+00 -4.6317733588755502e+01 +1.6218421506353676e+04 -2.9740899106434401e+04 -8.0022711966064811e+07 
+3.2999999999999998e+00 -5.3701458585318218e-01 +7.3584991609049233e+00 -1.5672343642985682e+00 -4.6321532085331654e+01 +1.6063081783010921e+04 -2.9348652353571604e+04 -7.9475625676993772e+07 
+3.3999999999999999e+00 -5.3701438672344892e-01 +7.3584920769570177e+00 -1.5564156352640917e+00 -4.6389176453451093e+01 +1.5909489327789632e+04 -2.8585127705134073e+04 -7.8935747241134182e+07 
+3.5000000000000000e+00 -5.3701418604230267e-01 +7.3584873577464709e+00 -1.5458121516655259e+00 -4.6522143548894398e+01 +1.5758624944474692e+04 -2.7449777064687671e+04 -7.8406981213956654e+07 
+3.6000000000000001e+00 -5.3701398355949892e-01 +7.3584851638811895e+00 -1.5354885445025710e+00 -4.6721910308637987e+01 +1.5611469334176494e+04 -2.5942051919807007e+04 -7.7893231679310665e+07 
+3.7000000000000002e+00 -5.3701377902473812e-01 +7.3584856559838911e+00 -1.5255094427189624e+00 -4.6989954065917189e+01 +1.5469003171207080e+04 -2.4061401590911664e+04 -7.7398402624409556e+07 
+3.7999999999999998e+00 -5.3701357218773793e-01 +7.3584889946845520e+00 -1.5159394790732406e+00 -4.7327752364395963e+01 +1.5332207220947948e+04 -2.1807274213448029e+04 -7.6926398515168473e+07 
+3.8999999999999999e+00 -5.3701336279827538e-01 +7.3584953406278215e+00 -1.5068432802609066e+00 -4.7736783144682619e+01 +1.5202062145526997e+04 -1.9179115744661365e+04 -7.6481123353553981e+07 
+4.0000000000000000e+00 -5.3701315060614807e-01 +7.3585048544636864e+00 -1.4982854757906201e+00 -4.8218524488616389e+01 +1.5079548676490907e+04 -1.6176371394809790e+04 -7.6066481509338334e+07 
+4.0999999999999996e+00 -5.3701293547321249e-01 +7.3585176312139904e+00 -1.4903173590475474e+00 -4.8773165185418222e+01 +1.4965446987274343e+04 -1.2804336677037589e+04 -7.5685506426104039e+07 
+4.2000000000000002e+00 -5.3701271770773740e-01 +7.3585334999631815e+00 -1.4829353660625115e+00 -4.9395714208549144e+01 +1.4859705545513372e+04 -9.0919375918315382e+03 -7.5337615807353690e+07 
+4.2999999999999998e+00 -5.3701249772904547e-01 +7.3585522224186626e+00 -1.4761218272175671e+00 -5.0079879630421949e+01 +1.4762057352997008e+04 -5.0740646956811179e+03 -7.5021289401071370e+07 
+4.4000000000000004e+00 -5.3701227595656165e-01 +7.3585735602923199e+00 -1.4698590734472468e+00 -5.0819369682105339e+01 +1.4672235418515878e+04 -7.8560773894522617e+02 -7.4735006966233939e+07 
+4.5000000000000000e+00 -5.3701205280961262e-01 +7.3585972752904780e+00 -1.4641294378282927e+00 -5.1607892446020500e+01 +1.4589972787199114e+04 +3.7385425130181534e+03 -7.4477248410430625e+07 
+4.5999999999999996e+00 -5.3701182870750364e-01 +7.3586231291321385e+00 -1.4589152591761521e+00 -5.2439156403269216e+01 +1.4515002606473776e+04 +8.4634974894162642e+03 -7.4246494096432477e+07 
+4.7000000000000002e+00 -5.3701160406956616e-01 +7.3586508835320812e+00 -1.4541988761976961e+00 -5.3306869921975334e+01 +1.4447058018093679e+04 +1.3354367778038859e+04 -7.4041224336322367e+07 
+4.7999999999999998e+00 -5.3701137931504506e-01 +7.3586803002072987e+00 -1.4499626316538952e+00 -5.4204741478967932e+01 +1.4385872232548192e+04 +1.8376264493480896e+04 -7.3859919730513439e+07 
+4.9000000000000004e+00 -5.3701115486317286e-01 +7.3587111408835710e+00 -1.4461888728292747e+00 -5.5126479821057764e+01 +1.4331178541948850e+04 +2.3494300129369483e+04 -7.3701061241705090e+07 
+5.0000000000000000e+00 -5.3701093113317244e-01 +7.3587431672829728e+00 -1.4428599479766511e+00 -5.6065793618302031e+01 +1.4282710248095211e+04 +2.8673586573659319e+04 -7.3563129837790430e+07 
+5.0999999999999996e+00 -5.3701070854422939e-01 +7.3587761411321404e+00 -1.4399582128878350e+00 -5.7016391705685557e+01 +1.4240200787511316e+04 +3.3879236509239185e+04 -7.3444607086082831e+07 
+5.2000000000000002e+00 -5.3701048751548586e-01 +7.3588098241613435e+00 -1.4374660219667634e+00 -5.7971983053887570e+01 +1.4203383564980752e+04 +3.9076363221148211e+04 -7.3343974372401580e+07 
+5.2999999999999998e+00 -5.3701026846603550e-01 +7.3588439780997570e+00 -1.4353657385316712e+00 -5.8926276640909535e+01 +1.4171992143599717e+04 +4.4230079876780837e+04 -7.3259713784572333e+07 
+5.4000000000000004e+00 -5.3701005181496075e-01 +7.3588783646845979e+00 -1.4336397302307331e+00 -5.9872981706414038e+01 +1.4145760160744772e+04 +4.9305500951407012e+04 -7.3190307723354027e+07 
+5.5000000000000000e+00 -5.3700983798126600e-01 +7.3589127456490742e+00 -1.4322703640935273e+00 -6.0805807416041212e+01 +1.4124421232205830e+04 +5.4267740312660411e+04 -7.3134238439380869e+07 
+5.5999999999999996e+00 -5.3700962738400060e-01 +7.3589468827326874e+00 -1.4312400176618001e+00 -6.1718463154981372e+01 +1.4107709162978466e+04 +5.9081912902716322e+04 -7.3089989033251271e+07 
+5.7000000000000002e+00 -5.3700942044202848e-01 +7.3589805376756328e+00 -1.4305310711180392e+00 -6.2604658369503454e+01 +1.4095357797583616e+04 +6.3713133809332103e+04 -7.3056042742181137e+07 
+5.7999999999999998e+00 -5.3700921757431663e-01 +7.3590134722228502e+00 -1.4301259077759307e+00 -6.3458102688166228e+01 +1.4087101028741788e+04 +6.8126518983496426e+04 -7.3030882980388120e+07 
+5.9000000000000004e+00 -5.3700901919964739e-01 +7.3590454481154381e+00 -1.4300069202961712e+00 -6.4272505670828551e+01 +1.4082672915091785e+04 +7.2287183753193400e+04 -7.3012993894201517e+07 
+5.9999999999999902e+00 -5.3700882573691600e-01 +7.3590762271011476e+00 -1.4301565033085442e+00 -6.5041577111420423e+01 +1.4081807541525948e+04 +7.6160244527507661e+04 -7.3000859705606744e+07 
+6.0999999999999899e+00 -5.3700863759157491e-01 +7.3591056097533638e+00 -1.4305544177330001e+00 -6.5760324573236787e+01 +1.4084189647045272e+04 +7.9718253407263677e+04 -7.2992898725803688e+07 
+6.1999999999999904e+00 -5.3700845512514839e-01 +7.3591335509588554e+00 -1.4311701873115872e+00 -6.6429023492521125e+01 +1.4089334095537401e+04 +8.2964954039017874e+04 -7.2987449098249331e+07 
+6.2999999999999901e+00 -5.3700827869038914e-01 +7.3591600440973020e+00 -1.4319708504877313e+00 -6.7049292807241130e+01 +1.4096720375943185e+04 +8.5912296669709787e+04 -7.2982878467601240e+07 
+6.3999999999999897e+00 -5.3700810864006776e-01 +7.3591850825343004e+00 -1.4329234394961838e+00 -6.7622751043539253e+01 +1.4105827863489449e+04 +8.8572229446203448e+04 -7.2977553968349189e+07 
+6.4999999999999902e+00 -5.3700794532686580e-01 +7.3592086596318964e+00 -1.4339949898249209e+00 -6.8151016587420742e+01 +1.4116135991343072e+04 +9.0956699879362437e+04 -7.2969843012377530e+07 
+6.5999999999999899e+00 -5.3700778910357183e-01 +7.3592307687439105e+00 -1.4351525358496346e+00 -6.8635707562136901e+01 +1.4127124174009779e+04 +9.3077654172958006e+04 -7.2958112947711885e+07 
+6.6999999999999904e+00 -5.3700764032291159e-01 +7.3592514032121095e+00 -1.4363631088752793e+00 -6.9078441720058947e+01 +1.4138271764970814e+04 +9.4947036627811467e+04 -7.2940730837455153e+07 
+6.7999999999999901e+00 -5.3700749933761016e-01 +7.3592705563719090e+00 -1.4375937423083005e+00 -6.9480836587399722e+01 +1.4149058158555477e+04 +9.6576790434863491e+04 -7.2916063960883453e+07 
+6.8999999999999897e+00 -5.3700736650038128e-01 +7.3592882215480646e+00 -1.4388114698144081e+00 -6.9844509360100403e+01 +1.4158962752508492e+04 +9.7978857144457244e+04 -7.2882479625852630e+07 
+6.9999999999999902e+00 -5.3700724216398932e-01 +7.3593043920548133e+00 -1.4399833213431219e+00 -7.0171076890965978e+01 +1.4167464877091954e+04 +9.9165176560187014e+04 -7.2838344845838889e+07 
+7.0999999999999899e+00 -5.3700712668111028e-01 +7.3593190611986943e+00 -1.4410763291293924e+00 -7.0462155775070102e+01 +1.4174043900671293e+04 +1.0014768725512139e+05 -7.2782026821245983e+07 
+7.1999999999999904e+00 -5.3700702040446857e-01 +7.3593322222739044e+00 -1.4420575220970995e+00 -7.0719362220775793e+01 +1.4178179132113879e+04 +1.0093832586156568e+05 -7.2711892497464806e+07 
+7.2999999999999901e+00 -5.3700692368679637e-01 +7.3593438685605372e+00 -1.4428939298964989e+00 -7.0944311981709461e+01 +1.4179349893290633e+04 +1.0154902663647928e+05 -7.2626308901628286e+07 
+7.3999999999999897e+00 -5.3700683688073814e-01 +7.3593539933279510e+00 -1.4435525819444035e+00 -7.1138620474122860e+01 +1.4177035500791004e+04 +1.0199172221773698e+05 -7.2523643053465560e+07 
+7.4999999999999902e+00 -5.3700676033908334e-01 +7.3593625898423305e+00 -1.4440005045021855e+00 -7.1303902971586325e+01 +1.4170715209661867e+04 +1.0227834469347163e+05 -7.2402261698403850e+07 
+7.5999999999999899e+00 -5.3700669441444171e-01 +7.3593696513439077e+00 -1.4442047252484604e+00 -7.1441773962756187e+01 +1.4159868305184034e+04 +1.0242082194628684e+05 -7.2260531758408621e+07 
+7.6999999999999904e+00 -5.3700663945954630e-01 +7.3593751710654089e+00 -1.4441322678079036e+00 -7.1553847674141522e+01 +1.4143973992606418e+04 +1.0243108067031880e+05 -7.2096819790560886e+07 
+7.7999999999999901e+00 -5.3700659582710020e-01 +7.3593791422330170e+00 -1.4437501585390091e+00 -7.1641738098814855e+01 +1.4122511530248985e+04 +1.0232104654495795e+05 -7.1909492630459175e+07 
+7.8999999999999897e+00 -5.3700656386977474e-01 +7.3593815580503215e+00 -1.4430254192152385e+00 -7.1707058531210521e+01 +1.4094960090102706e+04 +1.0210264156027752e+05 -7.1696916733064651e+07 
+7.9999999999999902e+00 -5.3700654394026115e-01 +7.3593824117102642e+00 -1.4419250741382033e+00 -7.1751421915242190e+01 +1.4060798889438687e+04 +1.0178778619816747e+05 -7.1457458772270098e+07 
+8.0999999999999908e+00 -5.3700653624368389e-01 +7.3593817150464549e+00 -1.4404253639956437e+00 -7.1776526669879601e+01 +1.4019659252068097e+04 +1.0138895216314678e+05 -7.1190038865604207e+07 
+8.1999999999999904e+00 -5.3700654040028850e-01 +7.3593795543795766e+00 -1.4385397078082225e+00 -7.1784389901902102e+01 +1.3971771173984856e+04 +1.0091973774018532e+05 -7.0895742488032177e+07 
+8.2999999999999901e+00 -5.3700655588519397e-01 +7.3593760345989319e+00 -1.4362909033510167e+00 -7.1777098460855314e+01 +1.3917511927143212e+04 +1.0039374153438004e+05 -7.0576181547530740e+07 
+8.3999999999999897e+00 -5.3700658217356045e-01 +7.3593712605888237e+00 -1.4337017467825524e+00 -7.1756738999563439e+01 +1.3857258745541483e+04 +9.9824560772549215e+04 -7.0232967756727874e+07 
+8.4999999999999893e+00 -5.3700661874060596e-01 +7.3593653372460590e+00 -1.4307950305284098e+00 -7.1725398492739018e+01 +1.3791388787010543e+04 +9.9225794371869284e+04 -6.9867712460455179e+07 
+8.5999999999999908e+00 -5.3700666506152384e-01 +7.3593583694556672e+00 -1.4275935436054388e+00 -7.1685163547374302e+01 +1.3720279138424452e+04 +9.8611038978011871e+04 -6.9482026658361703e+07 
+8.6999999999999904e+00 -5.3700672061157373e-01 +7.3593504621150965e+00 -1.4241200700367893e+00 -7.1638121078213715e+01 +1.3644306784936469e+04 +9.7993892799895446e+04 -6.9077520857504711e+07 
+8.7999999999999794e+00 -5.3700678486601749e-01 +7.3593417201181355e+00 -1.4203973939477854e+00 -7.1586357862489919e+01 +1.3563848706501049e+04 +9.7387953088430644e+04 -6.8655805528626412e+07 
+8.8999999999999808e+00 -5.3700685730021047e-01 +7.3593322483577754e+00 -1.4164482911938143e+00 -7.1531960610729399e+01 +1.3479281721217521e+04 +9.6806816513816637e+04 -6.8218490371685863e+07 
+8.9999999999999805e+00 -5.3700693738949268e-01 +7.3593221517352827e+00 -1.4122955332750069e+00 -7.1477016235934684e+01 +1.3390982557093870e+04 +9.6264080726171713e+04 -6.7767184646221027e+07 
+9.0999999999999801e+00 -5.3700702460922112e-01 +7.3593115351490681e+00 -1.4079618927710533e+00 -7.1423611518274043e+01 +1.3299327954417482e+04 +9.5773342385081429e+04 -6.7303497658689409e+07 
+9.1999999999999797e+00 -5.3700711843483562e-01 +7.3593005035007693e+00 -1.4034701325247549e+00 -7.1373833299433343e+01 +1.3204694463020334e+04 +9.5348198326980695e+04 -6.6829037804536946e+07 
+9.2999999999999794e+00 -5.3700721834181275e-01 +7.3592891616941127e+00 -1.3988430143103394e+00 -7.1329768428999444e+01 +1.3107458605502819e+04 +9.5002245201605256e+04 -6.6345413341179803e+07 
+9.3999999999999808e+00 -5.3700732380561722e-01 +7.3592776146365848e+00 -1.3941032946025946e+00 -7.1293503819460113e+01 +1.3007996794772520e+04 +9.4749079792026678e+04 -6.5854231991647415e+07 
+9.4999999999999805e+00 -5.3700743430177889e-01 +7.3592659672329077e+00 -1.3892737259389505e+00 -7.1267126266931783e+01 +1.2906685363887011e+04 +9.4602298011358507e+04 -6.5357101094383679e+07 
+9.5999999999999801e+00 -5.3700754930587902e-01 +7.3592543243925927e+00 -1.3843770544363481e+00 -7.1252722651612160e+01 +1.2803900514184021e+04 +9.4575496004406305e+04 -6.4855627346016631e+07 
+9.6999999999999797e+00 -5.3700766829355684e-01 +7.3592427910351308e+00 -1.3794360223784239e+00 -7.1252380098653134e+01 +1.2700018366228031e+04 +9.4682271107091889e+04 -6.4351417049701095e+07 
+9.7999999999999794e+00 -5.3700779074043270e-01 +7.3592314720681262e+00 -1.3744733686872908e+00 -7.1268185338368298e+01 +1.2595414972228064e+04 +9.4936218119665355e+04 -6.3846076181342714e+07 
+9.8999999999999808e+00 -5.3700791612220100e-01 +7.3592204724115886e+00 -1.3695118259634373e+00 -7.1302225415274762e+01 +1.2490466252025000e+04 +9.5350933416175176e+04 -6.3341210066639744e+07 
+9.9999999999999805e+00 -5.3700804391464574e-01 +7.3592098969860782e+00 -1.3645741202397641e+00 -7.1356587321214946e+01 +1.2385547998000367e+04 +9.5940012708795926e+04 -6.2838423434055552e+07 
+1.0100000000000000e+01 -5.3700817365460052e-01 +7.3591998130296608e+00 -1.3596833868324714e+00 -7.1432470068312313e+01 +1.2281074195922358e+04 +9.6711518660855960e+04 -6.2339536658344395e+07 
