# multipoles
# s[mm] polynom_b[n=0][T/m^n] polynom_b[n=1][T/m^n] polynom_b[n=2][T/m^n] polynom_b[n=3][T/m^n] polynom_b[n=4][T/m^n] polynom_b[n=5][T/m^n] polynom_b[n=6][T/m^n] 
+0.0000000000000000e+00 -5.6452167974556888e-01 +7.7348496805270424e+00 -6.5778104339521637e-01 -5.7923570549084708e+01 +8.5556875916259869e+03 +1.3801377954353101e+05 -4.6779565366821773e+07 
+1.0000000000000001e-01 -5.6452169496633064e-01 +7.7349010557692424e+00 -6.5726477525636506e-01 -5.8821054135140479e+01 +8.5600802254684022e+03 +1.4151477556636155e+05 -4.6802150993451014e+07 
+2.0000000000000001e-01 -5.6452171665363637e-01 +7.7349481135122060e+00 -6.5629690187370637e-01 -5.9683846692380875e+01 +8.5568521677662484e+03 +1.4509213231544118e+05 -4.6784650211854346e+07 
+2.9999999999999999e-01 -5.6452174544464040e-01 +7.7349909120556264e+00 -6.5490410872951865e-01 -6.0512262544235149e+01 +8.5465128870338722e+03 +1.4873847636307435e+05 -4.6730023033148892e+07 
+4.0000000000000002e-01 -5.6452178197644365e-01 +7.7350295096939732e+00 -6.5311308078980101e-01 -6.1306615884086781e+01 +8.5295718245140179e+03 +1.5244643353625215e+05 -4.6641229305693254e+07 
+5.0000000000000000e-01 -5.6452182688621277e-01 +7.7350639647210579e+00 -6.5095050039901081e-01 -6.2067220899340391e+01 +8.5065383626283947e+03 +1.5620862961402562e+05 -4.6521228589001730e+07 
+5.9999999999999998e-01 -5.6452188081107102e-01 +7.7350943354344865e+00 -6.4844305041946571e-01 -6.2794391907966485e+01 +8.4779218834152689e+03 +1.6001769115622656e+05 -4.6372980425396331e+07 
+6.9999999999999996e-01 -5.6452194438811321e-01 +7.7351206801283201e+00 -6.4561741203721512e-01 -6.3488443124243318e+01 +8.4442317251194127e+03 +1.6386624409812214e+05 -4.6199444129798688e+07 
+8.0000000000000004e-01 -5.6452201825444692e-01 +7.7351430570944082e+00 -6.4250027034786217e-01 -6.4149688717625637e+01 +8.4059772904944784e+03 +1.6774691415696376e+05 -4.6003579308951743e+07 
+9.0000000000000002e-01 -5.6452210304716210e-01 +7.7351615246263794e+00 -6.3911830777665657e-01 -6.4778442911840770e+01 +8.3636679231479957e+03 +1.7165232736509398e+05 -4.5788345276787587e+07 
+1.0000000000000000e+00 -5.6452219940332560e-01 +7.7351761410167574e+00 -6.3549820482400032e-01 -6.5375019897677646e+01 +8.3178129233538129e+03 +1.7557510957931002e+05 -4.5556701133735813e+07 
+1.1000000000000001e+00 -5.6452230796003511e-01 +7.7351869645547628e+00 -6.3166664430870156e-01 -6.5939733780406712e+01 +8.2689216299816126e+03 +1.7950788620464914e+05 -4.5311606157666020e+07 
+1.2000000000000000e+00 -5.6452242935434005e-01 +7.7351940535321777e+00 -6.2765030956611068e-01 -6.6472898731935189e+01 +8.2175033811763424e+03 +1.8344328304528489e+05 -4.5056019603978664e+07 
+1.3000000000000000e+00 -5.6452256422327030e-01 +7.7351974662343830e+00 -6.2347588226501371e-01 -6.6974828737138282e+01 +8.1640674813751120e+03 +1.8737392486029834e+05 -4.4792900570272632e+07 
+1.3999999999999999e+00 -5.6452271320391523e-01 +7.7351972609499331e+00 -6.1917004626833461e-01 -6.7445837874837935e+01 +8.1091232746596488e+03 +1.9129243701179529e+05 -4.4525208344833978e+07 
+1.5000000000000000e+00 -5.6452287693320780e-01 +7.7351934959630633e+00 -6.1475948594078000e-01 -6.7886240076473996e+01 +8.0531801053852714e+03 +1.9519144401240995e+05 -4.4255902197619922e+07 
+1.6000000000000001e+00 -5.6452305604823905e-01 +7.7351862295547251e+00 -6.1027088285466402e-01 -6.8296349188523479e+01 +7.9967472668731743e+03 +1.9906356998518345e+05 -4.3987941168330565e+07 
+1.7000000000000000e+00 -5.6452325118599445e-01 +7.7351755200071040e+00 -6.0573092362625613e-01 -6.8676479060090287e+01 +7.9403341435346956e+03 +2.0290143906645180e+05 -4.3724284721943893e+07 
+1.8000000000000000e+00 -5.6452346298346745e-01 +7.7351614256010519e+00 -6.0116629355679962e-01 -6.9026943504253481e+01 +7.8844500984336901e+03 +2.0669767528726152e+05 -4.3467892236010626e+07 
+1.8999999999999999e+00 -5.6452369207760811e-01 +7.7351440046102038e+00 -5.9660367858441254e-01 -6.9348056102242282e+01 +7.8296045010079442e+03 +2.1044490138274443e+05 -4.3221723106177121e+07 
+2.0000000000000000e+00 -5.6452393910541254e-01 +7.7351233153128227e+00 -5.9206976544529788e-01 -6.9640130544752054e+01 +7.7763067399815827e+03 +2.1413574077465411e+05 -4.2988736834106535e+07 
+2.1000000000000001e+00 -5.6452420436200079e-01 +7.7350994342509187e+00 -5.8759001779815379e-01 -6.9903092664298327e+01 +7.7250170210362203e+03 +2.1776019357243553e+05 -4.2771536348709695e+07 
+2.2000000000000002e+00 -5.6452448677489442e-01 +7.7350725051256806e+00 -5.8318527005326604e-01 -7.0135255698779417e+01 +7.6759939146479983e+03 +2.2129727927377319e+05 -4.2571264056767792e+07 
+2.2999999999999998e+00 -5.6452478492975755e-01 +7.7350426869191686e+00 -5.7887525871012580e-01 -7.0334512934696264e+01 +7.6294442910426997e+03 +2.2472314280228544e+05 -4.2388688228399284e+07 
+2.3999999999999999e+00 -5.6452509741219814e-01 +7.7350101386186223e+00 -5.7467972408950529e-01 -7.0498757786126021e+01 +7.5855750916012794e+03 +2.2801392983839972e+05 -4.2224577456327356e+07 
+2.5000000000000000e+00 -5.6452542280780371e-01 +7.7349750192110678e+00 -5.7061840695674293e-01 -7.0625883629443308e+01 +7.5445932716499046e+03 +2.3114578583636656e+05 -4.2079700400045834e+07 
+2.6000000000000001e+00 -5.6452575970219021e-01 +7.7349374876868273e+00 -5.6671105227679941e-01 -7.0713783894089786e+01 +7.5067058678426274e+03 +2.3409485651901411e+05 -4.1954826096525013e+07 
+2.7000000000000002e+00 -5.6452610668095959e-01 +7.7348977030281558e+00 -5.6297740480908043e-01 -7.0760351755474318e+01 +7.4721199177211820e+03 +2.3683728617067699e+05 -4.1850723580459021e+07 
+2.7999999999999998e+00 -5.6452646232966486e-01 +7.7348558242299728e+00 -5.5943721342908259e-01 -7.0763480713516259e+01 +7.4410425421027921e+03 +2.3934922092391891e+05 -4.1768162277829349e+07 
+2.8999999999999999e+00 -5.6452682523391939e-01 +7.7348120102772864e+00 -5.5611022810985811e-01 -7.0721063929051539e+01 +7.4136808868686194e+03 +2.4160680488828867e+05 -4.1707911723735459e+07 
+3.0000000000000000e+00 -5.6452719397928197e-01 +7.7347664201674666e+00 -5.5301620397811313e-01 -7.0630994891137689e+01 +7.3902422030207908e+03 +2.4358618408328490e+05 -4.1670741949876912e+07 
+3.1000000000000001e+00 -5.6452756715129726e-01 +7.7347192128887281e+00 -5.5017489661675345e-01 -7.0491166778798316e+01 +7.3709337552940360e+03 +2.4526350270924316e+05 -4.1657423040998153e+07 
+3.2000000000000002e+00 -5.6452794333556156e-01 +7.7346705474369166e+00 -5.4760606430214753e-01 -7.0299472937443113e+01 +7.3559628692723991e+03 +2.4661490586668823e+05 -4.1668725372122228e+07 
+3.2999999999999998e+00 -5.6452832111761508e-01 +7.7346205828100532e+00 -5.4532947162391887e-01 -7.0053806731438158e+01 +7.3455369985637853e+03 +2.4761653874577061e+05 -4.1705419918268882e+07 
+3.3999999999999999e+00 -5.6452869908299130e-01 +7.7345694780042562e+00 -5.4336488229674729e-01 -6.9752061416692982e+01 +7.3398635844136397e+03 +2.4824454586144321e+05 -4.1768277577819213e+07 
+3.5000000000000000e+00 -5.6452907581725109e-01 +7.7345173920224131e+00 -5.4173206733534796e-01 -6.9392130389799092e+01 +7.3391502208681904e+03 +2.4847507249244270e+05 -4.1858069980108544e+07 
+3.6000000000000001e+00 -5.6452944990593912e-01 +7.7344644838662386e+00 -5.4045079860334722e-01 -6.8971906962045580e+01 +7.3436045258578351e+03 +2.4828426338601418e+05 -4.1975568855887346e+07 
+3.7000000000000002e+00 -5.6452981993454721e-01 +7.7344109125421436e+00 -5.3954085459351631e-01 -6.8489284514242797e+01 +7.3534342532462688e+03 +2.4764826361599888e+05 -4.2121546571021132e+07 
+3.7999999999999998e+00 -5.6453018448865455e-01 +7.7343568370545110e+00 -5.3902201320497078e-01 -6.7942156312965153e+01 +7.3688471579930001e+03 +2.4654321755179085e+05 -4.2296775492828377e+07 
+3.8999999999999999e+00 -5.6453054215374554e-01 +7.7343024164200260e+00 -5.3891406046497214e-01 -6.7328415915156995e+01 +7.3900511604021212e+03 +2.4494527117255493e+05 -4.2502028764160365e+07 
+4.0000000000000000e+00 -5.6453089151540536e-01 +7.7342478096483456e+00 -5.3923678425065491e-01 -6.6645956615782737e+01 +7.4172542282700570e+03 +2.4283056889286506e+05 -4.2738079744467862e+07 
+4.0999999999999996e+00 -5.6453123146073825e-01 +7.7341931902618759e+00 -5.3999689505788562e-01 -6.5894339908778534e+01 +7.4504355479909027e+03 +2.4018687666112112e+05 -4.3004513540768281e+07 
+4.2000000000000002e+00 -5.6453156209805744e-01 +7.7341387895925413e+00 -5.4114710242830644e-01 -6.5079646427111783e+01 +7.4886617945426033e+03 +2.3704701052234109e+05 -4.3296264547921173e+07 
+4.2999999999999998e+00 -5.6453188384457098e-01 +7.7340848534458759e+00 -5.4262620757839974e-01 -6.4209553976605577e+01 +7.5307722467523035e+03 +2.3345472723764283e+05 -4.3607129342421643e+07 
+4.4000000000000004e+00 -5.6453219711750358e-01 +7.7340316276299559e+00 -5.4437300710860659e-01 -6.3291740440351631e+01 +7.5756061046643763e+03 +2.2945378377861655e+05 -4.3930904149565756e+07 
+4.5000000000000000e+00 -5.6453250233407781e-01 +7.7339793579532357e+00 -5.4632629871043137e-01 -6.2333883720272588e+01 +7.6220025987291101e+03 +2.2508793700125691e+05 -4.4261385367111109e+07 
+4.5999999999999996e+00 -5.6453279991157412e-01 +7.7339282902229316e+00 -5.4842487102803117e-01 -6.1343661682168893e+01 +7.6688008025337549e+03 +2.2040094328701458e+05 -4.4592368689007990e+07 
+4.7000000000000002e+00 -5.6453309026735909e-01 +7.7338786702483997e+00 -5.5060750994549612e-01 -6.0328752258609974e+01 +7.7148397497626102e+03 +2.1543655912542093e+05 -4.4917649658059113e+07 
+4.7999999999999998e+00 -5.6453337381875746e-01 +7.7338307438414713e+00 -5.5281300358995977e-01 -5.9296833459198844e+01 +7.7589585248779449e+03 +2.1023854117108913e+05 -4.5231024084960304e+07 
+4.9000000000000004e+00 -5.6453365098317965e-01 +7.7337847568109170e+00 -5.5498012787128848e-01 -5.8255583219755486e+01 +7.7999959977183225e+03 +2.0485064537180864e+05 -4.5526286810307071e+07 
+5.0000000000000000e+00 -5.6453392217807519e-01 +7.7337409549661382e+00 -5.5704766124689564e-01 -5.7212679498020634e+01 +7.8367910981709610e+03 +1.9931662747311767e+05 -4.5797233000708707e+07 
+5.0999999999999996e+00 -5.6453418782095277e-01 +7.7336995841216734e+00 -5.5895436925514863e-01 -5.6175800417596896e+01 +7.8681825262890043e+03 +1.9368024387814302e+05 -4.6037656777838349e+07 
+5.2000000000000002e+00 -5.6453444832935418e-01 +7.7336608900887684e+00 -5.6063902124667031e-01 -5.5152624014577697e+01 +7.8930090649830645e+03 +1.8798525012784271e+05 -4.6241352692482419e+07 
+5.2999999999999998e+00 -5.6453470412089013e-01 +7.7336251186792806e+00 -5.6204037566644083e-01 -5.4150828369118841e+01 +7.9101093089320357e+03 +1.8227540170960766e+05 -4.6402114462012134e+07 
+5.4000000000000004e+00 -5.6453495561321188e-01 +7.7335925157084686e+00 -5.6309718693134025e-01 -5.3178091669625779e+01 +7.9183217892506818e+03 +1.7659445435307434e+05 -4.6513735545359187e+07 
+5.5000000000000000e+00 -5.6453520322398276e-01 +7.7335633269881088e+00 -5.6374820568239770e-01 -5.2242092027583020e+01 +7.9164849820736144e+03 +1.7098616298308686e+05 -4.6570009196305096e+07 
+5.5999999999999996e+00 -5.6453544737102435e-01 +7.7335377983348890e+00 -5.6393217066312484e-01 -5.1350507711745976e+01 +7.9034371524405660e+03 +1.6549428303883070e+05 -4.6564727717356212e+07 
+5.7000000000000002e+00 -5.6453568847210378e-01 +7.7335161755646480e+00 -5.6358782175036171e-01 -5.0511016998814746e+01 +7.8780166035904294e+03 +1.6016256963851623e+05 -4.6491683648712210e+07 
+5.7999999999999998e+00 -5.6453592694514754e-01 +7.7334987044895414e+00 -5.6265388696707286e-01 -4.9731298077225851e+01 +7.8390614320345676e+03 +1.5503477695733120e+05 -4.6344668612285815e+07 
+5.9000000000000004e+00 -5.6453616320810696e-01 +7.7334856309296018e+00 -5.6106908852910098e-01 -4.9019029396221022e+01 +7.7854096373603788e+03 +1.5015466028457510e+05 -4.6117473818950549e+07 
+5.9999999999999902e+00 -5.6453639767900432e-01 +7.7334772007019943e+00 -5.5877214148023702e-01 -4.8381889347142327e+01 +7.7158991051340308e+03 +1.4556597405705499e+05 -4.5803890018670827e+07 
+6.0999999999999899e+00 -5.6453663074055838e-01 +7.7334735565130801e+00 -5.5573171852457293e-01 -4.7825563776356837e+01 +7.6299118920091250e+03 +1.4130334279430285e+05 -4.5400362163740017e+07 
+6.1999999999999904e+00 -5.6453686262367297e-01 +7.7334744555146537e+00 -5.5203377345763982e-01 -4.7348284797457893e+01 +7.5289587842125520e+03 +1.3736856600345051e+05 -4.4913750307365291e+07 
+6.2999999999999901e+00 -5.6453709351861014e-01 +7.7334795650502306e+00 -5.4779299872877152e-01 -4.6946549101249246e+01 +7.4150718281390155e+03 +1.3375616559757025e+05 -4.4353476041827358e+07 
+6.3999999999999897e+00 -5.6453732361569642e-01 +7.7334885524841370e+00 -5.4312408458417483e-01 -4.6616853994295496e+01 +7.2902830001598877e+03 +1.3046066723381238e+05 -4.3728960591564253e+07 
+6.4999999999999902e+00 -5.6453755310510123e-01 +7.7335010851924864e+00 -5.3814171951039735e-01 -4.6355697119703507e+01 +7.1566242197396768e+03 +1.2747659855043498e+05 -4.3049624880348846e+07 
+6.5999999999999899e+00 -5.6453778217709016e-01 +7.7335168305703759e+00 -5.3296059365284065e-01 -4.6159576679740375e+01 +7.0161274137780756e+03 +1.2479849050944766e+05 -4.2324889837394543e+07 
+6.6999999999999904e+00 -5.6453801102187762e-01 +7.7335354560319436e+00 -5.2769539558605283e-01 -4.6024991419919743e+01 +6.8708244518650517e+03 +1.2242087725924149e+05 -4.1564176080747716e+07 
+6.7999999999999901e+00 -5.6453823982953732e-01 +7.7335566290118285e+00 -5.2246081255401744e-01 -4.5948440689890774e+01 +6.7227471485219485e+03 +1.2033829654757293e+05 -4.0776903924900047e+07 
+6.8999999999999897e+00 -5.6453846879025404e-01 +7.7335800169619100e+00 -5.1737153122414148e-01 -4.5926424335828379e+01 +6.5739272812276413e+03 +1.1854528906580695e+05 -3.9972493476382554e+07 
+6.9999999999999902e+00 -5.6453869809413448e-01 +7.7336052873559744e+00 -5.1254223904808738e-01 -4.5955442846271247e+01 +6.4263966069850539e+03 +1.1703639933351160e+05 -3.9160364689135179e+07 
+7.0999999999999899e+00 -5.6453892793116378e-01 +7.7336321076868337e+00 -5.0808762361852822e-01 -4.6031997263421054e+01 +6.2821868591588245e+03 +1.1580617517123610e+05 -3.8349937375830516e+07 
+7.1999999999999904e+00 -5.6453915849139025e-01 +7.7336601454711111e+00 -5.0412236583092196e-01 -4.6152589315370015e+01 +6.1433296071529494e+03 +1.1484916846065508e+05 -3.7550630513828583e+07 
+7.2999999999999901e+00 -5.6453938996477271e-01 +7.7336890682475792e+00 -5.0076115611106287e-01 -4.6313721390670509e+01 +6.0118565683184261e+03 +1.1415993506385204e+05 -3.6771863738643430e+07 
+7.3999999999999897e+00 -5.6453962254128243e-01 +7.7337185435756473e+00 -4.9811867396589626e-01 -4.6511896468878000e+01 +5.8897992176074313e+03 +1.1373303435939417e+05 -3.6023055485644564e+07 
+7.4999999999999902e+00 -5.6453985641075866e-01 +7.7337482390343180e+00 -4.9630960583977718e-01 -4.6743618109307157e+01 +5.7791891233133638e+03 +1.1356302923341517e+05 -3.5313624578358956e+07 
+7.5999999999999899e+00 -5.6454009176308739e-01 +7.7337778222373945e+00 -4.9544863376991477e-01 -4.7005390878672962e+01 +5.6820577344669755e+03 +1.1364448852304609e+05 -3.4652989224509016e+07 
+7.6999999999999904e+00 -5.6454032878801896e-01 +7.7338069608141184e+00 -4.9565044296996702e-01 -4.7293719797283458e+01 +5.6004365191212928e+03 +1.1397198384856943e+05 -3.4050567662414379e+07 
+7.7999999999999901e+00 -5.6454056767538896e-01 +7.7338353224223955e+00 -4.9702971251852790e-01 -4.7605110732926612e+01 +5.5363567909255571e+03 +1.1454009192137669e+05 -3.3515777345629528e+07 
+7.8999999999999897e+00 -5.6454080861482436e-01 +7.7338625747440553e+00 -4.9970112639336123e-01 -4.7936070239598870e+01 +5.4918499125646713e+03 +1.1534339354716572e+05 -3.3058035895647839e+07 
+7.9999999999999902e+00 -5.6454105179597658e-01 +7.7338883854883065e+00 -5.0377936621393693e-01 -4.8283105616091220e+01 +5.4689471685980943e+03 +1.1637647402600702e+05 -3.2686760518136758e+07 
+8.0999999999999908e+00 -5.6454129752477300e-01 +7.7339124715486491e+00 -5.0934200252606820e-01 -4.8642335553196091e+01 +5.4691640573877112e+03 +1.1762781731620498e+05 -3.2409393422920194e+07 
+8.1999999999999904e+00 -5.6454154655062794e-01 +7.7339347241780265e+00 -5.1632375720170987e-01 -4.9008571231191581e+01 +5.4919959951474921e+03 +1.1906353423435081e+05 -3.2225468487795617e+07 
+8.2999999999999901e+00 -5.6454179972889729e-01 +7.7339550725442665e+00 -5.2462489688834602e-01 -4.9376340564241708e+01 +5.5364434602338151e+03 +1.2064450503713857e+05 -3.2132539345885795e+07 
+8.3999999999999897e+00 -5.6454205791487755e-01 +7.7339734457775258e+00 -5.3414569392538613e-01 -4.9740170653126441e+01 +5.6015070426528227e+03 +1.2233160630160148e+05 -3.2128160114078090e+07 
+8.4999999999999893e+00 -5.6454232196386112e-01 +7.7339897729707632e+00 -5.4478643063599264e-01 -5.0094587786224864e+01 +5.6861875251678875e+03 +1.2408571108415950e+05 -3.2209885787659653e+07 
+8.5999999999999908e+00 -5.6454259273102725e-01 +7.7340039831802390e+00 -5.5644739820729028e-01 -5.0434117480759589e+01 +5.7894858616126967e+03 +1.2586768924933451e+05 -3.2375272138159439e+07 
+8.6999999999999904e+00 -5.6454287107159729e-01 +7.7340160054176978e+00 -5.6902889251558308e-01 -5.0753284253906600e+01 +5.9104031003952541e+03 +1.2763840613830034e+05 -3.2621875351498663e+07 
+8.7999999999999794e+00 -5.6454315784067799e-01 +7.7340257686564238e+00 -5.8243122222432009e-01 -5.1046611815464367e+01 +6.0479405366088395e+03 +1.2935872375995261e+05 -3.2947252749083240e+07 
+8.8999999999999808e+00 -5.6454345389331895e-01 +7.7340332018229025e+00 -5.9655470249610310e-01 -5.1308622821304148e+01 +6.2010995932633259e+03 +1.3098949935492710e+05 -3.3348962219908450e+07 
+8.9999999999999805e+00 -5.6454376008455509e-01 +7.7340382338050748e+00 -6.1129965962069477e-01 -5.1533839131102411e+01 +6.3688819080479871e+03 +1.3249158696142529e+05 -3.3824562630028531e+07 
+9.0999999999999801e+00 -5.6454407726935174e-01 +7.7340407934393642e+00 -6.2656642803960305e-01 -5.1716781435298309e+01 +6.5502892809562827e+03 +1.3382583527084455e+05 -3.4371613583342619e+07 
+9.1999999999999797e+00 -5.6454440630258063e-01 +7.7340408095172046e+00 -6.4225535294457603e-01 -5.1851969458879978e+01 +6.7443237184671807e+03 +1.3495308886248461e+05 -3.4987675614813708e+07 
+9.2999999999999794e+00 -5.6454474803913324e-01 +7.7340382107848669e+00 -6.5826678719996801e-01 -5.1933921954916137e+01 +6.9499873809654009e+03 +1.3583418817965014e+05 -3.5670309955451526e+07 
+9.3999999999999808e+00 -5.6454510333378527e-01 +7.7340329259343834e+00 -6.7450109745785181e-01 -5.1957156458196721e+01 +7.1662826947037438e+03 +1.3642996816156543e+05 -3.6417079052459411e+07 
+9.4999999999999805e+00 -5.6454547304127756e-01 +7.7340248836110259e+00 -6.9085865788319456e-01 -5.1916189508824615e+01 +7.3922122359495397e+03 +1.3670125957074051e+05 -3.7225546023759089e+07 
+9.5999999999999801e+00 -5.6454585801622392e-01 +7.7340140124060142e+00 -7.0723985488821972e-01 -5.1805536438194416e+01 +7.6267788201218291e+03 +1.3660888776076885e+05 -3.8093275079361938e+07 
+9.6999999999999797e+00 -5.6454625911331202e-01 +7.7340002408549537e+00 -7.2354508575624754e-01 -5.1619711345823752e+01 +7.8689854731178966e+03 +1.3611367261463468e+05 -3.9017831378348351e+07 
+9.7999999999999794e+00 -5.6454667718704021e-01 +7.7339834974421819e+00 -7.3967475811821082e-01 -5.1353227233956375e+01 +8.1178354275467918e+03 +1.3517642937118435e+05 -3.9996781021078587e+07 
+9.8999999999999808e+00 -5.6454711309190964e-01 +7.7339637105957095e+00 -7.5552929265216251e-01 -5.1000595854041109e+01 +8.3723321684144739e+03 +1.3375796771932664e+05 -4.1027691254543550e+07 
+9.9999999999999805e+00 -5.6454756768233427e-01 +7.7339408086872750e+00 -7.7100912046616843e-01 -5.0556327833602253e+01 +8.6314793684500946e+03 +1.3181909265861561e+05 -4.2108130130258724e+07 
+1.0100000000000000e+01 -5.6454804156276572e-01 +7.7339148281288193e+00 -7.8601808391107886e-01 -5.0018579100084857e+01 +8.8940638149463703e+03 +1.2934204133069901e+05 -4.3234010602418326e+07 
