# multipoles
# s[mm] polynom_b[n=0][T/m^n] polynom_b[n=1][T/m^n] polynom_b[n=2][T/m^n] polynom_b[n=3][T/m^n] polynom_b[n=4][T/m^n] polynom_b[n=5][T/m^n] polynom_b[n=6][T/m^n] 
-0.0000000000000000e+00 -5.3637535785035018e-01 +7.3488060601425724e+00 -2.3395795463755495e-01 -3.1525615721026867e+01 -4.2411382861021566e+03 +4.8113443133002278e+04 +1.3867390169063056e+07 
-1.0000000000000001e-01 -5.3637554228991202e-01 +7.3488002721639143e+00 -2.3297263078708064e-01 -3.1633118210713143e+01 -4.2110378052793822e+03 +4.9312118385505302e+04 +1.3650791999747140e+07 
-2.0000000000000001e-01 -5.3637574089128393e-01 +7.3487939704459873e+00 -2.3144834852711524e-01 -3.1715933983430350e+01 -4.1866318787761893e+03 +5.0401502502715055e+04 +1.3448262539331127e+07 
-2.9999999999999999e-01 -5.3637595282519712e-01 +7.3487871419660546e+00 -2.2942744034431412e-01 -3.1773769520202123e+01 -4.1676071937751758e+03 +5.1373915418879456e+04 +1.3259552794474592e+07 
-4.0000000000000002e-01 -5.3637617726236242e-01 +7.3487797737030940e+00 -2.2695224357134669e-01 -3.1806331365865923e+01 -4.1536503429462655e+03 +5.2221677530762827e+04 +1.3084413313864458e+07 
-5.0000000000000000e-01 -5.3637641337342468e-01 +7.3487718526293371e+00 -2.2406509383946405e-01 -3.1813325884523813e+01 -4.1444479536723966e+03 +5.2937108271157274e+04 +1.2922594820411509e+07 
-5.9999999999999998e-01 -5.3637666032904896e-01 +7.3487633657146425e+00 -2.2080833074253925e-01 -3.1794459372258409e+01 -4.1396865809291685e+03 +5.3512526717235880e+04 +1.2773847702016322e+07 
-6.9999999999999996e-01 -5.3637691730002224e-01 +7.3487542999293876e+00 -2.1722428897626042e-01 -3.1749438140181947e+01 -4.1390528716160270e+03 +5.3940252053810204e+04 +1.2637922784190532e+07 
-8.0000000000000004e-01 -5.3637718345693819e-01 +7.3487446422466505e+00 -2.1335530775174069e-01 -3.1677968570652890e+01 -4.1422333850310397e+03 +5.4212603874265311e+04 +1.2514570474447608e+07 
-9.0000000000000002e-01 -5.3637745797049030e-01 +7.3487343796301712e+00 -2.0924372675518910e-01 -3.1579756772484711e+01 -4.1489146747362256e+03 +5.4321900181698576e+04 +1.2403541166933289e+07 
-1.0000000000000000e+00 -5.3637774001138527e-01 +7.3487234990511583e+00 -2.0493188464304146e-01 -3.1454509040744366e+01 -4.1587833103310440e+03 +5.4260459962898232e+04 +1.2304585327940142e+07 
-1.1000000000000001e+00 -5.3637802875022833e-01 +7.3487119874815079e+00 -2.0046212271045688e-01 -3.1301931675135382e+01 -4.1715258115917359e+03 +5.4020602178234956e+04 +1.2217453194825195e+07 
-1.2000000000000000e+00 -5.3637832335773905e-01 +7.3486998318878465e+00 -1.9587678136756068e-01 -3.1121730790641333e+01 -4.1868287143573898e+03 +5.3594644594934332e+04 +1.2141895085420894e+07 
-1.3000000000000000e+00 -5.3637862300451333e-01 +7.3486870192474774e+00 -1.9121820350861204e-01 -3.0913612781026600e+01 -4.2043785034074444e+03 +5.2974906471983682e+04 +1.2077661073338620e+07 
-1.3999999999999999e+00 -5.3637892686121458e-01 +7.3486735365343208e+00 -1.8652873374977644e-01 -3.0677283899634070e+01 -4.2238616294229532e+03 +5.2153706090583888e+04 +1.2024501074640531e+07 
-1.5000000000000000e+00 -5.3637923409851929e-01 +7.3486593707273382e+00 -1.8185071525332616e-01 -3.0412450502321899e+01 -4.2449645682805512e+03 +5.1123362145956817e+04 +1.1982165128870761e+07 
-1.6000000000000001e+00 -5.3637954388703413e-01 +7.3486445088089649e+00 -1.7722649343491942e-01 -3.0118818991683014e+01 -4.2673737493991030e+03 +4.9876193382315825e+04 +1.1950403055203391e+07 
-1.7000000000000000e+00 -5.3637985539735689e-01 +7.3486289377678204e+00 -1.7269841495320415e-01 -2.9796095889163905e+01 -4.2907755769863288e+03 +4.8404518985018221e+04 +1.1928964560379893e+07 
-1.8000000000000000e+00 -5.3638016780016728e-01 +7.3486126445963462e+00 -1.6830882658846269e-01 -2.9443987774142592e+01 -4.3148564478116950e+03 +4.6700658236240539e+04 +1.1917599314303808e+07 
-1.8999999999999999e+00 -5.3638048026601837e-01 +7.3485956162885389e+00 -1.6410007801660412e-01 -2.9062201195156270e+01 -4.3393026974080813e+03 +4.4756929934353473e+04 +1.1916056691593546e+07 
-2.0000000000000000e+00 -5.3638079196556920e-01 +7.3485778398504591e+00 -1.6011451881607927e-01 -2.8650442980863918e+01 -4.3638006624498012e+03 +4.2565654220310513e+04 +1.1924086087126344e+07 
-2.1000000000000001e+00 -5.3638110214873969e-01 +7.3485593126049906e+00 -1.5638810941804379e-01 -2.8208651717321036e+01 -4.3880771501183108e+03 +4.0122716236899389e+04 +1.1941408265388023e+07 
-2.2000000000000002e+00 -5.3638141037147735e-01 +7.3485400723241519e+00 -1.5293208914463294e-01 -2.7737738717388751e+01 -4.4120201829647176e+03 +3.7438217505444394e+04 +1.1967637383090848e+07 
-2.2999999999999998e+00 -5.3638171626337128e-01 +7.3485201666946658e+00 -1.4975173217344565e-01 -2.7238868739407017e+01 -4.4355575688558547e+03 +3.4525801508242970e+04 +1.2002361309704358e+07 
-2.3999999999999999e+00 -5.3638201945413244e-01 +7.3484996434043088e+00 -1.4685230781942624e-01 -2.6713206521437378e+01 -4.4586172080445722e+03 +3.1399111448789696e+04 +1.2045168354841469e+07 
-2.5000000000000000e+00 -5.3638231957335836e-01 +7.3484785501457255e+00 -1.4423908930184837e-01 -2.6161916897461051e+01 -4.4811269322349981e+03 +2.8071790955419765e+04 +1.2095646516279330e+07 
-2.6000000000000001e+00 -5.3638261625070527e-01 +7.3484569346143935e+00 -1.4191734602264966e-01 -2.5586164742821474e+01 -4.5030146486695276e+03 +2.4557483776142311e+04 +1.2153384157691646e+07 
-2.7000000000000002e+00 -5.3638290911581221e-01 +7.3484348445070191e+00 -1.3989234941332834e-01 -2.4987114916279509e+01 -4.5242082311789509e+03 +2.0869833412128879e+04 +1.2217969496136740e+07 
-2.7999999999999998e+00 -5.3638319779834809e-01 +7.3484123275242883e+00 -1.3816936740466673e-01 -2.4365932349195397e+01 -4.5446356231795326e+03 +1.7022483670102374e+04 +1.2288991083735403e+07 
-2.8999999999999999e+00 -5.3638348192794727e-01 +7.3483894313688651e+00 -1.3675367200345900e-01 -2.3723781979803590e+01 -4.5642246984752883e+03 +1.3029078257080049e+04 +1.2366037159405909e+07 
-3.0000000000000000e+00 -5.3638376113428055e-01 +7.3483662037496638e+00 -1.3565053079143444e-01 -2.3061828877981064e+01 -4.5829034192041117e+03 +8.9032615185516916e+03 +1.2448696388813080e+07 
-3.1000000000000001e+00 -5.3638403504701926e-01 +7.3483426923724711e+00 -1.3486521120453460e-01 -2.2381237975439557e+01 -4.6005997574769690e+03 +4.6586768740522011e+03 +1.2536557498520700e+07 
-3.2000000000000002e+00 -5.3638430329584530e-01 +7.3483189449528066e+00 -1.3440297922061345e-01 -2.1683174442398101e+01 -4.6172417203024852e+03 +3.0896901905223217e+02 +1.2629209393721668e+07 
-3.2999999999999998e+00 -5.3638456551043512e-01 +7.3482950092053665e+00 -1.3426910160126468e-01 -2.0968803362844088e+01 -4.6327573061891117e+03 -4.1322180014623564e+03 +1.2726240949320914e+07 
-3.3999999999999999e+00 -5.3638482132046772e-01 +7.3482709328471358e+00 -1.3446884462265157e-01 -2.0239289852360805e+01 -4.6470745317670107e+03 -8.6512400413197684e+03 +1.2827241141756359e+07 
-3.5000000000000000e+00 -5.3638507035567362e-01 +7.3482467636007476e+00 -1.3500746788374721e-01 -1.9495799125484847e+01 -4.6601215497561479e+03 -1.3234452528045866e+04 +1.2931799610905768e+07 
-3.6000000000000001e+00 -5.3638531224577990e-01 +7.3482225491916813e+00 -1.3589023482445878e-01 -1.8739496431344236e+01 -4.6718264479084255e+03 -1.7868210796814135e+04 +1.3039505698479468e+07 
-3.7000000000000002e+00 -5.3638554662046523e-01 +7.3481983373458473e+00 -1.3712240489722952e-01 -1.7971546987137287e+01 -4.6821173982572273e+03 -2.2538870458688569e+04 +1.3149949159536071e+07 
-3.7999999999999998e+00 -5.3638577310946789e-01 +7.3481741757938943e+00 -1.3870923993449749e-01 -1.7193116089311410e+01 -4.6909225386991866e+03 -2.7232786789946538e+04 +1.3262719604968207e+07 
-3.8999999999999999e+00 -5.3638599134258957e-01 +7.3481501122710728e+00 -1.4065599332514533e-01 -1.6405369111924163e+01 -4.6981701797301785e+03 -3.1936314730902410e+04 +1.3377407486367596e+07 
-4.0000000000000000e+00 -5.3638620094952616e-01 +7.3481261945130711e+00 -1.4296792273254358e-01 -1.5609471399881242e+01 -4.7037885579515232e+03 -3.6635809650402145e+04 +1.3493602897139857e+07 
-4.0999999999999996e+00 -5.3638640176138597e-01 +7.3481024822770822e+00 -1.4564455320658573e-01 -1.4807209376300635e+01 -4.7077264108879535e+03 -4.1316004090603739e+04 +1.3610826395646738e+07 
-4.2000000000000002e+00 -5.3638659433756042e-01 +7.3480790844706956e+00 -1.4866534688989985e-01 -1.4002797266541476e+01 -4.7099818384019209e+03 -4.5954835091863642e+04 +1.3728256923112830e+07 
-4.2999999999999998e+00 -5.3638677940226476e-01 +7.3480561224501715e+00 -1.5200538894885246e-01 -1.3201040896908395e+01 -4.7105582478458837e+03 -5.0528495298082758e+04 +1.3844974668617507e+07 
-4.4000000000000004e+00 -5.3638695767968247e-01 +7.3480337175622346e+00 -1.5563975520858725e-01 -1.2406745905168055e+01 -4.7094592142357569e+03 -5.5013178112887603e+04 +1.3960060581811884e+07 
-4.5000000000000000e+00 -5.3638712989408333e-01 +7.3480119911508650e+00 -1.5954352404998592e-01 -1.1624717927776269e+01 -4.7066882568785149e+03 -5.9385076619453343e+04 +1.4072595320444901e+07 
-4.5999999999999996e+00 -5.3638729676964836e-01 +7.3479910645575481e+00 -1.6369177134543911e-01 -1.0859762619717189e+01 -4.7022489303366010e+03 -6.3620383444734398e+04 +1.4181659662285158e+07 
-4.7000000000000002e+00 -5.3638745903070739e-01 +7.3479710591164755e+00 -1.6805956784396273e-01 -1.0116685532406624e+01 -4.6961448777798678e+03 -6.7695291395088730e+04 +1.4286334775060255e+07 
-4.7999999999999998e+00 -5.3638761740151220e-01 +7.3479520961559199e+00 -1.7262198031179896e-01 -9.4002921434216056e+00 -4.6883798059795863e+03 -7.1585993320336260e+04 +1.4385702081839088e+07 
-4.9000000000000004e+00 -5.3638777260640780e-01 +7.3479342969977521e+00 -1.7735407737287506e-01 -8.7153878608936743e+00 -4.6789573742935745e+03 -7.5268682024591719e+04 +1.4478842737362958e+07 
-5.0000000000000000e+00 -5.3638792536967705e-01 +7.3479177829591187e+00 -1.8223092185694792e-01 -8.0667780762441925e+00 -4.6678813388735871e+03 -7.8719549948850516e+04 +1.4564838306859331e+07 
-5.0999999999999996e+00 -5.3638807641575381e-01 +7.3479026753486885e+00 -1.8722757102470158e-01 -7.4592680618759344e+00 -4.6551555484482487e+03 -8.1914789727299678e+04 +1.4642770747652566e+07 
-5.2000000000000002e+00 -5.3638822646896878e-01 +7.3478890954707152e+00 -1.9231908466953393e-01 -6.8976630955996523e+00 -4.6407837906992936e+03 -8.4830593462866658e+04 +1.4711721677917888e+07 
-5.2999999999999998e+00 -5.3638837625375391e-01 +7.3478771646175627e+00 -1.9748051354294505e-01 -6.3867682496588403e+00 -4.6247700076591045e+03 -8.7443153911802321e+04 +1.4770773389260529e+07 
-5.4000000000000004e+00 -5.3638852649454227e-01 +7.3478670040750114e+00 -2.0268690769521508e-01 -5.9313885588345627e+00 -4.6071181418257038e+03 -8.9728663468711442e+04 +1.4819008125734612e+07 
-5.5000000000000000e+00 -5.3638867791576916e-01 +7.3478587351235625e+00 -2.0791331379023120e-01 -5.5363290545742716e+00 -4.5878321813752709e+03 -9.1663313974248391e+04 +1.4855508283357462e+07 
-5.5999999999999996e+00 -5.3638883124199532e-01 +7.3478524790301192e+00 -2.1313477232727504e-01 -5.2063945365378439e+00 -4.5669162177689477e+03 -9.3223297998896553e+04 +1.4879356697256381e+07 
-5.7000000000000002e+00 -5.3638898719769346e-01 +7.3478483570585400e+00 -2.1832632483941672e-01 -4.9463898831774991e+00 -4.5443743021529954e+03 -9.4384807024199341e+04 +1.4889635937518785e+07 
-5.7999999999999998e+00 -5.3638914650745595e-01 +7.3478464904553364e+00 -2.2346300146157916e-01 -4.7611196526443580e+00 -4.5202106830914490e+03 -9.5124033704453206e+04 +1.4885429446950752e+07 
-5.9000000000000004e+00 -5.3638930989583078e-01 +7.3478470004642773e+00 -2.2851983674288648e-01 -4.6553884952134581e+00 -4.4944295117499541e+03 -9.5417169503444384e+04 +1.4865820149934143e+07 
-5.9999999999999902e+00 -5.3638947808746451e-01 +7.3478500083107319e+00 -2.3347185366266970e-01 -4.6340007749771441e+00 -4.4670351377775323e+03 -9.5240406464496555e+04 +1.4829891862937436e+07 
-6.0999999999999899e+00 -5.3638965169183495e-01 +7.3478555888569179e+00 -2.3830067161513646e-01 -4.7000431441362460e+00 -4.4380299511140765e+03 -9.4579383902288217e+04 +1.4777042817661572e+07 
-6.1999999999999904e+00 -5.3638983090949022e-01 +7.3478636490323144e+00 -2.4301050799197219e-01 -4.8502250910536944e+00 -4.4074436284539888e+03 -9.3455265580622858e+04 +1.4707966393037353e+07 
-6.2999999999999901e+00 -5.3639001585017443e-01 +7.3478740576864121e+00 -2.4761041541816012e-01 -5.0797761676887774e+00 -4.3753198042321355e+03 -9.1897547618073077e+04 +1.4623685694852754e+07 
-6.3999999999999897e+00 -5.3639020662362058e-01 +7.3478866836719892e+00 -2.5210944858266360e-01 -5.3839260088374878e+00 -4.3417020699591876e+03 -8.9935725958334238e+04 +1.4525223629180443e+07 
-6.4999999999999902e+00 -5.3639040333954102e-01 +7.3479013958481421e+00 -2.5651666555873598e-01 -5.7579044047800130e+00 -4.3066339498733532e+03 -8.7599295991813502e+04 +1.4413602790252754e+07 
-6.5999999999999899e+00 -5.3639060610760292e-01 +7.3479180630804164e+00 -2.6084113020323380e-01 -6.1969413154848647e+00 -4.2701588590788442e+03 -8.4917752470481195e+04 +1.4289845271931797e+07 
-6.6999999999999904e+00 -5.3639081503748320e-01 +7.3479365542391317e+00 -2.6509190594673715e-01 -6.6962668163596524e+00 -4.2323202180947228e+03 -8.1920589842418558e+04 +1.4154973204486057e+07 
-6.7999999999999901e+00 -5.3639103023882262e-01 +7.3479567382003133e+00 -2.6927806482782674e-01 -7.2511111175938305e+00 -4.1931612810564766e+03 -7.8637302170970768e+04 +1.4010007937252812e+07 
-6.8999999999999897e+00 -5.3639125182118141e-01 +7.3479784838458437e+00 -2.7340867927255252e-01 -7.8567045737171970e+00 -4.1527252949493832e+03 -7.5097383085738868e+04 +1.3855970804895071e+07 
-6.9999999999999902e+00 -5.3639147989415281e-01 +7.3480016600711799e+00 -2.7749282837060590e-01 -8.5082778990394328e+00 -4.1110553780106220e+03 -7.1330324567194300e+04 +1.3693882544532951e+07 
-7.0999999999999899e+00 -5.3639171456728407e-01 +7.3480261357662586e+00 -2.8153959446141574e-01 -9.2010616275038846e+00 -4.0681945850083030e+03 -6.7365620045384276e+04 +1.3524763608314358e+07 
-7.1999999999999904e+00 -5.3639195595009415e-01 +7.3480517798392126e+00 -2.8555806394433120e-01 -9.9302867616190742e+00 -4.0241858929103491e+03 -6.3232760770227840e+04 +1.3349634097279223e+07 
-7.2999999999999901e+00 -5.3639220415207223e-01 +7.3480784611986065e+00 -2.8955733101041681e-01 -1.0691184304449909e+01 -3.9790721293136735e+03 -5.8961238392949497e+04 +1.3169513421684304e+07 
-7.3999999999999897e+00 -5.3639245928261414e-01 +7.3481060487667520e+00 -2.9354649211970651e-01 -1.1478985604897627e+01 -3.9328960783146954e+03 -5.4580543103030301e+04 +1.2985420806838693e+07 
-7.4999999999999902e+00 -5.3639272145118366e-01 +7.3481344114701042e+00 -2.9753464977175020e-01 -1.2288922094150557e+01 -3.8857004064203752e+03 -5.0120165121810322e+04 +1.2798374935847320e+07 
-7.5999999999999899e+00 -5.3639299076708957e-01 +7.3481634182436384e+00 -3.0153091282515476e-01 -1.3116225409406399e+01 -3.8375276606618027e+03 -4.5609594002440092e+04 +1.2609393952400224e+07 
-7.6999999999999904e+00 -5.3639326733970094e-01 +7.3481929380287498e+00 -3.0554439366752328e-01 -1.3956127328512547e+01 -3.7884203186950840e+03 -4.1078319040864881e+04 +1.2419495689750182e+07 
-7.7999999999999901e+00 -5.3639355127828925e-01 +7.3482228397817364e+00 -3.0958421443671003e-01 -1.4803860009610982e+01 -3.7384206723386656e+03 -3.6555827911412700e+04 +1.2229697122751987e+07 
-7.8999999999999897e+00 -5.3639384269214896e-01 +7.3482529924657305e+00 -3.1365949822931588e-01 -1.5654655762571590e+01 -3.6875709959595783e+03 -3.2071607997870218e+04 +1.2041015172713228e+07 
-7.9999999999999902e+00 -5.3639414169044364e-01 +7.3482832650444836e+00 -3.1777937840826370e-01 -1.6503746757826580e+01 -3.6359133519648908e+03 -2.7655147966237015e+04 +1.1854465758060386e+07 
-8.0999999999999908e+00 -5.3639444837870842e-01 +7.3483135369029347e+00 -3.2195093264918567e-01 -1.7347027204348095e+01 -3.5834519210061244e+03 -2.3330567984132806e+04 +1.1670625524890115e+07 
-8.1999999999999904e+00 -5.3639476286673771e-01 +7.3483437269546013e+00 -3.2617264823275344e-01 -1.8182998224019304e+01 -3.5300797968831434e+03 -1.9101123032228872e+04 +1.1488588808455922e+07 
-8.2999999999999901e+00 -5.3639508526871338e-01 +7.3483737634231581e+00 -3.3044086017413099e-01 -1.9010793901339802e+01 -3.4756693206370815e+03 -1.4965043441315116e+04 +1.1307130843842506e+07 
-8.3999999999999897e+00 -5.3639541569871574e-01 +7.3484035745280485e+00 -3.3475190411798755e-01 -1.9829548278715048e+01 -3.4200928428919478e+03 -1.0920559410457643e+04 +1.1125026957482928e+07 
-8.4999999999999893e+00 -5.3639575427092356e-01 +7.3484330884819649e+00 -3.3910211500010995e-01 -2.0638395276865612e+01 -3.3632227480567844e+03 -6.9659014672766089e+03 +1.0941052679334981e+07 
-8.5999999999999908e+00 -5.3639610109941704e-01 +7.3484622334902339e+00 -3.4348782498871966e-01 -2.1436468694355252e+01 -3.3049314958884802e+03 -3.0993004305539425e+03 +1.0753983948494071e+07 
-8.6999999999999904e+00 -5.3639645629837229e-01 +7.3484909377496823e+00 -3.4790536610246348e-01 -2.2222902163322367e+01 -3.2450915667986442e+03 +6.8101232215005825e+02 +1.0562596835743228e+07 
-8.7999999999999794e+00 -5.3639681998187283e-01 +7.3485191294540044e+00 -3.5235106959212148e-01 -2.2996829310638020e+01 -3.1835754822876993e+03 +4.3768058039981825e+03 +1.0365667666391086e+07 
-8.8999999999999808e+00 -5.3639719226400362e-01 +7.3485467367860853e+00 -3.5682126493879235e-01 -2.3757383544971987e+01 -3.1202558190649634e+03 +7.9898482186977544e+03 +1.0161973074136451e+07 
-8.9999999999999805e+00 -5.3639757325892601e-01 +7.3485736879213288e+00 -3.6131227964259144e-01 -2.4503698145638882e+01 -3.0550052172213814e+03 +1.1521907466357452e+04 +9.9502900481105763e+06 
-9.0999999999999801e+00 -5.3639796308071686e-01 +7.3485999110306057e+00 -3.6582044049541235e-01 -2.5234906349865266e+01 -2.9876963504622995e+03 +1.4974751657770265e+04 +9.7293957783311605e+06 
-9.1999999999999797e+00 -5.3639836184343392e-01 +7.3486253342740069e+00 -3.7034207357417004e-01 -2.5950141183156848e+01 -2.9182019381289410e+03 +1.8350148164326874e+04 +9.4980677429905497e+06 
-9.2999999999999794e+00 -5.3639876966121391e-01 +7.3486498858006986e+00 -3.7487350380073847e-01 -2.6648535448486793e+01 -2.8463947412507459e+03 +2.1649863561401700e+04 +9.2550836570873354e+06 
-9.3999999999999808e+00 -5.3639918664812181e-01 +7.3486734937546938e+00 -3.7941105230121208e-01 -2.7329221900266319e+01 -2.7721476236889953e+03 +2.4875664643963602e+04 +8.9992217915129531e+06 
-9.4999999999999805e+00 -5.3639961291820137e-01 +7.3486960862727528e+00 -3.8395104085856430e-01 -2.7991333183886137e+01 -2.6953334625435182e+03 +2.8029318094069076e+04 +8.7292605339722037e+06 
-9.5999999999999801e+00 -5.3640004858557244e-01 +7.3487175914792182e+00 -3.8848978912243171e-01 -2.8634001679972059e+01 -2.6158252045693848e+03 +3.1112589566335904e+04 +8.4439786647639126e+06 
-9.6999999999999797e+00 -5.3640049376424914e-01 +7.3487379374923210e+00 -3.9302361459990126e-01 -2.9256359704695175e+01 -2.5334958647956946e+03 +3.4127244906319640e+04 +8.1421553471878218e+06 
-9.7999999999999794e+00 -5.3640094856833631e-01 +7.3487570524163761e+00 -3.9754883420785753e-01 -2.9857539275428373e+01 -2.4482184988715926e+03 +3.7075048773783165e+04 +7.8225699988864614e+06 
-9.8999999999999808e+00 -5.3640141311185663e-01 +7.3487748643514230e+00 -4.0206176243589514e-01 -3.0436672397904868e+01 -2.3598662407747584e+03 +3.9957766341033064e+04 +7.4840024799390240e+06 
-9.9999999999999805e+00 -5.3640188750885676e-01 +7.3487913014261403e+00 -4.0655870190754162e-01 -3.0992891742891395e+01 -2.2683125184201854e+03 +4.2777164107256387e+04 +7.1252339765190976e+06 
-1.0100000000000000e+01 -5.3640237183367012e-01 +7.3488063149465779e+00 -4.1102642331527667e-01 -3.1525560420370727e+01 -2.1736948996296983e+03 +4.5534307152702808e+04 +6.7463733387077590e+06 
