# multipoles
# s[mm] polynom_b[n=0][T/m^n] polynom_b[n=1][T/m^n] polynom_b[n=2][T/m^n] polynom_b[n=3][T/m^n] polynom_b[n=4][T/m^n] polynom_b[n=5][T/m^n] polynom_b[n=6][T/m^n] 
+0.0000000000000000e+00 -5.9271014165075286e-01 +8.1175017099700426e+00 -7.5591742971844966e-01 -5.5600680544762412e+01 +7.8126330329504171e+03 +1.6825411664725027e+04 -3.6621135836626910e+07 
+1.0000000000000001e-01 -5.9271002546316542e-01 +8.1175103711962020e+00 -7.4735439971381190e-01 -5.5919699773939215e+01 +7.7051727780428855e+03 +1.8672694879689592e+04 -3.6230541563762009e+07 
+2.0000000000000001e-01 -5.9270991376149751e-01 +8.1175173722419576e+00 -7.3885642959038766e-01 -5.6202766069923918e+01 +7.5960677347115679e+03 +2.0385353771679827e+04 -3.5829237956717432e+07 
+2.9999999999999999e-01 -5.9270980661388262e-01 +8.1175228774947108e+00 -7.3041931371792790e-01 -5.6453528820924824e+01 +7.4852354654419978e+03 +2.1978856388759996e+04 -3.5416832668119431e+07 
+4.0000000000000002e-01 -5.9270970408858059e-01 +8.1175270513418329e+00 -7.2203884407581376e-01 -5.6675637371160271e+01 +7.3725934866909165e+03 +2.3468670422491799e+04 -3.4992933130599923e+07 
+5.0000000000000000e-01 -5.9270960625370728e-01 +8.1175300581667269e+00 -7.1371081859838070e-01 -5.6872740929518116e+01 +7.2580594201980130e+03 +2.4870262733021464e+04 -3.4557147258723199e+07 
+5.9999999999999998e-01 -5.9270951317749643e-01 +8.1175320623566254e+00 -7.0543102869075214e-01 -5.7048488774695890e+01 +7.1415507670117859e+03 +2.6199100480768531e+04 -3.4109082401223391e+07 
+6.9999999999999996e-01 -5.9270942492808176e-01 +8.1175332283006583e+00 -6.9719526941664622e-01 -5.7206530198098172e+01 +7.0229850882119135e+03 +2.7470650795747362e+04 -3.3648346170162261e+07 
+8.0000000000000004e-01 -5.9270934157364630e-01 +8.1175337203854774e+00 -6.8899933454335582e-01 -5.7350514389548060e+01 +6.9022799256810677e+03 +2.8700380144839073e+04 -3.3174546099780131e+07 
+9.0000000000000002e-01 -5.9270926318235118e-01 +8.1175337030001735e+00 -6.8083901997006480e-01 -5.7484090585432057e+01 +6.7793528581941764e+03 +2.9903755212906184e+04 -3.2687289891931504e+07 
+1.0000000000000000e+00 -5.9270918982238663e-01 +8.1175333405313825e+00 -6.7271011782065226e-01 -5.7610907892321336e+01 +6.6541213918644416e+03 +3.1096241777752708e+04 -3.2186184901004847e+07 
+1.1000000000000001e+00 -5.9270912156199484e-01 +8.1175327973696625e+00 -6.6460842151877375e-01 -5.7734615522343226e+01 +6.5265030598957692e+03 +3.2293306223397096e+04 -3.1670838617113568e+07 
+1.2000000000000000e+00 -5.9270905846926480e-01 +8.1175322379035038e+00 -6.5652972502986195e-01 -5.7858862573325816e+01 +6.3964154056630359e+03 +3.3510414126796342e+04 -3.1140858579599638e+07 
+1.3000000000000000e+00 -5.9270900061242315e-01 +8.1175318265217857e+00 -6.4846982049894963e-01 -5.7987298126782541e+01 +6.2637759418777850e+03 +3.4763030906565087e+04 -3.0595852191526759e+07 
+1.3999999999999999e+00 -5.9270894805968777e-01 +8.1175317276180010e+00 -6.4042450081803048e-01 -5.8123571356302200e+01 +6.1285021969148756e+03 +3.6066622411959121e+04 -3.0035426937217869e+07 
+1.5000000000000000e+00 -5.9270890087923933e-01 +8.1175321055806826e+00 -6.3238955667070917e-01 -5.8271331269310188e+01 +5.9905116590350053e+03 +3.7436653479513625e+04 -2.9459190113482941e+07 
+1.6000000000000001e+00 -5.9270885913929694e-01 +8.1175331247989480e+00 -6.2436077810164514e-01 -5.8434226839268760e+01 +5.8497218117425937e+03 +3.8888588617275629e+04 -2.8866749016045861e+07 
+1.7000000000000000e+00 -5.9270882290805593e-01 +8.1175349496661209e+00 -6.1633395820623482e-01 -5.8615907132639343e+01 +5.7060501970745863e+03 +4.0437892803970186e+04 -2.8257711219665159e+07 
+1.8000000000000000e+00 -5.9270879225380468e-01 +8.1175377445727097e+00 -6.0830488260546345e-01 -5.8820021100118069e+01 +5.5594142229875697e+03 +4.2100030266985254e+04 -2.7631683684424683e+07 
+1.8999999999999999e+00 -5.9270876724473920e-01 +8.1175416739131023e+00 -6.0026934189648762e-01 -5.9050217769643581e+01 +5.4097313978379607e+03 +4.3890465591805834e+04 -2.6988273861986451e+07 
+2.0000000000000000e+00 -5.9270874794914263e-01 +8.1175469020754374e+00 -5.9222312330571736e-01 -5.9310145948887268e+01 +5.2569191721771658e+03 +4.5824661995284012e+04 -2.6327088946993012e+07 
+2.1000000000000001e+00 -5.9270873433950422e-01 +8.1175535472903810e+00 -5.8417154137169136e-01 -5.9602130295109944e+01 +5.1010896906011394e+03 +4.7911303532065729e+04 -2.5648585108244222e+07 
+2.2000000000000002e+00 -5.9270872600302527e-01 +8.1175615448590612e+00 -5.7615775682837378e-01 -5.9923253442969397e+01 +4.9431232506572815e+03 +5.0132063438719189e+04 -2.4956558386921376e+07 
+2.2999999999999998e+00 -5.9270872242981509e-01 +8.1175707847701233e+00 -5.6823432973206722e-01 -6.0269300870533861e+01 +4.7840896276303065e+03 +5.2461887606858596e+04 -2.4255626133558452e+07 
+2.3999999999999999e+00 -5.9270872311004408e-01 +8.1175811570151311e+00 -5.6045382019927636e-01 -6.0636058165063240e+01 +4.6250585957688354e+03 +5.4875722559025795e+04 -2.3550405679653954e+07 
+2.5000000000000000e+00 -5.9270872753383408e-01 +8.1175925515940186e+00 -5.5286878784909010e-01 -6.1019311172499847e+01 +4.4670999253252630e+03 +5.7348516276000766e+04 -2.2845514346700504e+07 
+2.6000000000000001e+00 -5.9270873519127121e-01 +8.1176048585092140e+00 -5.4553179663964968e-01 -6.1414845835210699e+01 +4.3112834648544867e+03 +5.9855217280881734e+04 -2.2145569809640121e+07 
+2.7000000000000002e+00 -5.9270874557258024e-01 +8.1176179677700642e+00 -5.3849540881969415e-01 -6.1818448330517583e+01 +4.1586790320477394e+03 +6.2370775447545224e+04 -2.1455189590981338e+07 
+2.7999999999999998e+00 -5.9270875816778013e-01 +8.1176317693917834e+00 -5.3181219059297324e-01 -6.2225905044102674e+01 +4.0103565198740798e+03 +6.4870141867312050e+04 -2.0778991563390784e+07 
+2.8999999999999999e+00 -5.9270877246703180e-01 +8.1176461534001785e+00 -5.2553470924962276e-01 -6.2633002712946620e+01 +3.8673858418350696e+03 +6.7328269664561129e+04 -2.0121593687221035e+07 
+3.0000000000000000e+00 -5.9270878796040227e-01 +8.1176610098235873e+00 -5.1971553365116596e-01 -6.3035528175510166e+01 +3.7308369418947618e+03 +6.9720112513895918e+04 -1.9487614058042906e+07 
+3.1000000000000001e+00 -5.9270880413797367e-01 +8.1176762286990307e+00 -5.1440723425647272e-01 -6.3429268601209891e+01 +3.6017797888439995e+03 +7.2020626093268991e+04 -1.8881670863302499e+07 
+3.2000000000000002e+00 -5.9270882048984097e-01 +8.1176917000756816e+00 -5.0966238497475258e-01 -6.3810011550369147e+01 +3.4812844230109272e+03 +7.4204768315415931e+04 -1.8308382635511462e+07 
+3.2999999999999998e+00 -5.9270883650599104e-01 +8.1177073140068412e+00 -5.0553356233821478e-01 -6.4173544766169314e+01 +3.3704209288209186e+03 +7.6247498176394613e+04 -1.7772368087220438e+07 
+3.3999999999999999e+00 -5.9270885167656895e-01 +8.1177229605551045e+00 -5.0207334250258995e-01 -6.4515656333261958e+01 +3.2702593869304724e+03 +7.8123776695991808e+04 -1.7278245910463162e+07 
+3.5000000000000000e+00 -5.9270886549150537e-01 +8.1177385297957017e+00 -4.9933430611724228e-01 -6.4832134776939270e+01 +3.1818699550606398e+03 +7.9808567487829452e+04 -1.6830635126434330e+07 
+3.6000000000000001e+00 -5.9270887744085277e-01 +8.1177539118127253e+00 -4.9736903856709319e-01 -6.5118768951196003e+01 +3.1063228863027193e+03 +8.1276836100645232e+04 -1.6434155209415860e+07 
+3.7000000000000002e+00 -5.9270888701456992e-01 +8.1177689966987483e+00 -4.9623012585691006e-01 -6.5371348037960800e+01 +3.0446884378204845e+03 +8.2503550019453745e+04 -1.6093425617134687e+07 
+3.7999999999999998e+00 -5.9270889370263069e-01 +8.1177836745609522e+00 -4.9597015684755003e-01 -6.5585661736618519e+01 +2.9980369241791977e+03 +8.3463679807855326e+04 -1.5813066073117808e+07 
+3.8999999999999999e+00 -5.9270889699498419e-01 +8.1177978355112064e+00 -4.9664172444001370e-01 -6.5757499966509172e+01 +2.9674387331253570e+03 +8.4132197332096941e+04 -1.5597696621199938e+07 
+4.0000000000000000e+00 -5.9270889638158475e-01 +8.1178113696778009e+00 -4.9829742461814652e-01 -6.5882653233573706e+01 +2.9539643063448939e+03 +8.4484077934949426e+04 -1.5451937534327049e+07 
+4.0999999999999996e+00 -5.9270889160851736e-01 +8.1178241938648501e+00 -5.0096293839619521e-01 -6.5958316848115729e+01 +2.9582239520764606e+03 +8.4502874300806303e+04 -1.5378570249364523e+07 
+4.2000000000000002e+00 -5.9270888345605233e-01 +8.1178363253824823e+00 -5.0455566112350503e-01 -6.5987238641717369e+01 +2.9789985338810379e+03 +8.4207038189498504e+04 -1.5373123333459131e+07 
+4.2999999999999998e+00 -5.9270887296539532e-01 +8.1178478051898537e+00 -5.0896572882939728e-01 -6.5973542170915380e+01 +3.0146137975020529e+03 +8.3623919552192572e+04 -1.5429336689840531e+07 
+4.4000000000000004e+00 -5.9270886117782751e-01 +8.1178586742238892e+00 -5.1408328212487708e-01 -6.5921350365094369e+01 +3.0633955741646241e+03 +8.2780864960125866e+04 -1.5540950634189984e+07 
+4.5000000000000000e+00 -5.9270884913458621e-01 +8.1178689734143710e+00 -5.1979845524733737e-01 -6.5834785953760758e+01 +3.1236695777628429e+03 +8.1705220070174153e+04 -1.5701704947185125e+07 
+4.5999999999999996e+00 -5.9270883787693196e-01 +8.1178787436682196e+00 -5.2600138176278399e-01 -6.5717971039418273e+01 +3.1937615046655133e+03 +8.0424327233288030e+04 -1.5905339325706767e+07 
+4.7000000000000002e+00 -5.9270882844616701e-01 +8.1178880258753434e+00 -5.3258219329992940e-01 -6.5575027217650586e+01 +3.2719970192462038e+03 +7.8965526074459194e+04 -1.6145593340775274e+07 
+4.7999999999999998e+00 -5.9270882188354301e-01 +8.1178968609083810e+00 -5.3943101822679274e-01 -6.5410075629059222e+01 +3.3567017173863496e+03 +7.7356153975325418e+04 -1.6416206235683892e+07 
+4.9000000000000004e+00 -5.9270881923036245e-01 +8.1179052896168731e+00 -5.4643798240701524e-01 -6.5227236736457741e+01 +3.4462011548404521e+03 +7.5623544647224655e+04 -1.6710917096093882e+07 
+5.0000000000000000e+00 -5.9270882152792814e-01 +8.1179133528293477e+00 -5.5349320919138312e-01 -6.5030630402773625e+01 +3.5388208342160597e+03 +7.3795028647964078e+04 -1.7023464760518998e+07 
+5.0999999999999996e+00 -5.9270882981760598e-01 +8.1179210913536615e+00 -5.6048681718600324e-01 -6.4824375927967964e+01 +3.6328861711742466e+03 +7.1897933691173632e+04 -1.7347587677695956e+07 
+5.2000000000000002e+00 -5.9270884514068589e-01 +8.1179285459725374e+00 -5.6730892504909436e-01 -6.4612591873306755e+01 +3.7267225787888779e+03 +6.9959583505612143e+04 -1.7677024293998785e+07 
+5.2999999999999998e+00 -5.9270886853851246e-01 +8.1179357574431350e+00 -5.7384964719100295e-01 -6.4399396076497951e+01 +3.8186553924178320e+03 +6.8007298022911462e+04 -1.8005512714513127e+07 
+5.4000000000000004e+00 -5.9270890105248109e-01 +8.1179427664934405e+00 -5.7999909356560952e-01 -6.4188905547102536e+01 +3.9070098600827969e+03 +6.6068392788885365e+04 -1.8326790641620461e+07 
+5.5000000000000000e+00 -5.9270894372391736e-01 +8.1179496138294276e+00 -5.8564737019976587e-01 -6.3985236655951034e+01 +3.9901111564468429e+03 +6.4170180025742433e+04 -1.8634595454831015e+07 
+5.5999999999999996e+00 -5.9270899759431195e-01 +8.1179563401278028e+00 -5.9068457928256868e-01 -6.3792504946852297e+01 +4.0662843828890909e+03 +6.2339967612192151e+04 -1.8922664206034504e+07 
+5.7000000000000002e+00 -5.9270906370498389e-01 +8.1179629860358951e+00 -5.9500082050035863e-01 -6.3614825108758282e+01 +4.1338545929833572e+03 +6.0605058876898562e+04 -1.9184733743409906e+07 
+5.7999999999999998e+00 -5.9270914309741707e-01 +8.1179695921650001e+00 -5.9848618916673335e-01 -6.3456310802750068e+01 +4.1911467559342045e+03 +5.8992751666009673e+04 -1.9414540536416613e+07 
+5.9000000000000004e+00 -5.9270923681302301e-01 +8.1179761991016210e+00 -6.0103077341738032e-01 -6.3321074978179709e+01 +4.2364857054148824e+03 +5.7530340159135325e+04 -1.9605820435998708e+07 
+5.9999999999999902e+00 -5.9270934589333657e-01 +8.1179828473971423e+00 -6.0252466240456293e-01 -6.3213229578741817e+01 +4.2681962952639815e+03 +5.6245113255458171e+04 -1.9752309414537545e+07 
+6.0999999999999899e+00 -5.9270947109159966e-01 +8.1179895915566664e+00 -6.0288836911558208e-01 -6.3136689404648322e+01 +4.2850384152726947e+03 +5.5162898125571257e+04 -1.9849289405344445e+07 
+6.1999999999999904e+00 -5.9270961200521977e-01 +8.1179965469225799e+00 -6.0216519877898877e-01 -6.3094350482601875e+01 +4.2875129714155501e+03 +5.4300997424795365e+04 -1.9898202377378225e+07 
+6.2999999999999901e+00 -5.9270976794148855e-01 +8.1180038452458660e+00 -6.0042947706678518e-01 -6.3088791597948926e+01 +4.2765564801500268e+03 +5.3673887878154725e+04 -1.9902021268119480e+07 
+6.3999999999999897e+00 -5.9270993820765683e-01 +8.1180116182939219e+00 -5.9775553160294748e-01 -6.3122591945511353e+01 +4.2531054981025454e+03 +5.3296048208558903e+04 -1.9863719224405747e+07 
+6.4999999999999902e+00 -5.9271012211098517e-01 +8.1180199978491583e+00 -5.9421768207320702e-01 -6.3198331104447092e+01 +4.2180964353182908e+03 +5.3181959013359381e+04 -1.9786268718906101e+07 
+6.5999999999999899e+00 -5.9271031895885751e-01 +8.1180291157112165e+00 -5.8989024786659727e-01 -6.3318589094466567e+01 +4.1724657000211546e+03 +5.3346103065283693e+04 -1.9672642238935225e+07 
+6.6999999999999904e+00 -5.9271052805861923e-01 +8.1180391037010331e+00 -5.8484754284632323e-01 -6.3485946503854677e+01 +4.1171496023961035e+03 +5.3802966067712245e+04 -1.9525811837106679e+07 
+6.7999999999999901e+00 -5.9271074871765583e-01 +8.1180500936529736e+00 -5.7916388011385644e-01 -6.3702984239497653e+01 +4.0530844396025163e+03 +5.4567035130648779e+04 -1.9348749519510459e+07 
+6.8999999999999897e+00 -5.9271098024341207e-01 +8.1180622174228372e+00 -5.7291356623129042e-01 -6.3972283771328371e+01 +3.9812063935761303e+03 +5.5652800212469156e+04 -1.9144426783200029e+07 
+6.9999999999999902e+00 -5.9271122194336978e-01 +8.1180756068871887e+00 -5.6617090728082664e-01 -6.4296427113859465e+01 +3.9024516398145010e+03 +5.7074754006252617e+04 -1.8915815114718828e+07 
+7.0999999999999899e+00 -5.9271147312500694e-01 +8.1180903939445983e+00 -5.5901020289910086e-01 -6.4677996835331996e+01 +3.8177562344538687e+03 +5.8847391905259596e+04 -1.8665885455167148e+07 
+7.1999999999999904e+00 -5.9271173309586289e-01 +8.1181067105172406e+00 -5.5150575035030924e-01 -6.5119576126850802e+01 +3.7280562003918403e+03 +6.0985212450074359e+04 -1.8397608632854238e+07 
+7.2999999999999901e+00 -5.9271200116354950e-01 +8.1181246885460077e+00 -5.4373184157486099e-01 -6.5623748655128026e+01 +3.6342874595967555e+03 +6.3502716460826021e+04 -1.8113955012196284e+07 
+7.3999999999999897e+00 -5.9271227663560477e-01 +8.1181444599994403e+00 -5.3576276767547026e-01 -6.6193098796119145e+01 +3.5373859254915592e+03 +6.6414408294153676e+04 -1.7817894950861230e+07 
+7.4999999999999902e+00 -5.9271255881978901e-01 +8.1181661568687424e+00 -5.2767281146414158e-01 -6.6830211523067362e+01 +3.4382873604087004e+03 +6.9734795282902734e+04 -1.7512398119696904e+07 
+7.5999999999999899e+00 -5.9271284702370575e-01 +8.1181899111744222e+00 -5.1953625393611502e-01 -6.7537672559845163e+01 +3.3379274975292492e+03 +7.3478388508411736e+04 -1.7200434081413567e+07 
+7.6999999999999904e+00 -5.9271314055511826e-01 +8.1182158549602690e+00 -5.1142737203618061e-01 -6.8318068238130635e+01 +3.2372420011712625e+03 +7.7659702032206129e+04 -1.6884972107936326e+07 
+7.7999999999999901e+00 -5.9271343872182525e-01 +8.1182441202979714e+00 -5.0342043879163800e-01 -6.9173985590330517e+01 +3.1371664636988094e+03 +8.2293253329664949e+04 -1.6568981151600966e+07 
+7.8999999999999897e+00 -5.9271374083164552e-01 +8.1182748392912440e+00 -4.9558971922455097e-01 -7.0108012508383425e+01 +3.0386363382489853e+03 +8.7393564298328463e+04 -1.6255429552596672e+07 
+7.9999999999999902e+00 -5.9271404619245149e-01 +8.1183081440659741e+00 -4.8800947919270338e-01 -7.1122737404046205e+01 +2.9425870984426542e+03 +9.2975159135713577e+04 -1.5947285780779801e+07 
+8.0999999999999908e+00 -5.9271435422610064e-01 +8.1183440888543696e+00 -4.8074238441725770e-01 -7.2218553264866728e+01 +2.8498323068987183e+03 +9.9040175741252577e+04 -1.5647227040217789e+07 
+8.1999999999999904e+00 -5.9271466478831214e-01 +8.1183824174244581e+00 -4.7380365559880611e-01 -7.3387413549314388e+01 +2.7606452868549895e+03 +1.0554383642954999e+05 -1.5356428782084806e+07 
+8.2999999999999901e+00 -5.9271497783779004e-01 +8.1184227958638822e+00 -4.6719635306922219e-01 -7.4619234074977939e+01 +2.6751513842127533e+03 +1.1243020693801022e+05 -1.5075610905753579e+07 
+8.3999999999999897e+00 -5.9271529333320438e-01 +8.1184648902687400e+00 -4.6092354502999389e-01 -7.5903930954831395e+01 +2.5934760740621577e+03 +1.1964335485135531e+05 -1.4805493837164912e+07 
+8.4999999999999893e+00 -5.9271561123320526e-01 +8.1185083667295572e+00 -4.5498830501222182e-01 -7.7231420155873721e+01 +2.5157449069326003e+03 +1.2712734695363205e+05 -1.4546798257299595e+07 
+8.5999999999999908e+00 -5.9271593149625534e-01 +8.1185528913469565e+00 -4.4939372192402777e-01 -7.8591617978720080e+01 +2.4420836987538805e+03 +1.3482625208863895e+05 -1.4300246000490006e+07 
+8.6999999999999904e+00 -5.9271625408077633e-01 +8.1185981302176842e+00 -4.4414289319769235e-01 -7.9974440644157539e+01 +2.3726184018492613e+03 +1.4268413872267678e+05 -1.4066559443420386e+07 
+8.7999999999999794e+00 -5.9271657894510577e-01 +8.1186437494431605e+00 -4.3923892627638850e-01 -8.1369804539451863e+01 +2.3074751327508893e+03 +1.5064507638435293e+05 -1.3846461635039672e+07 
+8.8999999999999808e+00 -5.9271690604751626e-01 +8.1186894151242583e+00 -4.3468493920671575e-01 -8.2767626072983902e+01 +2.2467801778018797e+03 +1.5865313483795390e+05 -1.3640676307550294e+07 
+8.9999999999999805e+00 -5.9271723534613430e-01 +8.1187347933676648e+00 -4.3048406087125246e-01 -8.4157821855377691e+01 +2.1906600041623683e+03 +1.6665238511760122e+05 -1.3449927943611424e+07 
+9.0999999999999801e+00 -5.9271756679897847e-01 +8.1187795502795694e+00 -4.2663943624375927e-01 -8.5530308527420331e+01 +2.1392413520305377e+03 +1.7458689856919704e+05 -1.3274942194945524e+07 
+9.1999999999999797e+00 -5.9271790036401872e-01 +8.1188233519657196e+00 -4.2315421607507830e-01 -8.6875002745845961e+01 +2.0926510436497756e+03 +1.8240074671912080e+05 -1.3116444985277720e+07 
+9.2999999999999794e+00 -5.9271823599912021e-01 +8.1188658645378524e+00 -4.2003156696246097e-01 -8.8181821391402764e+01 +2.0510161687399873e+03 +1.9003800255080682e+05 -1.2975163374399371e+07 
+9.3999999999999808e+00 -5.9271857366198577e-01 +8.1189067541089646e+00 -4.1727466758256265e-01 -8.9440681415622720e+01 +2.0144640145391229e+03 +1.9744273955621594e+05 -1.2851825230309511e+07 
+9.4999999999999805e+00 -5.9271891331022997e-01 +8.1189456867907150e+00 -4.1488671099556096e-01 -9.0641499782455710e+01 +1.9831221114598736e+03 +2.0455903146317179e+05 -1.2747159448868604e+07 
+9.5999999999999801e+00 -5.9271925490139843e-01 +8.1189823286986051e+00 -4.1287089809104982e-01 -9.1774193595497977e+01 +1.9571181042888566e+03 +2.1133095289948268e+05 -1.2661895329146707e+07 
+9.6999999999999797e+00 -5.9271959839289545e-01 +8.1190163459511897e+00 -4.1123045007350922e-01 -9.2828680106705335e+01 +1.9365799876712431e+03 +2.1770257953428224e+05 -1.2596763687099537e+07 
+9.7999999999999794e+00 -5.9271994374198511e-01 +8.1190474046669436e+00 -4.0996859757788134e-01 -9.3794876608016608e+01 +1.9216359007316705e+03 +2.2361798740702495e+05 -1.2552495881435864e+07 
+9.8999999999999808e+00 -5.9272029090582878e-01 +8.1190751709647344e+00 -4.0908858719355834e-01 -9.4662700445418338e+01 +1.9124142518066587e+03 +2.2902125300119503e+05 -1.2529824408464342e+07 
+9.9999999999999805e+00 -5.9272063984148982e-01 +8.1190993109729419e+00 -4.0859368037831767e-01 -9.5422069303151645e+01 +1.9090436898927799e+03 +2.3385645470543762e+05 -1.2529482763053590e+07 
+1.0100000000000000e+01 -5.9272099052914595e-01 +8.1191195784257051e+00 -4.0847863495453945e-01 -9.6065497061238304e+01 +1.9114769008728560e+03 +2.3808107868695096e+05 -1.2551423637984633e+07 
