# trajectory
# s[mm] rx[mm] ry[mm] rz[mm] px[rad] py[rad] pz[rad]
0.0000000000000000e+00 +7.9199999999999999e+00 +0.0000000000000000e+00 +0.0000000000000000e+00 +0.0000000000000000e+00 +0.0000000000000000e+00 +1.0000000000000000e+00
-1.0000000000000001e-01 +7.9199997168742433e+00 +0.0000000000000000e+00 -9.9999999999465614e-02 +5.6625152686342230e-06 +0.0000000000000000e+00 +9.9999999998396794e-01
-2.0000000000000001e-01 +7.9199988674969184e+00 +0.0000000000000000e+00 -1.9999999999572479e-01 +1.1325031366151840e-05 +0.0000000000000000e+00 +9.9999999993587185e-01
-3.0000000000000004e-01 +7.9199974518679408e+00 +0.0000000000000000e+00 -2.9999999998557114e-01 +1.6987548332085068e-05 +0.0000000000000000e+00 +9.9999999985571164e-01
-4.0000000000000002e-01 +7.9199954699872217e+00 +0.0000000000000000e+00 -3.9999999996579827e-01 +2.2650066206519560e-05 +0.0000000000000000e+00 +9.9999999974348730e-01
-5.0000000000000000e-01 +7.9199929218546679e+00 +0.0000000000000000e+00 -4.9999999993319977e-01 +2.8312585030094355e-05 +0.0000000000000000e+00 +9.9999999959919883e-01
-5.9999999999999998e-01 +7.9199898074701824e+00 +0.0000000000000000e+00 -5.9999999988456920e-01 +3.3975104844001840e-05 +0.0000000000000000e+00 +9.9999999942284623e-01
-6.9999999999999996e-01 +7.9199861268336642e+00 +0.0000000000000000e+00 -6.9999999981670014e-01 +3.9637625689987716e-05 +0.0000000000000000e+00 +9.9999999921442939e-01
-7.9999999999999993e-01 +7.9199818799450084e+00 +0.0000000000000000e+00 -7.9999999972638625e-01 +4.5300147610350954e-05 +0.0000000000000000e+00 +9.9999999897394842e-01
-8.9999999999999991e-01 +7.9199770668041047e+00 +0.0000000000000000e+00 -8.9999999961042099e-01 +5.0962670647943772e-05 +0.0000000000000000e+00 +9.9999999870140321e-01
-9.9999999999999989e-01 +7.9199716874108397e+00 +0.0000000000000000e+00 -9.9999999946559803e-01 +5.6625194846171608e-05 +0.0000000000000000e+00 +9.9999999839679377e-01
-1.0999999999999999e+00 +7.9199657417650950e+00 +0.0000000000000000e+00 -1.0999999992887108e+00 +6.2287720248993105e-05 +0.0000000000000000e+00 +9.9999999806012008e-01
-1.2000000000000000e+00 +7.9199592298667483e+00 +0.0000000000000000e+00 -1.1999999990765531e+00 +6.7950246900920077e-05 +0.0000000000000000e+00 +9.9999999769138215e-01
-1.3000000000000000e+00 +7.9199521517156715e+00 +0.0000000000000000e+00 -1.2999999988259183e+00 +7.3612774847017507e-05 +0.0000000000000000e+00 +9.9999999729057987e-01
-1.4000000000000001e+00 +7.9199445073117340e+00 +0.0000000000000000e+00 -1.3999999985336002e+00 +7.9275304132903543e-05 +0.0000000000000000e+00 +9.9999999685771324e-01
-1.5000000000000002e+00 +7.9199362966547993e+00 +0.0000000000000000e+00 -1.4999999981963923e+00 +8.4937834804749488e-05 +0.0000000000000000e+00 +9.9999999639278225e-01
-1.6000000000000003e+00 +7.9199275197447259e+00 +0.0000000000000000e+00 -1.5999999978110879e+00 +9.0600366909279767e-05 +0.0000000000000000e+00 +9.9999999589578692e-01
-1.7000000000000004e+00 +7.9199181765813682e+00 +0.0000000000000000e+00 -1.6999999973744808e+00 +9.6262900493771978e-05 +0.0000000000000000e+00 +9.9999999536672712e-01
-1.8000000000000005e+00 +7.9199082671645762e+00 +0.0000000000000000e+00 -1.7999999968833644e+00 +1.0192543560605688e-04 +0.0000000000000000e+00 +9.9999999480560287e-01
-1.9000000000000006e+00 +7.9198977914941944e+00 +0.0000000000000000e+00 -1.8999999963345324e+00 +1.0758797229451837e-04 +0.0000000000000000e+00 +9.9999999421241414e-01
-2.0000000000000004e+00 +7.9198867495700629e+00 +0.0000000000000000e+00 -1.9999999957247785e+00 +1.1325051060809358e-04 +0.0000000000000000e+00 +9.9999999358716096e-01
-2.1000000000000005e+00 +7.9198751413920165e+00 +0.0000000000000000e+00 -2.0999999950508959e+00 +1.1891305059647988e-04 +0.0000000000000000e+00 +9.9999999292984321e-01
-2.2000000000000006e+00 +7.9198629669598857e+00 +0.0000000000000000e+00 -2.1999999943096782e+00 +1.2457559231241291e-04 +0.0000000000000000e+00 +9.9999999224046088e-01
-2.3000000000000007e+00 +7.9198502262734944e+00 +0.0000000000000000e+00 -2.2999999934979192e+00 +1.3023813581394467e-04 +0.0000000000000000e+00 +9.9999999151901398e-01
-2.4000000000000008e+00 +7.9198369193326608e+00 +0.0000000000000000e+00 -2.3999999926124120e+00 +1.3590068116465064e-04 +0.0000000000000000e+00 +9.9999999076550239e-01
-2.5000000000000009e+00 +7.9198230461371972e+00 +0.0000000000000000e+00 -2.4999999916499505e+00 +1.4156322843362999e-04 +0.0000000000000000e+00 +9.9999998997992612e-01
-2.6000000000000010e+00 +7.9198086066869076e+00 +0.0000000000000000e+00 -2.5999999906073281e+00 +1.4722577769550569e-04 +0.0000000000000000e+00 +9.9999998916228516e-01
-2.7000000000000011e+00 +7.9197936009815892e+00 +0.0000000000000000e+00 -2.6999999894813387e+00 +1.5288832903042476e-04 +0.0000000000000000e+00 +9.9999998831257941e-01
-2.8000000000000012e+00 +7.9197780290210300e+00 +0.0000000000000000e+00 -2.7999999882687754e+00 +1.5855088252405834e-04 +0.0000000000000000e+00 +9.9999998743080876e-01
-2.9000000000000012e+00 +7.9197618908050096e+00 +0.0000000000000000e+00 -2.8999999869664319e+00 +1.6421343826760200e-04 +0.0000000000000000e+00 +9.9999998651697330e-01
-3.0000000000000013e+00 +7.9197451863332979e+00 +0.0000000000000000e+00 -2.9999999855711015e+00 +1.6987599635777585e-04 +0.0000000000000000e+00 +9.9999998557107284e-01
-3.1000000000000014e+00 +7.9197279156056561e+00 +0.0000000000000000e+00 -3.0999999840795778e+00 +1.7553855689682484e-04 +0.0000000000000000e+00 +9.9999998459310746e-01
-3.2000000000000015e+00 +7.9197100786218337e+00 +0.0000000000000000e+00 -3.1999999824886540e+00 +1.8120111999251902e-04 +0.0000000000000000e+00 +9.9999998358307696e-01
-3.3000000000000016e+00 +7.9196916753815687e+00 +0.0000000000000000e+00 -3.2999999807951244e+00 +1.8686368575815369e-04 +0.0000000000000000e+00 +9.9999998254098132e-01
-3.4000000000000017e+00 +7.9196727058845893e+00 +0.0000000000000000e+00 -3.3999999789957815e+00 +1.9252625431254977e-04 +0.0000000000000000e+00 +9.9999998146682056e-01
-3.5000000000000018e+00 +7.9196531701306094e+00 +0.0000000000000000e+00 -3.4999999770874197e+00 +1.9818882578005409e-04 +0.0000000000000000e+00 +9.9999998036059456e-01
-3.6000000000000019e+00 +7.9196330681193317e+00 +0.0000000000000000e+00 -3.5999999750668317e+00 +2.0385140029053958e-04 +0.0000000000000000e+00 +9.9999997922230321e-01
-3.7000000000000020e+00 +7.9196123998504451e+00 +0.0000000000000000e+00 -3.6999999729308115e+00 +2.0951397797940569e-04 +0.0000000000000000e+00 +9.9999997805194640e-01
-3.8000000000000020e+00 +7.9195911653236246e+00 +0.0000000000000000e+00 -3.7999999706761520e+00 +2.1517655898757869e-04 +0.0000000000000000e+00 +9.9999997684952413e-01
-3.9000000000000021e+00 +7.9195693645385319e+00 +0.0000000000000000e+00 -3.8999999682996473e+00 +2.2083914346151200e-04 +0.0000000000000000e+00 +9.9999997561503617e-01
-4.0000000000000018e+00 +7.9195469974948116e+00 +0.0000000000000000e+00 -3.9999999657980907e+00 +2.2650173155318654e-04 +0.0000000000000000e+00 +9.9999997434848253e-01
-4.1000000000000014e+00 +7.9195240641920952e+00 +0.0000000000000000e+00 -4.0999999631682753e+00 +2.3216432341979066e-04 +0.0000000000000000e+00 +9.9999997304986321e-01
-4.2000000000000011e+00 +7.9195005646299963e+00 +0.0000000000000000e+00 -4.1999999604069949e+00 +2.3782691922019590e-04 +0.0000000000000000e+00 +9.9999997171917798e-01
-4.3000000000000007e+00 +7.9194764988081143e+00 +0.0000000000000000e+00 -4.2999999575110426e+00 +2.4348951911143214e-04 +0.0000000000000000e+00 +9.9999997035642674e-01
-4.4000000000000004e+00 +7.9194518667260327e+00 +0.0000000000000000e+00 -4.3999999544772113e+00 +2.4915212324836696e-04 +0.0000000000000000e+00 +9.9999996896160936e-01
-4.5000000000000000e+00 +7.9194266683833181e+00 +0.0000000000000000e+00 -4.4999999513022955e+00 +2.5481473178370526e-04 +0.0000000000000000e+00 +9.9999996753472586e-01
-4.5999999999999996e+00 +7.9194009037795237e+00 +0.0000000000000000e+00 -4.5999999479830880e+00 +2.6047734486798888e-04 +0.0000000000000000e+00 +9.9999996607577601e-01
-4.6999999999999993e+00 +7.9193745729141876e+00 +0.0000000000000000e+00 -4.6999999445163816e+00 +2.6613996264959619e-04 +0.0000000000000000e+00 +9.9999996458475970e-01
-4.7999999999999989e+00 +7.9193476757868320e+00 +0.0000000000000000e+00 -4.7999999408989709e+00 +2.7180258527474167e-04 +0.0000000000000000e+00 +9.9999996306167682e-01
-4.8999999999999986e+00 +7.9193202123969657e+00 +0.0000000000000000e+00 -4.8999999371276486e+00 +2.7746521288747546e-04 +0.0000000000000000e+00 +9.9999996150652726e-01
-4.9999999999999982e+00 +7.9192921827440834e+00 +0.0000000000000000e+00 -4.9999999331992075e+00 +2.8312784562968286e-04 +0.0000000000000000e+00 +9.9999995991931090e-01
-5.0999999999999979e+00 +7.9192635868276646e+00 +0.0000000000000000e+00 -5.0999999291104414e+00 +2.8879048364108376e-04 +0.0000000000000000e+00 +9.9999995830002764e-01
-5.1999999999999975e+00 +7.9192344246471755e+00 +0.0000000000000000e+00 -5.1999999248581439e+00 +2.9445312705923219e-04 +0.0000000000000000e+00 +9.9999995664867725e-01
-5.2999999999999972e+00 +7.9192046962020681e+00 +0.0000000000000000e+00 -5.2999999204391077e+00 +3.0011577601951573e-04 +0.0000000000000000e+00 +9.9999995496525973e-01
-5.3999999999999968e+00 +7.9191744014917820e+00 +0.0000000000000000e+00 -5.3999999158501266e+00 +3.0577843065515481e-04 +0.0000000000000000e+00 +9.9999995324977486e-01
-5.4999999999999964e+00 +7.9191435405157433e+00 +0.0000000000000000e+00 -5.4999999110879934e+00 +3.1144109109720218e-04 +0.0000000000000000e+00 +9.9999995150222254e-01
-5.5999999999999961e+00 +7.9191121132733651e+00 +0.0000000000000000e+00 -5.5999999061495016e+00 +3.1710375747454229e-04 +0.0000000000000000e+00 +9.9999994972260253e-01
-5.6999999999999957e+00 +7.9190801197640468e+00 +0.0000000000000000e+00 -5.6999999010314450e+00 +3.2276642991389056e-04 +0.0000000000000000e+00 +9.9999994791091484e-01
-5.7999999999999954e+00 +7.9190475599871766e+00 +0.0000000000000000e+00 -5.7999998957306156e+00 +3.2842910853979253e-04 +0.0000000000000000e+00 +9.9999994606715925e-01
-5.8999999999999950e+00 +7.9190144339421291e+00 +0.0000000000000000e+00 -5.8999998902438078e+00 +3.3409179347462336e-04 +0.0000000000000000e+00 +9.9999994419133553e-01
-5.9999999999999947e+00 +7.9189807416282676e+00 +0.0000000000000000e+00 -5.9999998845678144e+00 +3.3975448483858698e-04 +0.0000000000000000e+00 +9.9999994228344369e-01
-6.0999999999999943e+00 +7.9189464830449436e+00 +0.0000000000000000e+00 -6.0999998786994283e+00 +3.4541718274938793e-04 +0.0000000000000000e+00 +9.9999994034348350e-01
-6.1999999999999940e+00 +7.9189116581914964e+00 +0.0000000000000000e+00 -6.1999998726354422e+00 +3.5107988731863113e-04 +0.0000000000000000e+00 +9.9999993837145484e-01
-6.2999999999999936e+00 +7.9188762670672546e+00 +0.0000000000000000e+00 -6.2999998663726497e+00 +3.5674259864822204e-04 +0.0000000000000000e+00 +9.9999993636735751e-01
-6.3999999999999932e+00 +7.9188403096715385e+00 +0.0000000000000000e+00 -6.3999998599078447e+00 +3.6240531683003985e-04 +0.0000000000000000e+00 +9.9999993433119139e-01
-6.4999999999999929e+00 +7.9188037860036582e+00 +0.0000000000000000e+00 -6.4999998532378189e+00 +3.6806804194593787e-04 +0.0000000000000000e+00 +9.9999993226295636e-01
-6.5999999999999925e+00 +7.9187666960629164e+00 +0.0000000000000000e+00 -6.5999998463593670e+00 +3.7373077406774416e-04 +0.0000000000000000e+00 +9.9999993016265221e-01
-6.6999999999999922e+00 +7.9187290398486097e+00 +0.0000000000000000e+00 -6.6999998392692808e+00 +3.7939351325726178e-04 +0.0000000000000000e+00 +9.9999992803027882e-01
-6.7999999999999918e+00 +7.9186908173600283e+00 +0.0000000000000000e+00 -6.7999998319643540e+00 +3.8505625956626951e-04 +0.0000000000000000e+00 +9.9999992586583608e-01
-6.8999999999999915e+00 +7.9186520285964583e+00 +0.0000000000000000e+00 -6.8999998244413794e+00 +3.9071901303652231e-04 +0.0000000000000000e+00 +9.9999992366932389e-01
-6.9999999999999911e+00 +7.9186126735571811e+00 +0.0000000000000000e+00 -6.9999998166971498e+00 +3.9638177369975179e-04 +0.0000000000000000e+00 +9.9999992144074201e-01
-7.0999999999999908e+00 +7.9185727522414773e+00 +0.0000000000000000e+00 -7.0999998087284588e+00 +4.0204454157766699e-04 +0.0000000000000000e+00 +9.9999991918009035e-01
-7.1999999999999904e+00 +7.9185322646486247e+00 +0.0000000000000000e+00 -7.1999998005320993e+00 +4.0770731668195479e-04 +0.0000000000000000e+00 +9.9999991688736878e-01
-7.2999999999999901e+00 +7.9184912107779004e+00 +0.0000000000000000e+00 -7.2999997921048640e+00 +4.1337009901428070e-04 +0.0000000000000000e+00 +9.9999991456257720e-01
-7.3999999999999897e+00 +7.9184495906285814e+00 +0.0000000000000000e+00 -7.3999997834435458e+00 +4.1903288856628935e-04 +0.0000000000000000e+00 +9.9999991220571549e-01
-7.4999999999999893e+00 +7.9184074041999475e+00 +0.0000000000000000e+00 -7.4999997745449383e+00 +4.2469568531960537e-04 +0.0000000000000000e+00 +9.9999990981678355e-01
-7.5999999999999890e+00 +7.9183646514912791e+00 +0.0000000000000000e+00 -7.5999997654058333e+00 +4.3035848924583388e-04 +0.0000000000000000e+00 +9.9999990739578126e-01
-7.6999999999999886e+00 +7.9183213325018604e+00 +0.0000000000000000e+00 -7.6999997560230247e+00 +4.3602130030656133e-04 +0.0000000000000000e+00 +9.9999990494270852e-01
-7.7999999999999883e+00 +7.9182774472309809e+00 +0.0000000000000000e+00 -7.7999997463933060e+00 +4.4168411845335625e-04 +0.0000000000000000e+00 +9.9999990245756520e-01
-7.8999999999999879e+00 +7.9182329956779354e+00 +0.0000000000000000e+00 -7.8999997365134691e+00 +4.4734694362776999e-04 +0.0000000000000000e+00 +9.9999989994035121e-01
-7.9999999999999876e+00 +7.9181879778420239e+00 +0.0000000000000000e+00 -7.9999997263803069e+00 +4.5300977576133748e-04 +0.0000000000000000e+00 +9.9999989739106643e-01
-8.0999999999999872e+00 +7.9181423937225537e+00 +0.0000000000000000e+00 -8.0999997159906130e+00 +4.5867261477608467e-04 +0.0000000000000000e+00 +9.9999989480971085e-01
-8.1999999999999869e+00 +7.9180962433188418e+00 +0.0000000000000000e+00 -8.1999997053411793e+00 +4.6433546059010194e-04 +0.0000000000000000e+00 +9.9999989219628438e-01
-8.2999999999999865e+00 +7.9180495266302113e+00 +0.0000000000000000e+00 -8.2999996944288004e+00 +4.6999831312311669e-04 +0.0000000000000000e+00 +9.9999988955078689e-01
-8.3999999999999861e+00 +7.9180022436559954e+00 +0.0000000000000000e+00 -8.3999996832502681e+00 +4.7566117229699991e-04 +0.0000000000000000e+00 +9.9999988687321839e-01
-8.4999999999999858e+00 +7.9179543943955331e+00 +0.0000000000000000e+00 -8.4999996718023745e+00 +4.8132403803576577e-04 +0.0000000000000000e+00 +9.9999988416357866e-01
-8.5999999999999854e+00 +7.9179059788481716e+00 +0.0000000000000000e+00 -8.5999996600819149e+00 +4.8698691026557132e-04 +0.0000000000000000e+00 +9.9999988142186780e-01
-8.6999999999999851e+00 +7.9178569970132662e+00 +0.0000000000000000e+00 -8.6999996480856794e+00 +4.9264978891471638e-04 +0.0000000000000000e+00 +9.9999987864808559e-01
-8.7999999999999847e+00 +7.9178074488901773e+00 +0.0000000000000000e+00 -8.7999996358104617e+00 +4.9831267391364309e-04 +0.0000000000000000e+00 +9.9999987584223204e-01
-8.8999999999999844e+00 +7.9177573344782743e+00 +0.0000000000000000e+00 -8.8999996232530556e+00 +5.0397556519493560e-04 +0.0000000000000000e+00 +9.9999987300430704e-01
-8.9999999999999840e+00 +7.9177066537769312e+00 +0.0000000000000000e+00 -8.9999996104102529e+00 +5.0963846269331983e-04 +0.0000000000000000e+00 +9.9999987013431046e-01
-9.0999999999999837e+00 +7.9176554067855305e+00 +0.0000000000000000e+00 -9.0999995972788472e+00 +5.1530136634566292e-04 +0.0000000000000000e+00 +9.9999986723224232e-01
-9.1999999999999833e+00 +7.9176035935034594e+00 +0.0000000000000000e+00 -9.1999995838556323e+00 +5.2096427609097328e-04 +0.0000000000000000e+00 +9.9999986429810250e-01
-9.2999999999999829e+00 +7.9175512139301114e+00 +0.0000000000000000e+00 -9.2999995701374001e+00 +5.2662719187039988e-04 +0.0000000000000000e+00 +9.9999986133189100e-01
-9.3999999999999826e+00 +7.9174982680648860e+00 +0.0000000000000000e+00 -9.3999995561209424e+00 +5.3229011362723201e-04 +0.0000000000000000e+00 +9.9999985833360761e-01
-9.4999999999999822e+00 +7.9174447559071881e+00 +0.0000000000000000e+00 -9.4999995418030529e+00 +5.3795304130689885e-04 +0.0000000000000000e+00 +9.9999985530325242e-01
-9.5999999999999819e+00 +7.9173906774564289e+00 +0.0000000000000000e+00 -9.5999995271805236e+00 +5.4361597485696924e-04 +0.0000000000000000e+00 +9.9999985224082522e-01
-9.6999999999999815e+00 +7.9173360327120230e+00 +0.0000000000000000e+00 -9.6999995122501481e+00 +5.4927891422715106e-04 +0.0000000000000000e+00 +9.9999984914632600e-01
-9.7999999999999812e+00 +7.9172808216733914e+00 +0.0000000000000000e+00 -9.7999994970087201e+00 +5.5494185936929110e-04 +0.0000000000000000e+00 +9.9999984601975467e-01
-9.8999999999999808e+00 +7.9172250443399586e+00 +0.0000000000000000e+00 -9.8999994814530314e+00 +5.6060481023737418e-04 +0.0000000000000000e+00 +9.9999984286111121e-01
-9.9999999999999805e+00 +7.9171687007111542e+00 +0.0000000000000000e+00 -9.9999994655798741e+00 +5.6626776678752331e-04 +0.0000000000000000e+00 +9.9999983967039552e-01
-1.0099999999999980e+01 +7.9171117907864126e+00 +0.0000000000000000e+00 -1.0099999449386042e+01 +5.7193072897812375e-04 +0.0000000000000000e+00 +9.9999983644760748e-01
-1.0199999999999980e+01 +7.9170543145651715e+00 +0.0000000000000000e+00 -1.0199999432868326e+01 +5.7759369677119819e-04 +0.0000000000000000e+00 +9.9999983319274699e-01
-1.0299999999999979e+01 +7.9169962720468723e+00 +0.0000000000000000e+00 -1.0299999416023521e+01 +5.8325667013378179e-04 +0.0000000000000000e+00 +9.9999982990581404e-01
-1.0399999999999979e+01 +7.9169376632309598e+00 +0.0000000000000000e+00 -1.0399999398848420e+01 +5.8891964903804708e-04 +0.0000000000000000e+00 +9.9999982658680864e-01
-1.0499999999999979e+01 +7.9168784881168808e+00 +0.0000000000000000e+00 -1.0499999381339814e+01 +5.9458263346130356e-04 +0.0000000000000000e+00 +9.9999982323573056e-01
-1.0599999999999978e+01 +7.9168187467040845e+00 +0.0000000000000000e+00 -1.0599999363494497e+01 +6.0024562338599789e-04 +0.0000000000000000e+00 +9.9999981985257980e-01
-1.0699999999999978e+01 +7.9167584389920211e+00 +0.0000000000000000e+00 -1.0699999345309260e+01 +6.0590861879971356e-04 +0.0000000000000000e+00 +9.9999981643735625e-01
-1.0799999999999978e+01 +7.9166975649801419e+00 +0.0000000000000000e+00 -1.0799999326780899e+01 +6.1157161969517071e-04 +0.0000000000000000e+00 +9.9999981299005980e-01
-1.0899999999999977e+01 +7.9166361246678996e+00 +0.0000000000000000e+00 -1.0899999307906203e+01 +6.1723462607022608e-04 +0.0000000000000000e+00 +9.9999980951069034e-01
-1.0999999999999977e+01 +7.9165741180547453e+00 +0.0000000000000000e+00 -1.0999999288681968e+01 +6.2289763792787260e-04 +0.0000000000000000e+00 +9.9999980599924776e-01
-1.1099999999999977e+01 +7.9165115451401311e+00 +0.0000000000000000e+00 -1.1099999269104984e+01 +6.2856065527623953e-04 +0.0000000000000000e+00 +9.9999980245573206e-01
-1.1199999999999976e+01 +7.9164484059235072e+00 +0.0000000000000000e+00 -1.1199999249172045e+01 +6.3422367812859207e-04 +0.0000000000000000e+00 +9.9999979888014312e-01
-1.1299999999999976e+01 +7.9163847004043220e+00 +0.0000000000000000e+00 -1.1299999228879944e+01 +6.3988670650333131e-04 +0.0000000000000000e+00 +9.9999979527248073e-01
-1.1399999999999975e+01 +7.9163204285820221e+00 +0.0000000000000000e+00 -1.1399999208225472e+01 +6.4554974042399396e-04 +0.0000000000000000e+00 +9.9999979163274488e-01
-1.1499999999999975e+01 +7.9162555904560516e+00 +0.0000000000000000e+00 -1.1499999187205423e+01 +6.5121277991925231e-04 +0.0000000000000000e+00 +9.9999978796093547e-01
-1.1599999999999975e+01 +7.9161901860258510e+00 +0.0000000000000000e+00 -1.1599999165816589e+01 +6.5687582502291383e-04 +0.0000000000000000e+00 +9.9999978425705227e-01
-1.1699999999999974e+01 +7.9161242152908580e+00 +0.0000000000000000e+00 -1.1699999144055765e+01 +6.6253887577392111e-04 +0.0000000000000000e+00 +9.9999978052109528e-01
