# trajectory
# s[mm] rx[mm] ry[mm] rz[mm] px[rad] py[rad] pz[rad]
0.0000000000000000e+00 +8.1529999999999987e+00 +0.0000000000000000e+00 +0.0000000000000000e+00 +0.0000000000000000e+00 +0.0000000000000000e+00 +1.0000000000000000e+00
-1.0000000000000001e-01 +8.1529997168584689e+00 +0.0000000000000000e+00 -9.9999999999465558e-02 +5.6628301247166193e-06 +0.0000000000000000e+00 +9.9999999998396616e-01
-2.0000000000000001e-01 +8.1529988674340679e+00 +0.0000000000000000e+00 -1.9999999999572432e-01 +1.1325657392693620e-05 +0.0000000000000000e+00 +9.9999999993586475e-01
-3.0000000000000004e-01 +8.1529974517270922e+00 +0.0000000000000000e+00 -2.9999999998556959e-01 +1.6988481610176626e-05 +0.0000000000000000e+00 +9.9999999985569576e-01
-4.0000000000000002e-01 +8.1529954697378546e+00 +0.0000000000000000e+00 -3.9999999996579461e-01 +2.2651302602130724e-05 +0.0000000000000000e+00 +9.9999999974345921e-01
-5.0000000000000000e-01 +8.1529929214666854e+00 +0.0000000000000000e+00 -4.9999999993319255e-01 +2.8314120212240549e-05 +0.0000000000000000e+00 +9.9999999959915531e-01
-5.9999999999999998e-01 +8.1529898069139293e+00 +0.0000000000000000e+00 -5.9999999988455677e-01 +3.3976934302910349e-05 +0.0000000000000000e+00 +9.9999999942278395e-01
-6.9999999999999996e-01 +8.1529861260799450e+00 +0.0000000000000000e+00 -6.9999999981668048e-01 +3.9639744755264062e-05 +0.0000000000000000e+00 +9.9999999921434535e-01
-7.9999999999999993e-01 +8.1529818789651021e+00 +0.0000000000000000e+00 -7.9999999972635694e-01 +4.5302551469145408e-05 +0.0000000000000000e+00 +9.9999999897383940e-01
-8.9999999999999991e-01 +8.1529770655697789e+00 +0.0000000000000000e+00 -8.9999999961037946e-01 +5.0965354363117935e-05 +0.0000000000000000e+00 +9.9999999870126632e-01
-9.9999999999999989e-01 +8.1529716858943591e+00 +0.0000000000000000e+00 -9.9999999946554130e-01 +5.6628153374465120e-05 +0.0000000000000000e+00 +9.9999999839662612e-01
-1.0999999999999999e+00 +8.1529657399392352e+00 +0.0000000000000000e+00 -1.0999999992886358e+00 +6.2290948459190447e-05 +0.0000000000000000e+00 +9.9999999805991890e-01
-1.2000000000000000e+00 +8.1529592277048000e+00 +0.0000000000000000e+00 -1.1999999990764563e+00 +6.7953739592017449e-05 +0.0000000000000000e+00 +9.9999999769114467e-01
-1.3000000000000000e+00 +8.1529521491914494e+00 +0.0000000000000000e+00 -1.2999999988257960e+00 +7.3616526766389807e-05 +0.0000000000000000e+00 +9.9999999729030353e-01
-1.4000000000000001e+00 +8.1529445043995779e+00 +0.0000000000000000e+00 -1.3999999985334481e+00 +7.9279309994471456e-05 +0.0000000000000000e+00 +9.9999999685739549e-01
-1.5000000000000002e+00 +8.1529362933295797e+00 +0.0000000000000000e+00 -1.4999999981962062e+00 +8.4942089307146599e-05 +0.0000000000000000e+00 +9.9999999639242076e-01
-1.6000000000000003e+00 +8.1529275159818440e+00 +0.0000000000000000e+00 -1.5999999978108634e+00 +9.0604864754019831e-05 +0.0000000000000000e+00 +9.9999999589537925e-01
-1.7000000000000004e+00 +8.1529181723567543e+00 +0.0000000000000000e+00 -1.6999999973742133e+00 +9.6267636403416190e-05 +0.0000000000000000e+00 +9.9999999536627104e-01
-1.8000000000000005e+00 +8.1529082624546874e+00 +0.0000000000000000e+00 -1.7999999968830489e+00 +1.0193040434238124e-04 +0.0000000000000000e+00 +9.9999999480509627e-01
-1.9000000000000006e+00 +8.1528977862760073e+00 +0.0000000000000000e+00 -1.8999999963341636e+00 +1.0759316867668115e-04 +0.0000000000000000e+00 +9.9999999421185493e-01
-2.0000000000000004e+00 +8.1528867438210693e+00 +0.0000000000000000e+00 -1.9999999957243508e+00 +1.1325592953080278e-04 +0.0000000000000000e+00 +9.9999999358654712e-01
-2.1000000000000005e+00 +8.1528751350902127e+00 +0.0000000000000000e+00 -2.0999999950504042e+00 +1.1891868704705579e-04 +0.0000000000000000e+00 +9.9999999292917285e-01
-2.2000000000000006e+00 +8.1528629600837661e+00 +0.0000000000000000e+00 -2.1999999943091169e+00 +1.2458144137569561e-04 +0.0000000000000000e+00 +9.9999999223973213e-01
-2.3000000000000007e+00 +8.1528502188020386e+00 +0.0000000000000000e+00 -2.2999999934972819e+00 +1.3024419266504622e-04 +0.0000000000000000e+00 +9.9999999151822505e-01
-2.4000000000000008e+00 +8.1528369112453287e+00 +0.0000000000000000e+00 -2.3999999926116931e+00 +1.3590694106060236e-04 +0.0000000000000000e+00 +9.9999999076465163e-01
-2.5000000000000009e+00 +8.1528230374139188e+00 +0.0000000000000000e+00 -2.4999999916491435e+00 +1.4156968670502948e-04 +0.0000000000000000e+00 +9.9999998997901185e-01
-2.6000000000000010e+00 +8.1528085973080753e+00 +0.0000000000000000e+00 -2.5999999906064266e+00 +1.4723242973816385e-04 +0.0000000000000000e+00 +9.9999998916130572e-01
-2.7000000000000011e+00 +8.1527935909280540e+00 +0.0000000000000000e+00 -2.6999999894803359e+00 +1.5289517029701255e-04 +0.0000000000000000e+00 +9.9999998831153336e-01
-2.8000000000000012e+00 +8.1527780182740948e+00 +0.0000000000000000e+00 -2.7999999882676647e+00 +1.5855790851575352e-04 +0.0000000000000000e+00 +9.9999998742969476e-01
-2.9000000000000012e+00 +8.1527618793464249e+00 +0.0000000000000000e+00 -2.8999999869652062e+00 +1.6422064452573554e-04 +0.0000000000000000e+00 +9.9999998651578992e-01
-3.0000000000000013e+00 +8.1527451741452595e+00 +0.0000000000000000e+00 -2.9999999855697537e+00 +1.6988337845547831e-04 +0.0000000000000000e+00 +9.9999998556981884e-01
-3.1000000000000014e+00 +8.1527279026707991e+00 +0.0000000000000000e+00 -3.0999999840781007e+00 +1.7554611043067245e-04 +0.0000000000000000e+00 +9.9999998459178152e-01
-3.2000000000000015e+00 +8.1527100649232338e+00 +0.0000000000000000e+00 -3.1999999824870411e+00 +1.8120884057417944e-04 +0.0000000000000000e+00 +9.9999998358167796e-01
-3.3000000000000016e+00 +8.1526916609027413e+00 +0.0000000000000000e+00 -3.2999999807933675e+00 +1.8687156900603174e-04 +0.0000000000000000e+00 +9.9999998253950828e-01
-3.4000000000000017e+00 +8.1526726906094868e+00 +0.0000000000000000e+00 -3.3999999789938737e+00 +1.9253429584343274e-04 +0.0000000000000000e+00 +9.9999998146527236e-01
-3.5000000000000018e+00 +8.1526531540436231e+00 +0.0000000000000000e+00 -3.4999999770853529e+00 +1.9819702120075675e-04 +0.0000000000000000e+00 +9.9999998035897031e-01
-3.6000000000000019e+00 +8.1526330512052922e+00 +0.0000000000000000e+00 -3.5999999750645988e+00 +2.0385974518954901e-04 +0.0000000000000000e+00 +9.9999997922060202e-01
-3.7000000000000020e+00 +8.1526123820946275e+00 +0.0000000000000000e+00 -3.6999999729284045e+00 +2.0952246791852572e-04 +0.0000000000000000e+00 +9.9999997805016760e-01
-3.8000000000000020e+00 +8.1525911467117478e+00 +0.0000000000000000e+00 -3.7999999706735634e+00 +2.1518518949357394e-04 +0.0000000000000000e+00 +9.9999997684766695e-01
-3.9000000000000021e+00 +8.1525693450567633e+00 +0.0000000000000000e+00 -3.8999999682968691e+00 +2.2084791001775170e-04 +0.0000000000000000e+00 +9.9999997561310017e-01
-4.0000000000000018e+00 +8.1525469771297754e+00 +0.0000000000000000e+00 -3.9999999657951149e+00 +2.2651062959128785e-04 +0.0000000000000000e+00 +9.9999997434646715e-01
-4.1000000000000014e+00 +8.1525240429308727e+00 +0.0000000000000000e+00 -4.0999999631650939e+00 +2.3217334831124041e-04 +0.0000000000000000e+00 +9.9999997304776789e-01
-4.2000000000000011e+00 +8.1525005424601371e+00 +0.0000000000000000e+00 -4.1999999604035994e+00 +2.3783606626773699e-04 +0.0000000000000000e+00 +9.9999997171700250e-01
-4.3000000000000007e+00 +8.1524764757176413e+00 +0.0000000000000000e+00 -4.2999999575074250e+00 +2.4349878354021530e-04 +0.0000000000000000e+00 +9.9999997035417088e-01
-4.4000000000000004e+00 +8.1524518427034494e+00 +0.0000000000000000e+00 -4.3999999544733646e+00 +2.4916150019708121e-04 +0.0000000000000000e+00 +9.9999996895927301e-01
-4.5000000000000000e+00 +8.1524266434176198e+00 +0.0000000000000000e+00 -4.4999999512982107e+00 +2.5482421629570846e-04 +0.0000000000000000e+00 +9.9999996753230891e-01
-4.5999999999999996e+00 +8.1524008778602060e+00 +0.0000000000000000e+00 -4.5999999479787572e+00 +2.6048693188243850e-04 +0.0000000000000000e+00 +9.9999996607327868e-01
-4.6999999999999993e+00 +8.1523745460312576e+00 +0.0000000000000000e+00 -4.6999999445117977e+00 +2.6614964699258031e-04 +0.0000000000000000e+00 +9.9999996458218221e-01
-4.7999999999999989e+00 +8.1523476479308226e+00 +0.0000000000000000e+00 -4.7999999408941250e+00 +2.7181236165041000e-04 +0.0000000000000000e+00 +9.9999996305901950e-01
-4.8999999999999986e+00 +8.1523201835589436e+00 +0.0000000000000000e+00 -4.8999999371225327e+00 +2.7747507586917066e-04 +0.0000000000000000e+00 +9.9999996150379056e-01
-4.9999999999999982e+00 +8.1522921529156633e+00 +0.0000000000000000e+00 -4.9999999331938145e+00 +2.8313778965107211e-04 +0.0000000000000000e+00 +9.9999995991649537e-01
-5.0999999999999979e+00 +8.1522635560010279e+00 +0.0000000000000000e+00 -5.0999999291047633e+00 +2.8880050298729046e-04 +0.0000000000000000e+00 +9.9999995829713406e-01
-5.1999999999999975e+00 +8.1522343928150818e+00 +0.0000000000000000e+00 -5.1999999248521727e+00 +2.9446321585796796e-04 +0.0000000000000000e+00 +9.9999995664570651e-01
-5.2999999999999972e+00 +8.1522046633578729e+00 +0.0000000000000000e+00 -5.2999999204328354e+00 +3.0012592823221271e-04 +0.0000000000000000e+00 +9.9999995496221283e-01
-5.3999999999999968e+00 +8.1521743676294527e+00 +0.0000000000000000e+00 -5.3999999158435461e+00 +3.0578864006809811e-04 +0.0000000000000000e+00 +9.9999995324665292e-01
-5.4999999999999964e+00 +8.1521435056298781e+00 +0.0000000000000000e+00 -5.4999999110810975e+00 +3.1145135131266285e-04 +0.0000000000000000e+00 +9.9999995149902687e-01
-5.5999999999999961e+00 +8.1521120773592113e+00 +0.0000000000000000e+00 -5.5999999061422825e+00 +3.1711406190191021e-04 +0.0000000000000000e+00 +9.9999994971933481e-01
-5.6999999999999957e+00 +8.1520800828175215e+00 +0.0000000000000000e+00 -5.6999999010238955e+00 +3.2277677176080792e-04 +0.0000000000000000e+00 +9.9999994790757663e-01
-5.7999999999999954e+00 +8.1520475220048869e+00 +0.0000000000000000e+00 -5.7999998957227294e+00 +3.2843948080328773e-04 +0.0000000000000000e+00 +9.9999994606375242e-01
-5.8999999999999950e+00 +8.1520143949213928e+00 +0.0000000000000000e+00 -5.8999998902355770e+00 +3.3410218893224503e-04 +0.0000000000000000e+00 +9.9999994418786231e-01
-5.9999999999999947e+00 +8.1519807015671351e+00 +0.0000000000000000e+00 -5.9999998845592328e+00 +3.3976489603953835e-04 +0.0000000000000000e+00 +9.9999994227990618e-01
-6.0999999999999943e+00 +8.1519464419422221e+00 +0.0000000000000000e+00 -6.0999998786904897e+00 +3.4542760200712095e-04 +0.0000000000000000e+00 +9.9999994033988426e-01
-6.1999999999999940e+00 +8.1519116160467746e+00 +0.0000000000000000e+00 -6.1999998726261412e+00 +3.5109030671949098e-04 +0.0000000000000000e+00 +9.9999993836779655e-01
-6.2999999999999936e+00 +8.1518762238809224e+00 +0.0000000000000000e+00 -6.2999998663629801e+00 +3.5675301007614225e-04 +0.0000000000000000e+00 +9.9999993636364304e-01
-6.3999999999999932e+00 +8.1518402654448074e+00 +0.0000000000000000e+00 -6.3999998598978003e+00 +3.6241571199269645e-04 +0.0000000000000000e+00 +9.9999993432742385e-01
-6.4999999999999929e+00 +8.1518037407385755e+00 +0.0000000000000000e+00 -6.4999998532273953e+00 +3.6807841240090372e-04 +0.0000000000000000e+00 +9.9999993225913897e-01
-6.5999999999999925e+00 +8.1517666497623793e+00 +0.0000000000000000e+00 -6.5999998463485587e+00 +3.7374111124864276e-04 +0.0000000000000000e+00 +9.9999993015878852e-01
-6.6999999999999922e+00 +8.1517289925163787e+00 +0.0000000000000000e+00 -6.6999998392580844e+00 +3.7940380849992158e-04 +0.0000000000000000e+00 +9.9999992802637250e-01
-6.7999999999999918e+00 +8.1516907690007336e+00 +0.0000000000000000e+00 -6.7999998319527650e+00 +3.8506650413487782e-04 +0.0000000000000000e+00 +9.9999992586189101e-01
-6.8999999999999915e+00 +8.1516519792156057e+00 +0.0000000000000000e+00 -6.8999998244293943e+00 +3.9072919814977922e-04 +0.0000000000000000e+00 +9.9999992366534396e-01
-6.9999999999999911e+00 +8.1516126231611565e+00 +0.0000000000000000e+00 -6.9999998166847650e+00 +3.9639189055702413e-04 +0.0000000000000000e+00 +9.9999992143673144e-01
-7.0999999999999908e+00 +8.1515727008375460e+00 +0.0000000000000000e+00 -7.0999998087156717e+00 +4.0205458138514212e-04 +0.0000000000000000e+00 +9.9999991917605346e-01
-7.1999999999999904e+00 +8.1515322122449305e+00 +0.0000000000000000e+00 -7.1999998005189072e+00 +4.0771727067879447e-04 +0.0000000000000000e+00 +9.9999991688331002e-01
-7.2999999999999901e+00 +8.1514911573834592e+00 +0.0000000000000000e+00 -7.2999997920912651e+00 +4.1337995849877467e-04 +0.0000000000000000e+00 +9.9999991455850124e-01
-7.3999999999999897e+00 +8.1514495362532777e+00 +0.0000000000000000e+00 -7.3999997834295383e+00 +4.1904264492200908e-04 +0.0000000000000000e+00 +9.9999991220162698e-01
-7.4999999999999893e+00 +8.1514073488545193e+00 +0.0000000000000000e+00 -7.4999997745305214e+00 +4.2470533004155761e-04 +0.0000000000000000e+00 +9.9999990981268727e-01
-7.5999999999999890e+00 +8.1513645951873102e+00 +0.0000000000000000e+00 -7.5999997653910070e+00 +4.3036801396661409e-04 +0.0000000000000000e+00 +9.9999990739168199e-01
-7.6999999999999886e+00 +8.1513212752517621e+00 +0.0000000000000000e+00 -7.6999997560077889e+00 +4.3603069682250720e-04 +0.0000000000000000e+00 +9.9999990493861124e-01
-7.7999999999999883e+00 +8.1512773890479764e+00 +0.0000000000000000e+00 -7.7999997463776607e+00 +4.4169337875070100e-04 +0.0000000000000000e+00 +9.9999990245347492e-01
-7.8999999999999879e+00 +8.1512329365760383e+00 +0.0000000000000000e+00 -7.8999997364974153e+00 +4.4735605990879558e-04 +0.0000000000000000e+00 +9.9999989993627292e-01
-7.9999999999999876e+00 +8.1511879178360154e+00 +0.0000000000000000e+00 -7.9999997263638463e+00 +4.5301874047052785e-04 +0.0000000000000000e+00 +9.9999989738700523e-01
-8.0999999999999872e+00 +8.1511423328279573e+00 +0.0000000000000000e+00 -8.0999997159737465e+00 +4.5868142062512236e-04 +0.0000000000000000e+00 +9.9999989480567175e-01
-8.1999999999999869e+00 +8.1510961815518961e+00 +0.0000000000000000e+00 -8.1999997053239113e+00 +4.6434410057014363e-04 +0.0000000000000000e+00 +9.9999989219227237e-01
-8.2999999999999865e+00 +8.1510494640078424e+00 +0.0000000000000000e+00 -8.2999996944111327e+00 +4.7000678050434770e-04 +0.0000000000000000e+00 +9.9999988954680707e-01
-8.3999999999999861e+00 +8.1510021801957890e+00 +0.0000000000000000e+00 -8.3999996832322044e+00 +4.7566946062703176e-04 +0.0000000000000000e+00 +9.9999988686927577e-01
-8.4999999999999858e+00 +8.1509543301157041e+00 +0.0000000000000000e+00 -8.4999996717839199e+00 +4.8133214113803383e-04 +0.0000000000000000e+00 +9.9999988415967833e-01
-8.5999999999999854e+00 +8.1509059137675415e+00 +0.0000000000000000e+00 -8.5999996600630713e+00 +4.8699482223773220e-04 +0.0000000000000000e+00 +9.9999988141801466e-01
-8.6999999999999851e+00 +8.1508569311512300e+00 +0.0000000000000000e+00 -8.6999996480664539e+00 +4.9265750412704498e-04 +0.0000000000000000e+00 +9.9999987864428463e-01
-8.7999999999999847e+00 +8.1508073822666827e+00 +0.0000000000000000e+00 -8.7999996357908596e+00 +4.9832018700742963e-04 +0.0000000000000000e+00 +9.9999987583848804e-01
-8.8999999999999844e+00 +8.1507572671137893e+00 +0.0000000000000000e+00 -8.8999996232330822e+00 +5.0398287108088238e-04 +0.0000000000000000e+00 +9.9999987300062487e-01
-8.9999999999999840e+00 +8.1507065856924203e+00 +0.0000000000000000e+00 -8.9999996103899154e+00 +5.0964555654993773e-04 +0.0000000000000000e+00 +9.9999987013069502e-01
-9.0999999999999837e+00 +8.1506553380024265e+00 +0.0000000000000000e+00 -9.0999995972581527e+00 +5.1530824361766783e-04 +0.0000000000000000e+00 +9.9999986722869838e-01
-9.1999999999999833e+00 +8.1506035240436372e+00 +0.0000000000000000e+00 -9.1999995838345860e+00 +5.2097093248768195e-04 +0.0000000000000000e+00 +9.9999986429463472e-01
-9.2999999999999829e+00 +8.1505511438158624e+00 +0.0000000000000000e+00 -9.2999995701160110e+00 +5.2663362336412593e-04 +0.0000000000000000e+00 +9.9999986132850394e-01
-9.3999999999999826e+00 +8.1504981973188908e+00 +0.0000000000000000e+00 -9.3999995560992193e+00 +5.3229631645168151e-04 +0.0000000000000000e+00 +9.9999985833030591e-01
-9.4999999999999822e+00 +8.1504446845524914e+00 +0.0000000000000000e+00 -9.4999995417810030e+00 +5.3795901195556584e-04 +0.0000000000000000e+00 +9.9999985530004043e-01
-9.5999999999999819e+00 +8.1503906055164119e+00 +0.0000000000000000e+00 -9.5999995271581575e+00 +5.4362171008153068e-04 +0.0000000000000000e+00 +9.9999985223770738e-01
-9.6999999999999815e+00 +8.1503359602103806e+00 +0.0000000000000000e+00 -9.6999995122274747e+00 +5.4928441103586174e-04 +0.0000000000000000e+00 +9.9999984914330664e-01
-9.7999999999999812e+00 +8.1502807486341045e+00 +0.0000000000000000e+00 -9.7999994969857500e+00 +5.5494711502537819e-04 +0.0000000000000000e+00 +9.9999984601683800e-01
-9.8999999999999808e+00 +8.1502249707872689e+00 +0.0000000000000000e+00 -9.8999994814297736e+00 +5.6060982225743185e-04 +0.0000000000000000e+00 +9.9999984285830135e-01
-9.9999999999999805e+00 +8.1501686266695383e+00 +0.0000000000000000e+00 -9.9999994655563409e+00 +5.6627253293990644e-04 +0.0000000000000000e+00 +9.9999983966769646e-01
-1.0099999999999980e+01 +8.1501117162805592e+00 +0.0000000000000000e+00 -1.0099999449362244e+01 +5.7193524728040501e-04 +0.0000000000000000e+00 +9.9999983644502322e-01
-1.0199999999999980e+01 +8.1500542396199549e+00 +0.0000000000000000e+00 -1.0199999432844276e+01 +5.7759796547731778e-04 +0.0000000000000000e+00 +9.9999983319028141e-01
-1.0299999999999979e+01 +8.1499961966873293e+00 +0.0000000000000000e+00 -1.0299999415999231e+01 +5.8326068771089035e-04 +0.0000000000000000e+00 +9.9999982990347080e-01
-1.0399999999999979e+01 +8.1499375874822721e+00 +0.0000000000000000e+00 -1.0399999398823901e+01 +5.8892341414241186e-04 +0.0000000000000000e+00 +9.9999982658459130e-01
-1.0499999999999979e+01 +8.1498784120043553e+00 +0.0000000000000000e+00 -1.0499999381315080e+01 +5.9458614491421521e-04 +0.0000000000000000e+00 +9.9999982323364267e-01
-1.0599999999999978e+01 +8.1498186702531399e+00 +0.0000000000000000e+00 -1.0599999363469561e+01 +6.0024888014967716e-04 +0.0000000000000000e+00 +9.9999981985062492e-01
-1.0699999999999978e+01 +8.1497583622281731e+00 +0.0000000000000000e+00 -1.0699999345284136e+01 +6.0591161995321864e-04 +0.0000000000000000e+00 +9.9999981643553770e-01
-1.0799999999999978e+01 +8.1496974879289947e+00 +0.0000000000000000e+00 -1.0799999326755598e+01 +6.1157436441030459e-04 +0.0000000000000000e+00 +9.9999981298838103e-01
-1.0899999999999977e+01 +8.1496360473551341e+00 +0.0000000000000000e+00 -1.0899999307880742e+01 +6.1723711358744454e-04 +0.0000000000000000e+00 +9.9999980950915479e-01
-1.0999999999999977e+01 +8.1495740405061188e+00 +0.0000000000000000e+00 -1.0999999288656360e+01 +6.2289986753219246e-04 +0.0000000000000000e+00 +9.9999980599785887e-01
-1.1099999999999977e+01 +8.1495114673814690e+00 +0.0000000000000000e+00 -1.1099999269079245e+01 +6.2856262627314732e-04 +0.0000000000000000e+00 +9.9999980245449305e-01
-1.1199999999999976e+01 +8.1494483279807053e+00 +0.0000000000000000e+00 -1.1199999249146190e+01 +6.3422538981995299e-04 +0.0000000000000000e+00 +9.9999979887905732e-01
-1.1299999999999976e+01 +8.1493846223033461e+00 +0.0000000000000000e+00 -1.1299999228853988e+01 +6.3988815816329856e-04 +0.0000000000000000e+00 +9.9999979527155169e-01
-1.1399999999999975e+01 +8.1493203503489138e+00 +0.0000000000000000e+00 -1.1399999208199432e+01 +6.4555093127491845e-04 +0.0000000000000000e+00 +9.9999979163197594e-01
-1.1499999999999975e+01 +8.1492555121169339e+00 +0.0000000000000000e+00 -1.1499999187179315e+01 +6.5121370910759273e-04 +0.0000000000000000e+00 +9.9999978796033018e-01
-1.1599999999999975e+01 +8.1491901076069375e+00 +0.0000000000000000e+00 -1.1599999165790429e+01 +6.5687649159514732e-04 +0.0000000000000000e+00 +9.9999978425661429e-01
-1.1699999999999974e+01 +8.1491241368184628e+00 +0.0000000000000000e+00 -1.1699999144029569e+01 +6.6253927865245427e-04 +0.0000000000000000e+00 +9.9999978052082816e-01
