# field on trajectory
# s[mm] rx[mm] ry[mm] rz[mm] bx[T] by[T] bz[T]
-0.0000000000000000e+00 +8.1530000000000094e+00 +0.0000000000000000e+00 -0.0000000000000000e+00 -2.8728184939446521e-02 -5.3645278184999234e-01 +5.3228157270568226e-03
-1.0000000000000001e-01 +8.1529997163925092e+00 +0.0000000000000000e+00 -9.9999999999463796e-02 -2.8728112465436426e-02 -5.3645277570712957e-01 +5.3228132052367599e-03
-2.0000000000000001e-01 +8.1529988655711296e+00 +0.0000000000000000e+00 -1.9999999999571000e-01 -2.8728040279762182e-02 -5.3645276268169628e-01 +5.3228103338743733e-03
-2.9999999999999999e-01 +8.1529974475415692e+00 +0.0000000000000000e+00 -2.9999999998552201e-01 -2.8727968117712284e-02 -5.3645274428101242e-01 +5.3228071399013853e-03
-4.0000000000000002e-01 +8.1529954622965306e+00 +0.0000000000000000e+00 -3.9999999996568197e-01 -2.8727895714569636e-02 -5.3645272201250016e-01 +5.3228036502491151e-03
-5.0000000000000000e-01 +8.1529929098396696e+00 +0.0000000000000000e+00 -4.9999999993297300e-01 -2.8727822805603601e-02 -5.3645269738350843e-01 +5.3227998918470602e-03
-5.9999999999999998e-01 +8.1529897901673394e+00 +0.0000000000000000e+00 -5.9999999988417696e-01 -2.8727749126078127e-02 -5.3645267190144963e-01 +5.3227958916245988e-03
-6.9999999999999996e-01 +8.1529861032831796e+00 +0.0000000000000000e+00 -6.9999999981607697e-01 -2.8727674411247447e-02 -5.3645264707369289e-01 +5.3227916765102648e-03
-8.0000000000000004e-01 +8.1529818491871993e+00 +0.0000000000000000e+00 -7.9999999972545699e-01 -2.8727598396361312e-02 -5.3645262440764552e-01 +5.3227872734329081e-03
-9.0000000000000002e-01 +8.1529770278793894e+00 +0.0000000000000000e+00 -8.9999999960909804e-01 -2.8727520816664860e-02 -5.3645260541072759e-01 +5.3227827093217835e-03
-1.0000000000000000e+00 +8.1529716393597500e+00 +0.0000000000000000e+00 -9.9999999946378304e-01 -2.8727441407399804e-02 -5.3645259159037317e-01 +5.3227780111068995e-03
-1.1000000000000001e+00 +8.1529656836210105e+00 +0.0000000000000000e+00 -1.0999999992862901e+00 -2.8727359903808376e-02 -5.3645258445408572e-01 +5.3227732057199153e-03
-1.2000000000000000e+00 +8.1529591606740706e+00 +0.0000000000000000e+00 -1.1999999990734200e+00 -2.8727276041124815e-02 -5.3645258550925079e-01 +5.3227683200926003e-03
-1.3000000000000000e+00 +8.1529520705153100e+00 +0.0000000000000000e+00 -1.2999999988219300e+00 -2.8727189554589014e-02 -5.3645259626337882e-01 +5.3227633811596189e-03
-1.3999999999999999e+00 +8.1529444131410909e+00 +0.0000000000000000e+00 -1.3999999985286200e+00 -2.8727100179442171e-02 -5.3645261822399903e-01 +5.3227584158578060e-03
-1.5000000000000000e+00 +8.1529361885550298e+00 +0.0000000000000000e+00 -1.4999999981902701e+00 -2.8727007650925226e-02 -5.3645265289860744e-01 +5.3227534511259807e-03
-1.6000000000000001e+00 +8.1529273967571498e+00 +0.0000000000000000e+00 -1.5999999978036501e+00 -2.8726911704284139e-02 -5.3645270179474769e-01 +5.3227485139061047e-03
-1.7000000000000000e+00 +8.1529180377474404e+00 +0.0000000000000000e+00 -1.6999999973655600e+00 -2.8726812074769768e-02 -5.3645276641998652e-01 +5.3227436311433672e-03
-1.8000000000000000e+00 +8.1529081115222706e+00 +0.0000000000000000e+00 -1.7999999968727800e+00 -2.8726708497640405e-02 -5.3645284828194140e-01 +5.3227388297868161e-03
-1.8999999999999999e+00 +8.1528976180852606e+00 +0.0000000000000000e+00 -1.8999999963220899e+00 -2.8726600708158807e-02 -5.3645294888820005e-01 +5.3227341367888953e-03
-2.0000000000000000e+00 +8.1528865574327902e+00 +0.0000000000000000e+00 -1.9999999957102601e+00 -2.8726488441598922e-02 -5.3645306974643159e-01 +5.3227295791068770e-03
-2.1000000000000001e+00 +8.1528749295721408e+00 +0.0000000000000000e+00 -2.0999999950340902e+00 -2.8726371563953076e-02 -5.3645321180557659e-01 +5.3227252173544473e-03
-2.2000000000000002e+00 +8.1528627344960096e+00 +0.0000000000000000e+00 -2.1999999942903599e+00 -2.8726250464079301e-02 -5.3645337378000235e-01 +5.3227212467604904e-03
-2.2999999999999998e+00 +8.1528499722080596e+00 +0.0000000000000000e+00 -2.2999999934758399e+00 -2.8726125661549046e-02 -5.3645355382531124e-01 +5.3227178962073525e-03
-2.3999999999999999e+00 +8.1528366427046404e+00 +0.0000000000000000e+00 -2.3999999925873299e+00 -2.8725997675940827e-02 -5.3645375009714413e-01 +5.3227153945792187e-03
-2.5000000000000000e+00 +8.1528227459894005e+00 +0.0000000000000000e+00 -2.4999999916215998e+00 -2.8725867026834984e-02 -5.3645396075106866e-01 +5.3227139707609427e-03
-2.6000000000000001e+00 +8.1528082820659602e+00 +0.0000000000000000e+00 -2.5999999905754398e+00 -2.8725734233816778e-02 -5.3645418394263045e-01 +5.3227138536385181e-03
-2.7000000000000002e+00 +8.1527932509234198e+00 +0.0000000000000000e+00 -2.6999999894456299e+00 -2.8725599816482192e-02 -5.3645441782745484e-01 +5.3227152721000487e-03
-2.7999999999999998e+00 +8.1527776525726896e+00 +0.0000000000000000e+00 -2.7999999882289601e+00 -2.8725464294424390e-02 -5.3645466056097812e-01 +5.3227184550329720e-03
-2.8999999999999999e+00 +8.1527614870065008e+00 +0.0000000000000000e+00 -2.8999999869222002e+00 -2.8725328187249270e-02 -5.3645491029873638e-01 +5.3227236313269418e-03
-3.0000000000000000e+00 +8.1527447542284808e+00 +0.0000000000000000e+00 -2.9999999855221300e+00 -2.8725192014564679e-02 -5.3645516519614933e-01 +5.3227310298715807e-03
-3.1000000000000001e+00 +8.1527274542386294e+00 +0.0000000000000000e+00 -3.0999999840255499e+00 -2.8725056295986224e-02 -5.3645542340862340e-01 +5.3227408795574714e-03
-3.2000000000000002e+00 +8.1527095870333106e+00 +0.0000000000000000e+00 -3.1999999824292300e+00 -2.8724921551137622e-02 -5.3645568309154790e-01 +5.3227534092760709e-03
-3.2999999999999998e+00 +8.1526911526198091e+00 +0.0000000000000000e+00 -3.2999999807299600e+00 -2.8724788299645372e-02 -5.3645594240018502e-01 +5.3227688479185430e-03
-3.3999999999999999e+00 +8.1526721509872004e+00 +0.0000000000000000e+00 -3.3999999789245101e+00 -2.8724657061150242e-02 -5.3645619948988044e-01 +5.3227874243778278e-03
-3.5000000000000000e+00 +8.1526525821464002e+00 +0.0000000000000000e+00 -3.4999999770096801e+00 -2.8724528355292243e-02 -5.3645645251576524e-01 +5.3228093675455924e-03
-3.6000000000000001e+00 +8.1526324460901396e+00 +0.0000000000000000e+00 -3.5999999749822500e+00 -2.8724402701726211e-02 -5.3645669963304643e-01 +5.3228349063151057e-03
-3.7000000000000002e+00 +8.1526117428220495e+00 +0.0000000000000000e+00 -3.6999999728389801e+00 -2.8724280620111006e-02 -5.3645693899679092e-01 +5.3228642695789894e-03
-3.7999999999999998e+00 +8.1525904723421299e+00 +0.0000000000000000e+00 -3.7999999705766800e+00 -2.8724162630115350e-02 -5.3645716876202709e-01 +5.3228976862302220e-03
-3.8999999999999999e+00 +8.1525686346503807e+00 +0.0000000000000000e+00 -3.8999999681921298e+00 -2.8724049251416771e-02 -5.3645738708371637e-01 +5.3229353851617697e-03
-4.0000000000000000e+00 +8.1525462297431694e+00 +0.0000000000000000e+00 -3.9999999656820902e+00 -2.8723941003703200e-02 -5.3645759211677435e-01 +5.3229775952667721e-03
-4.0999999999999996e+00 +8.1525232576241304e+00 +0.0000000000000000e+00 -4.0999999630433699e+00 -2.8723838267086646e-02 -5.3645778252266341e-01 +5.3230244551155321e-03
-4.2000000000000002e+00 +8.1524997182896204e+00 +0.0000000000000000e+00 -4.1999999602727298e+00 -2.8723740863355326e-02 -5.3645795898954884e-01 +5.3230757419890206e-03
-4.2999999999999998e+00 +8.1524756117469206e+00 +0.0000000000000000e+00 -4.2999999573669703e+00 -2.8723648474705567e-02 -5.3645812271220450e-01 +5.3231311428425208e-03
-4.4000000000000004e+00 +8.1524509379887604e+00 +0.0000000000000000e+00 -4.3999999543228601e+00 -2.8723560783332294e-02 -5.3645827488553466e-01 +5.3231903446293921e-03
-4.5000000000000000e+00 +8.1524256970187707e+00 +0.0000000000000000e+00 -4.4999999511372000e+00 -2.8723477471418801e-02 -5.3645841670438965e-01 +5.3232530342989604e-03
-4.5999999999999996e+00 +8.1523998888369498e+00 +0.0000000000000000e+00 -4.5999999478067499e+00 -2.8723398221141595e-02 -5.3645854936367687e-01 +5.3233188987973582e-03
-4.7000000000000002e+00 +8.1523735134396702e+00 +0.0000000000000000e+00 -4.6999999443283098e+00 -2.8723322714669739e-02 -5.3645867405836134e-01 +5.3233876250673093e-03
-4.7999999999999998e+00 +8.1523465708305594e+00 +0.0000000000000000e+00 -4.7999999406986600e+00 -2.8723250634160067e-02 -5.3645879198338942e-01 +5.3234589000470756e-03
-4.9000000000000004e+00 +8.1523190610096208e+00 +0.0000000000000000e+00 -4.8999999369145701e+00 -2.8723181661760643e-02 -5.3645890433377086e-01 +5.3235324106710533e-03
-5.0000000000000000e+00 +8.1522909839768491e+00 +0.0000000000000000e+00 -4.9999999329728402e+00 -2.8723115479608791e-02 -5.3645901230455506e-01 +5.3236078438692680e-03
-5.0999999999999996e+00 +8.1522623397286207e+00 +0.0000000000000000e+00 -5.0999999288702398e+00 -2.8723051769831715e-02 -5.3645911709086025e-01 +5.3236848865674050e-03
-5.2000000000000002e+00 +8.1522331282685592e+00 +0.0000000000000000e+00 -5.1999999246035600e+00 -2.8722990214541853e-02 -5.3645921988779655e-01 +5.3237632256857943e-03
-5.2999999999999998e+00 +8.1522033495966806e+00 +0.0000000000000000e+00 -5.2999999201695802e+00 -2.8722930495840245e-02 -5.3645932189054768e-01 +5.3238425481399758e-03
-5.4000000000000004e+00 +8.1521730037093203e+00 +0.0000000000000000e+00 -5.3999999155650800e+00 -2.8722872295815900e-02 -5.3645942429437388e-01 +5.3239225408404757e-03
-5.5000000000000000e+00 +8.1521420906137791e+00 +0.0000000000000000e+00 -5.4999999107868396e+00 -2.8722815296539687e-02 -5.3645952829450827e-01 +5.3240028906914984e-03
-5.5999999999999996e+00 +8.1521106102991308e+00 +0.0000000000000000e+00 -5.5999999058316599e+00 -2.8722759180074667e-02 -5.3645963508637240e-01 +5.3240832845928626e-03
-5.7000000000000002e+00 +8.1520785627762997e+00 +0.0000000000000000e+00 -5.6999999006963096e+00 -2.8722703628460241e-02 -5.3645974586528544e-01 +5.3241634094367976e-03
-5.7999999999999998e+00 +8.1520459480379905e+00 +0.0000000000000000e+00 -5.7999998953775700e+00 -2.8722648323726757e-02 -5.3645986182675987e-01 +5.3242429521106896e-03
-5.9000000000000004e+00 +8.1520127660915005e+00 +0.0000000000000000e+00 -5.8999998898722197e+00 -2.8722592947882365e-02 -5.3645998416626517e-01 +5.3243215994944176e-03
-5.9999999999999902e+00 +8.1519790169259103e+00 +0.0000000000000000e+00 -5.9999998841770603e+00 -2.8722537182924859e-02 -5.3646011407946947e-01 +5.3243990384625748e-03
-6.0999999999999899e+00 +8.1519447005521197e+00 +0.0000000000000000e+00 -6.0999998782888598e+00 -2.8722480743937344e-02 -5.3646025262770380e-01 +5.3244750645048662e-03
-6.1999999999999904e+00 +8.1519098169665103e+00 +0.0000000000000000e+00 -6.1999998722044003e+00 -2.8722423478444507e-02 -5.3646040033547149e-01 +5.3245499076045042e-03
-6.2999999999999901e+00 +8.1518743661654298e+00 +0.0000000000000000e+00 -6.2999998659204701e+00 -2.8722365267085097e-02 -5.3646055759303057e-01 +5.3246239063715756e-03
-6.3999999999999897e+00 +8.1518383481488907e+00 +0.0000000000000000e+00 -6.3999998594338496e+00 -2.8722305990500758e-02 -5.3646072479060569e-01 +5.3246973994194617e-03
-6.4999999999999902e+00 +8.1518017629241495e+00 +0.0000000000000000e+00 -6.4999998527413201e+00 -2.8722245529335028e-02 -5.3646090231836163e-01 +5.3247707253647547e-03
-6.5999999999999899e+00 +8.1517646104839496e+00 +0.0000000000000000e+00 -6.5999998458396698e+00 -2.8722183764241859e-02 -5.3646109056656233e-01 +5.3248442228290933e-03
-6.6999999999999904e+00 +8.1517268908319203e+00 +0.0000000000000000e+00 -6.6999998387256703e+00 -2.8722120575876215e-02 -5.3646128992538356e-01 +5.3249182304374518e-03
-6.7999999999999901e+00 +8.1516886039680703e+00 +0.0000000000000000e+00 -6.7999998313961196e+00 -2.8722055844899910e-02 -5.3646150078501875e-01 +5.3249930868194311e-03
-6.8999999999999897e+00 +8.1516497498923908e+00 +0.0000000000000000e+00 -6.8999998238477902e+00 -2.8721989451980536e-02 -5.3646172353565280e-01 +5.3250691306091762e-03
-6.9999999999999902e+00 +8.1516103286012402e+00 +0.0000000000000000e+00 -6.9999998160774597e+00 -2.8721921277793060e-02 -5.3646195856748757e-01 +5.3251467004458595e-03
-7.0999999999999899e+00 +8.1515703400982602e+00 +0.0000000000000000e+00 -7.0999998080819298e+00 -2.8721851203015996e-02 -5.3646220627065988e-01 +5.3252261349730446e-03
-7.1999999999999904e+00 +8.1515297843834595e+00 +0.0000000000000000e+00 -7.1999997998579603e+00 -2.8721779108335840e-02 -5.3646246703532374e-01 +5.3253077728397120e-03
-7.2999999999999901e+00 +8.1514886614531896e+00 +0.0000000000000000e+00 -7.2999997914023496e+00 -2.8721704874447369e-02 -5.3646274125164795e-01 +5.3253919527004546e-03
-7.3999999999999897e+00 +8.1514469713147300e+00 +0.0000000000000000e+00 -7.3999997827118804e+00 -2.8721628382048323e-02 -5.3646302930970879e-01 +5.3254790132145858e-03
-7.4999999999999902e+00 +8.1514047139571595e+00 +0.0000000000000000e+00 -7.4999997737833199e+00 -2.8721549511850849e-02 -5.3646333159970383e-01 +5.3255692930485000e-03
-7.5999999999999899e+00 +8.1513618893914099e+00 +0.0000000000000000e+00 -7.5999997646134698e+00 -2.8721468144566491e-02 -5.3646364851165629e-01 +5.3256631308729015e-03
-7.6999999999999904e+00 +8.1513184976138309e+00 +0.0000000000000000e+00 -7.6999997551991104e+00 -2.8721384160920366e-02 -5.3646398043568366e-01 +5.3257608653657007e-03
-7.7999999999999901e+00 +8.1512745386207808e+00 +0.0000000000000000e+00 -7.7999997455370096e+00 -2.8721297441645897e-02 -5.3646432776188890e-01 +5.3258628352111309e-03
-7.8999999999999897e+00 +8.1512300124159101e+00 +0.0000000000000000e+00 -7.8999997356239602e+00 -2.8721207867482283e-02 -5.3646469088030546e-01 +5.3259693790993993e-03
-7.9999999999999902e+00 +8.1511849189955701e+00 +0.0000000000000000e+00 -7.9999997254567399e+00 -2.8721115319180392e-02 -5.3646507018100564e-01 +5.3260808357279621e-03
-8.0999999999999908e+00 +8.1511392583670403e+00 +0.0000000000000000e+00 -8.0999997150321406e+00 -2.8721019727812682e-02 -5.3646546571456011e-01 +5.3261974180195733e-03
-8.1999999999999904e+00 +8.1510930305230396e+00 +0.0000000000000000e+00 -8.1999997043469399e+00 -2.8720921225729945e-02 -5.3646587617400310e-01 +5.3263188357739171e-03
-8.2999999999999901e+00 +8.1510462354672200e+00 +0.0000000000000000e+00 -8.2999996933979094e+00 -2.8720819995592839e-02 -5.3646629991287431e-01 +5.3264446730034920e-03
-8.3999999999999897e+00 +8.1509988731995708e+00 +0.0000000000000000e+00 -8.3999996821818605e+00 -2.8720716220058784e-02 -5.3646673528473887e-01 +5.3265745137164727e-03
-8.4999999999999893e+00 +8.1509509437164507e+00 +0.0000000000000000e+00 -8.4999996706955496e+00 -2.8720610081781728e-02 -5.3646718064318744e-01 +5.3267079419165499e-03
-8.5999999999999908e+00 +8.1509024470215099e+00 +0.0000000000000000e+00 -8.5999996589357703e+00 -2.8720501763407881e-02 -5.3646763434175437e-01 +5.3268445416019767e-03
-8.6999999999999904e+00 +8.1508533831147396e+00 +0.0000000000000000e+00 -8.6999996468993004e+00 -2.8720391447579725e-02 -5.3646809473399970e-01 +5.3269838967662077e-03
-8.7999999999999794e+00 +8.1508037519961398e+00 +0.0000000000000000e+00 -8.7999996345829192e+00 -2.8720279316934386e-02 -5.3646856017348088e-01 +5.3271255913974859e-03
-8.8999999999999808e+00 +8.1507535536620708e+00 +0.0000000000000000e+00 -8.8999996219834205e+00 -2.8720165554104993e-02 -5.3646902901378035e-01 +5.3272692094789506e-03
-8.9999999999999805e+00 +8.1507027881161793e+00 +0.0000000000000000e+00 -8.9999996090975891e+00 -2.8720050341716249e-02 -5.3646949960842483e-01 +5.3274143349876764e-03
-9.0999999999999801e+00 +8.1506514553584601e+00 +0.0000000000000000e+00 -9.0999995959221902e+00 -2.8719933862388490e-02 -5.3646997031096577e-01 +5.3275605518953353e-03
-9.1999999999999797e+00 +8.1505995553889097e+00 +0.0000000000000000e+00 -9.1999995824540193e+00 -2.8719816298736107e-02 -5.3647043947495154e-01 +5.3277074441677617e-03
-9.2999999999999794e+00 +8.1505470882038900e+00 +0.0000000000000000e+00 -9.2999995686898593e+00 -2.8719697833368828e-02 -5.3647090545395615e-01 +5.3278545957650752e-03
-9.3999999999999808e+00 +8.1504940538070496e+00 +0.0000000000000000e+00 -9.3999995546264898e+00 -2.8719578648887297e-02 -5.3647136660149652e-01 +5.3280015906407123e-03
-9.4999999999999805e+00 +8.1504404521983798e+00 +0.0000000000000000e+00 -9.4999995402606903e+00 -2.8719458927887166e-02 -5.3647182127111370e-01 +5.3281480127420882e-03
-9.5999999999999801e+00 +8.1503862833778804e+00 +0.0000000000000000e+00 -9.5999995255892507e+00 -2.8719338852957549e-02 -5.3647226781634760e-01 +5.3282934460101763e-03
-9.6999999999999797e+00 +8.1503315473419207e+00 +0.0000000000000000e+00 -9.6999995106089507e+00 -2.8719218606682133e-02 -5.3647270459076035e-01 +5.3284374743796130e-03
-9.7999999999999794e+00 +8.1502762440941297e+00 +0.0000000000000000e+00 -9.7999994953165697e+00 -2.8719098371634999e-02 -5.3647312994785901e-01 +5.3285796817777497e-03
-9.8999999999999808e+00 +8.1502203736345091e+00 +0.0000000000000000e+00 -9.8999994797088906e+00 -2.8718978330384521e-02 -5.3647354224117394e-01 +5.3287196521252991e-03
-9.9999999999999805e+00 +8.1501639359594300e+00 +0.0000000000000000e+00 -9.9999994637827001e+00 -2.8718858665493233e-02 -5.3647393982425950e-01 +5.3288569693361893e-03
-1.0100000000000000e+01 +8.1501069310761505e+00 +0.0000000000000000e+00 -1.0099999447534801e+01 -2.8718739598327148e-02 -5.3647432179820398e-01 +5.3289913316638881e-03
-1.0199999999999999e+01 +8.1500493589774106e+00 +0.0000000000000000e+00 -1.0199999430961901e+01 -2.8718621505515293e-02 -5.3647469025470595e-01 +5.3291228947574421e-03
-1.0300000000000001e+01 +8.1499912196668394e+00 +0.0000000000000000e+00 -1.0299999414060901e+01 -2.8718504802498022e-02 -5.3647504803299773e-01 +5.3292519286206961e-03
-1.0400000000000000e+01 +8.1499325131444493e+00 +0.0000000000000000e+00 -1.0399999396828500e+01 -2.8718389904716930e-02 -5.3647539797230881e-01 +5.3293787032633478e-03
-1.0500000000000000e+01 +8.1498732394065900e+00 +0.0000000000000000e+00 -1.0499999379261400e+01 -2.8718277227614886e-02 -5.3647574291186373e-01 +5.3295034887010954e-03
-1.0600000000000000e+01 +8.1498133984568994e+00 +0.0000000000000000e+00 -1.0599999361356600e+01 -2.8718167186631918e-02 -5.3647608569080285e-01 +5.3296265549550026e-03
-1.0699999999999999e+01 +8.1497529902953794e+00 +0.0000000000000000e+00 -1.0699999343110701e+01 -2.8718060197209461e-02 -5.3647642914826055e-01 +5.3297481720524457e-03
-1.0800000000000001e+01 +8.1496920149220404e+00 +0.0000000000000000e+00 -1.0799999324520600e+01 -2.8717956674788898e-02 -5.3647677612333788e-01 +5.3298686100270122e-03
-1.0900000000000000e+01 +8.1496304723332305e+00 +0.0000000000000000e+00 -1.0899999305583000e+01 -2.8717857034813114e-02 -5.3647712945512938e-01 +5.3299881389189301e-03
-1.1000000000000000e+01 +8.1495683625325892e+00 +0.0000000000000000e+00 -1.0999999286294800e+01 -2.8717761692722294e-02 -5.3647749198264094e-01 +5.3301070287744027e-03
-1.1100000000000000e+01 +8.1495056855201309e+00 +0.0000000000000000e+00 -1.1099999266652601e+01 -2.8717671063958165e-02 -5.3647786654487006e-01 +5.3302255496465835e-03
-1.1199999999999999e+01 +8.1494424412958306e+00 +0.0000000000000000e+00 -1.1199999246653300e+01 -2.8717585563962644e-02 -5.3647825598077858e-01 +5.3303439715954599e-03
-1.1300000000000001e+01 +8.1493786298560700e+00 +0.0000000000000000e+00 -1.1299999226293700e+01 -2.8717505608179265e-02 -5.3647866312931680e-01 +5.3304625646882825e-03
-1.1400000000000000e+01 +8.1493142512044905e+00 +0.0000000000000000e+00 -1.1399999205570500e+01 -2.8717431612049035e-02 -5.3647909082934564e-01 +5.3305815989989000e-03
-1.1500000000000000e+01 +8.1492493053447106e+00 +0.0000000000000000e+00 -1.1499999184480499e+01 -2.8717363991013326e-02 -5.3647954191968583e-01 +5.3307013446084687e-03
-1.1600000000000000e+01 +8.1491837922658306e+00 +0.0000000000000000e+00 -1.1599999163020600e+01 -2.8717303160519403e-02 -5.3648001923922672e-01 +5.3308220716066805e-03
-1.1699999999999999e+01 +8.1491177119787608e+00 +0.0000000000000000e+00 -1.1699999141187400e+01 -2.8717249536006649e-02 -5.3648052562665727e-01 +5.3309440500892208e-03
