# field on trajectory
# s[mm] rx[mm] ry[mm] rz[mm] bx[T] by[T] bz[T]
0.0000000000000000e+00 +8.1529999999999987e+00 +0.0000000000000000e+00 +0.0000000000000000e+00 -2.9916105040522691e-02 -5.6451695655726641e-01 +5.6115914734410416e-03
-1.0000000000000001e-01 +8.1529997170515305e+00 +0.0000000000000000e+00 -9.9999999999466266e-02 -2.9916025820070011e-02 -5.6451694629403182e-01 +5.6115521444368086e-03
-2.0000000000000001e-01 +8.1529988682061330e+00 +0.0000000000000000e+00 -1.9999999999573015e-01 -2.9915950350928238e-02 -5.6451694921638251e-01 +5.6115141335210767e-03
-3.0000000000000004e-01 +8.1529974534638026e+00 +0.0000000000000000e+00 -2.9999999998558924e-01 -2.9915878653458041e-02 -5.6451696410172691e-01 +5.6114774713635733e-03
-4.0000000000000002e-01 +8.1529954728245251e+00 +0.0000000000000000e+00 -3.9999999996584112e-01 -2.9915810748016733e-02 -5.6451698972747233e-01 +5.6114421886314372e-03
-5.0000000000000000e-01 +8.1529929262882739e+00 +0.0000000000000000e+00 -4.9999999993328348e-01 -2.9915746654958844e-02 -5.6451702487102551e-01 +5.6114083159896433e-03
-5.9999999999999998e-01 +8.1529898138550134e+00 +0.0000000000000000e+00 -5.9999999988471386e-01 -2.9915686394636740e-02 -5.6451706830979498e-01 +5.6113758841014258e-03
-6.9999999999999996e-01 +8.1529861355247029e+00 +0.0000000000000000e+00 -6.9999999981692984e-01 -2.9915629987401198e-02 -5.6451711882119315e-01 +5.6113449236286960e-03
-7.9999999999999993e-01 +8.1529818912972889e+00 +0.0000000000000000e+00 -7.9999999972672908e-01 -2.9915577453602068e-02 -5.6451717518263689e-01 +5.6113154652324597e-03
-8.9999999999999991e-01 +8.1529770811727165e+00 +0.0000000000000000e+00 -8.9999999961090915e-01 -2.9915528813588790e-02 -5.6451723617154981e-01 +5.6112875395732432e-03
-9.9999999999999989e-01 +8.1529717051509252e+00 +0.0000000000000000e+00 -9.9999999946626761e-01 -2.9915484087711081e-02 -5.6451730056536431e-01 +5.6112611773115120e-03
-1.0999999999999999e+00 +8.1529657632318511e+00 +0.0000000000000000e+00 -1.0999999992896021e+00 -2.9915443296319465e-02 -5.6451736714152279e-01 +5.6112364091080889e-03
-1.2000000000000000e+00 +8.1529592554154267e+00 +0.0000000000000000e+00 -1.1999999990777104e+00 -2.9915406459765932e-02 -5.6451743467747995e-01 +5.6112132656245808e-03
-1.3000000000000000e+00 +8.1529521817015844e+00 +0.0000000000000000e+00 -1.2999999988273898e+00 -2.9915373598404481e-02 -5.6451750195070316e-01 +5.6111917775237838e-03
-1.4000000000000001e+00 +8.1529445420902587e+00 +0.0000000000000000e+00 -1.3999999985354381e+00 -2.9915344732591796e-02 -5.6451756773867579e-01 +5.6111719754701308e-03
-1.5000000000000002e+00 +8.1529363365813836e+00 +0.0000000000000000e+00 -1.4999999981986527e+00 -2.9915319882687797e-02 -5.6451763081889805e-01 +5.6111538901300866e-03
-1.6000000000000003e+00 +8.1529275651748954e+00 +0.0000000000000000e+00 -1.5999999978138315e+00 -2.9915299069056215e-02 -5.6451768996888863e-01 +5.6111375521725728e-03
-1.7000000000000004e+00 +8.1529182278707353e+00 +0.0000000000000000e+00 -1.6999999973777717e+00 -2.9915282312065278e-02 -5.6451774396618692e-01 +5.6111229922694052e-03
-1.8000000000000005e+00 +8.1529083246688501e+00 +0.0000000000000000e+00 -1.7999999968872713e+00 -2.9915269632088227e-02 -5.6451779158835458e-01 +5.6111102410956962e-03
-1.9000000000000006e+00 +8.1528978555691918e+00 +0.0000000000000000e+00 -1.8999999963391276e+00 -2.9915261049503969e-02 -5.6451783161297608e-01 +5.6110993293302771e-03
-2.0000000000000004e+00 +8.1528868205717213e+00 +0.0000000000000000e+00 -1.9999999957301384e+00 -2.9915256584697687e-02 -5.6451786281766270e-01 +5.6110902876561342e-03
-2.1000000000000005e+00 +8.1528752196764067e+00 +0.0000000000000000e+00 -2.0999999950571011e+00 -2.9915256216442896e-02 -5.6451788431633820e-01 +5.6110831370922796e-03
-2.2000000000000006e+00 +8.1528630528832284e+00 +0.0000000000000000e+00 -2.1999999943168134e+00 -2.9915259757043889e-02 -5.6451789656809548e-01 +5.6110778599870277e-03
-2.3000000000000007e+00 +8.1528503201921723e+00 +0.0000000000000000e+00 -2.2999999935060726e+00 -2.9915266977186567e-02 -5.6451790036833127e-01 +5.6110744290210259e-03
-2.4000000000000008e+00 +8.1528370216032364e+00 +0.0000000000000000e+00 -2.3999999926216771e+00 -2.9915277647555964e-02 -5.6451789651245887e-01 +5.6110728168752922e-03
-2.5000000000000009e+00 +8.1528231571164245e+00 +0.0000000000000000e+00 -2.4999999916604239e+00 -2.9915291538835865e-02 -5.6451788579590745e-01 +5.6110729962310915e-03
-2.6000000000000010e+00 +8.1528087267317488e+00 +0.0000000000000000e+00 -2.5999999906191102e+00 -2.9915308421708454e-02 -5.6451786901412360e-01 +5.6110749397698121e-03
-2.7000000000000011e+00 +8.1527937304492255e+00 +0.0000000000000000e+00 -2.6999999894945343e+00 -2.9915328066854006e-02 -5.6451784696257024e-01 +5.6110786201728404e-03
-2.8000000000000012e+00 +8.1527781682688776e+00 +0.0000000000000000e+00 -2.7999999882834938e+00 -2.9915350244950487e-02 -5.6451782043672694e-01 +5.6110840101214364e-03
-2.9000000000000012e+00 +8.1527620401907317e+00 +0.0000000000000000e+00 -2.8999999869827859e+00 -2.9915374726673206e-02 -5.6451779023209114e-01 +5.6110910822966048e-03
-3.0000000000000013e+00 +8.1527453462148181e+00 +0.0000000000000000e+00 -2.9999999855892083e+00 -2.9915401282694508e-02 -5.6451775714417696e-01 +5.6110998093789818e-03
-3.1000000000000014e+00 +8.1527280863411704e+00 +0.0000000000000000e+00 -3.0999999840995587e+00 -2.9915429683683367e-02 -5.6451772196851568e-01 +5.6111101640486955e-03
-3.2000000000000015e+00 +8.1527102605698261e+00 +0.0000000000000000e+00 -3.1999999825106347e+00 -2.9915459700305069e-02 -5.6451768550065617e-01 +5.6111221189852484e-03
-3.3000000000000016e+00 +8.1526918689008205e+00 +0.0000000000000000e+00 -3.2999999808192340e+00 -2.9915491103220841e-02 -5.6451764853616482e-01 +5.6111356468673962e-03
-3.4000000000000017e+00 +8.1526729113341911e+00 +0.0000000000000000e+00 -3.3999999790221538e+00 -2.9915523663087557e-02 -5.6451761187062588e-01 +5.6111507203730204e-03
-3.5000000000000018e+00 +8.1526533878699770e+00 +0.0000000000000000e+00 -3.4999999771161923e+00 -2.9915557150557253e-02 -5.6451757629964139e-01 +5.6111673121789938e-03
-3.6000000000000019e+00 +8.1526332985082135e+00 +0.0000000000000000e+00 -3.5999999750981466e+00 -2.9915591336276918e-02 -5.6451754261883036e-01 +5.6111853949610711e-03
-3.7000000000000020e+00 +8.1526126432489345e+00 +0.0000000000000000e+00 -3.6999999729648145e+00 -2.9915625990888081e-02 -5.6451751162383135e-01 +5.6112049413937510e-03
-3.8000000000000020e+00 +8.1525914220921720e+00 +0.0000000000000000e+00 -3.7999999707129937e+00 -2.9915660885026448e-02 -5.6451748411030001e-01 +5.6112259241501653e-03
-3.9000000000000021e+00 +8.1525696350379526e+00 +0.0000000000000000e+00 -3.8999999683394817e+00 -2.9915695789321569e-02 -5.6451746087391075e-01 +5.6112483159019401e-03
-4.0000000000000018e+00 +8.1525472820863030e+00 +0.0000000000000000e+00 -3.9999999658410759e+00 -2.9915730474396503e-02 -5.6451744271035631e-01 +5.6112720893190752e-03
-4.1000000000000014e+00 +8.1525243632372408e+00 +0.0000000000000000e+00 -4.0999999632145743e+00 -2.9915764609081300e-02 -5.6451743027223822e-01 +5.6112972166098935e-03
-4.2000000000000011e+00 +8.1525008784907786e+00 +0.0000000000000000e+00 -4.1999999604567746e+00 -2.9915797455058242e-02 -5.6451742363970858e-01 +5.6113236681424265e-03
-4.3000000000000007e+00 +8.1524768278469235e+00 +0.0000000000000000e+00 -4.2999999575644736e+00 -2.9915828172228126e-02 -5.6451742274974859e-01 +5.6113514138264910e-03
-4.4000000000000004e+00 +8.1524522113056790e+00 +0.0000000000000000e+00 -4.3999999545344695e+00 -2.9915855920498127e-02 -5.6451742753926570e-01 +5.6113804235740448e-03
-4.5000000000000000e+00 +8.1524270288670397e+00 +0.0000000000000000e+00 -4.4999999513635602e+00 -2.9915879859782255e-02 -5.6451743794509013e-01 +5.6114106672993077e-03
-4.5999999999999996e+00 +8.1524012805309969e+00 +0.0000000000000000e+00 -4.5999999480485423e+00 -2.9915899150001733e-02 -5.6451745390396790e-01 +5.6114421149188664e-03
-4.6999999999999993e+00 +8.1523749662975344e+00 +0.0000000000000000e+00 -4.6999999445862146e+00 -2.9915912951085512e-02 -5.6451747535255792e-01 +5.6114747363517938e-03
-4.7999999999999989e+00 +8.1523480861666329e+00 +0.0000000000000000e+00 -4.7999999409733736e+00 -2.9915920422970699e-02 -5.6451750222742525e-01 +5.6115085015197514e-03
-4.8999999999999986e+00 +8.1523206401382655e+00 +0.0000000000000000e+00 -4.8999999372068173e+00 -2.9915920725602958e-02 -5.6451753446503716e-01 +5.6115433803471089e-03
-4.9999999999999982e+00 +8.1522926282124004e+00 +0.0000000000000000e+00 -4.9999999332833438e+00 -2.9915913018937024e-02 -5.6451757200175801e-01 +5.6115793427610611e-03
-5.0999999999999979e+00 +8.1522640503890003e+00 +0.0000000000000000e+00 -5.0999999291997504e+00 -2.9915896462937103e-02 -5.6451761477384377e-01 +5.6116163586917237e-03
-5.1999999999999975e+00 +8.1522349066680242e+00 +0.0000000000000000e+00 -5.1999999249528344e+00 -2.9915870217577311e-02 -5.6451766271743731e-01 +5.6116543980722668e-03
-5.2999999999999972e+00 +8.1522051970494260e+00 +0.0000000000000000e+00 -5.2999999205393937e+00 -2.9915833442842144e-02 -5.6451771576856358e-01 +5.6116934308390069e-03
-5.3999999999999968e+00 +8.1521749215331525e+00 +0.0000000000000000e+00 -5.3999999159562257e+00 -2.9915785298726946e-02 -5.6451777386312452e-01 +5.6117334269315316e-03
-5.4999999999999964e+00 +8.1521440801191467e+00 +0.0000000000000000e+00 -5.4999999112001277e+00 -2.9915724945238271e-02 -5.6451783693689406e-01 +5.6117743562928138e-03
-5.5999999999999961e+00 +8.1521126728073448e+00 +0.0000000000000000e+00 -5.5999999062678976e+00 -2.9915651542394443e-02 -5.6451790492551313e-01 +5.6118161888693147e-03
-5.6999999999999957e+00 +8.1520806995976809e+00 +0.0000000000000000e+00 -5.6999999011563336e+00 -2.9915564250225901e-02 -5.6451797776448431e-01 +5.6118588946110978e-03
-5.7999999999999954e+00 +8.1520481604900841e+00 +0.0000000000000000e+00 -5.7999998958622321e+00 -2.9915462228775735e-02 -5.6451805538916766e-01 +5.6119024434719495e-03
-5.8999999999999950e+00 +8.1520150554844761e+00 +0.0000000000000000e+00 -5.8999998903823911e+00 -2.9915344638100038e-02 -5.6451813773477466e-01 +5.6119468054094844e-03
-5.9999999999999947e+00 +8.1519813845807754e+00 +0.0000000000000000e+00 -5.9999998847136089e+00 -2.9915210638268460e-02 -5.6451822473636426e-01 +5.6119919503852551e-03
-6.0999999999999943e+00 +8.1519471477788965e+00 +0.0000000000000000e+00 -6.0999998788526826e+00 -2.9915059887866951e-02 -5.6451831638193417e-01 +5.6120378428871536e-03
-6.1999999999999940e+00 +8.1519123450787490e+00 +0.0000000000000000e+00 -6.1999998727964094e+00 -2.9914894039506541e-02 -5.6451841287180715e-01 +5.6120844254953593e-03
-6.2999999999999936e+00 +8.1518769764802368e+00 +0.0000000000000000e+00 -6.2999998665415866e+00 -2.9914715244302722e-02 -5.6451851445951629e-01 +5.6121316353140212e-03
-6.3999999999999932e+00 +8.1518410419832588e+00 +0.0000000000000000e+00 -6.3999998600850123e+00 -2.9914525653367975e-02 -5.6451862139874143e-01 +5.6121794094487996e-03
-6.4999999999999929e+00 +8.1518045415877083e+00 +0.0000000000000000e+00 -6.4999998534234846e+00 -2.9914327417811443e-02 -5.6451873394331387e-01 +5.6122276850068637e-03
-6.5999999999999925e+00 +8.1517674752934752e+00 +0.0000000000000000e+00 -6.5999998465537999e+00 -2.9914122688738724e-02 -5.6451885234722521e-01 +5.6122763990968929e-03
-6.6999999999999922e+00 +8.1517298431004406e+00 +0.0000000000000000e+00 -6.6999998394727562e+00 -2.9913913617251590e-02 -5.6451897686463448e-01 +5.6123254888290801e-03
-6.7999999999999918e+00 +8.1516916450084818e+00 +0.0000000000000000e+00 -6.7999998321771518e+00 -2.9913702354447666e-02 -5.6451910774987424e-01 +5.6123748913151326e-03
-6.8999999999999915e+00 +8.1516528810174691e+00 +0.0000000000000000e+00 -6.8999998246637828e+00 -2.9913491051420250e-02 -5.6451924525746022e-01 +5.6124245436682775e-03
-6.9999999999999911e+00 +8.1516135511272658e+00 +0.0000000000000000e+00 -6.9999998169294475e+00 -2.9913281859257963e-02 -5.6451938964209569e-01 +5.6124743830032551e-03
-7.0999999999999908e+00 +8.1515736553377280e+00 +0.0000000000000000e+00 -7.0999998089709440e+00 -2.9913076929044526e-02 -5.6451954115868075e-01 +5.6125243464363282e-03
-7.1999999999999904e+00 +8.1515331936487048e+00 +0.0000000000000000e+00 -7.1999998007850685e+00 -2.9912878411858430e-02 -5.6451970006231900e-01 +5.6125743710852853e-03
-7.2999999999999901e+00 +8.1514921660600379e+00 +0.0000000000000000e+00 -7.2999997923686193e+00 -2.9912688458772759e-02 -5.6451986660832409e-01 +5.6126243940694326e-03
-7.3999999999999897e+00 +8.1514505725715622e+00 +0.0000000000000000e+00 -7.3999997837183944e+00 -2.9912509220854810e-02 -5.6452004105222797e-01 +5.6126743525096064e-03
-7.4999999999999893e+00 +8.1514084131831037e+00 +0.0000000000000000e+00 -7.4999997748311902e+00 -2.9912342849165888e-02 -5.6452022364978771e-01 +5.6127241835281652e-03
-7.5999999999999890e+00 +8.1513656878944811e+00 +0.0000000000000000e+00 -7.5999997657038048e+00 -2.9912191494760994e-02 -5.6452041465699243e-01 +5.6127738242490073e-03
-7.6999999999999886e+00 +8.1513223967055044e+00 +0.0000000000000000e+00 -7.6999997563330354e+00 -2.9912057308688580e-02 -5.6452061433007128e-01 +5.6128232117975485e-03
-7.7999999999999883e+00 +8.1512785396159746e+00 +0.0000000000000000e+00 -7.7999997467156801e+00 -2.9911942441990230e-02 -5.6452082292549988e-01 +5.6128722833007497e-03
-7.8999999999999879e+00 +8.1512341166256839e+00 +0.0000000000000000e+00 -7.8999997368485362e+00 -2.9911849045700416e-02 -5.6452104070000841e-01 +5.6129209758871024e-03
-7.9999999999999876e+00 +8.1511891277344155e+00 +0.0000000000000000e+00 -7.9999997267284009e+00 -2.9911779270846192e-02 -5.6452126791058754e-01 +5.6129692266866345e-03
-8.0999999999999872e+00 +8.1511435729419439e+00 +0.0000000000000000e+00 -8.0999997163520714e+00 -2.9911734614409217e-02 -5.6452150471559492e-01 +5.6130169858873858e-03
-8.1999999999999869e+00 +8.1510974522480328e+00 +0.0000000000000000e+00 -8.1999997057163458e+00 -2.9911713957189764e-02 -5.6452175087792456e-01 +5.6130642558989401e-03
-8.2999999999999865e+00 +8.1510507656524354e+00 +0.0000000000000000e+00 -8.2999996948180215e+00 -2.9911715525928334e-02 -5.6452200606149949e-01 +5.6131110521714525e-03
-8.3999999999999861e+00 +8.1510035131548992e+00 +0.0000000000000000e+00 -8.3999996836538955e+00 -2.9911737547353413e-02 -5.6452226993013876e-01 +5.6131573901368279e-03
-8.4999999999999858e+00 +8.1509556947551598e+00 +0.0000000000000000e+00 -8.4999996722207651e+00 -2.9911778248181125e-02 -5.6452254214755437e-01 +5.6132032852081364e-03
-8.5999999999999854e+00 +8.1509073104529470e+00 +0.0000000000000000e+00 -8.5999996605154276e+00 -2.9911835855114935e-02 -5.6452282237734752e-01 +5.6132487527790487e-03
-8.6999999999999851e+00 +8.1508583602479820e+00 +0.0000000000000000e+00 -8.6999996485346802e+00 -2.9911908594845115e-02 -5.6452311028300184e-01 +5.6132938082232289e-03
-8.7999999999999847e+00 +8.1508088441399753e+00 +0.0000000000000000e+00 -8.7999996362753219e+00 -2.9911994694048535e-02 -5.6452340552788194e-01 +5.6133384668937761e-03
-8.8999999999999844e+00 +8.1507587621286355e+00 +0.0000000000000000e+00 -8.8999996237341481e+00 -2.9912092379388303e-02 -5.6452370777522698e-01 +5.6133827441226395e-03
-8.9999999999999840e+00 +8.1507081142136588e+00 +0.0000000000000000e+00 -8.9999996109079579e+00 -2.9912199877513271e-02 -5.6452401668814800e-01 +5.6134266552200288e-03
-9.0999999999999837e+00 +8.1506569003947380e+00 +0.0000000000000000e+00 -9.0999995977935466e+00 -2.9912315415057820e-02 -5.6452433192962226e-01 +5.6134702154738390e-03
-9.1999999999999833e+00 +8.1506051206715604e+00 +0.0000000000000000e+00 -9.1999995843877134e+00 -2.9912437218641397e-02 -5.6452465316248945e-01 +5.6135134401490714e-03
-9.2999999999999829e+00 +8.1505527750438045e+00 +0.0000000000000000e+00 -9.2999995706872554e+00 -2.9912563514868203e-02 -5.6452498004944773e-01 +5.6135563444872491e-03
-9.3999999999999826e+00 +8.1504998635111434e+00 +0.0000000000000000e+00 -9.3999995566889698e+00 -2.9912692530326829e-02 -5.6452531225304869e-01 +5.6135989437058366e-03
-9.4999999999999822e+00 +8.1504463860732468e+00 +0.0000000000000000e+00 -9.4999995423896539e+00 -2.9912822491589879e-02 -5.6452564943569361e-01 +5.6136412529976653e-03
-9.5999999999999819e+00 +8.1503923427297771e+00 +0.0000000000000000e+00 -9.5999995277861050e+00 -2.9912951625213648e-02 -5.6452599125962910e-01 +5.6136832875303419e-03
-9.6999999999999815e+00 +8.1503377334803950e+00 +0.0000000000000000e+00 -9.6999995128751202e+00 -2.9913078157737708e-02 -5.6452633738694258e-01 +5.6137250624456753e-03
-9.7999999999999812e+00 +8.1502825583247542e+00 +0.0000000000000000e+00 -9.7999994976534968e+00 -2.9913200315684608e-02 -5.6452668747955725e-01 +5.6137665928590909e-03
-9.8999999999999808e+00 +8.1502268172625065e+00 +0.0000000000000000e+00 -9.8999994821180319e+00 -2.9913316325559484e-02 -5.6452704119923003e-01 +5.6138078938590555e-03
-9.9999999999999805e+00 +8.1501705102932984e+00 +0.0000000000000000e+00 -9.9999994662655229e+00 -2.9913424413849712e-02 -5.6452739820754494e-01 +5.6138489805064940e-03
-1.0099999999999980e+01 +8.1501136374167746e+00 +0.0000000000000000e+00 -1.0099999450092767e+01 -2.9913523194186449e-02 -5.6452775811568845e-01 +5.6138898627166155e-03
-1.0199999999999980e+01 +8.1500561986325764e+00 +0.0000000000000000e+00 -1.0199999433596563e+01 -2.9913612828859275e-02 -5.6452812033379185e-01 +5.6139305299239082e-03
-1.0299999999999979e+01 +8.1499981939403412e+00 +0.0000000000000000e+00 -1.0299999416773707e+01 -2.9913693867325869e-02 -5.6452848422161117e-01 +5.6139709664676640e-03
-1.0399999999999979e+01 +8.1499396233397068e+00 +0.0000000000000000e+00 -1.0399999399620995e+01 -2.9913766859038772e-02 -5.6452884913874857e-01 +5.6140111567151195e-03
-1.0499999999999979e+01 +8.1498804868303090e+00 +0.0000000000000000e+00 -1.0499999382135227e+01 -2.9913832353445441e-02 -5.6452921444465110e-01 +5.6140510850622594e-03
-1.0599999999999978e+01 +8.1498207844117854e+00 +0.0000000000000000e+00 -1.0599999364313199e+01 -2.9913890899988138e-02 -5.6452957949860405e-01 +5.6140907359345940e-03
-1.0699999999999978e+01 +8.1497605160837701e+00 +0.0000000000000000e+00 -1.0699999346151706e+01 -2.9913943048103988e-02 -5.6452994365973153e-01 +5.6141300937879767e-03
-1.0799999999999978e+01 +8.1496996818459007e+00 +0.0000000000000000e+00 -1.0799999327647548e+01 -2.9913989347224890e-02 -5.6453030628698897e-01 +5.6141691431093911e-03
-1.0899999999999977e+01 +8.1496382816978148e+00 +0.0000000000000000e+00 -1.0899999308797522e+01 -2.9914030346777545e-02 -5.6453066673916219e-01 +5.6142078684177444e-03
-1.0999999999999977e+01 +8.1495763156391536e+00 +0.0000000000000000e+00 -1.0999999289598424e+01 -2.9914066596183425e-02 -5.6453102437486369e-01 +5.6142462542646751e-03
-1.1099999999999977e+01 +8.1495137836695619e+00 +0.0000000000000000e+00 -1.1099999270047054e+01 -2.9914098644858719e-02 -5.6453137855252855e-01 +5.6142842852353334e-03
-1.1199999999999976e+01 +8.1494506857886844e+00 +0.0000000000000000e+00 -1.1199999250140205e+01 -2.9914127042214383e-02 -5.6453172863041123e-01 +5.6143219459492046e-03
-1.1299999999999976e+01 +8.1493870219961746e+00 +0.0000000000000000e+00 -1.1299999229874677e+01 -2.9914152337656028e-02 -5.6453207396658200e-01 +5.6143592210608712e-03
-1.1399999999999975e+01 +8.1493227922916862e+00 +0.0000000000000000e+00 -1.1399999209247268e+01 -2.9914175080583999e-02 -5.6453241391892472e-01 +5.6143960952608415e-03
-1.1499999999999975e+01 +8.1492579966748817e+00 +0.0000000000000000e+00 -1.1499999188254773e+01 -2.9914195820393296e-02 -5.6453274784513130e-01 +5.6144325532763301e-03
-1.1599999999999975e+01 +8.1491926351454289e+00 +0.0000000000000000e+00 -1.1599999166893989e+01 -2.9914215106473560e-02 -5.6453307510270001e-01 +5.6144685798720628e-03
-1.1699999999999974e+01 +8.1491267077030010e+00 +0.0000000000000000e+00 -1.1699999145161714e+01 -2.9914233488209083e-02 -5.6453339504893085e-01 +5.6145041598510597e-03
