# multipoles
# s[mm] polynom_b[n=0][T/m^n] polynom_b[n=1][T/m^n] polynom_b[n=2][T/m^n] polynom_b[n=3][T/m^n] polynom_b[n=4][T/m^n] polynom_b[n=5][T/m^n] polynom_b[n=6][T/m^n] 
+0.0000000000000000e+00 -5.6452167974556988e-01 +7.7348496805269935e+00 -6.5778104328867204e-01 -5.7923570546902830e+01 +8.5556875897409336e+03 +1.3801377952869967e+05 -4.6779565358240709e+07 
-1.0000000000000001e-01 -5.6452167033893175e-01 +7.7347940238589388e+00 -6.5783130908429699e-01 -5.6991905823869999e+01 +8.5433780164340697e+03 +1.3459488774198221e+05 -4.6715022047397710e+07 
-2.0000000000000001e-01 -5.6452166605326681e-01 +7.7347344993281855e+00 -6.5745035845788313e-01 -5.6029866862656313e+01 +8.5237086229538018e+03 +1.3125732279817277e+05 -4.6611006210461199e+07 
-3.0000000000000004e-01 -5.6452166619029631e-01 +7.7346716148667438e+00 -6.5668526396572469e-01 -5.5042084665489661e+01 +8.4974497045067619e+03 +1.2799867706395774e+05 -4.6471091458126284e+07 
-4.0000000000000002e-01 -5.6452167005172105e-01 +7.7346058784082459e+00 -6.5558309980561036e-01 -5.4033190290737757e+01 +8.4653715786232169e+03 +1.2481654318636429e+05 -4.6298851492870733e+07 
-5.0000000000000000e-01 -5.6452167693925970e-01 +7.7345377978855625e+00 -6.5419093706471620e-01 -5.3007814800446170e+01 +8.4282444973164347e+03 +1.2170851383103368e+05 -4.6097859696817666e+07 
-5.9999999999999998e-01 -5.6452168615462417e-01 +7.7344678812314474e+00 -6.5255584691790969e-01 -5.1970589267049903e+01 +8.3868387074184702e+03 +1.1867218170229702e+05 -4.5871689413263947e+07 
-6.9999999999999996e-01 -5.6452169699952237e-01 +7.7343966363854051e+00 -6.5072490121852877e-01 -5.0926144964080457e+01 +8.3419244681194650e+03 +1.1570514062328577e+05 -4.5623914044600256e+07 
-7.9999999999999993e-01 -5.6452170877565067e-01 +7.7343245712823032e+00 -6.4874517291908262e-01 -4.9879113048241621e+01 +8.2942720576333031e+03 +1.1280498372608675e+05 -4.5358107077850543e+07 
-8.9999999999999991e-01 -5.6452172078474450e-01 +7.7342521938602822e+00 -6.4666373096796337e-01 -4.8834124777070507e+01 +8.2446516811868496e+03 +1.0996930469226383e+05 -4.5077841656153865e+07 
-9.9999999999999989e-01 -5.6452173232853242e-01 +7.7341800120568331e+00 -6.4452764557639308e-01 -4.7795811396511816e+01 +8.1938335717097543e+03 +1.0719569710177220e+05 -4.4786691058959641e+07 
-1.0999999999999999e+00 -5.6452174270875077e-01 +7.7341085338201729e+00 -6.4238398740587344e-01 -4.6768804471645353e+01 +8.1425879797368634e+03 +1.0448175635811714e+05 -4.4488228663141131e+07 
-1.2000000000000000e+00 -5.6452175122714632e-01 +7.7340382670868877e+00 -6.4027982698800345e-01 -4.5757735228627837e+01 +8.0916851602328225e+03 +1.0182507585017783e+05 -4.4186027872879528e+07 
-1.3000000000000000e+00 -5.6452175718548681e-01 +7.7339697198083170e+00 -6.3826223367447654e-01 -4.4767235322026160e+01 +8.0418953566798828e+03 +9.9223251409104792e+04 -4.3883662051875316e+07 
-1.4000000000000001e+00 -5.6452175988553410e-01 +7.7339033999317239e+00 -6.3637828035218202e-01 -4.3801936295359404e+01 +7.9939888970634047e+03 +9.6673878204256980e+04 -4.3584704993113153e+07 
-1.5000000000000002e+00 -5.6452175862911913e-01 +7.7338398154069932e+00 -6.3467503318558638e-01 -4.2866469757221466e+01 +7.9487359965665109e+03 +9.4174551714137677e+04 -4.3292729973099925e+07 
-1.6000000000000003e+00 -5.6452175271804028e-01 +7.7337794741876058e+00 -6.3319956507648278e-01 -4.1965467419867934e+01 +7.9069070167242044e+03 +9.1722867982303927e+04 -4.3011310989309698e+07 
-1.7000000000000004e+00 -5.6452174145414047e-01 +7.7337228842328090e+00 -6.3199894683223312e-01 -4.1103561152562932e+01 +7.8692723022011751e+03 +8.9316423908830184e+04 -4.2744021992844597e+07 
-1.8000000000000005e+00 -5.6452172413927881e-01 +7.7336705535008754e+00 -6.3112024982490156e-01 -4.0285382793944791e+01 +7.8366022283646698e+03 +8.6952816181960938e+04 -4.2494437106100142e+07 
-1.9000000000000006e+00 -5.6452170007537161e-01 +7.7336229899565847e+00 -6.3061054268955241e-01 -3.9515564357524198e+01 +7.8096671490819090e+03 +8.4629642436868045e+04 -4.2266130397468776e+07 
-2.0000000000000004e+00 -5.6452166856430896e-01 +7.7335807015675684e+00 -6.3051690115081516e-01 -3.8798737924632420e+01 +7.7892375787394076e+03 +8.2344500645655789e+04 -4.2062676732917257e+07 
-2.1000000000000005e+00 -5.6452162914244486e-01 +7.7335441050121849e+00 -6.3087098178978473e-01 -3.8139179712188678e+01 +7.7758128621449632e+03 +8.0098628915154943e+04 -4.1886486458024099e+07 
-2.2000000000000006e+00 -5.6452158228901195e-01 +7.7335132508160020e+00 -6.3164079248889948e-01 -3.7539700400157741e+01 +7.7687878258190522e+03 +7.7907752144755243e+04 -4.1735287002288952e+07 
-2.3000000000000007e+00 -5.6452152872033812e-01 +7.7334880977140745e+00 -6.3277792366844565e-01 -3.7002734998833091e+01 +7.7672759871324242e+03 +7.5791209659814325e+04 -4.1605627976987466e+07 
-2.4000000000000008e+00 -5.6452146915279022e-01 +7.7334686044329946e+00 -6.3423396139074995e-01 -3.6530718242172931e+01 +7.7703907893841588e+03 +7.3768339190120329e+04 -4.1494058660100862e+07 
-2.5000000000000009e+00 -5.6452140430273512e-01 +7.7334547296965699e+00 -6.3596049346201078e-01 -3.6126084743751633e+01 +7.7772457270583145e+03 +7.1858477753893472e+04 -4.1397128617380776e+07 
-2.6000000000000010e+00 -5.6452133488656697e-01 +7.7334464322318022e+00 -6.3790910489584751e-01 -3.5791269173877403e+01 +7.7869542532637397e+03 +7.0080962722159456e+04 -4.1311387248280950e+07 
-2.7000000000000011e+00 -5.6452126162067973e-01 +7.7334436707557961e+00 -6.4003138190131337e-01 -3.5528705853753308e+01 +7.7986298571445168e+03 +6.8455129382105020e+04 -4.1233384157226577e+07 
-2.8000000000000012e+00 -5.6452118522151418e-01 +7.7334464039835060e+00 -6.4227890552180089e-01 -3.5340829004111598e+01 +7.8113859422513960e+03 +6.7000312482115129e+04 -4.1159668575682320e+07 
-2.9000000000000012e+00 -5.6452110640550068e-01 +7.7334545906230927e+00 -6.4460325885042191e-01 -3.5230072594527691e+01 +7.8243359637617423e+03 +6.5735845308750082e+04 -4.1086790016643174e+07 
-3.0000000000000013e+00 -5.6452102588909725e-01 +7.7334681893815516e+00 -6.4695602218110193e-01 -3.5198870495207217e+01 +7.8365933375407776e+03 +6.4681060559774109e+04 -4.1011297846949406e+07 
-3.1000000000000014e+00 -5.6452094438878297e-01 +7.7334871589511422e+00 -6.4928877380587202e-01 -3.5249656101512514e+01 +7.8472714543438460e+03 +6.3855288221579314e+04 -4.0929741352874912e+07 
-3.2000000000000015e+00 -5.6452086262104062e-01 +7.7335114580320701e+00 -6.5155309217163826e-01 -3.5384862968512905e+01 +7.8554837210509786e+03 +6.3277859203772969e+04 -4.0838669938037433e+07 
-3.3000000000000016e+00 -5.6452078130238792e-01 +7.7335410453019113e+00 -6.5370055137295979e-01 -3.5606923921365002e+01 +7.8603434724929693e+03 +6.2968100178763008e+04 -4.0734632699813485e+07 
-3.4000000000000017e+00 -5.6452070114935615e-01 +7.7335758794430891e+00 -6.5568272430110175e-01 -3.5918271867695971e+01 +7.8609640345710077e+03 +6.2945338351271232e+04 -4.0614178738469861e+07 
-3.5000000000000018e+00 -5.6452062287847349e-01 +7.7336159191237854e+00 -6.5745118473729680e-01 -3.6321339217788328e+01 +7.8564587640370246e+03 +6.3228898038884727e+04 -4.0473857348323941e+07 
-3.6000000000000019e+00 -5.6452054720632472e-01 +7.7336611230036212e+00 -6.5895749920568358e-01 -3.6818558054062528e+01 +7.8459408911426472e+03 +6.3838101676318358e+04 -4.0310217263882570e+07 
-3.7000000000000020e+00 -5.6452047484947232e-01 +7.7337114497363197e+00 -6.6015323704778339e-01 -3.7412360218115630e+01 +7.8285237101986704e+03 +6.4792270363270858e+04 -4.0119807564522028e+07 
-3.8000000000000020e+00 -5.6452040652451962e-01 +7.7337668579637580e+00 -6.6098996282079892e-01 -3.8105177114896705e+01 +7.8033204414370894e+03 +6.6110722673801909e+04 -3.9899177037034549e+07 
-3.9000000000000021e+00 -5.6452034294807685e-01 +7.7338273063216869e+00 -6.6141923947296932e-01 -3.8899439882349668e+01 +7.7694442804746468e+03 +6.7812775668983217e+04 -3.9644874381062075e+07 
-4.0000000000000018e+00 -5.6452028483679539e-01 +7.7338927534332207e+00 -6.6139262536785892e-01 -3.9797579203772663e+01 +7.7260083555958308e+03 +6.9917743861354189e+04 -3.9353448042833664e+07 
-4.1000000000000014e+00 -5.6452023282141595e-01 +7.7339630206402230e+00 -6.6088104645035906e-01 -4.0798941586019126e+01 +7.6725265548774078e+03 +7.2432149561471073e+04 -3.9023124110119730e+07 
-4.2000000000000011e+00 -5.6452018718619235e-01 +7.7340373896389183e+00 -6.5992961144596107e-01 -4.1890740022039715e+01 +7.6100410068629963e+03 +7.5311375001855398e+04 -3.8658532677390479e+07 
-4.3000000000000007e+00 -5.6452014812776963e-01 +7.7341150094255182e+00 -6.5860120056185190e-01 -4.3057201650012956e+01 +7.5399581321784390e+03 +7.8498023507837584e+04 -3.8265831121880703e+07 
-4.4000000000000004e+00 -5.6452011584272632e-01 +7.7341950290107917e+00 -6.5695869778491978e-01 -4.4282554139419219e+01 +7.4636843783074437e+03 +8.1934701653175274e+04 -3.7851176856291205e+07 
-4.5000000000000000e+00 -5.6452009052756358e-01 +7.7342765974042358e+00 -6.5506499065377033e-01 -4.5551025249616501e+01 +7.3826262043738116e+03 +8.5564016749391216e+04 -3.7420727229931481e+07 
-4.5999999999999996e+00 -5.6452007237870550e-01 +7.7343588636273735e+00 -6.5298297192807875e-01 -4.6846843231769263e+01 +7.2981901204455580e+03 +8.9328579202009030e+04 -3.6980639734866217e+07 
-4.6999999999999993e+00 -5.6452006159248624e-01 +7.7344409767059394e+00 -6.5077553880356942e-01 -4.8154236598788479e+01 +7.2117826570813831e+03 +9.3171001159290900e+04 -3.6537071823893331e+07 
-4.7999999999999989e+00 -5.6452005836516839e-01 +7.7345220856766979e+00 -6.4850559098172145e-01 -4.9457434340397896e+01 +7.1248103302924592e+03 +9.7033897782563959e+04 -3.6096180748897336e+07 
-4.8999999999999986e+00 -5.6452006289289625e-01 +7.7346013395811344e+00 -6.4623603736455382e-01 -5.0740665744915596e+01 +7.0386797714233644e+03 +1.0085988623184296e+05 -3.5664124186265819e+07 
-4.9999999999999982e+00 -5.6452007537172055e-01 +7.7346778874750335e+00 -6.4402979068825938e-01 -5.1988160689045777e+01 +6.9547976102386756e+03 +1.0459158734465876e+05 -3.5247059644772246e+07 
-5.0999999999999979e+00 -5.6452009599759301e-01 +7.7347508784161647e+00 -6.4194976920173530e-01 -5.3184149285769657e+01 +6.8745705128452373e+03 +1.0817162361026349e+05 -3.4851144662126385e+07 
-5.1999999999999975e+00 -5.6452012496634940e-01 +7.7348194614781871e+00 -6.4005889812973993e-01 -5.4312862302197736e+01 +6.7994052017392050e+03 +1.1154262161403421e+05 -3.4482536881341986e+07 
-5.2999999999999972e+00 -5.6452016247371606e-01 +7.7348827857452953e+00 -6.3842010802133908e-01 -5.5358531007945402e+01 +6.7307084206103727e+03 +1.1464721115642758e+05 -3.4147393876477867e+07 
-5.3999999999999968e+00 -5.6452020871529740e-01 +7.7349400003088959e+00 -6.3709633692691148e-01 -5.6305387087964100e+01 +6.6698869754515836e+03 +1.1742802475624274e+05 -3.3851873346190333e+07 
-5.4999999999999964e+00 -5.6452026388658150e-01 +7.7349902542734394e+00 -6.3615052879385692e-01 -5.7137662828023686e+01 +6.6183476981985523e+03 +1.1982769876364387e+05 -3.3602132928888999e+07 
-5.5999999999999961e+00 -5.6452032818291276e-01 +7.7350326967595375e+00 -6.3564563614819902e-01 -5.7839591202691864e+01 +6.5774974937083171e+03 +1.2178887384963316e+05 -3.3404330417305823e+07 
-5.6999999999999957e+00 -5.6452040179951501e-01 +7.7350664768929072e+00 -6.3564461792572824e-01 -5.8395405572202471e+01 +6.5487432980762214e+03 +1.2325419327486212e+05 -3.3264623559350740e+07 
-5.7999999999999954e+00 -5.6452048493145512e-01 +7.7350907438176240e+00 -6.3621044268281213e-01 -5.8789340072302871e+01 +6.5334921330397137e+03 +1.2416630516830501e+05 -3.3189170302122228e+07 
-5.8999999999999950e+00 -5.6452057777368070e-01 +7.7351046466920863e+00 -6.3740608440758262e-01 -5.9005629504416895e+01 +6.5331510263940672e+03 +1.2446786187917192e+05 -3.3184128413982730e+07 
-5.9999999999999947e+00 -5.6452068052096815e-01 +7.7351073346861297e+00 -6.3929452743876947e-01 -5.9028509234448762e+01 +6.5491270990488028e+03 +1.2410151919322662e+05 -3.3255655900653984e+07 
-6.0999999999999943e+00 -5.6452079328245652e-01 +7.7350982917064455e+00 -6.4190722824142776e-01 -5.8848405392221672e+01 +6.5821914789179909e+03 +1.2303332039983875e+05 -3.3407166030085541e+07 
-6.1999999999999940e+00 -5.6452091583465136e-01 +7.7350783086732102e+00 -6.4516163619465650e-01 -5.8479995332302330e+01 +6.6307936181318491e+03 +1.2132186483707427e+05 -3.3631907066933595e+07 
-6.2999999999999936e+00 -5.6452104787381596e-01 +7.7350484958348487e+00 -6.4894958544621317e-01 -5.7943893921491792e+01 +6.6928555779297340e+03 +1.1904857675057233e+05 -3.3920780337857328e+07 
-6.3999999999999932e+00 -5.6452118909631466e-01 +7.7350099634182499e+00 -6.5316290415388056e-01 -5.7260715274247090e+01 +6.7662993682791966e+03 +1.1629487580287542e+05 -3.4264687052977256e+07 
-6.4999999999999929e+00 -5.6452133919870784e-01 +7.7349638216336256e+00 -6.5769340443233426e-01 -5.6451072891363559e+01 +6.8490467688293356e+03 +1.1314217793948956e+05 -3.4654527487665534e+07 
-6.5999999999999925e+00 -5.6452149787766481e-01 +7.7349111806666615e+00 -6.6243289262380223e-01 -5.5535579434191931e+01 +6.9390195242179834e+03 +1.0967189409589069e+05 -3.5081201912938550e+07 
-6.6999999999999922e+00 -5.6452166483000898e-01 +7.7348531506832536e+00 -6.6727316451834018e-01 -5.4534846836187988e+01 +7.0341392566080540e+03 +1.0596543076966712e+05 -3.5535610183576472e+07 
-6.7999999999999918e+00 -5.6452183975278436e-01 +7.7347908418293230e+00 -6.7210599728181242e-01 -5.3469486317648098e+01 +7.1323273171114024e+03 +1.0210419018728705e+05 -3.6008651043326236e+07 
-6.8999999999999915e+00 -5.6452202234315640e-01 +7.7347253642259082e+00 -6.7682316243512819e-01 -5.2360108221852030e+01 +7.2315050362035754e+03 +9.8169569287894847e+04 -3.6491223324268773e+07 
-6.9999999999999911e+00 -5.6452221229848309e-01 +7.7346578279669647e+00 -6.8131641700203205e-01 -5.1227321934608341e+01 +7.3295935578416311e+03 +9.4242959230246517e+04 -3.6974225161970481e+07 
-7.0999999999999908e+00 -5.6452240931631870e-01 +7.7345893431242514e+00 -6.8547750391205697e-01 -5.0091736032520835e+01 +7.4245138528301468e+03 +9.0405746271914861e+04 -3.7448554071372539e+07 
-7.1999999999999904e+00 -5.6452261309441887e-01 +7.7345210197467695e+00 -6.8919815131395723e-01 -4.8973958266457082e+01 +7.5141867070377166e+03 +8.6739311690673319e+04 -3.7905106893293723e+07 
-7.2999999999999901e+00 -5.6452282333071202e-01 +7.7344539678490438e+00 -6.9237007692918784e-01 -4.7894595187072113e+01 +7.5965328104885648e+03 +8.3325029515421789e+04 -3.8334780232618324e+07 
-7.3999999999999897e+00 -5.6452303972335960e-01 +7.7343892974265893e+00 -6.9488498052101288e-01 -4.6874252618778975e+01 +7.6694726150200340e+03 +8.0244269365743734e+04 -3.8728469781566873e+07 
-7.4999999999999893e+00 -5.6452326197073344e-01 +7.7343281184402919e+00 -6.9663454766382837e-01 -4.5933535174987711e+01 +7.7309264129429030e+03 +7.7578393552685942e+04 -3.9077070709461853e+07 
-7.5999999999999890e+00 -5.6452348977142452e-01 +7.7342715408278142e+00 -6.9751044832805897e-01 -4.5093046595374560e+01 +7.7788143084691701e+03 +7.5408759064807877e+04 -3.9371477521378189e+07 
-7.6999999999999886e+00 -5.6452372282424501e-01 +7.7342206744898956e+00 -6.9740433775623167e-01 -4.4373389337244518e+01 +7.8110562454743758e+03 +7.3816715175466888e+04 -3.9602584218127035e+07 
-7.7999999999999883e+00 -5.6452396082824785e-01 +7.7341766293009506e+00 -6.9620785431400034e-01 -4.3795164876113184e+01 +7.8255719666686400e+03 +7.2883605181308027e+04 -3.9761284099397920e+07 
-7.8999999999999879e+00 -5.6452420348273813e-01 +7.7341405151044009e+00 -6.9381261738831035e-01 -4.3378973560634343e+01 +7.8202809716007459e+03 +7.2690765532910169e+04 -3.9838469556303538e+07 
-7.9999999999999876e+00 -5.6452445048725308e-01 +7.7341134417068558e+00 -6.9011023210068367e-01 -4.3145414514024054e+01 +7.7931026137705130e+03 +7.3319525560675858e+04 -3.9825032536835589e+07 
-8.0999999999999872e+00 -5.6452470157227086e-01 +7.7340962269324507e+00 -6.8503069611917200e-01 -4.3109715856454663e+01 +7.7426107415666738e+03 +7.4829142167328260e+04 -3.9714544638651647e+07 
-8.1999999999999869e+00 -5.6452495656316615e-01 +7.7340885592543440e+00 -6.7864601993704909e-01 -4.3265872367286065e+01 +7.6697882946539885e+03 +7.7189983975579002e+04 -3.9510492822048679e+07 
-8.2999999999999865e+00 -5.6452521530118960e-01 +7.7340898536598601e+00 -6.7106105001147354e-01 -4.3602627835326729e+01 +7.5761711478552388e+03 +8.0350096159155044e+04 -3.9218650898007207e+07 
-8.3999999999999861e+00 -5.6452547762752525e-01 +7.7340995251605058e+00 -6.6238063758209231e-01 -4.4108726701522492e+01 +7.4632952453098251e+03 +8.4257527353964062e+04 -3.8844792975338884e+07 
-8.4999999999999858e+00 -5.6452574338322270e-01 +7.7341169888044830e+00 -6.5270964610749238e-01 -4.4772914406928891e+01 +7.3326967322078854e+03 +8.8860331508881529e+04 -3.8394694051428780e+07 
-8.5999999999999854e+00 -5.6452601240923617e-01 +7.7341416596630310e+00 -6.4215294625905994e-01 -4.5583937015501469e+01 +7.1859118611327312e+03 +9.4106565746810302e+04 -3.7874129573098712e+07 
-8.6999999999999851e+00 -5.6452628454640663e-01 +7.7341729528483878e+00 -6.3081541923581452e-01 -4.6530541715293104e+01 +7.0244770617511595e+03 +9.9944293196804982e+04 -3.7288875786074221e+07 
-8.7999999999999847e+00 -5.6452655963545728e-01 +7.7342102835004152e+00 -6.1880195505685276e-01 -4.7601476441570107e+01 +6.8499288926118697e+03 +1.0632158083909948e+05 -3.6644709463514574e+07 
-8.8999999999999844e+00 -5.6452683751698529e-01 +7.7342530667945359e+00 -6.0621745577793995e-01 -4.8785490101264784e+01 +6.6638041154209295e+03 +1.1318650076989840e+05 -3.5947408295029923e+07 
-8.9999999999999840e+00 -5.6452711803147726e-01 +7.7343007179428822e+00 -5.9316683127923964e-01 -5.0071332606961356e+01 +6.4676396039244892e+03 +1.2048713039864007e+05 -3.5202750426699199e+07 
-9.0999999999999837e+00 -5.6452740101926313e-01 +7.7343526521939543e+00 -5.7975500642705180e-01 -5.1447754860495074e+01 +6.2629724838663897e+03 +1.2817155231826408e+05 -3.4416515133970357e+07 
-9.1999999999999833e+00 -5.6452768632056427e-01 +7.7344082848326687e+00 -5.6608691379345866e-01 -5.2903508769151081e+01 +6.0513399906973400e+03 +1.3618785443265835e+05 -3.3594482138946272e+07 
-9.2999999999999829e+00 -5.6452797377544428e-01 +7.7344670311822439e+00 -5.5226750014542936e-01 -5.4427347275058345e+01 +5.8342795916660025e+03 +1.4448413004607000e+05 -3.2742432185216073e+07 
-9.3999999999999826e+00 -5.6452826322383842e-01 +7.7345283066106436e+00 -5.3840172295572453e-01 -5.6008024563300467e+01 +5.6133289230629507e+03 +1.5300847911717242e+05 -3.1866146751777124e+07 
-9.4999999999999822e+00 -5.6452855450553363e-01 +7.7345915265186580e+00 -5.2459455157110291e-01 -5.7634295705371777e+01 +5.3900258024032546e+03 +1.6170900615020705e+05 -3.0971408083567187e+07 
-9.5999999999999819e+00 -5.6452884746016319e-01 +7.7346561063579262e+00 -5.1095096932557782e-01 -5.9294917173863972e+01 +5.1659082777409994e+03 +1.7053382315347029e+05 -3.0063999451223921e+07 
-9.6999999999999815e+00 -5.6452914192719994e-01 +7.7347214616146287e+00 -4.9757597277932369e-01 -6.0978646386860930e+01 +4.9425146040047339e+03 +1.7943104702404441e+05 -2.9149705015962783e+07 
-9.7999999999999812e+00 -5.6452943774594844e-01 +7.7347870078250898e+00 -4.8457457280927668e-01 -6.2674242143503413e+01 +4.7213832619357772e+03 +1.8834880202501619e+05 -2.8234309913847551e+07 
-9.8999999999999808e+00 -5.6452973475558743e-01 +7.7348521605686260e+00 -4.7205179007071713e-01 -6.4370464418780983e+01 +4.5040528795910122e+03 +1.9723521858398648e+05 -2.7323599904563978e+07 
-9.9999999999999805e+00 -5.6453003279509040e-01 +7.7349163354680952e+00 -4.6011266376925575e-01 -6.6056074305591338e+01 +4.2920624010218735e+03 +2.0603843313369260e+05 -2.6423362156265084e+07 
-1.0099999999999980e+01 -5.6453033175453560e-01 +7.7349789756516332e+00 -4.4884894871084119e-01 -6.7719484275333116e+01 +4.0868759353033502e+03 +2.1470372976272763e+05 -2.5539458535960175e+07 
