# trajectory
# s[mm] rx[mm] ry[mm] rz[mm] px[rad] py[rad] pz[rad]
0.0000000000000000e+00 +7.9199999999999999e+00 +0.0000000000000000e+00 +0.0000000000000000e+00 +0.0000000000000000e+00 +0.0000000000000000e+00 +1.0000000000000000e+00
1.0000000000000001e-01 +7.9199997168082756e+00 +0.0000000000000000e+00 +9.9999999999465350e-02 -5.6638347846795176e-06 +0.0000000000000000e+00 +9.9999999998396050e-01
2.0000000000000001e-01 +7.9199988672329811e+00 +0.0000000000000000e+00 +1.9999999999572282e-01 -1.1327671428333471e-05 +0.0000000000000000e+00 +9.9999999993584199e-01
3.0000000000000004e-01 +7.9199974512739271e+00 +0.0000000000000000e+00 +2.9999999998556448e-01 -1.6991509971889164e-05 +0.0000000000000000e+00 +9.9999999985564436e-01
4.0000000000000002e-01 +7.9199954689309218e+00 +0.0000000000000000e+00 +3.9999999996578239e-01 -2.2655350455199724e-05 +0.0000000000000000e+00 +9.9999999974336762e-01
5.0000000000000000e-01 +7.9199929202037698e+00 +0.0000000000000000e+00 +4.9999999993316868e-01 -2.8319192917044160e-05 +0.0000000000000000e+00 +9.9999999959901176e-01
5.9999999999999998e-01 +7.9199898050922712e+00 +0.0000000000000000e+00 +5.9999999988451547e-01 -3.3983037395127430e-05 +0.0000000000000000e+00 +9.9999999942257667e-01
6.9999999999999996e-01 +7.9199861235962228e+00 +0.0000000000000000e+00 +6.9999999981661476e-01 -3.9646883926080510e-05 +0.0000000000000000e+00 +9.9999999921406235e-01
7.9999999999999993e-01 +7.9199818757154166e+00 +0.0000000000000000e+00 +7.9999999972625868e-01 -4.5310732545460474e-05 +0.0000000000000000e+00 +9.9999999897346881e-01
8.9999999999999991e-01 +7.9199770614496430e+00 +0.0000000000000000e+00 +8.9999999961023924e-01 -5.0974583287750555e-05 +0.0000000000000000e+00 +9.9999999870079592e-01
9.9999999999999989e-01 +7.9199716807986871e+00 +0.0000000000000000e+00 +9.9999999946534857e-01 -5.6638436186360233e-05 +0.0000000000000000e+00 +9.9999999839604381e-01
1.0999999999999999e+00 +7.9199657337623321e+00 +0.0000000000000000e+00 +1.0999999992883787e+00 -6.2302291273625310e-05 +0.0000000000000000e+00 +9.9999999805921225e-01
1.2000000000000000e+00 +7.9199592203403579e+00 +0.0000000000000000e+00 +1.1999999990761216e+00 -6.7966148580807996e-05 +0.0000000000000000e+00 +9.9999999769030135e-01
1.3000000000000000e+00 +7.9199521405325406e+00 +0.0000000000000000e+00 +1.2999999988253697e+00 -7.3630008138096979e-05 +0.0000000000000000e+00 +9.9999999728931099e-01
1.4000000000000001e+00 +7.9199444943386537e+00 +0.0000000000000000e+00 +1.3999999985329146e+00 -7.9293869974607532e-05 +0.0000000000000000e+00 +9.9999999685624108e-01
1.5000000000000002e+00 +7.9199362817584680e+00 +0.0000000000000000e+00 +1.4999999981955485e+00 -8.4957734118381597e-05 +0.0000000000000000e+00 +9.9999999639109172e-01
1.6000000000000003e+00 +7.9199275027917517e+00 +0.0000000000000000e+00 +1.5999999978100636e+00 -9.0621600596387861e-05 +0.0000000000000000e+00 +9.9999999589386279e-01
1.7000000000000004e+00 +7.9199181574382695e+00 +0.0000000000000000e+00 +1.6999999973732518e+00 -9.6285469434521898e-05 +0.0000000000000000e+00 +9.9999999536455420e-01
1.8000000000000005e+00 +7.9199082456977852e+00 +0.0000000000000000e+00 +1.7999999968819052e+00 -1.0194934065760620e-04 +0.0000000000000000e+00 +9.9999999480316593e-01
1.9000000000000006e+00 +7.9198977675700579e+00 +0.0000000000000000e+00 +1.8999999963328156e+00 -1.0761321428939034e-04 +0.0000000000000000e+00 +9.9999999420969798e-01
2.0000000000000004e+00 +7.9198867230548462e+00 +0.0000000000000000e+00 +1.9999999957227752e+00 -1.1327709035255102e-04 +0.0000000000000000e+00 +9.9999999358415037e-01
2.1000000000000005e+00 +7.9198751121519058e+00 +0.0000000000000000e+00 +2.0999999950485764e+00 -1.1894096886895590e-04 +0.0000000000000000e+00 +9.9999999292652297e-01
2.2000000000000006e+00 +7.9198629348609897e+00 +0.0000000000000000e+00 +2.1999999943070105e+00 -1.2460484986256398e-04 +0.0000000000000000e+00 +9.9999999223681568e-01
2.3000000000000007e+00 +7.9198501911818493e+00 +0.0000000000000000e+00 +2.2999999934948701e+00 -1.3026873336232587e-04 +0.0000000000000000e+00 +9.9999999151502850e-01
2.4000000000000008e+00 +7.9198368811142323e+00 +0.0000000000000000e+00 +2.3999999926089468e+00 -1.3593261940244731e-04 +0.0000000000000000e+00 +9.9999999076116142e-01
2.5000000000000009e+00 +7.9198230046578830e+00 +0.0000000000000000e+00 +2.4999999916460327e+00 -1.4159650802238899e-04 +0.0000000000000000e+00 +9.9999998997521433e-01
2.6000000000000010e+00 +7.9198085618125402e+00 +0.0000000000000000e+00 +2.5999999906029201e+00 -1.4726039926686631e-04 +0.0000000000000000e+00 +9.9999998915718724e-01
2.7000000000000011e+00 +7.9197935525779402e+00 +0.0000000000000000e+00 +2.6999999894764009e+00 -1.5292429318584911e-04 +0.0000000000000000e+00 +9.9999998830708015e-01
2.8000000000000012e+00 +7.9197779769538119e+00 +0.0000000000000000e+00 +2.7999999882632669e+00 -1.5858818983456143e-04 +0.0000000000000000e+00 +9.9999998742489293e-01
2.9000000000000012e+00 +7.9197618349398802e+00 +0.0000000000000000e+00 +2.8999999869603101e+00 -1.6425208927348120e-04 +0.0000000000000000e+00 +9.9999998651062549e-01
3.0000000000000013e+00 +7.9197451265358625e+00 +0.0000000000000000e+00 +2.9999999855643225e+00 -1.6991599156833986e-04 +0.0000000000000000e+00 +9.9999998556427783e-01
3.1000000000000014e+00 +7.9197278517414693e+00 +0.0000000000000000e+00 +3.0999999840720962e+00 -1.7557989679012212e-04 +0.0000000000000000e+00 +9.9999998458584982e-01
3.2000000000000015e+00 +7.9197100105564040e+00 +0.0000000000000000e+00 +3.1999999824804233e+00 -1.8124380501506542e-04 +0.0000000000000000e+00 +9.9999998357534148e-01
3.3000000000000016e+00 +7.9196916029803628e+00 +0.0000000000000000e+00 +3.2999999807860951e+00 -1.8690771632465963e-04 +0.0000000000000000e+00 +9.9999998253275268e-01
3.4000000000000017e+00 +7.9196726290130330e+00 +0.0000000000000000e+00 +3.3999999789859041e+00 -1.9257163080564662e-04 +0.0000000000000000e+00 +9.9999998145808333e-01
3.5000000000000018e+00 +7.9196530886540932e+00 +0.0000000000000000e+00 +3.4999999770766421e+00 -1.9823554855001967e-04 +0.0000000000000000e+00 +9.9999998035133342e-01
3.6000000000000019e+00 +7.9196329819032112e+00 +0.0000000000000000e+00 +3.5999999750551011e+00 -2.0389946965502316e-04 +0.0000000000000000e+00 +9.9999997921250283e-01
3.7000000000000020e+00 +7.9196123087600467e+00 +0.0000000000000000e+00 +3.6999999729180733e+00 -2.0956339422315188e-04 +0.0000000000000000e+00 +9.9999997804159158e-01
3.8000000000000020e+00 +7.9195910692242473e+00 +0.0000000000000000e+00 +3.7999999706623502e+00 -2.1522732236215058e-04 +0.0000000000000000e+00 +9.9999997683859954e-01
3.9000000000000021e+00 +7.9195692632954513e+00 +0.0000000000000000e+00 +3.8999999682847237e+00 -2.2089125418501337e-04 +0.0000000000000000e+00 +9.9999997560352660e-01
4.0000000000000018e+00 +7.9195468909732840e+00 +0.0000000000000000e+00 +3.9999999657819858e+00 -2.2655518980998314e-04 +0.0000000000000000e+00 +9.9999997433637267e-01
4.1000000000000014e+00 +7.9195239522573591e+00 +0.0000000000000000e+00 +4.0999999631509283e+00 -2.3221912935986988e-04 +0.0000000000000000e+00 +9.9999997303713761e-01
4.2000000000000011e+00 +7.9195004471472776e+00 +0.0000000000000000e+00 +4.1999999603883440e+00 -2.3788307295455910e-04 +0.0000000000000000e+00 +9.9999997170582144e-01
4.3000000000000007e+00 +7.9194763756426294e+00 +0.0000000000000000e+00 +4.2999999574910239e+00 -2.4354702070352059e-04 +0.0000000000000000e+00 +9.9999997034242394e-01
4.4000000000000004e+00 +7.9194517377429952e+00 +0.0000000000000000e+00 +4.3999999544557600e+00 -2.4921097270512747e-04 +0.0000000000000000e+00 +9.9999996894694509e-01
4.5000000000000000e+00 +7.9194265334479441e+00 +0.0000000000000000e+00 +4.4999999512793440e+00 -2.5487492904665622e-04 +0.0000000000000000e+00 +9.9999996751938480e-01
4.5999999999999996e+00 +7.9194007627570384e+00 +0.0000000000000000e+00 +4.5999999479585680e+00 -2.6053888980428699e-04 +0.0000000000000000e+00 +9.9999996605974295e-01
4.6999999999999993e+00 +7.9193744256698340e+00 +0.0000000000000000e+00 +4.6999999444902238e+00 -2.6620285504310354e-04 +0.0000000000000000e+00 +9.9999996456801943e-01
4.7999999999999989e+00 +7.9193475221858787e+00 +0.0000000000000000e+00 +4.7999999408711025e+00 -2.7186682481709353e-04 +0.0000000000000000e+00 +9.9999996304421412e-01
4.8999999999999986e+00 +7.9193200523047178e+00 +0.0000000000000000e+00 +4.8999999370979967e+00 -2.7753079916914867e-04 +0.0000000000000000e+00 +9.9999996148832704e-01
4.9999999999999982e+00 +7.9192920160258913e+00 +0.0000000000000000e+00 +4.9999999331676985e+00 -2.8319477813106480e-04 +0.0000000000000000e+00 +9.9999995990035806e-01
5.0999999999999979e+00 +7.9192634133489372e+00 +0.0000000000000000e+00 +5.0999999290769988e+00 -2.8885876172354233e-04 +0.0000000000000000e+00 +9.9999995828030708e-01
5.1999999999999975e+00 +7.9192342442733921e+00 +0.0000000000000000e+00 +5.1999999248226905e+00 -2.9452274995618631e-04 +0.0000000000000000e+00 +9.9999995662817398e-01
5.2999999999999972e+00 +7.9192045087987912e+00 +0.0000000000000000e+00 +5.2999999204015644e+00 -3.0018674282750662e-04 +0.0000000000000000e+00 +9.9999995494395877e-01
5.3999999999999968e+00 +7.9191742069246720e+00 +0.0000000000000000e+00 +5.3999999158104126e+00 -3.0585074032491848e-04 +0.0000000000000000e+00 +9.9999995322766133e-01
5.4999999999999964e+00 +7.9191433386505725e+00 +0.0000000000000000e+00 +5.4999999110460269e+00 -3.1151474242474249e-04 +0.0000000000000000e+00 +9.9999995147928156e-01
5.5999999999999961e+00 +7.9191119039760345e+00 +0.0000000000000000e+00 +5.5999999061051993e+00 -3.1717874909220503e-04 +0.0000000000000000e+00 +9.9999994969881945e-01
5.6999999999999957e+00 +7.9190799029006032e+00 +0.0000000000000000e+00 +5.6999999009847215e+00 -3.2284276028143866e-04 +0.0000000000000000e+00 +9.9999994788627489e-01
5.7999999999999954e+00 +7.9190473354238291e+00 +0.0000000000000000e+00 +5.7999998956813847e+00 -3.2850677593548232e-04 +0.0000000000000000e+00 +9.9999994604164777e-01
5.8999999999999950e+00 +7.9190142015452691e+00 +0.0000000000000000e+00 +5.8999998901919817e+00 -3.3417079598628178e-04 +0.0000000000000000e+00 +9.9999994416493809e-01
5.9999999999999947e+00 +7.9189805012644880e+00 +0.0000000000000000e+00 +5.9999998845133033e+00 -3.3983482035469001e-04 +0.0000000000000000e+00 +9.9999994225614586e-01
6.0999999999999943e+00 +7.9189462345810577e+00 +0.0000000000000000e+00 +6.0999998786421417e+00 -3.4549884895109607e-04 +0.0000000000000000e+00 +9.9999994031527095e-01
6.1999999999999940e+00 +7.9189114014945599e+00 +0.0000000000000000e+00 +6.1999998725752885e+00 -3.5116288168233892e-04 +0.0000000000000000e+00 +9.9999993834231338e-01
6.2999999999999936e+00 +7.9188760020045859e+00 +0.0000000000000000e+00 +6.2999998663095349e+00 -3.5682691845862104e-04 +0.0000000000000000e+00 +9.9999993633727313e-01
6.3999999999999932e+00 +7.9188400361107361e+00 +0.0000000000000000e+00 +6.3999998598416736e+00 -3.6249095919413718e-04 +0.0000000000000000e+00 +9.9999993430015011e-01
6.4999999999999929e+00 +7.9188035038126179e+00 +0.0000000000000000e+00 +6.4999998531684957e+00 -3.6815500380707472e-04 +0.0000000000000000e+00 +9.9999993223094430e-01
6.5999999999999925e+00 +7.9187664051098476e+00 +0.0000000000000000e+00 +6.5999998462867930e+00 -3.7381905221961351e-04 +0.0000000000000000e+00 +9.9999993012965571e-01
6.6999999999999922e+00 +7.9187287400020496e+00 +0.0000000000000000e+00 +6.6999998391933575e+00 -3.7948310435792645e-04 +0.0000000000000000e+00 +9.9999992799628423e-01
6.7999999999999918e+00 +7.9186905084888544e+00 +0.0000000000000000e+00 +6.7999998318849801e+00 -3.8514716015217946e-04 +0.0000000000000000e+00 +9.9999992583082986e-01
6.8999999999999915e+00 +7.9186517105698995e+00 +0.0000000000000000e+00 +6.8999998243584537e+00 -3.9081121953653183e-04 +0.0000000000000000e+00 +9.9999992363329249e-01
6.9999999999999911e+00 +7.9186123462448297e+00 +0.0000000000000000e+00 +6.9999998166105692e+00 -3.9647528244913643e-04 +0.0000000000000000e+00 +9.9999992140367222e-01
7.0999999999999908e+00 +7.9185724155132942e+00 +0.0000000000000000e+00 +7.0999998086381186e+00 -4.0213934883213991e-04 +0.0000000000000000e+00 +9.9999991914196895e-01
7.1999999999999904e+00 +7.9185319183749492e+00 +0.0000000000000000e+00 +7.1999998004378938e+00 -4.0780341863168301e-04 +0.0000000000000000e+00 +9.9999991684818257e-01
7.2999999999999901e+00 +7.9184908548294555e+00 +0.0000000000000000e+00 +7.2999997920066857e+00 -4.1346749179790079e-04 +0.0000000000000000e+00 +9.9999991452231307e-01
7.3999999999999897e+00 +7.9184492248764791e+00 +0.0000000000000000e+00 +7.3999997833412872e+00 -4.1913156828492291e-04 +0.0000000000000000e+00 +9.9999991216436046e-01
7.4999999999999893e+00 +7.9184070285156896e+00 +0.0000000000000000e+00 +7.4999997744384892e+00 -4.2479564805087392e-04 +0.0000000000000000e+00 +9.9999990977432474e-01
7.5999999999999890e+00 +7.9183642657467610e+00 +0.0000000000000000e+00 +7.5999997652950828e+00 -4.3045973105787353e-04 +0.0000000000000000e+00 +9.9999990735220579e-01
7.6999999999999886e+00 +7.9183209365693710e+00 +0.0000000000000000e+00 +7.6999997559078608e+00 -4.3612381727203684e-04 +0.0000000000000000e+00 +9.9999990489800361e-01
7.7999999999999883e+00 +7.9182770409832006e+00 +0.0000000000000000e+00 +7.7999997462736141e+00 -4.4178790666347473e-04 +0.0000000000000000e+00 +9.9999990241171810e-01
7.8999999999999879e+00 +7.9182325789879329e+00 +0.0000000000000000e+00 +7.8999997363891348e+00 -4.4745199920629412e-04 +0.0000000000000000e+00 +9.9999989989334925e-01
7.9999999999999876e+00 +7.9181875505832542e+00 +0.0000000000000000e+00 +7.9999997262512146e+00 -4.5311609487859835e-04 +0.0000000000000000e+00 +9.9999989734289707e-01
8.0999999999999872e+00 +7.9181419557688528e+00 +0.0000000000000000e+00 +8.0999997158566455e+00 -4.5878019366266337e-04 +0.0000000000000000e+00 +9.9999989476036144e-01
8.1999999999999869e+00 +7.9180957945444179e+00 +0.0000000000000000e+00 +8.1999997052022184e+00 -4.6444429554687360e-04 +0.0000000000000000e+00 +9.9999989214574236e-01
8.2999999999999865e+00 +7.9180490669096404e+00 +0.0000000000000000e+00 +8.2999996942847254e+00 -4.7010840052765765e-04 +0.0000000000000000e+00 +9.9999988949903984e-01
8.3999999999999861e+00 +7.9180017728642094e+00 +0.0000000000000000e+00 +8.3999996831009582e+00 -4.7577250860966427e-04 +0.0000000000000000e+00 +9.9999988682025365e-01
8.4999999999999858e+00 +7.9179539124078149e+00 +0.0000000000000000e+00 +8.4999996716477071e+00 -4.8143661980576256e-04 +0.0000000000000000e+00 +9.9999988410938390e-01
8.5999999999999854e+00 +7.9179054855401443e+00 +0.0000000000000000e+00 +8.5999996599217656e+00 -4.8710073413704182e-04 +0.0000000000000000e+00 +9.9999988136643048e-01
8.6999999999999851e+00 +7.9178564922608823e+00 +0.0000000000000000e+00 +8.6999996479199240e+00 -4.9276485163281182e-04 +0.0000000000000000e+00 +9.9999987859139328e-01
8.7999999999999847e+00 +7.9178069325697109e+00 +0.0000000000000000e+00 +8.7999996356389740e+00 -4.9842897233060273e-04 +0.0000000000000000e+00 +9.9999987578427219e-01
8.8999999999999844e+00 +7.9177568064663078e+00 +0.0000000000000000e+00 +8.8999996230757077e+00 -5.0409309627616515e-04 +0.0000000000000000e+00 +9.9999987294506720e-01
8.9999999999999840e+00 +7.9177061139503460e+00 +0.0000000000000000e+00 +8.9999996102269169e+00 -5.0975722352347035e-04 +0.0000000000000000e+00 +9.9999987007377822e-01
9.0999999999999837e+00 +7.9176548550214916e+00 +0.0000000000000000e+00 +9.0999995970893934e+00 -5.1542135413471023e-04 +0.0000000000000000e+00 +9.9999986717040512e-01
9.1999999999999833e+00 +7.9176030296794044e+00 +0.0000000000000000e+00 +9.1999995836599293e+00 -5.2108548818029720e-04 +0.0000000000000000e+00 +9.9999986423494791e-01
9.2999999999999829e+00 +7.9175506379237381e+00 +0.0000000000000000e+00 +9.2999995699353146e+00 -5.2674962573886455e-04 +0.0000000000000000e+00 +9.9999986126740636e-01
9.3999999999999826e+00 +7.9174976797541365e+00 +0.0000000000000000e+00 +9.3999995559123413e+00 -5.3241376689726631e-04 +0.0000000000000000e+00 +9.9999985826778048e-01
9.4999999999999822e+00 +7.9174441551702355e+00 +0.0000000000000000e+00 +9.4999995415878011e+00 -5.3807791175057736e-04 +0.0000000000000000e+00 +9.9999985523607005e-01
9.5999999999999819e+00 +7.9173900641716601e+00 +0.0000000000000000e+00 +9.5999995269584861e+00 -5.4374206040209343e-04 +0.0000000000000000e+00 +9.9999985217227505e-01
9.6999999999999815e+00 +7.9173354067580251e+00 +0.0000000000000000e+00 +9.6999995120211864e+00 -5.4940621296333133e-04 +0.0000000000000000e+00 +9.9999984907639528e-01
9.7999999999999812e+00 +7.9172801829289332e+00 +0.0000000000000000e+00 +9.7999994967726956e+00 -5.5507036955402872e-04 +0.0000000000000000e+00 +9.9999984594843061e-01
9.8999999999999808e+00 +7.9172243926839760e+00 +0.0000000000000000e+00 +9.8999994812098038e+00 -5.6073453030214433e-04 +0.0000000000000000e+00 +9.9999984278838094e-01
9.9999999999999805e+00 +7.9171680360227299e+00 +0.0000000000000000e+00 +9.9999994653293030e+00 -5.6639869534385820e-04 +0.0000000000000000e+00 +9.9999983959624617e-01
1.0099999999999980e+01 +7.9171111129447596e+00 +0.0000000000000000e+00 +1.0099999449127983e+01 -5.7206286482300078e-04 +0.0000000000000000e+00 +9.9999983637202605e-01
1.0199999999999980e+01 +7.9170536234496129e+00 +0.0000000000000000e+00 +1.0199999432602638e+01 -5.7772703888477636e-04 +0.0000000000000000e+00 +9.9999983311572049e-01
1.0299999999999979e+01 +7.9169955675368255e+00 +0.0000000000000000e+00 +1.0299999415750058e+01 -5.8339121766948590e-04 +0.0000000000000000e+00 +9.9999982982732927e-01
1.0399999999999979e+01 +7.9169369452059177e+00 +0.0000000000000000e+00 +1.0399999398567035e+01 -5.8905540131195611e-04 +0.0000000000000000e+00 +9.9999982650685226e-01
1.0499999999999979e+01 +7.9168777564563975e+00 +0.0000000000000000e+00 +1.0499999381050360e+01 -5.9471958994153893e-04 +0.0000000000000000e+00 +9.9999982315428926e-01
1.0599999999999978e+01 +7.9168180012877594e+00 +0.0000000000000000e+00 +1.0599999363196824e+01 -6.0038378368211108e-04 +0.0000000000000000e+00 +9.9999981976964014e-01
1.0699999999999978e+01 +7.9167576796994865e+00 +0.0000000000000000e+00 +1.0699999345003219e+01 -6.0604798265207393e-04 +0.0000000000000000e+00 +9.9999981635290469e-01
1.0799999999999978e+01 +7.9166967916910504e+00 +0.0000000000000000e+00 +1.0799999326466336e+01 -6.1171218696435257e-04 +0.0000000000000000e+00 +9.9999981290408280e-01
1.0899999999999977e+01 +7.9166353372619120e+00 +0.0000000000000000e+00 +1.0899999307582966e+01 -6.1737639672639565e-04 +0.0000000000000000e+00 +9.9999980942317435e-01
1.0999999999999977e+01 +7.9165733164115206e+00 +0.0000000000000000e+00 +1.0999999288349901e+01 -6.2304061204017489e-04 +0.0000000000000000e+00 +9.9999980591017912e-01
1.1099999999999977e+01 +7.9165107291393157e+00 +0.0000000000000000e+00 +1.1099999268763932e+01 -6.2870483300218449e-04 +0.0000000000000000e+00 +9.9999980236509700e-01
1.1199999999999976e+01 +7.9164475754447290e+00 +0.0000000000000000e+00 +1.1199999248821850e+01 -6.3436905970344062e-04 +0.0000000000000000e+00 +9.9999979878792788e-01
1.1299999999999976e+01 +7.9163838553271813e+00 +0.0000000000000000e+00 +1.1299999228520448e+01 -6.4003329222948120e-04 +0.0000000000000000e+00 +9.9999979517867155e-01
1.1399999999999975e+01 +7.9163195687860863e+00 +0.0000000000000000e+00 +1.1399999207856515e+01 -6.4569753066036492e-04 +0.0000000000000000e+00 +9.9999979153732788e-01
1.1499999999999975e+01 +7.9162547158208501e+00 +0.0000000000000000e+00 +1.1499999186826845e+01 -6.5136177507067110e-04 +0.0000000000000000e+00 +9.9999978786389665e-01
1.1599999999999975e+01 +7.9161892964308711e+00 +0.0000000000000000e+00 +1.1599999165428226e+01 -6.5702602552949899e-04 +0.0000000000000000e+00 +9.9999978415837776e-01
1.1699999999999974e+01 +7.9161233106155411e+00 +0.0000000000000000e+00 +1.1699999143657450e+01 -6.6269028210046719e-04 +0.0000000000000000e+00 +9.9999978042077109e-01
1.1799999999999974e+01 +7.9160567583742454e+00 +0.0000000000000000e+00 +1.1799999121511311e+01 -6.6835454484171311e-04 +0.0000000000000000e+00 +9.9999977665107642e-01
