# multipoles
# s[mm] polynom_b[n=0][T/m^n] polynom_b[n=1][T/m^n] polynom_b[n=2][T/m^n] polynom_b[n=3][T/m^n] polynom_b[n=4][T/m^n] polynom_b[n=5][T/m^n] polynom_b[n=6][T/m^n] 
-0.0000000000000000e+00 -5.6517799797296420e-01 +7.7438638379994593e+00 -1.2978660038469853e-01 -5.6281814496944598e+01 -2.8552396454524353e+02 +6.7734264344151539e+04 -3.0988943191558374e+06 
-1.0000000000000001e-01 -5.6517800526929429e-01 +7.7439033538470596e+00 -1.3119161704569246e-01 -5.7354088868930596e+01 -2.3385351302815553e+02 +7.3257312646762817e+04 -3.4071716396956830e+06 
-2.0000000000000001e-01 -5.6517802512552140e-01 +7.7439430364377300e+00 -1.3168222280303354e-01 -5.8450854668506913e+01 -1.9558021755531732e+02 +7.8964337329780727e+04 -3.6604746223905962e+06 
-2.9999999999999999e-01 -5.6517805694916612e-01 +7.7439827602789464e+00 -1.3129621122399388e-01 -5.9567332013900156e+01 -1.7026869581987850e+02 +8.4826799604954300e+04 -3.8603659021924310e+06 
-4.0000000000000002e-01 -5.6517810014769232e-01 +7.7440223998712305e+00 -1.3007137798296847e-01 -6.0698740829516225e+01 -1.5748352428515602e+02 +9.0816159598267579e+04 -4.0084083176825601e+06 
-5.0000000000000000e-01 -5.6517815412860617e-01 +7.7440618297127042e+00 -1.2804552014884774e-01 -6.1840300992509725e+01 -1.5678925514210735e+02 +9.6903877223082003e+04 -4.1061648186760270e+06 
-5.9999999999999998e-01 -5.6517821829941794e-01 +7.7441009243002830e+00 -1.2525643025832436e-01 -6.2987232345722070e+01 -1.6775052933291744e+02 +1.0306141221151875e+05 -4.1551979296211717e+06 
-6.9999999999999996e-01 -5.6517829206758274e-01 +7.7441395581242558e+00 -1.2174190425328972e-01 -6.4134754549855600e+01 -1.8993192424573473e+02 +1.0926022326653083e+05 -4.1570704745693477e+06 
-8.0000000000000004e-01 -5.6517837484062150e-01 +7.7441776056754419e+00 -1.1753973677219341e-01 -6.5278087279148409e+01 -2.2289804423227019e+02 +1.1547176917851955e+05 -4.1133451443001907e+06 
-9.0000000000000002e-01 -5.6517846602601340e-01 +7.7442149414441595e+00 -1.1268772343851445e-01 -6.6412450192765093e+01 -2.6621347903731271e+02 +1.2166750865275813e+05 -4.0255846886805734e+06 
-1.0000000000000000e+00 -5.6517856503120467e-01 +7.7442514399151152e+00 -1.0722366106009530e-01 -6.7533062781112065e+01 -3.1944279443517632e+02 +1.2781889941160382e+05 -3.8953519750764952e+06 
-1.1000000000000001e+00 -5.6517867126370702e-01 +7.7442869755726704e+00 -1.0118534451413827e-01 -6.8635144518393972e+01 -3.8215059942981696e+02 +1.3389739906636890e+05 -3.7242096462123692e+06 
-1.2000000000000000e+00 -5.6517878413097156e-01 +7.7443214229016482e+00 -9.4610573087910210e-02 -6.9713914878212435e+01 -4.5390141860716460e+02 +1.3987446520510761e+05 -3.5137207469012849e+06 
-1.3000000000000000e+00 -5.6517890304041674e-01 +7.7443546563850951e+00 -8.7537146144170519e-02 -7.0764593262813008e+01 -5.3425978169332018e+02 +1.4572155494360082e+05 -3.2654482762218541e+06 
-1.3999999999999999e+00 -5.6517902739954806e-01 +7.7443865505052045e+00 -8.0002863074570718e-02 -7.1782399034559234e+01 -6.2279021681543418e+02 +1.5141012514021530e+05 -2.9809552418585741e+06 
-1.5000000000000000e+00 -5.6517915661570439e-01 +7.7444169797466831e+00 -7.2045526260615639e-02 -7.2762551608237857e+01 -7.1905719974533770e+02 +1.5691163290474578e+05 -2.6618048842145139e+06 
-1.6000000000000001e+00 -5.6517929009636170e-01 +7.7444458185922116e+00 -6.3702938354787117e-02 -7.3700270301099835e+01 -8.2262520681874889e+02 +1.6219753468033343e+05 -2.3095604210286778e+06 
-1.7000000000000000e+00 -5.6517942724890480e-01 +7.7444729415245037e+00 -5.5012906596924017e-02 -7.4590774414924383e+01 -9.3305862850708377e+02 +1.6723928678761519e+05 -1.9257854699520576e+06 
-1.8000000000000000e+00 -5.6517956748073539e-01 +7.7444982230282662e+00 -4.6013236447127605e-02 -7.5429283268321370e+01 -1.0499218904516697e+03 +1.7200834553390450e+05 -1.5120434717974369e+06 
-1.8999999999999999e+00 -5.6517971019917823e-01 +7.7445215375926741e+00 -3.6741738843728618e-02 -7.6211016269752690e+01 -1.1727793218764014e+03 +1.7647616764842995e+05 -1.0698982997882937e+06 
-2.0000000000000000e+00 -5.6517985481161725e-01 +7.7445427597025693e+00 -2.7236225045081244e-02 -7.6931192666091448e+01 -1.3011952473298954e+03 +1.8061420883043983e+05 -6.0091383724833350e+05 
-2.1000000000000001e+00 -5.6518000075088581e-01 +7.7445617843938281e+00 -1.7535509999238020e-02 -7.7585956625883497e+01 -1.4346950589405037e+03 +1.8439969483971808e+05 -1.0683536382479528e+05 
-2.2000000000000002e+00 -5.6518014755550983e-01 +7.7445785898895529e+00 -7.6821680608680030e-03 -7.8175178356933202e+01 -1.5726466130159642e+03 +1.8783299497139538e+05 +4.0984106320901890e+05 
-2.2999999999999998e+00 -5.6518029479133602e-01 +7.7445931754880046e+00 +2.2803343610557684e-03 -7.8699667361901021e+01 -1.7143776187076498e+03 +1.9092028733229425e+05 +9.4642396798141324e+05 
-2.3999999999999999e+00 -5.6518044202422524e-01 +7.7446055404784602e+00 +1.2308536917551802e-02 -7.9160232859613330e+01 -1.8592159070578107e+03 +1.9366774828963372e+05 +1.5002224739349419e+06 
-2.5000000000000000e+00 -5.6518058881995537e-01 +7.7446156841661127e+00 +2.2358972330642626e-02 -7.9557684501479969e+01 -2.0064891796677653e+03 +1.9608155661466988e+05 +2.0685450954940529e+06 
-2.6000000000000001e+00 -5.6518073474438513e-01 +7.7446236058494140e+00 +3.2388177131623050e-02 -7.9892831727169394e+01 -2.1555252158892786e+03 +1.9816788976706812e+05 +2.6487007311719842e+06 
-2.7000000000000002e+00 -5.6518087936330375e-01 +7.7446293048386226e+00 +4.2352682789521402e-02 -8.0166484292628297e+01 -2.3056517029829997e+03 +1.9993292693854822e+05 +3.2379978538791216e+06 
-2.7999999999999998e+00 -5.6518102224248778e-01 +7.7446327804472377e+00 +5.2209023244403928e-02 -8.0379452021270737e+01 -2.4561963796308132e+03 +2.0138284759788247e+05 +3.8337451925211563e+06 
-2.8999999999999999e+00 -5.6518116294776366e-01 +7.7446340319933720e+00 +6.1913732043886768e-02 -8.0532544843865054e+01 -2.6064869809145803e+03 +2.0252383171549891e+05 +4.4332514690262107e+06 
-3.0000000000000000e+00 -5.6518130104490749e-01 +7.7446330587996126e+00 +7.1423340383186110e-02 -8.0626572803013218e+01 -2.7558512036363486e+03 +2.0336205982403754e+05 +5.0338252413755162e+06 
-3.1000000000000001e+00 -5.6518143609967098e-01 +7.7446298602008010e+00 +8.0694380372207858e-02 -8.0662346259748404e+01 -2.9036167640682347e+03 +2.0390371414352363e+05 +5.6327751628703550e+06 
-3.2000000000000002e+00 -5.6518156767782379e-01 +7.7446244355288147e+00 +8.9683379979137459e-02 -8.0640675476837430e+01 -3.0491113073941078e+03 +2.0415497623878630e+05 +6.2274095712648127e+06 
-3.2999999999999998e+00 -5.6518169534514417e-01 +7.7446167841286719e+00 +9.8346872258463586e-02 -8.0562371058391776e+01 -3.1916625793171115e+03 +2.0412202949316162e+05 +6.8150372894190690e+06 
-3.3999999999999999e+00 -5.6518181866734951e-01 +7.7446069053522342e+00 +1.0664138656535203e-01 -8.0428243795604359e+01 -3.3305982592066803e+03 +2.0381105827976088e+05 +7.3929668351866091e+06 
-3.5000000000000000e+00 -5.6518193721021581e-01 +7.7445947985598309e+00 +1.1452345302125931e-01 -8.0239104677961819e+01 -3.4652460460550205e+03 +2.0322824792729050e+05 +7.9585068325236849e+06 
-3.6000000000000001e+00 -5.6518205053946635e-01 +7.7445804631144926e+00 +1.2194959971299678e-01 -7.9995764768957159e+01 -3.5949336073566687e+03 +2.0237978411880424e+05 +8.5089657718696576e+06 
-3.7000000000000002e+00 -5.6518215822080253e-01 +7.7445638983929665e+00 +1.2887635607749906e-01 -7.9699035482163936e+01 -3.7189886432769276e+03 +2.0127185436597792e+05 +9.0416523174280152e+06 
-3.7999999999999998e+00 -5.6518225981998937e-01 +7.7445451037795250e+00 +1.3526025251340029e-01 -7.9349728437677726e+01 -3.8367388711378217e+03 +1.9991064726865364e+05 +9.5538752088593952e+06 
-3.8999999999999999e+00 -5.6518235490269719e-01 +7.7445240786655773e+00 +1.4105781610200979e-01 -7.8948655421718456e+01 -3.9475119573769666e+03 +1.9830235220556438e+05 +1.0042942974351702e+07 
-4.0000000000000000e+00 -5.6518244303469101e-01 +7.7445008224567200e+00 +1.4622557550857279e-01 -7.8496628607594445e+01 -4.0506356016411100e+03 +1.9645316064840116e+05 +1.0506164306098653e+07 
-4.0999999999999996e+00 -5.6518252398114732e-01 +7.7444753855426161e+00 +1.5073069491005442e-01 -7.7995402120760644e+01 -4.1455671805280153e+03 +1.9437273756120924e+05 +1.0941310968070112e+07 
-4.2000000000000002e+00 -5.6518259830531314e-01 +7.7444480244312972e+00 +1.5458147308196918e-01 -7.7450585108658601e+01 -4.2322565865729975e+03 +1.9208514735673266e+05 +1.1347909473195901e+07 
-4.2999999999999998e+00 -5.6518266677010964e-01 +7.7444190477508119e+00 +1.5779615650928375e-01 -7.6868772641982972e+01 -4.3107705158068911e+03 +1.8961817638388294e+05 +1.1725901555515107e+07 
-4.4000000000000004e+00 -5.6518273013838438e-01 +7.7443887641293285e+00 +1.6039298505397617e-01 -7.6256559847506551e+01 -4.3811755239634776e+03 +1.8699961139283699e+05 +1.2075228248252168e+07 
-4.5000000000000000e+00 -5.6518278917306153e-01 +7.7443574821901215e+00 +1.6239020629558643e-01 -7.5620541766073941e+01 -4.4435382941209327e+03 +1.8425723871024608e+05 +1.2395831144513832e+07 
-4.5999999999999996e+00 -5.6518284463704693e-01 +7.7443255105661457e+00 +1.6380606769407152e-01 -7.4967313789763196e+01 -4.4979254894933820e+03 +1.8141884683314455e+05 +1.2687651701325171e+07 
-4.7000000000000002e+00 -5.6518289729334248e-01 +7.7442931578807528e+00 +1.6465882012689992e-01 -7.4303471088578704e+01 -4.5444038184684750e+03 +1.7851222304370330e+05 +1.2950631542953039e+07 
-4.7999999999999998e+00 -5.6518294790492540e-01 +7.7442607327590656e+00 +1.6496671273369332e-01 -7.3635608970823128e+01 -4.5830399338879834e+03 +1.7556515559428988e+05 +1.3184711976190068e+07 
-4.9000000000000004e+00 -5.6518299723483800e-01 +7.7442285438291325e+00 +1.6474800469022904e-01 -7.2970322896364891e+01 -4.6139006578100661e+03 +1.7260543372284013e+05 +1.3389835061351614e+07 
-5.0000000000000000e+00 -5.6518304604616265e-01 +7.7441968997149822e+00 +1.6402095137556705e-01 -7.2314208289201844e+01 -4.6370527173105547e+03 +1.6966084660319323e+05 +1.3565942351579698e+07 
-5.0999999999999996e+00 -5.6518309510198739e-01 +7.7441661090390772e+00 +1.6280381359068685e-01 -7.1673860616220779e+01 -4.6525629179627076e+03 +1.6675918381568536e+05 +1.3712975715413811e+07 
-5.2000000000000002e+00 -5.6518314516549728e-01 +7.7441364804249710e+00 +1.6111485541889295e-01 -7.1055875472420453e+01 -4.6604981027741787e+03 +1.6392823587445126e+05 +1.3830877139609342e+07 
-5.2999999999999998e+00 -5.6518319699990116e-01 +7.7441083224927230e+00 +1.5897234461004695e-01 -7.0466848430349444e+01 -4.6609251547223885e+03 +1.6119579328608495e+05 +1.3919588729108280e+07 
-5.4000000000000004e+00 -5.6518325136843039e-01 +7.7440819438586441e+00 +1.5639455013386946e-01 -6.9913375065870170e+01 -4.6539109565481576e+03 +1.5858964680505937e+05 +1.3979052532421762e+07 
-5.5000000000000000e+00 -5.6518330903435243e-01 +7.7440576531398255e+00 +1.5339974591818237e-01 -6.9402051073867085e+01 -4.6395224515838754e+03 +1.5613758804964580e+05 +1.4009210803847488e+07 
-5.5999999999999996e+00 -5.6518337076103398e-01 +7.7440357589536477e+00 +1.5000620927209821e-01 -6.8939472271995996e+01 -4.6178266215869471e+03 +1.5386740957393093e+05 +1.4010005920109589e+07 
-5.7000000000000002e+00 -5.6518343731184773e-01 +7.7440165699053143e+00 +1.4623222247143014e-01 -6.8532234226317243e+01 -4.5888905089923628e+03 +1.5180690266244035e+05 +1.3981380464084327e+07 
-5.7999999999999998e+00 -5.6518350945025697e-01 +7.7440003946115272e+00 +1.4209606898770152e-01 -6.8186932960872284e+01 -4.5527811442942821e+03 +1.4998386150482716e+05 +1.3923276877518293e+07 
-5.9000000000000004e+00 -5.6518358793975432e-01 +7.7439875416736337e+00 +1.3761603729806487e-01 -6.7910164171158243e+01 -4.5095656239668660e+03 +1.4842607860395394e+05 +1.3835637847754370e+07 
-5.9999999999999902e+00 -5.6518367354391408e-01 +7.7439783196935332e+00 +1.3281042281277999e-01 -6.7708523690832607e+01 -4.4593111399069840e+03 +1.4716134753321379e+05 +1.3718406430032739e+07 
-6.0999999999999899e+00 -5.6518376696135220e-01 +7.7439729231672478e+00 +1.2770124483192083e-01 -6.7586040649024056e+01 -4.4021826766032154e+03 +1.4620630945506503e+05 +1.3571949763857700e+07 
-6.1999999999999904e+00 -5.6518386862377479e-01 +7.7439710824046744e+00 +1.2232910310712770e-01 -6.7536339582853188e+01 -4.3388215136018498e+03 +1.4553284361081338e+05 +1.3398686987087423e+07 
-6.2999999999999901e+00 -5.6518397889443395e-01 +7.7439724094668358e+00 +1.1674020517665515e-01 -6.7550404311299445e+01 -4.2700100568662265e+03 +1.4510160194863306e+05 +1.3201641467707153e+07 
-6.3999999999999897e+00 -5.6518409813656945e-01 +7.7439765163985239e+00 +1.1098074806874383e-01 -6.7619218176683546e+01 -4.1965305415125204e+03 +1.4487323390830244e+05 +1.2983835831602458e+07 
-6.4999999999999902e+00 -5.6518422671325463e-01 +7.7439830152377134e+00 +1.0509692772178333e-01 -6.7733764300656389e+01 -4.1191652109091146e+03 +1.4480838777993291e+05 +1.2748292819614595e+07 
-6.5999999999999899e+00 -5.6518436498762137e-01 +7.7439915180134342e+00 +9.9134932229811443e-02 -6.7885025513602287e+01 -4.0386961938946333e+03 +1.4486771027973917e+05 +1.2498034719234552e+07 
-6.6999999999999904e+00 -5.6518451332274211e-01 +7.7440016367368587e+00 +9.3140947332001511e-02 -6.8063984129124577e+01 -3.9559056036012435e+03 +1.4501184534554472e+05 +1.2236083820526956e+07 
-6.7999999999999901e+00 -5.6518467208149969e-01 +7.7440129834116522e+00 +8.7161152405202114e-02 -6.8261622194418280e+01 -3.8715754727858089e+03 +1.4520143545824612e+05 +1.1965462137691449e+07 
-6.8999999999999897e+00 -5.6518484162685956e-01 +7.7440251700269220e+00 +8.1241721164213368e-02 -6.8468921318140232e+01 -3.7864877583820744e+03 +1.4539712073907506e+05 +1.1689191408713127e+07 
-6.9999999999999902e+00 -5.6518502232169099e-01 +7.7440378085587778e+00 +7.5428821779619515e-02 -6.8676862702216553e+01 -3.7014243511947011e+03 +1.4555953911563067e+05 +1.1410293159573739e+07 
-7.0999999999999899e+00 -5.6518521452870851e-01 +7.7440505109728166e+00 +6.9768615881352344e-02 -6.8876427214097859e+01 -3.6171670556110525e+03 +1.4564932674187369e+05 +1.1131788605454413e+07 
-7.1999999999999904e+00 -5.6518541861062122e-01 +7.7440628892150247e+00 +6.4307260667063298e-02 -6.9058595113499649e+01 -3.5344976349364911e+03 +1.4562711639791753e+05 +1.0856698879156778e+07 
-7.2999999999999901e+00 -5.6518563493007401e-01 +7.7440745552204211e+00 +5.9090904257789185e-02 -6.9214346316118096e+01 -3.4541977203743486e+03 +1.4545353907098115e+05 +1.0588044591698324e+07 
-7.3999999999999897e+00 -5.6518586384963154e-01 +7.7440851209101815e+00 +5.4165691194435754e-02 -6.9334660295802223e+01 -3.3770489176154197e+03 +1.4508922334787733e+05 +1.0328846343684847e+07 
-7.4999999999999902e+00 -5.6518610573173200e-01 +7.7440941981863203e+00 +4.9577757085219762e-02 -6.9410515933771705e+01 -3.3038327113502105e+03 +1.4449479456980087e+05 +1.0082124288527455e+07 
-7.5999999999999899e+00 -5.6518636093879993e-01 +7.7441013989395424e+00 +4.5373231763621256e-02 -6.9432891745044216e+01 -3.2353305204534936e+03 +1.4363087614247453e+05 +9.8508983815815169e+06 
-7.6999999999999904e+00 -5.6518662983311607e-01 +7.7441063350382340e+00 +4.1598236957057493e-02 -6.9392765554859636e+01 -3.1723236554934620e+03 +1.4245808766234160e+05 +9.6381881826347597e+06 
-7.7999999999999901e+00 -5.6518691277696353e-01 +7.7441086183420280e+00 +3.8298888387103637e-02 -6.9281114886712885e+01 -3.1155933684075585e+03 +1.4093704715827183e+05 +9.4470131184440423e+06 
-7.8999999999999897e+00 -5.6518721013241402e-01 +7.7441078606864471e+00 +3.5521292190328124e-02 -6.9088916526953199e+01 -3.0659207754167592e+03 +1.3902836860633304e+05 +9.2803920913377162e+06 
-7.9999999999999902e+00 -5.6518752226150770e-01 +7.7441036738934708e+00 +3.3311547647921831e-02 -6.8807146833128058e+01 -3.0240869192225364e+03 +1.3669266369367373e+05 +9.1413438001945559e+06 
-8.0999999999999908e+00 -5.6518784935472011e-01 +7.7440957790687586e+00 +3.1704159423272309e-02 -6.8429676090401770e+01 -2.9906994164234789e+03 +1.3390496311896140e+05 +9.0322472975385580e+06 
-8.1999999999999904e+00 -5.6518819093642791e-01 +7.7440843354413875e+00 +3.0684164145593721e-02 -6.7961915463555769e+01 -2.9655727694852367e+03 +1.3069700247498132e+05 +8.9524308210840710e+06 
-8.2999999999999901e+00 -5.6518854636932325e-01 +7.7440696125034885e+00 +3.0223420213723481e-02 -6.7412167963052852e+01 -2.9482977283319156e+03 +1.2711450529881530e+05 +8.9003365722760502e+06 
-8.3999999999999897e+00 -5.6518891501610302e-01 +7.7440518797629103e+00 +3.0293789601984592e-02 -6.6788737028133312e+01 -2.9384650947163200e+03 +1.2320319732415149e+05 +8.8744069444180205e+06 
-8.4999999999999893e+00 -5.6518929623960101e-01 +7.7440314067229687e+00 +3.0867145214270263e-02 -6.6099925958711395e+01 -2.9356658675393373e+03 +1.1900880340146855e+05 +8.8730852090562582e+06 
-8.5999999999999908e+00 -5.6518968940266567e-01 +7.7440084628964936e+00 +3.1915368307414288e-02 -6.5354038301315853e+01 -2.9394911870969449e+03 +1.1457704967990101e+05 +8.8948152347993813e+06 
-8.6999999999999904e+00 -5.6519009386826169e-01 +7.7439833178023676e+00 +3.3410348548275112e-02 -6.4559377773186441e+01 -2.9495323418736048e+03 +1.0995366322813586e+05 +8.9380415304114874e+06 
-8.7999999999999794e+00 -5.6519050899937517e-01 +7.7439562409651641e+00 +3.5323981202914766e-02 -6.3724248228500642e+01 -2.9653807078257291e+03 +1.0518437177381695e+05 +9.0012089389156010e+06 
-8.8999999999999808e+00 -5.6519093415907895e-01 +7.7439275019153104e+00 +3.7628176522753222e-02 -6.2856953678168438e+01 -2.9866279315609863e+03 +1.0031490386182241e+05 +9.0827635186602212e+06 
-8.9999999999999805e+00 -5.6519136871054898e-01 +7.7438973701877689e+00 +4.0294850629738616e-02 -6.1965798236781900e+01 -3.0128657547866228e+03 +9.5390988487265320e+04 +9.1811517025840580e+06 
-9.0999999999999801e+00 -5.6519181201699631e-01 +7.7438661153294186e+00 +4.3295927714422498e-02 -6.1059086352707965e+01 -3.0436860549747389e+03 +9.0458356489860787e+04 +9.2948204867269844e+06 
-9.1999999999999797e+00 -5.6519226344172413e-01 +7.7438340068890810e+00 +4.6603346862726602e-02 -6.0145122503113349e+01 -3.0786809729615002e+03 +8.5562738726269003e+04 +9.4222180308514796e+06 
-9.2999999999999794e+00 -5.6519272234813112e-01 +7.7438013144225897e+00 +5.0189052510000970e-02 -5.9232211352572541e+01 -3.1174427350459496e+03 +8.0749867026896492e+04 +9.5617928216804247e+06 
-9.3999999999999808e+00 -5.6519318809970975e-01 +7.7437683074983781e+00 +5.4025004437260507e-02 -5.8328657900539540e+01 -3.1595638393272284e+03 +7.6065475000359118e+04 +9.7119945464467164e+06 
-9.4999999999999805e+00 -5.6519366006000560e-01 +7.7437352556859418e+00 +5.8083168695348630e-02 -5.7442767156675984e+01 -3.2046368816895965e+03 +7.1555296176857417e+04 +9.8712732630842812e+06 
-9.5999999999999801e+00 -5.6519413759260306e-01 +7.7437024285706952e+00 +6.2335523990427959e-02 -5.6582844572809080e+01 -3.2522546794761965e+03 +6.7265066520182081e+04 +1.0038079989903597e+07 
-9.6999999999999797e+00 -5.6519462006133203e-01 +7.7436700957377429e+00 +6.6754061605307696e-02 -5.5757195563454950e+01 -3.3020102682458119e+03 +6.3240521614594443e+04 +1.0210866690100033e+07 
-9.7999999999999794e+00 -5.6519510682996998e-01 +7.7436385267877608e+00 +7.1310784296873195e-02 -5.4974125967157597e+01 -3.3534968786200820e+03 +5.9527399331845110e+04 +1.0388086148734245e+07 
-9.8999999999999808e+00 -5.6519559726246349e-01 +7.7436079913277291e+00 +7.5977705334404719e-02 -5.4241941782959941e+01 -3.4063079191271381e+03 +5.6171438334516657e+04 +1.0568191897276804e+07 
-9.9999999999999805e+00 -5.6519609072282750e-01 +7.7435787589670086e+00 +8.0726850058912100e-02 -5.3568949023582093e+01 -3.4600370024493582e+03 +5.3218377032379023e+04 +1.0749638319071611e+07 
-1.0100000000000000e+01 -5.6519658670830986e-01 +7.7435510466201940e+00 +8.5533640441348965e-02 -5.2961615904227251e+01 -3.5143231412196828e+03 +5.0702544027816286e+04 +1.0931045730689000e+07 
