# multipoles
# s[mm] polynom_b[n=0][T/m^n] polynom_b[n=1][T/m^n] polynom_b[n=2][T/m^n] polynom_b[n=3][T/m^n] polynom_b[n=4][T/m^n] polynom_b[n=5][T/m^n] polynom_b[n=6][T/m^n] 
-0.0000000000000000e+00 -5.6517799797296409e-01 +7.7438638379994593e+00 -1.2978660036337639e-01 -5.6281814496944598e+01 -2.8552396524990144e+02 +6.7734264344151539e+04 -3.0988943149198792e+06 
-1.0000000000000001e-01 -5.6517800526932194e-01 +7.7439033538473696e+00 -1.3119161710985289e-01 -5.7354088875962972e+01 -2.3385351140345500e+02 +7.3257312683617260e+04 -3.4071716490830840e+06 
-2.0000000000000001e-01 -5.6517802512564008e-01 +7.7439430364388393e+00 -1.3168222200206733e-01 -5.8450854700189538e+01 -1.9558023326756205e+02 +7.8964337514124447e+04 -3.6604745466621201e+06 
-2.9999999999999999e-01 -5.6517805694936973e-01 +7.7439827602798212e+00 -1.3129621051262180e-01 -5.9567332036813738e+01 -1.7026870867036925e+02 +8.4826799736076704e+04 -3.8603658435911094e+06 
-4.0000000000000002e-01 -5.6517810014805336e-01 +7.7440223998719828e+00 -1.3007137858414283e-01 -6.0698740850610328e+01 -1.5748351319234402e+02 +9.0816159725233068e+04 -4.0084083701572078e+06 
-5.0000000000000000e-01 -5.6517815412917294e-01 +7.7440618297128587e+00 -1.2804551952308127e-01 -6.1840300993358717e+01 -1.5678926779084398e+02 +9.6903877226115932e+04 -4.1061647577783796e+06 
-5.9999999999999998e-01 -5.6517821830023229e-01 +7.7441009242995600e+00 -1.2525643038246520e-01 -6.2987232319091937e+01 -1.6775052825419388e+02 +1.0306141205148357e+05 -4.1551979322932106e+06 
-6.9999999999999996e-01 -5.6517829206871251e-01 +7.7441395581248189e+00 -1.2174190376784169e-01 -6.4134754558585783e+01 -1.8993193483529177e+02 +1.0926022330945219e+05 -4.1570704210798661e+06 
-8.0000000000000004e-01 -5.6517837484208500e-01 +7.7441776056754179e+00 -1.1753973672993626e-01 -6.5278087268966445e+01 -2.2289804662015024e+02 +1.1547176910930724e+05 -4.1133451291872291e+06 
-9.0000000000000002e-01 -5.6517846602784405e-01 +7.7442149414439534e+00 -1.1268772331103714e-01 -6.6412450174461284e+01 -2.6621348260554544e+02 +1.2166750853107440e+05 -4.0255846692227214e+06 
-1.0000000000000000e+00 -5.6517856503345976e-01 +7.7442514399142386e+00 -1.0722366069390740e-01 -6.7533062743854558e+01 -3.1944280252117613e+02 +1.2781889918389046e+05 -3.8953519340378372e+06 
-1.1000000000000001e+00 -5.6517867126646315e-01 +7.7442869755720176e+00 -1.0118534492759072e-01 -6.8635144487278268e+01 -3.8215059250830120e+02 +1.3389739887858010e+05 -3.7242096766658868e+06 
-1.2000000000000000e+00 -5.6517878413423628e-01 +7.7443214229004562e+00 -9.4610573241327975e-02 -6.9713914828630010e+01 -4.5390141690811333e+02 +1.3987446490365101e+05 -3.5137207515378422e+06 
-1.3000000000000000e+00 -5.6517890304424545e-01 +7.7443546563848216e+00 -8.7537146118474643e-02 -7.0764593237720490e+01 -5.3425978407937464e+02 +1.4572155478124446e+05 -3.2654482592036556e+06 
-1.3999999999999999e+00 -5.6517902740396553e-01 +7.7443865505047365e+00 -8.0002863415258169e-02 -7.1782399004010628e+01 -6.2279021160473530e+02 +1.5141012494898238e+05 -2.9809552625586828e+06 
-1.5000000000000000e+00 -5.6517915662080254e-01 +7.7444169797462852e+00 -7.2045525944766597e-02 -7.2762551577407223e+01 -7.1905720765531305e+02 +1.5691163270703386e+05 -2.6618048400980835e+06 
-1.6000000000000001e+00 -5.6517929010215695e-01 +7.7444458185919496e+00 -6.3702938942145529e-02 -7.3700270273299978e+01 -8.2262519717450220e+02 +1.6219753450048628e+05 -2.3095604610386901e+06 
-1.7000000000000000e+00 -5.6517942725544656e-01 +7.7444729415232851e+00 -5.5012905721960853e-02 -7.4590774360331025e+01 -9.3305864463277157e+02 +1.6723928645574598e+05 -1.9257853917941705e+06 
-1.8000000000000000e+00 -5.6517956748805565e-01 +7.7444982230286108e+00 -4.6013236552374451e-02 -7.5429283254586096e+01 -1.0499218889074709e+03 +1.7200834542776534e+05 -1.5120434751037806e+06 
-1.8999999999999999e+00 -5.6517971020734836e-01 +7.7445215375913490e+00 -3.6741738475468882e-02 -7.6211016207482913e+01 -1.1727793283461215e+03 +1.7647616726255522e+05 -1.0698982667570505e+06 
-2.0000000000000000e+00 -5.6517985482067867e-01 +7.7445427597025605e+00 -2.7236225937995823e-02 -7.6931192639627412e+01 -1.3011952292241483e+03 +1.8061420864598753e+05 -6.0091392237477133e+05 
-2.1000000000000001e+00 -5.6518000076086172e-01 +7.7445617843929959e+00 -1.7535509195554095e-02 -7.7585956576505708e+01 -1.4346950732068392e+03 +1.8439969452414243e+05 -1.0683529346665283e+05 
-2.2000000000000002e+00 -5.6518014756646195e-01 +7.7445785898902413e+00 -7.6821685267694888e-03 -7.8175178347888121e+01 -1.5726466021314302e+03 +1.8783299487889081e+05 +4.0984101172292512e+05 
-2.2999999999999998e+00 -5.6518029480331999e-01 +7.7445931754879789e+00 +2.2803361201606605e-03 -7.8699667331761844e+01 -1.7143776495771635e+03 +1.9092028711282418e+05 +9.4642411470099189e+05 
-2.3999999999999999e+00 -5.6518044203726936e-01 +7.7446055404790224e+00 +1.2308537339063980e-02 -7.9160232844871544e+01 -1.8592159117684091e+03 +1.9366774815566858e+05 +1.5002224951977767e+06 
-2.5000000000000000e+00 -5.6518058883413314e-01 +7.7446156841651188e+00 +2.2358973540982045e-02 -7.9557684444143717e+01 -2.0064891980041800e+03 +1.9608155623860969e+05 +2.0685451786536498e+06 
-2.6000000000000001e+00 -5.6518073475967390e-01 +7.7446236058495286e+00 +3.2388176403647974e-02 -7.9892831702242944e+01 -2.1555251976336267e+03 +1.9816788958029466e+05 +2.6487006423578425e+06 
-2.7000000000000002e+00 -5.6518087937980988e-01 +7.7446293048380053e+00 +4.2352682756742512e-02 -8.0166484248424538e+01 -2.3056516965974097e+03 +1.9993292664537017e+05 +3.2379978189302962e+06 
-2.7999999999999998e+00 -5.6518102226023881e-01 +7.7446327804481889e+00 +5.2209023940856324e-02 -8.0379452019703137e+01 -2.4561963864384006e+03 +2.0138284754069636e+05 +3.8337452195431655e+06 
-2.8999999999999999e+00 -5.6518116296681498e-01 +7.7446340319937761e+00 +6.1913733316347141e-02 -8.0532544827425298e+01 -2.6064869987270249e+03 +2.0252383157546591e+05 +4.4332515500620231e+06 
-3.0000000000000000e+00 -5.6518130106527698e-01 +7.7446330588006074e+00 +7.1423340876389657e-02 -8.0626572803425631e+01 -2.7558512054626426e+03 +2.0336205977939826e+05 +5.0338252442777650e+06 
-3.1000000000000001e+00 -5.6518143612141725e-01 +7.7446298601993808e+00 +8.0694380410348432e-02 -8.0662346193803501e+01 -2.9036167567555176e+03 +2.0390371372263113e+05 +5.6327751228432795e+06 
-3.2000000000000002e+00 -5.6518156770101047e-01 +7.7446244355272302e+00 +8.9683380537728771e-02 -8.0640675404750695e+01 -3.0491113095476376e+03 +2.0415497577796923e+05 +6.2274095762300249e+06 
-3.2999999999999998e+00 -5.6518169536977181e-01 +7.7446167841298275e+00 +9.8346873158776618e-02 -8.0562371069591649e+01 -3.1916625858731682e+03 +2.0412202952458768e+05 +6.8150373110805228e+06 
-3.3999999999999999e+00 -5.6518181869352568e-01 +7.7446069053526880e+00 +1.0664138730029915e-01 -8.0428243784579280e+01 -3.3305982614879199e+03 +2.0381105817470947e+05 +7.3929668350590002e+06 
-3.5000000000000000e+00 -5.6518193723794063e-01 +7.7445947985584001e+00 +1.1452345376976558e-01 -8.0239104617793728e+01 -3.4652460486359300e+03 +2.0322824755205261e+05 +7.9585068355827807e+06 
-3.6000000000000001e+00 -5.6518205056879955e-01 +7.7445804631146560e+00 +1.2194960084163696e-01 -7.9995764754818168e+01 -3.5949336173446759e+03 +2.0237978400809609e+05 +8.5089658125130218e+06 
-3.7000000000000002e+00 -5.6518215825179985e-01 +7.7445638983922489e+00 +1.2887635731775607e-01 -7.9699035444787754e+01 -3.7189886532358341e+03 +2.0127185412377241e+05 +9.0416523535529468e+06 
-3.7999999999999998e+00 -5.6518225985267390e-01 +7.7445451037789743e+00 +1.3526025350718535e-01 -7.9349728408301729e+01 -3.8367388761740049e+03 +1.9991064708082957e+05 +9.5538752223544121e+06 
-3.8999999999999999e+00 -5.6518235493713020e-01 +7.7445240786647913e+00 +1.4105781736096656e-01 -7.8948655388946520e+01 -3.9475119673596660e+03 +1.9830235200560463e+05 +1.0042943013162777e+07 
-4.0000000000000000e+00 -5.6518244307089882e-01 +7.7445008224564793e+00 +1.4622557660666408e-01 -7.8496628592885656e+01 -4.0506356069028579e+03 +1.9645316055754115e+05 +1.0506164319983585e+07 
-4.0999999999999996e+00 -5.6518252401917801e-01 +7.7444753855415778e+00 +1.5073069477337295e-01 -7.7995402087258370e+01 -4.1455671600049363e+03 +1.9437273737270766e+05 +1.0941310854934480e+07 
-4.2000000000000002e+00 -5.6518259834526530e-01 +7.7444480244314136e+00 +1.5458147370033992e-01 -7.7450585110071529e+01 -4.2322565795015853e+03 +1.9208514737272364e+05 +1.1347909423129812e+07 
-4.2999999999999998e+00 -5.6518266681197449e-01 +7.7444190477497390e+00 +1.5779615677482789e-01 -7.6868772615145048e+01 -4.3107705014383500e+03 +1.8961817625436798e+05 +1.1725901470917195e+07 
-4.4000000000000004e+00 -5.6518273018222576e-01 +7.7443887641279741e+00 +1.6039298587439840e-01 -7.6256559816423717e+01 -4.3811755194058287e+03 +1.8699961124815242e+05 +1.2075228210111456e+07 
-4.5000000000000000e+00 -5.6518278921889720e-01 +7.7443574821903285e+00 +1.6239020651997924e-01 -7.5620541785300986e+01 -4.4435382781946792e+03 +1.8425723887196297e+05 +1.2395831053398330e+07 
-4.5999999999999996e+00 -5.6518284468494606e-01 +7.7443255105643827e+00 +1.6380606873311257e-01 -7.4967313756412750e+01 -4.4979254874514336e+03 +1.8141884670224116e+05 +1.2687651673205137e+07 
-4.7000000000000002e+00 -5.6518289734335081e-01 +7.7442931578775216e+00 +1.6465882080861605e-01 -7.4303471021479666e+01 -4.5444038095755732e+03 +1.7851222274452052e+05 +1.2950631483438458e+07 
-4.7999999999999998e+00 -5.6518294795708535e-01 +7.7442607327573185e+00 +1.6496671464762511e-01 -7.3635608950599476e+01 -4.5830399463333652e+03 +1.7556515557907478e+05 +1.3184712013628587e+07 
-4.9000000000000004e+00 -5.6518299728918808e-01 +7.7442285438267584e+00 +1.6474800584172983e-01 -7.2970322864297160e+01 -4.6139006554201724e+03 +1.7260543365904692e+05 +1.3389835028030023e+07 
-5.0000000000000000e+00 -5.6518304610272996e-01 +7.7441968997125867e+00 +1.6402095150049281e-01 -7.2314208261010862e+01 -4.6370526943305704e+03 +1.6966084657670089e+05 +1.3565942218177460e+07 
-5.0999999999999996e+00 -5.6518309516087273e-01 +7.7441661090363922e+00 +1.6280381488784235e-01 -7.1673860586812978e+01 -4.6525629168668738e+03 +1.6675918380829220e+05 +1.3712975685679499e+07 
-5.2000000000000002e+00 -5.6518314522672486e-01 +7.7441364804214734e+00 +1.6111485714691068e-01 -7.1055875423774054e+01 -4.6604981082829518e+03 +1.6392823577095254e+05 +1.3830877137740726e+07 
-5.2999999999999998e+00 -5.6518319706348630e-01 +7.7441083224884917e+00 +1.5897234541764846e-01 -7.0466848369573896e+01 -4.6609251425047160e+03 +1.6119579314393128e+05 +1.3919588642381253e+07 
-5.4000000000000004e+00 -5.6518325143444359e-01 +7.7440819438530619e+00 +1.5639455168726643e-01 -6.9913374970782087e+01 -4.6539109575255416e+03 +1.5858964648166919e+05 +1.3979052505760578e+07 
-5.5000000000000000e+00 -5.6518330910281311e-01 +7.7440576531353997e+00 +1.5339974722015104e-01 -6.9402051024113803e+01 -4.6395224474249499e+03 +1.5613758802894660e+05 +1.4009210751735548e+07 
-5.5999999999999996e+00 -5.6518337083203207e-01 +7.7440357589480051e+00 +1.5000621092336106e-01 -6.8939472193424791e+01 -4.6178266227248805e+03 +1.5386740941116994e+05 +1.4010005889063984e+07 
-5.7000000000000002e+00 -5.6518343738540933e-01 +7.7440165699014027e+00 +1.4623222420334800e-01 -6.8532234206620018e+01 -4.5888905101185755e+03 +1.5180690287341934e+05 +1.3981380427922092e+07 
-5.7999999999999998e+00 -5.6518350952643770e-01 +7.7440003946051679e+00 +1.4209607079192998e-01 -6.8186932879864230e+01 -4.5527811464716187e+03 +1.4998386139666568e+05 +1.3923276845151667e+07 
-5.9000000000000004e+00 -5.6518358801855983e-01 +7.7439875416657662e+00 +1.3761603994133820e-01 -6.7910164052239921e+01 -4.5095656420736805e+03 +1.4842607830013626e+05 +1.3835637890126567e+07 
-5.9999999999999902e+00 -5.6518367362543098e-01 +7.7439783196851364e+00 +1.3281042643149366e-01 -6.7708523568189051e+01 -4.4593111749806794e+03 +1.4716134724969161e+05 +1.3718406547727142e+07 
-6.0999999999999899e+00 -5.6518376704558304e-01 +7.7439729231598209e+00 +1.2770124631919680e-01 -6.7586040563471798e+01 -4.4021826700404526e+03 +1.4620630942367238e+05 +1.3571949678779470e+07 
-6.1999999999999904e+00 -5.6518386871077453e-01 +7.7439710823966088e+00 +1.2232910585961893e-01 -6.7536339486546311e+01 -4.3388215305086269e+03 +1.4553284354645960e+05 +1.3398687011071507e+07 
-6.2999999999999901e+00 -5.6518397898427042e-01 +7.7439724094566795e+00 +1.1674020697423762e-01 -6.7550404167339906e+01 -4.2700100540636995e+03 +1.4510160165068184e+05 +1.3201641392769290e+07 
-6.3999999999999897e+00 -5.6518409822929261e-01 +7.7439765163893233e+00 +1.1098075157511060e-01 -6.7619218066867631e+01 -4.1965305694024664e+03 +1.4487323383240789e+05 +1.2983835897461504e+07 
-6.4999999999999902e+00 -5.6518422680889602e-01 +7.7439830152282285e+00 +1.0509692996652321e-01 -6.7733764191805278e+01 -4.1191652135639406e+03 +1.4480838773796745e+05 +1.2748292761358356e+07 
-6.5999999999999899e+00 -5.6518436508625713e-01 +7.7439915180014260e+00 +9.9134935544471559e-02 -6.7885025344167659e+01 -4.0386962149533610e+03 +1.4486770992357723e+05 +1.2498034743649377e+07 
-6.6999999999999904e+00 -5.6518451342436149e-01 +7.7440016367248656e+00 +9.3140950680891774e-02 -6.8063983968536121e+01 -3.9559056254938241e+03 +1.4501184506320028e+05 +1.2236083849726848e+07 
-6.7999999999999901e+00 -5.6518467218619084e-01 +7.7440129833989477e+00 +8.7161155912206120e-02 -6.8261622022591382e+01 -3.8715754954420654e+03 +1.4520143513417753e+05 +1.1965462165070495e+07 
-6.8999999999999897e+00 -5.6518484173465444e-01 +7.7440251700144191e+00 +8.1241725289729477e-02 -6.8468921159282743e+01 -3.7864877901758778e+03 +1.4539712050590361e+05 +1.1689191473379664e+07 
-6.9999999999999902e+00 -5.6518502243260993e-01 +7.7440378085469517e+00 +7.5428825462912644e-02 -6.8676862573542493e+01 -3.7014243723404206e+03 +1.4555953907942123e+05 +1.1410293169261167e+07 
-7.0999999999999899e+00 -5.6518521464281024e-01 +7.7440505109591484e+00 +6.9768619727319348e-02 -6.8876427040362515e+01 -3.6171670787124203e+03 +1.4564932645866147e+05 +1.1131788622782025e+07 
-7.1999999999999904e+00 -5.6518541872796302e-01 +7.7440628892015342e+00 +6.4307264608087264e-02 -6.9058594951845848e+01 -3.5344976580069588e+03 +1.4562711619226856e+05 +1.0856698893871315e+07 
-7.2999999999999901e+00 -5.6518563505071018e-01 +7.7440745552061507e+00 +5.9090907995493089e-02 -6.9214346142338343e+01 -3.4541977368251928e+03 +1.4545353881027602e+05 +1.0588044569693916e+07 
-7.3999999999999897e+00 -5.6518586397356607e-01 +7.7440851208952646e+00 +5.4165695291526990e-02 -6.9334660111110324e+01 -3.3770489393007556e+03 +1.4508922302941902e+05 +1.0328846345066691e+07 
-7.4999999999999902e+00 -5.6518610585907303e-01 +7.7440941981725482e+00 +4.9577760864495030e-02 -6.9410515790258486e+01 -3.3038327246152635e+03 +1.4449479449384971e+05 +1.0082124246881042e+07 
-7.5999999999999899e+00 -5.6518636106955100e-01 +7.7441013989234060e+00 +4.5373235523572059e-02 -6.9432891542407830e+01 -3.2353305297592187e+03 +1.4363087572940861e+05 +9.8508983150922488e+06 
-7.6999999999999904e+00 -5.6518662996733415e-01 +7.7441063350231047e+00 +4.1598241089960186e-02 -6.9392765383505008e+01 -3.1723236703334524e+03 +1.4245808741264735e+05 +9.6381881427189372e+06 
-7.7999999999999901e+00 -5.6518691291466916e-01 +7.7441086183255470e+00 +3.8298891699977973e-02 -6.9281114686382949e+01 -3.1155933647249817e+03 +1.4093704674172463e+05 +9.4470129872353598e+06 
-7.8999999999999897e+00 -5.6518721027366325e-01 +7.7441078606691658e+00 +3.5521294760056055e-02 -6.9088916310783304e+01 -3.0659207554549344e+03 +1.3902836808941199e+05 +9.2803918820938896e+06 
-7.9999999999999902e+00 -5.6518752240640191e-01 +7.7441036738758244e+00 +3.3311551234932561e-02 -6.8807146612757975e+01 -3.0240869141909766e+03 +1.3669266313907781e+05 +9.1413436559102070e+06 
-8.0999999999999908e+00 -5.6518784950325429e-01 +7.7440957790504283e+00 +3.1704163678073091e-02 -6.8429675853749444e+01 -2.9906994215145132e+03 +1.3390496244912455e+05 +9.0322472004674301e+06 
-8.1999999999999904e+00 -5.6518819108865548e-01 +7.7440843354220723e+00 +3.0684168705912881e-02 -6.7961915207507317e+01 -2.9655727776345111e+03 +1.3069700168424682e+05 +8.9524307370116785e+06 
-8.2999999999999901e+00 -5.6518854652526207e-01 +7.7440696124847523e+00 +3.0223423639538775e-02 -6.7412167729071996e+01 -2.9482977120279256e+03 +1.2711450461976715e+05 +8.9003363706687186e+06 
-8.3999999999999897e+00 -5.6518891517581749e-01 +7.7440518797427087e+00 +3.0293793154274534e-02 -6.6788736757945870e+01 -2.9384650790237702e+03 +1.2320319642270886e+05 +8.8744067467537336e+06 
-8.4999999999999893e+00 -5.6518929640315019e-01 +7.7440314067030300e+00 +3.0867149034001271e-02 -6.6099925702912131e+01 -2.9356658546878211e+03 +1.1900880257410883e+05 +8.8730850253804829e+06 
-8.5999999999999908e+00 -5.6518968957009941e-01 +7.7440084628760424e+00 +3.1915371767780989e-02 -6.5354038036709127e+01 -2.9394911652458045e+03 +1.1457704878902283e+05 +8.8948150082178712e+06 
-8.6999999999999904e+00 -5.6519009403960696e-01 +7.7439833177827442e+00 +3.3410351312830454e-02 -6.4559377538041701e+01 -2.9495323042170508e+03 +1.0995366249647058e+05 +8.9380412278088313e+06 
-8.7999999999999794e+00 -5.6519050917466807e-01 +7.7439562409431186e+00 +3.5323984430591336e-02 -6.3724247929103250e+01 -2.9653806770972415e+03 +1.0518437066013314e+05 +9.0012086700514648e+06 
-8.8999999999999808e+00 -5.6519093433839818e-01 +7.7439275018930154e+00 +3.7628179420999532e-02 -6.2856953373359403e+01 -2.9866278926237933e+03 +1.0031490269675490e+05 +9.0827632114930265e+06 
-8.9999999999999805e+00 -5.6519136889391319e-01 +7.7438973701666427e+00 +4.0294852116108872e-02 -6.1965797975656926e+01 -3.0128656881289676e+03 +9.5390987579910739e+04 +9.1811512672521193e+06 
-9.0999999999999801e+00 -5.6519181220445314e-01 +7.7438661153062780e+00 +4.3295930124118739e-02 -6.1059086040139384e+01 -3.0436860041083110e+03 +9.0458355282995806e+04 +9.2948201275624782e+06 
-9.1999999999999797e+00 -5.6519226363332520e-01 +7.7438340068648523e+00 +4.6603349675951380e-02 -6.0145122164439883e+01 -3.0786809285905611e+03 +8.5562737362026877e+04 +9.4222177054998577e+06 
-9.2999999999999794e+00 -5.6519272254392794e-01 +7.7438013143981674e+00 +5.0189055287475255e-02 -5.9232211011556892e+01 -3.1174426899903838e+03 +8.0749865639434487e+04 +9.5617924985889234e+06 
-9.3999999999999808e+00 -5.6519318829972520e-01 +7.7437683074732107e+00 +5.4025006356701780e-02 -5.8328657543036890e+01 -3.1595637771702491e+03 +7.6065473511774297e+04 +9.7119941456514653e+06 
-9.4999999999999805e+00 -5.6519366026427498e-01 +7.7437352556612842e+00 +5.8083170613208029e-02 -5.7442766820590883e+01 -3.2046368180437012e+03 +7.1555294815612098e+04 +9.8712728567359354e+06 
-9.5999999999999801e+00 -5.6519413780121219e-01 +7.7437024285439309e+00 +6.2335526098531775e-02 -5.6582844182006085e+01 -3.2522546190449393e+03 +6.7265064845380650e+04 +1.0038079603526426e+07 
-9.6999999999999797e+00 -5.6519462027430534e-01 +7.7436700957118711e+00 +6.6754063647542411e-02 -5.5757195203203551e+01 -3.3020102068284709e+03 +6.3240520114623803e+04 +1.0210866304701710e+07 
-9.7999999999999794e+00 -5.6519510704736586e-01 +7.7436385267609191e+00 +7.1310786358658396e-02 -5.4974125584274525e+01 -3.3534968169078397e+03 +5.9527397707230135e+04 +1.0388085765339678e+07 
-9.8999999999999808e+00 -5.6519559748430059e-01 +7.7436079912990996e+00 +7.5977706397257497e-02 -5.4241941351058394e+01 -3.4063078397221407e+03 +5.6171436421402133e+04 +1.0568191438731838e+07 
-9.9999999999999805e+00 -5.6519609094916867e-01 +7.7435787589385212e+00 +8.0726850915118012e-02 -5.3568948600731474e+01 -3.4600369193393080e+03 +5.3218375178963885e+04 +1.0749637848139064e+07 
-1.0100000000000000e+01 -5.6519658693921582e-01 +7.7435510465909969e+00 +8.5533641623694839e-02 -5.2961615465655633e+01 -3.5143230654680433e+03 +5.0702542088521273e+04 +1.0931045302872693e+07 
