# field on trajectory
# s[mm] rx[mm] ry[mm] rz[mm] bx[T] by[T] bz[T]
0.0000000000000000e+00 +7.9199999999999999e+00 +0.0000000000000000e+00 +0.0000000000000000e+00 -2.9250320014953955e-02 -5.3838546932876485e-01 +5.3268221388340425e-03
1.0000000000000001e-01 +7.9199997170338579e+00 +0.0000000000000000e+00 +9.9999999999466210e-02 -2.9250360234164177e-02 -5.3838526207848036e-01 +5.3268082214538359e-03
2.0000000000000001e-01 +7.9199988681355746e+00 +0.0000000000000000e+00 +1.9999999999572959e-01 -2.9250399840817877e-02 -5.3838507002837721e-01 +5.3267958473176237e-03
3.0000000000000004e-01 +7.9199974533053528e+00 +0.0000000000000000e+00 +2.9999999998558741e-01 -2.9250439316662182e-02 -5.3838489254986310e-01 +5.3267849020806040e-03
4.0000000000000002e-01 +7.9199954725433788e+00 +0.0000000000000000e+00 +3.9999999996583685e-01 -2.9250479143446754e-02 -5.3838472901434697e-01 +5.3267752713987071e-03
5.0000000000000000e-01 +7.9199929258498241e+00 +0.0000000000000000e+00 +4.9999999993327515e-01 -2.9250519802922009e-02 -5.3838457879323809e-01 +5.3267668409286402e-03
5.9999999999999998e-01 +7.9199898132248467e+00 +0.0000000000000000e+00 +5.9999999988469954e-01 -2.9250561776837419e-02 -5.3838444125794527e-01 +5.3267594963279643e-03
6.9999999999999996e-01 +7.9199861346685916e+00 +0.0000000000000000e+00 +6.9999999981690719e-01 -2.9250605546939711e-02 -5.3838431577987500e-01 +5.3267531232551388e-03
7.9999999999999993e-01 +7.9199818901811909e+00 +0.0000000000000000e+00 +7.9999999972669533e-01 -2.9250651594971110e-02 -5.3838420173043100e-01 +5.3267476073695823e-03
8.9999999999999991e-01 +7.9199770797627647e+00 +0.0000000000000000e+00 +8.9999999961086130e-01 -2.9250700402667598e-02 -5.3838409848101221e-01 +5.3267428343317319e-03
9.9999999999999989e-01 +7.9199717034134220e+00 +0.0000000000000000e+00 +9.9999999946620222e-01 -2.9250752451757182e-02 -5.3838400540301323e-01 +5.3267386898031184e-03
1.0999999999999999e+00 +7.9199657611332608e+00 +0.0000000000000000e+00 +1.0999999992895153e+00 -2.9250808223958064e-02 -5.3838392186782125e-01 +5.3267350594463931e-03
1.2000000000000000e+00 +7.9199592529223688e+00 +0.0000000000000000e+00 +1.1999999990775978e+00 -2.9250868200976946e-02 -5.3838384724681654e-01 +5.3267318289254104e-03
1.3000000000000000e+00 +7.9199521787808251e+00 +0.0000000000000000e+00 +1.2999999988272470e+00 -2.9250932864507265e-02 -5.3838378091137007e-01 +5.3267288839052842e-03
1.4000000000000001e+00 +7.9199445387086991e+00 +0.0000000000000000e+00 +1.3999999985352600e+00 -2.9251002696227411e-02 -5.3838372223284370e-01 +5.3267261100524398e-03
1.5000000000000002e+00 +7.9199363327060537e+00 +0.0000000000000000e+00 +1.4999999981984342e+00 -2.9251078177798977e-02 -5.3838367058258763e-01 +5.3267233930346736e-03
1.6000000000000003e+00 +7.9199275607729422e+00 +0.0000000000000000e+00 +1.5999999978135666e+00 -2.9251159790865035e-02 -5.3838362533194051e-01 +5.3267206185212169e-03
1.7000000000000004e+00 +7.9199182229094136e+00 +0.0000000000000000e+00 +1.6999999973774547e+00 -2.9251248017048308e-02 -5.3838358585222734e-01 +5.3267176721827963e-03
1.8000000000000005e+00 +7.9199083191155095e+00 +0.0000000000000000e+00 +1.7999999968868956e+00 -2.9251343337949483e-02 -5.3838355151475903e-01 +5.3267144396916761e-03
1.9000000000000006e+00 +7.9198978493912664e+00 +0.0000000000000000e+00 +1.8999999963386864e+00 -2.9251446235145417e-02 -5.3838352169083092e-01 +5.3267108067217416e-03
2.0000000000000004e+00 +7.9198868137367162e+00 +0.0000000000000000e+00 +1.9999999957296246e+00 -2.9251557190187398e-02 -5.3838349575172151e-01 +5.3267066589485421e-03
2.1000000000000005e+00 +7.9198752121518856e+00 +0.0000000000000000e+00 +2.0999999950565074e+00 -2.9251676485096634e-02 -5.3838347317827684e-01 +5.3267019168209443e-03
2.2000000000000006e+00 +7.9198630446367995e+00 +0.0000000000000000e+00 +2.1999999943161317e+00 -2.9251803603866065e-02 -5.3838345388966691e-01 +5.3266966398750615e-03
2.3000000000000007e+00 +7.9198503111914791e+00 +0.0000000000000000e+00 +2.2999999935052950e+00 -2.9251937830989554e-02 -5.3838343791465126e-01 +5.3266909224178698e-03
2.4000000000000008e+00 +7.9198370118159405e+00 +0.0000000000000000e+00 +2.3999999926207947e+00 -2.9252078450969804e-02 -5.3838342528199634e-01 +5.3266848587551598e-03
2.5000000000000009e+00 +7.9198231465101978e+00 +0.0000000000000000e+00 +2.4999999916594278e+00 -2.9252224748320739e-02 -5.3838341602047779e-01 +5.3266785431912737e-03
2.6000000000000010e+00 +7.9198087152742618e+00 +0.0000000000000000e+00 +2.5999999906179916e+00 -2.9252376007569914e-02 -5.3838341015888225e-01 +5.3266720700288744e-03
2.7000000000000011e+00 +7.9197937181081386e+00 +0.0000000000000000e+00 +2.6999999894932833e+00 -2.9252531513260877e-02 -5.3838340772600923e-01 +5.3266655335686731e-03
2.8000000000000012e+00 +7.9197781550118309e+00 +0.0000000000000000e+00 +2.7999999882821003e+00 -2.9252690549955572e-02 -5.3838340875067248e-01 +5.3266590281091930e-03
2.9000000000000012e+00 +7.9197620259853387e+00 +0.0000000000000000e+00 +2.8999999869812392e+00 -2.9252852402236733e-02 -5.3838341326170169e-01 +5.3266526479465153e-03
3.0000000000000013e+00 +7.9197453310286576e+00 +0.0000000000000000e+00 +2.9999999855874977e+00 -2.9253016354710292e-02 -5.3838342128794547e-01 +5.3266464873740300e-03
3.1000000000000014e+00 +7.9197280701417796e+00 +0.0000000000000000e+00 +3.0999999840976731e+00 -2.9253181692007704e-02 -5.3838343285827095e-01 +5.3266406406821763e-03
3.2000000000000015e+00 +7.9197102433246931e+00 +0.0000000000000000e+00 +3.1999999825085625e+00 -2.9253347698788401e-02 -5.3838344800156679e-01 +5.3266352021582065e-03
3.3000000000000016e+00 +7.9196918505773821e+00 +0.0000000000000000e+00 +3.2999999808169633e+00 -2.9253513659742179e-02 -5.3838346674674531e-01 +5.3266302660859230e-03
3.4000000000000017e+00 +7.9196728918998280e+00 +0.0000000000000000e+00 +3.3999999790196727e+00 -2.9253678859591545e-02 -5.3838348912274325e-01 +5.3266259267454328e-03
3.5000000000000018e+00 +7.9196533672920086e+00 +0.0000000000000000e+00 +3.4999999771134878e+00 -2.9253842583094176e-02 -5.3838351515852401e-01 +5.3266222784128991e-03
3.6000000000000019e+00 +7.9196332767538964e+00 +0.0000000000000000e+00 +3.5999999750952059e+00 -2.9254004115045234e-02 -5.3838354488307960e-01 +5.3266194153602847e-03
3.7000000000000020e+00 +7.9196126202854611e+00 +0.0000000000000000e+00 +3.6999999729616242e+00 -2.9254162740279834e-02 -5.3838357832543127e-01 +5.3266174318551034e-03
3.8000000000000020e+00 +7.9195913978866681e+00 +0.0000000000000000e+00 +3.7999999707095395e+00 -2.9254317743675384e-02 -5.3838361551463310e-01 +5.3266164221601707e-03
3.9000000000000021e+00 +7.9195696095574784e+00 +0.0000000000000000e+00 +3.8999999683357496e+00 -2.9254468410154000e-02 -5.3838365647977204e-01 +5.3266164805333494e-03
4.0000000000000018e+00 +7.9195472552978501e+00 +0.0000000000000000e+00 +3.9999999658370515e+00 -2.9254614024684926e-02 -5.3838370124997004e-01 +5.3266177012273016e-03
4.1000000000000014e+00 +7.9195243351077371e+00 +0.0000000000000000e+00 +4.0999999632102426e+00 -2.9254753982444544e-02 -5.3838374992020022e-01 +5.3266201743551586e-03
4.2000000000000011e+00 +7.9195008489870888e+00 +0.0000000000000000e+00 +4.1999999604521197e+00 -2.9254888119269389e-02 -5.3838380284871235e-01 +5.3266239734905511e-03
4.3000000000000007e+00 +7.9194767969358502e+00 +0.0000000000000000e+00 +4.2999999575594803e+00 -2.9255016381143605e-02 -5.3838386045957021e-01 +5.3266291680742857e-03
4.4000000000000004e+00 +7.9194521789539616e+00 +0.0000000000000000e+00 +4.3999999545291217e+00 -2.9255138714033801e-02 -5.3838392317683403e-01 +5.3266358275492320e-03
4.5000000000000000e+00 +7.9194269950413574e+00 +0.0000000000000000e+00 +4.4999999513578413e+00 -2.9255255063887313e-02 -5.3838399142455851e-01 +5.3266440213605420e-03
4.5999999999999996e+00 +7.9194012451979674e+00 +0.0000000000000000e+00 +4.5999999480424352e+00 -2.9255365376630500e-02 -5.3838406562679375e-01 +5.3266538189558647e-03
4.6999999999999993e+00 +7.9193749294237143e+00 +0.0000000000000000e+00 +4.6999999445797016e+00 -2.9255469598166994e-02 -5.3838414620758324e-01 +5.3266652897855501e-03
4.7999999999999989e+00 +7.9193480477185139e+00 +0.0000000000000000e+00 +4.7999999409664378e+00 -2.9255567674375937e-02 -5.3838423359096277e-01 +5.3266785033028469e-03
4.8999999999999986e+00 +7.9193206000822745e+00 +0.0000000000000000e+00 +4.8999999371994409e+00 -2.9255659551110303e-02 -5.3838432820096116e-01 +5.3266935289641342e-03
4.9999999999999982e+00 +7.9192925865148984e+00 +0.0000000000000000e+00 +4.9999999332755074e+00 -2.9255745174195116e-02 -5.3838443046159767e-01 +5.3267104362291085e-03
5.0999999999999979e+00 +7.9192640070162783e+00 +0.0000000000000000e+00 +5.0999999291914353e+00 -2.9255824489425718e-02 -5.3838454079688214e-01 +5.3267292945610055e-03
5.1999999999999975e+00 +7.9192348615862995e+00 +0.0000000000000000e+00 +5.1999999249440210e+00 -2.9255897442566060e-02 -5.3838465963081406e-01 +5.3267501734268067e-03
5.2999999999999972e+00 +7.9192051502248386e+00 +0.0000000000000000e+00 +5.2999999205300625e+00 -2.9255963979346940e-02 -5.3838478738738149e-01 +5.3267731422974472e-03
5.3999999999999968e+00 +7.9191748729317615e+00 +0.0000000000000000e+00 +5.3999999159463563e+00 -2.9256024045464249e-02 -5.3838492449056041e-01 +5.3267982706480203e-03
5.4999999999999964e+00 +7.9191440297069251e+00 +0.0000000000000000e+00 +5.4999999111897004e+00 -2.9256077586577302e-02 -5.3838507136431457e-01 +5.3268256279579932e-03
5.5999999999999961e+00 +7.9191126205501758e+00 +0.0000000000000000e+00 +5.5999999062568913e+00 -2.9256124548307012e-02 -5.3838522843259329e-01 +5.3268552837114139e-03
5.6999999999999957e+00 +7.9190806454613494e+00 +0.0000000000000000e+00 +5.6999999011447260e+00 -2.9256164876234184e-02 -5.3838539611933145e-01 +5.3268873073971084e-03
5.7999999999999954e+00 +7.9190481044402707e+00 +0.0000000000000000e+00 +5.7999998958500019e+00 -2.9256198515897787e-02 -5.3838557484844873e-01 +5.3269217685089172e-03
5.8999999999999950e+00 +7.9190149974867534e+00 +0.0000000000000000e+00 +5.8999998903695161e+00 -2.9256225412793234e-02 -5.3838576504384872e-01 +5.3269587365458717e-03
5.9999999999999947e+00 +7.9189813246005984e+00 +0.0000000000000000e+00 +5.9999998847000660e+00 -2.9256245512370556e-02 -5.3838596712941811e-01 +5.3269982810124229e-03
6.0999999999999943e+00 +7.9189470857815936e+00 +0.0000000000000000e+00 +6.0999998788384486e+00 -2.9256258892643459e-02 -5.3838618126628468e-01 +5.3270404398964560e-03
6.1999999999999940e+00 +7.9189122810295158e+00 +0.0000000000000000e+00 +6.1999998727814614e+00 -2.9256266162044905e-02 -5.3838640656459369e-01 +5.3270851250984842e-03
6.2999999999999936e+00 +7.9188769103441290e+00 +0.0000000000000000e+00 +6.2999998665259005e+00 -2.9256268061634449e-02 -5.3838664187173546e-01 +5.3271322169913876e-03
6.3999999999999932e+00 +7.9188409737251870e+00 +0.0000000000000000e+00 +6.3999998600685641e+00 -2.9256265332493356e-02 -5.3838688603508766e-01 +5.3271815959415499e-03
6.4999999999999929e+00 +7.9188044711724350e+00 +0.0000000000000000e+00 +6.4999998534062486e+00 -2.9256258715725698e-02 -5.3838713790201465e-01 +5.3272331423085831e-03
6.5999999999999925e+00 +7.9187674026856092e+00 +0.0000000000000000e+00 +6.5999998465357512e+00 -2.9256248952459509e-02 -5.3838739631986743e-01 +5.3272867364450470e-03
6.6999999999999922e+00 +7.9187297682644395e+00 +0.0000000000000000e+00 +6.6999998394538691e+00 -2.9256236783847870e-02 -5.3838766013598349e-01 +5.3273422586961666e-03
6.7999999999999918e+00 +7.9186915679086498e+00 +0.0000000000000000e+00 +6.7999998321573996e+00 -2.9256222951070051e-02 -5.3838792819768511e-01 +5.3273995893995544e-03
6.8999999999999915e+00 +7.9186528016179594e+00 +0.0000000000000000e+00 +6.8999998246431398e+00 -2.9256208195332565e-02 -5.3838819935227900e-01 +5.3274586088849270e-03
6.9999999999999911e+00 +7.9186134693920840e+00 +0.0000000000000000e+00 +6.9999998169078861e+00 -2.9256193257870329e-02 -5.3838847244705790e-01 +5.3275191974738283e-03
7.0999999999999908e+00 +7.9185735712307386e+00 +0.0000000000000000e+00 +7.0999998089484357e+00 -2.9256178879947751e-02 -5.3838874632929590e-01 +5.3275812354793397e-03
7.1999999999999904e+00 +7.9185331071336371e+00 +0.0000000000000000e+00 +7.1999998007615860e+00 -2.9256165802859856e-02 -5.3838901984625231e-01 +5.3276446032058155e-03
7.2999999999999901e+00 +7.9184920771004927e+00 +0.0000000000000000e+00 +7.2999997923441340e+00 -2.9256154767933414e-02 -5.3838929184516893e-01 +5.3277091809485954e-03
7.3999999999999897e+00 +7.9184504811310212e+00 +0.0000000000000000e+00 +7.3999997836928770e+00 -2.9256146516527973e-02 -5.3838956117326853e-01 +5.3277748489937169e-03
7.4999999999999893e+00 +7.9184083192249410e+00 +0.0000000000000000e+00 +7.4999997748046114e+00 -2.9256141790037087e-02 -5.3838982667775703e-01 +5.3278414876176466e-03
7.5999999999999890e+00 +7.9183655913819742e+00 +0.0000000000000000e+00 +7.5999997656761344e+00 -2.9256141329889324e-02 -5.3839008720582060e-01 +5.3279089770869974e-03
7.6999999999999886e+00 +7.9183222976018488e+00 +0.0000000000000000e+00 +7.6999997563042433e+00 -2.9256145877549461e-02 -5.3839034160462651e-01 +5.3279771976582485e-03
7.7999999999999883e+00 +7.9182784378842985e+00 +0.0000000000000000e+00 +7.7999997466857351e+00 -2.9256156174519529e-02 -5.3839058872132173e-01 +5.3280460295774606e-03
7.8999999999999879e+00 +7.9182340122290649e+00 +0.0000000000000000e+00 +7.8999997368174073e+00 -2.9256172962339979e-02 -5.3839082740303323e-01 +5.3281153530800049e-03
7.9999999999999876e+00 +7.9181890206358991e+00 +0.0000000000000000e+00 +7.9999997266960561e+00 -2.9256196982590760e-02 -5.3839105649686647e-01 +5.3281850483902805e-03
8.0999999999999872e+00 +7.9181434631045615e+00 +0.0000000000000000e+00 +8.0999997163184787e+00 -2.9256228774353830e-02 -5.3839127513385421e-01 +5.3282549976112169e-03
8.1999999999999869e+00 +7.9180973396348238e+00 +0.0000000000000000e+00 +8.1999997056814724e+00 -2.9256268066564128e-02 -5.3839148358081579e-01 +5.3283250904006601e-03
8.2999999999999865e+00 +7.9180506502264683e+00 +0.0000000000000000e+00 +8.2999996947818335e+00 -2.9256314385580524e-02 -5.3839168238852309e-01 +5.3283952183146742e-03
8.3999999999999861e+00 +7.9180033948792881e+00 +0.0000000000000000e+00 +8.3999996836163611e+00 -2.9256367257719473e-02 -5.3839187210774908e-01 +5.3284652729198873e-03
8.4999999999999858e+00 +7.9179555735930842e+00 +0.0000000000000000e+00 +8.4999996721818505e+00 -2.9256426209253689e-02 -5.3839205328926854e-01 +5.3285351457938827e-03
8.5999999999999854e+00 +7.9179071863676684e+00 +0.0000000000000000e+00 +8.5999996604750990e+00 -2.9256490766410615e-02 -5.3839222648385843e-01 +5.3286047285255756e-03
8.6999999999999851e+00 +7.9178582332028595e+00 +0.0000000000000000e+00 +8.6999996484929039e+00 -2.9256560455371096e-02 -5.3839239224229685e-01 +5.3286739127156035e-03
8.7999999999999847e+00 +7.9178087140984852e+00 +0.0000000000000000e+00 +8.7999996362320605e+00 -2.9256634802267912e-02 -5.3839255111536488e-01 +5.3287425899767212e-03
8.8999999999999844e+00 +7.9177586290543802e+00 +0.0000000000000000e+00 +8.8999996236893679e+00 -2.9256713333184345e-02 -5.3839270365384584e-01 +5.3288106519341653e-03
8.9999999999999840e+00 +7.9177079780703847e+00 +0.0000000000000000e+00 +8.9999996108616234e+00 -2.9256795574152793e-02 -5.3839285040852547e-01 +5.3288779902260618e-03
9.0999999999999837e+00 +7.9176567611463469e+00 +0.0000000000000000e+00 +9.0999995977456223e+00 -2.9256881051153334e-02 -5.3839299193019308e-01 +5.3289444965038011e-03
9.1999999999999833e+00 +7.9176049782821201e+00 +0.0000000000000000e+00 +9.1999995843381637e+00 -2.9256969290112286e-02 -5.3839312876963974e-01 +5.3290100624324268e-03
9.2999999999999829e+00 +7.9175526294775613e+00 +0.0000000000000000e+00 +9.2999995706360430e+00 -2.9257059816900827e-02 -5.3839326147766131e-01 +5.3290745796910170e-03
9.3999999999999826e+00 +7.9174997147325321e+00 +0.0000000000000000e+00 +9.3999995566360575e+00 -2.9257152157333533e-02 -5.3839339060505575e-01 +5.3291379399730762e-03
9.4999999999999822e+00 +7.9174462340468992e+00 +0.0000000000000000e+00 +9.4999995423350043e+00 -2.9257245837166976e-02 -5.3839351670262559e-01 +5.3292000349869171e-03
9.5999999999999819e+00 +7.9173921874205320e+00 +0.0000000000000000e+00 +9.5999995277296808e+00 -2.9257340382098328e-02 -5.3839364032117676e-01 +5.3292607564560512e-03
9.6999999999999815e+00 +7.9173375748533017e+00 +0.0000000000000000e+00 +9.6999995128168841e+00 -2.9257435317763876e-02 -5.3839376201151912e-01 +5.3293199961195652e-03
9.7999999999999812e+00 +7.9172823963450822e+00 +0.0000000000000000e+00 +9.7999994975934115e+00 -2.9257530169737724e-02 -5.3839388232446739e-01 +5.3293776457325236e-03
9.8999999999999808e+00 +7.9172266518957493e+00 +0.0000000000000000e+00 +9.8999994820560584e+00 -2.9257624463530228e-02 -5.3839400181084029e-01 +5.3294335970663301e-03
9.9999999999999805e+00 +7.9171703415051784e+00 +0.0000000000000000e+00 +9.9999994662016238e+00 -2.9257717724586681e-02 -5.3839412102146111e-01 +5.3294877419091408e-03
1.0099999999999980e+01 +7.9171134651732462e+00 +0.0000000000000000e+00 +1.0099999450026903e+01 -2.9257809532845985e-02 -5.3839424051830398e-01 +5.3295400187850436e-03
1.0199999999999980e+01 +7.9170560228998283e+00 +0.0000000000000000e+00 +1.0199999433528694e+01 -2.9257899686479041e-02 -5.3839436090793347e-01 +5.3295905531069530e-03
1.0299999999999979e+01 +7.9169980146848005e+00 +0.0000000000000000e+00 +1.0299999416703795e+01 -2.9257988038305302e-02 -5.3839448280807134e-01 +5.3296395170066516e-03
1.0399999999999979e+01 +7.9169394405280364e+00 +0.0000000000000000e+00 +1.0399999399549001e+01 -2.9258074441247395e-02 -5.3839460683645157e-01 +5.3296870826126386e-03
1.0499999999999979e+01 +7.9168803004294075e+00 +0.0000000000000000e+00 +1.0499999382061111e+01 -2.9258158748333839e-02 -5.3839473361082024e-01 +5.3297334220499910e-03
1.0599999999999978e+01 +7.9168205943887822e+00 +0.0000000000000000e+00 +1.0599999364236918e+01 -2.9258240812701775e-02 -5.3839486374893719e-01 +5.3297787074402568e-03
1.0699999999999978e+01 +7.9167603224060263e+00 +0.0000000000000000e+00 +1.0699999346073223e+01 -2.9258320487599649e-02 -5.3839499786857437e-01 +5.3298231109012977e-03
1.0799999999999978e+01 +7.9166994844809997e+00 +0.0000000000000000e+00 +1.0799999327566823e+01 -2.9258397626389959e-02 -5.3839513658751781e-01 +5.3298668045471840e-03
1.0899999999999977e+01 +7.9166380806135592e+00 +0.0000000000000000e+00 +1.0899999308714513e+01 -2.9258472082551949e-02 -5.3839528052356722e-01 +5.3299099604880570e-03
1.0999999999999977e+01 +7.9165761108035548e+00 +0.0000000000000000e+00 +1.0999999289513092e+01 -2.9258543709684327e-02 -5.3839543029453663e-01 +5.3299527508299986e-03
1.1099999999999977e+01 +7.9165135750508311e+00 +0.0000000000000000e+00 +1.1099999269959355e+01 -2.9258612361507966e-02 -5.3839558651825470e-01 +5.3299953476749085e-03
1.1199999999999976e+01 +7.9164504733552263e+00 +0.0000000000000000e+00 +1.1199999250050100e+01 -2.9258677891868621e-02 -5.3839574981256488e-01 +5.3300379231203667e-03
1.1299999999999976e+01 +7.9163868057165709e+00 +0.0000000000000000e+00 +1.1299999229782124e+01 -2.9258740154739671e-02 -5.3839592079532594e-01 +5.3300806492595160e-03
1.1399999999999975e+01 +7.9163225721346864e+00 +0.0000000000000000e+00 +1.1399999209152224e+01 -2.9258799004224768e-02 -5.3839610008441219e-01 +5.3301236981809184e-03
1.1499999999999975e+01 +7.9162577726093861e+00 +0.0000000000000000e+00 +1.1499999188157195e+01 -2.9258854294560606e-02 -5.3839628829771391e-01 +5.3301672419684447e-03
1.1599999999999975e+01 +7.9161924071404748e+00 +0.0000000000000000e+00 +1.1599999166793838e+01 -2.9258905880119590e-02 -5.3839648605313806e-01 +5.3302114527011288e-03
1.1699999999999974e+01 +7.9161264757277472e+00 +0.0000000000000000e+00 +1.1699999145058946e+01 -2.9258953615412572e-02 -5.3839669396860734e-01 +5.3302565024530438e-03
1.1799999999999974e+01 +7.9160599783709857e+00 +0.0000000000000000e+00 +1.1799999122949318e+01 -2.9258997355091562e-02 -5.3839691266206280e-01 +5.3303025632931806e-03
