# multipoles
# s[mm] polynom_b[n=0][T/m^n] polynom_b[n=1][T/m^n] polynom_b[n=2][T/m^n] polynom_b[n=3][T/m^n] polynom_b[n=4][T/m^n] polynom_b[n=5][T/m^n] polynom_b[n=6][T/m^n] 
-0.0000000000000000e+00 -5.6459244939982334e-01 +7.7300186299464944e+00 +1.2683164232887173e-01 -1.9064821112095935e+01 -3.3688788383385472e+03 -1.0594804795098238e+05 +5.5011270448156428e+06 
-1.0000000000000001e-01 -5.6459250208323142e-01 +7.7300322272413862e+00 +1.1955439999394726e-01 -1.9113430009293683e+01 -3.2038961753712147e+03 -1.0649679210164615e+05 +4.7080445761003569e+06 
-2.0000000000000001e-01 -5.6459255990859225e-01 +7.7300476255505748e+00 +1.1249770023566755e-01 -1.9167068297729003e+01 -3.0443997220361466e+03 -1.0703022942231879e+05 +3.9395896788628185e+06 
-2.9999999999999999e-01 -5.6459262302093483e-01 +7.7300645959632241e+00 +1.0567307124052069e-01 -1.9225753726291259e+01 -2.8904173308396089e+03 -1.0754016252567794e+05 +3.1957799057228765e+06 
-4.0000000000000002e-01 -5.6459269156543157e-01 +7.7300829095713439e+00 +9.9092046369677306e-02 -1.9289504105139351e+01 -2.7419769552010325e+03 -1.0801839369915501e+05 +2.4766332993376544e+06 
-5.0000000000000000e-01 -5.6459276568713557e-01 +7.7301023374579279e+00 +9.2766154271709436e-02 -1.9358336973716071e+01 -2.5991064607667527e+03 -1.0845672680488919e+05 +1.7821674911853436e+06 
-5.9999999999999998e-01 -5.6459284553118094e-01 +7.7301226507146827e+00 +8.6706926590468344e-02 -1.9432270094304140e+01 -2.4618337718159132e+03 -1.0884696447491163e+05 +1.1124003953592160e+06 
-6.9999999999999996e-01 -5.6459293124262822e-01 +7.7301436204253244e+00 +8.0925893357587417e-02 -1.9511321003644856e+01 -2.3301867871587187e+03 -1.0918091062165753e+05 +4.6734981661247206e+05 
-8.0000000000000004e-01 -5.6459302296660729e-01 +7.7301650176740813e+00 +7.5434589381090406e-02 -1.9595507248337572e+01 -2.2041934959820937e+03 -1.0945036908872660e+05 -1.5296601309257525e+05 
-9.0000000000000002e-01 -5.6459312084820590e-01 +7.7301866135420205e+00 +7.0244545438319511e-02 -1.9684846268829180e+01 -2.0838818178221441e+03 -1.0964714438199143e+05 -7.4852918089958106e+05 
-1.0000000000000000e+00 -5.6459322503254705e-01 +7.7302081791147543e+00 +6.5367296617261303e-02 -1.9779355655358710e+01 -1.9692797549827076e+03 -1.0976304006483167e+05 -1.3193213820317145e+06 
-1.1000000000000001e+00 -5.6459333566478176e-01 +7.7302294854675448e+00 +6.0814376390272991e-02 -1.9879052697788300e+01 -1.8604152893402502e+03 -1.0978986145323388e+05 -1.8653243897996023e+06 
-1.2000000000000000e+00 -5.6459345288991403e-01 +7.7302503036787051e+00 +5.6597316969267689e-02 -1.9983954785305286e+01 -1.7573163745994682e+03 -1.0971941325188243e+05 -2.3865201305524409e+06 
-1.3000000000000000e+00 -5.6459357685310174e-01 +7.7302704048262969e+00 +5.2727657992394046e-02 -2.0094079317878787e+01 -1.6600111183677304e+03 -1.0954350005659017e+05 -2.8828897744249203e+06 
-1.3999999999999999e+00 -5.6459370769944017e-01 +7.7302895599859811e+00 +4.9216932359189010e-02 -2.0209443641279858e+01 -1.5685275036630489e+03 -1.0925392674126010e+05 -3.3544150859972555e+06 
-1.5000000000000000e+00 -5.6459384557399572e-01 +7.7303075402275168e+00 +4.6076677739527831e-02 -2.0330064961482275e+01 -1.4828936082391078e+03 -1.0884249891384387e+05 -3.8010773819417879e+06 
-1.6000000000000001e+00 -5.6459399062184834e-01 +7.7303241166208334e+00 +4.3318431915634351e-02 -2.0455960504458456e+01 -1.4031375207975873e+03 -1.0830102203814019e+05 -4.2228579165758248e+06 
-1.7000000000000000e+00 -5.6459414298806065e-01 +7.7303390602383804e+00 +4.0953732027272566e-02 -2.0587147607701599e+01 -1.3292873232812428e+03 -1.0762130084177772e+05 -4.6197379767707549e+06 
-1.8000000000000000e+00 -5.6459430281773659e-01 +7.7303521421441284e+00 +3.8994119121545309e-02 -2.0723643394671345e+01 -1.2613711788188828e+03 -1.0679514121898108e+05 -4.9916984624940287e+06 
-1.8999999999999999e+00 -5.6459447025588028e-01 +7.7303631334041878e+00 +3.7451131074515968e-02 -2.0865465092347964e+01 -1.1994171994793596e+03 -1.0581434838218616e+05 -5.3387205095596295e+06 
-2.0000000000000000e+00 -5.6459464544757665e-01 +7.7303718050791472e+00 +3.6336310968567195e-02 -2.1012629812478739e+01 -1.1434536021610872e+03 -1.0467072810177701e+05 -5.6607847589889010e+06 
-2.1000000000000001e+00 -5.6459482840721331e-01 +7.7303779876436307e+00 +3.5649911919855809e-02 -2.1164701319554368e+01 -1.0933904965058980e+03 -1.0336205708614817e+05 -5.9583134199207844e+06 
-2.2000000000000002e+00 -5.6459501862255290e-01 +7.7303817490155238e+00 +3.5345596608035407e-02 -2.1319369577245709e+01 -1.0486591733381865e+03 -1.0191018764916326e+05 -6.2334761580506209e+06 
-2.2999999999999998e+00 -5.6459521544840430e-01 +7.7303832164173079e+00 +3.5365010767283281e-02 -2.1473839657486156e+01 -1.0085694584274137e+03 -1.0034304746542287e+05 -6.4888756359393150e+06 
-2.3999999999999999e+00 -5.6459541823964443e-01 +7.7303825170742204e+00 +3.5649801409365960e-02 -2.1625316683302277e+01 -9.7243120424883807e+02 -9.8688563986300593e+04 -6.7271143749758014e+06 
-2.5000000000000000e+00 -5.6459562635106331e-01 +7.7303797782131705e+00 +3.6141610547151405e-02 -2.1771005765382967e+01 -9.3955416019472250e+02 -9.6974664894838017e+04 -6.9507954012382040e+06 
-2.6000000000000001e+00 -5.6459583913749056e-01 +7.7303751270689656e+00 +3.6782084392793041e-02 -2.1908112213699447e+01 -9.0924815583886175e+02 -9.5229276792242104e+04 -7.1625213456072444e+06 
-2.7000000000000002e+00 -5.6459605595381446e-01 +7.7303686908785529e+00 +3.7512861843341086e-02 -2.2033841327992334e+01 -8.8082288073773509e+02 -9.3480326533559011e+04 -7.3648954949008636e+06 
-2.7999999999999998e+00 -5.6459627615477992e-01 +7.7303605968814200e+00 +3.8275583226403495e-02 -2.2145398430696073e+01 -8.5358804302361932e+02 -9.1755740970112252e+04 -7.5605210567236012e+06 
-2.8999999999999999e+00 -5.6459649909526222e-01 +7.7303509723271171e+00 +3.9011886853321798e-02 -2.2239989068399250e+01 -8.2685331280362243e+02 -9.0083445836439874e+04 -7.7520014019066542e+06 
-3.0000000000000000e+00 -5.6459672413002526e-01 +7.7303399444682794e+00 +3.9663405560599385e-02 -2.2314818801060273e+01 -7.9992824791905571e+02 -8.8491366978742124e+04 -7.9419404381767595e+06 
-3.1000000000000001e+00 -5.6459695061388726e-01 +7.7303276405626740e+00 +4.0171773826738165e-02 -2.2367093263675994e+01 -7.7212243083387602e+02 -8.7007430008674273e+04 -8.1329419539206792e+06 
-3.2000000000000002e+00 -5.6459717790167097e-01 +7.7303141878774024e+00 +4.0478621321545200e-02 -2.2394018276407152e+01 -7.4274534791119117e+02 -8.5659559681582774e+04 -8.3276101847212324e+06 
-3.2999999999999998e+00 -5.6459740534810821e-01 +7.7302997136867928e+00 +4.0525574977921523e-02 -2.2392799779114256e+01 -7.1110642521215186e+02 -8.4475680292232850e+04 -8.5285496516318731e+06 
-3.3999999999999999e+00 -5.6459763230805726e-01 +7.7302843452693155e+00 +4.0254257544180633e-02 -2.2360643731910120e+01 -6.7651500221843185e+02 -8.3483716284204274e+04 -8.7383652801573016e+06 
-3.5000000000000000e+00 -5.6459785813624086e-01 +7.7302682099150779e+00 +3.9606293142221916e-02 -2.2294756342831210e+01 -6.3828043347154983e+02 -8.2711590882933640e+04 -8.9596619254842941e+06 
-3.6000000000000001e+00 -5.6459808218746510e-01 +7.7302514349233400e+00 +3.8523296780197822e-02 -2.2192343967270034e+01 -5.9571189502820266e+02 -8.2187226780238358e+04 -9.1950452764591966e+06 
-3.7000000000000002e+00 -5.6459830381648490e-01 +7.7302341476001182e+00 +3.6946884210310608e-02 -2.2050613053569961e+01 -5.4811856220741151e+02 -8.1938546381882712e+04 -9.4471210352496505e+06 
-3.7999999999999998e+00 -5.6459852237805930e-01 +7.7302164752611890e+00 +3.4818665181194135e-02 -2.1866770208384551e+01 -4.9480948753300794e+02 -8.1993471508359857e+04 -9.7184954749196935e+06 
-3.8999999999999999e+00 -5.6459873722692822e-01 +7.7301985452335309e+00 +3.2080244539620453e-02 -2.1638022240682353e+01 -4.3509362256652258e+02 -8.2379923120401247e+04 -1.0011775337323789e+07 
-4.0000000000000000e+00 -5.6459894771790198e-01 +7.7301804848540581e+00 +2.8673228222137297e-02 -2.1361576123153757e+01 -3.6827992142906493e+02 -8.3125821542083504e+04 -1.0329567361038119e+07 
-4.0999999999999996e+00 -5.6459915337434985e-01 +7.7301624231368367e+00 +2.4558810747180908e-02 -2.1036138398469866e+01 -2.9393573834229812e+02 -8.4247712995823429e+04 -1.0673420858328087e+07 
-4.2000000000000002e+00 -5.6459935441053877e-01 +7.7301444928683161e+00 +1.9778831316154977e-02 -2.0666495653708122e+01 -2.1266798431561367e+02 -8.5716414053446817e+04 -1.1040733202961804e+07 
-4.2999999999999998e+00 -5.6459955121738514e-01 +7.7301268271159786e+00 +1.4395858292721622e-02 -2.0258981124280776e+01 -1.2534461684104848e+02 -8.7491208492253078e+04 -1.1427884557643710e+07 
-4.4000000000000004e+00 -5.6459974418595205e-01 +7.7301095589415914e+00 +8.4724647574545616e-03 -1.9819927892325708e+01 -3.2833681225633299e+01 -8.9531381015561084e+04 -1.1831254682717439e+07 
-4.5000000000000000e+00 -5.6459993370722050e-01 +7.7300928214023648e+00 +2.0712237472000324e-03 -1.9355668933130556e+01 +6.3996784867912858e+01 -9.1796216934402008e+04 -1.2247223405710258e+07 
-4.5999999999999996e+00 -5.6460012017223848e-01 +7.7300767475490391e+00 -4.7452856525382250e-03 -1.8872537050680915e+01 +1.6427862593168896e+02 -9.4245002568226468e+04 -1.2672169999950364e+07 
-4.7000000000000002e+00 -5.6460030397211924e-01 +7.7300614704277573e+00 -1.1914479760014496e-02 -1.8376864961378036e+01 +2.6714360476328903e+02 -9.6837024672180574e+04 -1.3102473379326265e+07 
-4.7999999999999998e+00 -5.6460048549794495e-01 +7.7300471230786378e+00 -1.9373770925542329e-02 -1.7874985210329662e+01 +3.7172340875422827e+02 -9.9531571059039081e+04 -1.3534512116019370e+07 
-4.9000000000000004e+00 -5.6460066514084550e-01 +7.7300338385310123e+00 -2.7060568601673111e-02 -1.7373230084600451e+01 +4.7714967484665635e+02 -1.0228793094985155e+05 -1.3964664573569333e+07 
-5.0000000000000000e+00 -5.6460084329201088e-01 +7.7300217498136181e+00 -3.4912273871171705e-02 -1.6877931892464890e+01 +5.8255388122332943e+02 -1.0506539340780738e+05 -1.4389308378727248e+07 
-5.0999999999999996e+00 -5.6460102034266713e-01 +7.7300109899399798e+00 -4.2866286083177683e-02 -1.6395422529513962e+01 +6.8706747430953908e+02 -1.0782324988529374e+05 -1.4804821030343827e+07 
-5.2000000000000002e+00 -5.6460119668403685e-01 +7.7300016919196981e+00 -5.0859997190541760e-02 -1.5932033832527516e+01 +7.8982176363211886e+02 -1.1052079210582621e+05 -1.5207579408010120e+07 
-5.2999999999999998e+00 -5.6460137270739008e-01 +7.7299939887534928e+00 -5.8830795883770597e-02 -1.5494097427933587e+01 +8.8994799790634772e+02 -1.1311731295729935e+05 -1.5593960127670521e+07 
-5.4000000000000004e+00 -5.6460154880409441e-01 +7.7299880134333092e+00 -6.6716061365474658e-02 -1.5087944737305797e+01 +9.8657724853036086e+02 -1.1557210646921536e+05 -1.5960338993479971e+07 
-5.5000000000000000e+00 -5.6460172536544928e-01 +7.7299838989384666e+00 -7.4453169419808674e-02 -1.4719906879679998e+01 +1.0788405220724787e+03 -1.1784446832980108e+05 -1.6303091527161101e+07 
-5.5999999999999996e+00 -5.6460190278296418e-01 +7.7299817782406270e+00 -8.1979486663643741e-02 -1.4396314806738637e+01 +1.1658686563967415e+03 -1.1989369514499677e+05 -1.6618592488904990e+07 
-5.7000000000000002e+00 -5.6460208144797996e-01 +7.7299817842975660e+00 -8.9232377813843605e-02 -1.4123499133156383e+01 +1.2467924503778445e+03 -1.2167908538549545e+05 -1.6903216473697141e+07 
-5.7999999999999998e+00 -5.6460226175208261e-01 +7.7299840500618027e+00 -9.6149194074085398e-02 -1.3907790386545814e+01 +1.3207424513929038e+03 -1.2315993793862539e+05 -1.7153336922290355e+07 
-5.9000000000000004e+00 -5.6460244408674176e-01 +7.7299887084679915e+00 -1.0266728529491405e-01 -1.3755518648441154e+01 +1.3868491814909230e+03 -1.2429555418930892e+05 -1.7365327187479746e+07 
-5.9999999999999902e+00 -5.6460262884365875e-01 +7.7299958924435739e+00 -1.0872398921383757e-01 -1.3673013861832182e+01 +1.4442429375175986e+03 -1.2504523624891322e+05 -1.7535559597116701e+07 
-6.0999999999999899e+00 -5.6460281640187726e-01 +7.7300056778449573e+00 -1.1426800443163182e-01 -1.3664774418282965e+01 +1.4922577922532384e+03 -1.2537913139132425e+05 -1.7661383239260431e+07 
-6.1999999999999904e+00 -5.6460300707091571e-01 +7.7300179220261471e+00 -1.1929399284336883e-01 -1.3728135885322967e+01 +1.5310256968483100e+03 -1.2530964806678511e+05 -1.7743897873175073e+07 
-6.2999999999999901e+00 -5.6460320113786588e-01 +7.7300324299820868e+00 -1.2380827042823367e-01 -1.3858675718497107e+01 +1.5608743106619957e+03 -1.2485953339884630e+05 -1.7785105217982605e+07 
-6.3999999999999897e+00 -5.6460339888980327e-01 +7.7300490067088798e+00 -1.2781715120366610e-01 -1.4051971504941791e+01 +1.5821312519697874e+03 -1.2405153335380022e+05 -1.7787006792485088e+07 
-6.4999999999999902e+00 -5.6460360061369852e-01 +7.7300674571972898e+00 -1.3132695395834323e-01 -1.4303600743687529e+01 +1.5951242205300528e+03 -1.2290839412916222e+05 -1.7751604482555117e+07 
-6.5999999999999899e+00 -5.6460380659662235e-01 +7.7300875864355589e+00 -1.3434399828018917e-01 -1.4609140974304189e+01 +1.6001809270479177e+03 -1.2145286126642585e+05 -1.7680900219042707e+07 
-6.6999999999999904e+00 -5.6460401712550523e-01 +7.7301091994038371e+00 -1.3687460993410705e-01 -1.4964169579630726e+01 +1.5976291941549982e+03 -1.1970768090078015e+05 -1.7576896454136018e+07 
-6.7999999999999901e+00 -5.6460423248728675e-01 +7.7301321010827495e+00 -1.3892511548891601e-01 -1.5364264069161294e+01 +1.5877968490898706e+03 -1.1769559800356701e+05 -1.7441595637424387e+07 
-6.8999999999999897e+00 -5.6460445296888018e-01 +7.7301560964445244e+00 -1.4050184433243187e-01 -1.5805001814636841e+01 +1.5710117700651022e+03 -1.1543935794148264e+05 -1.7277000458166476e+07 
-6.9999999999999902e+00 -5.6460467885716470e-01 +7.7301809904579706e+00 -1.4161113194068828e-01 -1.6281960184941425e+01 +1.5476019386350576e+03 -1.1296170570924100e+05 -1.7085114068031561e+07 
-7.0999999999999899e+00 -5.6460491043895866e-01 +7.7302065880898843e+00 -1.4225931376178871e-01 -1.6790716608244978e+01 +1.5178953323086357e+03 -1.1028538550898078e+05 -1.6867939593479939e+07 
-7.1999999999999904e+00 -5.6460514800103911e-01 +7.7302326942966051e+00 -1.4245273224431509e-01 -1.7326848322098687e+01 +1.4822200502364537e+03 -1.0743314220448985e+05 -1.6627480713832252e+07 
-7.2999999999999901e+00 -5.6460539183020275e-01 +7.7302591140367083e+00 -1.4219773019676069e-01 -1.7885932746350381e+01 +1.4409041936977226e+03 -1.0442771914211790e+05 -1.6365741109235963e+07 
-7.3999999999999897e+00 -5.6460564221308451e-01 +7.7302856522580399e+00 -1.4150065836949391e-01 -1.8463547115516125e+01 +1.3942760012569765e+03 -1.0129186026016803e+05 -1.6084725079914792e+07 
-7.4999999999999902e+00 -5.6460589943644413e-01 +7.7303121139070745e+00 -1.4036786831701512e-01 -1.9055268740932590e+01 +1.3426637210007596e+03 -9.8048308581525474e+04 -1.5786436961291516e+07 
-7.5999999999999899e+00 -5.6460616378681339e-01 +7.7303383039252278e+00 -1.3880571792820046e-01 -1.9656674921438913e+01 +1.2863957118970816e+03 -9.4719806682122711e+04 -1.5472881593069939e+07 
-7.6999999999999904e+00 -5.6460643555079126e-01 +7.7303640272468206e+00 -1.3682056894781294e-01 -2.0263342880132953e+01 +1.2258003947560917e+03 -9.1329097061538268e+04 -1.5146064084065804e+07 
-7.7999999999999901e+00 -5.6460671501492510e-01 +7.7303890887994706e+00 -1.3441878858160602e-01 -2.0870849780816762e+01 +1.1612062866339206e+03 -8.7898922035769298e+04 -1.4807989983772842e+07 
-7.8999999999999897e+00 -5.6460700246567164e-01 +7.7304132935115577e+00 -1.3160674659060634e-01 -2.1474772955061859e+01 +1.0929419396571138e+03 -8.4452022377130736e+04 -1.4460664975755565e+07 
-7.9999999999999902e+00 -5.6460729818948208e-01 +7.7304364463014412e+00 -1.2839081920093204e-01 -2.2070689576020389e+01 +1.0213360212539383e+03 -8.1011139283375349e+04 -1.4106095280503601e+07 
-8.0999999999999908e+00 -5.6460760239922669e-01 +7.7304584181358553e+00 -1.2477867189811748e-01 -2.2655525486496664e+01 +9.4667078353570184e+02 -7.7592666143377632e+04 -1.3745933011369606e+07 
-8.1999999999999904e+00 -5.6460791502593854e-01 +7.7304793354744969e+00 -1.2078496909995404e-01 -2.3231226313262898e+01 +8.6907943707492677e+02 -7.4189675346257849e+04 -1.3380576079373466e+07 
-8.2999999999999901e+00 -5.6460823593292531e-01 +7.7304993866570948e+00 -1.1642657801298138e-01 -2.3800901297456775e+01 +7.8866624805169181e+02 -7.0789919455146082e+04 -1.3010144439841352e+07 
-8.3999999999999897e+00 -5.6460856498356826e-01 +7.7305187600265404e+00 -1.1172036213169437e-01 -2.4367659697414343e+01 +7.0553542486320794e+02 -6.7381151068629595e+04 -1.2634757799860269e+07 
-8.4999999999999893e+00 -5.6460890204131775e-01 +7.7305376439279092e+00 -1.0668318207282805e-01 -2.4934610779088594e+01 +6.1979113875438190e+02 -6.3951122850301377e+04 -1.2254535727992089e+07 
-8.5999999999999908e+00 -5.6460924696960513e-01 +7.7305562267179839e+00 -1.0133189624789311e-01 -2.5504864077681091e+01 +5.3153753840852050e+02 -6.0487586056860113e+04 -1.1869597727148168e+07 
-8.6999999999999904e+00 -5.6460959963193080e-01 +7.7305746967550517e+00 -9.5683359968619028e-02 -2.6081529117219883e+01 +4.4087872871317660e+02 -5.6978292124053871e+04 -1.1480063122309471e+07 
-8.7999999999999794e+00 -5.6460995989183449e-01 +7.7305932424010777e+00 -8.9754426311650870e-02 -2.6667715446981710e+01 +3.4791879284177560e+02 -5.3410992524019319e+04 -1.1086051180803271e+07 
-8.8999999999999808e+00 -5.6461032761292196e-01 +7.7306120520303123e+00 -8.3561946237344628e-02 -2.7266532914945717e+01 +2.5276179409726947e+02 -4.9773437113574335e+04 -1.0687681118795129e+07 
-8.9999999999999805e+00 -5.6461070265880386e-01 +7.7306313140175469e+00 -7.7122765214673275e-02 -2.7881091299859495e+01 +1.5551170725541994e+02 -4.6053376342397416e+04 -1.0285071761849765e+07 
-9.0999999999999801e+00 -5.6461108489312650e-01 +7.7306512167498456e+00 -7.0453730619470745e-02 -2.8514500667824027e+01 +5.6272566785220498e+01 -4.2238559150276538e+04 -9.8783422723403722e+06 
-9.1999999999999797e+00 -5.6461147417962265e-01 +7.7306719486132103e+00 -6.3571681795094842e-02 -2.9169870965114050e+01 -4.4851726780186894e+01 -3.8316735366337241e+04 -9.4676112115572765e+06 
-9.2999999999999794e+00 -5.6461187038207028e-01 +7.7306936980073671e+00 -5.6493458704565493e-02 -2.9850312464476481e+01 -1.4775723755929380e+02 -3.4275653084046891e+04 -9.0529973616625033e+06 
-9.3999999999999808e+00 -5.6461227336425412e-01 +7.7307166533393143e+00 -4.9235896099463966e-02 -3.0558935554436623e+01 -2.5234011048375569e+02 -3.0103059951086700e+04 -8.6346191549158562e+06 
-9.4999999999999805e+00 -5.6461268299003420e-01 +7.7307410030177248e+00 -4.1815825898507485e-02 -3.1298850593400928e+01 -3.5849651916458009e+02 -2.5786703949427010e+04 -8.2125949428325770e+06 
-9.5999999999999801e+00 -5.6461309912331037e-01 +7.7307669354665602e+00 -3.4250078345321289e-02 -3.2073168286347013e+01 -4.6612264562682390e+02 -2.1314331291852799e+04 -7.7870430847499929e+06 
-9.6999999999999797e+00 -5.6461352162807477e-01 +7.7307946391097557e+00 -2.6555478280847710e-02 -3.2884999248209056e+01 -5.7511475347618659e+02 -1.6673688904495215e+04 -7.3580815957338046e+06 
-9.7999999999999794e+00 -5.6461395036831785e-01 +7.7308243023854581e+00 -1.8748846872106057e-02 -3.3737454408323153e+01 -6.8536915307674053e+02 -1.1852522121003221e+04 -6.9258283148554023e+06 
-9.8999999999999808e+00 -5.6461438520808926e-01 +7.7308561137380680e+00 -1.0847004979331944e-02 -3.4633644773011781e+01 -7.9678213280986870e+02 -6.8385760710334735e+03 -6.4904012469025347e+06 
-9.9999999999999805e+00 -5.6461482601156288e-01 +7.7308902616193587e+00 -2.8667647004871626e-03 -3.5576681495343330e+01 -9.0925012671921945e+02 -1.6195951011351660e+03 -6.0519177345700888e+06 
-1.0100000000000000e+01 -5.6461527258522237e-01 +7.7309268503756350e+00 +5.1699256786173712e-03 -3.6568097476515362e+01 -1.0225847786966771e+03 +3.8097247061508833e+03 -5.6108160870144973e+06 
