# multipoles
# s[mm] polynom_b[n=0][T/m^n] polynom_b[n=1][T/m^n] polynom_b[n=2][T/m^n] polynom_b[n=3][T/m^n] polynom_b[n=4][T/m^n] polynom_b[n=5][T/m^n] polynom_b[n=6][T/m^n] 
-0.0000000000000000e+00 -5.6443084097610730e-01 +7.7310887119962750e+00 -2.9743580875278108e-01 +1.2363022227279261e+01 -4.3090648710559717e+03 -2.4668791289551926e+05 +1.5591929504719608e+07 
-1.0000000000000001e-01 -5.6443088458609914e-01 +7.7311054774650430e+00 -3.0098884780677804e-01 +1.1834374218058592e+01 -4.2355413026114156e+03 -2.4377380792472998e+05 +1.5189616668701395e+07 
-2.0000000000000001e-01 -5.6443093864070393e-01 +7.7311229774182619e+00 -3.0389642456366778e-01 +1.1307213860513501e+01 -4.1707102577044179e+03 -2.4094507440402903e+05 +1.4820861429821031e+07 
-2.9999999999999999e-01 -5.6443100301677240e-01 +7.7311411512387869e+00 -3.0618319637700470e-01 +1.0782034167435203e+01 -4.1143548116930924e+03 -2.3819712554307524e+05 +1.4485261151754783e+07 
-4.0000000000000002e-01 -5.6443107759118905e-01 +7.7311599383005811e+00 -3.0787381917117151e-01 +1.0259328398413921e+01 -4.0662580602974099e+03 -2.3552537595088457e+05 +1.4182413279038422e+07 
-5.0000000000000000e-01 -5.6443116224074108e-01 +7.7311792779810098e+00 -3.0899295062466936e-01 +9.7395896905633332e+00 -4.0262030648164214e+03 -2.3292523946506155e+05 +1.3911915092790218e+07 
-5.9999999999999998e-01 -5.6443125684227424e-01 +7.7311991096554591e+00 -3.0956524850408257e-01 +9.2233112462146121e+00 -3.9939728835393871e+03 -2.3039213033915855e+05 +1.3673363858957363e+07 
-6.9999999999999996e-01 -5.6443136127272220e-01 +7.7312193726929284e+00 -3.0961537052790317e-01 +8.7109864325054858e+00 -3.9693505732719309e+03 -2.2792146373534028e+05 +1.3466356832217272e+07 
-8.0000000000000004e-01 -5.6443147540883865e-01 +7.7312400064614604e+00 -3.0916797550537706e-01 +8.2031086459085127e+00 -3.9521191740084319e+03 -2.2550865500970185e+05 +1.3290491198893953e+07 
-9.0000000000000002e-01 -5.6443159912749441e-01 +7.7312609503318779e+00 -3.0824772199851458e-01 +7.7001711923336833e+00 -3.9420617270716948e+03 -2.2314911899305921e+05 +1.3145364142065618e+07 
-1.0000000000000000e+00 -5.6443173230558163e-01 +7.7312821436701533e+00 -3.0687926636129398e-01 +7.2026675304373864e+00 -3.9389613165148112e+03 -2.2083827145599347e+05 +1.3030573051560016e+07 
-1.1000000000000001e+00 -5.6443187481988621e-01 +7.7313035258371592e+00 -3.0508726713441325e-01 +6.7110912640286511e+00 -3.9426009897689628e+03 -2.1857152904263444e+05 +1.2945715155806789e+07 
-1.2000000000000000e+00 -5.6443202654728808e-01 +7.7313250362030868e+00 -3.0289638551022069e-01 +6.2259357280112368e+00 -3.9527637443111335e+03 -2.1634430687576975e+05 +1.2890387444746654e+07 
-1.3000000000000000e+00 -5.6443218736460254e-01 +7.7313466141313274e+00 -3.0033127618762745e-01 +5.7476944778770802e+00 -3.9692327051569723e+03 -2.1415202146359941e+05 +1.2864187524454087e+07 
-1.3999999999999999e+00 -5.6443235714869244e-01 +7.7313681989875702e+00 -2.9741659878005383e-01 +5.2768609981092061e+00 -3.9917909065449571e+03 -2.1199008893473403e+05 +1.2866712574573739e+07 
-1.5000000000000000e+00 -5.6443253577644359e-01 +7.7313897301374448e+00 -2.9417700966008786e-01 +4.8139287971349871e+00 -4.0202214487164511e+03 -2.0985392566904571e+05 +1.2897560096602362e+07 
-1.6000000000000001e+00 -5.6443272312467307e-01 +7.7314111469483899e+00 -2.9063716610984835e-01 +4.3593913475587192e+00 -4.0543074229736480e+03 -2.0773894794340097e+05 +1.2956327569448290e+07 
-1.7000000000000000e+00 -5.6443291907018744e-01 +7.7314323887861498e+00 -2.8682172684186741e-01 +3.9137421912308330e+00 -4.0938318961501809e+03 -2.0564057254551363e+05 +1.3042612357367165e+07 
-1.8000000000000000e+00 -5.6443312348990904e-01 +7.7314533950212407e+00 -2.8275534622826737e-01 +3.4774747465257545e+00 -4.1385780245319884e+03 -2.0355421565459092e+05 +1.3156012265576882e+07 
-1.8999999999999999e+00 -5.6443333626061254e-01 +7.7314741050232643e+00 -2.7846268223331949e-01 +3.0510824960414311e+00 -4.1883289055289360e+03 -2.0147529399588532e+05 +1.3296124837619456e+07 
-2.0000000000000000e+00 -5.6443355725922473e-01 +7.7314944581663756e+00 -2.7396838771070742e-01 +2.6350588055254427e+00 -4.2428677396061976e+03 -1.9939922373483033e+05 +1.3462548117214458e+07 
-2.1000000000000001e+00 -5.6443378625539886e-01 +7.7315143796839223e+00 -2.6930319531447028e-01 +2.2303927961555985e+00 -4.3018335814803268e+03 -1.9732591981409423e+05 +1.3654122127723956e+07 
-2.2000000000000002e+00 -5.6443402260631725e-01 +7.7315337420922248e+00 -2.6452138636780104e-01 +1.8398851718736098e+00 -4.3643110020058066e+03 -1.9527197693090609e+05 +1.3866798750083139e+07 
-2.2999999999999998e+00 -5.6443426556979692e-01 +7.7315524056395155e+00 -2.5968295756302151e-01 +1.4667496033757790e+00 -4.4292509340531278e+03 -1.9325785445286299e+05 +1.4095840441115079e+07 
-2.3999999999999999e+00 -5.6443451440377834e-01 +7.7315702305705774e+00 -2.5484790029823490e-01 +1.1141998622213376e+00 -4.4956044150587541e+03 -1.9130401235654371e+05 +1.4336510169410564e+07 
-2.5000000000000000e+00 -5.6443476836606510e-01 +7.7315870771386956e+00 -2.5007621262135304e-01 +7.8544946836740137e-01 -4.5623223589241543e+03 -1.8943090915823763e+05 +1.4584070329003152e+07 
-2.6000000000000001e+00 -5.6443502671448997e-01 +7.7316028056035249e+00 -2.4542789151346348e-01 +4.8371176508496849e-01 -4.6283557057845837e+03 -1.8765900239034387e+05 +1.4833783458727913e+07 
-2.7000000000000002e+00 -5.6443528870686333e-01 +7.7316172762236883e+00 -2.4096293686776313e-01 +2.1220012300205982e-01 -4.6926553415778935e+03 -1.8600874975023823e+05 +1.5080911848754080e+07 
-2.7999999999999998e+00 -5.6443555360098574e-01 +7.7316303492724767e+00 -2.3674134885224793e-01 -2.5872512021226323e-02 -4.7541721534229446e+03 -1.8450060648493856e+05 +1.5320717817692069e+07 
-2.8999999999999999e+00 -5.6443582065463893e-01 +7.7316418850216930e+00 -2.3282312997524549e-01 -2.2729315609561346e-01 -4.8118569868413133e+03 -1.8315502805161252e+05 +1.5548463501916356e+07 
-3.0000000000000000e+00 -5.6443608912557663e-01 +7.7316517437559256e+00 -2.2926828543164715e-01 -3.8884919618968433e-01 -4.8646606401637755e+03 -1.8199246776148560e+05 +1.5759410829412954e+07 
-3.1000000000000001e+00 -5.6443635827155270e-01 +7.7316597857638696e+00 -2.2613681995205817e-01 -5.0732814078934341e-01 -4.9115339265213288e+03 -1.8103337822110779e+05 +1.5948821824216129e+07 
-3.2000000000000002e+00 -5.6443662735026190e-01 +7.7316658713407822e+00 -2.2348874552922296e-01 -5.7951769897868766e-01 -4.9514275198846026e+03 -1.8029821084497820e+05 +1.6111957852895245e+07 
-3.2999999999999998e+00 -5.6443689561942978e-01 +7.7316698607910697e+00 -2.2138406932385041e-01 -6.0220584469791838e-01 -4.9832921948203966e+03 -1.7980741550633512e+05 +1.6244080793561790e+07 
-3.3999999999999999e+00 -5.6443716233669505e-01 +7.7316716144291195e+00 -2.1988280897937343e-01 -5.7218084801973779e-01 -5.0060785297781977e+03 -1.7958144034097635e+05 +1.6340451610293824e+07 
-3.5000000000000000e+00 -5.6443742675972386e-01 +7.7316709925739602e+00 -2.1904497801866102e-01 -4.8623111920030287e-01 -5.0187371839104317e+03 -1.7964073264766636e+05 +1.6396331666392352e+07 
-3.6000000000000001e+00 -5.6443768814615225e-01 +7.7316678555563181e+00 -2.1893059685834737e-01 -3.4114542976266293e-01 -5.0202186907219084e+03 -1.8000573755957297e+05 +1.6406981754444020e+07 
-3.7000000000000002e+00 -5.6443794575351502e-01 +7.7316620637156568e+00 -2.1959968726120546e-01 -1.3371279293476740e-01 -5.0094735607488219e+03 -1.8069689882871156e+05 +1.6367662575405475e+07 
-3.7999999999999998e+00 -5.6443819883940738e-01 +7.7316534774045156e+00 -2.2111227346429929e-01 +1.3927737997311032e-01 -4.9854522630643341e+03 -1.8173465782865352e+05 +1.6273634661287228e+07 
-3.8999999999999999e+00 -5.6443844666137799e-01 +7.7316419569813721e+00 -2.2352838460447325e-01 +4.8103548817285308e-01 -4.9471051770969161e+03 -1.8313945476815480e+05 +1.6120158138460370e+07 
-4.0000000000000000e+00 -5.6443868847688272e-01 +7.7316273628204621e+00 -2.2690805036158088e-01 +8.9477148638843129e-01 -4.8933826750410699e+03 -1.8493172728433926e+05 +1.5902493121987870e+07 
-4.0999999999999996e+00 -5.6443892383090633e-01 +7.7316096071596494e+00 -2.3128321048341646e-01 +1.3824676889841554e+00 -4.8237231226761687e+03 -1.8712482011869579e+05 +1.5618059933121501e+07 
-4.2000000000000002e+00 -5.6443915331950245e-01 +7.7315887837989008e+00 -2.3658403655682012e-01 +1.9418063908953533e+00 -4.7393276047265117e+03 -1.8970698105429293e+05 +1.5272050659103323e+07 
-4.2999999999999998e+00 -5.6443937777905617e-01 +7.7315650262320208e+00 -2.4271765110947446e-01 +2.5695288409972039e+00 -4.6417953117853540e+03 -1.9266090179380254e+05 +1.4871405436715690e+07 
-4.4000000000000004e+00 -5.6443959804588062e-01 +7.7315384679444712e+00 -2.4959117202063683e-01 +3.2623765447751389e+00 -4.5327255189571470e+03 -1.9596927554700186e+05 +1.4423064791938733e+07 
-4.5000000000000000e+00 -5.6443981495637519e-01 +7.7315092424129599e+00 -2.5711172056291315e-01 +4.0170913104162373e+00 -4.4137174333253424e+03 -1.9961479739791146e+05 +1.3933968914584231e+07 
-4.5999999999999996e+00 -5.6444002934686788e-01 +7.7314774831060866e+00 -2.6518641314743296e-01 +4.8304151985947641e+00 -4.2863703518908806e+03 -2.0358016392057887e+05 +1.3411058413412649e+07 
-4.7000000000000002e+00 -5.6444024205376453e-01 +7.7314433234824973e+00 -2.7372237006988392e-01 +5.6990906124111795e+00 -4.1522834969170763e+03 -2.0784807379591715e+05 +1.2861273533916123e+07 
-4.7999999999999998e+00 -5.6444045391339814e-01 +7.7314068969884016e+00 -2.8262670791057598e-01 +6.6198603547011636e+00 -4.0130561509382010e+03 -2.1240122811185443e+05 +1.2291554777609443e+07 
-4.9000000000000004e+00 -5.6444066576219354e-01 +7.7313683370589024e+00 -2.9180654529786443e-01 +7.5894675831437661e+00 -3.8702875587973194e+03 -2.1722233007551407e+05 +1.1708842464863593e+07 
-5.0000000000000000e+00 -5.6444087843649138e-01 +7.7313277771195796e+00 -3.0116899787870000e-01 +8.6046557792583265e+00 -3.7255770154797615e+03 -2.2229408487272184e+05 +1.1120077132485732e+07 
-5.0999999999999996e+00 -5.6444109277274801e-01 +7.7312853505799142e+00 -3.1062118126825505e-01 +9.6621689391472625e+00 -3.5805238102288449e+03 -2.2759920077481723e+05 +1.0532199267077127e+07 
-5.2000000000000002e+00 -5.6444130960734995e-01 +7.7312411908388130e+00 -3.2007020946443560e-01 +1.0758751408133605e+01 -3.4367272596077701e+03 -2.3312038816787180e+05 +9.9521494709988702e+06 
-5.2999999999999998e+00 -5.6444152977671147e-01 +7.7311954312793016e+00 -3.2942319702210371e-01 +1.1891148040952549e+01 -3.2957866611772388e+03 -2.3884036048467158e+05 +9.3868682259293068e+06 
-5.4000000000000004e+00 -5.6444175411726927e-01 +7.7311482052726275e+00 -3.3858725582174126e-01 +1.3056104083261296e+01 -3.1593013613683815e+03 -2.4474183353430490e+05 +8.8432962366228830e+06 
-5.5000000000000000e+00 -5.6444198346545182e-01 +7.7310996461685750e+00 -3.4746949617044437e-01 +1.4250365458601575e+01 -3.0288707246493709e+03 -2.5080752716540912e+05 +8.3283742528057480e+06 
-5.5999999999999996e+00 -5.6444221865777366e-01 +7.7310498873020244e+00 -3.5597702813532744e-01 +1.5470678578141690e+01 -2.9060941170712231e+03 -2.5702016416812860e+05 +7.8490430168698858e+06 
-5.7000000000000002e+00 -5.6444246053066638e-01 +7.7309990619965507e+00 -3.6401696204668976e-01 +1.6713790230557461e+01 -2.7925708927152214e+03 -2.6336246961954905e+05 +7.4122431877572592e+06 
-5.7999999999999998e+00 -5.6444270992064416e-01 +7.7309473035518677e+00 -3.7149640253997590e-01 +1.7976447954299850e+01 -2.6899005024466560e+03 -2.6981717306203191e+05 +7.0249158463323405e+06 
-5.9000000000000004e+00 -5.6444296766420299e-01 +7.7308947452532584e+00 -3.7832245625366517e-01 +1.9255399769221498e+01 -2.5996823549770356e+03 -2.7636700695172936e+05 +6.6940018519435329e+06 
-5.9999999999999902e+00 -5.6444323459783630e-01 +7.7308415203591272e+00 -3.8440223102548188e-01 +2.0547394510221693e+01 -2.5235158268779501e+03 -2.8299470809082955e+05 +6.4264419169372609e+06 
-6.0999999999999899e+00 -5.6444351127433023e-01 +7.7307877822305544e+00 -3.8967320458138105e-01 +2.1848684115815864e+01 -2.4624454976429247e+03 -2.8967999513627181e+05 +6.2267153279882139e+06 
-6.1999999999999904e+00 -5.6444379726972393e-01 +7.7307337668970906e+00 -3.9417797075103350e-01 +2.3153470467524564e+01 -2.4155924357920317e+03 -2.9639090594787576e+05 +6.0907496165165892e+06 
-6.2999999999999901e+00 -5.6444409194995615e-01 +7.7306797311428568e+00 -3.9798188887269753e-01 +2.4455439185495472e+01 -2.3816601726646986e+03 -3.0309267610332818e+05 +6.0126123166146576e+06 
-6.3999999999999897e+00 -5.6444439468100993e-01 +7.7306259317652914e+00 -4.0115031382727179e-01 +2.5748275425739386e+01 -2.3593523136822805e+03 -3.0975053831728065e+05 +5.9863712752389405e+06 
-6.4999999999999902e+00 -5.6444470482890186e-01 +7.7305726255719680e+00 -4.0374859699657867e-01 +2.7025663950458775e+01 -2.3473725236823757e+03 -3.1632972277708311e+05 +6.0060945935461866e+06 
-6.5999999999999899e+00 -5.6444502175973721e-01 +7.7305200693710479e+00 -4.0584207957023793e-01 +2.8281289419849511e+01 -2.3444246499041024e+03 -3.2279545889366680e+05 +6.0658511966314027e+06 
-6.6999999999999904e+00 -5.6444534483966557e-01 +7.7304685199828631e+00 -4.0749609843326617e-01 +2.9508836039519778e+01 -2.3492126105031680e+03 -3.2911297320137592e+05 +6.1597103078631777e+06 
-6.7999999999999901e+00 -5.6444567343490848e-01 +7.7304182342378605e+00 -4.0877598591190673e-01 +3.0701987617591705e+01 -2.3604404015152677e+03 -3.3524748968864011e+05 +6.2817414851493472e+06 
-6.8999999999999897e+00 -5.6444600691171232e-01 +7.7303694689757680e+00 -4.0974706148955503e-01 +3.1854427589594838e+01 -2.3768122505035681e+03 -3.4116422994164255e+05 +6.4260153402386764e+06 
-6.9999999999999902e+00 -5.6444634463641430e-01 +7.7303224810438573e+00 -4.1047464517392851e-01 +3.2959839053912724e+01 -2.3970323653719975e+03 -3.4682841331866762e+05 +6.5866023544254368e+06 
-7.0999999999999899e+00 -5.6444668597545733e-01 +7.7302775273026798e+00 -4.1102404143250121e-01 +3.4011904621889798e+01 -2.4198052361264890e+03 -3.5220525611822959e+05 +6.7575743013842972e+06 
-7.1999999999999904e+00 -5.6444703029529808e-01 +7.7302348646217958e+00 -4.1146055349880034e-01 +3.5004306509741234e+01 -2.4438353680678078e+03 -3.5725997203413484e+05 +6.9330029912603609e+06 
-7.2999999999999901e+00 -5.6444737696251468e-01 +7.7301947498805239e+00 -4.1184947493329038e-01 +3.5930726534099747e+01 -2.4678274343691942e+03 -3.6195777217082959e+05 +7.1069609773042677e+06 
-7.3999999999999897e+00 -5.6444772534367715e-01 +7.7301574399734028e+00 -4.1225609052462187e-01 +3.6784845949925767e+01 -2.4904862627992056e+03 -3.6626386410307413e+05 +7.2735214991803039e+06 
-7.4999999999999902e+00 -5.6444807480555081e-01 +7.7301231918027753e+00 -4.1274567621560132e-01 +3.7560345638838484e+01 -2.5105168377727950e+03 -3.7014345288972283e+05 +7.4267584979918161e+06 
-7.5999999999999899e+00 -5.6444842471484058e-01 +7.7300922622855532e+00 -4.1338350232225379e-01 +3.8250905935576313e+01 -2.5266242378412580e+03 -3.7356174013859406e+05 +7.5607463115511239e+06 
-7.6999999999999904e+00 -5.6444877443845742e-01 +7.7300649083510260e+00 -4.1423482570428788e-01 +3.8850206674479999e+01 -2.5375137820056038e+03 -3.7648392422025645e+05 +7.6695603659698386e+06 
-7.7999999999999901e+00 -5.6444912334332498e-01 +7.7300413869448787e+00 -4.1536489930376636e-01 +3.9351927065834730e+01 -2.5418908499230229e+03 -3.7887519954241673e+05 +7.7472763213922698e+06 
-7.8999999999999897e+00 -5.6444947079650509e-01 +7.7300219550168547e+00 -4.1683896342090859e-01 +3.9749746053755416e+01 -2.5384610510934544e+03 -3.8070075862136605e+05 +7.7879708884682963e+06 
-7.9999999999999902e+00 -5.6444981616517131e-01 +7.7300068695255453e+00 -4.1872224489601562e-01 +4.0037342080978611e+01 -2.5259302179689103e+03 -3.8192579171117756e+05 +7.7857216410638290e+06 
-8.0999999999999908e+00 -5.6445015903403528e-01 +7.7299962959610209e+00 -4.2106395216795384e-01 +4.0210875986258479e+01 -2.5033283444635240e+03 -3.8252987510435598e+05 +7.7361072127519827e+06 
-8.1999999999999904e+00 -5.6445049967727123e-01 +7.7299900889689859e+00 -4.2386039764181793e-01 +4.0275099741837373e+01 -2.4707854597873329e+03 -3.8254186808321247e+05 +7.6399012753675915e+06 
-8.2999999999999901e+00 -5.6445083850522337e-01 +7.7299880370155387e+00 -4.2709694631041928e-01 +4.0236629502918007e+01 -2.4286660428285995e+03 -3.8200123485813616e+05 +7.4990054468937498e+06 
-8.3999999999999897e+00 -5.6445117592806249e-01 +7.7299899285740725e+00 -4.3075897474907676e-01 +4.0102081247509560e+01 -2.3773343550361933e+03 -3.8094743877808284e+05 +7.3153203370839087e+06 
-8.4999999999999893e+00 -5.6445151235604452e-01 +7.7299955521158576e+00 -4.3483186444632704e-01 +3.9878071037252653e+01 -2.3171545566175064e+03 -3.7941994379334140e+05 +7.0907460703075789e+06 
-8.5999999999999908e+00 -5.6445184819925598e-01 +7.7300046961159659e+00 -4.3930100394318827e-01 +3.9571214851523337e+01 -2.2484906790705040e+03 -3.7745821353130485e+05 +6.8271821924788281e+06 
-8.6999999999999904e+00 -5.6445218386783391e-01 +7.7300171490485994e+00 -4.4415179147810918e-01 +3.9188128714534137e+01 -2.1717065602318971e+03 -3.7510171199530782e+05 +6.5265273232715949e+06 
-8.7999999999999794e+00 -5.6445251977177702e-01 +7.7300326993911517e+00 -4.4936963205642211e-01 +3.8735428597122123e+01 -2.0871659135609948e+03 -3.7238990306125197e+05 +6.1906795215418749e+06 
-8.8999999999999808e+00 -5.6445285632103737e-01 +7.7300511356242625e+00 -4.5493993818999773e-01 +3.8219730410085006e+01 -1.9952323030521820e+03 -3.6936225041862176e+05 +5.8215361385219656e+06 
-8.9999999999999805e+00 -5.6445319392555682e-01 +7.7300722462238545e+00 -4.6084813481074505e-01 +3.7647650222327911e+01 -1.8962690591829819e+03 -3.6605821880336059e+05 +5.4209934444319354e+06 
-9.0999999999999801e+00 -5.6445353299516543e-01 +7.7300958196749239e+00 -4.6707965092775755e-01 +3.7025803881549059e+01 -1.7906394328204826e+03 -3.6251727186469664e+05 +4.9909473450541887e+06 
-9.1999999999999797e+00 -5.6445387393960944e-01 +7.7301216444596719e+00 -4.7361992774706974e-01 +3.6360807353619748e+01 -1.6787064379801566e+03 -3.5877887411262293e+05 +4.5332926309241457e+06 
-9.2999999999999794e+00 -5.6445421716864597e-01 +7.7301495090625902e+00 -4.8045441610370498e-01 +3.5659276573385355e+01 -1.5608329074913315e+03 -3.5488249004786409e+05 +4.0499232581378873e+06 
-9.3999999999999808e+00 -5.6445456309189324e-01 +7.7301792019697437e+00 -4.8756857476841070e-01 +3.4927827466647528e+01 -1.4373815212428815e+03 -3.5086758430217713e+05 +3.5427324744587741e+06 
-9.4999999999999805e+00 -5.6445491211888321e-01 +7.7302105116711068e+00 -4.9494787461921902e-01 +3.4173075885907934e+01 -1.3087147267719713e+03 -3.4677362127273128e+05 +3.0136124421286345e+06 
-9.5999999999999801e+00 -5.6445526465916029e-01 +7.7302432266538892e+00 -5.0257779584287909e-01 +3.3401637814321091e+01 -1.1751947962550080e+03 -3.4264006633240025e+05 +2.4644545173295718e+06 
-9.6999999999999797e+00 -5.6445562112209358e-01 +7.7302771354102928e+00 -5.1044382851151326e-01 +3.2620129123151457e+01 -1.0371838082928830e+03 -3.3850638437996130e+05 +1.8971491488260156e+06 
-9.7999999999999794e+00 -5.6445598191706359e-01 +7.7303120264317258e+00 -5.1853147531726873e-01 +3.1835165755234542e+01 -8.9504360547643046e+02 -3.3441204094667616e+05 +1.3135856970295231e+06 
-9.8999999999999808e+00 -5.6445634745331164e-01 +7.7303476882143478e+00 -5.2682624795879518e-01 +3.1053363564421048e+01 -7.4913585396811698e+02 -3.3039650127004302e+05 +7.1565269991513167e+05 
-9.9999999999999805e+00 -5.6445671813993470e-01 +7.7303839092834359e+00 -5.3531367005850494e-01 +3.0281337854416680e+01 -5.9982200955483336e+02 -3.2649922798381338e+05 +1.0523774972128280e+05 
-1.0100000000000000e+01 -5.6445709431306101e-01 +7.7304205054938340e+00 -5.4397026560890693e-01 +2.9524530117976337e+01 -4.4760518752537826e+02 -3.2275202945412975e+05 -5.1525238815662550e+05 
