# multipoles
# s[mm] polynom_b[n=0][T/m^n] polynom_b[n=1][T/m^n] polynom_b[n=2][T/m^n] polynom_b[n=3][T/m^n] polynom_b[n=4][T/m^n] polynom_b[n=5][T/m^n] polynom_b[n=6][T/m^n] 
+0.0000000000000000e+00 -5.9469498045619207e-01 +8.1137624125978842e+00 -5.1141483255801101e-01 -2.5144548877985667e+01 +6.2774637587511706e+03 -4.2451316899509322e+04 -3.7918817452221297e+07 
+1.0000000000000001e-01 -5.9469473055926525e-01 +8.1137821511973947e+00 -5.1812030829440825e-01 -2.5685032395410179e+01 +6.3673694041082263e+03 -3.9569765348037799e+04 -3.8251393022274755e+07 
+2.0000000000000001e-01 -5.9469448533640867e-01 +8.1137969220902519e+00 -5.2460742880765021e-01 -2.6129637157835500e+01 +6.4582121830369897e+03 -3.7199929504054824e+04 -3.8602627065540776e+07 
+3.0000000000000004e-01 -5.9469424481747479e-01 +8.1138069076517638e+00 -5.3087802553552554e-01 -2.6481954824409364e+01 +6.5496711707971917e+03 -3.5318035780635306e+04 -3.8970151525250405e+07 
+4.0000000000000002e-01 -5.9469400903232861e-01 +8.1138122902484149e+00 -5.3693392750765223e-01 -2.6745576835542387e+01 +6.6414253925112589e+03 -3.3900311689063907e+04 -3.9351598092752464e+07 
+5.0000000000000000e-01 -5.9469377801079959e-01 +8.1138132522522728e+00 -5.4277696729040614e-01 -2.6924094800590460e+01 +6.7331539355518034e+03 -3.2922983673412797e+04 -3.9744598740841277e+07 
+5.9999999999999998e-01 -5.9469355178271088e-01 +8.1138099760256175e+00 -5.4840897782858999e-01 -2.7021100070091471e+01 +6.8245358899319181e+03 -3.2362279552064672e+04 -4.0146785440143421e+07 
+6.9999999999999996e-01 -5.9469333037784511e-01 +8.1138026439328890e+00 -5.5383179620608025e-01 -2.7040184072399629e+01 +6.9152504198385514e+03 -3.2194426598020324e+04 -4.0555790503804348e+07 
+7.9999999999999993e-01 -5.9469311382601064e-01 +8.1137914383322780e+00 -5.5904725548410439e-01 -2.6984938046456492e+01 +7.0049766067886003e+03 -3.2395653162890500e+04 -4.0969245834437743e+07 
+8.9999999999999991e-01 -5.9469290215696957e-01 +8.1137765415849668e+00 -5.6405719461412185e-01 -2.6858953336620793e+01 +7.0933936428293528e+03 -3.2942186891744488e+04 -4.1384783858282141e+07 
+9.9999999999999989e-01 -5.9469269540048875e-01 +8.1137581360496949e+00 -5.6886345086146728e-01 -2.6665821200613031e+01 +7.1801806811910519e+03 -3.3810255956538007e+04 -4.1800036800653420e+07 
+1.0999999999999999e+00 -5.9469249358632559e-01 +8.1137364040804734e+00 -5.7346786223060087e-01 -2.6409132763151462e+01 +7.2650168833200569e+03 -3.4976089255405197e+04 -4.2212636913362093e+07 
+1.2000000000000000e+00 -5.9469229674423274e-01 +8.1137115280360614e+00 -5.7787226690683724e-01 -2.6092479274678194e+01 +7.3475814103442426e+03 -3.6415914976932210e+04 -4.2620216439988419e+07 
+1.3000000000000000e+00 -5.9469210490395508e-01 +8.1136836902709053e+00 -5.8207850357224855e-01 -2.5719451829822251e+01 +7.4275534272171280e+03 -3.8105962294037410e+04 -4.3020407631480500e+07 
+1.4000000000000001e+00 -5.9469191809521327e-01 +8.1136530731434906e+00 -5.8608841349419971e-01 -2.5293641640444278e+01 +7.5046121417960458e+03 -4.0022459684024616e+04 -4.3410842931176566e+07 
+1.5000000000000002e+00 -5.9469173634776207e-01 +8.1136198590043875e+00 -5.8990383358350351e-01 -2.4818639641127234e+01 +7.5784366769101707e+03 -4.2141637384923008e+04 -4.3789154377836213e+07 
+1.6000000000000003e+00 -5.9469155969133813e-01 +8.1135842302135064e+00 -5.9352660241663602e-01 -2.4298037029496967e+01 +7.6487061786091645e+03 -4.4439724130460716e+04 -4.4152974104469873e+07 
+1.7000000000000004e+00 -5.9469138815565648e-01 +8.1135463691280254e+00 -5.9695856112641199e-01 -2.3735424871466915e+01 +7.7150998380133278e+03 -4.6892949586180664e+04 -4.4499934456390411e+07 
+1.8000000000000005e+00 -5.9469122177046518e-01 +8.1135064581046326e+00 -6.0020154613692778e-01 -2.3134394193202439e+01 +7.7772967486844136e+03 -4.9477543742556620e+04 -4.4827667301322266e+07 
+1.9000000000000006e+00 -5.9469106056551191e-01 +8.1134646795058227e+00 -6.0325739431535175e-01 -2.2498536130579669e+01 +7.8349760107479551e+03 -5.2169736147201889e+04 -4.5133804541764818e+07 
+2.0000000000000004e+00 -5.9469090457053364e-01 +8.1134212156892076e+00 -6.0612794318606900e-01 -2.1831441638943222e+01 +7.8878167284516976e+03 -5.4945757549354355e+04 -4.5415978087036192e+07 
+2.1000000000000005e+00 -5.9469075388595471e-01 +8.1133762756960230e+00 -6.0881349265257989e-01 -2.1137131054394310e+01 +7.9355591007357498e+03 -5.7782116341974361e+04 -4.5672270673493721e+07 
+2.2000000000000006e+00 -5.9469060889276182e-01 +8.1133301778553832e+00 -6.1130886897783931e-01 -2.0421460431818463e+01 +7.9782000411534300e+03 -6.0655810849796988e+04 -4.5902596822458200e+07 
+2.3000000000000007e+00 -5.9469047004149878e-01 +8.1132832684748539e+00 -6.1360770697206757e-01 -1.9690774473208975e+01 +8.0158039311945176e+03 -6.3543809513634740e+04 -4.6107337143806398e+07 
+2.4000000000000008e+00 -5.9469033778276081e-01 +8.1132358938635534e+00 -6.1570363593361399e-01 -1.8951417956285013e+01 +8.0484350573954180e+03 -6.6423080305168260e+04 -4.6286871819780253e+07 
+2.5000000000000009e+00 -5.9469021256713861e-01 +8.1131884003203858e+00 -6.1759028664555282e-01 -1.8209735370960018e+01 +8.0761577427662642e+03 -6.9270592895164504e+04 -4.6441581224256396e+07 
+2.6000000000000010e+00 -5.9469009484527313e-01 +8.1131411341535280e+00 -6.1926128507245382e-01 -1.7472071496291733e+01 +8.0990362299987564e+03 -7.2063315276312816e+04 -4.6571845374625877e+07 
+2.7000000000000011e+00 -5.9468998506779236e-01 +8.1130944416656305e+00 -6.2071025992783191e-01 -1.6744770992397399e+01 +8.1171348241737660e+03 -7.4778216077369958e+04 -4.6678044605576940e+07 
+2.8000000000000012e+00 -5.9468988368537856e-01 +8.1130486691581947e+00 -6.2193083469367993e-01 -1.6034178507959584e+01 +8.1305177475584769e+03 -7.7392264003907883e+04 -4.6760558899338469e+07 
+2.9000000000000012e+00 -5.9468979114871534e-01 +8.1130041629348124e+00 -6.2291663420142762e-01 -1.5346638778625380e+01 +8.1392492586852486e+03 -7.9882427250641194e+04 -4.6819768428784169e+07 
+3.0000000000000013e+00 -5.9468970790853237e-01 +8.1129612692900146e+00 -6.2366127929386073e-01 -1.4688496335585471e+01 +8.1433935584831197e+03 -8.2225675116517057e+04 -4.6856053135752872e+07 
+3.1000000000000014e+00 -5.9468963441558209e-01 +8.1129203345290808e+00 -6.2415838995160067e-01 -1.4066096036562897e+01 +8.1430148485858690e+03 -8.4398975045809042e+04 -4.6869793002149798e+07 
+3.2000000000000015e+00 -5.9468957112063692e-01 +8.1128817049466910e+00 -6.2440158555273884e-01 -1.3485782503055528e+01 +8.1381773375327984e+03 -8.6379295742756891e+04 -4.6861368082403310e+07 
+3.3000000000000016e+00 -5.9468951847453566e-01 +8.1128457268400265e+00 -6.2438447930717256e-01 -1.2953900459531885e+01 +8.1289451361066795e+03 -8.8143605324785691e+04 -4.6831158008402199e+07 
+3.4000000000000017e+00 -5.9468947692813467e-01 +8.1128127465016693e+00 -6.2410068462229074e-01 -1.2476794562028715e+01 +8.1153823801548751e+03 -8.9668872220299818e+04 -4.6779542576891474e+07 
+3.5000000000000018e+00 -5.9468944693231696e-01 +8.1127831102302430e+00 -6.2354381396910885e-01 -1.2060809685205077e+01 +8.0975532117089024e+03 -9.0932063566853976e+04 -4.6706901666688383e+07 
+3.6000000000000019e+00 -5.9468942893803434e-01 +8.1127571643144005e+00 -6.2270747356832346e-01 -1.1712290485564136e+01 +8.0755216752042888e+03 -9.1910147685673030e+04 -4.6613614737234928e+07 
+3.7000000000000020e+00 -5.9468942339624686e-01 +8.1127352550453473e+00 -6.2158527131511976e-01 -1.1437581753401552e+01 +8.0493518724436781e+03 -9.2580092064247525e+04 -4.6500061574894525e+07 
+3.8000000000000020e+00 -5.9468943075800029e-01 +8.1127177287146957e+00 -6.2017080767692623e-01 -1.1243028355742510e+01 +8.0191077951949901e+03 -9.2918863676707100e+04 -4.6366621513121732e+07 
+3.9000000000000021e+00 -5.9468945147434837e-01 +8.1127049316061282e+00 -6.1845768417335412e-01 -1.1134975005590334e+01 +7.9848534749025803e+03 -9.2903430313324701e+04 -4.6213674111145027e+07 
+4.0000000000000018e+00 -5.9468948599641536e-01 +8.1126972100085748e+00 -6.1643949747666538e-01 -1.1119766640418758e+01 +7.9466528864741122e+03 -9.2510758374467594e+04 -4.6041598738090426e+07 
+4.1000000000000014e+00 -5.9468953461254770e-01 +8.1126947750353882e+00 -6.1411409560503527e-01 -1.1201202335737845e+01 +7.9046163489703922e+03 -9.1727940715808174e+04 -4.5851039442001432e+07 
+4.2000000000000011e+00 -5.9468959695740775e-01 +8.1126972943811388e+00 -6.1149300158176501e-01 -1.1372896844815125e+01 +7.8589774009535568e+03 -9.0582093774742636e+04 -4.5643460041569240e+07 
+4.3000000000000007e+00 -5.9468967250168570e-01 +8.1127042990799172e+00 -6.0859030787406820e-01 -1.1625917366455001e+01 +7.8099846153757217e+03 -8.9110212810592668e+04 -4.5420469297550343e+07 
+4.4000000000000004e+00 -5.9468976071601598e-01 +8.1127153201631614e+00 -6.0542011172139076e-01 -1.1951331024146862e+01 +7.7578866350551489e+03 -8.7349293356511494e+04 -4.5183676251531638e+07 
+4.5000000000000000e+00 -5.9468986107101196e-01 +8.1127298886596524e+00 -6.0199651146088839e-01 -1.2340204848256048e+01 +7.7029321074094823e+03 -8.5336331398019611e+04 -4.4934689926027656e+07 
+4.5999999999999996e+00 -5.9468997303723226e-01 +8.1127475355973857e+00 -5.9833360978858485e-01 -1.2783605827020164e+01 +7.6453697390357693e+03 -8.3108323055551198e+04 -4.4675119565414347e+07 
+4.6999999999999993e+00 -5.9469009608521217e-01 +8.1127677919983263e+00 -5.9444550974845645e-01 -1.3272600763690651e+01 +7.5854482161050473e+03 -8.0702265395877082e+04 -4.4406574245868370e+07 
+4.7999999999999989e+00 -5.9469022968544283e-01 +8.1127901888850626e+00 -5.9034631823670758e-01 -1.3798256452851547e+01 +7.5234162813538860e+03 -7.8155155426078505e+04 -4.4130663274016038e+07 
+4.8999999999999986e+00 -5.9469037330835628e-01 +8.1128142572768684e+00 -5.8605014603545025e-01 -1.4351639568641726e+01 +7.4595227164080225e+03 -7.5503990743878123e+04 -4.3848996049810022e+07 
+4.9999999999999982e+00 -5.9469052642435816e-01 +8.1128395281861483e+00 -5.8157110474521656e-01 -1.4923816581008131e+01 +7.3940162945451866e+03 -7.2785769946336790e+04 -4.3563181874953598e+07 
+5.0999999999999979e+00 -5.9469068850378104e-01 +8.1128655326228269e+00 -5.7692331209054382e-01 -1.5505853841438174e+01 +7.3271458747299430e+03 -7.0037492241416563e+04 -4.3274830381026097e+07 
+5.1999999999999975e+00 -5.9469085901692553e-01 +8.1128918015972005e+00 -5.7212088660223837e-01 -1.6088817698558394e+01 +7.2591603000882824e+03 -6.7296156672229830e+04 -4.2985551046408221e+07 
+5.2999999999999972e+00 -5.9469103743401242e-01 +8.1129178661160051e+00 -5.6717795319989905e-01 -1.6663774362968024e+01 +7.1903084999542716e+03 -6.4598762956463783e+04 -4.2696953670197815e+07 
+5.3999999999999968e+00 -5.9469122322520818e-01 +8.1129432571761413e+00 -5.6210864051152598e-01 -1.7221789728776631e+01 +7.1208394415937728e+03 -6.1982312496941777e+04 -4.2410648150314517e+07 
+5.4999999999999964e+00 -5.9469141586064334e-01 +8.1129675057781245e+00 -5.5692707784875450e-01 -1.7753929764300878e+01 +7.0510020698033468e+03 -5.9483806099913272e+04 -4.2128244189646780e+07 
+5.5999999999999961e+00 -5.9469161481033805e-01 +8.1129901429140876e+00 -5.5164740399015466e-01 -1.8251260158182998e+01 +6.9810454666981295e+03 -5.7140246043917599e+04 -4.1851352036848910e+07 
+5.6999999999999957e+00 -5.9469181954427841e-01 +8.1130106995755575e+00 -5.4628375860648748e-01 -1.8704846545609779e+01 +6.9112186961395400e+03 -5.4988634739120484e+04 -4.1581581765840024e+07 
+5.7999999999999954e+00 -5.9469202953236500e-01 +8.1130287067472224e+00 -5.4085028744424912e-01 -1.9105754322705483e+01 +6.8417708950756878e+03 -5.3065975822024375e+04 -4.1320543693252832e+07 
+5.8999999999999950e+00 -5.9469224424442424e-01 +8.1130436954136993e+00 -5.3536114137008262e-01 -1.9445048841474836e+01 +6.7729512536610473e+03 -5.1409273010982324e+04 -4.1069848276871465e+07 
+5.9999999999999947e+00 -5.9469246315020075e-01 +8.1130551965503059e+00 -5.2983047678516559e-01 -1.9713795156696111e+01 +6.7050090234978497e+03 -5.0055531521062745e+04 -4.0831106158002883e+07 
+6.0999999999999943e+00 -5.9469268574437084e-01 +8.1130628745540143e+00 -5.2427271352914406e-01 -1.9905697251297767e+01 +6.6381511375381206e+03 -4.9030151371809392e+04 -4.0605484806100495e+07 
+6.1999999999999940e+00 -5.9469291162639737e-01 +8.1130669243305622e+00 -5.1870804747142862e-01 -2.0024722509329724e+01 +6.5725072844186207e+03 -4.8314694298671755e+04 -4.0392769602662332e+07 
+6.2999999999999936e+00 -5.9469314042304289e-01 +8.1130676728746458e+00 -5.1315931496180678e-01 -2.0077334223595777e+01 +6.5082105819922308e+03 -4.7880410594667708e+04 -4.0192493799258798e+07 
+6.3999999999999932e+00 -5.9469337176113313e-01 +8.1130654472076706e+00 -5.0764934601940259e-01 -2.0069996385542744e+01 +6.4453940441449940e+03 -4.7698547008073430e+04 -4.0004190194439307e+07 
+6.4999999999999929e+00 -5.9469360526749171e-01 +8.1130605743520174e+00 -5.0220097335164771e-01 -2.0009172985912414e+01 +6.3841907566997279e+03 -4.7740350646865409e+04 -3.9827391986769915e+07 
+6.5999999999999925e+00 -5.9469384056900954e-01 +8.1130533813495838e+00 -4.9683702359274790e-01 -1.9901328514732811e+01 +6.3247337114583879e+03 -4.7977066193113613e+04 -3.9661631987181433e+07 
+6.6999999999999922e+00 -5.9469407729262358e-01 +8.1130441952491683e+00 -4.9158032007434938e-01 -1.9752927635543863e+01 +6.2671558629150422e+03 -4.8379937693199761e+04 -3.9506442901748531e+07 
+6.7999999999999918e+00 -5.9469431506529469e-01 +8.1130333431137824e+00 -4.8645368542403161e-01 -1.9570435356318150e+01 +6.2115901724371370e+03 -4.8920207685193753e+04 -3.9361357524908379e+07 
+6.8999999999999915e+00 -5.9469455351406220e-01 +8.1130211520213358e+00 -4.8147993531023220e-01 -1.9360317072533935e+01 +6.1581694970317039e+03 -4.9569116915186634e+04 -3.9225908233784981e+07 
+6.9999999999999911e+00 -5.9469479226600053e-01 +8.1130079490665743e+00 -4.7668188379799825e-01 -1.9129038615671266e+01 +6.1070266878128914e+03 -5.0297904067852178e+04 -3.9099627445083290e+07 
+7.0999999999999908e+00 -5.9469503094823695e-01 +8.1129940613518947e+00 -4.7208234096776791e-01 -1.8883065980402328e+01 +6.0582945479946375e+03 -5.1077807401003127e+04 -3.8982047426612146e+07 
+7.1999999999999904e+00 -5.9469526918794680e-01 +8.1129798160014808e+00 -4.6770411402719192e-01 -1.8628865733555998e+01 +6.0121058546616205e+03 -5.1880062368900341e+04 -3.8872700401712231e+07 
+7.2999999999999901e+00 -5.9469550661237014e-01 +8.1129655401506415e+00 -4.6357000526907827e-01 -1.8372904711760270e+01 +5.9685933204835019e+03 -5.2675903387410777e+04 -3.8771118366929568e+07 
+7.3999999999999897e+00 -5.9469574284881010e-01 +8.1129515609540412e+00 -4.5970281209407998e-01 -1.8121650253811801e+01 +5.9278895963986888e+03 -5.3436562502627618e+04 -3.8676833114124946e+07 
+7.4999999999999893e+00 -5.9469597752463377e-01 +8.1129382055790646e+00 -4.5612532755060892e-01 -1.7881569995960461e+01 +5.8901272829126328e+03 -5.4133270632804997e+04 -3.8589376284391008e+07 
+7.5999999999999890e+00 -5.9469621026723951e-01 +8.1129258012130911e+00 -4.5286034365124095e-01 -1.7659132094290005e+01 +5.8554389904703949e+03 -5.4737256254698201e+04 -3.8508279649840698e+07 
+7.6999999999999886e+00 -5.9469644070414063e-01 +8.1129146750606296e+00 -4.4993064213290879e-01 -1.7460805142200098e+01 +5.8239571723160680e+03 -5.5219745896968263e+04 -3.8433074340523779e+07 
+7.7999999999999883e+00 -5.9469666846286984e-01 +8.1129051543459667e+00 -4.4735900555007135e-01 -1.7293058234183981e+01 +5.7958143281941939e+03 -5.5551963816133808e+04 -3.8363291794418231e+07 
+7.8999999999999879e+00 -5.9469689317104824e-01 +8.1128975663072644e+00 -4.4516820936940943e-01 -1.7162360800303251e+01 +5.7711428620272709e+03 -5.5705132959335853e+04 -3.8298463102294579e+07 
+7.9999999999999876e+00 -5.9469711445638840e-01 +8.1128922382035800e+00 -4.4338102181158001e-01 -1.7075182785963911e+01 +5.7500750795139120e+03 -5.5650474067102172e+04 -3.8238119005933829e+07 
+8.0999999999999872e+00 -5.9469733212489795e-01 +8.1128894036518826e+00 -4.4201270073239102e-01 -1.7035914203257438e+01 +5.7326939669168150e+03 -5.5370055768115853e+04 -3.8181879041139148e+07 
+8.1999999999999869e+00 -5.9469754668067298e-01 +8.1128889318073778e+00 -4.4104557201046901e-01 -1.7041088602281171e+01 +5.7188184346648932e+03 -5.4885642977931238e+04 -3.8129366861428298e+07 
+8.2999999999999865e+00 -5.9469775879887066e-01 +8.1128906029168935e+00 -4.4045299484877071e-01 -1.7085383705419297e+01 +5.7081853142440123e+03 -5.4228045545225454e+04 -3.8080127147560045e+07 
+8.3999999999999861e+00 -5.9469796915456252e-01 +8.1128941972163027e+00 -4.4020833880497162e-01 -1.7163476970934813e+01 +5.7005316365618719e+03 -5.3428074440729419e+04 -3.8033705525951467e+07 
+8.4999999999999858e+00 -5.9469817842279282e-01 +8.1128994949310567e+00 -4.4028497605248823e-01 -1.7270045609542695e+01 +5.6955944768777044e+03 -5.2516541684715266e+04 -3.7989647798969783e+07 
+8.5999999999999854e+00 -5.9469838727851621e-01 +8.1129062762789186e+00 -4.4065628969507398e-01 -1.7399766657353691e+01 +5.6931111164507001e+03 -5.1524259932357279e+04 -3.7947500725176826e+07 
+8.6999999999999851e+00 -5.9469859639666223e-01 +8.1129143214662598e+00 -4.4129566531656084e-01 -1.7547316877104823e+01 +5.6928188816631655e+03 -5.0482043022866033e+04 -3.7906811253738791e+07 
+8.7999999999999847e+00 -5.9469880645208573e-01 +8.1129234106906427e+00 -4.4217649719239555e-01 -1.7707372820678028e+01 +5.6944552595667174e+03 -4.9420705630240715e+04 -3.7867127063424453e+07 
+8.8999999999999844e+00 -5.9469901811958814e-01 +8.1129333241385293e+00 -4.4327218541503866e-01 -1.7874610787061126e+01 +5.6977578437331786e+03 -4.8371063443197912e+04 -3.7827996310319453e+07 
+8.9999999999999840e+00 -5.9469923207387232e-01 +8.1129438419898925e+00 -4.4455614216425493e-01 -1.8043706938293454e+01 +5.7024644559561866e+03 -4.7363932520266513e+04 -3.7788968208550051e+07 
+9.0999999999999837e+00 -5.9469944898962057e-01 +8.1129547444006818e+00 -4.4600178125922751e-01 -1.8209336799167655e+01 +5.7083129440951298e+03 -4.6430132174190578e+04 -3.7749592060957111e+07 
+9.1999999999999833e+00 -5.9469966954140763e-01 +8.1129658115295005e+00 -4.4758252919521530e-01 -1.8366176043748698e+01 +5.7150413920885530e+03 -4.5600480347209334e+04 -3.7709418257786393e+07 
+9.2999999999999829e+00 -5.9469989440378879e-01 +8.1129768235171689e+00 -4.4927181426352347e-01 -1.8508899877535608e+01 +5.7223879162568492e+03 -4.4905797273459226e+04 -3.7667997315339997e+07 
+9.3999999999999826e+00 -5.9470012425117524e-01 +8.1129875604898505e+00 -4.5104308193967446e-01 -1.8632183167644467e+01 +5.7300909530892131e+03 -4.4376904594049483e+04 -3.7624881231710374e+07 
+9.4999999999999822e+00 -5.9470035975797342e-01 +8.1129978025646885e+00 -4.5286977739838780e-01 -1.8730700575009372e+01 +5.7378889296749476e+03 -4.4044624672825048e+04 -3.7579621926414929e+07 
+9.5999999999999819e+00 -5.9470060159848392e-01 +8.1130073298440806e+00 -4.5472535856111546e-01 -1.8799126410019653e+01 +5.7455205108719611e+03 -4.3939781362361813e+04 -3.7531772411540888e+07 
+9.6999999999999815e+00 -5.9470085044691079e-01 +8.1130159224171194e+00 -4.5658329401772707e-01 -1.8832134657742916e+01 +5.7527245580386398e+03 -4.4093199892727680e+04 -3.7480886593123190e+07 
+9.7999999999999812e+00 -5.9470110697742617e-01 +8.1130233603594828e+00 -4.5841705571672464e-01 -1.8824399011973988e+01 +5.7592399920152684e+03 -4.4535706571606504e+04 -3.7426518621904112e+07 
+9.8999999999999808e+00 -5.9470137186407634e-01 +8.1130294237319269e+00 -4.6020013047500063e-01 -1.8770592780328975e+01 +5.7648060104925944e+03 -4.5298129454058777e+04 -3.7368223922407858e+07 
+9.9999999999999805e+00 -5.9470164578084794e-01 +8.1130338925821004e+00 -4.6190601141000326e-01 -1.8665389033434852e+01 +5.7691619223526541e+03 -4.6411296959806416e+04 -3.7305558373934135e+07 
+1.0099999999999980e+01 -5.9470192920056786e-01 +8.1130365907021904e+00 -4.6351183619644420e-01 -1.8505054692029347e+01 +5.7720782073180817e+03 -4.7894819305034238e+04 -3.7238102600881927e+07 
