# multipoles
# s[mm] polynom_b[n=0][T/m^n] polynom_b[n=1][T/m^n] polynom_b[n=2][T/m^n] polynom_b[n=3][T/m^n] polynom_b[n=4][T/m^n] polynom_b[n=5][T/m^n] polynom_b[n=6][T/m^n] 
+0.0000000000000000e+00 -5.6497105607602005e-01 +7.7257108722841803e+00 -1.0193054929996157e+00 -3.0481984583898445e+01 +7.4546076121091310e+03 -1.0172767442489555e+05 -4.3751422869657733e+07 
+1.0000000000000001e-01 -5.6497089997808270e-01 +7.7256835482531807e+00 -1.0226394379225034e+00 -2.9494687542064984e+01 +7.4928455190410696e+03 -1.0664881787706340e+05 -4.3907798049760409e+07 
+2.0000000000000001e-01 -5.6497075659290386e-01 +7.7256616451982385e+00 -1.0260054156402325e+00 -2.8611805360010024e+01 +7.5362179411102106e+03 -1.1103347201294906e+05 -4.4098606857490420e+07 
+3.0000000000000004e-01 -5.6497062549829213e-01 +7.7256448105570206e+00 -1.0294139837097165e+00 -2.7828357845658548e+01 +7.5845754908429026e+03 -1.1490665632080515e+05 -4.4322095623829633e+07 
+4.0000000000000002e-01 -5.6497050627207202e-01 +7.7256326917608424e+00 -1.0328756978814788e+00 -2.7139364648787357e+01 +7.6377687456575159e+03 -1.1829339110570552e+05 -4.4576510511509322e+07 
+5.0000000000000000e-01 -5.6497039849209929e-01 +7.7256249362436007e+00 -1.0364011113449254e+00 -2.6539845527333515e+01 +7.6956482442408251e+03 -1.2121869592199022e+05 -4.4860097527526371e+07 
+5.9999999999999998e-01 -5.6497030173624274e-01 +7.7256211914368258e+00 -1.0400007753094476e+00 -2.6024820193920448e+01 +7.7580644869613297e+03 -1.2370759051797558e+05 -4.5171102497758374e+07 
+6.9999999999999996e-01 -5.6497021558238691e-01 +7.7256211047739622e+00 -1.0436852398255092e+00 -2.5589308442710252e+01 +7.8248679584950141e+03 -1.2578509410048861e+05 -4.5507771192032620e+07 
+7.9999999999999993e-01 -5.6497013960841624e-01 +7.7256243236848618e+00 -1.0474650552254670e+00 -2.5228329985495829e+01 +7.8959091517431680e+03 -1.2747622629576102e+05 -4.5868349428787053e+07 
+8.9999999999999991e-01 -5.6497007339223615e-01 +7.7256304956021662e+00 -1.0513507690989341e+00 -2.4936904631741701e+01 +7.9710385107077755e+03 -1.2880600614729727e+05 -4.6251082806414910e+07 
+9.9999999999999989e-01 -5.6497001651174161e-01 +7.7256392679617374e+00 -1.0553529300977442e+00 -2.4710052289641578e+01 +8.0501065006648541e+03 -1.2979945214335625e+05 -4.6654217030122116e+07 
+1.0999999999999999e+00 -5.6496996854485271e-01 +7.7256502882004714e+00 -1.0594820840492816e+00 -2.4542792913337529e+01 +8.1329635388106581e+03 -1.3048158251186479e+05 -4.7075997594188698e+07 
+1.2000000000000000e+00 -5.6496992906945842e-01 +7.7256632037522559e+00 -1.0637487797915959e+00 -2.4430146370701653e+01 +8.2194600985089510e+03 -1.3087741602976692e+05 -4.7514670261412024e+07 
+1.3000000000000000e+00 -5.6496989766348271e-01 +7.7256776620579135e+00 -1.0681635614634437e+00 -2.4367132732928809e+01 +8.3094465661381928e+03 -1.3101197036288257e+05 -4.7968480389912151e+07 
+1.4000000000000001e+00 -5.6496987390480125e-01 +7.7256933105633472e+00 -1.0727369789800421e+00 -2.4348772220506874e+01 +8.4027734423823604e+03 -1.3091026238482141e+05 -4.8435673898885429e+07 
+1.5000000000000002e+00 -5.6496985737133298e-01 +7.7257097967065631e+00 -1.0774795756992637e+00 -2.4370084814788630e+01 +8.4992910999109408e+03 -1.3059731047246784e+05 -4.8914496091284968e+07 
+1.6000000000000003e+00 -5.6496984764093683e-01 +7.7257267679423283e+00 -1.0824019015790989e+00 -2.4426090970856428e+01 +8.5988500403280377e+03 -1.3009813039926445e+05 -4.9403192900454432e+07 
+1.7000000000000004e+00 -5.6496984429149544e-01 +7.7257438717207600e+00 -1.0875145032585123e+00 -2.4511811011867078e+01 +8.7013007041843521e+03 -1.2943773880714005e+05 -4.9900009976399347e+07 
+1.8000000000000005e+00 -5.6496984690086871e-01 +7.7257607555010539e+00 -1.0928279282660798e+00 -2.4622265485666233e+01 +8.8064935455188315e+03 -1.2864115126778343e+05 -5.0403193030539840e+07 
+1.9000000000000006e+00 -5.6496985504687947e-01 +7.7257770667421353e+00 -1.0983527279888616e+00 -2.4752474926871184e+01 +8.9142790938307062e+03 -1.2773338358148224e+05 -5.0910988143119134e+07 
+2.0000000000000004e+00 -5.6496986830736029e-01 +7.7257924529115858e+00 -1.1040994512300479e+00 -2.4897460090626268e+01 +9.0245078301631402e+03 -1.2673945050566187e+05 -5.1421641171824127e+07 
+2.1000000000000005e+00 -5.6496988633400125e-01 +7.7258066444058127e+00 -1.1100721750103377e+00 -2.5053256492441498e+01 +9.1370077429395133e+03 -1.2567965048955493e+05 -5.1933575593010619e+07 
+2.2000000000000006e+00 -5.6496990907697653e-01 +7.7258197049748008e+00 -1.1162497976284684e+00 -2.5220084402896827e+01 +9.2515223671410549e+03 -1.2455453566468385e+05 -5.2445949059120581e+07 
+2.3000000000000007e+00 -5.6496993656183014e-01 +7.7258317821297027e+00 -1.1226051001471118e+00 -2.5399241583603871e+01 +9.3677755779029667e+03 -1.2335950047462768e+05 -5.2958109259196788e+07 
+2.4000000000000008e+00 -5.6496996881411321e-01 +7.7258430233814464e+00 -1.1291108631342723e+00 -2.5592025812212864e+01 +9.4854912465559009e+03 -1.2208993924390641e+05 -5.3469403879501469e+07 
+2.5000000000000009e+00 -5.6497000585935231e-01 +7.7258535762396665e+00 -1.1357398702561157e+00 -2.5799734849919691e+01 +9.6043933050755168e+03 -1.2074124635505964e+05 -5.3979180899946190e+07 
+2.6000000000000010e+00 -5.6497004772311232e-01 +7.7258635882128051e+00 -1.1424649011543695e+00 -2.6023666447650101e+01 +9.7242056147039439e+03 -1.1930881621482123e+05 -5.4486787976838619e+07 
+2.7000000000000011e+00 -5.6497009443095625e-01 +7.7258732068013023e+00 -1.1492587356031689e+00 -2.6265118145736903e+01 +9.8446520404646471e+03 -1.1778804440689078e+05 -5.4991572788762785e+07 
+2.8000000000000012e+00 -5.6497014600845186e-01 +7.7258825795153987e+00 -1.1560941536349827e+00 -2.6525387791551783e+01 +9.9654564586448123e+03 -1.1617432468696842e+05 -5.5492883082600586e+07 
+2.9000000000000012e+00 -5.6497020248116836e-01 +7.7258918538484229e+00 -1.1629439351879247e+00 -2.6805772772085692e+01 +1.0086342745734009e+04 -1.1446305341104337e+05 -5.5990066610489495e+07 
+3.0000000000000013e+00 -5.6497026387470062e-01 +7.7259011773002921e+00 -1.1697808582719493e+00 -2.7107570701668003e+01 +1.0207034748608041e+04 -1.1264962551931747e+05 -5.6482470999625549e+07 
+3.1000000000000014e+00 -5.6497033021464316e-01 +7.7259106973653671e+00 -1.1765777009643112e+00 -2.7432079058105064e+01 +1.0327256317109206e+04 -1.1072943667199556e+05 -5.6969443894105822e+07 
+3.2000000000000015e+00 -5.6497040152661393e-01 +7.7259205615300264e+00 -1.1833072395502959e+00 -2.7780595124160154e+01 +1.0446731272992494e+04 -1.0869788356314119e+05 -5.7450332816988759e+07 
+3.3000000000000016e+00 -5.6497047783623933e-01 +7.7259309172809703e+00 -1.1899422501301500e+00 -2.8154416228403164e+01 +1.0565183439927576e+04 -1.0655036250975546e+05 -5.7924485311983697e+07 
+3.4000000000000017e+00 -5.6497055916914574e-01 +7.7259419120999704e+00 -1.1964555097779239e+00 -2.8554839596414144e+01 +1.0682336666230436e+04 -1.0428227030082792e+05 -5.8391249053201482e+07 
+3.5000000000000018e+00 -5.6497064555099008e-01 +7.7259536934596511e+00 -1.2028197924417203e+00 -2.8983162226354917e+01 +1.0797914742568873e+04 -1.0188900492179900e+05 -5.8849971440614954e+07 
+3.6000000000000019e+00 -5.6497073700745093e-01 +7.7259664088310647e+00 -1.2090078705460079e+00 -2.9440681113170818e+01 +1.0911641437812146e+04 -9.9365964236733562e+04 -5.9299999785990193e+07 
+3.7000000000000020e+00 -5.6497083356419420e-01 +7.7259802056790319e+00 -1.2149925195292095e+00 -2.9928693113574333e+01 +1.1023240584888123e+04 -9.6708546770157729e+04 -5.9740681718506120e+07 
+3.8000000000000020e+00 -5.6497093524694608e-01 +7.7259952314589952e+00 -1.2207465081667312e+00 -3.0448494865458215e+01 +1.1132435894039367e+04 -9.3912152132596530e+04 -6.0171364289882332e+07 
+3.9000000000000021e+00 -5.6497104208140703e-01 +7.7260116336268476e+00 -1.2262426101611805e+00 -3.1001383057972024e+01 +1.1238951177710074e+04 -9.0972179495830656e+04 -6.0591395055366203e+07 
+4.0000000000000018e+00 -5.6497115409333110e-01 +7.7260295596233890e+00 -1.2314535933232422e+00 -3.1588654001090987e+01 +1.1342510138451633e+04 -8.7884030041607155e+04 -6.1000121047945917e+07 
+4.1000000000000014e+00 -5.6497127123198188e-01 +7.7260490957354628e+00 -1.2363584993317958e+00 -3.2210708899489781e+01 +1.1442865619823004e+04 -8.4646694549883206e+04 -6.1396887972027145e+07 
+4.2000000000000011e+00 -5.6497139313908362e-01 +7.7260700814701675e+00 -1.2409600095022233e+00 -3.2864197933447144e+01 +1.1539866399356051e+04 -8.1274318598206082e+04 -6.1780957068805978e+07 
+4.3000000000000007e+00 -5.6497151937906220e-01 +7.7260922940549275e+00 -1.2452663525360499e+00 -3.3544790995988798e+01 +1.1633379907183027e+04 -7.7785033410252785e+04 -6.2151547913401335e+07 
+4.4000000000000004e+00 -5.6497164951629542e-01 +7.7261155107257604e+00 -1.2492857609985619e+00 -3.4248158145807984e+01 +1.1723273629788537e+04 -7.4196969363662807e+04 -6.2507880306648850e+07 
+4.5000000000000000e+00 -5.6497178311519525e-01 +7.7261395087118361e+00 -1.2530264628949639e+00 -3.4969969166894636e+01 +1.1809414959223097e+04 -7.0528258511787513e+04 -6.2849173577218287e+07 
+4.5999999999999996e+00 -5.6497191974009187e-01 +7.7261640652468193e+00 -1.2564966947399649e+00 -3.5705893879108743e+01 +1.1891671436889566e+04 -6.6797032843884415e+04 -6.3174647736778408e+07 
+4.6999999999999993e+00 -5.6497205895533442e-01 +7.7261889575626341e+00 -1.2597046894820951e+00 -3.6451601973733780e+01 +1.1969910523468870e+04 -6.3021425166649409e+04 -6.3483522377633102e+07 
+4.7999999999999989e+00 -5.6497220032524043e-01 +7.7262139628951774e+00 -1.2626586822541896e+00 -3.7202763151536516e+01 +1.2043999704286189e+04 -5.9219568386539730e+04 -6.3775017166382849e+07 
+4.8999999999999986e+00 -5.6497234341409075e-01 +7.7262388584800563e+00 -1.2653669118510762e+00 -3.7955047010455161e+01 +1.2113806523421643e+04 -5.5409596113555839e+04 -6.4048352021223597e+07 
+4.9999999999999982e+00 -5.6497248778615794e-01 +7.7262634215521295e+00 -1.2678376156217361e+00 -3.8704123008997904e+01 +1.2179198477571395e+04 -5.1609642937412253e+04 -6.4302746584807299e+07 
+5.0999999999999979e+00 -5.6497263300567502e-01 +7.7262874293508670e+00 -1.2700790353609157e+00 -3.9445660634508094e+01 +1.2240043137726816e+04 -4.7837843404179112e+04 -6.4537420826378986e+07 
+5.1999999999999975e+00 -5.6497277863685069e-01 +7.7263106591162254e+00 -1.2720994129606662e+00 -4.0175329267347003e+01 +1.2296208052763906e+04 -4.4112332840058552e+04 -6.4751594549368851e+07 
+5.2999999999999972e+00 -5.6497292424385093e-01 +7.7263328880868416e+00 -1.2739069946655108e+00 -4.0888798127269077e+01 +1.2347560841481665e+04 -4.0451247665721363e+04 -6.4944487856530562e+07 
+5.3999999999999968e+00 -5.6497306939083469e-01 +7.7263538935041201e+00 -1.2755100254319240e+00 -4.1581736383866676e+01 +1.2393969078675686e+04 -3.6872724757774595e+04 -6.5115320592493132e+07 
+5.4999999999999964e+00 -5.6497321364192987e-01 +7.7263734526169054e+00 -1.2769167519018549e+00 -4.2249813290373588e+01 +1.2435300348640032e+04 -3.3394900680641804e+04 -6.5263312587660044e+07 
+5.5999999999999961e+00 -5.6497335656118886e-01 +7.7263913426679904e+00 -1.2781354282123936e+00 -4.2888697781292024e+01 +1.2471422361115010e+04 -3.0035914041257260e+04 -6.5387684228075720e+07 
+5.6999999999999957e+00 -5.6497349771266869e-01 +7.7264073409027976e+00 -1.2791743057840153e+00 -4.3494058726819809e+01 +1.2502202750837427e+04 -2.6813903996799309e+04 -6.5487655481200755e+07 
+5.7999999999999954e+00 -5.6497363666037970e-01 +7.7264212245770070e+00 -1.2800416397862266e+00 -4.4061565143600639e+01 +1.2527509204310405e+04 -2.3747009052933667e+04 -6.5562446512035035e+07 
+5.8999999999999950e+00 -5.6497377296828610e-01 +7.7264327709383602e+00 -1.2807456885541908e+00 -4.4586885652608736e+01 +1.2547209443648180e+04 -2.0853370240681103e+04 -6.5611277592890404e+07 
+5.9999999999999947e+00 -5.6497390620032428e-01 +7.7264417572430446e+00 -1.2812947118985476e+00 -4.5065688970661355e+01 +1.2561171196397250e+04 -1.8151128186815156e+04 -6.5633368959607698e+07 
+6.0999999999999943e+00 -5.6497403612657926e-01 +7.7264480270251088e+00 -1.2816935048868301e+00 -4.5494917381165699e+01 +1.2569291133366947e+04 -1.5652639186049548e+04 -6.5628177530426808e+07 
+6.1999999999999940e+00 -5.6497416334475414e-01 +7.7264517001545157e+00 -1.2819353526290835e+00 -4.5876908477744543e+01 +1.2571626980033707e+04 -1.3345978540950122e+04 -6.5596308385015406e+07 
+6.2999999999999936e+00 -5.6497428866005728e-01 +7.7264529685538887e+00 -1.2820112961250847e+00 -4.6215426656401881e+01 +1.2568289127526050e+04 -1.1212856348432484e+04 -6.5538708394196317e+07 
+6.3999999999999932e+00 -5.6497441287778172e-01 +7.7264520241324517e+00 -1.2819123674862463e+00 -4.6514236016066526e+01 +1.2559387810554792e+04 -9.2349841445326620e+03 -6.5456323722483575e+07 
+6.4999999999999929e+00 -5.6497453680319865e-01 +7.7264490587993393e+00 -1.2816296021950224e+00 -4.6777100718787395e+01 +1.2545033335231512e+04 -7.3940728528410482e+03 -6.5350100904519483e+07 
+6.5999999999999925e+00 -5.6497466124161733e-01 +7.7264442644559468e+00 -1.2811540323406523e+00 -4.7007784791059890e+01 +1.2525335952095453e+04 -5.6718338758851451e+03 -6.5220986242617466e+07 
+6.6999999999999922e+00 -5.6497478699837722e-01 +7.7264378329963801e+00 -1.2804766875368851e+00 -4.7210052133887764e+01 +1.2500405878561740e+04 -4.0499790404177347e+03 -6.5069925931181028e+07 
+6.7999999999999918e+00 -5.6497491487884333e-01 +7.7264299563175314e+00 -1.2795885950869947e+00 -4.7387666828006466e+01 +1.2470353293367551e+04 -2.5102187899709647e+03 -6.4897866002903953e+07 
+6.8999999999999915e+00 -5.6497504568840584e-01 +7.7264208262974625e+00 -1.2784807815057584e+00 -4.7544392503424881e+01 +1.2435288380624632e+04 -1.0342658618782307e+03 -6.4705752582811929e+07 
+6.9999999999999911e+00 -5.6497518023248328e-01 +7.7264106348193344e+00 -1.2771442701295381e+00 -4.7683993030624450e+01 +1.2395321268238349e+04 +3.9616872873534845e+02 -6.4494531550876275e+07 
+7.0999999999999908e+00 -5.6497531931652578e-01 +7.7263995737535094e+00 -1.2755700822104019e+00 -4.7810232036251740e+01 +1.2350562059653836e+04 +1.7993729625160499e+03 -6.4265148721981466e+07 
+7.1999999999999904e+00 -5.6497546374601615e-01 +7.7263878349674338e+00 -1.2737492365292691e+00 -4.7926873152636368e+01 +1.2301120825235852e+04 +3.1936351671183470e+03 -6.4018549803288311e+07 
+7.2999999999999901e+00 -5.6497561432646748e-01 +7.7263756103187591e+00 -1.2716727499835856e+00 -4.8037679853783636e+01 +1.2247107614700089e+04 +4.5972431669417892e+03 -6.3755680456120268e+07 
+7.3999999999999897e+00 -5.6497577186342751e-01 +7.7263630916632016e+00 -1.2693316361394429e+00 -4.8146415678772584e+01 +1.2188632425920856e+04 +6.0284855590013258e+03 -6.3477486139186136e+07 
+7.4999999999999893e+00 -5.6497593716247418e-01 +7.7263504708425819e+00 -1.2667169073438140e+00 -4.8256843884741315e+01 +1.2125805251287082e+04 +7.5056497053387948e+03 -6.3184912343820997e+07 
+7.5999999999999890e+00 -5.6497611102923218e-01 +7.7263379396981140e+00 -1.2638195712872973e+00 -4.8372727840613820e+01 +1.2058736007933137e+04 +9.0470240325931773e+03 -6.2878904253076166e+07 
+7.6999999999999886e+00 -5.6497629426936757e-01 +7.7263256900588173e+00 -1.2606306328143626e+00 -4.8497830700164229e+01 +1.1987534577634213e+04 +1.0670896172759833e+04 -6.2560406945312060e+07 
+7.7999999999999883e+00 -5.6497648768855580e-01 +7.7263139137501060e+00 -1.2571410970136840e+00 -4.8635915642875787e+01 +1.1912310860004278e+04 +1.2395554324907303e+04 -6.2230365633083686e+07 
+7.8999999999999879e+00 -5.6497669209254286e-01 +7.7263028025875116e+00 -1.2533419629949434e+00 -4.8790745715432926e+01 +1.1833174662563073e+04 +1.4239286411277166e+04 -6.1889725160977259e+07 
+7.9999999999999876e+00 -5.6497690828711800e-01 +7.7262925483787468e+00 -1.2492242258549262e+00 -4.8966083869475383e+01 +1.1750235731057403e+04 +1.6220380248156534e+04 -6.1539430132887453e+07 
+8.0999999999999872e+00 -5.6497713689555784e-01 +7.7262833019343002e+00 -1.2447859662966774e+00 -4.9164649617627731e+01 +1.1663694743082560e+04 +1.8351361221368523e+04 -6.1180733257008612e+07 
+8.1999999999999869e+00 -5.6497737780394142e-01 +7.7262750441513273e+00 -1.2400523444881082e+00 -4.9384857237290291e+01 +1.1574078812810641e+04 +2.0620659990652093e+04 -6.0815899661976710e+07 
+8.2999999999999865e+00 -5.6497763071211304e-01 +7.7262677117471146e+00 -1.2350549751663091e+00 -4.9624004301093429e+01 +1.1481987291579604e+04 +2.3010370854547160e+04 -6.0447390935480259e+07 
+8.3999999999999861e+00 -5.6497789531993681e-01 +7.7262612414403664e+00 -1.2298254713743446e+00 -4.9879388476863149e+01 +1.1388019495757218e+04 +2.5502588515090029e+04 -6.0077668459076852e+07 
+8.4999999999999858e+00 -5.6497817132723727e-01 +7.7262555699564563e+00 -1.2243954515596838e+00 -5.0148307702419835e+01 +1.1292774840989761e+04 +2.8079409211273869e+04 -5.9709194051502421e+07 
+8.5999999999999854e+00 -5.6497845843382988e-01 +7.7262506340237627e+00 -1.2187965360104833e+00 -5.0428060050420314e+01 +1.1196852773458610e+04 +3.0722929830414676e+04 -5.9344429636411920e+07 
+8.6999999999999851e+00 -5.6497875633950545e-01 +7.7262463703810864e+00 -1.2130603491060754e+00 -5.0715943982445324e+01 +1.1100852818276227e+04 +3.3415249498467725e+04 -5.8985837489446066e+07 
+8.7999999999999847e+00 -5.6497906474404125e-01 +7.7262427157657996e+00 -1.2072185171464074e+00 -5.1009257970405230e+01 +1.1005374529269553e+04 +3.6138467261064892e+04 -5.8635879970810711e+07 
+8.8999999999999844e+00 -5.6497938334721676e-01 +7.7262396069260744e+00 -1.2013026675812442e+00 -5.1305300873809749e+01 +1.0911017484378002e+04 +3.8874684341469350e+04 -5.8297019533067204e+07 
+8.9999999999999840e+00 -5.6497971184875018e-01 +7.7262369806138977e+00 -1.1953444357167631e+00 -5.1601371744015147e+01 +1.0818381404025777e+04 +4.1606003003357240e+04 -5.7971719256270714e+07 
+9.0999999999999837e+00 -5.6498004994836126e-01 +7.7262347735889918e+00 -1.1893754576583604e+00 -5.1894769912455608e+01 +1.0728066021707815e+04 +4.4314526987262194e+04 -5.7662442245373912e+07 
+9.1999999999999833e+00 -5.6498039734574967e-01 +7.7262329226162656e+00 -1.1834273728245051e+00 -5.2182794958658604e+01 +1.0640671130926759e+04 +4.6982361434574050e+04 -5.7371651850255437e+07 
+9.2999999999999829e+00 -5.6498075374060308e-01 +7.7262313644660701e+00 -1.1775318231533531e+00 -5.2462746673776252e+01 +1.0556796570375176e+04 +4.9591612543843912e+04 -5.7101811594362125e+07 
+9.3999999999999826e+00 -5.6498111883256596e-01 +7.7262300359200458e+00 -1.1717204565588977e+00 -5.2731925261418191e+01 +1.0477042287835349e+04 +5.2124388808224125e+04 -5.6855385473868288e+07 
+9.4999999999999822e+00 -5.6498149232127837e-01 +7.7262288737623175e+00 -1.1660249221406829e+00 -5.2987631078494594e+01 +1.0402008248845488e+04 +5.4562799499261702e+04 -5.6634837521333054e+07 
+9.5999999999999819e+00 -5.6498187390632348e-01 +7.7262278147846946e+00 -1.1604768774314695e+00 -5.3227164792334619e+01 +1.0332294577516232e+04 +5.6888955587116143e+04 -5.6442632482250005e+07 
+9.6999999999999815e+00 -5.6498226328731282e-01 +7.7262267957877553e+00 -1.1551079771516048e+00 -5.3447827389347950e+01 +1.0268501341642595e+04 +5.9084969713674538e+04 -5.6281234790105917e+07 
+9.7999999999999812e+00 -5.6498266016379406e-01 +7.7262257535829866e+00 -1.1499498846460181e+00 -5.3646920268523814e+01 +1.0211228766231932e+04 +6.1132956813517099e+04 -5.6153109569771960e+07 
+9.8999999999999808e+00 -5.6498306423529943e-01 +7.7262246249827475e+00 -1.1450342664882402e+00 -5.3821744936855232e+01 +1.0161077135289877e+04 +6.3015032307222988e+04 -5.6060722180344529e+07 
+9.9999999999999805e+00 -5.6498347520134318e-01 +7.7262233468138790e+00 -1.1403927920027255e+00 -5.3969603437684654e+01 +1.0118646775741792e+04 +6.4713314457440814e+04 -5.6006538136255473e+07 
+1.0099999999999980e+01 -5.6498389275416061e-01 +7.7262218864647858e+00 -1.1360552917913385e+00 -5.4088994742347538e+01 +1.0084429467065267e+04 +6.6216959628108612e+04 -5.5992413756168053e+07 
