# multipoles
# s[mm] polynom_b[n=0][T/m^n] polynom_b[n=1][T/m^n] polynom_b[n=2][T/m^n] polynom_b[n=3][T/m^n] polynom_b[n=4][T/m^n] polynom_b[n=5][T/m^n] polynom_b[n=6][T/m^n] 
+0.0000000000000000e+00 -5.9268569306168861e-01 +8.1171072227904020e+00 +1.6488356766012435e-01 -1.1652288880920707e+02 -5.7029912175729633e+03 +4.4625376180824020e+05 +1.4133555114891138e+07 
+1.0000000000000001e-01 -5.9268555368057851e-01 +8.1171161256128208e+00 +1.6734468537664798e-01 -1.1654100208074409e+02 -5.7264087514337434e+03 +4.4628088663735066e+05 +1.4200449529234940e+07 
+2.0000000000000001e-01 -5.9268541875872383e-01 +8.1171228835319162e+00 +1.7034882616987376e-01 -1.1648917725392045e+02 -5.7564972935795977e+03 +4.4586942977664107e+05 +1.4284522303948404e+07 
+2.9999999999999999e-01 -5.9268528796286823e-01 +8.1171277041193957e+00 +1.7381777844076374e-01 -1.1637537521388080e+02 -5.7921942963999954e+03 +4.4506773376510706e+05 +1.4382109127095703e+07 
+4.0000000000000002e-01 -5.9268516095974288e-01 +8.1171307949411773e+00 +1.7767332673256570e-01 -1.1620755666108343e+02 -5.8324371386351859e+03 +4.4392414010347147e+05 +1.4489545342161059e+07 
+5.0000000000000000e-01 -5.9268503741602230e-01 +8.1171323635623729e+00 +1.8183725928144209e-01 -1.1599368228578392e+02 -5.8761632669330556e+03 +4.4248699033806258e+05 +1.4603166614458743e+07 
+5.9999999999999998e-01 -5.9268491699841763e-01 +8.1171326175464262e+00 +1.8623136181966934e-01 -1.1574171273179111e+02 -5.9223100830697240e+03 +4.4080462582812615e+05 +1.4719308407513974e+07 
+6.9999999999999996e-01 -5.9268479937372132e-01 +8.1171317644542533e+00 +1.9077741938117346e-01 -1.1545960855526289e+02 -5.9698149739722439e+03 +4.3892538741099916e+05 +1.4834306110879282e+07 
+8.0000000000000004e-01 -5.9268468420854392e-01 +8.1171300118517404e+00 +1.9539721632294377e-01 -1.1515533046025372e+02 -6.0176153140619599e+03 +4.3689761684176425e+05 +1.4944495056971423e+07 
+9.0000000000000002e-01 -5.9268457116962303e-01 +8.1171275672989793e+00 +2.0001253821194159e-01 -1.1483683897313011e+02 -6.0646484970742331e+03 +4.3476965483097598e+05 +1.5046210659007655e+07 
+1.0000000000000000e+00 -5.9268445992370100e-01 +8.1171246383612150e+00 +2.0454517168350453e-01 -1.1451209475495642e+02 -6.1098519390626552e+03 +4.3258984283784084e+05 +1.5135788439440811e+07 
+1.1000000000000001e+00 -5.9268435013742682e-01 +8.1171214326043906e+00 +2.0891690254899140e-01 -1.1418905847355315e+02 -6.1521630348976332e+03 +4.3040652231913572e+05 +1.5209563801008858e+07 
+1.2000000000000000e+00 -5.9268424147758703e-01 +8.1171181576002667e+00 +2.1304951974524572e-01 -1.1387569095774757e+02 -6.1905192402035318e+03 +4.2826803562354384e+05 +1.5263872434151160e+07 
+1.3000000000000000e+00 -5.9268413361085082e-01 +8.1171150209223484e+00 +2.1686481244873868e-01 -1.1357995306293434e+02 -6.2238580110367602e+03 +4.2622272515717335e+05 +1.5295050012685779e+07 
+1.3999999999999999e+00 -5.9268402620396965e-01 +8.1171122301489387e+00 +2.2028456937634561e-01 -1.1330980575659123e+02 -6.2511167931219034e+03 +4.2431893385172071e+05 +1.5299432149040850e+07 
+1.5000000000000000e+00 -5.9268391892375472e-01 +8.1171099928664230e+00 +2.2323058677929927e-01 -1.1307321023101950e+02 -6.2712331694828445e+03 +4.2260500586513878e+05 +1.5273355083122266e+07 
+1.6000000000000001e+00 -5.9268381143692173e-01 +8.1171085166638210e+00 +2.2562465756204195e-01 -1.1287812771944820e+02 -6.2831446613189482e+03 +4.2112928541097319e+05 +1.5213154753484964e+07 
+1.7000000000000000e+00 -5.9268370341023091e-01 +8.1171080091419565e+00 +2.2738857975915913e-01 -1.1273251977615904e+02 -6.2857888796509351e+03 +4.1994011843625776e+05 +1.5115167493699796e+07 
+1.8000000000000000e+00 -5.9268359451055586e-01 +8.1171086779034081e+00 +2.2844415549747976e-01 -1.1264434796549521e+02 -6.2781035098574848e+03 +4.1908585071920679e+05 +1.4975729965800777e+07 
+1.8999999999999999e+00 -5.9268348440465080e-01 +8.1171107305678838e+00 +2.2871318719544217e-01 -1.1262157432613829e+02 -6.2590262410524119e+03 +4.1861483063192893e+05 +1.4791178830274295e+07 
+2.0000000000000000e+00 -5.9268337275942173e-01 +8.1171143747585859e+00 +2.2811748182795213e-01 -1.1267216093977564e+02 -6.2274948390603877e+03 +4.1857540652045369e+05 +1.4557851068284985e+07 
+2.1000000000000001e+00 -5.9268325947873068e-01 +8.1171197852878425e+00 +2.2660953291215136e-01 -1.1280225936020391e+02 -6.1828800847652019e+03 +4.1900451246080437e+05 +1.4273727235890627e+07 
+2.2000000000000002e+00 -5.9268314536477174e-01 +8.1171270092306322e+00 +2.2425848453459005e-01 -1.1301116960586336e+02 -6.1262113647109527e+03 +4.1989606046657398e+05 +1.3943123725545743e+07 
+2.2999999999999998e+00 -5.9268303143252710e-01 +8.1171360625816185e+00 +2.2116120617029264e-01 -1.1329657035616691e+02 -6.0589152686554671e+03 +4.2123382332488836e+05 +1.3571883762699960e+07 
+2.3999999999999999e+00 -5.9268291869705336e-01 +8.1171469613320575e+00 +2.1741456503500539e-01 -1.1365614022472553e+02 -5.9824183383639856e+03 +4.2300157350878604e+05 +1.3165850328692088e+07 
+2.5000000000000000e+00 -5.9268280817334018e-01 +8.1171597214731808e+00 +2.1311543066809946e-01 -1.1408755783428408e+02 -5.8981471593257129e+03 +4.2518308353879617e+05 +1.2730866613921622e+07 
+2.6000000000000001e+00 -5.9268270087642039e-01 +8.1171743589888692e+00 +2.0836067377235273e-01 -1.1458850159999604e+02 -5.8075283339128146e+03 +4.2776212471684424e+05 +1.2272775874292038e+07 
+2.7000000000000002e+00 -5.9268259782134236e-01 +8.1171908898568805e+00 +2.0324716647944360e-01 -1.1515664980424413e+02 -5.7119884891140237e+03 +4.3072246768046694e+05 +1.1797421478403255e+07 
+2.7999999999999998e+00 -5.9268250002311873e-01 +8.1172093300490786e+00 +1.9787177594492722e-01 -1.1578968055968839e+02 -5.6129541569230696e+03 +4.3404788205035764e+05 +1.1310646344397813e+07 
+2.8999999999999999e+00 -5.9268240849681941e-01 +8.1172296955339789e+00 +1.9233137563726982e-01 -1.1648527192813071e+02 -5.5118519816377147e+03 +4.3772213726937288e+05 +1.0818293906381181e+07 
+3.0000000000000000e+00 -5.9268232425751410e-01 +8.1172520022690513e+00 +1.8672283815788646e-01 -1.1724110168411634e+02 -5.4101085913462421e+03 +4.4172900117625197e+05 +1.0326207527027614e+07 
+3.1000000000000001e+00 -5.9268224832024952e-01 +8.1172762662037226e+00 +1.8114303267570736e-01 -1.1805484738974037e+02 -5.3091505450708219e+03 +4.4605224041831837e+05 +9.8402302342438251e+06 
+3.2000000000000002e+00 -5.9268218170010467e-01 +8.1173025032808361e+00 +1.7568883131995722e-01 -1.1892418646700968e+02 -5.2104044540575624e+03 +4.5067562095157499e+05 +9.3662052990050390e+06 
+3.2999999999999998e+00 -5.9268212541215715e-01 +8.1173307294317834e+00 +1.7045710514530651e-01 -1.1984679604460780e+02 -5.1152969083196649e+03 +4.5558290712498716e+05 +8.9099758965569604e+06 
+3.3999999999999999e+00 -5.9268208047150128e-01 +8.1173609605753256e+00 +1.6554472633860742e-01 -1.2082035292859585e+02 -5.0252545136230074e+03 +4.6075786151325330e+05 +8.4773852667745948e+06 
+3.5000000000000000e+00 -5.9268204789322720e-01 +8.1173932126221953e+00 +1.6104856524593572e-01 -1.2184253374517833e+02 -4.9417038381530410e+03 +4.6618424578963948e+05 +8.0742764728922984e+06 
+3.6000000000000001e+00 -5.9268202869246189e-01 +8.1174275014696153e+00 +1.5706549204299791e-01 -1.2291101477599196e+02 -4.8660714439703015e+03 +4.7184581973955239e+05 +7.7064925499396045e+06 
+3.7000000000000002e+00 -5.9268202388424451e-01 +8.1174638430011985e+00 +1.5369237604867295e-01 -1.2402347196524981e+02 -4.7997838747360411e+03 +4.7772634134468471e+05 +7.3798764479159350e+06 
+3.7999999999999998e+00 -5.9268203448372614e-01 +8.1175022530871903e+00 +1.5102608766600856e-01 -1.2517758093121857e+02 -4.7442676892207082e+03 +4.8380956685373193e+05 +7.1002711857979121e+06 
+3.8999999999999999e+00 -5.9268206150604674e-01 +8.1175427475833040e+00 +1.4916349502683710e-01 -1.2637101692407133e+02 -4.7009494010318576e+03 +4.9007925052235491e+05 +6.8735195714181801e+06 
+4.0000000000000000e+00 -5.9268210596626736e-01 +8.1175853423283293e+00 +1.4820146590468430e-01 -1.2760145483075974e+02 -4.6712555193735998e+03 +4.9651914474392001e+05 +6.7054644068182819e+06 
+4.0999999999999996e+00 -5.9268216845663324e-01 +8.1176299699924499e+00 +1.4820620898676351e-01 -1.2886502698710692e+02 -4.6561686313301734e+03 +5.0310568695462320e+05 +6.6001328301058030e+06 
+4.2000000000000002e+00 -5.9268224802699609e-01 +8.1176762623305798e+00 +1.4913381535988135e-01 -1.3015222380364366e+02 -4.6550811702753881e+03 +5.0978848895303672e+05 +6.5550603963707658e+06 
+4.2999999999999998e+00 -5.9268234337571624e-01 +8.1177237830164000e+00 +1.5091564313164332e-01 -1.3145224563444847e+02 -4.6670293824703394e+03 +5.1651101220839389e+05 +6.5663312874253998e+06 
+4.4000000000000004e+00 -5.9268245320098123e-01 +8.1177720957199657e+00 +1.5348304437269530e-01 -1.3275429267706861e+02 -4.6910494139696148e+03 +5.2321671715144638e+05 +6.6300292621068545e+06 
+4.5000000000000000e+00 -5.9268257620107467e-01 +8.1178207641286431e+00 +1.5676736942182193e-01 -1.3404756560886310e+02 -4.7261773946444928e+03 +5.2984906696082908e+05 +6.7422380643398212e+06 
+4.5999999999999996e+00 -5.9268271107407133e-01 +8.1178693519280181e+00 +1.6069995845209897e-01 -1.3532126502128978e+02 -4.7714492794349744e+03 +5.3635152424403210e+05 +6.8990406715579508e+06 
+4.7000000000000002e+00 -5.9268285651812103e-01 +8.1179174228188824e+00 +1.6521214744121568e-01 -1.3656459190884431e+02 -4.8259009603366094e+03 +5.4266755386557500e+05 +7.0965198231751975e+06 
+4.7999999999999998e+00 -5.9268301123117173e-01 +8.1179645405085594e+00 +1.7023526282528847e-01 -1.3776674741135889e+02 -4.8885681693395136e+03 +5.4874062144069455e+05 +7.3307575759784086e+06 
+4.9000000000000004e+00 -5.9268317391125713e-01 +8.1180102687131193e+00 +1.7570062844376164e-01 -1.3891693288088135e+02 -4.9584866077005145e+03 +5.5451419373065606e+05 +7.5978359086019071e+06 
+5.0000000000000000e+00 -5.9268334325618577e-01 +8.1180541711599066e+00 +1.8153955668841407e-01 -1.4000434994419783e+02 -5.0346917841672484e+03 +5.5993173897560465e+05 +7.8938359704700811e+06 
+5.0999999999999996e+00 -5.9268351796381202e-01 +8.1180958115870876e+00 +1.8768335159903518e-01 -1.4101820050415608e+02 -5.1162190674111171e+03 +5.6493672695556562e+05 +8.2148383168625319e+06 
+5.2000000000000002e+00 -5.9268369673185806e-01 +8.1181347537423925e+00 +1.9406331394644002e-01 -1.4194768668815132e+02 -5.2021037910988043e+03 +5.6947262863753724e+05 +8.5569234309474621e+06 
+5.2999999999999998e+00 -5.9268387825795588e-01 +8.1181705613887001e+00 +2.0061073066475843e-01 -1.4278201099328905e+02 -5.2913810469339205e+03 +5.7348291698341933e+05 +8.9161707234445829e+06 
+5.4000000000000004e+00 -5.9268406123967765e-01 +8.1182027983000999e+00 +2.0725688316598728e-01 -1.4351037620441562e+02 -5.3830858500715394e+03 +5.7691106656799535e+05 +9.2886593413893450e+06 
+5.5000000000000000e+00 -5.9268424437446321e-01 +8.1182310282597143e+00 +2.1393304216626891e-01 -1.4412198529876326e+02 -5.4762530411623793e+03 +5.7970055292710324e+05 +9.6704677026086096e+06 
+5.5999999999999996e+00 -5.9268442635975704e-01 +8.1182548150718485e+00 +2.2057046893545521e-01 -1.4460604180358658e+02 -5.5699173019690998e+03 +5.8179485466570954e+05 +1.0057673548964012e+07 
+5.7000000000000002e+00 -5.9268460589282945e-01 +8.1182737225499118e+00 +2.2710041655011695e-01 -1.4495174945209857e+02 -5.6631131934528421e+03 +5.8313745146399178e+05 +1.0446354168263797e+07 
+5.7999999999999998e+00 -5.9268478167086336e-01 +8.1182873145245402e+00 +2.3345412584075698e-01 -1.4514831240343466e+02 -5.7548750744382742e+03 +5.8367182533077803e+05 +1.0832585995040393e+07 
+5.9000000000000004e+00 -5.9268495239095864e-01 +8.1182951548416344e+00 +2.3956282853776467e-01 -1.4518493518983405e+02 -5.8442371563514234e+03 +5.8334146029833995e+05 +1.1212444858463483e+07 
+5.9999999999999902e+00 -5.9268511675011493e-01 +8.1182968073793802e+00 +2.4535774579074346e-01 -1.4505082335580312e+02 -5.9302335109972346e+03 +5.8208984605001716e+05 +1.1582006099465793e+07 
+6.0999999999999899e+00 -5.9268527379652791e-01 +8.1182919935675706e+00 +2.5078006953168736e-01 -1.4473963865402914e+02 -6.0120342833459472e+03 +5.7988474227393989e+05 +1.1937913883267354e+07 
+6.1999999999999904e+00 -5.9268542382216094e-01 +8.1182809885716001e+00 +2.5580377689723421e-01 -1.4426054312392120e+02 -6.0892014636494250e+03 +5.7677818122205033e+05 +1.2278311731016204e+07 
+6.2999999999999901e+00 -5.9268556739414680e-01 +8.1182641894455259e+00 +2.6040955053032089e-01 -1.4362607901664276e+02 -6.1613645005433309e+03 +5.7284054380282783e+05 +1.2601565036486831e+07 
+6.3999999999999897e+00 -5.9268570507964613e-01 +8.1182419932454906e+00 +2.6457807732417959e-01 -1.4284878863825574e+02 -6.2281529107401748e+03 +5.6814221113187645e+05 +1.2906039448377071e+07 
+6.4999999999999902e+00 -5.9268583744593106e-01 +8.1182147970361793e+00 +2.6829005754776125e-01 -1.4194121454227712e+02 -6.2891964460083955e+03 +5.6275356567570032e+05 +1.3190101649685595e+07 
+6.5999999999999899e+00 -5.9268596506027538e-01 +8.1181829978846576e+00 +2.7152619284177548e-01 -1.4091589935344572e+02 -6.3441248710208129e+03 +5.5674499021706311e+05 +1.3452118310220804e+07 
+6.6999999999999904e+00 -5.9268608849005533e-01 +8.1181469928677021e+00 +2.7426719714719022e-01 -1.3978538597778120e+02 -6.3925681629525798e+03 +5.5018686907850381e+05 +1.3690457017445005e+07 
+6.7999999999999901e+00 -5.9268620830272811e-01 +8.1181071790621981e+00 +2.7649379157992754e-01 -1.3856221732572536e+02 -6.4341564185944972e+03 +5.4314958650770015e+05 +1.3903485841079010e+07 
+6.8999999999999897e+00 -5.9268632506574426e-01 +8.1180639535528094e+00 +2.7818670747882895e-01 -1.3725893653077108e+02 -6.4685199089278831e+03 +5.3570352793551807e+05 +1.4089573585387932e+07 
+6.9999999999999902e+00 -5.9268643934672427e-01 +8.1180177134303708e+00 +2.7932668685946316e-01 -1.3588808691131129e+02 -6.4952890879235256e+03 +5.2791907976777002e+05 +1.4247089826839624e+07 
+7.0999999999999899e+00 -5.9268655171331486e-01 +8.1179688557910019e+00 +2.7989447907320747e-01 -1.3446221193580629e+02 -6.5140945284847330e+03 +5.1986662916851137e+05 +1.4374404607969455e+07 
+7.1999999999999904e+00 -5.9268666273327419e-01 +8.1179177777346183e+00 +2.7987084691379738e-01 -1.3299385519582515e+02 -6.5245670321943453e+03 +5.1161656393244042e+05 +1.4469888941233773e+07 
+7.2999999999999901e+00 -5.9268677297446037e-01 +8.1178648763705556e+00 +2.7923656283530252e-01 -1.3149556054349679e+02 -6.5263375646095610e+03 +5.0323927321212419e+05 +1.4531914517129928e+07 
+7.3999999999999897e+00 -5.9268688300471817e-01 +8.1178105488093184e+00 +2.7797240907984988e-01 -1.2997987188604210e+02 -6.5190372545749360e+03 +4.9480514641874941e+05 +1.4558853691814581e+07 
+7.4999999999999902e+00 -5.9268699339210951e-01 +8.1177551921724902e+00 +2.7605918004254371e-01 -1.2845933344620025e+02 -6.5022974336099487e+03 +4.8638457464751106e+05 +1.4549079658240743e+07 
+7.5999999999999899e+00 -5.9268710470471064e-01 +8.1176992035845146e+00 +2.7347768704302239e-01 -1.2694648953361535e+02 -6.4757497293484084e+03 +4.7804794938544900e+05 +1.4500966895742523e+07 
+7.6999999999999904e+00 -5.9268721751073217e-01 +8.1176429801766545e+00 +2.7020874733844713e-01 -1.2545388466663523e+02 -6.4390258555298005e+03 +4.6986566322260012e+05 +1.4412890165625684e+07 
+7.7999999999999901e+00 -5.9268733237847782e-01 +8.1175869190844772e+00 +2.6623319364825587e-01 -1.2399406347985904e+02 -6.3917577924723219e+03 +4.6190810926916520e+05 +1.4283225368891578e+07 
+7.8999999999999897e+00 -5.9268744987641853e-01 +8.1175314174557585e+00 +2.6153187620598317e-01 -1.2257957099010879e+02 -6.3335778225076647e+03 +4.5424568278829078e+05 +1.4110349700004214e+07 
+7.9999999999999902e+00 -5.9268757057303312e-01 +8.1174768724336719e+00 +2.5608565705995806e-01 -1.2122295120881068e+02 -6.2641183262281302e+03 +4.4694877250998089e+05 +1.3892640483716674e+07 
+8.0999999999999908e+00 -5.9268769507733066e-01 +8.1174236419942059e+00 +2.4989793744685196e-01 -1.1993460324910326e+02 -6.1833491473296372e+03 +4.4007498461957945e+05 +1.3629796087571619e+07 
+8.1999999999999904e+00 -5.9268782411626020e-01 +8.1173719401604725e+00 +2.4304616767587511e-01 -1.1871785134806238e+02 -6.0924044276524774e+03 +4.3364040653669776e+05 +1.3326215655641031e+07 
+8.2999999999999901e+00 -5.9268795843800537e-01 +8.1173219479224645e+00 +2.3562305804078601e-01 -1.1757454801760062e+02 -5.9926695797361153e+03 +4.2765263326964102e+05 +1.2987340496157175e+07 
+8.3999999999999897e+00 -5.9268809879073314e-01 +8.1172738462555039e+00 +2.2772132569176409e-01 -1.1650654539810107e+02 -5.8855301433621471e+03 +4.2211925805118639e+05 +1.2618612522298304e+07 
+8.4999999999999893e+00 -5.9268824592275404e-01 +8.1172278161016163e+00 +2.1943368817431580e-01 -1.1551569471718378e+02 -5.7723716545724483e+03 +4.1704786920785264e+05 +1.2225473604409957e+07 
+8.5999999999999908e+00 -5.9268840058233707e-01 +8.1171840383809286e+00 +2.1085286998475625e-01 -1.1460384662734025e+02 -5.6545797764492945e+03 +4.1244605214022141e+05 +1.1813366212531252e+07 
+8.6999999999999904e+00 -5.9268856351792543e-01 +8.1171426939848104e+00 +2.0207159958660506e-01 -1.1377285100900488e+02 -5.5335402365052505e+03 +4.0832138819871080e+05 +1.1387733100536840e+07 
+8.7999999999999794e+00 -5.9268873547790191e-01 +8.1171039637830802e+00 +1.9318260680708516e-01 -1.1302455718291412e+02 -5.4106387860542163e+03 +4.0468145593641297e+05 +1.0954017138616031e+07 
+8.8999999999999808e+00 -5.9268891721074179e-01 +8.1170680286113726e+00 +1.8427862951179577e-01 -1.1236081353351608e+02 -5.2872613172821484e+03 +4.0153382889498945e+05 +1.0517661844895054e+07 
+8.9999999999999805e+00 -5.9268910946504461e-01 +8.1170350692831210e+00 +1.7545240765397890e-01 -1.1178346788328774e+02 -5.1647937563685491e+03 +3.9888607786536374e+05 +1.0084110891086878e+07 
+9.0999999999999801e+00 -5.9268931298938421e-01 +8.1170052665732015e+00 +1.6679668506712231e-01 -1.1129436698558412e+02 -5.0446220917439450e+03 +3.9674576786002825e+05 +9.6588082261660546e+06 
+9.1999999999999797e+00 -5.9268952853240797e-01 +8.1169788012360087e+00 +1.5840421236951654e-01 -1.1089535707882722e+02 -4.9281324360711360e+03 +3.9512046141668764e+05 +9.2471983869676329e+06 
+9.2999999999999794e+00 -5.9268975684291070e-01 +8.1169558539891540e+00 +1.5036774395642696e-01 -1.1058828341566736e+02 -4.8167109632302154e+03 +3.9401771588947542e+05 +8.8547261831944268e+06 
+9.3999999999999808e+00 -5.9268999866963901e-01 +8.1169366055176990e+00 +1.4278003601078204e-01 -1.1037499035529859e+02 -4.7117438730168069e+03 +3.9344508389217494e+05 +8.4868365384753216e+06 
+9.4999999999999805e+00 -5.9269025476143622e-01 +8.1169212364783530e+00 +1.3573385355958156e-01 -1.1025732153780461e+02 -4.6146175262799425e+03 +3.9341011448243138e+05 +8.1489751347662061e+06 
+9.5999999999999801e+00 -5.9269052586728266e-01 +8.1169099274907346e+00 +1.2932196374169530e-01 -1.1023711957782655e+02 -4.5267183112277044e+03 +3.9392035122998344e+05 +7.8465877620382989e+06 
+9.6999999999999797e+00 -5.9269081273611068e-01 +8.1169028591389871e+00 +1.2363713935313758e-01 -1.1031622616031073e+02 -4.4494327186995597e+03 +3.9498333292225620e+05 +7.5851206982450020e+06 
+9.7999999999999794e+00 -5.9269111611704506e-01 +8.1169002119775975e+00 +1.1877215856198561e-01 -1.1049648218571856e+02 -4.3841473293243980e+03 +3.9660659434979840e+05 +7.3700206280078907e+06 
+9.8999999999999808e+00 -5.9269143675919500e-01 +8.1169021665185159e+00 +1.1481980477295353e-01 -1.1077972739767165e+02 -4.3322488154406456e+03 +3.9879766415655188e+05 +7.2067346665472649e+06 
+9.9999999999999805e+00 -5.9269177541158802e-01 +8.1169089031546413e+00 +1.1187284011391226e-01 -1.1116779922897658e+02 -4.2951235075692512e+03 +4.0156405897547462e+05 +7.1007083830946563e+06 
+1.0100000000000000e+01 -5.9269213236358675e-01 +8.1169204473929888e+00 +1.0998737157822834e-01 -1.1165940009447436e+02 -4.2736137338517528e+03 +4.0489661388578190e+05 +7.0551980016611675e+06 
