# field on trajectory
# s[mm] rx[mm] ry[mm] rz[mm] bx[T] by[T] bz[T]
0.0000000000000000e+00 +8.1530000000000094e+00 +0.0000000000000000e+00 +0.0000000000000000e+00 -3.0346519706405332e-02 -5.6466290238759698e-01 +5.6275774950338316e-03
1.0000000000000001e-01 +8.1529997163925092e+00 +0.0000000000000000e+00 +9.9999999999463796e-02 -3.0346503489081866e-02 -5.6466266604857318e-01 +5.6275889804423005e-03
2.0000000000000001e-01 +8.1529988655711296e+00 +0.0000000000000000e+00 +1.9999999999571000e-01 -3.0346475440445438e-02 -5.6466243415607742e-01 +5.6275974911667694e-03
2.9999999999999999e-01 +8.1529974475415692e+00 +0.0000000000000000e+00 +2.9999999998552201e-01 -3.0346436872741713e-02 -5.6466220757101293e-01 +5.6276032650793891e-03
4.0000000000000002e-01 +8.1529954622965306e+00 +0.0000000000000000e+00 +3.9999999996568197e-01 -3.0346389098228448e-02 -5.6466198715437721e-01 +5.6276065400541735e-03
5.0000000000000000e-01 +8.1529929098396696e+00 +0.0000000000000000e+00 +4.9999999993297300e-01 -3.0346333429165401e-02 -5.6466177376707571e-01 +5.6276075539650871e-03
5.9999999999999998e-01 +8.1529897901673394e+00 +0.0000000000000000e+00 +5.9999999988417696e-01 -3.0346271177821536e-02 -5.6466156827006353e-01 +5.6276065446874838e-03
6.9999999999999996e-01 +8.1529861032831796e+00 +0.0000000000000000e+00 +6.9999999981607697e-01 -3.0346203656468788e-02 -5.6466137152423623e-01 +5.6276037500969335e-03
8.0000000000000004e-01 +8.1529818491871993e+00 +0.0000000000000000e+00 +7.9999999972545699e-01 -3.0346132177386242e-02 -5.6466118439051061e-01 +5.6275994080700895e-03
9.0000000000000002e-01 +8.1529770278793894e+00 +0.0000000000000000e+00 +8.9999999960909804e-01 -3.0346058052858359e-02 -5.6466100772980099e-01 +5.6275937564843701e-03
1.0000000000000000e+00 +8.1529716393597500e+00 +0.0000000000000000e+00 +9.9999999946378304e-01 -3.0345982595174733e-02 -5.6466084240301806e-01 +5.6275870332179612e-03
1.1000000000000001e+00 +8.1529656836210105e+00 +0.0000000000000000e+00 +1.0999999992862901e+00 -3.0345907116632796e-02 -5.6466068927112711e-01 +5.6275794761503880e-03
1.2000000000000000e+00 +8.1529591606740706e+00 +0.0000000000000000e+00 +1.1999999990734200e+00 -3.0345832929527104e-02 -5.6466054919495046e-01 +5.6275713231604702e-03
1.3000000000000000e+00 +8.1529520705153100e+00 +0.0000000000000000e+00 +1.2999999988219300e+00 -3.0345761346162427e-02 -5.6466042303542241e-01 +5.6275628121289145e-03
1.3999999999999999e+00 +8.1529444131410909e+00 +0.0000000000000000e+00 +1.3999999985286200e+00 -3.0345693678847614e-02 -5.6466031165347652e-01 +5.6275541809371480e-03
1.5000000000000000e+00 +8.1529361885550298e+00 +0.0000000000000000e+00 +1.4999999981902701e+00 -3.0345631239892239e-02 -5.6466021590999194e-01 +5.6275456674667376e-03
1.6000000000000001e+00 +8.1529273967571498e+00 +0.0000000000000000e+00 +1.5999999978036501e+00 -3.0345575341610864e-02 -5.6466013666587611e-01 +5.6275375096002320e-03
1.7000000000000000e+00 +8.1529180377474404e+00 +0.0000000000000000e+00 +1.6999999973655600e+00 -3.0345527296321253e-02 -5.6466007478203906e-01 +5.6275299452208764e-03
1.8000000000000000e+00 +8.1529081115222706e+00 +0.0000000000000000e+00 +1.7999999968727800e+00 -3.0345488416345569e-02 -5.6466003111942165e-01 +5.6275232122128746e-03
1.8999999999999999e+00 +8.1528976180852606e+00 +0.0000000000000000e+00 +1.8999999963220899e+00 -3.0345460014005680e-02 -5.6466000653891235e-01 +5.6275175484605307e-03
2.0000000000000000e+00 +8.1528865574327902e+00 +0.0000000000000000e+00 +1.9999999957102601e+00 -3.0345443401628775e-02 -5.6466000190146026e-01 +5.6275131918493747e-03
2.1000000000000001e+00 +8.1528749295721408e+00 +0.0000000000000000e+00 +2.0999999950340902e+00 -3.0345439550047128e-02 -5.6466001764744611e-01 +5.6275103616383639e-03
2.2000000000000002e+00 +8.1528627344960096e+00 +0.0000000000000000e+00 +2.1999999942903599e+00 -3.0345448064127062e-02 -5.6466005253541818e-01 +5.6275092025825924e-03
2.2999999999999998e+00 +8.1528499722080596e+00 +0.0000000000000000e+00 +2.2999999934758399e+00 -3.0345468207229626e-02 -5.6466010490335394e-01 +5.6275098408099106e-03
2.3999999999999999e+00 +8.1528366427046404e+00 +0.0000000000000000e+00 +2.3999999925873299e+00 -3.0345499242708473e-02 -5.6466017308929006e-01 +5.6275124024485887e-03
2.5000000000000000e+00 +8.1528227459894005e+00 +0.0000000000000000e+00 +2.4999999916215998e+00 -3.0345540433902397e-02 -5.6466025543120957e-01 +5.6275170136260719e-03
2.6000000000000001e+00 +8.1528082820659602e+00 +0.0000000000000000e+00 +2.5999999905754398e+00 -3.0345591044137015e-02 -5.6466035026709815e-01 +5.6275238004694908e-03
2.7000000000000002e+00 +8.1527932509234198e+00 +0.0000000000000000e+00 +2.6999999894456299e+00 -3.0345650336729150e-02 -5.6466045593505743e-01 +5.6275328891066956e-03
2.7999999999999998e+00 +8.1527776525726896e+00 +0.0000000000000000e+00 +2.7999999882289601e+00 -3.0345717574970527e-02 -5.6466057077302356e-01 +5.6275444056633050e-03
2.8999999999999999e+00 +8.1527614870065008e+00 +0.0000000000000000e+00 +2.8999999869222002e+00 -3.0345792022142753e-02 -5.6466069311907741e-01 +5.6275584762657833e-03
3.0000000000000000e+00 +8.1527447542284808e+00 +0.0000000000000000e+00 +2.9999999855221300e+00 -3.0345872941503964e-02 -5.6466082131121953e-01 +5.6275752270390500e-03
3.1000000000000001e+00 +8.1527274542386294e+00 +0.0000000000000000e+00 +3.0999999840255499e+00 -3.0345959596293302e-02 -5.6466095368748181e-01 +5.6275947841075433e-03
3.2000000000000002e+00 +8.1527095870333106e+00 +0.0000000000000000e+00 +3.1999999824292300e+00 -3.0346051249729476e-02 -5.6466108858592989e-01 +5.6276172735951254e-03
3.2999999999999998e+00 +8.1526911526198091e+00 +0.0000000000000000e+00 +3.2999999807299600e+00 -3.0346147165003383e-02 -5.6466122434454924e-01 +5.6276428216238562e-03
3.3999999999999999e+00 +8.1526721509872004e+00 +0.0000000000000000e+00 +3.3999999789245101e+00 -3.0346246605288618e-02 -5.6466135930147165e-01 +5.6276715543161944e-03
3.5000000000000000e+00 +8.1526525821464002e+00 +0.0000000000000000e+00 +3.4999999770096801e+00 -3.0346348833723568e-02 -5.6466149179466418e-01 +5.6277035977917514e-03
3.6000000000000001e+00 +8.1526324460901396e+00 +0.0000000000000000e+00 +3.5999999749822500e+00 -3.0346453113426420e-02 -5.6466162016224108e-01 +5.6277390781703665e-03
3.7000000000000002e+00 +8.1526117428220495e+00 +0.0000000000000000e+00 +3.6999999728389801e+00 -3.0346558707481788e-02 -5.6466174274223757e-01 +5.6277781215697178e-03
3.7999999999999998e+00 +8.1525904723421299e+00 +0.0000000000000000e+00 +3.7999999705766800e+00 -3.0346664878945235e-02 -5.6466185787272349e-01 +5.6278208541063850e-03
3.8999999999999999e+00 +8.1525686346503807e+00 +0.0000000000000000e+00 +3.8999999681921298e+00 -3.0346770890840327e-02 -5.6466196389177448e-01 +5.6278674018954734e-03
4.0000000000000000e+00 +8.1525462297431694e+00 +0.0000000000000000e+00 +3.9999999656820902e+00 -3.0346876006158697e-02 -5.6466205913750089e-01 +5.6279178910508118e-03
4.0999999999999996e+00 +8.1525232576241304e+00 +0.0000000000000000e+00 +4.0999999630433699e+00 -3.0346979593970726e-02 -5.6466214238895440e-01 +5.6279723693686079e-03
4.2000000000000002e+00 +8.1524997182896204e+00 +0.0000000000000000e+00 +4.1999999602727298e+00 -3.0347081447796700e-02 -5.6466221418921025e-01 +5.6280305713825290e-03
4.2999999999999998e+00 +8.1524756117469206e+00 +0.0000000000000000e+00 +4.2999999573669703e+00 -3.0347181467278151e-02 -5.6466227552225812e-01 +5.6280921533094818e-03
4.4000000000000004e+00 +8.1524509379887604e+00 +0.0000000000000000e+00 +4.3999999543228601e+00 -3.0347279552076875e-02 -5.6466232737220556e-01 +5.6281567713673038e-03
4.5000000000000000e+00 +8.1524256970187707e+00 +0.0000000000000000e+00 +4.4999999511372000e+00 -3.0347375601866150e-02 -5.6466237072308301e-01 +5.6282240817727607e-03
4.5999999999999996e+00 +8.1523998888369498e+00 +0.0000000000000000e+00 +4.5999999478067499e+00 -3.0347469516338172e-02 -5.6466240655895672e-01 +5.6282937407427088e-03
4.7000000000000002e+00 +8.1523735134396702e+00 +0.0000000000000000e+00 +4.6999999443283098e+00 -3.0347561195205614e-02 -5.6466243586392784e-01 +5.6283654044940960e-03
4.7999999999999998e+00 +8.1523465708305594e+00 +0.0000000000000000e+00 +4.7999999406986600e+00 -3.0347650538198677e-02 -5.6466245962204875e-01 +5.6284387292431064e-03
4.9000000000000004e+00 +8.1523190610096208e+00 +0.0000000000000000e+00 +4.8999999369145701e+00 -3.0347737445071077e-02 -5.6466247881740828e-01 +5.6285133712060276e-03
5.0000000000000000e+00 +8.1522909839768491e+00 +0.0000000000000000e+00 +4.9999999329728402e+00 -3.0347821815600185e-02 -5.6466249443410232e-01 +5.6285889865989773e-03
5.0999999999999996e+00 +8.1522623397286207e+00 +0.0000000000000000e+00 +5.0999999288702398e+00 -3.0347903549589897e-02 -5.6466250745626356e-01 +5.6286652316381884e-03
5.2000000000000002e+00 +8.1522331282685592e+00 +0.0000000000000000e+00 +5.1999999246035600e+00 -3.0347982546867873e-02 -5.6466251886797647e-01 +5.6287417625391582e-03
5.2999999999999998e+00 +8.1522033495966806e+00 +0.0000000000000000e+00 +5.2999999201695802e+00 -3.0348058707291400e-02 -5.6466252965336305e-01 +5.6288182355175185e-03
5.4000000000000004e+00 +8.1521730037093203e+00 +0.0000000000000000e+00 +5.3999999155650800e+00 -3.0348131930749030e-02 -5.6466254079658085e-01 +5.6288943067890444e-03
5.5000000000000000e+00 +8.1521420906137791e+00 +0.0000000000000000e+00 +5.4999999107868396e+00 -3.0348202117156109e-02 -5.6466255328171300e-01 +5.6289696325684995e-03
5.5999999999999996e+00 +8.1521106102991308e+00 +0.0000000000000000e+00 +5.5999999058316599e+00 -3.0348269166468215e-02 -5.6466256809299209e-01 +5.6290438690719613e-03
5.7000000000000002e+00 +8.1520785627762997e+00 +0.0000000000000000e+00 +5.6999999006963096e+00 -3.0348332978666383e-02 -5.6466258621449172e-01 +5.6291166725136480e-03
5.7999999999999998e+00 +8.1520459480379905e+00 +0.0000000000000000e+00 +5.7999998953775700e+00 -3.0348393453774932e-02 -5.6466260863043471e-01 +5.6291876991091021e-03
5.9000000000000004e+00 +8.1520127660915005e+00 +0.0000000000000000e+00 +5.8999998898722197e+00 -3.0348450491849664e-02 -5.6466263632494196e-01 +5.6292566050725936e-03
5.9999999999999902e+00 +8.1519790169259103e+00 +0.0000000000000000e+00 +5.9999998841770603e+00 -3.0348503992992822e-02 -5.6466267028228523e-01 +5.6293230466197405e-03
6.0999999999999899e+00 +8.1519447005521197e+00 +0.0000000000000000e+00 +6.0999998782888598e+00 -3.0348553890141811e-02 -5.6466271134743296e-01 +5.6293867718242930e-03
6.1999999999999904e+00 +8.1519098169665103e+00 +0.0000000000000000e+00 +6.1999998722044003e+00 -3.0348600247481282e-02 -5.6466275980889724e-01 +5.6294478962024760e-03
6.2999999999999901e+00 +8.1518743661654298e+00 +0.0000000000000000e+00 +6.2999998659204701e+00 -3.0348643161998947e-02 -5.6466281581605249e-01 +5.6295066271317626e-03
6.3999999999999897e+00 +8.1518383481488907e+00 +0.0000000000000000e+00 +6.3999998594338496e+00 -3.0348682730675935e-02 -5.6466287951825000e-01 +5.6295631719900686e-03
6.4999999999999902e+00 +8.1518017629241495e+00 +0.0000000000000000e+00 +6.4999998527413201e+00 -3.0348719050484994e-02 -5.6466295106479225e-01 +5.6296177381555150e-03
6.5999999999999899e+00 +8.1517646104839496e+00 +0.0000000000000000e+00 +6.5999998458396698e+00 -3.0348752218398931e-02 -5.6466303060510059e-01 +5.6296705330081877e-03
6.6999999999999904e+00 +8.1517268908319203e+00 +0.0000000000000000e+00 +6.6999998387256703e+00 -3.0348782331379831e-02 -5.6466311828851812e-01 +5.6297217639281610e-03
6.7999999999999901e+00 +8.1516886039680703e+00 +0.0000000000000000e+00 +6.7999998313961196e+00 -3.0348809486384649e-02 -5.6466321426442334e-01 +5.6297716382966920e-03
6.8999999999999897e+00 +8.1516497498923908e+00 +0.0000000000000000e+00 +6.8999998238477902e+00 -3.0348833780363290e-02 -5.6466331868220065e-01 +5.6298203634959649e-03
6.9999999999999902e+00 +8.1516103286012402e+00 +0.0000000000000000e+00 +6.9999998160774597e+00 -3.0348855310259677e-02 -5.6466343169126987e-01 +5.6298681469094201e-03
7.0999999999999899e+00 +8.1515703400982602e+00 +0.0000000000000000e+00 +7.0999998080819298e+00 -3.0348874173006926e-02 -5.6466355344100017e-01 +5.6299151959209297e-03
7.1999999999999904e+00 +8.1515297843834595e+00 +0.0000000000000000e+00 +7.1999997998579603e+00 -3.0348890465531408e-02 -5.6466368408079670e-01 +5.6299617179156906e-03
7.2999999999999901e+00 +8.1514886614531896e+00 +0.0000000000000000e+00 +7.2999997914023496e+00 -3.0348904284752343e-02 -5.6466382376009872e-01 +5.6300079202802871e-03
7.3999999999999897e+00 +8.1514469713147300e+00 +0.0000000000000000e+00 +7.3999997827118804e+00 -3.0348915727575421e-02 -5.6466397262826817e-01 +5.6300540104015449e-03
7.4999999999999902e+00 +8.1514047139571595e+00 +0.0000000000000000e+00 +7.4999997737833199e+00 -3.0348924890904377e-02 -5.6466413083481459e-01 +5.6301001956688959e-03
7.5999999999999899e+00 +8.1513618893914099e+00 +0.0000000000000000e+00 +7.5999997646134698e+00 -3.0348931871624144e-02 -5.6466429852908440e-01 +5.6301466834712405e-03
7.6999999999999904e+00 +8.1513184976138309e+00 +0.0000000000000000e+00 +7.6999997551991104e+00 -3.0348936766615386e-02 -5.6466447586054469e-01 +5.6301936811998677e-03
7.7999999999999901e+00 +8.1512745386207808e+00 +0.0000000000000000e+00 +7.7999997455370096e+00 -3.0348939672748126e-02 -5.6466466297866913e-01 +5.6302413962473477e-03
7.8999999999999897e+00 +8.1512300124159101e+00 +0.0000000000000000e+00 +7.8999997356239602e+00 -3.0348940686878365e-02 -5.6466486003288152e-01 +5.6302900360069739e-03
7.9999999999999902e+00 +8.1511849189955701e+00 +0.0000000000000000e+00 +7.9999997254567399e+00 -3.0348939905853627e-02 -5.6466506717266907e-01 +5.6303398078739793e-03
8.0999999999999908e+00 +8.1511392583670403e+00 +0.0000000000000000e+00 +8.0999997150321406e+00 -3.0348937395392711e-02 -5.6466528442809971e-01 +5.6303908935403692e-03
8.1999999999999904e+00 +8.1510930305230396e+00 +0.0000000000000000e+00 +8.1999997043469399e+00 -3.0348933096757385e-02 -5.6466551135198084e-01 +5.6304433718836200e-03
8.2999999999999901e+00 +8.1510462354672200e+00 +0.0000000000000000e+00 +8.2999996933979094e+00 -3.0348926920079334e-02 -5.6466574737767361e-01 +5.6304972960740506e-03
8.3999999999999897e+00 +8.1509988731995708e+00 +0.0000000000000000e+00 +8.3999996821818605e+00 -3.0348918775478708e-02 -5.6466599193854761e-01 +5.6305527192797734e-03
8.4999999999999893e+00 +8.1509509437164507e+00 +0.0000000000000000e+00 +8.4999996706955496e+00 -3.0348908573063726e-02 -5.6466624446797942e-01 +5.6306096946665959e-03
8.5999999999999908e+00 +8.1509024470215099e+00 +0.0000000000000000e+00 +8.5999996589357703e+00 -3.0348896222925848e-02 -5.6466650439926791e-01 +5.6306682753970863e-03
8.6999999999999904e+00 +8.1508533831147396e+00 +0.0000000000000000e+00 +8.6999996468993004e+00 -3.0348881635143810e-02 -5.6466677116571762e-01 +5.6307285146313547e-03
8.7999999999999794e+00 +8.1508037519961398e+00 +0.0000000000000000e+00 +8.7999996345829192e+00 -3.0348864719781720e-02 -5.6466704420060876e-01 +5.6307904655266798e-03
8.8999999999999808e+00 +8.1507535536620708e+00 +0.0000000000000000e+00 +8.8999996219834205e+00 -3.0348845386890286e-02 -5.6466732293722754e-01 +5.6308541812377239e-03
8.9999999999999805e+00 +8.1507027881161793e+00 +0.0000000000000000e+00 +8.9999996090975891e+00 -3.0348823546501799e-02 -5.6466760680877714e-01 +5.6309197149155823e-03
9.0999999999999801e+00 +8.1506514553584601e+00 +0.0000000000000000e+00 +9.0999995959221902e+00 -3.0348799108634365e-02 -5.6466789524846461e-01 +5.6309871197085665e-03
9.1999999999999797e+00 +8.1505995553889097e+00 +0.0000000000000000e+00 +9.1999995824540193e+00 -3.0348771983289901e-02 -5.6466818768947080e-01 +5.6310564487618408e-03
9.2999999999999794e+00 +8.1505470882038900e+00 +0.0000000000000000e+00 +9.2999995686898593e+00 -3.0348742080455352e-02 -5.6466848356497712e-01 +5.6311277552176268e-03
9.3999999999999808e+00 +8.1504940538070496e+00 +0.0000000000000000e+00 +9.3999995546264898e+00 -3.0348709310097758e-02 -5.6466878230808082e-01 +5.6312010922142499e-03
9.4999999999999805e+00 +8.1504404521983798e+00 +0.0000000000000000e+00 +9.4999995402606903e+00 -3.0348673582168348e-02 -5.6466908335187893e-01 +5.6312765128869371e-03
9.5999999999999801e+00 +8.1503862833778804e+00 +0.0000000000000000e+00 +9.5999995255892507e+00 -3.0348634806600761e-02 -5.6466938612943995e-01 +5.6313540703674392e-03
9.6999999999999797e+00 +8.1503315473419207e+00 +0.0000000000000000e+00 +9.6999995106089507e+00 -3.0348592893312008e-02 -5.6466969007382872e-01 +5.6314338177842370e-03
9.7999999999999794e+00 +8.1502762440941297e+00 +0.0000000000000000e+00 +9.7999994953165697e+00 -3.0348547752197714e-02 -5.6466999461802447e-01 +5.6315158082615993e-03
9.8999999999999808e+00 +8.1502203736345091e+00 +0.0000000000000000e+00 +9.8999994797088906e+00 -3.0348499293136200e-02 -5.6467029919500245e-01 +5.6316000949203629e-03
9.9999999999999805e+00 +8.1501639359594300e+00 +0.0000000000000000e+00 +9.9999994637827001e+00 -3.0348447425988079e-02 -5.6467060323773322e-01 +5.6316867308778551e-03
1.0100000000000000e+01 +8.1501069310761505e+00 +0.0000000000000000e+00 +1.0099999447534801e+01 -3.0348392161483273e-02 -5.6467090634638217e-01 +5.6317757081577931e-03
1.0199999999999999e+01 +8.1500493589774106e+00 +0.0000000000000000e+00 +1.0199999430961901e+01 -3.0348333913936387e-02 -5.6467120879044497e-01 +5.6318667744246226e-03
1.0300000000000001e+01 +8.1499912196668394e+00 +0.0000000000000000e+00 +1.0299999414060901e+01 -3.0348273198586101e-02 -5.6467151100661306e-01 +5.6319596162552272e-03
1.0400000000000000e+01 +8.1499325131444493e+00 +0.0000000000000000e+00 +1.0399999396828500e+01 -3.0348210530710195e-02 -5.6467181343156747e-01 +5.6320539202317429e-03
1.0500000000000000e+01 +8.1498732394065900e+00 +0.0000000000000000e+00 +1.0499999379261400e+01 -3.0348146425626520e-02 -5.6467211650197846e-01 +5.6321493729417117e-03
1.0600000000000000e+01 +8.1498133984568994e+00 +0.0000000000000000e+00 +1.0599999361356600e+01 -3.0348081398689507e-02 -5.6467242065441980e-01 +5.6322456609773580e-03
1.0699999999999999e+01 +8.1497529902953794e+00 +0.0000000000000000e+00 +1.0699999343110701e+01 -3.0348015965295603e-02 -5.6467272632545318e-01 +5.6323424709365825e-03
1.0800000000000001e+01 +8.1496920149220404e+00 +0.0000000000000000e+00 +1.0799999324520600e+01 -3.0347950640882793e-02 -5.6467303395159774e-01 +5.6324394894228247e-03
1.0900000000000000e+01 +8.1496304723332305e+00 +0.0000000000000000e+00 +1.0899999305583000e+01 -3.0347885940933093e-02 -5.6467334396935964e-01 +5.6325364030454812e-03
1.1000000000000000e+01 +8.1495683625325892e+00 +0.0000000000000000e+00 +1.0999999286294800e+01 -3.0347822380968989e-02 -5.6467365681514459e-01 +5.6326328984191813e-03
1.1100000000000000e+01 +8.1495056855201309e+00 +0.0000000000000000e+00 +1.1099999266652601e+01 -3.0347760476558971e-02 -5.6467397292534316e-01 +5.6327286621648031e-03
1.1199999999999999e+01 +8.1494424412958306e+00 +0.0000000000000000e+00 +1.1199999246653300e+01 -3.0347700743316962e-02 -5.6467429273630021e-01 +5.6328233809093140e-03
1.1300000000000001e+01 +8.1493786298560700e+00 +0.0000000000000000e+00 +1.1299999226293700e+01 -3.0347643696904830e-02 -5.6467461668434382e-01 +5.6329167412862025e-03
1.1400000000000000e+01 +8.1493142512044905e+00 +0.0000000000000000e+00 +1.1399999205570500e+01 -3.0347589853028822e-02 -5.6467494520569828e-01 +5.6330084299347476e-03
1.1500000000000000e+01 +8.1492493053447106e+00 +0.0000000000000000e+00 +1.1499999184480499e+01 -3.0347539727443650e-02 -5.6467527873654177e-01 +5.6330981335007482e-03
1.1600000000000000e+01 +8.1491837922658306e+00 +0.0000000000000000e+00 +1.1599999163020600e+01 -3.0347493835959319e-02 -5.6467561771311614e-01 +5.6331855386378181e-03
1.1699999999999999e+01 +8.1491177119787608e+00 +0.0000000000000000e+00 +1.1699999141187400e+01 -3.0347452694427228e-02 -5.6467596257144492e-01 +5.6332703320046166e-03
1.1800000000000001e+01 +8.1490510644762306e+00 +0.0000000000000000e+00 +1.1799999118977800e+01 -3.0347416818757536e-02 -5.6467631374764360e-01 +5.6333522002681999e-03
