# trajectory
# s[mm] rx[mm] ry[mm] rz[mm] px[rad] py[rad] pz[rad]
0.0000000000000000e+00 +8.1649999999999991e+00 +0.0000000000000000e+00 +0.0000000000000000e+00 +0.0000000000000000e+00 +0.0000000000000000e+00 +1.0000000000000000e+00
-1.0000000000000001e-01 +8.1649997169863511e+00 +0.0000000000000000e+00 -9.9999999999466030e-02 +5.6602730044817362e-06 +0.0000000000000000e+00 +9.9999999998398070e-01
-2.0000000000000001e-01 +8.1649988679453891e+00 +0.0000000000000000e+00 -1.9999999999572821e-01 +1.1320546305185112e-05 +0.0000000000000000e+00 +9.9999999993592270e-01
-3.0000000000000004e-01 +8.1649974528770777e+00 +0.0000000000000000e+00 -2.9999999998558263e-01 +1.6980819985121819e-05 +0.0000000000000000e+00 +9.9999999985582599e-01
-4.0000000000000002e-01 +8.1649954717813760e+00 +0.0000000000000000e+00 -3.9999999996582547e-01 +2.2641094126761760e-05 +0.0000000000000000e+00 +9.9999999974369058e-01
-5.0000000000000000e-01 +8.1649929246582342e+00 +0.0000000000000000e+00 -4.9999999993325284e-01 +2.8301368812033023e-05 +0.0000000000000000e+00 +9.9999999959951646e-01
-5.9999999999999998e-01 +8.1649898115075938e+00 +0.0000000000000000e+00 -5.9999999988466080e-01 +3.3961644122321848e-05 +0.0000000000000000e+00 +9.9999999942330353e-01
-6.9999999999999996e-01 +8.1649861323293873e+00 +0.0000000000000000e+00 -6.9999999981684558e-01 +3.9621920138472562e-05 +0.0000000000000000e+00 +9.9999999921505189e-01
-7.9999999999999993e-01 +8.1649818871235400e+00 +0.0000000000000000e+00 -7.9999999972660318e-01 +4.5282196940787542e-05 +0.0000000000000000e+00 +9.9999999897476144e-01
-8.9999999999999991e-01 +8.1649770758899702e+00 +0.0000000000000000e+00 -8.9999999961072985e-01 +5.0942474609027122e-05 +0.0000000000000000e+00 +9.9999999870243228e-01
-9.9999999999999989e-01 +8.1649716986285874e+00 +0.0000000000000000e+00 -9.9999999946602169e-01 +5.6602753222409531e-05 +0.0000000000000000e+00 +9.9999999839806430e-01
-1.0999999999999999e+00 +8.1649657553392920e+00 +0.0000000000000000e+00 -1.0999999992892748e+00 +6.2263032859610808e-05 +0.0000000000000000e+00 +9.9999999806165751e-01
-1.2000000000000000e+00 +8.1649592460219793e+00 +0.0000000000000000e+00 -1.1999999990772854e+00 +6.7923313598764680e-05 +0.0000000000000000e+00 +9.9999999769321191e-01
-1.3000000000000000e+00 +8.1649521706765338e+00 +0.0000000000000000e+00 -1.2999999988268494e+00 +7.3583595517462481e-05 +0.0000000000000000e+00 +9.9999999729272737e-01
-1.4000000000000001e+00 +8.1649445293028347e+00 +0.0000000000000000e+00 -1.3999999985347629e+00 +7.9243878692752999e-05 +0.0000000000000000e+00 +9.9999999686020402e-01
-1.5000000000000002e+00 +8.1649363219007522e+00 +0.0000000000000000e+00 -1.4999999981978220e+00 +8.4904163201142391e-05 +0.0000000000000000e+00 +9.9999999639564174e-01
-1.6000000000000003e+00 +8.1649275484701480e+00 +0.0000000000000000e+00 -1.5999999978128232e+00 +9.0564449118593995e-05 +0.0000000000000000e+00 +9.9999999589904054e-01
-1.7000000000000004e+00 +8.1649182090108781e+00 +0.0000000000000000e+00 -1.6999999973765623e+00 +9.6224736520528206e-05 +0.0000000000000000e+00 +9.9999999537040030e-01
-1.8000000000000005e+00 +8.1649083035227914e+00 +0.0000000000000000e+00 -1.7999999968858353e+00 +1.0188502548182232e-04 +0.0000000000000000e+00 +9.9999999480972102e-01
-1.9000000000000006e+00 +8.1648978320057282e+00 +0.0000000000000000e+00 -1.8999999963374385e+00 +1.0754531607681034e-04 +0.0000000000000000e+00 +9.9999999421700270e-01
-2.0000000000000004e+00 +8.1648867944595196e+00 +0.0000000000000000e+00 -1.9999999957281680e+00 +1.1320560837928282e-04 +0.0000000000000000e+00 +9.9999999359224534e-01
-2.1000000000000005e+00 +8.1648751908839934e+00 +0.0000000000000000e+00 -2.0999999950548198e+00 +1.1886590246247063e-04 +0.0000000000000000e+00 +9.9999999293544883e-01
-2.2000000000000006e+00 +8.1648630212789666e+00 +0.0000000000000000e+00 -2.1999999943141901e+00 +1.2452619839886832e-04 +0.0000000000000000e+00 +9.9999999224661318e-01
-2.3000000000000007e+00 +8.1648502856442491e+00 +0.0000000000000000e+00 -2.2999999935030746e+00 +1.3018649626005767e-04 +0.0000000000000000e+00 +9.9999999152573826e-01
-2.4000000000000008e+00 +8.1648369839796473e+00 +0.0000000000000000e+00 -2.3999999926182696e+00 +1.3584679611669176e-04 +0.0000000000000000e+00 +9.9999999077282420e-01
-2.5000000000000009e+00 +8.1648231162849569e+00 +0.0000000000000000e+00 -2.4999999916565714e+00 +1.4150709803849515e-04 +0.0000000000000000e+00 +9.9999998998787076e-01
-2.6000000000000010e+00 +8.1648086825599684e+00 +0.0000000000000000e+00 -2.5999999906147759e+00 +1.4716740209426402e-04 +0.0000000000000000e+00 +9.9999998917087807e-01
-2.7000000000000011e+00 +8.1647936828044649e+00 +0.0000000000000000e+00 -2.6999999894896791e+00 +1.5282770835186641e-04 +0.0000000000000000e+00 +9.9999998832184600e-01
-2.8000000000000012e+00 +8.1647781170182228e+00 +0.0000000000000000e+00 -2.7999999882780773e+00 +1.5848801687824249e-04 +0.0000000000000000e+00 +9.9999998744077445e-01
-2.9000000000000012e+00 +8.1647619852010109e+00 +0.0000000000000000e+00 -2.8999999869767663e+00 +1.6414832773940471e-04 +0.0000000000000000e+00 +9.9999998652766342e-01
-3.0000000000000013e+00 +8.1647452873525950e+00 +0.0000000000000000e+00 -2.9999999855825421e+00 +1.6980864100043816e-04 +0.0000000000000000e+00 +9.9999998558251291e-01
-3.1000000000000014e+00 +8.1647280234727297e+00 +0.0000000000000000e+00 -3.0999999840922010e+00 +1.7546895672550095e-04 +0.0000000000000000e+00 +9.9999998460532280e-01
-3.2000000000000015e+00 +8.1647101935611666e+00 +0.0000000000000000e+00 -3.1999999825025389e+00 +1.8112927497782440e-04 +0.0000000000000000e+00 +9.9999998359609299e-01
-3.3000000000000016e+00 +8.1646917976176479e+00 +0.0000000000000000e+00 -3.2999999808103517e+00 +1.8678959581971350e-04 +0.0000000000000000e+00 +9.9999998255482359e-01
-3.4000000000000017e+00 +8.1646728356419143e+00 +0.0000000000000000e+00 -3.3999999790124358e+00 +1.9244991931254734e-04 +0.0000000000000000e+00 +9.9999998148151437e-01
-3.5000000000000018e+00 +8.1646533076336958e+00 +0.0000000000000000e+00 -3.4999999771055870e+00 +1.9811024551677942e-04 +0.0000000000000000e+00 +9.9999998037616533e-01
-3.6000000000000019e+00 +8.1646332135927189e+00 +0.0000000000000000e+00 -3.5999999750866012e+00 +2.0377057449193816e-04 +0.0000000000000000e+00 +9.9999997923877648e-01
-3.7000000000000020e+00 +8.1646125535187029e+00 +0.0000000000000000e+00 -3.6999999729522743e+00 +2.0943090629662740e-04 +0.0000000000000000e+00 +9.9999997806934771e-01
-3.8000000000000020e+00 +8.1645913274113635e+00 +0.0000000000000000e+00 -3.7999999706994028e+00 +2.1509124098852684e-04 +0.0000000000000000e+00 +9.9999997686787900e-01
-3.9000000000000021e+00 +8.1645695352704077e+00 +0.0000000000000000e+00 -3.8999999683247824e+00 +2.2075157862439264e-04 +0.0000000000000000e+00 +9.9999997563437026e-01
-4.0000000000000018e+00 +8.1645471770955389e+00 +0.0000000000000000e+00 -3.9999999658252090e+00 +2.2641191926005784e-04 +0.0000000000000000e+00 +9.9999997436882138e-01
-4.1000000000000014e+00 +8.1645242528864532e+00 +0.0000000000000000e+00 -4.0999999631974786e+00 +2.3207226295063281e-04 +0.0000000000000000e+00 +9.9999997307123234e-01
-4.2000000000000011e+00 +8.1645007626428434e+00 +0.0000000000000000e+00 -4.1999999604383875e+00 +2.3773260975270226e-04 +0.0000000000000000e+00 +9.9999997174160304e-01
-4.3000000000000007e+00 +8.1644767063643968e+00 +0.0000000000000000e+00 -4.2999999575447312e+00 +2.4339295972652201e-04 +0.0000000000000000e+00 +9.9999997037993349e-01
-4.4000000000000004e+00 +8.1644520840507901e+00 +0.0000000000000000e+00 -4.3999999545133059e+00 +2.4905331293621866e-04 +0.0000000000000000e+00 +9.9999996898622356e-01
-4.5000000000000000e+00 +8.1644268957016983e+00 +0.0000000000000000e+00 -4.4999999513409081e+00 +2.5471366944978928e-04 +0.0000000000000000e+00 +9.9999996756047316e-01
-4.5999999999999996e+00 +8.1644011413167874e+00 +0.0000000000000000e+00 -4.5999999480243332e+00 +2.6037402933910136e-04 +0.0000000000000000e+00 +9.9999996610268227e-01
-4.6999999999999993e+00 +8.1643748208957163e+00 +0.0000000000000000e+00 -4.6999999445603766e+00 +2.6603439267989263e-04 +0.0000000000000000e+00 +9.9999996461285079e-01
-4.7999999999999989e+00 +8.1643479344381351e+00 +0.0000000000000000e+00 -4.7999999409458347e+00 +2.7169475955177082e-04 +0.0000000000000000e+00 +9.9999996309097861e-01
-4.8999999999999986e+00 +8.1643204819436868e+00 +0.0000000000000000e+00 -4.8999999371775038e+00 +2.7735513003821345e-04 +0.0000000000000000e+00 +9.9999996153706561e-01
-4.9999999999999982e+00 +8.1642924634120053e+00 +0.0000000000000000e+00 -4.9999999332521794e+00 +2.8301550422656758e-04 +0.0000000000000000e+00 +9.9999995995111179e-01
-5.0999999999999979e+00 +8.1642638788427160e+00 +0.0000000000000000e+00 -5.0999999291666578e+00 +2.8867588220804952e-04 +0.0000000000000000e+00 +9.9999995833311706e-01
-5.1999999999999975e+00 +8.1642347282354351e+00 +0.0000000000000000e+00 -5.1999999249177344e+00 +2.9433626407774467e-04 +0.0000000000000000e+00 +9.9999995668308128e-01
-5.2999999999999972e+00 +8.1642050115897682e+00 +0.0000000000000000e+00 -5.2999999205022057e+00 +2.9999664993460713e-04 +0.0000000000000000e+00 +9.9999995500100436e-01
-5.3999999999999968e+00 +8.1641747289053122e+00 +0.0000000000000000e+00 -5.3999999159168670e+00 +3.0565703988145939e-04 +0.0000000000000000e+00 +9.9999995328688629e-01
-5.4999999999999964e+00 +8.1641438801816530e+00 +0.0000000000000000e+00 -5.4999999111585147e+00 +3.1131743402499197e-04 +0.0000000000000000e+00 +9.9999995154072685e-01
-5.5999999999999961e+00 +8.1641124654183646e+00 +0.0000000000000000e+00 -5.5999999062239443e+00 +3.1697783247576321e-04 +0.0000000000000000e+00 +9.9999994976252604e-01
-5.6999999999999957e+00 +8.1640804846150115e+00 +0.0000000000000000e+00 -5.6999999011099520e+00 +3.2263823534819881e-04 +0.0000000000000000e+00 +9.9999994795228364e-01
-5.7999999999999954e+00 +8.1640479377711443e+00 +0.0000000000000000e+00 -5.7999998958133334e+00 +3.2829864276059131e-04 +0.0000000000000000e+00 +9.9999994610999954e-01
-5.8999999999999950e+00 +8.1640148248863031e+00 +0.0000000000000000e+00 -5.8999998903308839e+00 +3.3395905483509999e-04 +0.0000000000000000e+00 +9.9999994423567373e-01
-5.9999999999999947e+00 +8.1639811459600171e+00 +0.0000000000000000e+00 -5.9999998846593998e+00 +3.3961947169775013e-04 +0.0000000000000000e+00 +9.9999994232930600e-01
-6.0999999999999943e+00 +8.1639469009917995e+00 +0.0000000000000000e+00 -6.0999998787956766e+00 +3.4527989347773932e-04 +0.0000000000000000e+00 +9.9999994039089624e-01
-6.1999999999999940e+00 +8.1639120899811530e+00 +0.0000000000000000e+00 -6.1999998727365107e+00 +3.5094032029980838e-04 +0.0000000000000000e+00 +9.9999993842044432e-01
-6.2999999999999936e+00 +8.1638767129275678e+00 +0.0000000000000000e+00 -6.2999998664786974e+00 +3.5660075227661285e-04 +0.0000000000000000e+00 +9.9999993641795015e-01
-6.3999999999999932e+00 +8.1638407698305233e+00 +0.0000000000000000e+00 -6.3999998600190322e+00 +3.6226118950802956e-04 +0.0000000000000000e+00 +9.9999993438341361e-01
-6.4999999999999929e+00 +8.1638042606894885e+00 +0.0000000000000000e+00 -6.4999998533543115e+00 +3.6792163208115662e-04 +0.0000000000000000e+00 +9.9999993231683448e-01
-6.5999999999999925e+00 +8.1637671855039269e+00 +0.0000000000000000e+00 -6.5999998464813308e+00 +3.7358208007031362e-04 +0.0000000000000000e+00 +9.9999993021821276e-01
-6.6999999999999922e+00 +8.1637295442732931e+00 +0.0000000000000000e+00 -6.6999998393968863e+00 +3.7924253353704160e-04 +0.0000000000000000e+00 +9.9999992808754823e-01
-6.7999999999999918e+00 +8.1636913369970365e+00 +0.0000000000000000e+00 -6.7999998320977726e+00 +3.8490299253010325e-04 +0.0000000000000000e+00 +9.9999992592484088e-01
-6.8999999999999915e+00 +8.1636525636746029e+00 +0.0000000000000000e+00 -6.8999998245807861e+00 +3.9056345708548309e-04 +0.0000000000000000e+00 +9.9999992373009050e-01
-6.9999999999999911e+00 +8.1636132243054345e+00 +0.0000000000000000e+00 -6.9999998168427222e+00 +3.9622392722638732e-04 +0.0000000000000000e+00 +9.9999992150329708e-01
-7.0999999999999908e+00 +8.1635733188889716e+00 +0.0000000000000000e+00 -7.0999998088803773e+00 +4.0188440296324418e-04 +0.0000000000000000e+00 +9.9999991924446052e-01
-7.1999999999999904e+00 +8.1635328474246549e+00 +0.0000000000000000e+00 -7.1999998006905468e+00 +4.0754488429370388e-04 +0.0000000000000000e+00 +9.9999991695358070e-01
-7.2999999999999901e+00 +8.1634918099119265e+00 +0.0000000000000000e+00 -7.2999997922700262e+00 +4.1320537120263892e-04 +0.0000000000000000e+00 +9.9999991463065752e-01
-7.3999999999999897e+00 +8.1634502063502286e+00 +0.0000000000000000e+00 -7.3999997836156108e+00 +4.1886586366214401e-04 +0.0000000000000000e+00 +9.9999991227569085e-01
-7.4999999999999893e+00 +8.1634080367390087e+00 +0.0000000000000000e+00 -7.4999997747240963e+00 +4.2452636163153629e-04 +0.0000000000000000e+00 +9.9999990988868059e-01
-7.5999999999999890e+00 +8.1633653010777198e+00 +0.0000000000000000e+00 -7.5999997655922789e+00 +4.3018686505735555e-04 +0.0000000000000000e+00 +9.9999990746962675e-01
-7.6999999999999886e+00 +8.1633219993658184e+00 +0.0000000000000000e+00 -7.6999997562169540e+00 +4.3584737387336413e-04 +0.0000000000000000e+00 +9.9999990501852931e-01
-7.7999999999999883e+00 +8.1632781316027678e+00 +0.0000000000000000e+00 -7.7999997465949171e+00 +4.4150788800054733e-04 +0.0000000000000000e+00 +9.9999990253538817e-01
-7.8999999999999879e+00 +8.1632336977880442e+00 +0.0000000000000000e+00 -7.8999997367229637e+00 +4.4716840734711341e-04 +0.0000000000000000e+00 +9.9999990002020323e-01
-7.9999999999999876e+00 +8.1631886979211288e+00 +0.0000000000000000e+00 -7.9999997265978893e+00 +4.5282893180849365e-04 +0.0000000000000000e+00 +9.9999989747297446e-01
-8.0999999999999872e+00 +8.1631431320015153e+00 +0.0000000000000000e+00 -8.0999997162164910e+00 +4.5848946126826362e-04 +0.0000000000000000e+00 +9.9999989489370189e-01
-8.1999999999999869e+00 +8.1630970000287117e+00 +0.0000000000000000e+00 -8.1999997055755625e+00 +4.6414999560827368e-04 +0.0000000000000000e+00 +9.9999989228238539e-01
-8.2999999999999865e+00 +8.1630503020022349e+00 +0.0000000000000000e+00 -8.2999996946719001e+00 +4.6981053471877938e-04 +0.0000000000000000e+00 +9.9999988963902509e-01
-8.3999999999999861e+00 +8.1630030379216123e+00 +0.0000000000000000e+00 -8.3999996835022994e+00 +4.7547107849936271e-04 +0.0000000000000000e+00 +9.9999988696362085e-01
-8.4999999999999858e+00 +8.1629552077863821e+00 +0.0000000000000000e+00 -8.4999996720635558e+00 +4.8113162685893221e-04 +0.0000000000000000e+00 +9.9999988425617259e-01
-8.5999999999999854e+00 +8.1629068115960912e+00 +0.0000000000000000e+00 -8.5999996603524647e+00 +4.8679217971572309e-04 +0.0000000000000000e+00 +9.9999988151668029e-01
-8.6999999999999851e+00 +8.1628578493502921e+00 +0.0000000000000000e+00 -8.6999996483658233e+00 +4.9245273699729749e-04 +0.0000000000000000e+00 +9.9999987874514396e-01
-8.7999999999999847e+00 +8.1628083210485460e+00 +0.0000000000000000e+00 -8.7999996361004253e+00 +4.9811329864054437e-04 +0.0000000000000000e+00 +9.9999987594156359e-01
-8.8999999999999844e+00 +8.1627582266904195e+00 +0.0000000000000000e+00 -8.8999996235530681e+00 +5.0377386459168005e-04 +0.0000000000000000e+00 +9.9999987310593907e-01
-8.9999999999999840e+00 +8.1627075662754844e+00 +0.0000000000000000e+00 -8.9999996107205451e+00 +5.0943443480624799e-04 +0.0000000000000000e+00 +9.9999987023827031e-01
-9.0999999999999837e+00 +8.1626563398033163e+00 +0.0000000000000000e+00 -9.0999995975996537e+00 +5.1509500924911929e-04 +0.0000000000000000e+00 +9.9999986733855728e-01
-9.1999999999999833e+00 +8.1626045472734940e+00 +0.0000000000000000e+00 -9.1999995841871893e+00 +5.2075558789449266e-04 +0.0000000000000000e+00 +9.9999986440680000e-01
-9.2999999999999829e+00 +8.1625521886855985e+00 +0.0000000000000000e+00 -9.2999995704799456e+00 +5.2641617072589450e-04 +0.0000000000000000e+00 +9.9999986144299835e-01
-9.3999999999999826e+00 +8.1624992640392104e+00 +0.0000000000000000e+00 -9.3999995564747199e+00 +5.3207675773617939e-04 +0.0000000000000000e+00 +9.9999985844715222e-01
-9.4999999999999822e+00 +8.1624457733339124e+00 +0.0000000000000000e+00 -9.4999995421683074e+00 +5.3773734892753014e-04 +0.0000000000000000e+00 +9.9999985541926162e-01
-9.5999999999999819e+00 +8.1623917165692852e+00 +0.0000000000000000e+00 -9.5999995275575039e+00 +5.4339794431145774e-04 +0.0000000000000000e+00 +9.9999985235932642e-01
-9.6999999999999815e+00 +8.1623370937449096e+00 +0.0000000000000000e+00 -9.6999995126391045e+00 +5.4905854390880184e-04 +0.0000000000000000e+00 +9.9999984926734653e-01
-9.7999999999999812e+00 +8.1622819048603628e+00 +0.0000000000000000e+00 -9.7999994974099049e+00 +5.5471914774973081e-04 +0.0000000000000000e+00 +9.9999984614332194e-01
-9.8999999999999808e+00 +8.1622261499152167e+00 +0.0000000000000000e+00 -9.8999994818667005e+00 +5.6037975587374213e-04 +0.0000000000000000e+00 +9.9999984298725253e-01
-9.9999999999999805e+00 +8.1621698289090432e+00 +0.0000000000000000e+00 -9.9999994660062868e+00 +5.6604036832966220e-04 +0.0000000000000000e+00 +9.9999983979913809e-01
-1.0099999999999980e+01 +8.1621129418414053e+00 +0.0000000000000000e+00 -1.0099999449825459e+01 +5.7170098517524625e-04 +0.0000000000000000e+00 +9.9999983657897862e-01
-1.0199999999999980e+01 +8.1620554887118608e+00 +0.0000000000000000e+00 -1.0199999433321013e+01 +5.7736160647277096e-04 +0.0000000000000000e+00 +9.9999983332677400e-01
-1.0299999999999979e+01 +8.1619974695199602e+00 +0.0000000000000000e+00 -1.0299999416489745e+01 +5.8302223228462707e-04 +0.0000000000000000e+00 +9.9999983004252413e-01
-1.0399999999999979e+01 +8.1619388842652505e+00 +0.0000000000000000e+00 -1.0399999399328451e+01 +5.8868286267291811e-04 +0.0000000000000000e+00 +9.9999982672622878e-01
-1.0499999999999979e+01 +8.1618797329472716e+00 +0.0000000000000000e+00 -1.0499999381833923e+01 +5.9434349769946020e-04 +0.0000000000000000e+00 +9.9999982337788795e-01
-1.0599999999999978e+01 +8.1618200155655547e+00 +0.0000000000000000e+00 -1.0599999364002960e+01 +6.0000413742578181e-04 +0.0000000000000000e+00 +9.9999981999750154e-01
-1.0699999999999978e+01 +8.1617597321196271e+00 +0.0000000000000000e+00 -1.0699999345832355e+01 +6.0566478191312334e-04 +0.0000000000000000e+00 +9.9999981658506931e-01
-1.0799999999999978e+01 +8.1616988826090111e+00 +0.0000000000000000e+00 -1.0799999327318904e+01 +6.1132543122243668e-04 +0.0000000000000000e+00 +9.9999981314059128e-01
-1.0899999999999977e+01 +8.1616374670332199e+00 +0.0000000000000000e+00 -1.0899999308459405e+01 +6.1698608541438469e-04 +0.0000000000000000e+00 +9.9999980966406721e-01
-1.0999999999999977e+01 +8.1615754853917633e+00 +0.0000000000000000e+00 -1.0999999289250651e+01 +6.2264674454934126e-04 +0.0000000000000000e+00 +9.9999980615549711e-01
-1.1099999999999977e+01 +8.1615129376841438e+00 +0.0000000000000000e+00 -1.1099999269689437e+01 +6.2830740868739039e-04 +0.0000000000000000e+00 +9.9999980261488075e-01
-1.1199999999999976e+01 +8.1614498239098570e+00 +0.0000000000000000e+00 -1.1199999249772560e+01 +6.3396807788832616e-04 +0.0000000000000000e+00 +9.9999979904221803e-01
-1.1299999999999976e+01 +8.1613861440683948e+00 +0.0000000000000000e+00 -1.1299999229496814e+01 +6.3962875221165217e-04 +0.0000000000000000e+00 +9.9999979543750883e-01
-1.1399999999999975e+01 +8.1613218981592421e+00 +0.0000000000000000e+00 -1.1399999208858993e+01 +6.4528943171658106e-04 +0.0000000000000000e+00 +9.9999979180075305e-01
-1.1499999999999975e+01 +8.1612570861818767e+00 +0.0000000000000000e+00 -1.1499999187855895e+01 +6.5095011646203410e-04 +0.0000000000000000e+00 +9.9999978813195056e-01
-1.1599999999999975e+01 +8.1611917081357728e+00 +0.0000000000000000e+00 -1.1599999166484315e+01 +6.5661080650664095e-04 +0.0000000000000000e+00 +9.9999978443110127e-01
-1.1699999999999974e+01 +8.1611257640203974e+00 +0.0000000000000000e+00 -1.1699999144741048e+01 +6.6227150190873883e-04 +0.0000000000000000e+00 +9.9999978069820494e-01
