# field on trajectory
# s[mm] rx[mm] ry[mm] rz[mm] bx[T] by[T] bz[T]
-0.0000000000000000e+00 +8.1530000000000094e+00 +0.0000000000000000e+00 -0.0000000000000000e+00 -2.8119905757750124e-02 -5.3668029700889164e-01 +5.2752902614284069e-03
-1.0000000000000001e-01 +8.1529997159377707e+00 +0.0000000000000000e+00 -1.0008006405070299e-01 -2.8119825834607339e-02 -5.3668035633642619e-01 +5.2752539402667270e-03
-2.0000000000000001e-01 +8.1529988637557800e+00 +0.0000000000000000e+00 -2.0016012809818201e-01 -2.8119762943400392e-02 -5.3668042254842252e-01 +5.2752201172026943e-03
-2.9999999999999999e-01 +8.1529974434524792e+00 +0.0000000000000000e+00 -3.0024019213920999e-01 -2.8119715800238938e-02 -5.3668049610102997e-01 +5.2751887652826299e-03
-4.0000000000000002e-01 +8.1529954550242092e+00 +0.0000000000000000e+00 -4.0032025617056399e-01 -2.8119683121239764e-02 -5.3668057745042819e-01 +5.2751598575540588e-03
-5.0000000000000000e-01 +8.1529928984782600e+00 +0.0000000000000000e+00 -5.0040032018901703e-01 -2.8119663622521326e-02 -5.3668066705272965e-01 +5.2751333670645979e-03
-5.9999999999999998e-01 +8.1529897738146193e+00 +0.0000000000000000e+00 -6.0048038419134497e-01 -2.8119656020210399e-02 -5.3668076536410902e-01 +5.2751092668631913e-03
-6.9999999999999996e-01 +8.1529860810223909e+00 +0.0000000000000000e+00 -7.0056044817432195e-01 -2.8119659030443198e-02 -5.3668087284082744e-01 +5.2750875300002394e-03
-8.0000000000000004e-01 +8.1529818201124709e+00 +0.0000000000000000e+00 -8.0064051213472498e-01 -2.8119671369352169e-02 -5.3668098993898972e-01 +5.2750681295250183e-03
-9.0000000000000002e-01 +8.1529769910812302e+00 +0.0000000000000000e+00 -9.0072057606932698e-01 -2.8119691753079774e-02 -5.3668111711480626e-01 +5.2750510384882484e-03
-1.0000000000000000e+00 +8.1529715939250291e+00 +0.0000000000000000e+00 -1.0008006399749001e+00 -2.8119718897772459e-02 -5.3668125482448514e-01 +5.2750362299408852e-03
-1.1000000000000001e+00 +8.1529656286511507e+00 +0.0000000000000000e+00 -1.1008807038482300e+00 -2.8119751519576002e-02 -5.3668140352414784e-01 +5.2750236769331599e-03
-1.2000000000000000e+00 +8.1529590952522994e+00 +0.0000000000000000e+00 -1.2009607676860801e+00 -2.8119788334645041e-02 -5.3668156367001385e-01 +5.2750133525163471e-03
-1.3000000000000000e+00 +8.1529519937357708e+00 +0.0000000000000000e+00 -1.3010408314852300e+00 -2.8119828059131349e-02 -5.3668173571818223e-01 +5.2750052297404430e-03
-1.3999999999999999e+00 +8.1529443240979198e+00 +0.0000000000000000e+00 -1.4011208952424601e+00 -2.8119869409193358e-02 -5.3668192012481775e-01 +5.2749992816559484e-03
-1.5000000000000000e+00 +8.1529360863350995e+00 +0.0000000000000000e+00 -1.5012009589545301e+00 -2.8119911100991532e-02 -5.3668211734606619e-01 +5.2749954813129029e-03
-1.6000000000000001e+00 +8.1529272804509691e+00 +0.0000000000000000e+00 -1.6012810226182299e+00 -2.8119951850685162e-02 -5.3668232783799774e-01 +5.2749938017602081e-03
-1.7000000000000000e+00 +8.1529179064491508e+00 +0.0000000000000000e+00 -1.7013610862303301e+00 -2.8119990374434738e-02 -5.3668255205665860e-01 +5.2749942160460290e-03
-1.8000000000000000e+00 +8.1529079643223703e+00 +0.0000000000000000e+00 -1.8014411497875999e+00 -2.8120025388405908e-02 -5.3668279045814582e-01 +5.2749966972184849e-03
-1.8999999999999999e+00 +8.1528974540779000e+00 +0.0000000000000000e+00 -1.9015212132868200e+00 -2.8120055608759083e-02 -5.3668304349842022e-01 +5.2750012183235967e-03
-2.0000000000000000e+00 +8.1528863757084800e+00 +0.0000000000000000e+00 -2.0016012767247702e+00 -2.8120079751661319e-02 -5.3668331163351224e-01 +5.2750077524073707e-03
-2.1000000000000001e+00 +8.1528747292177304e+00 +0.0000000000000000e+00 -2.1016813400982199e+00 -2.8120096751015337e-02 -5.3668359505100660e-01 +5.2750162828783783e-03
-2.2000000000000002e+00 +8.1528625146056601e+00 +0.0000000000000000e+00 -2.2017614034039301e+00 -2.8120106370876589e-02 -5.3668389291545249e-01 +5.2750268326607003e-03
-2.2999999999999998e+00 +8.1528497318759001e+00 +0.0000000000000000e+00 -2.3018414666387002e+00 -2.8120108573101103e-02 -5.3668420414758777e-01 +5.2750394340938872e-03
-2.3999999999999999e+00 +8.1528363810211903e+00 +0.0000000000000000e+00 -2.4019215297993002e+00 -2.8120103319538615e-02 -5.3668452766821895e-01 +5.2750541195181553e-03
-2.5000000000000000e+00 +8.1528224620451493e+00 +0.0000000000000000e+00 -2.5020015928824901e+00 -2.8120090572022794e-02 -5.3668486239806024e-01 +5.2750709212727896e-03
-2.6000000000000001e+00 +8.1528079749477893e+00 +0.0000000000000000e+00 -2.6020816558850601e+00 -2.8120070292375558e-02 -5.3668520725784163e-01 +5.2750898716972380e-03
-2.7000000000000002e+00 +8.1527929197291105e+00 +0.0000000000000000e+00 -2.7021617188037701e+00 -2.8120042442404410e-02 -5.3668556116828170e-01 +5.2751110031308505e-03
-2.7999999999999998e+00 +8.1527772963891003e+00 +0.0000000000000000e+00 -2.8022417816354102e+00 -2.8120006983901095e-02 -5.3668592305008933e-01 +5.2751343479129197e-03
-2.8999999999999999e+00 +8.1527611049277802e+00 +0.0000000000000000e+00 -2.9023218443767500e+00 -2.8119963878640349e-02 -5.3668629182396188e-01 +5.2751599383826725e-03
-3.0000000000000000e+00 +8.1527443453451305e+00 +0.0000000000000000e+00 -3.0024019070245598e+00 -2.8119913088378613e-02 -5.3668666641058838e-01 +5.2751878068793105e-03
-3.1000000000000001e+00 +8.1527270176411495e+00 +0.0000000000000000e+00 -3.1024819695756198e+00 -2.8119854574852658e-02 -5.3668704573064707e-01 +5.2752179857420058e-03
-3.2000000000000002e+00 +8.1527091218158603e+00 +0.0000000000000000e+00 -3.2025620320267101e+00 -2.8119788299778382e-02 -5.3668742870480746e-01 +5.2752505073099384e-03
-3.2999999999999998e+00 +8.1526906578692397e+00 +0.0000000000000000e+00 -3.3026420943745900e+00 -2.8119714224849469e-02 -5.3668781425372980e-01 +5.2752854039223021e-03
-3.3999999999999999e+00 +8.1526716258013003e+00 +0.0000000000000000e+00 -3.4027221566160502e+00 -2.8119632311736104e-02 -5.3668820129806682e-01 +5.2753227079183236e-03
-3.5000000000000000e+00 +8.1526520256120403e+00 +0.0000000000000000e+00 -3.5028022187478500e+00 -2.8119542522083658e-02 -5.3668858875846226e-01 +5.2753624516372897e-03
-3.6000000000000001e+00 +8.1526318572978198e+00 +0.0000000000000000e+00 -3.6028822807667802e+00 -2.8119444817512860e-02 -5.3668897555557915e-01 +5.2754046674188164e-03
-3.7000000000000002e+00 +8.1526111208659096e+00 +0.0000000000000000e+00 -3.7029623426696099e+00 -2.8119339159612809e-02 -5.3668936060999273e-01 +5.2754493876018063e-03
-3.7999999999999998e+00 +8.1525898163126804e+00 +0.0000000000000000e+00 -3.8030424044531101e+00 -2.8119225509948109e-02 -5.3668974284235171e-01 +5.2754966445260681e-03
-3.8999999999999999e+00 +8.1525679436344909e+00 +0.0000000000000000e+00 -3.9031224661140600e+00 -2.8119103830053466e-02 -5.3669012117329784e-01 +5.2755464705315442e-03
-4.0000000000000000e+00 +8.1525455028386205e+00 +0.0000000000000000e+00 -4.0032025276492398e+00 -2.8118974081429993e-02 -5.3669049452339268e-01 +5.2755988979566468e-03
-4.0999999999999996e+00 +8.1525224939177896e+00 +0.0000000000000000e+00 -4.1032825890554099e+00 -2.8118836291613599e-02 -5.3669086203013705e-01 +5.2756539305179838e-03
-4.2000000000000002e+00 +8.1524989168792708e+00 +0.0000000000000000e+00 -4.2033626503293604e+00 -2.8118690728202309e-02 -5.3669122361898058e-01 +5.2757114679086378e-03
-4.2999999999999998e+00 +8.1524747717157897e+00 +0.0000000000000000e+00 -4.3034427114678504e+00 -2.8118537713333239e-02 -5.3669157939447687e-01 +5.2757713862016621e-03
-4.4000000000000004e+00 +8.1524500584346207e+00 +0.0000000000000000e+00 -4.4035227724676700e+00 -2.8118377569151892e-02 -5.3669192946110866e-01 +5.2758335614724395e-03
-4.5000000000000000e+00 +8.1524247770285001e+00 +0.0000000000000000e+00 -4.5036028333255800e+00 -2.8118210617825028e-02 -5.3669227392350360e-01 +5.2758978698010496e-03
-4.5999999999999996e+00 +8.1523989275046898e+00 +0.0000000000000000e+00 -4.6036828940383696e+00 -2.8118037181530893e-02 -5.3669261288622272e-01 +5.2759641872702871e-03
-4.7000000000000002e+00 +8.1523725098559208e+00 +0.0000000000000000e+00 -4.7037629546028104e+00 -2.8117857582471952e-02 -5.3669294645397736e-01 +5.2760323899680404e-03
-4.7999999999999998e+00 +8.1523455240894709e+00 +0.0000000000000000e+00 -4.8038430150156701e+00 -2.8117672142865174e-02 -5.3669327473141726e-01 +5.2761023539852955e-03
-4.9000000000000004e+00 +8.1523179701980606e+00 +0.0000000000000000e+00 -4.9039230752737302e+00 -2.8117481184954822e-02 -5.3669359782334802e-01 +5.2761739554185259e-03
-5.0000000000000000e+00 +8.1522898481889605e+00 +0.0000000000000000e+00 -5.0040031353737602e+00 -2.8117285031002599e-02 -5.3669391583451842e-01 +5.2762470703676947e-03
-5.0999999999999996e+00 +8.1522611580549000e+00 +0.0000000000000000e+00 -5.1040831953125396e+00 -2.8117084003300569e-02 -5.3669422886983864e-01 +5.2763215749386388e-03
-5.2000000000000002e+00 +8.1522318997995207e+00 +0.0000000000000000e+00 -5.2041632550868497e+00 -2.8116878424162675e-02 -5.3669453703419367e-01 +5.2763973452413472e-03
-5.2999999999999998e+00 +8.1522020734228100e+00 +0.0000000000000000e+00 -5.3042433146934496e+00 -2.8116668615931966e-02 -5.3669484043255500e-01 +5.2764742573912634e-03
-5.4000000000000004e+00 +8.1521716789247893e+00 +0.0000000000000000e+00 -5.4043233741291203e+00 -2.8116454900980602e-02 -5.3669513916995459e-01 +5.2765521875091821e-03
-5.5000000000000000e+00 +8.1521407163090807e+00 +0.0000000000000000e+00 -5.5044034333906504e+00 -2.8116237601710087e-02 -5.3669543335146197e-01 +5.2766310117211999e-03
-5.5999999999999996e+00 +8.1521091855684098e+00 +0.0000000000000000e+00 -5.6044834924747899e+00 -2.8116017040558335e-02 -5.3669572308229319e-01 +5.2767106061599751e-03
-5.7000000000000002e+00 +8.1520770867064094e+00 +0.0000000000000000e+00 -5.7045635513783299e+00 -2.8115793539992676e-02 -5.3669600846765331e-01 +5.2767908469633041e-03
-5.7999999999999998e+00 +8.1520444197231008e+00 +0.0000000000000000e+00 -5.8046436100980499e+00 -2.8115567422517078e-02 -5.3669628961284543e-01 +5.2768716102753986e-03
-5.9000000000000004e+00 +8.1520111846184609e+00 +0.0000000000000000e+00 -5.9047236686307096e+00 -2.8115339010672230e-02 -5.3669656662324716e-01 +5.2769527722468148e-03
-5.9999999999999902e+00 +8.1519773813925003e+00 +0.0000000000000000e+00 -6.0048037269731003e+00 -2.8115108627044964e-02 -5.3669683960433678e-01 +5.2770342090389354e-03
-6.0999999999999899e+00 +8.1519430100452208e+00 +0.0000000000000000e+00 -6.1048837851219799e+00 -2.8114876676682291e-02 -5.3669710890355327e-01 +5.2771158414805742e-03
-6.1999999999999904e+00 +8.1519080705766100e+00 +0.0000000000000000e+00 -6.2049638430741396e+00 -2.8114643850223470e-02 -5.3669737570645548e-01 +5.2771977451438546e-03
-6.2999999999999901e+00 +8.1518725629866804e+00 +0.0000000000000000e+00 -6.3050439008263499e+00 -2.8114410900106343e-02 -5.3669764137997955e-01 +5.2772800290888204e-03
-6.3999999999999897e+00 +8.1518364872754301e+00 +0.0000000000000000e+00 -6.4051239583753699e+00 -2.8114178578756786e-02 -5.3669790729104561e-01 +5.2773628023719240e-03
-6.4999999999999902e+00 +8.1517998434428591e+00 +0.0000000000000000e+00 -6.5052040157180002e+00 -2.8113947638587981e-02 -5.3669817480655579e-01 +5.2774461740457863e-03
-6.5999999999999899e+00 +8.1517626314889604e+00 +0.0000000000000000e+00 -6.6052840728510001e+00 -2.8113718831999843e-02 -5.3669844529339350e-01 +5.2775302531589911e-03
-6.6999999999999904e+00 +8.1517248514137499e+00 +0.0000000000000000e+00 -6.7053641297711399e+00 -2.8113492911378324e-02 -5.3669872011842235e-01 +5.2776151487558464e-03
-6.7999999999999901e+00 +8.1516865032135701e+00 +0.0000000000000000e+00 -6.8054441864752100e+00 -2.8113270629096219e-02 -5.3669900064851084e-01 +5.2777009698764480e-03
-6.8999999999999897e+00 +8.1516475868957095e+00 +0.0000000000000000e+00 -6.9055242429599701e+00 -2.8113052737506750e-02 -5.3669928825042368e-01 +5.2777878255553462e-03
-6.9999999999999902e+00 +8.1516081024565192e+00 +0.0000000000000000e+00 -7.0056042992222096e+00 -2.8112839988951515e-02 -5.3669958429098219e-01 +5.2778758248229725e-03
-7.0999999999999899e+00 +8.1515680498960101e+00 +0.0000000000000000e+00 -7.1056843552586999e+00 -2.8112633135754128e-02 -5.3669989013695507e-01 +5.2779650767043173e-03
-7.1999999999999904e+00 +8.1515274292141804e+00 +0.0000000000000000e+00 -7.2057644110662000e+00 -2.8112432930220949e-02 -5.3670020715508304e-01 +5.2780556902189829e-03
-7.2999999999999901e+00 +8.1514862404073902e+00 +0.0000000000000000e+00 -7.3058444666415099e+00 -2.8112240124641905e-02 -5.3670053671210605e-01 +5.2781477743812236e-03
-7.3999999999999897e+00 +8.1514444834829192e+00 +0.0000000000000000e+00 -7.4059245219813796e+00 -2.8112055471284113e-02 -5.3670088017465323e-01 +5.2782414381986409e-03
-7.4999999999999902e+00 +8.1514021584334806e+00 +0.0000000000000000e+00 -7.5060045770826100e+00 -2.8111879722401215e-02 -5.3670123890942978e-01 +5.2783367906738673e-03
-7.5999999999999899e+00 +8.1513592652663593e+00 +0.0000000000000000e+00 -7.6060846319419504e+00 -2.8111713630221292e-02 -5.3670161428300034e-01 +5.2784339408021453e-03
-7.6999999999999904e+00 +8.1513158039779192e+00 +0.0000000000000000e+00 -7.7061646865561997e+00 -2.8111557946956203e-02 -5.3670200766197662e-01 +5.2785329975730275e-03
-7.7999999999999901e+00 +8.1512717745681602e+00 +0.0000000000000000e+00 -7.8062447409221098e+00 -2.8111413424795239e-02 -5.3670242041290761e-01 +5.2786340699690643e-03
-7.8999999999999897e+00 +8.1512271770334301e+00 +0.0000000000000000e+00 -7.9063247950364799e+00 -2.8111280815907289e-02 -5.3670285390233241e-01 +5.2787372669661058e-03
-7.9999999999999902e+00 +8.1511820113773901e+00 +0.0000000000000000e+00 -8.0064048488960609e+00 -2.8111160872361100e-02 -5.3670330949655443e-01 +5.2788426975209028e-03
-8.0999999999999908e+00 +8.1511362776036496e+00 +0.0000000000000000e+00 -8.1064849024976393e+00 -2.8111054002488128e-02 -5.3670378790323114e-01 +5.2789504183451590e-03
-8.1999999999999904e+00 +8.1510899757086008e+00 +0.0000000000000000e+00 -8.2065649558379903e+00 -2.8110959479021012e-02 -5.3670428765407263e-01 +5.2790603135594374e-03
-8.2999999999999901e+00 +8.1510431056885899e+00 +0.0000000000000000e+00 -8.3066450089139003e+00 -2.8110876340514394e-02 -5.3670480683200306e-01 +5.2791722316922075e-03
-8.3999999999999897e+00 +8.1509956675508892e+00 +0.0000000000000000e+00 -8.4067250617221205e+00 -2.8110803625543992e-02 -5.3670534351984245e-01 +5.2792860212733401e-03
-8.4999999999999893e+00 +8.1509476612882299e+00 +0.0000000000000000e+00 -8.5068051142594392e+00 -2.8110740372717290e-02 -5.3670589580049211e-01 +5.2794015308360977e-03
-8.5999999999999908e+00 +8.1508990869078808e+00 +0.0000000000000000e+00 -8.6068851665226305e+00 -2.8110685620663108e-02 -5.3670646175671954e-01 +5.2795186089150238e-03
-8.6999999999999904e+00 +8.1508499444025801e+00 +0.0000000000000000e+00 -8.7069652185084596e+00 -2.8110638408043717e-02 -5.3670703947137244e-01 +5.2796371040482078e-03
-8.7999999999999794e+00 +8.1508002337759500e+00 +0.0000000000000000e+00 -8.8070452702137203e+00 -2.8110597773545774e-02 -5.3670762702719033e-01 +5.2797568647754665e-03
-8.8999999999999808e+00 +8.1507499550316407e+00 +0.0000000000000000e+00 -8.9071253216351796e+00 -2.8110562755885391e-02 -5.3670822250688310e-01 +5.2798777396392271e-03
-8.9999999999999805e+00 +8.1506991081623692e+00 +0.0000000000000000e+00 -9.0072053727696098e+00 -2.8110532393813271e-02 -5.3670882399321218e-01 +5.2799995771854414e-03
-9.0999999999999801e+00 +8.1506476931717806e+00 +0.0000000000000000e+00 -9.1072854236137797e+00 -2.8110505726106967e-02 -5.3670942956882794e-01 +5.2801222259620155e-03
-9.1999999999999797e+00 +8.1505957100635005e+00 +0.0000000000000000e+00 -9.2073654741644795e+00 -2.8110481791576051e-02 -5.3671003731634959e-01 +5.2802455345197187e-03
-9.2999999999999794e+00 +8.1505431588302599e+00 +0.0000000000000000e+00 -9.3074455244184708e+00 -2.8110459629067115e-02 -5.3671064531844448e-01 +5.2803693514130844e-03
-9.3999999999999808e+00 +8.1504900394757005e+00 +0.0000000000000000e+00 -9.4075255743725297e+00 -2.8110438277456174e-02 -5.3671125165766642e-01 +5.2804935251988400e-03
-9.4999999999999805e+00 +8.1504363520034495e+00 +0.0000000000000000e+00 -9.5076056240234408e+00 -2.8110416775653745e-02 -5.3671185441653624e-01 +5.2806179044368271e-03
-9.5999999999999801e+00 +8.1503820964062506e+00 +0.0000000000000000e+00 -9.6076856733679694e+00 -2.8110394162609877e-02 -5.3671245167761983e-01 +5.2807423376908880e-03
-9.6999999999999797e+00 +8.1503272726913600e+00 +0.0000000000000000e+00 -9.7077657224029004e+00 -2.8110369477305157e-02 -5.3671304152334121e-01 +5.2808666735270366e-03
-9.7999999999999794e+00 +8.1502718808515109e+00 +0.0000000000000000e+00 -9.8078457711250007e+00 -2.8110341758762848e-02 -5.3671362203619555e-01 +5.2809907605157304e-03
-9.8999999999999808e+00 +8.1502159208903304e+00 +0.0000000000000000e+00 -9.9079258195310498e+00 -2.8110310046039755e-02 -5.3671419129855980e-01 +5.2811144472300394e-03
-9.9999999999999805e+00 +8.1501593928078400e+00 +0.0000000000000000e+00 -1.0008005867617801e+01 -2.8110273378378955e-02 -5.3671474739304714e-01 +5.2812375822645042e-03
-1.0100000000000000e+01 +8.1501022966040200e+00 +0.0000000000000000e+00 -1.0108085915382100e+01 -2.8110231154036443e-02 -5.3671528900691123e-01 +5.2813600576778032e-03
-1.0199999999999999e+01 +8.1500446322825209e+00 +0.0000000000000000e+00 -1.0208165962820599e+01 -2.8110183902498299e-02 -5.3671581673282653e-01 +5.2814819024836817e-03
-1.0300000000000001e+01 +8.1499863998360507e+00 +0.0000000000000000e+00 -1.0308246009930199e+01 -2.8110132375513991e-02 -5.3671633153790732e-01 +5.2816031726030032e-03
-1.0400000000000000e+01 +8.1499275992682705e+00 +0.0000000000000000e+00 -1.0408326056707599e+01 -2.8110077324816969e-02 -5.3671683438914242e-01 +5.2817239239518650e-03
-1.0500000000000000e+01 +8.1498682305791608e+00 +0.0000000000000000e+00 -1.0508406103149600e+01 -2.8110019502129952e-02 -5.3671732625350299e-01 +5.2818442124426077e-03
-1.0600000000000000e+01 +8.1498082937723701e+00 +0.0000000000000000e+00 -1.0608486149253000e+01 -2.8109959659161580e-02 -5.3671780809788716e-01 +5.2819640939831330e-03
-1.0699999999999999e+01 +8.1497477888406102e+00 +0.0000000000000000e+00 -1.0708566195014500e+01 -2.8109898547611614e-02 -5.3671828088922591e-01 +5.2820836244779198e-03
-1.0800000000000001e+01 +8.1496867157875403e+00 +0.0000000000000000e+00 -1.0808646240430900e+01 -2.8109836919161999e-02 -5.3671874559432275e-01 +5.2822028598262516e-03
-1.0900000000000000e+01 +8.1496250746131391e+00 +0.0000000000000000e+00 -1.0908726285499000e+01 -2.8109775525482078e-02 -5.3671920317995936e-01 +5.2823218559232294e-03
-1.1000000000000000e+01 +8.1495628653174208e+00 +0.0000000000000000e+00 -1.1008806330215601e+01 -2.8109715118226651e-02 -5.3671965461286686e-01 +5.2824406686593616e-03
-1.1100000000000000e+01 +8.1495000879040198e+00 +0.0000000000000000e+00 -1.1108886374577500e+01 -2.8109656449034143e-02 -5.3672010085969990e-01 +5.2825593539202057e-03
-1.1199999999999999e+01 +8.1494367423620098e+00 +0.0000000000000000e+00 -1.1208966418581401e+01 -2.8109600269533179e-02 -5.3672054288716842e-01 +5.2826779675876293e-03
-1.1300000000000001e+01 +8.1493728287059604e+00 +0.0000000000000000e+00 -1.1309046462224000e+01 -2.8109547331326593e-02 -5.3672098166174320e-01 +5.2827965655366698e-03
-1.1400000000000000e+01 +8.1493083469249505e+00 +0.0000000000000000e+00 -1.1409126505502300e+01 -2.8109498386010696e-02 -5.3672141815002805e-01 +5.2829152036392843e-03
-1.1500000000000000e+01 +8.1492432970226201e+00 +0.0000000000000000e+00 -1.1509206548412800e+01 -2.8109454185159307e-02 -5.3672185331846689e-01 +5.2830339377612154e-03
-1.1600000000000000e+01 +8.1491776789989707e+00 +0.0000000000000000e+00 -1.1609286590952600e+01 -2.8109415480330309e-02 -5.3672228813347445e-01 +5.2831528237632635e-03
-1.1699999999999999e+01 +8.1491114928576298e+00 +0.0000000000000000e+00 -1.1709366633118099e+01 -2.8109383023062397e-02 -5.3672272356138306e-01 +5.2832719175006206e-03
