# multipoles
# s[mm] polynom_b[n=0][T/m^n] polynom_b[n=1][T/m^n] polynom_b[n=2][T/m^n] polynom_b[n=3][T/m^n] polynom_b[n=4][T/m^n] polynom_b[n=5][T/m^n] polynom_b[n=6][T/m^n] 
+0.0000000000000000e+00 -5.3682283595247848e-01 +7.3583591369283559e+00 -4.8751561812764799e-01 +3.1306111552994356e+01 +4.8286501655959764e+03 -3.6769248495211173e+05 -2.0952188042567302e+07 
+1.0000000000000001e-01 -5.3682286297130755e-01 +7.3583449790910871e+00 -4.8245725262442896e-01 +3.1476644263698205e+01 +4.7570153830140416e+03 -3.6840839726941561e+05 -2.0707195672139209e+07 
+2.0000000000000001e-01 -5.3682289085578583e-01 +7.3583339865708650e+00 -4.7752375270717029e-01 +3.1583231397006141e+01 +4.6914122442145899e+03 -3.6887684617590165e+05 -2.0498109800716218e+07 
+2.9999999999999999e-01 -5.3682292040276891e-01 +7.3583258813223535e+00 -4.7273231673560773e-01 +3.1632176507520988e+01 +4.6318900273851796e+03 -3.6912345122745389e+05 -2.0324284806855995e+07 
+4.0000000000000002e-01 -5.3682295240913236e-01 +7.3583203852938670e+00 -4.6810013702807357e-01 +3.1629783305790898e+01 +4.5784979055474732e+03 -3.6917383278499718e+05 -2.0185074590163015e+07 
+5.0000000000000000e-01 -5.3682298767172898e-01 +7.3583172204368257e+00 -4.6364441518816041e-01 +3.1582355373249637e+01 +4.5312852296353503e+03 -3.6905361034320045e+05 -2.0079833899666056e+07 
+5.9999999999999998e-01 -5.3682302698746631e-01 +7.3583161087019047e+00 -4.5938234352335394e-01 +3.1496196295905182e+01 +4.4903011800942622e+03 -3.6878840337947081e+05 -2.0007916687049985e+07 
+6.9999999999999996e-01 -5.3682307115317907e-01 +7.3583167720418867e+00 -4.5533112013995769e-01 +3.1377609566914167e+01 +4.4555950478033719e+03 -3.6840383075100288e+05 -1.9968677427782197e+07 
+8.0000000000000004e-01 -5.3682312096578955e-01 +7.3583189324045684e+00 -4.5150793936788436e-01 +3.1232898812064740e+01 +4.4272160555542459e+03 -3.6792551207970572e+05 -1.9961470282386947e+07 
+9.0000000000000002e-01 -5.3682317722218342e-01 +7.3583223117479335e+00 -4.4792999662289040e-01 +3.1068367335355912e+01 +4.4052134443739651e+03 -3.6737906507473328e+05 -1.9985649489517979e+07 
+1.0000000000000000e+00 -5.3682324071920740e-01 +7.3583266320276959e+00 -4.4461448886768340e-01 +3.0890318489846837e+01 +4.3896364837075471e+03 -3.6679010772763577e+05 -2.0040569420302443e+07 
+1.1000000000000001e+00 -5.3682331225377344e-01 +7.3583316151974145e+00 -4.4157861199022191e-01 +3.0705055679794054e+01 +4.3805344222550139e+03 -3.6618425834969664e+05 -2.0125584344456378e+07 
+1.2000000000000000e+00 -5.3682339262275780e-01 +7.3583369832179404e+00 -4.3883956213084963e-01 +3.0518882087872189e+01 +4.3779565060021705e+03 -3.6558713399688585e+05 -2.0240048499426607e+07 
+1.3000000000000000e+00 -5.3682348262299706e-01 +7.3583424580527135e+00 -4.3641453747468506e-01 +3.0338100813558949e+01 +4.3819520177733575e+03 -3.6502435129968572e+05 -2.0383316290614326e+07 
+1.3999999999999999e+00 -5.3682358305141420e-01 +7.3583477616653434e+00 -4.3432073491677675e-01 +3.0169014946681592e+01 +4.3925702088145508e+03 -3.6452152690098598e+05 -2.0554741955540672e+07 
+1.5000000000000000e+00 -5.3682369470478331e-01 +7.3583526160255293e+00 -4.3257535258886010e-01 +3.0017927391000782e+01 +4.4098603458594116e+03 -3.6410427643251669e+05 -2.0753679784423754e+07 
+1.6000000000000001e+00 -5.3682381837999316e-01 +7.3583567431044408e+00 -4.3119559117955353e-01 +2.9891141014653048e+01 +4.4338717376053692e+03 -3.6379821544168948e+05 -2.0979484248224486e+07 
+1.7000000000000000e+00 -5.3682395487386880e-01 +7.3583598648804216e+00 -4.3019865170762112e-01 +2.9794958479795845e+01 +4.4646536881938628e+03 -3.6362895840375772e+05 -2.1231509769688770e+07 
+1.8000000000000000e+00 -5.3682410498322752e-01 +7.3583617033344213e+00 -4.2960173530388418e-01 +2.9735682374651564e+01 +4.5022554915888686e+03 -3.6362211949302914e+05 -2.1509110690768033e+07 
+1.8999999999999999e+00 -5.3682426950484563e-01 +7.3583619804495370e+00 -4.2942204469439271e-01 +2.9719615233060811e+01 +4.5467264627953409e+03 -3.6380331272855366e+05 -2.1811641430179838e+07 
+2.0000000000000000e+00 -5.3682444923552297e-01 +7.3583604182207774e+00 -4.2967678509580270e-01 +2.9753059258144017e+01 +4.5981159479662792e+03 -3.6419815039495489e+05 -2.2138456512769856e+07 
+2.1000000000000001e+00 -5.3682464467435342e-01 +7.3583568093758842e+00 -4.3037038629844931e-01 +2.9840858650010947e+01 +4.6562641127675706e+03 -3.6482709803594346e+05 -2.2488155399559211e+07 
+2.2000000000000002e+00 -5.3682485512960842e-01 +7.3583512228489916e+00 -4.3145714183277201e-01 +2.9982016343052511e+01 +4.7201946064464100e+03 -3.6568964728453004e+05 -2.2856389848307647e+07 
+2.2999999999999998e+00 -5.3682507961191617e-01 +7.3583437949566566e+00 -4.3287904271923283e-01 +3.0174072591674992e+01 +4.7887319101634148e+03 -3.6677995280656690e+05 -2.3238092625709996e+07 
+2.3999999999999999e+00 -5.3682531713187154e-01 +7.3583346620089607e+00 -4.3457808101937778e-01 +3.0414567896810979e+01 +4.8607005272877868e+03 -3.6809217083510867e+05 -2.3628196604645804e+07 
+2.5000000000000000e+00 -5.3682556670005510e-01 +7.3583239603217967e+00 -4.3649624799328623e-01 +3.0701042632728992e+01 +4.9349249485814644e+03 -3.6962045695204812e+05 -2.4021634595825586e+07 
+2.6000000000000001e+00 -5.3682582732709649e-01 +7.3583118262036002e+00 -4.3857553600100618e-01 +3.1031037445628087e+01 +5.0102296910429150e+03 -3.7135896842305647e+05 -2.4413339541951068e+07 
+2.7000000000000002e+00 -5.3682609802358539e-01 +7.3582983959588439e+00 -4.4075793866832835e-01 +3.1402093162304105e+01 +5.0854392920329374e+03 -3.7330186368987081e+05 -2.4798244463225000e+07 
+2.7999999999999998e+00 -5.3682637780009901e-01 +7.3582838058954803e+00 -4.4298544938108964e-01 +3.1811750569366271e+01 +5.1593782948611924e+03 -3.7544330106156139e+05 -2.5171282426230174e+07 
+2.8999999999999999e+00 -5.3682666566727943e-01 +7.3582681923107938e+00 -4.4520006014375590e-01 +3.2257550837432412e+01 +5.2308712182039790e+03 -3.7777744120114006e+05 -2.5527386374544397e+07 
+3.0000000000000000e+00 -5.3682696063572144e-01 +7.3582516915038028e+00 -4.4734376656015501e-01 +3.2737035153005138e+01 +5.2987426576960470e+03 -3.8029844496125239e+05 -2.5861489629779655e+07 
+3.1000000000000001e+00 -5.3682726171601247e-01 +7.3582344397633817e+00 -4.4935856223397674e-01 +3.3247745088914279e+01 +5.3618171740523685e+03 -3.8300047559116088e+05 -2.6168525343977608e+07 
+3.2000000000000002e+00 -5.3682756791881014e-01 +7.3582165733792282e+00 -4.5118643932189140e-01 +3.3787222273536322e+01 +5.4189193072822309e+03 -3.8587769677153829e+05 -2.6443426575949866e+07 
+3.2999999999999998e+00 -5.3682787825471368e-01 +7.3581982286330616e+00 -4.5276939534293165e-01 +3.4353008654962103e+01 +5.4688737100097196e+03 -3.8892427416108403e+05 -2.6681126935605753e+07 
+3.3999999999999999e+00 -5.3682819173433027e-01 +7.3581795417987719e+00 -4.5404942404206122e-01 +3.4942646510327080e+01 +5.5105049700680092e+03 -3.9213437547910667e+05 -2.6876559729700737e+07 
+3.5000000000000000e+00 -5.3682850736833376e-01 +7.3581606491478322e+00 -4.5496851835553465e-01 +3.5553678279887976e+01 +5.5426376683415438e+03 -3.9550216950538370e+05 -2.7024658239850279e+07 
+3.6000000000000001e+00 -5.3682882416734756e-01 +7.3581416869437728e+00 -4.5546867551973086e-01 +3.6183646748138585e+01 +5.5640964786921240e+03 -3.9902182717992371e+05 -2.7120356204545598e+07 
+3.7000000000000002e+00 -5.3682914114199765e-01 +7.3581227914442904e+00 -4.5549189003978463e-01 +3.6830094970895139e+01 +5.5737060333995496e+03 -4.0268752113606536e+05 -2.7158587176540200e+07 
+3.7999999999999998e+00 -5.3682945730297071e-01 +7.3581040988948629e+00 -4.5498015663334634e-01 +3.7490566488940651e+01 +5.5702909791498269e+03 -4.0649342700401961e+05 -2.7134284787347801e+07 
+3.8999999999999999e+00 -5.3682977166089541e-01 +7.3580857455398201e+00 -4.5387547172257381e-01 +3.8162604979267208e+01 +5.5526760078508623e+03 -4.1043372130795155e+05 -2.7042382901850406e+07 
+4.0000000000000000e+00 -5.3683008322651515e-01 +7.3580678676086508e+00 -4.5211982913631393e-01 +3.8843754676964906e+01 +5.5196857761209831e+03 -4.1450258395607182e+05 -2.6877815233848523e+07 
+4.0999999999999996e+00 -5.3683039126453402e-01 +7.3580505976872344e+00 -4.4967159893147257e-01 +3.9531091143195638e+01 +5.4705245223233860e+03 -4.1868945037068042e+05 -2.6637269464256451e+07 
+4.2000000000000002e+00 -5.3683069606057787e-01 +7.3580340734118090e+00 -4.4655397152528731e-01 +4.0219486153711230e+01 +5.4059154471667307e+03 -4.2296363439991418e+05 -2.6324516584104542e+07 
+4.2999999999999998e+00 -5.3683099815666546e-01 +7.3580184386266554e+00 -4.4280620646563762e-01 +4.0903175342719059e+01 +5.3269622813277838e+03 -4.2728910809635778e+05 -2.5945117684424352e+07 
+4.4000000000000004e+00 -5.3683129809477215e-01 +7.3580038371771010e+00 -4.3846756511276813e-01 +4.1576394231094618e+01 +5.2347687954030189e+03 -4.3162984261129436e+05 -2.5504634082434077e+07 
+4.5000000000000000e+00 -5.3683159641689626e-01 +7.3579904129062923e+00 -4.3357730593568938e-01 +4.2233378303615432e+01 +5.1304387166471033e+03 -4.3594980860201170e+05 -2.5008626945201512e+07 
+4.5999999999999996e+00 -5.3683189366506401e-01 +7.3579783096570184e+00 -4.2817468111539991e-01 +4.2868362950992513e+01 +5.0150756659944809e+03 -4.4021297588474530e+05 -2.4462656993728735e+07 
+4.7000000000000002e+00 -5.3683219038134800e-01 +7.3579676712745368e+00 -4.2229894308819232e-01 +4.3475583388299533e+01 +4.8897832759445682e+03 -4.4438331296185317e+05 -2.3872285049410671e+07 
+4.7999999999999998e+00 -5.3683248710784737e-01 +7.3579586416002227e+00 -4.1598933790177606e-01 +4.4049274808591150e+01 +4.7556650701965700e+03 -4.4842478783339157e+05 -2.3243071477810737e+07 
+4.9000000000000004e+00 -5.3683278438664894e-01 +7.3579513644758494e+00 -4.0928510987893796e-01 +4.4583672280146523e+01 +4.6138245532263672e+03 -4.5230136745874217e+05 -2.2580576620794486e+07 
+5.0000000000000000e+00 -5.3683308275993369e-01 +7.3579459837441679e+00 -4.0222549791868140e-01 +4.5073010696132414e+01 +4.4653651354417925e+03 -4.5597701737430139e+05 -2.1890360427841309e+07 
+5.0999999999999996e+00 -5.3683338276984305e-01 +7.3579426432469459e+00 -3.9484973903466886e-01 +4.5511524835762671e+01 +4.3113902039659642e+03 -4.5941570206678979e+05 -2.1177982805763751e+07 
+5.2000000000000002e+00 -5.3683368495863570e-01 +7.3579414868262827e+00 -3.8719706250010238e-01 +4.5893449325868481e+01 +4.1530030142595851e+03 -4.6258138474213192e+05 -2.0449003111780647e+07 
+5.2999999999999998e+00 -5.3683398986854192e-01 +7.3579426583281897e+00 -3.7930669735756595e-01 +4.6213018508420866e+01 +3.9913068275041765e+03 -4.6543802649016876e+05 -1.9708980794174086e+07 
+5.4000000000000004e+00 -5.3683429804186256e-01 +7.3579463015895890e+00 -3.7121786384518729e-01 +4.6464466826518560e+01 +3.8274047525821297e+03 -4.6794958853937744e+05 -1.8963474655179676e+07 
+5.5000000000000000e+00 -5.3683461002086652e-01 +7.3579525604563205e+00 -3.6296978253904505e-01 +4.6642028291887982e+01 +3.6623999174836549e+03 -4.7008002915266226e+05 -1.8218043662937440e+07 
+5.5999999999999996e+00 -5.3683492634794927e-01 +7.3579615787699169e+00 -3.5460166459965781e-01 +4.6739936846740186e+01 +3.4973952863809136e+03 -4.7179330565828452e+05 -1.7478246090425339e+07 
+5.7000000000000002e+00 -5.3683524756548817e-01 +7.3579735003759632e+00 -3.4615271691840371e-01 +4.6752426135275620e+01 +3.3334937574739492e+03 -4.7305337317218818e+05 -1.6749639977931397e+07 
+5.7999999999999998e+00 -5.3683557421592754e-01 +7.3579884691192765e+00 -3.3766214405618539e-01 +4.6673729621333173e+01 +3.1717981986048599e+03 -4.7382418521616532e+05 -1.6037783307385216e+07 
+5.9000000000000004e+00 -5.3683590684175897e-01 +7.3580066288407906e+00 -3.2916914127826197e-01 +4.6498080667218140e+01 +3.0134113164718210e+03 -4.7406969414649042e+05 -1.5348233380643161e+07 
+5.9999999999999902e+00 -5.3683624598548652e-01 +7.3580281233911276e+00 -3.2071290192441315e-01 +4.6219712151202415e+01 +2.8594357975272346e+03 -4.7375384896168561e+05 -1.4686547496489599e+07 
+6.0999999999999899e+00 -5.3683659202008926e-01 +7.3580530430956994e+00 -3.1233238623015536e-01 +4.5834835302520780e+01 +2.7108603557253978e+03 -4.7285210503789346e+05 -1.4057530479216563e+07 
+6.1999999999999904e+00 -5.3683694463192688e-01 +7.3580812486442913e+00 -3.0406458199681402e-01 +4.5348083642169883e+01 +2.5681591215062599e+03 -4.7138878061624483e+05 -1.3462614605822820e+07 
+6.2999999999999901e+00 -5.3683730333348234e-01 +7.3581125391550311e+00 -2.9594568243601682e-01 +4.4766335937706501e+01 +2.4316615584369169e+03 -4.6940119141293876e+05 -1.2902290889872868e+07 
+6.3999999999999897e+00 -5.3683766763730234e-01 +7.3581467137537153e+00 -2.8801188226792801e-01 +4.4096470778072607e+01 +2.3016971392833702e+03 -4.6692665242772497e+05 -1.2377050315163245e+07 
+6.4999999999999902e+00 -5.3683803705578936e-01 +7.3581835715876114e+00 -2.8029937768823665e-01 +4.3345366185951576e+01 +2.1785953476446207e+03 -4.6400247578877903e+05 -1.1887383843133898e+07 
+6.5999999999999899e+00 -5.3683841110143860e-01 +7.3582229118113540e+00 -2.7284436959918440e-01 +4.2519899997186705e+01 +2.0626857376348908e+03 -4.6066597287061828e+05 -1.1433782693635765e+07 
+6.6999999999999904e+00 -5.3683878928671136e-01 +7.3582645335949550e+00 -2.6568305975550477e-01 +4.1626949654908508e+01 +1.9542978601056900e+03 -4.5695445319027820e+05 -1.1016737988894513e+07 
+6.7999999999999901e+00 -5.3683917112391766e-01 +7.3583082361239240e+00 -2.5885165509021685e-01 +4.0673392201312502e+01 +1.8537613434367161e+03 -4.5290522435370192e+05 -1.0636741134649949e+07 
+6.8999999999999897e+00 -5.3683955612549006e-01 +7.3583538185987907e+00 -2.5238636421395866e-01 +3.9666104297334051e+01 +1.7614058293538794e+03 -4.4855559219951718e+05 -1.0294283517212456e+07 
+6.9999999999999902e+00 -5.3683994380379940e-01 +7.3584010802387700e+00 -2.4632339919751978e-01 +3.8611962109377373e+01 +1.6775609991195383e+03 -4.4394286012851883e+05 -9.9898566088883914e+06 
+7.0999999999999899e+00 -5.3684033367109629e-01 +7.3584498202748705e+00 -2.4069897741487989e-01 +3.7517841530758091e+01 +1.6025566144112056e+03 -4.3910433045930724e+05 -9.7239521744088344e+06 
+7.1999999999999904e+00 -5.3684072523966730e-01 +7.3584998379578153e+00 -2.3554931792574565e-01 +3.6390617937602507e+01 +1.5367224442743172e+03 -4.3407730298386363e+05 -9.4970619123634081e+06 
+7.2999999999999901e+00 -5.3684111802180257e-01 +7.3585509325565504e+00 -2.3091064286265736e-01 +3.5237166241618297e+01 +1.4803882917763674e+03 -4.2889907531166374e+05 -9.3096775782640651e+06 
+7.3999999999999897e+00 -5.3684151152970194e-01 +7.3586029033549289e+00 -2.2681918135783766e-01 +3.4064360994896809e+01 +1.4338840657291785e+03 -4.2360694350680563e+05 -9.1622913218132835e+06 
+7.4999999999999902e+00 -5.3684190527552766e-01 +7.3586555496615196e+00 -2.2331116416185001e-01 +3.2879076098081988e+01 +1.3975396798360186e+03 -4.1823820038938860e+05 -9.0553952039996404e+06 
+7.5999999999999899e+00 -5.3684229877145051e-01 +7.3587086707974869e+00 -2.2042282739017099e-01 +3.1688185157745398e+01 +1.3716851232644331e+03 -4.1283013763405418e+05 -8.9894815326342806e+06 
+7.6999999999999904e+00 -5.3684269152953690e-01 +7.3587620661040880e+00 -2.1819041292362037e-01 +3.0498561279290861e+01 +1.3566504641624356e+03 -4.0742004460630298e+05 -8.9650428670594655e+06 
+7.7999999999999901e+00 -5.3684308306191764e-01 +7.3588155349503088e+00 -2.1665016445193258e-01 +2.9317076842326433e+01 +1.3527657761661264e+03 -4.0204520705956058e+05 -8.9825716696336586e+06 
+7.8999999999999897e+00 -5.3684347288055978e-01 +7.3588688767164365e+00 -2.1583833244749168e-01 +2.8150603977618864e+01 +1.3603612322253289e+03 -3.9674290991974709e+05 -9.0425607513223160e+06 
+7.9999999999999902e+00 -5.3684386049745181e-01 +7.3589218908094223e+00 -2.1579117107034246e-01 +2.7006014143813548e+01 +1.3797670431723311e+03 -3.9155043499967834e+05 -9.1455029786358047e+06 
+8.0999999999999908e+00 -5.3684424560082666e-01 +7.3589743664044311e+00 -2.1652850608321630e-01 +2.5889925845140834e+01 +1.4110832085215375e+03 -3.8650328084223188e+05 -9.2911237297047749e+06 
+8.1999999999999904e+00 -5.3684462857933202e-01 +7.3590260504928589e+00 -2.1800451434518472e-01 +2.4807706849078571e+01 +1.4535171886750773e+03 -3.8162718752633908e+05 -9.4762580853074081e+06 
+8.2999999999999901e+00 -5.3684500999596818e-01 +7.3590766793791316e+00 -2.2015692055249431e-01 +2.3764341807325003e+01 +1.5060601274574926e+03 -3.7694474021108920e+05 -9.6970668482474629e+06 
+8.3999999999999897e+00 -5.3684539041363177e-01 +7.3591259893515204e+00 -2.2292345649180886e-01 +2.2764815860945031e+01 +1.5677032868148799e+03 -3.7247852664533246e+05 -9.9497113525569923e+06 
+8.4999999999999893e+00 -5.3684577039518977e-01 +7.3591737166749800e+00 -2.2624186145595090e-01 +2.1814114870926517e+01 +1.6374380462260362e+03 -3.6825113857386413e+05 -1.0230353432505693e+07 
+8.5999999999999908e+00 -5.3684615050341755e-01 +7.3592195976044978e+00 -2.3004987684944936e-01 +2.0917225038028640e+01 +1.7142558038478223e+03 -3.6428516953560634e+05 -1.0535154964061836e+07 
+8.6999999999999904e+00 -5.3684653130104198e-01 +7.3592633683723134e+00 -2.3428525388442736e-01 +2.0079133269337198e+01 +1.7971481187075017e+03 -3.6060321697072423e+05 -1.0860278528937045e+07 
+8.7999999999999794e+00 -5.3684691335072254e-01 +7.3593047651948735e+00 -2.3888574599614237e-01 +1.9304826988348658e+01 +1.8851065689706636e+03 -3.5722788113631302e+05 -1.1201886749343982e+07 
+8.8999999999999808e+00 -5.3684729721498414e-01 +7.3593435242669134e+00 -2.4378911683742269e-01 +1.8599294294925460e+01 +1.9771229002325999e+03 -3.5418176599298231e+05 -1.1556142982824564e+07 
+8.9999999999999805e+00 -5.3684768345634204e-01 +7.3593793817659678e+00 -2.4893313453878049e-01 +1.7967523839272825e+01 +2.0721889153464886e+03 -3.5148747847548203e+05 -1.1919210795754461e+07 
+9.0999999999999801e+00 -5.3684807263721712e-01 +7.3594120738462498e+00 -2.5425557349768768e-01 +1.7414505016433026e+01 +2.1692965164018115e+03 -3.4916762965512282e+05 -1.2287254184579354e+07 
+9.1999999999999797e+00 -5.3684846531990471e-01 +7.3594413366439655e+00 -2.5969421616589972e-01 +1.6945227785701100e+01 +2.2674377262141129e+03 -3.4724483360986901e+05 -1.2656437646268064e+07 
+9.2999999999999794e+00 -5.3684886206666993e-01 +7.3594669062718889e+00 -2.6518685231566708e-01 +1.6564682857799678e+01 +2.3656046793438072e+03 -3.4574170857623569e+05 -1.3022926147997307e+07 
+9.3999999999999808e+00 -5.3684926343968531e-01 +7.3594885188185755e+00 -2.7067127678552100e-01 +1.6277861696667774e+01 +2.4627895813600912e+03 -3.4468087689393433e+05 -1.3382884939580472e+07 
+9.4999999999999805e+00 -5.3684967000102368e-01 +7.3595059103562139e+00 -2.7608529326096071e-01 +1.6089756310142771e+01 +2.5579847769714820e+03 -3.4408496383346646e+05 -1.3732479868593223e+07 
+9.5999999999999801e+00 -5.3685008231262143e-01 +7.3595188169234422e+00 -2.8136671197765639e-01 +1.6005359735029515e+01 +2.6501827041146698e+03 -3.4397660035419749e+05 -1.4067877155812435e+07 
+9.6999999999999797e+00 -5.3685050093644693e-01 +7.3595269745448917e+00 -2.8645335255109089e-01 +1.6029665485738885e+01 +2.7383759525672090e+03 -3.4437841994446941e+05 -1.4385243687879084e+07 
+9.7999999999999794e+00 -5.3685092643426657e-01 +7.3595301192131215e+00 -2.9128303890586282e-01 +1.6167668068349954e+01 +2.8215571604728216e+03 -3.4531306155987759e+05 -1.4680746505774351e+07 
+9.8999999999999808e+00 -5.3685135936779427e-01 +7.3595279868991943e+00 -2.9579360823760270e-01 +1.6424362682371132e+01 +2.8987191904916749e+03 -3.4680316790800571e+05 -1.4950553659473613e+07 
+9.9999999999999805e+00 -5.3685180029865598e-01 +7.3595203135458602e+00 -2.9992290083409218e-01 +1.6804745400085292e+01 +2.9688549265686611e+03 -3.4887138637694577e+05 -1.5190833208042005e+07 
+1.0100000000000000e+01 -5.3685224957760802e-01 +7.3595069491203411e+00 -3.0362654708389808e-01 +1.7311116908682845e+01 +3.0312340752853315e+03 -3.5152695997591887e+05 -1.5398813862754479e+07 
