# field on trajectory
# s[mm] rx[mm] ry[mm] rz[mm] bx[T] by[T] bz[T]
0.0000000000000000e+00 +8.1649999999999991e+00 +0.0000000000000000e+00 +0.0000000000000000e+00 -2.9086403646146525e-02 -5.6475585899853054e-01 +5.6440762438047486e-03
1.0000000000000001e-01 +8.1649997168860597e+00 +0.0000000000000000e+00 +9.9999999999465641e-02 -2.9086432852820809e-02 -5.6475600445842733e-01 +5.6440976209683521e-03
2.0000000000000001e-01 +8.1649988675441385e+00 +0.0000000000000000e+00 +1.9999999999572515e-01 -2.9086456179335033e-02 -5.6475617087969365e-01 +5.6441194093668828e-03
3.0000000000000004e-01 +8.1649974519740702e+00 +0.0000000000000000e+00 +2.9999999998557236e-01 -2.9086474470555276e-02 -5.6475635636678490e-01 +5.6441415917485730e-03
4.0000000000000002e-01 +8.1649954701756702e+00 +0.0000000000000000e+00 +3.9999999996580116e-01 -2.9086488571339109e-02 -5.6475655902416466e-01 +5.6441641508620036e-03
5.0000000000000000e-01 +8.1649929221487341e+00 +0.0000000000000000e+00 +4.9999999993320537e-01 -2.9086499326536723e-02 -5.6475677695630211e-01 +5.6441870694561996e-03
5.9999999999999998e-01 +8.1649898078930434e+00 +0.0000000000000000e+00 +5.9999999988457886e-01 -2.9086507580992287e-02 -5.6475700826767483e-01 +5.6442103302807474e-03
6.9999999999999996e-01 +8.1649861274083673e+00 +0.0000000000000000e+00 +6.9999999981671546e-01 -2.9086514179545161e-02 -5.6475725106276664e-01 +5.6442339160858853e-03
7.9999999999999993e-01 +8.1649818806944605e+00 +0.0000000000000000e+00 +7.9999999972640901e-01 -2.9086519967031137e-02 -5.6475750344606845e-01 +5.6442578096226326e-03
8.9999999999999991e-01 +8.1649770677510727e+00 +0.0000000000000000e+00 +8.9999999961045329e-01 -2.9086525788283732e-02 -5.6475776352207896e-01 +5.6442819936428799e-03
9.9999999999999989e-01 +8.1649716885779426e+00 +0.0000000000000000e+00 +9.9999999946564222e-01 -2.9086532488135395e-02 -5.6475802939530351e-01 +5.6443064508995061e-03
1.0999999999999999e+00 +8.1649657431748039e+00 +0.0000000000000000e+00 +1.0999999992887695e+00 -2.9086540911418827e-02 -5.6475829917025455e-01 +5.6443311641464740e-03
1.2000000000000000e+00 +8.1649592315413866e+00 +0.0000000000000000e+00 +1.1999999990766290e+00 -2.9086551902968157e-02 -5.6475857095145143e-01 +5.6443561161389584e-03
1.3000000000000000e+00 +8.1649521536774188e+00 +0.0000000000000000e+00 +1.2999999988260147e+00 -2.9086566307620274e-02 -5.6475884284342126e-01 +5.6443812896334235e-03
1.4000000000000001e+00 +8.1649445095826287e+00 +0.0000000000000000e+00 +1.3999999985337201e+00 -2.9086584970216007e-02 -5.6475911295069792e-01 +5.6444066673877547e-03
1.5000000000000002e+00 +8.1649362992567447e+00 +0.0000000000000000e+00 +1.4999999981965393e+00 -2.9086608735601448e-02 -5.6475937937782239e-01 +5.6444322321613566e-03
1.6000000000000003e+00 +8.1649275226995002e+00 +0.0000000000000000e+00 +1.5999999978112660e+00 -2.9086638448629156e-02 -5.6475964022934333e-01 +5.6444579667152585e-03
1.7000000000000004e+00 +8.1649181799106341e+00 +0.0000000000000000e+00 +1.6999999973746940e+00 -2.9086674954159449e-02 -5.6475989360981604e-01 +5.6444838538122280e-03
1.8000000000000005e+00 +8.1649082708898941e+00 +0.0000000000000000e+00 +1.7999999968836169e+00 -2.9086719097061620e-02 -5.6476013762380317e-01 +5.6445098762168654e-03
1.9000000000000006e+00 +8.1648977956370352e+00 +0.0000000000000000e+00 +1.8999999963348286e+00 -2.9086771722215229e-02 -5.6476037037587501e-01 +5.6445360166957267e-03
2.0000000000000004e+00 +8.1648867541518246e+00 +0.0000000000000000e+00 +1.9999999957251231e+00 -2.9086833674511342e-02 -5.6476058997060852e-01 +5.6445622580174222e-03
2.1000000000000005e+00 +8.1648751464340421e+00 +0.0000000000000000e+00 +2.0999999950512938e+00 -2.9086905503298933e-02 -5.6476079478646768e-01 +5.6445885975278569e-03
2.2000000000000006e+00 +8.1648629724834834e+00 +0.0000000000000000e+00 +2.1999999943101347e+00 -2.9086986575715939e-02 -5.6476098429743948e-01 +5.6446150908757231e-03
2.3000000000000007e+00 +8.1648502322999583e+00 +0.0000000000000000e+00 +2.2999999934984396e+00 -2.9087075963344453e-02 -5.6476115825138717e-01 +5.6446418082870386e-03
2.4000000000000008e+00 +8.1648369258832947e+00 +0.0000000000000000e+00 +2.3999999926130022e+00 -2.9087172737763640e-02 -5.6476131639616856e-01 +5.6446688199900917e-03
2.5000000000000009e+00 +8.1648230532333326e+00 +0.0000000000000000e+00 +2.4999999916506166e+00 -2.9087275970549047e-02 -5.6476145847963544e-01 +5.6446961962155241e-03
2.6000000000000010e+00 +8.1648086143499299e+00 +0.0000000000000000e+00 +2.5999999906080764e+00 -2.9087384733271958e-02 -5.6476158424963174e-01 +5.6447240071964095e-03
2.7000000000000011e+00 +8.1647936092329623e+00 +0.0000000000000000e+00 +2.6999999894821749e+00 -2.9087498097498644e-02 -5.6476169345399185e-01 +5.6447523231683422e-03
2.8000000000000012e+00 +8.1647780378823196e+00 +0.0000000000000000e+00 +2.7999999882697066e+00 -2.9087615134789711e-02 -5.6476178584054115e-01 +5.6447812143695271e-03
2.9000000000000012e+00 +8.1647619002979095e+00 +0.0000000000000000e+00 +2.8999999869674649e+00 -2.9087734916699394e-02 -5.6476186115709226e-01 +5.6448107510408555e-03
3.0000000000000013e+00 +8.1647451964796574e+00 +0.0000000000000000e+00 +2.9999999855722437e+00 -2.9087856514774885e-02 -5.6476191915144625e-01 +5.6448410034260037e-03
3.1000000000000014e+00 +8.1647279264275063e+00 +0.0000000000000000e+00 +3.0999999840808368e+00 -2.9087979000555649e-02 -5.6476195957138975e-01 +5.6448720417715016e-03
3.2000000000000015e+00 +8.1647100901414156e+00 +0.0000000000000000e+00 +3.1999999824900378e+00 -2.9088101445572688e-02 -5.6476198216469431e-01 +5.6449039363268335e-03
3.3000000000000016e+00 +8.1646916876213638e+00 +0.0000000000000000e+00 +3.2999999807966405e+00 -2.9088222921347915e-02 -5.6476198667911559e-01 +5.6449367573445132e-03
3.4000000000000017e+00 +8.1646727188673474e+00 +0.0000000000000000e+00 +3.3999999789974389e+00 -2.9088342499393433e-02 -5.6476197286239105e-01 +5.6449705750801736e-03
3.5000000000000018e+00 +8.1646531838793805e+00 +0.0000000000000000e+00 +3.4999999770892263e+00 -2.9088459251210862e-02 -5.6476194046223960e-01 +5.6450054597926517e-03
3.6000000000000019e+00 +8.1646330826574953e+00 +0.0000000000000000e+00 +3.5999999750687972e+00 -2.9088572248290610e-02 -5.6476188922636061e-01 +5.6450414817440743e-03
3.7000000000000020e+00 +8.1646124152017450e+00 +0.0000000000000000e+00 +3.6999999729329449e+00 -2.9088680562111273e-02 -5.6476181890243149e-01 +5.6450787111999388e-03
3.8000000000000020e+00 +8.1645911815122005e+00 +0.0000000000000000e+00 +3.7999999706784635e+00 -2.9088783264138843e-02 -5.6476172923810730e-01 +5.6451172184292069e-03
3.9000000000000021e+00 +8.1645693815889526e+00 +0.0000000000000000e+00 +3.8999999683021467e+00 -2.9088879425826070e-02 -5.6476161998101959e-01 +5.6451570737043755e-03
4.0000000000000018e+00 +8.1645470154321096e+00 +0.0000000000000000e+00 +3.9999999658007881e+00 -2.9088968118611835e-02 -5.6476149087877547e-01 +5.6451983473015882e-03
4.1000000000000014e+00 +8.1645240830418047e+00 +0.0000000000000000e+00 +4.0999999631711814e+00 -2.9089048768355892e-02 -5.6476134213399254e-01 +5.6452410745063599e-03
4.2000000000000011e+00 +8.1645005844181853e+00 +0.0000000000000000e+00 +4.1999999604101212e+00 -2.9089122218654225e-02 -5.6476117576942597e-01 +5.6452851506276882e-03
4.3000000000000007e+00 +8.1644765195614202e+00 +0.0000000000000000e+00 +4.2999999575144008e+00 -2.9089189667545232e-02 -5.6476099426286885e-01 +5.6453304359758713e-03
4.4000000000000004e+00 +8.1644518884716906e+00 +0.0000000000000000e+00 +4.3999999544808146e+00 -2.9089252313076068e-02 -5.6476080009211582e-01 +5.6453767908557738e-03
4.5000000000000000e+00 +8.1644266911491918e+00 +0.0000000000000000e+00 +4.4999999513061555e+00 -2.9089311353303351e-02 -5.6476059573496384e-01 +5.6454240755663904e-03
4.5999999999999996e+00 +8.1644009275941301e+00 +0.0000000000000000e+00 +4.5999999479872180e+00 -2.9089367986293857e-02 -5.6476038366921277e-01 +5.6454721504004025e-03
4.6999999999999993e+00 +8.1643745978067184e+00 +0.0000000000000000e+00 +4.6999999445207958e+00 -2.9089423410125319e-02 -5.6476016637266580e-01 +5.6455208756437496e-03
4.7999999999999989e+00 +8.1643477017871753e+00 +0.0000000000000000e+00 +4.7999999409036826e+00 -2.9089478822887101e-02 -5.6475994632313042e-01 +5.6455701115751874e-03
4.8999999999999986e+00 +8.1643202395357228e+00 +0.0000000000000000e+00 +4.8999999371326730e+00 -2.9089535422680893e-02 -5.6475972599841817e-01 +5.6456197184658581e-03
4.9999999999999982e+00 +8.1642922110525813e+00 +0.0000000000000000e+00 +4.9999999332045597e+00 -2.9089594407621482e-02 -5.6475950787634543e-01 +5.6456695565788384e-03
5.0999999999999979e+00 +8.1642636163379709e+00 +0.0000000000000000e+00 +5.0999999291161373e+00 -2.9089656975837475e-02 -5.6475929443473516e-01 +5.6457194861687246e-03
5.1999999999999975e+00 +8.1642344553921067e+00 +0.0000000000000000e+00 +5.1999999248641995e+00 -2.9089724325471994e-02 -5.6475908815141551e-01 +5.6457693674811784e-03
5.2999999999999972e+00 +8.1642047282151964e+00 +0.0000000000000000e+00 +5.2999999204455408e+00 -2.9089797654683378e-02 -5.6475889150422143e-01 +5.6458190607524958e-03
5.3999999999999968e+00 +8.1641744348074354e+00 +0.0000000000000000e+00 +5.3999999158569540e+00 -2.9089878161645984e-02 -5.6475870697099573e-01 +5.6458684262091739e-03
5.4999999999999964e+00 +8.1641435751690121e+00 +0.0000000000000000e+00 +5.4999999110952338e+00 -2.9089967044550771e-02 -5.6475853702958789e-01 +5.6459173240674702e-03
5.5999999999999961e+00 +8.1641121493000970e+00 +0.0000000000000000e+00 +5.5999999061571737e+00 -2.9090065501606220e-02 -5.6475838415785640e-01 +5.6459656145329742e-03
5.6999999999999957e+00 +8.1640801572008446e+00 +0.0000000000000000e+00 +5.6999999010395674e+00 -2.9090174731038823e-02 -5.6475825083366826e-01 +5.6460131578001541e-03
5.7999999999999954e+00 +8.1640475988713881e+00 +0.0000000000000000e+00 +5.7999998957392096e+00 -2.9090295931093989e-02 -5.6475813953490006e-01 +5.6460598140519423e-03
5.8999999999999950e+00 +8.1640144743118412e+00 +0.0000000000000000e+00 +5.8999998902528938e+00 -2.9090430300036649e-02 -5.6475805273943813e-01 +5.6461054434592825e-03
5.9999999999999947e+00 +8.1639807835222911e+00 +0.0000000000000000e+00 +5.9999998845774138e+00 -2.9090579036152045e-02 -5.6475799292517881e-01 +5.6461499061806926e-03
6.0999999999999943e+00 +8.1639465265027980e+00 +0.0000000000000000e+00 +6.0999998787095633e+00 -2.9090742924842601e-02 -5.6475796195922734e-01 +5.6461930967122223e-03
6.1999999999999940e+00 +8.1639117032533957e+00 +0.0000000000000000e+00 +6.1999998726461358e+00 -2.9090921099908039e-02 -5.6475795926547345e-01 +5.6462350469433636e-03
6.2999999999999936e+00 +8.1638763137740860e+00 +0.0000000000000000e+00 +6.2999998663839261e+00 -2.9091112282253733e-02 -5.6475798365698748e-01 +5.6462758231139486e-03
6.3999999999999932e+00 +8.1638403580648475e+00 +0.0000000000000000e+00 +6.3999998599197268e+00 -2.9091315192796820e-02 -5.6475803394682489e-01 +5.6463154914648756e-03
6.4999999999999929e+00 +8.1638038361256307e+00 +0.0000000000000000e+00 +6.4999998532503325e+00 -2.9091528552466422e-02 -5.6475810894802581e-01 +5.6463541182382370e-03
6.5999999999999925e+00 +8.1637667479563607e+00 +0.0000000000000000e+00 +6.5999998463725369e+00 -2.9091751082204007e-02 -5.6475820747361383e-01 +5.6463917696774812e-03
6.6999999999999922e+00 +8.1637290935569418e+00 +0.0000000000000000e+00 +6.6999998392831337e+00 -2.9091981502963583e-02 -5.6475832833659578e-01 +5.6464285120275534e-03
6.7999999999999918e+00 +8.1636908729272530e+00 +0.0000000000000000e+00 +6.7999998319789174e+00 -2.9092218535712006e-02 -5.6475847034996185e-01 +5.6464644115350416e-03
6.8999999999999915e+00 +8.1636520860671524e+00 +0.0000000000000000e+00 +6.8999998244566809e+00 -2.9092460901429328e-02 -5.6475863232668455e-01 +5.6464995344483390e-03
6.9999999999999911e+00 +8.1636127329764800e+00 +0.0000000000000000e+00 +6.9999998167132187e+00 -2.9092707321108986e-02 -5.6475881307971743e-01 +5.6465339470177659e-03
7.0999999999999908e+00 +8.1635728136550565e+00 +0.0000000000000000e+00 +7.0999998087453235e+00 -2.9092956515758175e-02 -5.6475901142199603e-01 +5.6465677154957468e-03
7.1999999999999904e+00 +8.1635323281026828e+00 +0.0000000000000000e+00 +7.1999998005497901e+00 -2.9093207206398040e-02 -5.6475922616643559e-01 +5.6466009061369258e-03
7.2999999999999901e+00 +8.1634912763191476e+00 +0.0000000000000000e+00 +7.2999997921234110e+00 -2.9093458114064028e-02 -5.6475945612593226e-01 +5.6466335851983445e-03
7.3999999999999897e+00 +8.1634496583042200e+00 +0.0000000000000000e+00 +7.3999997834629809e+00 -2.9093707959806158e-02 -5.6475970011336185e-01 +5.6466658189395719e-03
7.4999999999999893e+00 +8.1634074740576565e+00 +0.0000000000000000e+00 +7.4999997745652935e+00 -2.9093955464689292e-02 -5.6475995694157843e-01 +5.6466976736228563e-03
7.5999999999999890e+00 +8.1633647235792015e+00 +0.0000000000000000e+00 +7.5999997654271425e+00 -2.9094199349793435e-02 -5.6476022542341520e-01 +5.6467292155132657e-03
7.6999999999999886e+00 +8.1633214068685866e+00 +0.0000000000000000e+00 +7.6999997560453215e+00 -2.9094438336213987e-02 -5.6476050437168346e-01 +5.6467605108788460e-03
7.7999999999999883e+00 +8.1632775239255349e+00 +0.0000000000000000e+00 +7.7999997464166242e+00 -2.9094671145062097e-02 -5.6476079259917156e-01 +5.6467916259907627e-03
7.8999999999999879e+00 +8.1632330747497583e+00 +0.0000000000000000e+00 +7.8999997365378443e+00 -2.9094896497464860e-02 -5.6476108891864485e-01 +5.6468226271234462e-03
7.9999999999999876e+00 +8.1631880593409605e+00 +0.0000000000000000e+00 +7.9999997264057754e+00 -2.9095113114565665e-02 -5.6476139214284493e-01 +5.6468535805547357e-03
8.0999999999999872e+00 +8.1631424776988393e+00 +0.0000000000000000e+00 +8.0999997160172104e+00 -2.9095319965403228e-02 -5.6476170108670065e-01 +5.6468845464583851e-03
8.1999999999999869e+00 +8.1630963298230874e+00 +0.0000000000000000e+00 +8.1999997053689437e+00 -2.9095517010537333e-02 -5.6476201457396569e-01 +5.6469155605812886e-03
8.2999999999999865e+00 +8.1630496157133923e+00 +0.0000000000000000e+00 +8.2999996944577692e+00 -2.9095704458374991e-02 -5.6476233143060506e-01 +5.6469466525672276e-03
8.3999999999999861e+00 +8.1630023353694376e+00 +0.0000000000000000e+00 +8.3999996832804804e+00 -2.9095882517281527e-02 -5.6476265048258545e-01 +5.6469778520648588e-03
8.4999999999999858e+00 +8.1629544887909038e+00 +0.0000000000000000e+00 +8.4999996718338711e+00 -2.9096051395579095e-02 -5.6476297055587599e-01 +5.6470091887278950e-03
8.5999999999999854e+00 +8.1629060759774728e+00 +0.0000000000000000e+00 +8.5999996601147348e+00 -2.9096211301545289e-02 -5.6476329047644835e-01 +5.6470406922152789e-03
8.6999999999999851e+00 +8.1628570969288248e+00 +0.0000000000000000e+00 +8.6999996481198636e+00 -2.9096362443411683e-02 -5.6476360907027767e-01 +5.6470723921913518e-03
8.7999999999999847e+00 +8.1628075516446419e+00 +0.0000000000000000e+00 +8.7999996358460528e+00 -2.9096505029362320e-02 -5.6476392516334117e-01 +5.6471043183260261e-03
8.8999999999999844e+00 +8.1627574401246097e+00 +0.0000000000000000e+00 +8.8999996232900962e+00 -2.9096639267532348e-02 -5.6476423758162120e-01 +5.6471365002949683e-03
8.9999999999999840e+00 +8.1627067623684173e+00 +0.0000000000000000e+00 +8.9999996104487874e+00 -2.9096765366006503e-02 -5.6476454515110230e-01 +5.6471689677797601e-03
9.0999999999999837e+00 +8.1626555183757574e+00 +0.0000000000000000e+00 +9.0999995973189183e+00 -2.9096883532817738e-02 -5.6476484669777471e-01 +5.6472017504680828e-03
9.1999999999999833e+00 +8.1626037081463281e+00 +0.0000000000000000e+00 +9.1999995838972843e+00 -2.9096993975945697e-02 -5.6476514104763154e-01 +5.6472348780538893e-03
9.2999999999999829e+00 +8.1625513316798379e+00 +0.0000000000000000e+00 +9.2999995701806792e+00 -2.9097096903315321e-02 -5.6476542702667143e-01 +5.6472683802375676e-03
9.3999999999999826e+00 +8.1624983889760010e+00 +0.0000000000000000e+00 +9.3999995561658949e+00 -2.9097192522795357e-02 -5.6476570346089761e-01 +5.6473022867261254e-03
9.4999999999999822e+00 +8.1624448800345419e+00 +0.0000000000000000e+00 +9.4999995418497267e+00 -2.9097281042197002e-02 -5.6476596917631872e-01 +5.6473366272333566e-03
9.5999999999999819e+00 +8.1623908048551961e+00 +0.0000000000000000e+00 +9.5999995272289667e+00 -2.9097362669272337e-02 -5.6476622299894874e-01 +5.6473714314800253e-03
9.6999999999999815e+00 +8.1623361634377112e+00 +0.0000000000000000e+00 +9.6999995123004101e+00 -2.9097437611712983e-02 -5.6476646375480755e-01 +5.6474067291940244e-03
9.7999999999999812e+00 +8.1622809557818474e+00 +0.0000000000000000e+00 +9.7999994970608491e+00 -2.9097506077148623e-02 -5.6476669026992155e-01 +5.6474425501105621e-03
9.8999999999999808e+00 +8.1622251818873792e+00 +0.0000000000000000e+00 +9.8999994815070771e+00 -2.9097568273145521e-02 -5.6476690137032215e-01 +5.6474789239723292e-03
9.9999999999999805e+00 +8.1621688417540970e+00 +0.0000000000000000e+00 +9.9999994656358897e+00 -2.9097624407205151e-02 -5.6476709588204865e-01 +5.6475158805296697e-03
1.0099999999999980e+01 +8.1621119353818088e+00 +0.0000000000000000e+00 +1.0099999449444079e+01 -2.9097674812883105e-02 -5.6476727310161778e-01 +5.6475534485825206e-03
1.0199999999999980e+01 +8.1620544627703371e+00 +0.0000000000000000e+00 +1.0199999432928438e+01 -2.9097720328189733e-02 -5.6476743420748343e-01 +5.6475916531037460e-03
1.0299999999999979e+01 +8.1619964239195220e+00 +0.0000000000000000e+00 +1.0299999416085761e+01 -2.9097761917282021e-02 -5.6476758084864165e-01 +5.6476305181105057e-03
1.0399999999999979e+01 +8.1619378188292195e+00 +0.0000000000000000e+00 +1.0399999398912843e+01 -2.9097800544348199e-02 -5.6476771467415054e-01 +5.6476700676220577e-03
1.0499999999999979e+01 +8.1618786474992966e+00 +0.0000000000000000e+00 +1.0499999381406477e+01 -2.9097837173608691e-02 -5.6476783733313152e-01 +5.6477103256597850e-03
1.0599999999999978e+01 +8.1618189099296323e+00 +0.0000000000000000e+00 +1.0599999363563455e+01 -2.9097872769317065e-02 -5.6476795047477180e-01 +5.6477513162472180e-03
1.0699999999999978e+01 +8.1617586061201148e+00 +0.0000000000000000e+00 +1.0699999345380572e+01 -2.9097908295761019e-02 -5.6476805574832478e-01 +5.6477930634100644e-03
1.0799999999999978e+01 +8.1616977360706393e+00 +0.0000000000000000e+00 +1.0799999326854623e+01 -2.9097944717263301e-02 -5.6476815480311238e-01 +5.6478355911762325e-03
1.0899999999999977e+01 +8.1616362997811098e+00 +0.0000000000000000e+00 +1.0899999307982400e+01 -2.9097982998182680e-02 -5.6476824928852642e-01 +5.6478789235758558e-03
1.0999999999999977e+01 +8.1615742972514322e+00 +0.0000000000000000e+00 +1.0999999288760696e+01 -2.9098024102914895e-02 -5.6476834085403049e-01 +5.6479230846413261e-03
1.1099999999999977e+01 +8.1615117284815177e+00 +0.0000000000000000e+00 +1.1099999269186306e+01 -2.9098068995893636e-02 -5.6476843114916142e-01 +5.6479680984073107e-03
1.1199999999999976e+01 +8.1614485934712775e+00 +0.0000000000000000e+00 +1.1199999249256022e+01 -2.9098118641591463e-02 -5.6476852182352966e-01 +5.6480139889107843e-03
1.1299999999999976e+01 +8.1613848922206209e+00 +0.0000000000000000e+00 +1.1299999228966639e+01 -2.9098174004520742e-02 -5.6476861452682370e-01 +5.6480607801910497e-03
1.1399999999999975e+01 +8.1613206247294592e+00 +0.0000000000000000e+00 +1.1399999208314950e+01 -2.9098236049234661e-02 -5.6476871090880887e-01 +5.6481084962897729e-03
1.1499999999999975e+01 +8.1612557909976964e+00 +0.0000000000000000e+00 +1.1499999187297751e+01 -2.9098305740328081e-02 -5.6476881261932987e-01 +5.6481571612510004e-03
1.1599999999999975e+01 +8.1611903910252330e+00 +0.0000000000000000e+00 +1.1599999165911834e+01 -2.9098384042438606e-02 -5.6476892130831291e-01 +5.6482067991211896e-03
1.1699999999999974e+01 +8.1611244248119608e+00 +0.0000000000000000e+00 +1.1699999144153992e+01 -2.9098471920247389e-02 -5.6476903862576644e-01 +5.6482574339492319e-03
1.1799999999999974e+01 +8.1610578923577659e+00 +0.0000000000000000e+00 +1.1799999122021019e+01 -2.9098570338480203e-02 -5.6476916622178397e-01 +5.6483090897864879e-03
