# field on trajectory
# s[mm] rx[mm] ry[mm] rz[mm] bx[T] by[T] bz[T]
0.0000000000000000e+00 +7.9199999999999999e+00 +0.0000000000000000e+00 +0.0000000000000000e+00 -3.2175591218548211e-02 -5.9433011893873899e-01 +5.9064370020457703e-03
1.0000000000000001e-01 +7.9199997170017626e+00 +0.0000000000000000e+00 +9.9999999999466085e-02 -3.2175702756549136e-02 -5.9433010453959900e-01 +5.9064767605594695e-03
2.0000000000000001e-01 +7.9199988680070579e+00 +0.0000000000000000e+00 +1.9999999999572865e-01 -3.2175820256653914e-02 -5.9433009842232831e-01 +5.9065157656194864e-03
3.0000000000000004e-01 +7.9199974530158928e+00 +0.0000000000000000e+00 +2.9999999998558419e-01 -3.2175942252072480e-02 -5.9433010027261302e-01 +5.9065542557664250e-03
4.0000000000000002e-01 +7.9199954720282646e+00 +0.0000000000000000e+00 +3.9999999996582913e-01 -3.2176067276014943e-02 -5.9433010977613399e-01 +5.9065924695395370e-03
5.0000000000000000e-01 +7.9199929250441645e+00 +0.0000000000000000e+00 +4.9999999993326000e-01 -3.2176193861690940e-02 -5.9433012661856544e-01 +5.9066306454769943e-03
5.9999999999999998e-01 +7.9199898120635766e+00 +0.0000000000000000e+00 +5.9999999988467323e-01 -3.2176320542309109e-02 -5.9433015048557658e-01 +5.9066690221161689e-03
6.9999999999999996e-01 +7.9199861330864785e+00 +0.0000000000000000e+00 +6.9999999981686534e-01 -3.2176445851076388e-02 -5.9433018106282964e-01 +5.9067078379938910e-03
7.9999999999999993e-01 +7.9199818881128410e+00 +0.0000000000000000e+00 +7.9999999972663283e-01 -3.2176568321197460e-02 -5.9433021803598052e-01 +5.9067473316467270e-03
8.9999999999999991e-01 +7.9199770771426294e+00 +0.0000000000000000e+00 +8.9999999961077215e-01 -3.2176686485874094e-02 -5.9433026109067721e-01 +5.9067877416112439e-03
9.9999999999999989e-01 +7.9199717001758030e+00 +0.0000000000000000e+00 +9.9999999946607976e-01 -3.2176798878304637e-02 -5.9433030991256219e-01 +5.9068293064243023e-03
1.0999999999999999e+00 +7.9199657572123145e+00 +0.0000000000000000e+00 +1.0999999992893521e+00 -3.2176904031683273e-02 -5.9433036418726937e-01 +5.9068722646233073e-03
1.2000000000000000e+00 +7.9199592482521135e+00 +0.0000000000000000e+00 +1.1999999990773857e+00 -3.2177000479199469e-02 -5.9433042360042465e-01 +5.9069168547464732e-03
1.3000000000000000e+00 +7.9199521732951430e+00 +0.0000000000000000e+00 +1.2999999988269773e+00 -3.2177086754037430e-02 -5.9433048783764675e-01 +5.9069633153331228e-03
1.4000000000000001e+00 +7.9199445323413427e+00 +0.0000000000000000e+00 +1.3999999985349230e+00 -3.2177161389375361e-02 -5.9433055658454537e-01 +5.9070118849239364e-03
1.5000000000000002e+00 +7.9199363253906467e+00 +0.0000000000000000e+00 +1.4999999981980192e+00 -3.2177222918384957e-02 -5.9433062952672233e-01 +5.9070628020612284e-03
1.6000000000000003e+00 +7.9199275524429869e+00 +0.0000000000000000e+00 +1.5999999978130626e+00 -3.2177269874230779e-02 -5.9433070634976992e-01 +5.9071163052892266e-03
1.7000000000000004e+00 +7.9199182134982893e+00 +0.0000000000000000e+00 +1.6999999973768496e+00 -3.2177300790069585e-02 -5.9433078673927164e-01 +5.9071726331543298e-03
1.8000000000000005e+00 +7.9199083085564776e+00 +0.0000000000000000e+00 +1.7999999968861768e+00 -3.2177314199049782e-02 -5.9433087038080112e-01 +5.9072320242053887e-03
1.9000000000000006e+00 +7.9198978376174738e+00 +0.0000000000000000e+00 +1.8999999963378404e+00 -3.2177308634310828e-02 -5.9433095695992322e-01 +5.9072947169939802e-03
2.0000000000000004e+00 +7.9198868006811942e+00 +0.0000000000000000e+00 +1.9999999957286372e+00 -3.2177282628982548e-02 -5.9433104616219201e-01 +5.9073609500746669e-03
2.1000000000000005e+00 +7.9198751977475554e+00 +0.0000000000000000e+00 +2.0999999950553634e+00 -3.2177235284975458e-02 -5.9433113769087165e-01 +5.9074309087888141e-03
2.2000000000000006e+00 +7.9198630288164704e+00 +0.0000000000000000e+00 +2.1999999943148154e+00 -3.2177167979359114e-02 -5.9433123132009991e-01 +5.9075045656142933e-03
2.3000000000000007e+00 +7.9198502938878503e+00 +0.0000000000000000e+00 +2.2999999935037900e+00 -3.2177082658000393e-02 -5.9433132684173851e-01 +5.9075818398130380e-03
2.4000000000000008e+00 +7.9198369929616046e+00 +0.0000000000000000e+00 +2.3999999926190831e+00 -3.2176981266775442e-02 -5.9433142404765604e-01 +5.9076626506471257e-03
2.5000000000000009e+00 +7.9198231260376408e+00 +0.0000000000000000e+00 +2.4999999916574915e+00 -3.2176865751571235e-02 -5.9433152272972889e-01 +5.9077469173786706e-03
2.6000000000000010e+00 +7.9198086931158658e+00 +0.0000000000000000e+00 +2.5999999906158120e+00 -3.2176738058287045e-02 -5.9433162267984274e-01 +5.9078345592696929e-03
2.7000000000000011e+00 +7.9197936941961844e+00 +0.0000000000000000e+00 +2.6999999894908404e+00 -3.2176600132835950e-02 -5.9433172368989495e-01 +5.9079254955820065e-03
2.8000000000000012e+00 +7.9197781292785017e+00 +0.0000000000000000e+00 +2.7999999882793736e+00 -3.2176453921146438e-02 -5.9433182555179509e-01 +5.9080196455770844e-03
2.9000000000000012e+00 +7.9197619983627208e+00 +0.0000000000000000e+00 +2.8999999869782078e+00 -3.2176301369163850e-02 -5.9433192805746637e-01 +5.9081169285159496e-03
3.0000000000000013e+00 +7.9197453014487440e+00 +0.0000000000000000e+00 +2.9999999855841395e+00 -3.2176144422851903e-02 -5.9433203099884824e-01 +5.9082172636590524e-03
3.1000000000000014e+00 +7.9197280385364746e+00 +0.0000000000000000e+00 +3.0999999840939654e+00 -3.2175985028194277e-02 -5.9433213416789676e-01 +5.9083205702661363e-03
3.2000000000000015e+00 +7.9197102096258147e+00 +0.0000000000000000e+00 +3.1999999825044814e+00 -3.2175825131196024e-02 -5.9433223735658669e-01 +5.9084267675961356e-03
3.3000000000000016e+00 +7.9196918147166668e+00 +0.0000000000000000e+00 +3.2999999808124842e+00 -3.2175666677885205e-02 -5.9433234035691240e-01 +5.9085357749070408e-03
3.4000000000000017e+00 +7.9196728538089332e+00 +0.0000000000000000e+00 +3.3999999790147708e+00 -3.2175511614314305e-02 -5.9433244296089038e-01 +5.9086475114557783e-03
3.5000000000000018e+00 +7.9196533269025169e+00 +0.0000000000000000e+00 +3.4999999771081369e+00 -3.2175361886561830e-02 -5.9433254496055965e-01 +5.9087618964980939e-03
3.6000000000000019e+00 +7.9196332339973212e+00 +0.0000000000000000e+00 +3.5999999750893794e+00 -3.2175219440733760e-02 -5.9433264614798376e-01 +5.9088788492884280e-03
3.7000000000000020e+00 +7.9196125750932502e+00 +0.0000000000000000e+00 +3.6999999729552941e+00 -3.2175086222965110e-02 -5.9433274631525224e-01 +5.9089982890797952e-03
3.8000000000000020e+00 +7.9195913501902098e+00 +0.0000000000000000e+00 +3.7999999707026779e+00 -3.2174964179421457e-02 -5.9433284525448249e-01 +5.9091201351236617e-03
3.9000000000000021e+00 +7.9195695592881066e+00 +0.0000000000000000e+00 +3.8999999683283275e+00 -3.2174855256300358e-02 -5.9433294275781989e-01 +5.9092443066698173e-03
4.0000000000000018e+00 +7.9195472023868474e+00 +0.0000000000000000e+00 +3.9999999658290388e+00 -3.2174761399833003e-02 -5.9433303861744124e-01 +5.9093707229662699e-03
4.1000000000000014e+00 +7.9195242794863425e+00 +0.0000000000000000e+00 +4.0999999632016086e+00 -3.2174684282588704e-02 -5.9433313270358068e-01 +5.9094992938853695e-03
4.2000000000000011e+00 +7.9195007905865031e+00 +0.0000000000000000e+00 +4.1999999604428329e+00 -3.2174624482366528e-02 -5.9433322519859211e-01 +5.9096298918033720e-03
4.3000000000000007e+00 +7.9194767356872413e+00 +0.0000000000000000e+00 +4.2999999575495087e+00 -3.2174582303255761e-02 -5.9433331636285447e-01 +5.9097623797232995e-03
4.4000000000000004e+00 +7.9194521147884718e+00 +0.0000000000000000e+00 +4.3999999545184316e+00 -3.2174558049327298e-02 -5.9433340645673938e-01 +5.9098966206489762e-03
4.5000000000000000e+00 +7.9194269278901093e+00 +0.0000000000000000e+00 +4.4999999513463989e+00 -3.2174552024632042e-02 -5.9433349574061201e-01 +5.9100324775850808e-03
4.5999999999999996e+00 +7.9194011749920685e+00 +0.0000000000000000e+00 +4.5999999480302067e+00 -3.2174564533199120e-02 -5.9433358447482887e-01 +5.9101698135371940e-03
4.6999999999999993e+00 +7.9193748560942669e+00 +0.0000000000000000e+00 +4.6999999445666516e+00 -3.2174595879034228e-02 -5.9433367291973860e-01 +5.9103084915118472e-03
4.7999999999999989e+00 +7.9193479711966210e+00 +0.0000000000000000e+00 +4.7999999409525298e+00 -3.2174646366117901e-02 -5.9433376133567861e-01 +5.9104483745165753e-03
4.8999999999999986e+00 +7.9193205202990473e+00 +0.0000000000000000e+00 +4.8999999371846377e+00 -3.2174716298403856e-02 -5.9433384998297800e-01 +5.9105893255599713e-03
4.9999999999999982e+00 +7.9192925034014623e+00 +0.0000000000000000e+00 +4.9999999332597715e+00 -3.2174805979817180e-02 -5.9433393912195265e-01 +5.9107312076517298e-03
5.0999999999999979e+00 +7.9192639205037816e+00 +0.0000000000000000e+00 +5.0999999291747278e+00 -3.2174915714252746e-02 -5.9433402901290622e-01 +5.9108738838026921e-03
5.1999999999999975e+00 +7.9192347716059208e+00 +0.0000000000000000e+00 +5.1999999249263027e+00 -3.2175045805573427e-02 -5.9433411991612961e-01 +5.9110172170249130e-03
5.2999999999999972e+00 +7.9192050567077938e+00 +0.0000000000000000e+00 +5.2999999205112935e+00 -3.2175196557608469e-02 -5.9433421209190029e-01 +5.9111610703317030e-03
5.3999999999999968e+00 +7.9191747758093145e+00 +0.0000000000000000e+00 +5.3999999159264958e+00 -3.2175368274151663e-02 -5.9433430580047930e-01 +5.9113053067376652e-03
5.4999999999999964e+00 +7.9191439289103940e+00 +0.0000000000000000e+00 +5.4999999111687066e+00 -3.2175561258959727e-02 -5.9433440130211279e-01 +5.9114497892587756e-03
5.5999999999999961e+00 +7.9191125160109426e+00 +0.0000000000000000e+00 +5.5999999062347214e+00 -3.2175775815750617e-02 -5.9433449885703005e-01 +5.9115943809124006e-03
5.6999999999999957e+00 +7.9190805371108679e+00 +0.0000000000000000e+00 +5.6999999011213376e+00 -3.2176012248201748e-02 -5.9433459872544303e-01 +5.9117389447173778e-03
5.7999999999999954e+00 +7.9190479922100767e+00 +0.0000000000000000e+00 +5.7999998958253514e+00 -3.2176270859948342e-02 -5.9433470116754461e-01 +5.9118833436940417e-03
5.8999999999999950e+00 +7.9190148813084713e+00 +0.0000000000000000e+00 +5.8999998903435591e+00 -3.2176551954581682e-02 -5.9433480644350845e-01 +5.9120274408642950e-03
5.9999999999999947e+00 +7.9189812044059531e+00 +0.0000000000000000e+00 +5.9999998846727562e+00 -3.2176855835647430e-02 -5.9433491481348844e-01 +5.9121710992516424e-03
6.0999999999999943e+00 +7.9189469615024199e+00 +0.0000000000000000e+00 +6.0999998788097400e+00 -3.2177182262405020e-02 -5.9433502649589109e-01 +5.9123142082462147e-03
6.1999999999999940e+00 +7.9189121525977670e+00 +0.0000000000000000e+00 +6.1999998727513068e+00 -3.2177528817125517e-02 -5.9433514154220413e-01 +5.9124567626992006e-03
6.2999999999999936e+00 +7.9188767776918851e+00 +0.0000000000000000e+00 +6.2999998664942529e+00 -3.2177892537853504e-02 -5.9433525996218040e-01 +5.9125987838262953e-03
6.3999999999999932e+00 +7.9188408367846632e+00 +0.0000000000000000e+00 +6.3999998600353747e+00 -3.2178270462656734e-02 -5.9433538176556788e-01 +5.9127402928422952e-03
6.4999999999999929e+00 +7.9188043298759867e+00 +0.0000000000000000e+00 +6.4999998533714693e+00 -3.2178659629627418e-02 -5.9433550696210813e-01 +5.9128813109610451e-03
6.5999999999999925e+00 +7.9187672569657366e+00 +0.0000000000000000e+00 +6.5999998464993324e+00 -3.2179057076883372e-02 -5.9433563556153601e-01 +5.9130218593953753e-03
6.6999999999999922e+00 +7.9187296180537921e+00 +0.0000000000000000e+00 +6.6999998394157601e+00 -3.2179459842569272e-02 -5.9433576757358031e-01 +5.9131619593570653e-03
6.7999999999999918e+00 +7.9186914131400288e+00 +0.0000000000000000e+00 +6.7999998321175488e+00 -3.2179864964857877e-02 -5.9433590300796257e-01 +5.9133016320567690e-03
6.8999999999999915e+00 +7.9186526422243189e+00 +0.0000000000000000e+00 +6.8999998246014957e+00 -3.2180269481951219e-02 -5.9433604187439748e-01 +5.9134408987039713e-03
6.9999999999999911e+00 +7.9186133053065308e+00 +0.0000000000000000e+00 +6.9999998168643964e+00 -3.2180670432081872e-02 -5.9433618418259215e-01 +5.9135797805069338e-03
7.0999999999999908e+00 +7.9185734023865306e+00 +0.0000000000000000e+00 +7.0999998089030472e+00 -3.2181064853514130e-02 -5.9433632994224717e-01 +5.9137182986726431e-03
7.1999999999999904e+00 +7.9185329334641814e+00 +0.0000000000000000e+00 +7.1999998007142452e+00 -3.2181449784545242e-02 -5.9433647916305465e-01 +5.9138564744067382e-03
7.2999999999999901e+00 +7.9184918985393420e+00 +0.0000000000000000e+00 +7.2999997922947859e+00 -3.2181822263506667e-02 -5.9433663185469965e-01 +5.9139943289134777e-03
7.3999999999999897e+00 +7.9184502976118676e+00 +0.0000000000000000e+00 +7.3999997836414657e+00 -3.2182179328765236e-02 -5.9433678802685852e-01 +5.9141318833956721e-03
7.4999999999999893e+00 +7.9184081306816116e+00 +0.0000000000000000e+00 +7.4999997747510818e+00 -3.2182518018724481e-02 -5.9433694768919987e-01 +5.9142691590546373e-03
7.5999999999999890e+00 +7.9183653977484232e+00 +0.0000000000000000e+00 +7.5999997656204297e+00 -3.2182835371825778e-02 -5.9433711085138441e-01 +5.9144061770901347e-03
7.6999999999999886e+00 +7.9183220988121485e+00 +0.0000000000000000e+00 +7.6999997562463065e+00 -3.2183128426549606e-02 -5.9433727752306320e-01 +5.9145429587003145e-03
7.7999999999999883e+00 +7.9182782338726296e+00 +0.0000000000000000e+00 +7.7999997466255078e+00 -3.2183394221416771e-02 -5.9433744771387942e-01 +5.9146795250816630e-03
7.8999999999999879e+00 +7.9182338029297066e+00 +0.0000000000000000e+00 +7.8999997367548307e+00 -3.2183629794989684e-02 -5.9433762143346702e-01 +5.9148158974289544e-03
7.9999999999999876e+00 +7.9181888059832151e+00 +0.0000000000000000e+00 +7.9999997266310707e+00 -3.2183832185873534e-02 -5.9433779869145087e-01 +5.9149520969351806e-03
8.0999999999999872e+00 +7.9181432430329872e+00 +0.0000000000000000e+00 +8.0999997162510251e+00 -3.2183999392057870e-02 -5.9433797931428478e-01 +5.9150881587741949e-03
8.1999999999999869e+00 +7.9180971140788534e+00 +0.0000000000000000e+00 +8.1999997056114893e+00 -3.2184133248950156e-02 -5.9433816239577253e-01 +5.9152241740504201e-03
8.2999999999999865e+00 +7.9180504191206404e+00 +0.0000000000000000e+00 +8.2999996947092587e+00 -3.2184236551304694e-02 -5.9433834684657738e-01 +5.9153602478528378e-03
8.3999999999999861e+00 +7.9180031581581733e+00 +0.0000000000000000e+00 +8.3999996835411324e+00 -3.2184312093860981e-02 -5.9433853157738847e-01 +5.9154964852724517e-03
8.4999999999999858e+00 +7.9179553311912789e+00 +0.0000000000000000e+00 +8.4999996721039039e+00 -3.2184362671343086e-02 -5.9433871549892303e-01 +5.9156329914023410e-03
8.5999999999999854e+00 +7.9179069382197840e+00 +0.0000000000000000e+00 +8.5999996603943707e+00 -3.2184391078459100e-02 -5.9433889752192814e-01 +5.9157698713377359e-03
8.6999999999999851e+00 +7.9178579792435162e+00 +0.0000000000000000e+00 +8.6999996484093298e+00 -3.2184400109900334e-02 -5.9433907655717932e-01 +5.9159072301760776e-03
8.7999999999999847e+00 +7.9178084542623060e+00 +0.0000000000000000e+00 +8.7999996361455768e+00 -3.2184392560340842e-02 -5.9433925151548328e-01 +5.9160451730170711e-03
8.8999999999999844e+00 +7.9177583632759898e+00 +0.0000000000000000e+00 +8.8999996235999070e+00 -3.2184371224436681e-02 -5.9433942130767792e-01 +5.9161838049627642e-03
8.9999999999999840e+00 +7.9177077062844070e+00 +0.0000000000000000e+00 +8.9999996107691196e+00 -3.2184338896825267e-02 -5.9433958484463345e-01 +5.9163232311175906e-03
9.0999999999999837e+00 +7.9176564832874030e+00 +0.0000000000000000e+00 +9.0999995976500081e+00 -3.2184298372124762e-02 -5.9433974103725362e-01 +5.9164635565884544e-03
9.1999999999999833e+00 +7.9176046942848313e+00 +0.0000000000000000e+00 +9.1999995842393698e+00 -3.2184252444933406e-02 -5.9433988879647615e-01 +5.9166048864847743e-03
9.2999999999999829e+00 +7.9175523392765532e+00 +0.0000000000000000e+00 +9.2999995705340002e+00 -3.2184203909828901e-02 -5.9434002703327360e-01 +5.9167473259185491e-03
9.3999999999999826e+00 +7.9174994182624383e+00 +0.0000000000000000e+00 +9.3999995565306964e+00 -3.2184155561367701e-02 -5.9434015465865453e-01 +5.9168909800044337e-03
9.4999999999999822e+00 +7.9174459312423675e+00 +0.0000000000000000e+00 +9.4999995422262558e+00 -3.2184110194084403e-02 -5.9434027058366423e-01 +5.9170359538597839e-03
9.5999999999999819e+00 +7.9173918782162316e+00 +0.0000000000000000e+00 +9.5999995276174737e+00 -3.2184070602491080e-02 -5.9434037371938553e-01 +5.9171823526047258e-03
9.6999999999999815e+00 +7.9173372591839346e+00 +0.0000000000000000e+00 +9.6999995127011456e+00 -3.2184039581076629e-02 -5.9434046297694021e-01 +5.9173302813622253e-03
9.7999999999999812e+00 +7.9172820741453931e+00 +0.0000000000000000e+00 +9.7999994974740687e+00 -3.2184019924306091e-02 -5.9434053726748903e-01 +5.9174798452581358e-03
9.8999999999999808e+00 +7.9172263231005386e+00 +0.0000000000000000e+00 +9.8999994819330386e+00 -3.2184014426620035e-02 -5.9434059550223317e-01 +5.9176311494212649e-03
9.9999999999999805e+00 +7.9171700060493171e+00 +0.0000000000000000e+00 +9.9999994660748524e+00 -3.2184025882433867e-02 -5.9434063659241532e-01 +5.9177842989834480e-03
1.0099999999999980e+01 +7.9171131229916911e+00 +0.0000000000000000e+00 +1.0099999449896305e+01 -3.2184056383502697e-02 -5.9434066005219355e-01 +5.9179393541575380e-03
1.0199999999999980e+01 +7.9170556739276403e+00 +0.0000000000000000e+00 +1.0199999433394195e+01 -3.2184105210969191e-02 -5.9434066780728279e-01 +5.9180961954666657e-03
1.0299999999999979e+01 +7.9169976588571593e+00 +0.0000000000000000e+00 +1.0299999416565319e+01 -3.2184170943283165e-02 -5.9434066238628502e-01 +5.9182546585088112e-03
1.0399999999999979e+01 +7.9169390777802544e+00 +0.0000000000000000e+00 +1.0399999399406472e+01 -3.2184252158856883e-02 -5.9434064631778949e-01 +5.9184145788797951e-03
1.0499999999999979e+01 +7.9168799306969424e+00 +0.0000000000000000e+00 +1.0499999381914449e+01 -3.2184347436064180e-02 -5.9434062213037431e-01 +5.9185757921732208e-03
1.0599999999999978e+01 +7.9168202176072482e+00 +0.0000000000000000e+00 +1.0599999364086049e+01 -3.2184455353239633e-02 -5.9434059235260406e-01 +5.9187381339804012e-03
1.0699999999999978e+01 +7.9167599385112020e+00 +0.0000000000000000e+00 +1.0699999345918066e+01 -3.2184574488677772e-02 -5.9434055951303166e-01 +5.9189014398903081e-03
1.0799999999999978e+01 +7.9166990934088366e+00 +0.0000000000000000e+00 +1.0799999327407297e+01 -3.2184703420632080e-02 -5.9434052614019495e-01 +5.9190655454894889e-03
1.0899999999999977e+01 +7.9166376823001858e+00 +0.0000000000000000e+00 +1.0899999308550541e+01 -3.2184840727314264e-02 -5.9434049476261863e-01 +5.9192302863620185e-03
1.0999999999999977e+01 +7.9165757051852816e+00 +0.0000000000000000e+00 +1.0999999289344592e+01 -3.2184984986893352e-02 -5.9434046790881356e-01 +5.9193954980894256e-03
1.1099999999999977e+01 +7.9165131620641507e+00 +0.0000000000000000e+00 +1.1099999269786247e+01 -3.2185134777494823e-02 -5.9434044810727460e-01 +5.9195610162506313e-03
1.1199999999999976e+01 +7.9164500529368134e+00 +0.0000000000000000e+00 +1.1199999249872302e+01 -3.2185288677199816e-02 -5.9434043788648216e-01 +5.9197266764218831e-03
1.1299999999999976e+01 +7.9163863778032821e+00 +0.0000000000000000e+00 +1.1299999229599553e+01 -3.2185445264044203e-02 -5.9434043977490092e-01 +5.9198923141766911e-03
1.1399999999999975e+01 +7.9163221366635570e+00 +0.0000000000000000e+00 +1.1399999208964797e+01 -3.2185603116017800e-02 -5.9434045630097809e-01 +5.9200577650857641e-03
1.1499999999999975e+01 +7.9162573295176237e+00 +0.0000000000000000e+00 +1.1499999187964830e+01 -3.2185760811063481e-02 -5.9434048999314570e-01 +5.9202228647169449e-03
1.1599999999999975e+01 +7.9161919563654521e+00 +0.0000000000000000e+00 +1.1599999166596449e+01 -3.2185916927076341e-02 -5.9434054337981757e-01 +5.9203874486351482e-03
1.1699999999999974e+01 +7.9161260172069934e+00 +0.0000000000000000e+00 +1.1699999144856450e+01 -3.2186070041902853e-02 -5.9434061898939061e-01 +5.9205513524022927e-03
1.1799999999999974e+01 +7.9160595120421773e+00 +0.0000000000000000e+00 +1.1799999122741630e+01 -3.2186218733340030e-02 -5.9434071935024291e-01 +5.9207144115772372e-03
