# field on trajectory
# s[mm] rx[mm] ry[mm] rz[mm] bx[T] by[T] bz[T]
0.0000000000000000e+00 +7.9199999999999999e+00 +0.0000000000000000e+00 +0.0000000000000000e+00 -2.9829631507505068e-02 -5.6627496171295566e-01 +5.6452559376802564e-03
1.0000000000000001e-01 +7.9199997170583627e+00 +0.0000000000000000e+00 +9.9999999999466294e-02 -2.9829753381646281e-02 -5.6627510692439587e-01 +5.6452214938236111e-03
2.0000000000000001e-01 +7.9199988682333560e+00 +0.0000000000000000e+00 +1.9999999999573034e-01 -2.9829877182960891e-02 -5.6627524620458902e-01 +5.6451893942102253e-03
3.0000000000000004e-01 +7.9199974535248394e+00 +0.0000000000000000e+00 +2.9999999998558990e-01 -2.9830002555923212e-02 -5.6627537959453766e-01 +5.6451595716523672e-03
4.0000000000000002e-01 +7.9199954729326807e+00 +0.0000000000000000e+00 +3.9999999996584273e-01 -2.9830129145008551e-02 -5.6627550713524544e-01 +5.6451319589620403e-03
5.0000000000000000e-01 +7.9199929264567528e+00 +0.0000000000000000e+00 +4.9999999993328659e-01 -2.9830256594691903e-02 -5.6627562886771887e-01 +5.6451064889510840e-03
5.9999999999999998e-01 +7.9199898140969331e+00 +0.0000000000000000e+00 +5.9999999988471919e-01 -2.9830384549446875e-02 -5.6627574483296916e-01 +5.6450830944313087e-03
6.9999999999999996e-01 +7.9199861358531063e+00 +0.0000000000000000e+00 +6.9999999981693839e-01 -2.9830512653744350e-02 -5.6627585507201317e-01 +5.6450617082145996e-03
7.9999999999999993e-01 +7.9199818917251621e+00 +0.0000000000000000e+00 +7.9999999972674185e-01 -2.9830640552051375e-02 -5.6627595962587629e-01 +5.6450422631130421e-03
8.9999999999999991e-01 +7.9199770817129966e+00 +0.0000000000000000e+00 +8.9999999961092736e-01 -2.9830767888829882e-02 -5.6627605853559237e-01 +5.6450246919390245e-03
9.9999999999999989e-01 +7.9199717058165113e+00 +0.0000000000000000e+00 +9.9999999946629259e-01 -2.9830894308535524e-02 -5.6627615184220670e-01 +5.6450089275053702e-03
1.0999999999999999e+00 +7.9199657640356129e+00 +0.0000000000000000e+00 +1.0999999992896354e+00 -2.9831019455616441e-02 -5.6627623958677742e-01 +5.6449949026254461e-03
1.2000000000000000e+00 +7.9199592563702135e+00 +0.0000000000000000e+00 +1.1999999990777535e+00 -2.9831142974512059e-02 -5.6627632181037646e-01 +5.6449825501132750e-03
1.3000000000000000e+00 +7.9199521828202313e+00 +0.0000000000000000e+00 +1.2999999988274444e+00 -2.9831264509651897e-02 -5.6627639855409151e-01 +5.6449718027836602e-03
1.4000000000000001e+00 +7.9199445433855900e+00 +0.0000000000000000e+00 +1.3999999985355063e+00 -2.9831383705454306e-02 -5.6627646985902824e-01 +5.6449625934522994e-03
1.5000000000000002e+00 +7.9199363380662184e+00 +0.0000000000000000e+00 +1.4999999981987364e+00 -2.9831500206325329e-02 -5.6627653576631110e-01 +5.6449548549358944e-03
1.6000000000000003e+00 +7.9199275668620510e+00 +0.0000000000000000e+00 +1.5999999978139328e+00 -2.9831613656657464e-02 -5.6627659631708516e-01 +5.6449485200522785e-03
1.7000000000000004e+00 +7.9199182297730273e+00 +0.0000000000000000e+00 +1.6999999973778932e+00 -2.9831723700828403e-02 -5.6627665155251838e-01 +5.6449435216205206e-03
1.8000000000000005e+00 +7.9199083267990931e+00 +0.0000000000000000e+00 +1.7999999968874152e+00 -2.9831829983199925e-02 -5.6627670151380227e-01 +5.6449397924610524e-03
1.9000000000000006e+00 +7.9198978579401977e+00 +0.0000000000000000e+00 +1.8999999963392966e+00 -2.9831932148116583e-02 -5.6627674624215352e-01 +5.6449372653957801e-03
2.0000000000000004e+00 +7.9198868231962978e+00 +0.0000000000000000e+00 +1.9999999957303354e+00 -2.9832029839904590e-02 -5.6627678577881713e-01 +5.6449358732481988e-03
2.1000000000000005e+00 +7.9198752225673532e+00 +0.0000000000000000e+00 +2.0999999950573289e+00 -2.9832122799854550e-02 -5.6627682035296156e-01 +5.6449355616341587e-03
2.2000000000000006e+00 +7.9198630560533303e+00 +0.0000000000000000e+00 +2.1999999943170754e+00 -2.9832211157180471e-02 -5.6627685094535973e-01 +5.6449363273333043e-03
2.3000000000000007e+00 +7.9198503236541988e+00 +0.0000000000000000e+00 +2.2999999935063720e+00 -2.9832295138081940e-02 -5.6627687872468346e-01 +5.6449381799160980e-03
2.4000000000000008e+00 +7.9198370253699313e+00 +0.0000000000000000e+00 +2.3999999926220168e+00 -2.9832374968763464e-02 -5.6627690485960425e-01 +5.6449411289529296e-03
2.5000000000000009e+00 +7.9198231612005019e+00 +0.0000000000000000e+00 +2.4999999916608076e+00 -2.9832450875436164e-02 -5.6627693051879147e-01 +5.6449451840140186e-03
2.6000000000000010e+00 +7.9198087311458858e+00 +0.0000000000000000e+00 +2.5999999906195419e+00 -2.9832523084319357e-02 -5.6627695687091018e-01 +5.6449503546693227e-03
2.7000000000000011e+00 +7.9197937352060563e+00 +0.0000000000000000e+00 +2.6999999894950175e+00 -2.9832591821642156e-02 -5.6627698508462010e-01 +5.6449566504884353e-03
2.8000000000000012e+00 +7.9197781733809860e+00 +0.0000000000000000e+00 +2.7999999882840321e+00 -2.9832657313645105e-02 -5.6627701632857264e-01 +5.6449640810404926e-03
2.9000000000000012e+00 +7.9197620456706437e+00 +0.0000000000000000e+00 +2.8999999869833832e+00 -2.9832719786581783e-02 -5.6627705177141052e-01 +5.6449726558940793e-03
3.0000000000000013e+00 +7.9197453520749947e+00 +0.0000000000000000e+00 +2.9999999855898691e+00 -2.9832779466720385e-02 -5.6627709258176462e-01 +5.6449823846171279e-03
3.1000000000000014e+00 +7.9197280925939983e+00 +0.0000000000000000e+00 +3.0999999841002874e+00 -2.9832836580345395e-02 -5.6627713992825335e-01 +5.6449932767768237e-03
3.2000000000000015e+00 +7.9197102672276083e+00 +0.0000000000000000e+00 +3.1999999825114354e+00 -2.9832891353759140e-02 -5.6627719497948037e-01 +5.6450053419395095e-03
3.3000000000000016e+00 +7.9196918759757695e+00 +0.0000000000000000e+00 +3.2999999808201110e+00 -2.9832944013283420e-02 -5.6627725890403224e-01 +5.6450185896705883e-03
3.4000000000000017e+00 +7.9196729188384190e+00 +0.0000000000000000e+00 +3.3999999790231121e+00 -2.9832994785261149e-02 -5.6627733287047755e-01 +5.6450330295344251e-03
3.5000000000000018e+00 +7.9196533958154829e+00 +0.0000000000000000e+00 +3.4999999771172363e+00 -2.9833043896057902e-02 -5.6627741804736509e-01 +5.6450486710942546e-03
3.6000000000000019e+00 +7.9196333069068769e+00 +0.0000000000000000e+00 +3.5999999750992817e+00 -2.9833091572063597e-02 -5.6627751560322115e-01 +5.6450655239120807e-03
3.7000000000000020e+00 +7.9196126521125043e+00 +0.0000000000000000e+00 +3.6999999729660455e+00 -2.9833138039694070e-02 -5.6627762670654846e-01 +5.6450835975485839e-03
3.8000000000000020e+00 +7.9195914314322549e+00 +0.0000000000000000e+00 +3.7999999707143255e+00 -2.9833183525392666e-02 -5.6627775252582457e-01 +5.6451029015630177e-03
3.9000000000000021e+00 +7.9195696448660025e+00 +0.0000000000000000e+00 +3.8999999683409197e+00 -2.9833228255631908e-02 -5.6627789422949937e-01 +5.6451234455131257e-03
4.0000000000000018e+00 +7.9195472924136068e+00 +0.0000000000000000e+00 +3.9999999658426257e+00 -2.9833272456915028e-02 -5.6627805298599376e-01 +5.6451452389550266e-03
4.1000000000000014e+00 +7.9195243740749097e+00 +0.0000000000000000e+00 +4.0999999632162414e+00 -2.9833316386297548e-02 -5.6627822975570907e-01 +5.6451682904692458e-03
4.2000000000000011e+00 +7.9195008898497354e+00 +0.0000000000000000e+00 +4.1999999604585634e+00 -2.9833360422933556e-02 -5.6627842466706468e-01 +5.6451926047396813e-03
4.3000000000000007e+00 +7.9194768397378894e+00 +0.0000000000000000e+00 +4.2999999575663903e+00 -2.9833404976490896e-02 -5.6627863764048192e-01 +5.6452181854765252e-03
4.4000000000000004e+00 +7.9194522237391602e+00 +0.0000000000000000e+00 +4.3999999545365203e+00 -2.9833450456626456e-02 -5.6627886859637289e-01 +5.6452450363903657e-03
4.5000000000000000e+00 +7.9194270418533170e+00 +0.0000000000000000e+00 +4.4999999513657496e+00 -2.9833497272985215e-02 -5.6627911745514237e-01 +5.6452731611922298e-03
4.5999999999999996e+00 +7.9194012940801128e+00 +0.0000000000000000e+00 +4.5999999480508773e+00 -2.9833545835199149e-02 -5.6627938413718681e-01 +5.6453025635936106e-03
4.6999999999999993e+00 +7.9193749804192812e+00 +0.0000000000000000e+00 +4.6999999445886997e+00 -2.9833596552886206e-02 -5.6627966856289447e-01 +5.6453332473065127e-03
4.7999999999999989e+00 +7.9193481008705398e+00 +0.0000000000000000e+00 +4.7999999409760159e+00 -2.9833649835649158e-02 -5.6627997065264424e-01 +5.6453652160434829e-03
4.8999999999999986e+00 +7.9193206554335864e+00 +0.0000000000000000e+00 +4.8999999372096221e+00 -2.9833706093074602e-02 -5.6628029032680627e-01 +5.6453984735176498e-03
4.9999999999999982e+00 +7.9192926441081033e+00 +0.0000000000000000e+00 +4.9999999332863165e+00 -2.9833765734731912e-02 -5.6628062750574193e-01 +5.6454330234427582e-03
5.0999999999999979e+00 +7.9192640668937546e+00 +0.0000000000000000e+00 +5.0999999292028972e+00 -2.9833829170172126e-02 -5.6628098210980282e-01 +5.6454688695332057e-03
5.1999999999999975e+00 +7.9192349237901860e+00 +0.0000000000000000e+00 +5.1999999249561615e+00 -2.9833896808926903e-02 -5.6628135405933144e-01 +5.6455060155040822e-03
5.2999999999999972e+00 +7.9192052147970271e+00 +0.0000000000000000e+00 +5.2999999205429065e+00 -2.9833969060507441e-02 -5.6628174327465930e-01 +5.6455444650712009e-03
5.3999999999999968e+00 +7.9191749399138898e+00 +0.0000000000000000e+00 +5.3999999159599303e+00 -2.9834046334403456e-02 -5.6628214967610935e-01 +5.6455842219511384e-03
5.4999999999999964e+00 +7.9191440991403699e+00 +0.0000000000000000e+00 +5.4999999112040303e+00 -2.9834129040082095e-02 -5.6628257318399366e-01 +5.6456252898612717e-03
5.5999999999999961e+00 +7.9191126924760438e+00 +0.0000000000000000e+00 +5.5999999062720036e+00 -2.9834217586986830e-02 -5.6628301371861334e-01 +5.6456676725198090e-03
5.6999999999999957e+00 +7.9190807199204736e+00 +0.0000000000000000e+00 +5.6999999011606484e+00 -2.9834312384536450e-02 -5.6628347120025979e-01 +5.6457113736458333e-03
5.7999999999999954e+00 +7.9190481814732019e+00 +0.0000000000000000e+00 +5.7999998958667618e+00 -2.9834413842123968e-02 -5.6628394554921269e-01 +5.6457563969593344e-03
5.8999999999999950e+00 +7.9190150771337562e+00 +0.0000000000000000e+00 +5.8999998903871420e+00 -2.9834522369115546e-02 -5.6628443668574113e-01 +5.6458027461812393e-03
5.9999999999999947e+00 +7.9189814069016471e+00 +0.0000000000000000e+00 +5.9999998847185854e+00 -2.9834638374849464e-02 -5.6628494453010236e-01 +5.6458504250334668e-03
6.0999999999999943e+00 +7.9189471707763683e+00 +0.0000000000000000e+00 +6.0999998788578900e+00 -2.9834761979105021e-02 -5.6628546877759689e-01 +5.6458994366360826e-03
6.1999999999999940e+00 +7.9189123687573968e+00 +0.0000000000000000e+00 +6.1999998728018539e+00 -2.9834892143523851e-02 -5.6628600822372699e-01 +5.6459497816991481e-03
6.2999999999999936e+00 +7.9188770008441942e+00 +0.0000000000000000e+00 +6.2999998665472736e+00 -2.9835027540230014e-02 -5.6628656143903411e-01 +5.6460014603320436e-03
6.3999999999999932e+00 +7.9188410670362099e+00 +0.0000000000000000e+00 +6.3999998600909471e+00 -2.9835166841366795e-02 -5.6628712699404571e-01 +5.6460544726464924e-03
6.4999999999999929e+00 +7.9188045673328800e+00 +0.0000000000000000e+00 +6.4999998534296717e+00 -2.9835308719097703e-02 -5.6628770345927548e-01 +5.6461088187566557e-03
6.5999999999999925e+00 +7.9187675017336288e+00 +0.0000000000000000e+00 +6.5999998465602445e+00 -2.9835451845607337e-02 -5.6628828940522213e-01 +5.6461644987792180e-03
6.6999999999999922e+00 +7.9187298702378728e+00 +0.0000000000000000e+00 +6.6999998394794638e+00 -2.9835594893102318e-02 -5.6628888340236982e-01 +5.6462215128334631e-03
6.7999999999999918e+00 +7.9186916728450196e+00 +0.0000000000000000e+00 +6.7999998321841257e+00 -2.9835736533812229e-02 -5.6628948402118728e-01 +5.6462798610413586e-03
6.8999999999999915e+00 +7.9186529095544698e+00 +0.0000000000000000e+00 +6.8999998246710286e+00 -2.9835875439990507e-02 -5.6629008983212825e-01 +5.6463395435276511e-03
6.9999999999999911e+00 +7.9186135803656201e+00 +0.0000000000000000e+00 +6.9999998169369695e+00 -2.9836010283915401e-02 -5.6629069940563048e-01 +5.6464005604199346e-03
7.0999999999999908e+00 +7.9185736852778623e+00 +0.0000000000000000e+00 +7.0999998089787457e+00 -2.9836139737890895e-02 -5.6629131131211585e-01 +5.6464629118487463e-03
7.1999999999999904e+00 +7.9185332242905870e+00 +0.0000000000000000e+00 +7.1999998007931545e+00 -2.9836262474247588e-02 -5.6629192412198992e-01 +5.6465265979476478e-03
7.2999999999999901e+00 +7.9184921974031823e+00 +0.0000000000000000e+00 +7.2999997923769930e+00 -2.9836377165343694e-02 -5.6629253640564181e-01 +5.6465916188533040e-03
7.3999999999999897e+00 +7.9184506046150380e+00 +0.0000000000000000e+00 +7.3999997837270595e+00 -2.9836482483565872e-02 -5.6629314673344322e-01 +5.6466579747055674e-03
7.4999999999999893e+00 +7.9184084459255457e+00 +0.0000000000000000e+00 +7.4999997748401501e+00 -2.9836577101330263e-02 -5.6629375367574974e-01 +5.6467256656475796e-03
7.5999999999999890e+00 +7.9183657213341005e+00 +0.0000000000000000e+00 +7.5999997657130631e+00 -2.9836659691083327e-02 -5.6629435580289822e-01 +5.6467946918258259e-03
7.6999999999999886e+00 +7.9183224308401030e+00 +0.0000000000000000e+00 +7.6999997563425948e+00 -2.9836728925302834e-02 -5.6629495168520882e-01 +5.6468650533902454e-03
7.7999999999999883e+00 +7.9182785744429580e+00 +0.0000000000000000e+00 +7.7999997467255433e+00 -2.9836783476498777e-02 -5.6629553989298298e-01 +5.6469367504942995e-03
7.8999999999999879e+00 +7.9182341521420794e+00 +0.0000000000000000e+00 +7.8999997368587049e+00 -2.9836822017214274e-02 -5.6629611899650412e-01 +5.6470097832950665e-03
7.9999999999999876e+00 +7.9181891639368907e+00 +0.0000000000000000e+00 +7.9999997267388778e+00 -2.9836843220026527e-02 -5.6629668756603646e-01 +5.6470841519533181e-03
8.0999999999999872e+00 +7.9181436098268243e+00 +0.0000000000000000e+00 +8.0999997163628592e+00 -2.9836846258003761e-02 -5.6629724447306273e-01 +5.6471598416810145e-03
8.1999999999999869e+00 +7.9180974898113261e+00 +0.0000000000000000e+00 +8.1999997057274463e+00 -2.9836832306074701e-02 -5.6629778979401824e-01 +5.6472367778805351e-03
8.2999999999999865e+00 +7.9180508038898516e+00 +0.0000000000000000e+00 +8.2999996948294363e+00 -2.9836803039624979e-02 -5.6629832390660539e-01 +5.6473148709981404e-03
8.3999999999999861e+00 +7.9180035520618697e+00 +0.0000000000000000e+00 +8.3999996836656265e+00 -2.9836760134028455e-02 -5.6629884718855705e-01 +5.6473940314760267e-03
8.4999999999999858e+00 +7.9179557343268581e+00 +0.0000000000000000e+00 +8.4999996722328142e+00 -2.9836705264646740e-02 -5.6629936001763725e-01 +5.6474741697521797e-03
8.5999999999999854e+00 +7.9179073506843061e+00 +0.0000000000000000e+00 +8.5999996605277964e+00 -2.9836640106828616e-02 -5.6629986277164324e-01 +5.6475551962602184e-03
8.6999999999999851e+00 +7.9178584011337128e+00 +0.0000000000000000e+00 +8.6999996485473705e+00 -2.9836566335909479e-02 -5.6630035582840643e-01 +5.6476370214292287e-03
8.7999999999999847e+00 +7.9178088856745870e+00 +0.0000000000000000e+00 +8.7999996362883337e+00 -2.9836485627210852e-02 -5.6630083956579291e-01 +5.6477195556836318e-03
8.8999999999999844e+00 +7.9177588043064464e+00 +0.0000000000000000e+00 +8.8999996237474814e+00 -2.9836399656039774e-02 -5.6630131436170583e-01 +5.6478027094430151e-03
8.9999999999999840e+00 +7.9177081570288186e+00 +0.0000000000000000e+00 +8.9999996109216127e+00 -2.9836310097688289e-02 -5.6630178059408531e-01 +5.6478863931219807e-03
9.0999999999999837e+00 +7.9176569438412390e+00 +0.0000000000000000e+00 +9.0999995978075248e+00 -2.9836218627432902e-02 -5.6630223864091078e-01 +5.6479705171300102e-03
9.1999999999999833e+00 +7.9176051647432519e+00 +0.0000000000000000e+00 +9.1999995844020148e+00 -2.9836126920534015e-02 -5.6630268888020174e-01 +5.6480549918712869e-03
9.2999999999999829e+00 +7.9175528197344089e+00 +0.0000000000000000e+00 +9.2999995707018801e+00 -2.9836036652235404e-02 -5.6630313169001889e-01 +5.6481397277445599e-03
9.3999999999999826e+00 +7.9174999088142695e+00 +0.0000000000000000e+00 +9.3999995567039178e+00 -2.9835949497763619e-02 -5.6630356744846488e-01 +5.6482246351429854e-03
9.4999999999999822e+00 +7.9174464319823992e+00 +0.0000000000000000e+00 +9.4999995424049253e+00 -2.9835867132327502e-02 -5.6630399653368668e-01 +5.6483096244539710e-03
9.5999999999999819e+00 +7.9173923892383709e+00 +0.0000000000000000e+00 +9.5999995278016996e+00 -2.9835791231117608e-02 -5.6630441932387565e-01 +5.6483946060590364e-03
9.6999999999999815e+00 +7.9173377805817635e+00 +0.0000000000000000e+00 +9.6999995128910381e+00 -2.9835723469305617e-02 -5.6630483619726979e-01 +5.6484794903336423e-03
9.7999999999999812e+00 +7.9172826060121633e+00 +0.0000000000000000e+00 +9.7999994976697380e+00 -2.9835665522043850e-02 -5.6630524753215383e-01 +5.6485641876470576e-03
9.8999999999999808e+00 +7.9172268655291598e+00 +0.0000000000000000e+00 +9.8999994821345965e+00 -2.9835619064464667e-02 -5.6630565370686115e-01 +5.6486486083621914e-03
9.9999999999999805e+00 +7.9171705591323498e+00 +0.0000000000000000e+00 +9.9999994662824108e+00 -2.9835585771679937e-02 -5.6630605509977516e-01 +5.6487326628354506e-03
1.0099999999999980e+01 +7.9171136868213337e+00 +0.0000000000000000e+00 +1.0099999450109976e+01 -2.9835566888734746e-02 -5.6630645213571229e-01 +5.6488162994077756e-03
1.0199999999999980e+01 +7.9170562485957161e+00 +0.0000000000000000e+00 +1.0199999433614092e+01 -2.9835561940430515e-02 -5.6630684542507403e-01 +5.6488996183812739e-03
1.0299999999999979e+01 +7.9169982444551064e+00 +0.0000000000000000e+00 +1.0299999416791556e+01 -2.9835570021454455e-02 -5.6630723562469387e-01 +5.6489827580455390e-03
1.0399999999999979e+01 +7.9169396743991163e+00 +0.0000000000000000e+00 +1.0399999399639164e+01 -2.9835590226434845e-02 -5.6630762339145357e-01 +5.6490658566853450e-03
1.0499999999999979e+01 +7.9168805384273595e+00 +0.0000000000000000e+00 +1.0499999382153714e+01 -2.9835621649939567e-02 -5.6630800938228565e-01 +5.6491490525805276e-03
1.0599999999999978e+01 +7.9168208365394523e+00 +0.0000000000000000e+00 +1.0599999364332001e+01 -2.9835663386474677e-02 -5.6630839425417179e-01 +5.6492324840058828e-03
1.0699999999999978e+01 +7.9167605687350129e+00 +0.0000000000000000e+00 +1.0699999346170825e+01 -2.9835714530483108e-02 -5.6630877866414653e-01 +5.6493162892310728e-03
1.0799999999999978e+01 +7.9166997350136583e+00 +0.0000000000000000e+00 +1.0799999327666981e+01 -2.9835774176343144e-02 -5.6630916326929726e-01 +5.6494006065205210e-03
1.0899999999999977e+01 +7.9166383353750058e+00 +0.0000000000000000e+00 +1.0899999308817268e+01 -2.9835841418367065e-02 -5.6630954872676431e-01 +5.6494855741333052e-03
1.0999999999999977e+01 +7.9165763698186726e+00 +0.0000000000000000e+00 +1.0999999289618481e+01 -2.9835915350799744e-02 -5.6630993569374366e-01 +5.6495713303230605e-03
1.1099999999999977e+01 +7.9165138383442732e+00 +0.0000000000000000e+00 +1.1099999270067419e+01 -2.9835995067817228e-02 -5.6631032482748733e-01 +5.6496580133378735e-03
1.1199999999999976e+01 +7.9164507409514213e+00 +0.0000000000000000e+00 +1.1199999250160879e+01 -2.9836079663525319e-02 -5.6631071678530398e-01 +5.6497457614201798e-03
1.1299999999999976e+01 +7.9163870776397269e+00 +0.0000000000000000e+00 +1.1299999229895658e+01 -2.9836168231958199e-02 -5.6631111222456021e-01 +5.6498347128066673e-03
1.1399999999999975e+01 +7.9163228484087975e+00 +0.0000000000000000e+00 +1.1399999209268552e+01 -2.9836259867076994e-02 -5.6631151180268202e-01 +5.6499250057281628e-03
1.1499999999999975e+01 +7.9162580532582352e+00 +0.0000000000000000e+00 +1.1499999188276359e+01 -2.9836353662768357e-02 -5.6631191617715559e-01 +5.6500167784095329e-03
1.1599999999999975e+01 +7.9161926921876384e+00 +0.0000000000000000e+00 +1.1599999166915875e+01 -2.9836448712843088e-02 -5.6631232600552817e-01 +5.6501101690695872e-03
1.1699999999999974e+01 +7.9161267651965987e+00 +0.0000000000000000e+00 +1.1699999145183899e+01 -2.9836544111034733e-02 -5.6631274194540904e-01 +5.6502053159209649e-03
1.1799999999999974e+01 +7.9160602722847031e+00 +0.0000000000000000e+00 +1.1799999123077226e+01 -2.9836638950998123e-02 -5.6631316465447090e-01 +5.6503023571700291e-03
