# multipoles
# s[mm] polynom_b[n=0][T/m^n] polynom_b[n=1][T/m^n] polynom_b[n=2][T/m^n] polynom_b[n=3][T/m^n] polynom_b[n=4][T/m^n] polynom_b[n=5][T/m^n] polynom_b[n=6][T/m^n] 
+0.0000000000000000e+00 -5.6496001916693528e-01 +7.7386233607799202e+00 -1.1722462013336976e+00 -2.6727727752017962e+01 +1.4949800681588131e+04 -9.6978685907525214e+04 -7.0177626177763388e+07 
+1.0000000000000001e-01 -5.6495984326380166e-01 +7.7386004068930463e+00 -1.1781505053771064e+00 -2.5977531440914280e+01 +1.5026795029883135e+04 -1.0155385879480661e+05 -7.0473631092764467e+07 
+2.0000000000000001e-01 -5.6495967406611503e-01 +7.7385743594129215e+00 -1.1837074824508944e+00 -2.5155386639120575e+01 +1.5095685371869073e+04 -1.0655693925152137e+05 -7.0726958418895721e+07 
+2.9999999999999999e-01 -5.6495951172468140e-01 +7.7385456031396869e+00 -1.1889087294653813e+00 -2.4272461169626069e+01 +1.5156713391666959e+04 -1.1192163144420294e+05 -7.0939552373325706e+07 
+4.0000000000000002e-01 -5.6495935639026296e-01 +7.7385145228652945e+00 -1.1937458436955684e+00 -2.3339922605809168e+01 +1.5210120781631977e+04 -1.1758164105274041e+05 -7.1113357212306231e+07 
+5.0000000000000000e-01 -5.6495920821366796e-01 +7.7384815033913226e+00 -1.1982104234645463e+00 -2.2368938800135336e+01 +1.5256149254924709e+04 -1.2347067216646961e+05 -7.1250317293084845e+07 
+5.9999999999999998e-01 -5.6495906734564827e-01 +7.7384469295107534e+00 -1.2022940703251401e+00 -2.1370677366882777e+01 +1.5295040584047247e+04 -1.2952243024565268e+05 -7.1352377248402730e+07 
+6.9999999999999996e-01 -5.6495893393695706e-01 +7.7384111860177365e+00 -1.2059883817021977e+00 -2.0356305951492505e+01 +1.5327036464819725e+04 -1.3567062060167402e+05 -7.1421481354202762e+07 
+8.0000000000000004e-01 -5.6495880813840993e-01 +7.7383746577052834e+00 -1.2092849542452249e+00 -1.9336992195270557e+01 +1.5352378578097736e+04 -1.4184894849738732e+05 -7.1459573815118209e+07 
+9.0000000000000002e-01 -5.6495869010076571e-01 +7.7383377293627857e+00 -1.2121753881472641e+00 -1.8323903648391500e+01 +1.5371308675243416e+04 -1.4799111970107196e+05 -7.1468599184996739e+07 
+1.0000000000000000e+00 -5.6495857997480181e-01 +7.7383007857790123e+00 -1.2146512770804163e+00 -1.7328207882346131e+01 +1.5384068384227792e+04 -1.5403083974304789e+05 -7.1450501439345926e+07 
+1.1000000000000001e+00 -5.6495847791133325e-01 +7.7382642117385840e+00 -1.2167042170885958e+00 -1.6361072366457286e+01 +1.5390899378538057e+04 -1.5990181469849992e+05 -7.1407224776658773e+07 
+1.2000000000000000e+00 -5.6495838406120102e-01 +7.7382283920262491e+00 -1.2183257972992920e+00 -1.5433664630474533e+01 +1.5392043204967511e+04 -1.6553775012967509e+05 -7.1340712815199614e+07 
+1.3000000000000000e+00 -5.6495829857521596e-01 +7.7381937114204176e+00 -1.2195076069683597e+00 -1.4557152057796355e+01 +1.5387741415198028e+04 -1.7087235232815178e+05 -7.1252909213606432e+07 
+1.3999999999999999e+00 -5.6495822160428866e-01 +7.7381605546969201e+00 -1.2202412327276910e+00 -1.3742702012838432e+01 +1.5378235510089975e+04 -1.7583932752751102e+05 -7.1145757397441417e+07 
+1.5000000000000000e+00 -5.6495815329922905e-01 +7.7381293066301433e+00 -1.2205182566591384e+00 -1.3001481874533365e+01 +1.5363766912219260e+04 -1.8037238169842996e+05 -7.1021200454766735e+07 
+1.6000000000000001e+00 -5.6495809381102524e-01 +7.7381003519855769e+00 -1.2203302557420461e+00 -1.2344658832568316e+01 +1.5344576948066830e+04 -1.8440522169107734e+05 -7.0881181033918381e+07 
+1.7000000000000000e+00 -5.6495804329062793e-01 +7.7380740755296511e+00 -1.2196688041253667e+00 -1.1783400169459020e+01 +1.5320906894502070e+04 -1.8787155360418462e+05 -7.0727641575566635e+07 
+1.8000000000000000e+00 -5.6495800188903689e-01 +7.7380508620198798e+00 -1.2185254702761261e+00 -1.1328872989097217e+01 +1.5292997926337506e+04 -1.9070508431549210e+05 -7.0562524066896632e+07 
+1.8999999999999999e+00 -5.6495796975726464e-01 +7.7380310962146037e+00 -1.2168918166872498e+00 -1.0992244508394732e+01 +1.5261091104889530e+04 -1.9283951975565881e+05 -7.0387769974476412e+07 
+2.0000000000000000e+00 -5.6495794704642133e-01 +7.7380151628598322e+00 -1.2147594012079066e+00 -1.0784681664005015e+01 +1.5225427415201008e+04 -1.9420856722576960e+05 -7.0205320456860527e+07 
+2.1000000000000001e+00 -5.6495793378649339e-01 +7.7380033476590686e+00 -1.2121296763424168e+00 -1.0713982496606741e+01 +1.5186318391986528e+04 -1.9476618956981663e+05 -7.0017253682255581e+07 
+2.2000000000000002e+00 -5.6495792951124657e-01 +7.7379955388894279e+00 -1.2090439975962708e+00 -1.0774359916859938e+01 +1.5144345613195901e+04 -1.9454791878884388e+05 -6.9826086790597126e+07 
+2.2999999999999998e+00 -5.6495793362756264e-01 +7.7379915251430278e+00 -1.2055537680680135e+00 -1.0956602055538694e+01 +1.5100154875838043e+04 -1.9360982363297287e+05 -6.9634418173110202e+07 
+2.3999999999999999e+00 -5.6495794554229717e-01 +7.7379910950094457e+00 -1.2017103914036438e+00 -1.1251496982138974e+01 +1.5054391989113830e+04 -1.9200797312836224e+05 -6.9444846279303744e+07 
+2.5000000000000000e+00 -5.6495796466226711e-01 +7.7379940370741203e+00 -1.1975652725984181e+00 -1.1649832651538269e+01 +1.5007702784405497e+04 -1.8979843690147219e+05 -6.9259969650899127e+07 
+2.6000000000000001e+00 -5.6495799039435723e-01 +7.7380001399334954e+00 -1.1931698164736710e+00 -1.2142397331111992e+01 +1.4960733094137851e+04 -1.8703728273828901e+05 -6.9082386839581534e+07 
+2.7000000000000002e+00 -5.6495802214539514e-01 +7.7380091921756531e+00 -1.1885754315976715e+00 -1.2719979035941273e+01 +1.4914128818691137e+04 -1.8378057986333483e+05 -6.8914696704334423e+07 
+2.7999999999999998e+00 -5.6495805932220022e-01 +7.7380209823975052e+00 -1.1838335251615431e+00 -1.3373366031531626e+01 +1.4868535832216832e+04 -1.8008439601144157e+05 -6.8759497968719363e+07 
+2.8999999999999999e+00 -5.6495810133160784e-01 +7.7380352991919663e+00 -1.1789955102028891e+00 -1.4093346443323787e+01 +1.4824600120922887e+04 -1.7600479973998218e+05 -6.8619389882377043e+07 
+3.0000000000000000e+00 -5.6495814758044527e-01 +7.7380519311612144e+00 -1.1741127983039650e+00 -1.4870708646944331e+01 +1.4782967642203845e+04 -1.7159785814563112e+05 -6.8496971540991634e+07 
+3.1000000000000001e+00 -5.6495819747547571e-01 +7.7380706669052302e+00 -1.1692368062783562e+00 -1.5696240929601375e+01 +1.4744284449692330e+04 -1.6691963884580391e+05 -6.8394842476186991e+07 
+3.2000000000000002e+00 -5.6495825042349734e-01 +7.7380912950291547e+00 -1.1644189547978916e+00 -1.6560731693317276e+01 +1.4709196671329961e+04 -1.6202620882252618e+05 -6.8315602561129600e+07 
+3.2999999999999998e+00 -5.6495830583127982e-01 +7.7381136041447958e+00 -1.1597106656425897e+00 -1.7454969505318655e+01 +1.4678350453187379e+04 -1.5697363411183818e+05 -6.8261851729342043e+07 
+3.3999999999999999e+00 -5.6495836310551950e-01 +7.7381373828619457e+00 -1.1551633677007354e+00 -1.8369742820098686e+01 +1.4652392076498589e+04 -1.5181798148324603e+05 -6.8236190539623156e+07 
+3.5000000000000000e+00 -5.6495842165296162e-01 +7.7381624198004744e+00 -1.1508284915177982e+00 -1.9295840360036955e+01 +1.4631967847267229e+04 -1.4661531614713324e+05 -6.8241219630254358e+07 
+3.6000000000000001e+00 -5.6495848088029221e-01 +7.7381885035815463e+00 -1.1467574736929393e+00 -2.0224050817911237e+01 +1.4617724191192823e+04 -1.4142170359630309e+05 -6.8279540200134844e+07 
+3.7000000000000002e+00 -5.6495854019414204e-01 +7.7382154228327593e+00 -1.1430017546467646e+00 -2.1145163026050259e+01 +1.4610307597598010e+04 -1.3629320856928799e+05 -6.8353753704734370e+07 
+3.7999999999999998e+00 -5.6495859900116718e-01 +7.7382429661873990e+00 -1.1396127808515069e+00 -2.2049965924047790e+01 +1.4610364671713800e+04 -1.3128589525795315e+05 -6.8466462127032012e+07 
+3.8999999999999999e+00 -5.6495865670792422e-01 +7.7382709222857802e+00 -1.1366420056033331e+00 -2.2929248585361158e+01 +1.4618542144537430e+04 -1.2645582719055805e+05 -6.8620268012798369e+07 
+4.0000000000000000e+00 -5.6495871272102771e-01 +7.7382990797724478e+00 -1.1341408869204912e+00 -2.3773800154339753e+01 +1.4635486832966139e+04 -1.2185906754667423e+05 -6.8817774279070199e+07 
+4.0999999999999996e+00 -5.6495876654914268e-01 +7.7383272544575021e+00 -1.1321493301658343e+00 -2.4576247003505280e+01 +1.4661616512035480e+04 -1.1753987400104427e+05 -6.9060411971035764e+07 
+4.2000000000000002e+00 -5.6495881812393622e-01 +7.7383553652791299e+00 -1.1306597177833080e+00 -2.5336376029354167e+01 +1.4696441008263875e+04 -1.1349661304838037e+05 -6.9345037964384243e+07 
+4.2999999999999998e+00 -5.6495886748635671e-01 +7.7383833556601322e+00 -1.1296522226206303e+00 -2.6055722587744444e+01 +1.4739245072453481e+04 -1.0971647912860081e+05 -6.9667392514326870e+07 
+4.4000000000000004e+00 -5.6495891467734438e-01 +7.7384111690338866e+00 -1.1291070147882418e+00 -2.6735822284244421e+01 +1.4789313405251449e+04 -1.0618666550242806e+05 -7.0023215648882389e+07 
+4.5000000000000000e+00 -5.6495895973781107e-01 +7.7384387488315349e+00 -1.1290042664376263e+00 -2.7378210557876450e+01 +1.4845930737229866e+04 -1.0289436680263751e+05 -7.0408247521764427e+07 
+4.5999999999999996e+00 -5.6495900270863908e-01 +7.7384660384966475e+00 -1.1293241491196799e+00 -2.7984423111778604e+01 +1.4908381788038560e+04 -9.9826776507143222e+04 -7.0818228245845437e+07 
+4.7000000000000002e+00 -5.6495904363077376e-01 +7.7384929814737955e+00 -1.1300468325617548e+00 -2.8555995594719572e+01 +1.4975951238282683e+04 -9.6971088778201272e+04 -7.1248897745498955e+07 
+4.7999999999999998e+00 -5.6495908254513239e-01 +7.7385195212148803e+00 -1.1311524849157379e+00 -2.9094463753707380e+01 +1.5047923733806199e+04 -9.4314497662258742e+04 -7.1695995777855843e+07 
+4.9000000000000004e+00 -5.6495911949258082e-01 +7.7385456011808795e+00 -1.1326212766010852e+00 -2.9601363502843693e+01 +1.5123583961979253e+04 -9.1844196649284728e+04 -7.2155262303126410e+07 
+5.0000000000000000e+00 -5.6495915451404066e-01 +7.7385711648375324e+00 -1.1344333760368182e+00 -3.0078230770179378e+01 +1.5202216564935805e+04 -8.9547379649910581e+04 -7.2622437060035318e+07 
+5.0999999999999996e+00 -5.6495918765038156e-01 +7.7385961556549390e+00 -1.1365689502586653e+00 -3.0526601508858771e+01 +1.5283106157539751e+04 -8.7411240875883654e+04 -7.3093259667467594e+07 
+5.2000000000000002e+00 -5.6495921894253343e-01 +7.7386205171143274e+00 -1.1390081641653458e+00 -3.0948011868032250e+01 +1.5365537308870955e+04 -8.5422973918231815e+04 -7.3563469525561064e+07 
+5.2999999999999998e+00 -5.6495924843137058e-01 +7.7386441927002450e+00 -1.1417311841374540e+00 -3.1343997971443084e+01 +1.5448794609718805e+04 -8.3569773043398469e+04 -7.4028806135103881e+07 
+5.4000000000000004e+00 -5.6495927615778163e-01 +7.7386671259074653e+00 -1.1447181736304426e+00 -3.1716096109345941e+01 +1.5532162593271105e+04 -8.1838832099423700e+04 -7.4485008731474504e+07 
+5.5000000000000000e+00 -5.6495930216260393e-01 +7.7386892602377415e+00 -1.1479492967772125e+00 -3.2065842638492356e+01 +1.5614925798350987e+04 -8.0217345121895938e+04 -7.4927816574106827e+07 
+5.5999999999999996e+00 -5.6495932648675840e-01 +7.7387105392023772e+00 -1.1514047127664300e+00 -3.2394774064568139e+01 +1.5696368666323395e+04 -7.8692505844743864e+04 -7.5352968464971453e+07 
+5.7000000000000002e+00 -5.6495934917106316e-01 +7.7387309063176737e+00 -1.1550645844138414e+00 -3.2704426891389559e+01 +1.5775775701709879e+04 -7.7251508637746243e+04 -7.5756203509329244e+07 
+5.7999999999999998e+00 -5.6495937025642728e-01 +7.7387503051084288e+00 -1.1589090687262642e+00 -3.2996337715388506e+01 +1.5852431294896131e+04 -7.5881547982870397e+04 -7.6133260275817677e+07 
+5.9000000000000004e+00 -5.6495938978370497e-01 +7.7387686791120212e+00 -1.1629183230445275e+00 -3.3272043355532034e+01 +1.5925619832735199e+04 -7.4569817694236524e+04 -7.6479877309682623e+07 
+5.9999999999999902e+00 -5.6495940779374576e-01 +7.7387859718694134e+00 -1.1670725041085133e+00 -3.3533080566732693e+01 +1.5994625692138421e+04 -7.3303512636307452e+04 -7.6791793130974963e+07 
+6.0999999999999899e+00 -5.6495942441634783e-01 +7.7388021098529123e+00 -1.1713516490507059e+00 -3.3780380430267854e+01 +1.6058889652005595e+04 -7.2073363518899190e+04 -7.7065848155531287e+07 
+6.1999999999999904e+00 -5.6495944013257049e-01 +7.7388169666307904e+00 -1.1757353746262718e+00 -3.4013173713759464e+01 +1.6118470827185351e+04 -7.0879906647327487e+04 -7.7303236371090636e+07 
+6.2999999999999901e+00 -5.6495945551023541e-01 +7.7388304063622249e+00 -1.1802032150179509e+00 -3.4230445273900067e+01 +1.6173582285729974e+04 -6.9725054379968307e+04 -7.7506234456262022e+07 
+6.3999999999999897e+00 -5.6495947111719291e-01 +7.7388422931870178e+00 -1.1847347084531963e+00 -3.4431179547223280e+01 +1.6224437157131475e+04 -6.8610721052643712e+04 -7.7677119348266765e+07 
+6.4999999999999902e+00 -5.6495948752117098e-01 +7.7388524912385854e+00 -1.1893093886050714e+00 -3.4614360932915837e+01 +1.6271248476341741e+04 -6.7538820720400632e+04 -7.7818167523289770e+07 
+6.5999999999999899e+00 -5.6495950528996308e-01 +7.7388608646372470e+00 -1.1939067954512272e+00 -3.4778973605664341e+01 +1.6314229382510513e+04 -6.6511268200690582e+04 -7.7931655921755388e+07 
+6.6999999999999904e+00 -5.6495952499136715e-01 +7.7388672774889802e+00 -1.1985064621392936e+00 -3.4924001485183354e+01 +1.6353592871763976e+04 -6.5529979244009199e+04 -7.8019860777526706e+07 
+6.7999999999999901e+00 -5.6495954719300168e-01 +7.7388715938882680e+00 -1.2030879276270761e+00 -3.5048428326247404e+01 +1.6389552040133469e+04 -6.4596869978466850e+04 -7.8085058782610595e+07 
+6.8999999999999897e+00 -5.6495957246263107e-01 +7.7388736779125207e+00 -1.2076307271625439e+00 -3.5151237568675228e+01 +1.6422319898381003e+04 -6.3713857739755338e+04 -7.8129526194456786e+07 
+6.9999999999999902e+00 -5.6495960136795420e-01 +7.7388733936286132e+00 -1.2121143971339214e+00 -3.5231412533606424e+01 +1.6452109461639797e+04 -6.2882859914860164e+04 -7.8155539256314978e+07 
+7.0999999999999899e+00 -5.6495963447653874e-01 +7.7388706050828233e+00 -1.2165184772763471e+00 -3.5287936130435014e+01 +1.6479133799336039e+04 -6.2105795634937451e+04 -7.8165374455749631e+07 
+7.1999999999999904e+00 -5.6495967235602707e-01 +7.7388651763098855e+00 -1.2208225012934739e+00 -3.5319791141861131e+01 +1.6503605847010651e+04 -6.1384584054804931e+04 -7.8161307603506222e+07 
+7.2999999999999901e+00 -5.6495971557402536e-01 +7.7388569713248643e+00 -1.2250060079538247e+00 -3.5325959978920167e+01 +1.6525738623808011e+04 -6.0721145797350691e+04 -7.8145614885845169e+07 
+7.3999999999999897e+00 -5.6495976469809939e-01 +7.7388458541293179e+00 -1.2290485339534072e+00 -3.5305424881734986e+01 +1.6545745092925787e+04 -6.0117401720290902e+04 -7.8120572190788448e+07 
+7.4999999999999902e+00 -5.6495982029573322e-01 +7.7388316887063873e+00 -1.2329296192084196e+00 -3.5257167777952937e+01 +1.6563838260925022e+04 -5.9575273726087056e+04 -7.8088455576814979e+07 
+7.5999999999999899e+00 -5.6495988293448429e-01 +7.7388143390156836e+00 -1.2366287980214259e+00 -3.5180170141463840e+01 +1.6580231014488723e+04 -5.9096685565389678e+04 -7.8051540509938806e+07 
+7.6999999999999904e+00 -5.6495995318179448e-01 +7.7387936690051671e+00 -1.2401256084308361e+00 -3.5073413342116076e+01 +1.6595136292425985e+04 -5.8683560779154832e+04 -7.8012102665478528e+07 
+7.7999999999999901e+00 -5.6496003160516217e-01 +7.7387695426006600e+00 -1.2433995881464994e+00 -3.4935878364320892e+01 +1.6608767010445539e+04 -5.8337824269308207e+04 -7.7972417578015089e+07 
+7.8999999999999897e+00 -5.6496011877192964e-01 +7.7387418237065662e+00 -1.2464302764752719e+00 -3.4766545814330293e+01 +1.6621336097128657e+04 -5.8061402282118484e+04 -7.7934760809492528e+07 
+7.9999999999999902e+00 -5.6496021524948781e-01 +7.7387103762086120e+00 -1.2491972098640811e+00 -3.4564395999807495e+01 +1.6633056409697179e+04 -5.7856221944864126e+04 -7.7901407551073998e+07 
+8.0999999999999908e+00 -5.6496032152234887e-01 +7.7386751688011595e+00 -1.2516819499601226e+00 -3.4329393886816980e+01 +1.6644084753941865e+04 -5.7722539343726326e+04 -7.7874175205289945e+07 
+8.1999999999999904e+00 -5.6496043773367377e-01 +7.7386365786966369e+00 -1.2538811852853773e+00 -3.4064907666265256e+01 +1.6654432000012981e+04 -5.7657026790318036e+04 -7.7853260201126367e+07 
+8.2999999999999901e+00 -5.6496056393868599e-01 +7.7385950826923207e+00 -1.2557971376746579e+00 -3.3775009630689816e+01 +1.6664090868833082e+04 -5.7656332111032105e+04 -7.7838498491517156e+07 
+8.3999999999999897e+00 -5.6496070019258493e-01 +7.7385511575821360e+00 -1.2574320371980443e+00 -3.3463771956997135e+01 +1.6673054281637062e+04 -5.7717103727584712e+04 -7.7829727048172802e+07 
+8.4999999999999893e+00 -5.6496084655074963e-01 +7.7385052801570602e+00 -1.2587881075883194e+00 -3.3135266754234323e+01 +1.6681315096559287e+04 -5.7835990408923892e+04 -7.7826782641399831e+07 
+8.5999999999999908e+00 -5.6496100306853447e-01 +7.7384579272110106e+00 -1.2598675773745933e+00 -3.2793566250200151e+01 +1.6688866313721490e+04 -5.8009640132288667e+04 -7.7829502793968573e+07 
+8.6999999999999904e+00 -5.6496116980142774e-01 +7.7384095755364468e+00 -1.2606726757813200e+00 -3.2442742646054853e+01 +1.6695701008810214e+04 -5.8234700985743169e+04 -7.7837725494653061e+07 
+8.7999999999999794e+00 -5.6496134680497723e-01 +7.7383607019279372e+00 -1.2612056305419439e+00 -3.2086868229305296e+01 +1.6701812286305096e+04 -5.8507820487740923e+04 -7.7851288960549772e+07 
+8.8999999999999808e+00 -5.6496153413476335e-01 +7.7383117831771067e+00 -1.2614686719931281e+00 -3.1730015229009989e+01 +1.6707193361391051e+04 -5.8825646417187236e+04 -7.7870032036167398e+07 
+8.9999999999999805e+00 -5.6496173184650322e-01 +7.7382632960747584e+00 -1.2614640312192136e+00 -3.1376255867227943e+01 +1.6711837527141655e+04 -5.9184826546737626e+04 -7.7893794040447593e+07 
+9.0999999999999801e+00 -5.6496193999594690e-01 +7.7382157174167521e+00 -1.2611939421106646e+00 -3.1029662541348245e+01 +1.6715738193296456e+04 -5.9582007545732413e+04 -7.7922414950509042e+07 
+9.1999999999999797e+00 -5.6496215863894361e-01 +7.7381695239944701e+00 -1.2606606339985391e+00 -3.0694307533500783e+01 +1.6718888749830141e+04 -6.0013836717364909e+04 -7.7955734759299234e+07 
+9.2999999999999794e+00 -5.6496238783143182e-01 +7.7381251925992141e+00 -1.2598663430702957e+00 -3.0374263149886907e+01 +1.6721282783545215e+04 -6.0476961148284565e+04 -7.7993594503284961e+07 
+9.3999999999999808e+00 -5.6496262762943916e-01 +7.7380832000279680e+00 -1.2588133033298246e+00 -3.0073601887073444e+01 +1.6722913913421744e+04 -6.0968026746992873e+04 -7.8035835496695563e+07 
+9.4999999999999805e+00 -5.6496287808907075e-01 +7.7380440230712901e+00 -1.2575037503474602e+00 -2.9796396073264841e+01 +1.6723775856147797e+04 -6.1483680351125338e+04 -7.8082299626807362e+07 
+9.5999999999999801e+00 -5.6496313926645558e-01 +7.7380081385266450e+00 -1.2559399222975929e+00 -2.9546718255525647e+01 +1.6723862451732813e+04 -6.2020567478480763e+04 -7.8132829487784758e+07 
+9.6999999999999797e+00 -5.6496341121797233e-01 +7.7379760231868548e+00 -1.2541240560680531e+00 -2.9328640869412371e+01 +1.6723167591001595e+04 -6.2575334225103456e+04 -7.8187268040183321e+07 
+9.7999999999999794e+00 -5.6496369399994140e-01 +7.7379481538484987e+00 -1.2520583912984633e+00 -2.9146236485162092e+01 +1.6721685293180806e+04 -6.3144625839968168e+04 -7.8245458979141548e+07 
+9.8999999999999808e+00 -5.6496398766887912e-01 +7.7379250073067798e+00 -1.2497451670931277e+00 -2.9003577647100226e+01 +1.6719409647783996e+04 -6.3725087677933589e+04 -7.8307246467151016e+07 
+9.9999999999999805e+00 -5.6496429228136347e-01 +7.7379070603617732e+00 -1.2471866245221097e+00 -2.8904737163717847e+01 +1.6716334848484181e+04 -6.4313363307304709e+04 -7.8372475255384430e+07 
+1.0100000000000000e+01 -5.6496460778874513e-01 +7.7378946715866093e+00 -1.2443926285312181e+00 -2.8852997714054514e+01 +1.6712514643206687e+04 -6.4904619780930407e+04 -7.8441079152481616e+07 
