# field on trajectory
# s[mm] rx[mm] ry[mm] rz[mm] bx[T] by[T] bz[T]
0.0000000000000000e+00 +8.1529999999999987e+00 +0.0000000000000000e+00 +0.0000000000000000e+00 -2.9328965408874284e-02 -5.3675061247036326e-01 +5.2953832085065036e-03
1.0000000000000001e-01 +8.1529997170089086e+00 +0.0000000000000000e+00 +9.9999999999466113e-02 -2.9329117806135604e-02 -5.3675066894211954e-01 +5.2954676312229384e-03
2.0000000000000001e-01 +8.1529988680355956e+00 +0.0000000000000000e+00 +1.9999999999572887e-01 -2.9329263338497738e-02 -5.3675073502133874e-01 +5.2955540267767111e-03
3.0000000000000004e-01 +8.1529974530799922e+00 +0.0000000000000000e+00 +2.9999999998558491e-01 -2.9329402602182478e-02 -5.3675081030056626e-01 +5.2956423611968343e-03
4.0000000000000002e-01 +8.1529954721420168e+00 +0.0000000000000000e+00 +3.9999999996583085e-01 -2.9329536193407304e-02 -5.3675089437234746e-01 +5.2957326005130204e-03
5.0000000000000000e-01 +8.1529929252215823e+00 +0.0000000000000000e+00 +4.9999999993326338e-01 -2.9329664708385980e-02 -5.3675098682922973e-01 +5.2958247107556282e-03
5.9999999999999998e-01 +8.1529898123185909e+00 +0.0000000000000000e+00 +5.9999999988467911e-01 -2.9329788743329064e-02 -5.3675108726376086e-01 +5.2959186579556060e-03
6.9999999999999996e-01 +8.1529861334329379e+00 +0.0000000000000000e+00 +6.9999999981687466e-01 -2.9329908894444433e-02 -5.3675119526849036e-01 +5.2960144081444322e-03
7.9999999999999993e-01 +8.1529818885645078e+00 +0.0000000000000000e+00 +7.9999999972664670e-01 -2.9330025757937864e-02 -5.3675131043596991e-01 +5.2961119273540530e-03
8.9999999999999991e-01 +8.1529770777131798e+00 +0.0000000000000000e+00 +8.9999999961079180e-01 -2.9330139930013474e-02 -5.3675143235875267e-01 +5.2962111816168330e-03
9.9999999999999989e-01 +8.1529717008788261e+00 +0.0000000000000000e+00 +9.9999999946610663e-01 -2.9330252006874311e-02 -5.3675156062939400e-01 +5.2963121369654868e-03
1.0999999999999999e+00 +8.1529657580613115e+00 +0.0000000000000000e+00 +1.0999999992893879e+00 -2.9330362584722911e-02 -5.3675169484045226e-01 +5.2964147594330331e-03
1.2000000000000000e+00 +8.1529592492604941e+00 +0.0000000000000000e+00 +1.1999999990774319e+00 -2.9330472259761778e-02 -5.3675183458448839e-01 +5.2965190150527208e-03
1.3000000000000000e+00 +8.1529521744762281e+00 +0.0000000000000000e+00 +1.2999999988270357e+00 -2.9330581628193908e-02 -5.3675197945406627e-01 +5.2966248698579858e-03
1.4000000000000001e+00 +8.1529445337083590e+00 +0.0000000000000000e+00 +1.3999999985349956e+00 -2.9330691286223402e-02 -5.3675212904175273e-01 +5.2967322898823874e-03
1.5000000000000002e+00 +8.1529363269567305e+00 +0.0000000000000000e+00 +1.4999999981981083e+00 -2.9330801830055878e-02 -5.3675228294011901e-01 +5.2968412411595455e-03
1.6000000000000003e+00 +8.1529275542211810e+00 +0.0000000000000000e+00 +1.5999999978131703e+00 -2.9330913855899095e-02 -5.3675244074173933e-01 +5.2969516897230897e-03
1.7000000000000004e+00 +8.1529182155015434e+00 +0.0000000000000000e+00 +1.6999999973769784e+00 -2.9331027959963472e-02 -5.3675260203919228e-01 +5.2970636016065947e-03
1.8000000000000005e+00 +8.1529083107976490e+00 +0.0000000000000000e+00 +1.7999999968863292e+00 -2.9331144738462565e-02 -5.3675276642506109e-01 +5.2971769428435331e-03
1.9000000000000006e+00 +8.1528978401093255e+00 +0.0000000000000000e+00 +1.8999999963380192e+00 -2.9331264787613654e-02 -5.3675293349193254e-01 +5.2972916794672004e-03
2.0000000000000004e+00 +8.1528868034363953e+00 +0.0000000000000000e+00 +1.9999999957288450e+00 -2.9331388703638279e-02 -5.3675310283239974e-01 +5.2974077775106761e-03
2.1000000000000005e+00 +8.1528752007786807e+00 +0.0000000000000000e+00 +2.0999999950556032e+00 -2.9331516903291114e-02 -5.3675327416998708e-01 +5.2975252328193497e-03
2.2000000000000006e+00 +8.1528630321360023e+00 +0.0000000000000000e+00 +2.1999999943150903e+00 -2.9331649085440219e-02 -5.3675344775193068e-01 +5.2976441604889873e-03
2.3000000000000007e+00 +8.1528502975081754e+00 +0.0000000000000000e+00 +2.2999999935041031e+00 -2.9331784769471833e-02 -5.3675362395638548e-01 +5.2977647054283658e-03
2.4000000000000008e+00 +8.1528369968950170e+00 +0.0000000000000000e+00 +2.3999999926194380e+00 -2.9331923474759387e-02 -5.3675380316149546e-01 +5.2978870125467868e-03
2.5000000000000009e+00 +8.1528231302963370e+00 +0.0000000000000000e+00 +2.4999999916578917e+00 -2.9332064720662066e-02 -5.3675398574539179e-01 +5.2980112267541025e-03
2.6000000000000010e+00 +8.1528086977119436e+00 +0.0000000000000000e+00 +2.5999999906162610e+00 -2.9332208026523466e-02 -5.3675417208619292e-01 +5.2981374929607682e-03
2.7000000000000011e+00 +8.1527936991416414e+00 +0.0000000000000000e+00 +2.6999999894913418e+00 -2.9332352911670155e-02 -5.3675436256200126e-01 +5.2982659560778609e-03
2.8000000000000012e+00 +8.1527781345852297e+00 +0.0000000000000000e+00 +2.7999999882799314e+00 -2.9332498895410300e-02 -5.3675455755090218e-01 +5.2983967610171368e-03
2.9000000000000012e+00 +8.1527620040425024e+00 +0.0000000000000000e+00 +2.8999999869788260e+00 -2.9332645497032364e-02 -5.3675475743096412e-01 +5.2985300526910712e-03
3.0000000000000013e+00 +8.1527453075132499e+00 +0.0000000000000000e+00 +2.9999999855848221e+00 -2.9332792235803585e-02 -5.3675496258023525e-01 +5.2986659760128844e-03
3.1000000000000014e+00 +8.1527280449972572e+00 +0.0000000000000000e+00 +3.0999999840947163e+00 -2.9332938630968666e-02 -5.3675517337674239e-01 +5.2988046758965868e-03
3.2000000000000015e+00 +8.1527102164943006e+00 +0.0000000000000000e+00 +3.1999999825053052e+00 -2.9333084201748384e-02 -5.3675539019849150e-01 +5.2989462972570234e-03
3.3000000000000016e+00 +8.1526918220041544e+00 +0.0000000000000000e+00 +3.2999999808133853e+00 -2.9333228467338185e-02 -5.3675561342346312e-01 +5.2990909850099089e-03
3.4000000000000017e+00 +8.1526728615265824e+00 +0.0000000000000000e+00 +3.3999999790157531e+00 -2.9333370946906794e-02 -5.3675584342961380e-01 +5.2992388840718708e-03
3.5000000000000018e+00 +8.1526533350613430e+00 +0.0000000000000000e+00 +3.4999999771092054e+00 -2.9333511159594833e-02 -5.3675608059487245e-01 +5.2993901393604739e-03
3.6000000000000019e+00 +8.1526332426081858e+00 +0.0000000000000000e+00 +3.5999999750905385e+00 -2.9333648624513466e-02 -5.3675632529714090e-01 +5.2995448957942840e-03
3.7000000000000020e+00 +8.1526125841668531e+00 +0.0000000000000000e+00 +3.6999999729565491e+00 -2.9333782860742948e-02 -5.3675657791429099e-01 +5.2997032982928819e-03
3.8000000000000020e+00 +8.1525913597370803e+00 +0.0000000000000000e+00 +3.7999999707040337e+00 -2.9333913387331299e-02 -5.3675683882416358e-01 +5.2998654917769290e-03
3.9000000000000021e+00 +8.1525695693185938e+00 +0.0000000000000000e+00 +3.8999999683297886e+00 -2.9334039723292873e-02 -5.3675710840456770e-01 +5.3000316211681752e-03
4.0000000000000018e+00 +8.1525472129111076e+00 +0.0000000000000000e+00 +3.9999999658306105e+00 -2.9334161387607020e-02 -5.3675738703327835e-01 +5.3002018313895302e-03
4.1000000000000014e+00 +8.1525242905143305e+00 +0.0000000000000000e+00 +4.0999999632032953e+00 -2.9334278000906298e-02 -5.3675767477172576e-01 +5.3003762041777319e-03
4.2000000000000011e+00 +8.1525008021279604e+00 +0.0000000000000000e+00 +4.1999999604446403e+00 -2.9334389590574265e-02 -5.3675797041608231e-01 +5.3005545685198543e-03
4.3000000000000007e+00 +8.1524767477516846e+00 +0.0000000000000000e+00 +4.2999999575514414e+00 -2.9334496285729341e-02 -5.3675827244621732e-01 +5.3007366902132419e-03
4.4000000000000004e+00 +8.1524521273851871e+00 +0.0000000000000000e+00 +4.3999999545204957e+00 -2.9334598215546088e-02 -5.3675857934201676e-01 +5.3009223350525209e-03
4.5000000000000000e+00 +8.1524269410281445e+00 +0.0000000000000000e+00 +4.4999999513485998e+00 -2.9334695509259150e-02 -5.3675888958338025e-01 +5.3011112688293944e-03
4.5999999999999996e+00 +8.1524011886802299e+00 +0.0000000000000000e+00 +4.5999999480325489e+00 -2.9334788296167293e-02 -5.3675920165022550e-01 +5.3013032573324612e-03
4.6999999999999993e+00 +8.1523748703411165e+00 +0.0000000000000000e+00 +4.6999999445691403e+00 -2.9334876705637388e-02 -5.3675951402248967e-01 +5.3014980663470494e-03
4.7999999999999989e+00 +8.1523479860104739e+00 +0.0000000000000000e+00 +4.7999999409551704e+00 -2.9334960867108337e-02 -5.3675982518012966e-01 +5.3016954616550080e-03
4.8999999999999986e+00 +8.1523205356879771e+00 +0.0000000000000000e+00 +4.8999999371874354e+00 -2.9335040910095103e-02 -5.3676013360312436e-01 +5.3018952090345302e-03
4.9999999999999982e+00 +8.1522925193733009e+00 +0.0000000000000000e+00 +4.9999999332627327e+00 -2.9335116964192678e-02 -5.3676043777147642e-01 +5.3020970742599770e-03
5.0999999999999979e+00 +8.1522639370661256e+00 +0.0000000000000000e+00 +5.0999999291778577e+00 -2.9335189159080063e-02 -5.3676073616521414e-01 +5.3023008231016834e-03
5.1999999999999975e+00 +8.1522347887661386e+00 +0.0000000000000000e+00 +5.1999999249296076e+00 -2.9335257624524252e-02 -5.3676102726439112e-01 +5.3025062213257704e-03
5.2999999999999972e+00 +8.1522050744730326e+00 +0.0000000000000000e+00 +5.2999999205147779e+00 -2.9335322490384213e-02 -5.3676130954909007e-01 +5.3027130346939731e-03
5.3999999999999968e+00 +8.1521747941865126e+00 +0.0000000000000000e+00 +5.3999999159301657e+00 -2.9335383886614875e-02 -5.3676158149942355e-01 +5.3029210289634475e-03
5.4999999999999964e+00 +8.1521439479062909e+00 +0.0000000000000000e+00 +5.4999999111725675e+00 -2.9335441943271090e-02 -5.3676184159553486e-01 +5.3031299698865801e-03
5.5999999999999961e+00 +8.1521125356320958e+00 +0.0000000000000000e+00 +5.5999999062387786e+00 -2.9335496790511655e-02 -5.3676208831760031e-01 +5.3033396232108204e-03
5.6999999999999957e+00 +8.1520805573636679e+00 +0.0000000000000000e+00 +5.6999999011255964e+00 -2.9335548558603219e-02 -5.3676232014583125e-01 +5.3035497546784762e-03
5.7999999999999954e+00 +8.1520480131007638e+00 +0.0000000000000000e+00 +5.7999998958298180e+00 -2.9335597377924325e-02 -5.3676253556047393e-01 +5.3037601300265401e-03
5.8999999999999950e+00 +8.1520149028431579e+00 +0.0000000000000000e+00 +5.8999998903482389e+00 -2.9335643378969396e-02 -5.3676273304181321e-01 +5.3039705149865142e-03
5.9999999999999947e+00 +8.1519812265906442e+00 +0.0000000000000000e+00 +5.9999998846776554e+00 -2.9335686692352637e-02 -5.3676291107017182e-01 +5.3041806752841944e-03
6.0999999999999943e+00 +8.1519469843430343e+00 +0.0000000000000000e+00 +6.0999998788148639e+00 -2.9335727468368895e-02 -5.3676306869775725e-01 +5.3043904254578937e-03
6.1999999999999940e+00 +8.1519121761001632e+00 +0.0000000000000000e+00 +6.1999998727566616e+00 -2.9335765935602706e-02 -5.3676320726418669e-01 +5.3045997753169670e-03
6.2999999999999936e+00 +8.1518768018618868e+00 +0.0000000000000000e+00 +6.2999998664998440e+00 -2.9335802342143273e-02 -5.3676332868093624e-01 +5.3048087834915696e-03
6.3999999999999932e+00 +8.1518408616280773e+00 +0.0000000000000000e+00 +6.3999998600412082e+00 -2.9335836936007553e-02 -5.3676343485949007e-01 +5.3050175086148269e-03
6.4999999999999929e+00 +8.1518043553986228e+00 +0.0000000000000000e+00 +6.4999998533775507e+00 -2.9335869965136239e-02 -5.3676352771134284e-01 +5.3052260093230325e-03
6.5999999999999925e+00 +8.1517672831734274e+00 +0.0000000000000000e+00 +6.5999998465056677e+00 -2.9335901677389729e-02 -5.3676360914799759e-01 +5.3054343442558091e-03
6.6999999999999922e+00 +8.1517296449524075e+00 +0.0000000000000000e+00 +6.6999998394223557e+00 -2.9335932320544156e-02 -5.3676368108096684e-01 +5.3056425720562871e-03
6.7999999999999918e+00 +8.1516914407354868e+00 +0.0000000000000000e+00 +6.7999998321244108e+00 -2.9335962142287297e-02 -5.3676374542177308e-01 +5.3058507513712985e-03
6.8999999999999915e+00 +8.1516526705225978e+00 +0.0000000000000000e+00 +6.8999998246086305e+00 -2.9335991390214644e-02 -5.3676380408194813e-01 +5.3060589408515293e-03
6.9999999999999911e+00 +8.1516133343136801e+00 +0.0000000000000000e+00 +6.9999998168718101e+00 -2.9336020311825330e-02 -5.3676385897303436e-01 +5.3062671991517133e-03
7.0999999999999908e+00 +8.1515734321086786e+00 +0.0000000000000000e+00 +7.0999998089107468e+00 -2.9336049154518193e-02 -5.3676391200658358e-01 +5.3064755849308049e-03
7.1999999999999904e+00 +8.1515329639075365e+00 +0.0000000000000000e+00 +7.1999998007222361e+00 -2.9336078165587670e-02 -5.3676396509415847e-01 +5.3066841568521466e-03
7.2999999999999901e+00 +8.1514919297102004e+00 +0.0000000000000000e+00 +7.2999997923030753e+00 -2.9336107592219839e-02 -5.3676402014733171e-01 +5.3068929735836648e-03
7.3999999999999897e+00 +8.1514503295166119e+00 +0.0000000000000000e+00 +7.3999997836500606e+00 -2.9336137681488444e-02 -5.3676407907768708e-01 +5.3071020937980285e-03
7.4999999999999893e+00 +8.1514081633267121e+00 +0.0000000000000000e+00 +7.4999997747599894e+00 -2.9336168680350806e-02 -5.3676414379681880e-01 +5.3073115761728303e-03
7.5999999999999890e+00 +8.1513654311404320e+00 +0.0000000000000000e+00 +7.5999997656296570e+00 -2.9336200835643863e-02 -5.3676421621633197e-01 +5.3075214793907735e-03
7.6999999999999886e+00 +8.1513221329576968e+00 +0.0000000000000000e+00 +7.6999997562558598e+00 -2.9336234394080153e-02 -5.3676429824784355e-01 +5.3077318621398365e-03
7.7999999999999883e+00 +8.1512782687784213e+00 +0.0000000000000000e+00 +7.7999997466353950e+00 -2.9336269602243833e-02 -5.3676439180298063e-01 +5.3079427831134495e-03
7.8999999999999879e+00 +8.1512338386025096e+00 +0.0000000000000000e+00 +7.8999997367650581e+00 -2.9336306706586605e-02 -5.3676449879338228e-01 +5.3081543010106789e-03
7.9999999999999876e+00 +8.1511888424298480e+00 +0.0000000000000000e+00 +7.9999997266416463e+00 -2.9336345953423774e-02 -5.3676462113069945e-01 +5.3083664745363981e-03
8.0999999999999872e+00 +8.1511432802603103e+00 +0.0000000000000000e+00 +8.0999997162619550e+00 -2.9336387518867513e-02 -5.3676476038565468e-01 +5.3085793368824533e-03
8.1999999999999869e+00 +8.1510971520937510e+00 +0.0000000000000000e+00 +8.1999997056227816e+00 -2.9336431298685815e-02 -5.3676491676521387e-01 +5.3087928191685538e-03
8.2999999999999865e+00 +8.1510504579300065e+00 +0.0000000000000000e+00 +8.2999996947209222e+00 -2.9336477118583081e-02 -5.3676509013541440e-01 +5.3090068269973992e-03
8.3999999999999861e+00 +8.1510031977688939e+00 +0.0000000000000000e+00 +8.3999996835531743e+00 -2.9336524804278022e-02 -5.3676528036231275e-01 +5.3092212659738370e-03
8.4999999999999858e+00 +8.1509553716102161e+00 +0.0000000000000000e+00 +8.4999996721163331e+00 -2.9336574181504448e-02 -5.3676548731198392e-01 +5.3094360417048798e-03
8.5999999999999854e+00 +8.1509069794537563e+00 +0.0000000000000000e+00 +8.5999996604071942e+00 -2.9336625076012247e-02 -5.3676571085052072e-01 +5.3096510597997852e-03
8.6999999999999851e+00 +8.1508580212992801e+00 +0.0000000000000000e+00 +8.6999996484225548e+00 -2.9336677313568180e-02 -5.3676595084403633e-01 +5.3098662258700821e-03
8.7999999999999847e+00 +8.1508084971465351e+00 +0.0000000000000000e+00 +8.7999996361592121e+00 -2.9336730719956877e-02 -5.3676620715866319e-01 +5.3100814455296352e-03
8.8999999999999844e+00 +8.1507584069952532e+00 +0.0000000000000000e+00 +8.8999996236139616e+00 -2.9336785120981611e-02 -5.3676647966055357e-01 +5.3102966243946852e-03
8.9999999999999840e+00 +8.1507077508451484e+00 +0.0000000000000000e+00 +8.9999996107836004e+00 -2.9336840342465278e-02 -5.3676676821587999e-01 +5.3105116680839028e-03
9.0999999999999837e+00 +8.1506565286959187e+00 +0.0000000000000000e+00 +9.0999995976649242e+00 -2.9336896210251220e-02 -5.3676707269083501e-01 +5.3107264822184292e-03
9.1999999999999833e+00 +8.1506047405472444e+00 +0.0000000000000000e+00 +9.1999995842547282e+00 -2.9336952550204163e-02 -5.3676739295163323e-01 +5.3109409724219391e-03
9.2999999999999829e+00 +8.1505523863987897e+00 +0.0000000000000000e+00 +9.2999995705498097e+00 -2.9337009188211069e-02 -5.3676772886450941e-01 +5.3111550443206831e-03
9.3999999999999826e+00 +8.1504994662502011e+00 +0.0000000000000000e+00 +9.3999995565469643e+00 -2.9337065950182022e-02 -5.3676808029572032e-01 +5.3113686035435341e-03
9.4999999999999822e+00 +8.1504459801011109e+00 +0.0000000000000000e+00 +9.4999995422429890e+00 -2.9337122662051171e-02 -5.3676844711154448e-01 +5.3115815557220423e-03
9.5999999999999819e+00 +8.1503919279511337e+00 +0.0000000000000000e+00 +9.5999995276346795e+00 -2.9337179149777508e-02 -5.3676882917828250e-01 +5.3117938064904825e-03
9.6999999999999815e+00 +8.1503373097998679e+00 +0.0000000000000000e+00 +9.6999995127188328e+00 -2.9337235239345866e-02 -5.3676922636225799e-01 +5.3120052614859066e-03
9.7999999999999812e+00 +8.1502821256468962e+00 +0.0000000000000000e+00 +9.7999994974922444e+00 -2.9337290756767758e-02 -5.3676963852981630e-01 +5.3122158263481855e-03
9.8999999999999808e+00 +8.1502263754917870e+00 +0.0000000000000000e+00 +9.8999994819517116e+00 -2.9337345528082245e-02 -5.3677006554732720e-01 +5.3124254067200742e-03
9.9999999999999805e+00 +8.1501700593340907e+00 +0.0000000000000000e+00 +9.9999994660940281e+00 -2.9337399379356848e-02 -5.3677050728118314e-01 +5.3126339082472454e-03
1.0099999999999980e+01 +8.1501131771733455e+00 +0.0000000000000000e+00 +1.0099999449915993e+01 -2.9337452180259200e-02 -5.3677096335927754e-01 +5.3128412688794669e-03
1.0199999999999980e+01 +8.1500557290090700e+00 +0.0000000000000000e+00 +1.0199999433414400e+01 -2.9337503974771060e-02 -5.3677143245537395e-01 +5.3130475557738666e-03
1.0299999999999979e+01 +8.1499977148407723e+00 +0.0000000000000000e+00 +1.0299999416586045e+01 -2.9337554850472087e-02 -5.3677191300459792e-01 +5.3132528683866144e-03
1.0399999999999979e+01 +8.1499391346679477e+00 +0.0000000000000000e+00 +1.0399999399427728e+01 -2.9337604894967801e-02 -5.3677240344195243e-01 +5.3134573061700803e-03
1.0499999999999979e+01 +8.1498799884900812e+00 +0.0000000000000000e+00 +1.0499999381936242e+01 -2.9337654195890472e-02 -5.3677290220231688e-01 +5.3136609685727572e-03
1.0599999999999978e+01 +8.1498202763066487e+00 +0.0000000000000000e+00 +1.0599999364108383e+01 -2.9337702840899770e-02 -5.3677340772044180e-01 +5.3138639550391010e-03
1.0699999999999978e+01 +8.1497599981171192e+00 +0.0000000000000000e+00 +1.0699999345940947e+01 -2.9337750917683519e-02 -5.3677391843094568e-01 +5.3140663650094386e-03
1.0799999999999978e+01 +8.1496991539209560e+00 +0.0000000000000000e+00 +1.0799999327430731e+01 -2.9337798513958485e-02 -5.3677443276831405e-01 +5.3142682979198516e-03
1.0899999999999977e+01 +8.1496377437176193e+00 +0.0000000000000000e+00 +1.0899999308574531e+01 -2.9337845717471063e-02 -5.3677494916689317e-01 +5.3144698532020425e-03
1.0999999999999977e+01 +8.1495757675065672e+00 +0.0000000000000000e+00 +1.0999999289369141e+01 -2.9337892615998055e-02 -5.3677546606088977e-01 +5.3146711302832252e-03
1.1099999999999977e+01 +8.1495132252872562e+00 +0.0000000000000000e+00 +1.1099999269811359e+01 -2.9337939297347407e-02 -5.3677598188436615e-01 +5.3148722285860130e-03
1.1199999999999976e+01 +8.1494501170591445e+00 +0.0000000000000000e+00 +1.1199999249897981e+01 -2.9337985849358952e-02 -5.3677649507123748e-01 +5.3150732475282896e-03
1.1299999999999976e+01 +8.1493864428216920e+00 +0.0000000000000000e+00 +1.1299999229625802e+01 -2.9338032359905106e-02 -5.3677700405526851e-01 +5.3152742865231004e-03
1.1399999999999975e+01 +8.1493222025743659e+00 +0.0000000000000000e+00 +1.1399999208991620e+01 -2.9338078916891677e-02 -5.3677750727007101e-01 +5.3154754449785272e-03
1.1499999999999975e+01 +8.1492573963166368e+00 +0.0000000000000000e+00 +1.1499999187992229e+01 -2.9338125608258589e-02 -5.3677800314909940e-01 +5.3156768222975739e-03
1.1599999999999975e+01 +8.1491920240479843e+00 +0.0000000000000000e+00 +1.1599999166624425e+01 -2.9338172521980611e-02 -5.3677849012564993e-01 +5.3158785178780482e-03
1.1699999999999974e+01 +8.1491260857678967e+00 +0.0000000000000000e+00 +1.1699999144885005e+01 -2.9338219746068081e-02 -5.3677896663285396e-01 +5.3160806311124383e-03
1.1799999999999974e+01 +8.1490595814758748e+00 +0.0000000000000000e+00 +1.1799999122770766e+01 -2.9338267368567698e-02 -5.3677943110367876e-01 +5.3162832613878061e-03
