# trajectory
# s[mm] rx[mm] ry[mm] rz[mm] px[rad] py[rad] pz[rad]
0.0000000000000000e+00 +7.9199999999999999e+00 +0.0000000000000000e+00 +0.0000000000000000e+00 +0.0000000000000000e+00 +0.0000000000000000e+00 +1.0000000000000000e+00
1.0000000000000001e-01 +7.9199997168831837e+00 +0.0000000000000000e+00 +9.9999999999465641e-02 -5.6623355073167244e-06 +0.0000000000000000e+00 +9.9999999998396893e-01
2.0000000000000001e-01 +7.9199988675330610e+00 +0.0000000000000000e+00 +1.9999999999572504e-01 -1.1324666137493756e-05 +0.0000000000000000e+00 +9.9999999993587596e-01
3.0000000000000004e-01 +7.9199974519501204e+00 +0.0000000000000000e+00 +2.9999999998557209e-01 -1.6986991846504562e-05 +0.0000000000000000e+00 +9.9999999985572108e-01
4.0000000000000002e-01 +7.9199954701348565e+00 +0.0000000000000000e+00 +3.9999999996580055e-01 -2.2649312604234598e-05 +0.0000000000000000e+00 +9.9999999974350440e-01
5.0000000000000000e-01 +7.9199929220877650e+00 +0.0000000000000000e+00 +4.9999999993320426e-01 -2.8311628394481504e-05 +0.0000000000000000e+00 +9.9999999959922592e-01
5.9999999999999998e-01 +7.9199898078093431e+00 +0.0000000000000000e+00 +5.9999999988457708e-01 -3.3973939214955275e-05 +0.0000000000000000e+00 +9.9999999942288575e-01
6.9999999999999996e-01 +7.9199861273000876e+00 +0.0000000000000000e+00 +6.9999999981671279e-01 -3.9636245077278443e-05 +0.0000000000000000e+00 +9.9999999921448401e-01
7.9999999999999993e-01 +7.9199818805604920e+00 +0.0000000000000000e+00 +7.9999999972640523e-01 -4.5298546006986266e-05 +0.0000000000000000e+00 +9.9999999897402081e-01
8.9999999999999991e-01 +7.9199770675910486e+00 +0.0000000000000000e+00 +8.9999999961044830e-01 -5.0960842043526912e-05 +0.0000000000000000e+00 +9.9999999870149625e-01
9.9999999999999989e-01 +7.9199716883922440e+00 +0.0000000000000000e+00 +9.9999999946563578e-01 -5.6623133240261628e-05 +0.0000000000000000e+00 +9.9999999839691034e-01
1.0999999999999999e+00 +7.9199657429645596e+00 +0.0000000000000000e+00 +1.0999999992887617e+00 -6.2285419664464926e-05 +0.0000000000000000e+00 +9.9999999806026318e-01
1.2000000000000000e+00 +7.9199592313084679e+00 +0.0000000000000000e+00 +1.1999999990766197e+00 -6.7947701397324801e-05 +0.0000000000000000e+00 +9.9999999769155490e-01
1.3000000000000000e+00 +7.9199521534244335e+00 +0.0000000000000000e+00 +1.2999999988260038e+00 -7.3609978533942873e-05 +0.0000000000000000e+00 +9.9999999729078548e-01
1.4000000000000001e+00 +7.9199445093129111e+00 +0.0000000000000000e+00 +1.3999999985337079e+00 -7.9272251183334612e-05 +0.0000000000000000e+00 +9.9999999685795504e-01
1.5000000000000002e+00 +7.9199362989743429e+00 +0.0000000000000000e+00 +1.4999999981965260e+00 -8.4934519468429477e-05 +0.0000000000000000e+00 +9.9999999639306369e-01
1.6000000000000003e+00 +7.9199275224091590e+00 +0.0000000000000000e+00 +1.5999999978112518e+00 -9.0596783526071171e-05 +0.0000000000000000e+00 +9.9999999589611144e-01
1.7000000000000004e+00 +7.9199181796177740e+00 +0.0000000000000000e+00 +1.6999999973746793e+00 -9.6259043507017760e-05 +0.0000000000000000e+00 +9.9999999536709827e-01
1.8000000000000005e+00 +7.9199082706005877e+00 +0.0000000000000000e+00 +1.7999999968836027e+00 -1.0192129957594192e-04 +0.0000000000000000e+00 +9.9999999480602431e-01
1.9000000000000006e+00 +7.9198977953579828e+00 +0.0000000000000000e+00 +1.8999999963348155e+00 -1.0758355191143111e-04 +0.0000000000000000e+00 +9.9999999421288965e-01
2.0000000000000004e+00 +7.9198867538903235e+00 +0.0000000000000000e+00 +1.9999999957251120e+00 -1.1324580070598774e-04 +0.0000000000000000e+00 +9.9999999358769431e-01
2.1000000000000005e+00 +7.9198751461979526e+00 +0.0000000000000000e+00 +2.0999999950512858e+00 -1.1890804616493007e-04 +0.0000000000000000e+00 +9.9999999293043829e-01
2.2000000000000006e+00 +7.9198629722811944e+00 +0.0000000000000000e+00 +2.1999999943101307e+00 -1.2457028849429991e-04 +0.0000000000000000e+00 +9.9999999224112157e-01
2.3000000000000007e+00 +7.9198502321403517e+00 +0.0000000000000000e+00 +2.2999999934984410e+00 -1.3023252788877011e-04 +0.0000000000000000e+00 +9.9999999151974428e-01
2.4000000000000008e+00 +7.9198369257757086e+00 +0.0000000000000000e+00 +2.3999999926130107e+00 -1.3589476453054511e-04 +0.0000000000000000e+00 +9.9999999076630641e-01
2.5000000000000009e+00 +7.9198230531875318e+00 +0.0000000000000000e+00 +2.4999999916506335e+00 -1.4155699858936074e-04 +0.0000000000000000e+00 +9.9999998998080797e-01
2.6000000000000010e+00 +7.9198086143760715e+00 +0.0000000000000000e+00 +2.5999999906081035e+00 -1.4721923022248390e-04 +0.0000000000000000e+00 +9.9999998916324906e-01
2.7000000000000011e+00 +7.9197936093415633e+00 +0.0000000000000000e+00 +2.6999999894822144e+00 -1.5288145957471244e-04 +0.0000000000000000e+00 +9.9999998831362957e-01
2.8000000000000012e+00 +7.9197780380842282e+00 +0.0000000000000000e+00 +2.7999999882697604e+00 -1.5854368677837471e-04 +0.0000000000000000e+00 +9.9999998743194962e-01
2.9000000000000012e+00 +7.9197619006042750e+00 +0.0000000000000000e+00 +2.8999999869675355e+00 -1.6420591195332932e-04 +0.0000000000000000e+00 +9.9999998651820921e-01
3.0000000000000013e+00 +7.9197451969019017e+00 +0.0000000000000000e+00 +2.9999999855723334e+00 -1.6986813520696465e-04 +0.0000000000000000e+00 +9.9999998557240832e-01
3.1000000000000014e+00 +7.9197279269772949e+00 +0.0000000000000000e+00 +3.0999999840809482e+00 -1.7553035663419854e-04 +0.0000000000000000e+00 +9.9999998459454698e-01
3.2000000000000015e+00 +7.9197100908306330e+00 +0.0000000000000000e+00 +3.1999999824901741e+00 -1.8119257631747773e-04 +0.0000000000000000e+00 +9.9999998358462516e-01
3.3000000000000016e+00 +7.9196916884620867e+00 +0.0000000000000000e+00 +3.2999999807968048e+00 -1.8685479432677747e-04 +0.0000000000000000e+00 +9.9999998254264288e-01
3.4000000000000017e+00 +7.9196727198718211e+00 +0.0000000000000000e+00 +3.3999999789976343e+00 -1.9251701071960089e-04 +0.0000000000000000e+00 +9.9999998146860025e-01
3.5000000000000018e+00 +7.9196531850599952e+00 +0.0000000000000000e+00 +3.4999999770894563e+00 -1.9817922554097846e-04 +0.0000000000000000e+00 +9.9999998036249726e-01
3.6000000000000019e+00 +7.9196330840267644e+00 +0.0000000000000000e+00 +3.5999999750690650e+00 -2.0384143882346746e-04 +0.0000000000000000e+00 +9.9999997922433392e-01
3.7000000000000020e+00 +7.9196124167722814e+00 +0.0000000000000000e+00 +3.6999999729332544e+00 -2.0950365058715123e-04 +0.0000000000000000e+00 +9.9999997805411023e-01
3.8000000000000020e+00 +7.9195911832966974e+00 +0.0000000000000000e+00 +3.7999999706788183e+00 -2.1516586083963852e-04 +0.0000000000000000e+00 +9.9999997685182618e-01
3.9000000000000021e+00 +7.9195693836001642e+00 +0.0000000000000000e+00 +3.8999999683025508e+00 -2.2082806957606285e-04 +0.0000000000000000e+00 +9.9999997561748177e-01
4.0000000000000018e+00 +7.9195470176828335e+00 +0.0000000000000000e+00 +3.9999999658012459e+00 -2.2649027677908165e-04 +0.0000000000000000e+00 +9.9999997435107713e-01
4.1000000000000014e+00 +7.9195240855448601e+00 +0.0000000000000000e+00 +4.0999999631716975e+00 -2.3215248241955730e-04 +0.0000000000000000e+00 +9.9999997305261223e-01
4.2000000000000011e+00 +7.9195005871864028e+00 +0.0000000000000000e+00 +4.1999999604106995e+00 -2.3781468646405575e-04 +0.0000000000000000e+00 +9.9999997172208721e-01
4.3000000000000007e+00 +7.9194765226076216e+00 +0.0000000000000000e+00 +4.2999999575150465e+00 -2.4347688888234572e-04 +0.0000000000000000e+00 +9.9999997035950206e-01
4.4000000000000004e+00 +7.9194518918086816e+00 +0.0000000000000000e+00 +4.3999999544815314e+00 -2.4913908964808052e-04 +0.0000000000000000e+00 +9.9999996896485677e-01
4.5000000000000000e+00 +7.9194266947897480e+00 +0.0000000000000000e+00 +4.4999999513069486e+00 -2.5480128873879820e-04 +0.0000000000000000e+00 +9.9999996753815135e-01
4.5999999999999996e+00 +7.9194009315509897e+00 +0.0000000000000000e+00 +4.5999999479880929e+00 -2.6046348613592167e-04 +0.0000000000000000e+00 +9.9999996607938590e-01
4.6999999999999993e+00 +7.9193746020925770e+00 +0.0000000000000000e+00 +4.6999999445217577e+00 -2.6612568182475896e-04 +0.0000000000000000e+00 +9.9999996458856044e-01
4.7999999999999989e+00 +7.9193477064146816e+00 +0.0000000000000000e+00 +4.7999999409047369e+00 -2.7178787579450328e-04 +0.0000000000000000e+00 +9.9999996306567496e-01
4.8999999999999986e+00 +7.9193202445174755e+00 +0.0000000000000000e+00 +4.8999999371338241e+00 -2.7745006803823335e-04 +0.0000000000000000e+00 +9.9999996151072945e-01
4.9999999999999982e+00 +7.9192922164011312e+00 +0.0000000000000000e+00 +4.9999999332058138e+00 -2.8311225855291353e-04 +0.0000000000000000e+00 +9.9999995992372404e-01
5.0999999999999979e+00 +7.9192636220658219e+00 +0.0000000000000000e+00 +5.0999999291174998e+00 -2.8877444733939420e-04 +0.0000000000000000e+00 +9.9999995830465871e-01
5.1999999999999975e+00 +7.9192344615117207e+00 +0.0000000000000000e+00 +5.1999999248656765e+00 -2.9443663440241187e-04 +0.0000000000000000e+00 +9.9999995665353347e-01
5.2999999999999972e+00 +7.9192047347389991e+00 +0.0000000000000000e+00 +5.2999999204471377e+00 -3.0009881975058962e-04 +0.0000000000000000e+00 +9.9999995497034844e-01
5.3999999999999968e+00 +7.9191744417478276e+00 +0.0000000000000000e+00 +5.3999999158586771e+00 -3.0576100339643736e-04 +0.0000000000000000e+00 +9.9999995325510360e-01
5.4999999999999964e+00 +7.9191435825383758e+00 +0.0000000000000000e+00 +5.4999999110970892e+00 -3.1142318535635219e-04 +0.0000000000000000e+00 +9.9999995150779897e-01
5.5999999999999961e+00 +7.9191121571108116e+00 +0.0000000000000000e+00 +5.5999999061591677e+00 -3.1708536565061866e-04 +0.0000000000000000e+00 +9.9999994972843453e-01
5.6999999999999957e+00 +7.9190801654653002e+00 +0.0000000000000000e+00 +5.6999999010417071e+00 -3.2274754430340933e-04 +0.0000000000000000e+00 +9.9999994791701030e-01
5.7999999999999954e+00 +7.9190476076020042e+00 +0.0000000000000000e+00 +5.7999998957415011e+00 -3.2840972134278503e-04 +0.0000000000000000e+00 +9.9999994607352638e-01
5.8999999999999950e+00 +7.9190144835210843e+00 +0.0000000000000000e+00 +5.8999998902553434e+00 -3.3407189680069530e-04 +0.0000000000000000e+00 +9.9999994419798266e-01
5.9999999999999947e+00 +7.9189807932226959e+00 +0.0000000000000000e+00 +5.9999998845800286e+00 -3.3973407071297883e-04 +0.0000000000000000e+00 +9.9999994229037925e-01
6.0999999999999943e+00 +7.9189465367069918e+00 +0.0000000000000000e+00 +6.0999998787123504e+00 -3.4539624311929356e-04 +0.0000000000000000e+00 +9.9999994035071615e-01
6.1999999999999940e+00 +7.9189117139741203e+00 +0.0000000000000000e+00 +6.1999998726491032e+00 -3.5105841406234226e-04 +0.0000000000000000e+00 +9.9999993837899337e-01
6.2999999999999936e+00 +7.9188763250242262e+00 +0.0000000000000000e+00 +6.2999998663870809e+00 -3.5672058358709780e-04 +0.0000000000000000e+00 +9.9999993637521090e-01
6.3999999999999932e+00 +7.9188403698574490e+00 +0.0000000000000000e+00 +6.3999998599230770e+00 -3.6238275174073288e-04 +0.0000000000000000e+00 +9.9999993433936873e-01
6.4999999999999929e+00 +7.9188038484739227e+00 +0.0000000000000000e+00 +6.4999998532538861e+00 -3.6804491857261992e-04 +0.0000000000000000e+00 +9.9999993227146688e-01
6.5999999999999925e+00 +7.9187667608737771e+00 +0.0000000000000000e+00 +6.5999998463763019e+00 -3.7370708413433121e-04 +0.0000000000000000e+00 +9.9999993017150546e-01
6.6999999999999922e+00 +7.9187291070571364e+00 +0.0000000000000000e+00 +6.6999998392871190e+00 -3.7936924847963873e-04 +0.0000000000000000e+00 +9.9999992803948434e-01
6.7999999999999918e+00 +7.9186908870241197e+00 +0.0000000000000000e+00 +6.7999998319831310e+00 -3.8503141166451436e-04 +0.0000000000000000e+00 +9.9999992587540354e-01
6.8999999999999915e+00 +7.9186521007748398e+00 +0.0000000000000000e+00 +6.8999998244611316e+00 -3.9069357374712978e-04 +0.0000000000000000e+00 +9.9999992367926305e-01
6.9999999999999911e+00 +7.9186127483094051e+00 +0.0000000000000000e+00 +6.9999998167179154e+00 -3.9635573478785657e-04 +0.0000000000000000e+00 +9.9999992145106287e-01
7.0999999999999908e+00 +7.9185728296279150e+00 +0.0000000000000000e+00 +7.0999998087502760e+00 -4.0201789484926615e-04 +0.0000000000000000e+00 +9.9999991919080300e-01
7.1999999999999904e+00 +7.9185323447304654e+00 +0.0000000000000000e+00 +7.1999998005550072e+00 -4.0768005399612978e-04 +0.0000000000000000e+00 +9.9999991689848344e-01
7.2999999999999901e+00 +7.9184912936171443e+00 +0.0000000000000000e+00 +7.2999997921289035e+00 -4.1334221229541869e-04 +0.0000000000000000e+00 +9.9999991457410420e-01
7.3999999999999897e+00 +7.9184496762880325e+00 +0.0000000000000000e+00 +7.3999997834687594e+00 -4.1900436981630399e-04 +0.0000000000000000e+00 +9.9999991221766527e-01
7.4999999999999893e+00 +7.9184074927432047e+00 +0.0000000000000000e+00 +7.4999997745713678e+00 -4.2466652663015678e-04 +0.0000000000000000e+00 +9.9999990982916664e-01
7.5999999999999890e+00 +7.9183647429827273e+00 +0.0000000000000000e+00 +7.5999997654335241e+00 -4.3032868281054807e-04 +0.0000000000000000e+00 +9.9999990740860822e-01
7.6999999999999886e+00 +7.9183214270066609e+00 +0.0000000000000000e+00 +7.6999997560520210e+00 -4.3599083843324891e-04 +0.0000000000000000e+00 +9.9999990495599000e-01
7.7999999999999883e+00 +7.9182775448150569e+00 +0.0000000000000000e+00 +7.7999997464236532e+00 -4.4165299357623036e-04 +0.0000000000000000e+00 +9.9999990247131199e-01
7.8999999999999879e+00 +7.9182330964079588e+00 +0.0000000000000000e+00 +7.8999997365452144e+00 -4.4731514831966340e-04 +0.0000000000000000e+00 +9.9999989995457417e-01
7.9999999999999876e+00 +7.9181880817854031e+00 +0.0000000000000000e+00 +7.9999997264134990e+00 -4.5297730274591929e-04 +0.0000000000000000e+00 +9.9999989740577644e-01
8.0999999999999872e+00 +7.9181425009474173e+00 +0.0000000000000000e+00 +8.0999997160253017e+00 -4.5863945693943274e-04 +0.0000000000000000e+00 +9.9999989482491880e-01
8.1999999999999869e+00 +7.9180963538940201e+00 +0.0000000000000000e+00 +8.1999997053774152e+00 -4.6430161098520229e-04 +0.0000000000000000e+00 +9.9999989221200125e-01
8.2999999999999865e+00 +7.9180496406252221e+00 +0.0000000000000000e+00 +8.2999996944666332e+00 -4.6996376496729020e-04 +0.0000000000000000e+00 +9.9999988956702379e-01
8.3999999999999861e+00 +7.9180023611410260e+00 +0.0000000000000000e+00 +8.3999996832897512e+00 -4.7562591896868682e-04 +0.0000000000000000e+00 +9.9999988688998631e-01
8.4999999999999858e+00 +7.9179545154414255e+00 +0.0000000000000000e+00 +8.4999996718435629e+00 -4.8128807307131112e-04 +0.0000000000000000e+00 +9.9999988418088881e-01
8.5999999999999854e+00 +7.9179061035264056e+00 +0.0000000000000000e+00 +8.5999996601248618e+00 -4.8695022735601123e-04 +0.0000000000000000e+00 +9.9999988143973118e-01
8.6999999999999851e+00 +7.9178571253959449e+00 +0.0000000000000000e+00 +8.6999996481304418e+00 -4.9261238190256515e-04 +0.0000000000000000e+00 +9.9999987866651341e-01
8.7999999999999847e+00 +7.9178075810500133e+00 +0.0000000000000000e+00 +8.7999996358570964e+00 -4.9827453678968122e-04 +0.0000000000000000e+00 +9.9999987586123551e-01
8.8999999999999844e+00 +7.9177574704885725e+00 +0.0000000000000000e+00 +8.8999996233016194e+00 -5.0393669209499901e-04 +0.0000000000000000e+00 +9.9999987302389737e-01
8.9999999999999840e+00 +7.9177067937115773e+00 +0.0000000000000000e+00 +8.9999996104608062e+00 -5.0959884789508975e-04 +0.0000000000000000e+00 +9.9999987015449898e-01
9.0999999999999837e+00 +7.9176555507189743e+00 +0.0000000000000000e+00 +9.0999995973314505e+00 -5.1526100426545717e-04 +0.0000000000000000e+00 +9.9999986725304024e-01
9.1999999999999833e+00 +7.9176037415107023e+00 +0.0000000000000000e+00 +9.1999995839103459e+00 -5.2092316128053815e-04 +0.0000000000000000e+00 +9.9999986431952115e-01
9.2999999999999829e+00 +7.9175513660866939e+00 +0.0000000000000000e+00 +9.2999995701942861e+00 -5.2658531901370335e-04 +0.0000000000000000e+00 +9.9999986135394159e-01
9.3999999999999826e+00 +7.9174984244468734e+00 +0.0000000000000000e+00 +9.3999995561800649e+00 -5.3224747753725812e-04 +0.0000000000000000e+00 +9.9999985835630156e-01
9.4999999999999822e+00 +7.9174449165911582e+00 +0.0000000000000000e+00 +9.4999995418644776e+00 -5.3790963692244311e-04 +0.0000000000000000e+00 +9.9999985532660107e-01
9.5999999999999819e+00 +7.9173908425194579e+00 +0.0000000000000000e+00 +9.5999995272443162e+00 -5.4357179723943502e-04 +0.0000000000000000e+00 +9.9999985226484001e-01
9.6999999999999815e+00 +7.9173362022316764e+00 +0.0000000000000000e+00 +9.6999995123163760e+00 -5.4923395855734742e-04 +0.0000000000000000e+00 +9.9999984917101825e-01
9.7999999999999812e+00 +7.9172809957277108e+00 +0.0000000000000000e+00 +9.7999994970774509e+00 -5.5489612094423166e-04 +0.0000000000000000e+00 +9.9999984604513592e-01
9.8999999999999808e+00 +7.9172252230074500e+00 +0.0000000000000000e+00 +9.8999994815243344e+00 -5.6055828446707756e-04 +0.0000000000000000e+00 +9.9999984288719279e-01
9.9999999999999805e+00 +7.9171688840707777e+00 +0.0000000000000000e+00 +9.9999994656538203e+00 -5.6622044919181426e-04 +0.0000000000000000e+00 +9.9999983969718886e-01
1.0099999999999980e+01 +7.9171119789175695e+00 +0.0000000000000000e+00 +1.0099999449462704e+01 -5.7188261518330578e-04 +0.0000000000000000e+00 +9.9999983647512414e-01
1.0199999999999980e+01 +7.9170545075476966e+00 +0.0000000000000000e+00 +1.0199999432947777e+01 -5.7754478250529476e-04 +0.0000000000000000e+00 +9.9999983322099850e-01
1.0299999999999979e+01 +7.9169964699610222e+00 +0.0000000000000000e+00 +1.0299999416105836e+01 -5.8320695122034496e-04 +0.0000000000000000e+00 +9.9999982993481185e-01
1.0399999999999979e+01 +7.9169378661574044e+00 +0.0000000000000000e+00 +1.0399999398933671e+01 -5.8886912138983579e-04 +0.0000000000000000e+00 +9.9999982661656417e-01
1.0499999999999979e+01 +7.9168786961366937e+00 +0.0000000000000000e+00 +1.0499999381428079e+01 -5.9453129307396216e-04 +0.0000000000000000e+00 +9.9999982326625547e-01
1.0599999999999978e+01 +7.9168189598987366e+00 +0.0000000000000000e+00 +1.0599999363585853e+01 -6.0019346633173338e-04 +0.0000000000000000e+00 +9.9999981988388553e-01
1.0699999999999978e+01 +7.9167586574433733e+00 +0.0000000000000000e+00 +1.0699999345403787e+01 -6.0585564122097343e-04 +0.0000000000000000e+00 +9.9999981646945446e-01
1.0799999999999978e+01 +7.9166977887704366e+00 +0.0000000000000000e+00 +1.0799999326878675e+01 -6.1151781779831996e-04 +0.0000000000000000e+00 +9.9999981302296204e-01
1.0899999999999977e+01 +7.9166363538797553e+00 +0.0000000000000000e+00 +1.0899999308007311e+01 -6.1717999611922403e-04 +0.0000000000000000e+00 +9.9999980954440837e-01
1.0999999999999977e+01 +7.9165743527711525e+00 +0.0000000000000000e+00 +1.0999999288786489e+01 -6.2284217623794966e-04 +0.0000000000000000e+00 +9.9999980603379324e-01
1.1099999999999977e+01 +7.9165117854444462e+00 +0.0000000000000000e+00 +1.1099999269213001e+01 -6.2850435820757298e-04 +0.0000000000000000e+00 +9.9999980249111664e-01
1.1199999999999976e+01 +7.9164486518994481e+00 +0.0000000000000000e+00 +1.1199999249283643e+01 -6.3416654207998217e-04 +0.0000000000000000e+00 +9.9999979891637858e-01
1.1299999999999976e+01 +7.9163849521359655e+00 +0.0000000000000000e+00 +1.1299999228995208e+01 -6.3982872790587669e-04 +0.0000000000000000e+00 +9.9999979530957883e-01
1.1399999999999975e+01 +7.9163206861538002e+00 +0.0000000000000000e+00 +1.1399999208344489e+01 -6.4549091573476653e-04 +0.0000000000000000e+00 +9.9999979167071751e-01
1.1499999999999975e+01 +7.9162558539527499e+00 +0.0000000000000000e+00 +1.1499999187328282e+01 -6.5115310561497186e-04 +0.0000000000000000e+00 +9.9999978799979439e-01
1.1599999999999975e+01 +7.9161904555326075e+00 +0.0000000000000000e+00 +1.1599999165943379e+01 -6.5681529759362243e-04 +0.0000000000000000e+00 +9.9999978429680947e-01
1.1699999999999974e+01 +7.9161244908931598e+00 +0.0000000000000000e+00 +1.1699999144186574e+01 -6.6247749171665694e-04 +0.0000000000000000e+00 +9.9999978056176275e-01
1.1799999999999974e+01 +7.9160579600341912e+00 +0.0000000000000000e+00 +1.1799999122054661e+01 -6.6813968802882239e-04 +0.0000000000000000e+00 +9.9999977679465413e-01
