# multipoles
# s[mm] polynom_b[n=0][T/m^n] polynom_b[n=1][T/m^n] polynom_b[n=2][T/m^n] polynom_b[n=3][T/m^n] polynom_b[n=4][T/m^n] polynom_b[n=5][T/m^n] polynom_b[n=6][T/m^n] 
-0.0000000000000000e+00 -5.3699232723341694e-01 +7.3628109446420655e+00 -7.1994284140312920e-02 +4.7667662233453880e+00 -5.8966326670427916e+03 -2.7249820723752957e+05 +2.4356567921818852e+07 
-1.0000000000000001e-01 -5.3699243124817642e-01 +7.3627893783890146e+00 -7.8187104299639043e-02 +5.6154504328873482e+00 -5.7848806450938646e+03 -2.7797419732965308e+05 +2.3850106270224247e+07 
-2.0000000000000001e-01 -5.3699251908364665e-01 +7.3627737886972255e+00 -8.5620282162342271e-02 +6.3323751163724067e+00 -5.6555088418334781e+03 -2.8277056478568219e+05 +2.3280520947431494e+07 
-2.9999999999999999e-01 -5.3699259214154182e-01 +7.3627639341050122e+00 -9.4193340615948251e-02 +6.9211112573729947e+00 -5.5099900654026005e+03 -2.8689848796946421e+05 +2.2653220957716119e+07 
-4.0000000000000002e-01 -5.3699265182356615e-01 +7.3627595731462918e+00 -1.0380580675558511e-01 +7.3852299715089167e+00 -5.3497970356545802e+03 -2.9036914611142367e+05 +2.1973614858433202e+07 
-5.0000000000000000e-01 -5.3699269953139950e-01 +7.3627604643617532e+00 -1.1435720057014960e-01 +7.7283021870331021e+00 -5.1764026070957889e+03 -2.9319371746213065e+05 +2.1247111842297491e+07 
-5.9999999999999998e-01 -5.3699273666679093e-01 +7.3627663663023943e+00 -1.2574704088348121e-01 +7.9538985474034201e+00 -4.9912796488388567e+03 -2.9538337870575412e+05 +2.0479121144563422e+07 
-6.9999999999999996e-01 -5.3699276463159140e-01 +7.3627770375160884e+00 -1.3787484404127937e-01 +8.0655897884481131e+00 -4.7959010762480766e+03 -2.9694930712150945e+05 +1.9675052213775214e+07 
-8.0000000000000004e-01 -5.3699278482751045e-01 +7.3627922365587191e+00 -1.5064012412986322e-01 +8.0669464214808873e+00 -4.5917398451470963e+03 -2.9790267873297981e+05 +1.8840314676548120e+07 
-9.0000000000000002e-01 -5.3699279865638105e-01 +7.3628117219835616e+00 -1.6394239350417730e-01 +7.9615390428740316e+00 -4.3802689414586421e+03 -2.9825467009905668e+05 +1.7980318288207419e+07 
-1.0000000000000000e+00 -5.3699280752005341e-01 +7.3628352523433316e+00 -1.7768116206460594e-01 +7.7529382623376923e+00 -4.1629613987581824e+03 -2.9801645784739929e+05 +1.7100473024461042e+07 
-1.1000000000000001e+00 -5.3699281282031741e-01 +7.3628625861939252e+00 -1.9175593734575233e-01 +7.4447146135619464e+00 -3.9412902950927760e+03 -2.9719921819566377e+05 +1.6206189063586609e+07 
-1.2000000000000000e+00 -5.3699281595907911e-01 +7.3628934820875633e+00 -2.0606622542578104e-01 +7.0404387227110723e+00 -3.7167287365116645e+03 -2.9581412782952783e+05 +1.5302876706813073e+07 
-1.3000000000000000e+00 -5.3699281833816581e-01 +7.3629276985717897e+00 -2.2051152818564512e-01 +6.5436813683800166e+00 -3.4907499146260839e+03 -2.9387236432484590e+05 +1.4395946669093607e+07 
-1.3999999999999999e+00 -5.3699282135946813e-01 +7.3629649941917057e+00 -2.3499134962116841e-01 +5.9580133927662811e+00 -3.2648269794113839e+03 -2.9138510554337985e+05 +1.3490809451701960e+07 
-1.5000000000000000e+00 -5.3699282642490520e-01 +7.3630051274899797e+00 -2.4940518935744960e-01 +5.2870057145559617e+00 -3.0404331701060855e+03 -2.8836352973590215e+05 +1.2592875985833019e+07 
-1.6000000000000001e+00 -5.3699283493635630e-01 +7.3630478569996693e+00 -2.6365254443505820e-01 +4.5342295192526336e+00 -2.8190417799779966e+03 -2.8481881658187322e+05 +1.1707557459990898e+07 
-1.7000000000000000e+00 -5.3699284829570515e-01 +7.3630929412485893e+00 -2.7763291114213512e-01 +3.7032561551511285e+00 -2.6021261188299145e+03 -2.8076214663012023e+05 +1.0840265134718826e+07 
-1.8000000000000000e+00 -5.3699286790491141e-01 +7.3631401387572852e+00 -2.9124578490880498e-01 +2.7976571713154961e+00 -2.3911595227351954e+03 -2.7620470145252917e+05 +9.9964104089001119e+06 
-1.8999999999999999e+00 -5.3699289516584869e-01 +7.3631892080337691e+00 -3.0439065733792942e-01 +1.8210044772858816e+00 -2.1876154074970977e+03 -2.7115766456725914e+05 +9.1814050634769779e+06 
-2.0000000000000000e+00 -5.3699293148048610e-01 +7.3632399075827299e+00 -3.1696702088316192e-01 +7.7687007773538563e-01 -1.9929671790925950e+03 -2.6563221990511945e+05 +8.4006608358161915e+06 
-2.1000000000000001e+00 -5.3699297811378821e-01 +7.3632919787934599e+00 -3.2888579874095097e-01 -3.3017861254592790e-01 -1.8085285549954297e+03 -2.5964780784403044e+05 +7.6590634627934070e+06 
-2.2000000000000002e+00 -5.3699303580201740e-01 +7.3633450978859845e+00 -3.4010222585668592e-01 -1.4917410767560122e+00 -1.6349980930434988e+03 -2.5325579136137618e+05 +6.9595055705708712e+06 
-2.2999999999999998e+00 -5.3699310515389742e-01 +7.3633989255291947e+00 -3.5058225979063035e-01 -2.6984926305015291e+00 -1.4729264981016215e+03 -2.4651525901799370e+05 +6.3044091650748858e+06 
-2.3999999999999999e+00 -5.3699318677817309e-01 +7.3634531223967334e+00 -3.6029186452424189e-01 -3.9411087283174662e+00 -1.3228643560796700e+03 -2.3948529852888407e+05 +5.6961956969349077e+06 
-2.5000000000000000e+00 -5.3699328128348878e-01 +7.3635073491429717e+00 -3.6919700683988566e-01 -5.2102642647295285e+00 -1.1853621980020669e+03 -2.3222500082406972e+05 +5.1372863576419093e+06 
-2.6000000000000001e+00 -5.3699338927849560e-01 +7.3635612664268608e+00 -3.7726365514063792e-01 -6.4966342719180759e+00 -1.0609705272117299e+03 -2.2479345599228924e+05 +4.6301022220622227e+06 
-2.7000000000000002e+00 -5.3699351137181783e-01 +7.3636145348926956e+00 -3.8445778068088082e-01 -7.7908933533740612e+00 -9.5023979575589146e+02 -2.1724975658743476e+05 +4.1770641375196404e+06 
-2.7999999999999998e+00 -5.3699364817202977e-01 +7.3636668151796583e+00 -3.9074536034054386e-01 -9.0837159646159122e+00 -8.5372034943894869e+02 -2.0965299598996935e+05 +3.7805924560704138e+06 
-2.8999999999999999e+00 -5.3699380028766730e-01 +7.3637177679203978e+00 -3.9609237560001698e-01 -1.0365776378594942e+01 -7.7196244856242151e+02 -2.0206226859464232e+05 +3.4431071416322319e+06 
-3.0000000000000000e+00 -5.3699396832725810e-01 +7.3637670537360753e+00 -4.0046480815216356e-01 -1.1627748533813392e+01 -7.0551634982888231e+02 -1.9453667071746424e+05 +3.1670281525971126e+06 
-3.1000000000000001e+00 -5.3699415289925445e-01 +7.3638143332432957e+00 -4.0382864845702088e-01 -1.2860306230988471e+01 -6.5493214736823916e+02 -1.8713529946461137e+05 +2.9547747007716410e+06 
-3.2000000000000002e+00 -5.3699435461204958e-01 +7.3638592670480945e+00 -4.0614989447605421e-01 -1.4054122978187776e+01 -6.2075978933458771e+02 -1.7991725358440552e+05 +2.8087653093569176e+06 
-3.2999999999999998e+00 -5.3699457407401752e-01 +7.3639015157478633e+00 -4.0739454512188178e-01 -1.5199872027429839e+01 -6.0354921272786032e+02 -1.7294163330291334e+05 +2.7314184844929129e+06 
-3.3999999999999999e+00 -5.3699481189347464e-01 +7.3639407399297809e+00 -4.0752860708349103e-01 -1.6288226337180596e+01 -6.0385020107264575e+02 -1.6626754053143549e+05 +2.7251520058406992e+06 
-3.5000000000000000e+00 -5.3699506867865743e-01 +7.3639766001735767e+00 -4.0651809537246408e-01 -1.7309858649014764e+01 -6.2221238713905620e+02 -1.5995407842294846e+05 +2.7923829753206922e+06 
-3.6000000000000001e+00 -5.3699534503779445e-01 +7.3640087570491319e+00 -4.0432902940474064e-01 -1.8255441427298184e+01 -6.5918531753792502e+02 -1.5406035170958305e+05 +2.9355281003055400e+06 
-3.7000000000000002e+00 -5.3699564157894752e-01 +7.3640368711160242e+00 -4.0092743885098409e-01 -1.9115646835673274e+01 -7.1531834504580877e+02 -1.4864546685699272e+05 +3.1570031928337757e+06 
-3.7999999999999998e+00 -5.3699595891020169e-01 +7.3640606029231703e+00 -3.9627935995478364e-01 -1.9881146731096269e+01 -7.9116069738339422e+02 -1.4376853209895364e+05 +3.4592234931250182e+06 
-3.8999999999999999e+00 -5.3699629763957557e-01 +7.3640796130093262e+00 -3.9035083658789377e-01 -2.0542612679598953e+01 -8.8726145994170133e+02 -1.3948865734117373e+05 +3.8446035986921717e+06 
-4.0000000000000000e+00 -5.3699665837490851e-01 +7.3640935619072252e+00 -3.8310792261421350e-01 -2.1090716074985902e+01 -1.0041695355873221e+03 -1.3586495318611158e+05 +4.3155573071964504e+06 
-4.0999999999999996e+00 -5.3699704124876479e-01 +7.3641022616417704e+00 -3.7454964167322430e-01 -2.1519632650168042e+01 -1.1419331984082371e+03 -1.3293586376248713e+05 +4.8724990351098999e+06 
-4.2000000000000002e+00 -5.3699744468962662e-01 +7.3641060763940507e+00 -3.6479521996642617e-01 -2.1836263510080599e+01 -1.2987629592452902e+03 -1.3066519188612820e+05 +5.5084056677376945e+06 
-4.2999999999999998e+00 -5.3699786674441941e-01 +7.3641054962147967e+00 -3.5399128732633356e-01 -2.2050401016192300e+01 -1.4724474583212868e+03 -1.2899986187658328e+05 +6.2145248615545016e+06 
-4.4000000000000004e+00 -5.3699830545995342e-01 +7.3641010111759888e+00 -3.4228447636316323e-01 -2.2171838133608098e+01 -1.6607752751460753e+03 -1.2788679471608392e+05 +6.9821039633276025e+06 
-4.5000000000000000e+00 -5.3699875888322945e-01 +7.3640931113621697e+00 -3.2982141032050522e-01 -2.2210368158645274e+01 -1.8615351635346935e+03 -1.2727290969288314e+05 +7.8023911382513810e+06 
-4.5999999999999996e+00 -5.3699922506116649e-01 +7.3640822868838951e+00 -3.1674871174203345e-01 -2.2175785109028226e+01 -2.0725158790664973e+03 -1.2710512214166079e+05 +8.6666345292903557e+06 
-4.7000000000000002e+00 -5.3699970204085046e-01 +7.3640690278726719e+00 -3.0321299737572183e-01 -2.2077883578085618e+01 -2.2915062793723469e+03 -1.2733034430142018e+05 +9.5660827419713028e+06 
-4.7999999999999998e+00 -5.3700018786934844e-01 +7.3640538244813625e+00 -2.8936087508422942e-01 -2.1926458747965636e+01 -2.5162953825646582e+03 -1.2789548524481586e+05 +1.0491985121740907e+07 
-4.9000000000000004e+00 -5.3700068059385087e-01 +7.3640371668853426e+00 -2.7533895306691536e-01 -2.1731306423723545e+01 -2.7446721879934694e+03 -1.2874745067974385e+05 +1.1435590889420453e+07 
-5.0000000000000000e+00 -5.3700117826153737e-01 +7.3640195452920167e+00 -2.6129382945303287e-01 -2.1502223288431853e+01 -2.9744258801200090e+03 -1.2983314154138732e+05 +1.2388150129205473e+07 
-5.0999999999999996e+00 -5.3700167891974659e-01 +7.3640014499299662e+00 -2.4737209840094235e-01 -2.1249006621134118e+01 -3.2033457060707929e+03 -1.3109945554723131e+05 +1.3340913185081342e+07 
-5.2000000000000002e+00 -5.3700218061582561e-01 +7.3639833710601925e+00 -2.3372034583114723e-01 -2.0981454585686041e+01 -3.4292210573124576e+03 -1.3249328563417878e+05 +1.4285131053938674e+07 
-5.2999999999999998e+00 -5.3700268139720109e-01 +7.3639657989726146e+00 -2.2048515359145110e-01 -2.0709366146468174e+01 -3.6498413907965351e+03 -1.3396152039966075e+05 +1.5212055007492365e+07 
-5.4000000000000004e+00 -5.3700317931142039e-01 +7.3639492239856725e+00 -2.0781309082642735e-01 -2.0442541067315553e+01 -3.8629963963895448e+03 -1.3545104410389496e+05 +1.6112937400719503e+07 
-5.5000000000000000e+00 -5.3700367240604685e-01 +7.3639341364561384e+00 -1.9585072493834868e-01 -2.0190780154328319e+01 -4.0664757791009615e+03 -1.3690873537154024e+05 +1.6979030608186856e+07 
-5.5999999999999996e+00 -5.3700415872884388e-01 +7.3639210267679553e+00 -1.8474461047423504e-01 -1.9963884978911452e+01 -4.2580694803415454e+03 -1.3828146867929481e+05 +1.7801588103007294e+07 
-5.7000000000000002e+00 -5.3700463632757633e-01 +7.3639103853463963e+00 -1.7464129598510550e-01 -1.9771658254651207e+01 -4.4355675359159550e+03 -1.3951611227989331e+05 +1.8571863751908798e+07 
-5.7999999999999998e+00 -5.3700510325013806e-01 +7.3639027026513384e+00 -1.6568731957480648e-01 -1.9623903645501866e+01 -4.5967601711684993e+03 -1.4055952931117755e+05 +1.9281112293476854e+07 
-5.9000000000000004e+00 -5.3700555754450108e-01 +7.3638984691786105e+00 -1.5802921350157245e-01 -1.9530425817344913e+01 -4.7394377038410057e+03 -1.4135857746569227e+05 +1.9920588850186069e+07 
-5.9999999999999902e+00 -5.3700599725884268e-01 +7.3638981754516388e+00 -1.5181349277014644e-01 -1.9501030192591138e+01 -4.8613907407663010e+03 -1.4186011099544802e+05 +2.0481549770483728e+07 
-6.0999999999999899e+00 -5.3700642103314400e-01 +7.3639021697997036e+00 -1.4714071769587891e-01 -1.9542838774076341e+01 -4.9610672042631513e+03 -1.4202456990897091e+05 +2.0957747907519564e+07 
-6.1999999999999904e+00 -5.3700682953880052e-01 +7.3639103049707213e+00 -1.4394990553990486e-01 -1.9653871365666784e+01 -5.0392312530841536e+03 -1.4185741497663068e+05 +2.1351782765602335e+07 
-6.2999999999999901e+00 -5.3700722388302957e-01 +7.3639223256789039e+00 -1.4214455081639954e-01 -1.9830219304179256e+01 -5.0971573517345760e+03 -1.4137341490653923e+05 +2.1668211918380428e+07 
-6.3999999999999897e+00 -5.3700760517307011e-01 +7.3639379766234994e+00 -1.4162814321556116e-01 -2.0067973589466433e+01 -5.1361200696540745e+03 -1.4058733994235945e+05 +2.1911593458162230e+07 
-6.4999999999999902e+00 -5.3700797451610838e-01 +7.3639570024868011e+00 -1.4230417741741069e-01 -2.0363224824606782e+01 -5.1573938939199570e+03 -1.3951396221147504e+05 +2.2086485103758451e+07 
-6.5999999999999899e+00 -5.3700833301930362e-01 +7.3639791479305963e+00 -1.4407614905347796e-01 -2.0712063102332309e+01 -5.1622533089629833e+03 -1.3816805639892511e+05 +2.2197444584601786e+07 
-6.6999999999999904e+00 -5.3700868178981109e-01 +7.3640041576021984e+00 -1.4684755252820697e-01 -2.1110578215432739e+01 -5.1519728354002573e+03 -1.3656439843121674e+05 +2.2249029820331458e+07 
-6.7999999999999901e+00 -5.3700902193473132e-01 +7.3640317761229230e+00 -1.5052189011010472e-01 -2.1554859290841648e+01 -5.1278268601239633e+03 -1.3471776766164997e+05 +2.2245798117681682e+07 
-6.8999999999999897e+00 -5.3700935456110721e-01 +7.3640617480962556e+00 -1.5500265902807248e-01 -2.2040995059711079e+01 -5.0910898794100094e+03 -1.3264294521740175e+05 +2.2192307320750613e+07 
-6.9999999999999902e+00 -5.3700968077600486e-01 +7.3640938181017725e+00 -1.6019336108091811e-01 -2.2565073669399787e+01 -5.0430363216915066e+03 -1.3035471510830107e+05 +2.2093114983414434e+07 
-7.0999999999999899e+00 -5.3701000168641766e-01 +7.3641277306970006e+00 -1.6599750117707729e-01 -2.3123182742107463e+01 -4.9849405728154652e+03 -1.2786786386566747e+05 +2.1952778479573607e+07 
-7.1999999999999904e+00 -5.3701031839931113e-01 +7.3641632304138378e+00 -1.7231858549294810e-01 -2.3711409284121768e+01 -4.9180770095397620e+03 -1.2519718102372231e+05 +2.1775855159593500e+07 
-7.2999999999999901e+00 -5.3701063202165522e-01 +7.3642000617642314e+00 -1.7906012022488874e-01 -2.4325839845547161e+01 -4.8437200282342446e+03 -1.2235745819941917e+05 +2.1566902499750499e+07 
-7.3999999999999897e+00 -5.3701094366026680e-01 +7.3642379692229341e+00 -1.8612561736475836e-01 -2.4962560028368014e+01 -4.7631439356617448e+03 -1.1936349191179840e+05 +2.1330477581595987e+07 
-7.4999999999999902e+00 -5.3701125442205389e-01 +7.3642766972482931e+00 -1.9341858861805644e-01 -2.5617655096195254e+01 -4.6776230592973543e+03 -1.1623008002431193e+05 +2.1071137603309572e+07 
-7.5999999999999899e+00 -5.3701156541375827e-01 +7.3643159902661059e+00 -2.0084254952603928e-01 -2.6287209498482024e+01 -4.5884316775818552e+03 -1.1297202450957913e+05 +2.0793439569750670e+07 
-7.6999999999999904e+00 -5.3701187774216796e-01 +7.3643555926727480e+00 -2.0830101710870133e-01 -2.6967306985198782e+01 -4.4968440593946880e+03 -1.0960413071367054e+05 +2.0501940465872273e+07 
-7.7999999999999901e+00 -5.3701219251400045e-01 +7.3643952488346036e+00 -2.1569751066646595e-01 -2.7654030571641659e+01 -4.4041344519367185e+03 -1.0614120759988631e+05 +2.0201197206871506e+07 
-7.8999999999999897e+00 -5.3701251083592105e-01 +7.3644347030890716e+00 -2.2293555555731207e-01 -2.8343462590310846e+01 -4.3115770108335846e+03 -1.0259806738516311e+05 +1.9895766308008477e+07 
-7.9999999999999902e+00 -5.3701283381451048e-01 +7.3644736997413744e+00 -2.2991867792349244e-01 -2.9031684691033909e+01 -4.2204459239640082e+03 -9.8989526820643412e+04 +1.9590204418017168e+07 
-8.0999999999999908e+00 -5.3701316248508091e-01 +7.3645120061015970e+00 -2.3656318040378288e-01 -2.9714921309705016e+01 -4.1318739602067790e+03 -9.5332203525393066e+04 +1.9288612980398323e+07 
-8.1999999999999904e+00 -5.3701349763934370e-01 +7.3645494677499288e+00 -2.4282979013208245e-01 -3.0389615648122174e+01 -4.0464983308315273e+03 -9.1650263392984067e+04 +1.8993562885392141e+07 
-8.2999999999999901e+00 -5.3701384001691133e-01 +7.3645859468443104e+00 -2.4868888199659650e-01 -3.1052196854850191e+01 -3.9648484928846783e+03 -8.7969829061180310e+04 +1.8707306955829468e+07 
-8.3999999999999897e+00 -5.3701419035728071e-01 +7.3646213055282903e+00 -2.5411083433104159e-01 -3.1699093634962647e+01 -3.8874538396230864e+03 -8.4317025774114707e+04 +1.8432097747336380e+07 
-8.4999999999999893e+00 -5.3701454939998072e-01 +7.3646554059346903e+00 -2.5906603550216339e-01 -3.2326734335056834e+01 -3.8148435597521775e+03 -8.0717980936233231e+04 +1.8170186835978653e+07 
-8.5999999999999908e+00 -5.3701491788441047e-01 +7.3646881101826924e+00 -2.6352487534021962e-01 -3.2931546887754969e+01 -3.7475468153811507e+03 -7.7198824359082500e+04 +1.7923825707059756e+07 
-8.6999999999999904e+00 -5.3701529654999569e-01 +7.3647192803760824e+00 -2.6745775414640133e-01 -3.3509958725968922e+01 -3.6860925588669579e+03 -7.3785688856872512e+04 +1.7695264852644533e+07 
-8.7999999999999794e+00 -5.3701568613605433e-01 +7.3647487786072707e+00 -2.7083507508585969e-01 -3.4058396917763169e+01 -3.6310096831237911e+03 -7.0504709410482843e+04 +1.7486754503350325e+07 
-8.8999999999999808e+00 -5.3701608738181317e-01 +7.3647764669514526e+00 -2.7362725216061401e-01 -3.4573287992910664e+01 -3.5828268697803492e+03 -6.7382024180407941e+04 +1.7300543905911371e+07 
-8.9999999999999805e+00 -5.3701650102654774e-01 +7.3648022074714854e+00 -2.7580470330940443e-01 -3.5051058070480117e+01 -3.5420727170227028e+03 -6.4443773815562141e+04 +1.7138881923595350e+07 
-9.0999999999999801e+00 -5.3701692780938992e-01 +7.3648258622142508e+00 -2.7733785363782060e-01 -3.5488132772343974e+01 -3.5092756812312059e+03 -6.1716101889761201e+04 +1.7004016767350048e+07 
-9.1999999999999797e+00 -5.3701736846940995e-01 +7.3648472932096549e+00 -2.7819713600907692e-01 -3.5880937173402934e+01 -3.4849640632082746e+03 -5.9225155254671306e+04 +1.6898195926407803e+07 
-9.2999999999999794e+00 -5.3701782374569085e-01 +7.3648663624770094e+00 -2.7835299105363037e-01 -3.6225895988608258e+01 -3.4696660089008433e+03 -5.6997082945513939e+04 +1.6823666171925258e+07 
-9.3999999999999808e+00 -5.3701829437716775e-01 +7.3648829320163669e+00 -2.7777586775064628e-01 -3.6519433330853921e+01 -3.4639094975226421e+03 -5.5058037566783038e+04 +1.6782673503188312e+07 
-9.4999999999999805e+00 -5.3701878110274348e-01 +7.3648968638093883e+00 -2.7643621862231443e-01 -3.6757972723365612e+01 -3.4682224325516236e+03 -5.3434175244067002e+04 +1.6777463576787781e+07 
-9.5999999999999801e+00 -5.3701928466129023e-01 +7.3649080198263261e+00 -2.7430450977182269e-01 -3.6937937300771715e+01 -3.4831324515357878e+03 -5.2151654469384957e+04 +1.6810280807989139e+07 
-9.6999999999999797e+00 -5.3701980579152597e-01 +7.3649162620190651e+00 -2.7135121270640838e-01 -3.7055749606216338e+01 -3.5091670809604198e+03 -5.1236637276406735e+04 +1.6883369104007427e+07 
-9.7999999999999794e+00 -5.3702034523220055e-01 +7.3649214523211644e+00 -2.6754680829878147e-01 -3.7107831603235788e+01 -3.5468536587757612e+03 -5.0715289148773336e+04 +1.6998971493145976e+07 
-9.8999999999999808e+00 -5.3702090372193823e-01 +7.3649234526465976e+00 -2.6286178236828378e-01 -3.7090604615979963e+01 -3.5967194221784139e+03 -5.0613779420514838e+04 +1.7159330552452520e+07 
-9.9999999999999805e+00 -5.3702148199900390e-01 +7.3649221249569505e+00 -2.5726664642709202e-01 -3.7000491248126700e+01 -3.6592911955636223e+03 -5.0958265393801004e+04 +1.7366687525185838e+07 
-1.0100000000000000e+01 -5.3702208029185416e-01 +7.3649174192921096e+00 -2.5075746004102278e-01 -3.6836018418700938e+01 -3.7347406062690698e+03 -5.1761035544446167e+04 +1.7622024192361023e+07 
