# field on trajectory
# s[mm] rx[mm] ry[mm] rz[mm] bx[T] by[T] bz[T]
0.0000000000000000e+00 +7.9199999999999999e+00 +0.0000000000000000e+00 +0.0000000000000000e+00 -2.9421403717363667e-02 -5.3846624093471340e-01 +5.3129009697145037e-03
1.0000000000000001e-01 +7.9199997169913585e+00 +0.0000000000000000e+00 +9.9999999999466030e-02 -2.9421559303872323e-02 -5.3846630116639083e-01 +5.3129868154199013e-03
2.0000000000000001e-01 +7.9199988679653917e+00 +0.0000000000000000e+00 +1.9999999999572832e-01 -2.9421707688475580e-02 -5.3846637100975758e-01 +5.3130746855517092e-03
3.0000000000000004e-01 +7.9199974529220247e+00 +0.0000000000000000e+00 +2.9999999998558313e-01 -2.9421849488425213e-02 -5.3846645006944571e-01 +5.3131645442910259e-03
4.0000000000000002e-01 +7.9199954718611760e+00 +0.0000000000000000e+00 +3.9999999996582664e-01 -2.9421985320968930e-02 -5.3846653795008770e-01 +5.3132563558196278e-03
5.0000000000000000e-01 +7.9199929247827523e+00 +0.0000000000000000e+00 +4.9999999993325511e-01 -2.9422115803350753e-02 -5.3846663425631647e-01 +5.3133500843199231e-03
5.9999999999999998e-01 +7.9199898116866523e+00 +0.0000000000000000e+00 +5.9999999988466479e-01 -2.9422241552811632e-02 -5.3846673859276650e-01 +5.3134456939749417e-03
6.9999999999999996e-01 +7.9199861325727676e+00 +0.0000000000000000e+00 +6.9999999981685190e-01 -2.9422363186589813e-02 -5.3846685056407317e-01 +5.3135431489682895e-03
7.9999999999999993e-01 +7.9199818874409793e+00 +0.0000000000000000e+00 +7.9999999972661273e-01 -2.9422481321921452e-02 -5.3846696977487363e-01 +5.3136424134841214e-03
8.9999999999999991e-01 +7.9199770762911630e+00 +0.0000000000000000e+00 +8.9999999961074340e-01 -2.9422596576040991e-02 -5.3846709582980679e-01 +5.3137434517071111e-03
9.9999999999999989e-01 +7.9199716991231863e+00 +0.0000000000000000e+00 +9.9999999946604023e-01 -2.9422709566181714e-02 -5.3846722833351435e-01 +5.3138462278224143e-03
1.0999999999999999e+00 +7.9199657559369108e+00 +0.0000000000000000e+00 +1.0999999992892995e+00 -2.9422820909576253e-02 -5.3846736689064034e-01 +5.3139507060156483e-03
1.2000000000000000e+00 +7.9199592467321898e+00 +0.0000000000000000e+00 +1.1999999990773174e+00 -2.9422931223457006e-02 -5.3846751110583158e-01 +5.3140568504728503e-03
1.3000000000000000e+00 +7.9199521715088723e+00 +0.0000000000000000e+00 +1.2999999988268900e+00 -2.9423041125056698e-02 -5.3846766058373829e-01 +5.3141646253804468e-03
1.4000000000000001e+00 +7.9199445302668021e+00 +0.0000000000000000e+00 +1.3999999985348135e+00 -2.9423151231608834e-02 -5.3846781492901441e-01 +5.3142739949252346e-03
1.5000000000000002e+00 +7.9199363230058166e+00 +0.0000000000000000e+00 +1.4999999981978844e+00 -2.9423262160348195e-02 -5.3846797374631783e-01 +5.3143849232943291e-03
1.6000000000000003e+00 +7.9199275497257497e+00 +0.0000000000000000e+00 +1.5999999978128987e+00 -2.9423374528511341e-02 -5.3846813664031024e-01 +5.3144973746751525e-03
1.7000000000000004e+00 +7.9199182104264301e+00 +0.0000000000000000e+00 +1.6999999973766526e+00 -2.9423488953337077e-02 -5.3846830321565831e-01 +5.3146113132553907e-03
1.8000000000000005e+00 +7.9199083051076835e+00 +0.0000000000000000e+00 +1.7999999968859424e+00 -2.9423606052066970e-02 -5.3846847307703327e-01 +5.3147267032229648e-03
1.9000000000000006e+00 +7.9198978337693307e+00 +0.0000000000000000e+00 +1.8999999963375642e+00 -2.9423726441945866e-02 -5.3846864582911225e-01 +5.3148435087660081e-03
2.0000000000000004e+00 +7.9198867964111912e+00 +0.0000000000000000e+00 +1.9999999957283143e+00 -2.9423850740222281e-02 -5.3846882107657701e-01 +5.3149616940728183e-03
2.1000000000000005e+00 +7.9198751930330813e+00 +0.0000000000000000e+00 +2.0999999950549890e+00 -2.9423979372297220e-02 -5.3846899854244668e-01 +5.3150812536102952e-03
2.2000000000000006e+00 +7.9198630236348144e+00 +0.0000000000000000e+00 +2.1999999943143842e+00 -2.9424111996164376e-02 -5.3846917842306363e-01 +5.3152023029593761e-03
2.3000000000000007e+00 +7.9198502882162023e+00 +0.0000000000000000e+00 +2.2999999935032962e+00 -2.9424248077956773e-02 -5.3846936103309195e-01 +5.3153249879798600e-03
2.4000000000000008e+00 +7.9198369867770531e+00 +0.0000000000000000e+00 +2.3999999926185214e+00 -2.9424387083796282e-02 -5.3846954668718183e-01 +5.3154494545319649e-03
2.5000000000000009e+00 +7.9198231193171713e+00 +0.0000000000000000e+00 +2.4999999916568556e+00 -2.9424528479792367e-02 -5.3846973569996948e-01 +5.3155758484763373e-03
2.6000000000000010e+00 +7.9198086858363599e+00 +0.0000000000000000e+00 +2.5999999906150952e+00 -2.9424671732040948e-02 -5.3846992838607455e-01 +5.3157043156740668e-03
2.7000000000000011e+00 +7.9197936863344163e+00 +0.0000000000000000e+00 +2.6999999894900366e+00 -2.9424816306623178e-02 -5.3847012506009850e-01 +5.3158350019866778e-03
2.8000000000000012e+00 +7.9197781208111335e+00 +0.0000000000000000e+00 +2.7999999882784756e+00 -2.9424961669604233e-02 -5.3847032603662293e-01 +5.3159680532761473e-03
2.9000000000000012e+00 +7.9197619892663020e+00 +0.0000000000000000e+00 +2.8999999869772086e+00 -2.9425107287032154e-02 -5.3847053163020875e-01 +5.3161036154049076e-03
3.0000000000000013e+00 +7.9197452916997051e+00 +0.0000000000000000e+00 +2.9999999855830315e+00 -2.9425252624936636e-02 -5.3847074215539359e-01 +5.3162418342358499e-03
3.1000000000000014e+00 +7.9197280281111224e+00 +0.0000000000000000e+00 +3.0999999840927406e+00 -2.9425397149327796e-02 -5.3847095792669031e-01 +5.3163828556323347e-03
3.2000000000000015e+00 +7.9197101985003275e+00 +0.0000000000000000e+00 +3.1999999825031322e+00 -2.9425540326195036e-02 -5.3847117925858556e-01 +5.3165268254581994e-03
3.3000000000000016e+00 +7.9196918028670886e+00 +0.0000000000000000e+00 +3.2999999808110023e+00 -2.9425681621505818e-02 -5.3847140646553793e-01 +5.3166738895777535e-03
3.4000000000000017e+00 +7.9196728412111677e+00 +0.0000000000000000e+00 +3.3999999790131468e+00 -2.9425820501204458e-02 -5.3847163986197688e-01 +5.3168241938558050e-03
3.5000000000000018e+00 +7.9196533135323195e+00 +0.0000000000000000e+00 +3.4999999771063619e+00 -2.9425956431210952e-02 -5.3847187976230015e-01 +5.3169778841576374e-03
3.6000000000000019e+00 +7.9196332198302928e+00 +0.0000000000000000e+00 +3.5999999750874441e+00 -2.9426088877419761e-02 -5.3847212648087250e-01 +5.3171351063490491e-03
3.7000000000000020e+00 +7.9196125601048282e+00 +0.0000000000000000e+00 +3.6999999729531892e+00 -2.9426217305698648e-02 -5.3847238033202449e-01 +5.3172960062963315e-03
3.8000000000000020e+00 +7.9195913343556601e+00 +0.0000000000000000e+00 +3.7999999707003935e+00 -2.9426341181887441e-02 -5.3847264163004982e-01 +5.3174607298662946e-03
3.9000000000000021e+00 +7.9195695425825141e+00 +0.0000000000000000e+00 +3.8999999683258531e+00 -2.9426459971796871e-02 -5.3847291068920500e-01 +5.3176294229262617e-03
4.0000000000000018e+00 +7.9195471847851087e+00 +0.0000000000000000e+00 +3.9999999658263641e+00 -2.9426573141207363e-02 -5.3847318782370635e-01 +5.3178022313440810e-03
4.1000000000000014e+00 +7.9195242609631524e+00 +0.0000000000000000e+00 +4.0999999631987230e+00 -2.9426680292207578e-02 -5.3847347305526727e-01 +5.3179792364359173e-03
4.2000000000000011e+00 +7.9195007711163470e+00 +0.0000000000000000e+00 +4.1999999604397251e+00 -2.9426781572239016e-02 -5.3847376523572810e-01 +5.3181602613084225e-03
4.3000000000000007e+00 +7.9194767152443859e+00 +0.0000000000000000e+00 +4.2999999575461665e+00 -2.9426877265123202e-02 -5.3847406292448530e-01 +5.3183450645137428e-03
4.4000000000000004e+00 +7.9194520933469565e+00 +0.0000000000000000e+00 +4.3999999545148434e+00 -2.9426967654731458e-02 -5.3847436468095977e-01 +5.3185334046014620e-03
4.5000000000000000e+00 +7.9194269054237436e+00 +0.0000000000000000e+00 +4.4999999513425522e+00 -2.9427053024988419e-02 -5.3847466906460006e-01 +5.3187250401184319e-03
4.5999999999999996e+00 +7.9194011514744274e+00 +0.0000000000000000e+00 +4.5999999480260891e+00 -2.9427133659875558e-02 -5.3847497463488481e-01 +5.3189197296086184e-03
4.6999999999999993e+00 +7.9193748314986880e+00 +0.0000000000000000e+00 +4.6999999445622498e+00 -2.9427209843434714e-02 -5.3847527995132483e-01 +5.3191172316129128e-03
4.7999999999999989e+00 +7.9193479454962050e+00 +0.0000000000000000e+00 +4.7999999409478304e+00 -2.9427281859771563e-02 -5.3847558357346503e-01 +5.3193173046689850e-03
4.8999999999999986e+00 +7.9193204934666612e+00 +0.0000000000000000e+00 +4.8999999371796275e+00 -2.9427349993059220e-02 -5.3847588406088809e-01 +5.3195197073111116e-03
4.9999999999999982e+00 +7.9192924754097405e+00 +0.0000000000000000e+00 +4.9999999332544363e+00 -2.9427414527541679e-02 -5.3847617997321495e-01 +5.3197241980700079e-03
5.0999999999999979e+00 +7.9192638913251336e+00 +0.0000000000000000e+00 +5.0999999291690532e+00 -2.9427475747537346e-02 -5.3847646987010822e-01 +5.3199305354726494e-03
5.1999999999999975e+00 +7.9192347412125370e+00 +0.0000000000000000e+00 +5.1999999249202746e+00 -2.9427533937442584e-02 -5.3847675231127456e-01 +5.3201384780421314e-03
5.2999999999999972e+00 +7.9192050250716548e+00 +0.0000000000000000e+00 +5.2999999205048960e+00 -2.9427589381735200e-02 -5.3847702585646617e-01 +5.3203477842974772e-03
5.3999999999999968e+00 +7.9191747429022001e+00 +0.0000000000000000e+00 +5.3999999159197136e+00 -2.9427642364977954e-02 -5.3847728906548398e-01 +5.3205582127534880e-03
5.4999999999999964e+00 +7.9191438947038977e+00 +0.0000000000000000e+00 +5.4999999111615230e+00 -2.9427693171822117e-02 -5.3847754049817975e-01 +5.3207695219205688e-03
5.5999999999999961e+00 +7.9191124804764836e+00 +0.0000000000000000e+00 +5.5999999062271213e+00 -2.9427742087010943e-02 -5.3847777871445768e-01 +5.3209814703045642e-03
5.6999999999999957e+00 +7.9190805002197093e+00 +0.0000000000000000e+00 +5.6999999011133040e+00 -2.9427789395383201e-02 -5.3847800227427745e-01 +5.3211938164065839e-03
5.7999999999999954e+00 +7.9190479539333412e+00 +0.0000000000000000e+00 +5.7999998958168666e+00 -2.9427835381876655e-02 -5.3847820973765670e-01 +5.3214063187228553e-03
5.8999999999999950e+00 +7.9190148416171615e+00 +0.0000000000000000e+00 +5.8999998903346054e+00 -2.9427880331531656e-02 -5.3847839966467259e-01 +5.3216187357445367e-03
5.9999999999999947e+00 +7.9189811632709723e+00 +0.0000000000000000e+00 +5.9999998846633167e+00 -2.9427924529494585e-02 -5.3847857061546489e-01 +5.3218308259575598e-03
6.0999999999999943e+00 +7.9189469188945951e+00 +0.0000000000000000e+00 +6.0999998787997969e+00 -2.9427968228864444e-02 -5.3847872170715083e-01 +5.3220423989631983e-03
6.1999999999999940e+00 +7.9189121084878726e+00 +0.0000000000000000e+00 +6.1999998727408414e+00 -2.9428011554167445e-02 -5.3847885428455222e-01 +5.3222534688433191e-03
6.2999999999999936e+00 +7.9188767320506654e+00 +0.0000000000000000e+00 +6.2999998664832466e+00 -2.9428054597726995e-02 -5.3847897024940994e-01 +5.3224641008022405e-03
6.3999999999999932e+00 +7.9188407895828528e+00 +0.0000000000000000e+00 +6.3999998600238079e+00 -2.9428097451803161e-02 -5.3847907150345808e-01 +5.3226743600463845e-03
6.4999999999999929e+00 +7.9188042810843298e+00 +0.0000000000000000e+00 +6.4999998533593217e+00 -2.9428140208589169e-02 -5.3847915994842543e-01 +5.3228843117844420e-03
6.5999999999999925e+00 +7.9187672065550041e+00 +0.0000000000000000e+00 +6.5999998464865843e+00 -2.9428182960207893e-02 -5.3847923748603377e-01 +5.3230940212274976e-03
6.6999999999999922e+00 +7.9187295659947949e+00 +0.0000000000000000e+00 +6.6999998394023921e+00 -2.9428225798708234e-02 -5.3847930601799687e-01 +5.3233035535891777e-03
6.7999999999999918e+00 +7.9186913594036321e+00 +0.0000000000000000e+00 +6.7999998321035404e+00 -2.9428268816061722e-02 -5.3847936744602143e-01 +5.3235129740857893e-03
6.8999999999999915e+00 +7.9186525867814508e+00 +0.0000000000000000e+00 +6.8999998245868257e+00 -2.9428312104158832e-02 -5.3847942367180435e-01 +5.3237223479364621e-03
6.9999999999999911e+00 +7.9186132481281941e+00 +0.0000000000000000e+00 +6.9999998168490434e+00 -2.9428355754805579e-02 -5.3847947659703377e-01 +5.3239317403632885e-03
7.0999999999999908e+00 +7.9185733434438070e+00 +0.0000000000000000e+00 +7.0999998088869907e+00 -2.9428399859719942e-02 -5.3847952812338795e-01 +5.3241412165914680e-03
7.1999999999999904e+00 +7.9185328727282371e+00 +0.0000000000000000e+00 +7.1999998006974630e+00 -2.9428444510528309e-02 -5.3847958015253394e-01 +5.3243508418494472e-03
7.2999999999999901e+00 +7.9184918359814302e+00 +0.0000000000000000e+00 +7.2999997922772559e+00 -2.9428489798761986e-02 -5.3847963458612735e-01 +5.3245606813690513e-03
7.3999999999999897e+00 +7.9184502332033304e+00 +0.0000000000000000e+00 +7.3999997836231666e+00 -2.9428535815853630e-02 -5.3847969332581258e-01 +5.3247708003856488e-03
7.4999999999999893e+00 +7.9184080643938772e+00 +0.0000000000000000e+00 +7.4999997747319904e+00 -2.9428582653133799e-02 -5.3847975827322103e-01 +5.3249812641382611e-03
7.5999999999999890e+00 +7.9183653295530032e+00 +0.0000000000000000e+00 +7.5999997656005238e+00 -2.9428630401827291e-02 -5.3847983132997068e-01 +5.3251921378697324e-03
7.6999999999999886e+00 +7.9183220286806328e+00 +0.0000000000000000e+00 +7.6999997562255622e+00 -2.9428679153049742e-02 -5.3847991439766596e-01 +5.3254034868268525e-03
7.7999999999999883e+00 +7.9182781617766800e+00 +0.0000000000000000e+00 +7.7999997466039019e+00 -2.9428728997804052e-02 -5.3848000937789608e-01 +5.3256153762605025e-03
7.8999999999999879e+00 +7.9182337288410469e+00 +0.0000000000000000e+00 +7.8999997367323394e+00 -2.9428780026976843e-02 -5.3848011817223607e-01 +5.3258278714257987e-03
7.9999999999999876e+00 +7.9181887298736191e+00 +0.0000000000000000e+00 +7.9999997266076699e+00 -2.9428832331334958e-02 -5.3848024268224415e-01 +5.3260410375822291e-03
8.0999999999999872e+00 +7.9181431648742677e+00 +0.0000000000000000e+00 +8.0999997162266908e+00 -2.9428885963031955e-02 -5.3848038447203095e-01 +5.3262549139311711e-03
8.1999999999999869e+00 +7.9180970338428454e+00 +0.0000000000000000e+00 +8.1999997055861957e+00 -2.9428940820180060e-02 -5.3848054375596011e-01 +5.3264694354269969e-03
8.2999999999999865e+00 +7.9180503367791859e+00 +0.0000000000000000e+00 +8.2999996946829828e+00 -2.9428996762400551e-02 -5.3848072041096517e-01 +5.3266845109649482e-03
8.3999999999999861e+00 +7.9180030736831055e+00 +0.0000000000000000e+00 +8.3999996835138475e+00 -2.9429053649326582e-02 -5.3848091431399092e-01 +5.3269000494442489e-03
8.4999999999999858e+00 +7.9179552445544017e+00 +0.0000000000000000e+00 +8.4999996720755853e+00 -2.9429111340603911e-02 -5.3848112534199244e-01 +5.3271159597682105e-03
8.5999999999999854e+00 +7.9179068493928533e+00 +0.0000000000000000e+00 +8.5999996603649933e+00 -2.9429169695891651e-02 -5.3848135337193548e-01 +5.3273321508443333e-03
8.6999999999999851e+00 +7.9178578881982231e+00 +0.0000000000000000e+00 +8.6999996483788671e+00 -2.9429228574863030e-02 -5.3848159828079645e-01 +5.3275485315844419e-03
8.7999999999999847e+00 +7.9178083609702554e+00 +0.0000000000000000e+00 +8.7999996361140020e+00 -2.9429287837206150e-02 -5.3848185994556397e-01 +5.3277650109047874e-03
8.8999999999999844e+00 +7.9177582677086757e+00 +0.0000000000000000e+00 +8.8999996235671937e+00 -2.9429347342624704e-02 -5.3848213824323665e-01 +5.3279814977261536e-03
8.9999999999999840e+00 +7.9177076084131945e+00 +0.0000000000000000e+00 +8.9999996107352391e+00 -2.9429406950838795e-02 -5.3848243305082577e-01 +5.3281979009739914e-03
9.0999999999999837e+00 +7.9176563830835027e+00 +0.0000000000000000e+00 +9.0999995976149322e+00 -2.9429466521585578e-02 -5.3848274424535358e-01 +5.3284141295785164e-03
9.1999999999999833e+00 +7.9176045917192743e+00 +0.0000000000000000e+00 +9.1999995842030700e+00 -2.9429525914620135e-02 -5.3848307170385457e-01 +5.3286300924748273e-03
9.2999999999999829e+00 +7.9175522343201674e+00 +0.0000000000000000e+00 +9.2999995704964498e+00 -2.9429584989716141e-02 -5.3848341530337529e-01 +5.3288456986030257e-03
9.3999999999999826e+00 +7.9174993108858231e+00 +0.0000000000000000e+00 +9.3999995564918652e+00 -2.9429643606666656e-02 -5.3848377492097488e-01 +5.3290608569083256e-03
9.4999999999999822e+00 +7.9174458214158641e+00 +0.0000000000000000e+00 +9.4999995421861136e+00 -2.9429701625284833e-02 -5.3848415043372422e-01 +5.3292754763411675e-03
9.5999999999999819e+00 +7.9173917659098976e+00 +0.0000000000000000e+00 +9.5999995275759904e+00 -2.9429758905404727e-02 -5.3848454171870730e-01 +5.3294894658573342e-03
9.6999999999999815e+00 +7.9173371443675142e+00 +0.0000000000000000e+00 +9.6999995126582910e+00 -2.9429815306882011e-02 -5.3848494865302143e-01 +5.3297027344180702e-03
9.7999999999999812e+00 +7.9172819567882886e+00 +0.0000000000000000e+00 +9.7999994974298126e+00 -2.9429870689594712e-02 -5.3848537111377603e-01 +5.3299151909901856e-03
9.8999999999999808e+00 +7.9172262031717775e+00 +0.0000000000000000e+00 +9.8999994818873489e+00 -2.9429924913443980e-02 -5.3848580897809417e-01 +5.3301267445461818e-03
9.9999999999999805e+00 +7.9171698835175226e+00 +0.0000000000000000e+00 +9.9999994660276972e+00 -2.9429977838354864e-02 -5.3848626212311279e-01 +5.3303373040643649e-03
1.0099999999999980e+01 +7.9171129978250496e+00 +0.0000000000000000e+00 +1.0099999449847653e+01 -2.9430029367143874e-02 -5.3848673016608473e-01 +5.3305468092602849e-03
1.0199999999999980e+01 +7.9170555460938683e+00 +0.0000000000000000e+00 +1.0199999433344011e+01 -2.9430079574122338e-02 -5.3848721168463631e-01 +5.3307553227788613e-03
1.0299999999999979e+01 +7.9169975283234750e+00 +0.0000000000000000e+00 +1.0299999416513568e+01 -2.9430128576493700e-02 -5.3848770499640020e-01 +5.3309629379923989e-03
1.0399999999999979e+01 +7.9169389445133529e+00 +0.0000000000000000e+00 +1.0399999399353119e+01 -2.9430176491485775e-02 -5.3848820841890843e-01 +5.3311697482671073e-03
1.0499999999999979e+01 +7.9168797946629743e+00 +0.0000000000000000e+00 +1.0499999381859460e+01 -2.9430223436351398e-02 -5.3848872026959038e-01 +5.3313758469629288e-03
1.0599999999999978e+01 +7.9168200787718037e+00 +0.0000000000000000e+00 +1.0599999364029387e+01 -2.9430269528369198e-02 -5.3848923886577005e-01 +5.3315813274333454e-03
1.0699999999999978e+01 +7.9167597968392984e+00 +0.0000000000000000e+00 +1.0699999345859695e+01 -2.9430314884844194e-02 -5.3848976252466385e-01 +5.3317862830251934e-03
1.0799999999999978e+01 +7.9166989488649095e+00 +0.0000000000000000e+00 +1.0799999327347180e+01 -2.9430359623108526e-02 -5.3849028956337741e-01 +5.3319908070784995e-03
1.0899999999999977e+01 +7.9166375348480846e+00 +0.0000000000000000e+00 +1.0899999308488638e+01 -2.9430403860522206e-02 -5.3849081829890411e-01 +5.3321949929262804e-03
1.0999999999999977e+01 +7.9165755547882712e+00 +0.0000000000000000e+00 +1.0999999289280863e+01 -2.9430447714473697e-02 -5.3849134704812107e-01 +5.3323989338943667e-03
1.1099999999999977e+01 +7.9165130086849151e+00 +0.0000000000000000e+00 +1.1099999269720653e+01 -2.9430491302380662e-02 -5.3849187412778776e-01 +5.3326027233012189e-03
1.1199999999999976e+01 +7.9164498965374639e+00 +0.0000000000000000e+00 +1.1199999249804803e+01 -2.9430534741690668e-02 -5.3849239785454384e-01 +5.3328064544577456e-03
1.1299999999999976e+01 +7.9163862183453695e+00 +0.0000000000000000e+00 +1.1299999229530107e+01 -2.9430578149881863e-02 -5.3849291654490505e-01 +5.3330102206671235e-03
1.1399999999999975e+01 +7.9163219741080892e+00 +0.0000000000000000e+00 +1.1399999208893361e+01 -2.9430621644463636e-02 -5.3849342851526205e-01 +5.3332141152246096e-03
1.1499999999999975e+01 +7.9162571638250867e+00 +0.0000000000000000e+00 +1.1499999187891362e+01 -2.9430665342977343e-02 -5.3849393208187746e-01 +5.3334182314173570e-03
1.1599999999999975e+01 +7.9161917874958352e+00 +0.0000000000000000e+00 +1.1599999166520904e+01 -2.9430709362996996e-02 -5.3849442556088312e-01 +5.3336226625242331e-03
1.1699999999999974e+01 +7.9161258451198186e+00 +0.0000000000000000e+00 +1.1699999144778783e+01 -2.9430753822129913e-02 -5.3849490726827809e-01 +5.3338275018156448e-03
1.1799999999999974e+01 +7.9160593366965317e+00 +0.0000000000000000e+00 +1.1799999122661795e+01 -2.9430798838017486e-02 -5.3849537551992577e-01 +5.3340328425533438e-03
