# field on trajectory
# s[mm] rx[mm] ry[mm] rz[mm] bx[T] by[T] bz[T]
0.0000000000000000e+00 +8.1649999999999991e+00 +0.0000000000000000e+00 +0.0000000000000000e+00 -3.1310897860182499e-02 -5.9301742233690857e-01 +6.0488755137041144e-03
-1.0000000000000001e-01 +8.1649997166640009e+00 +0.0000000000000000e+00 -9.9999999999464809e-02 -3.1311118951864073e-02 -5.9301799738078909e-01 +6.0487077472752030e-03
-2.0000000000000001e-01 +8.1649988666556386e+00 +0.0000000000000000e+00 -1.9999999999571844e-01 -3.1311320154874561e-02 -5.9301859109981214e-01 +6.0485360261232106e-03
-3.0000000000000004e-01 +8.1649974499743454e+00 +0.0000000000000000e+00 -2.9999999998554971e-01 -3.1311502888717029e-02 -5.9301920181844725e-01 +6.0483603263492992e-03
-4.0000000000000002e-01 +8.1649954666195370e+00 +0.0000000000000000e+00 -3.9999999996574742e-01 -3.1311668572899735e-02 -5.9301982786116569e-01 +6.0481806240538253e-03
-5.0000000000000000e-01 +8.1649929165906148e+00 +0.0000000000000000e+00 -4.9999999993310040e-01 -3.1311818626935543e-02 -5.9302046755244398e-01 +6.0479968953361359e-03
-5.9999999999999998e-01 +8.1649897998869676e+00 +0.0000000000000000e+00 -5.9999999988439745e-01 -3.1311954470340846e-02 -5.9302111921676159e-01 +6.0478091162943720e-03
-6.9999999999999996e-01 +8.1649861165079738e+00 +0.0000000000000000e+00 -6.9999999981642724e-01 -3.1312077522634908e-02 -5.9302178117860271e-01 +6.0476172630252300e-03
-7.9999999999999993e-01 +8.1649818664530009e+00 +0.0000000000000000e+00 -7.9999999972597857e-01 -3.1312189203338933e-02 -5.9302245176245594e-01 +6.0474213116237770e-03
-8.9999999999999991e-01 +8.1649770497214096e+00 +0.0000000000000000e+00 -8.9999999960984023e-01 -3.1312290931975191e-02 -5.9302312929281531e-01 +6.0472212381832225e-03
-9.9999999999999989e-01 +8.1649716663125513e+00 +0.0000000000000000e+00 -9.9999999946480100e-01 -3.1312384128066181e-02 -5.9302381209417820e-01 +6.0470170187947149e-03
-1.0999999999999999e+00 +8.1649657162257743e+00 +0.0000000000000000e+00 -1.0999999992876495e+00 -3.1312470211133828e-02 -5.9302449849104999e-01 +6.0468086295471304e-03
-1.2000000000000000e+00 +8.1649591994604229e+00 +0.0000000000000000e+00 -1.1999999990751744e+00 -3.1312550600698590e-02 -5.9302518680793925e-01 +6.0465960465268618e-03
-1.3000000000000000e+00 +8.1649521160158400e+00 +0.0000000000000000e+00 -1.2999999988241646e+00 -3.1312626716278630e-02 -5.9302587536936202e-01 +6.0463792458175991e-03
-1.4000000000000001e+00 +8.1649444658913666e+00 +0.0000000000000000e+00 -1.3999999985314087e+00 -3.1312699977388898e-02 -5.9302656249983954e-01 +6.0461582035001311e-03
-1.5000000000000002e+00 +8.1649362490863489e+00 +0.0000000000000000e+00 -1.4999999981936953e+00 -3.1312771803540418e-02 -5.9302724652390015e-01 +6.0459328956521223e-03
-1.6000000000000003e+00 +8.1649274656001314e+00 +0.0000000000000000e+00 -1.5999999978078134e+00 -3.1312843614239298e-02 -5.9302792576607821e-01 +6.0457032983479188e-03
-1.7000000000000004e+00 +8.1649181154320658e+00 +0.0000000000000000e+00 -1.6999999973705513e+00 -3.1312916828985966e-02 -5.9302859855091583e-01 +6.0454693876583181e-03
-1.8000000000000005e+00 +8.1649081985815108e+00 +0.0000000000000000e+00 -1.7999999968786979e+00 -3.1312992867274292e-02 -5.9302926320296157e-01 +6.0452311396503675e-03
-1.9000000000000006e+00 +8.1648977150478306e+00 +0.0000000000000000e+00 -1.8999999963290417e+00 -3.1313073148590734e-02 -5.9302991804677230e-01 +6.0449885303871563e-03
-2.0000000000000004e+00 +8.1648866648304015e+00 +0.0000000000000000e+00 -1.9999999957183714e+00 -3.1313159092413480e-02 -5.9303056140691190e-01 +6.0447415359275924e-03
-2.1000000000000005e+00 +8.1648750479286072e+00 +0.0000000000000000e+00 -2.0999999950434756e+00 -3.1313251710918137e-02 -5.9303119214703881e-01 +6.0444901271975290e-03
-2.2000000000000006e+00 +8.1648628643418473e+00 +0.0000000000000000e+00 -2.1999999943011428e+00 -3.1313350387098711e-02 -5.9303181128715676e-01 +6.0442342546050635e-03
-2.3000000000000007e+00 +8.1648501140695284e+00 +0.0000000000000000e+00 -2.2999999934881616e+00 -3.1313454096652295e-02 -5.9303242038635329e-01 +6.0439738634293439e-03
-2.4000000000000008e+00 +8.1648367971110698e+00 +0.0000000000000000e+00 -2.3999999926013209e+00 -3.1313561815273387e-02 -5.9303302100371114e-01 +6.0437088989499588e-03
-2.5000000000000009e+00 +8.1648229134658976e+00 +0.0000000000000000e+00 -2.4999999916374089e+00 -3.1313672518653857e-02 -5.9303361469830751e-01 +6.0434393064472663e-03
-2.6000000000000010e+00 +8.1648084631334452e+00 +0.0000000000000000e+00 -2.5999999905932145e+00 -3.1313785182483060e-02 -5.9303420302921239e-01 +6.0431650312027258e-03
-2.7000000000000011e+00 +8.1647934461131495e+00 +0.0000000000000000e+00 -2.6999999894655260e+00 -3.1313898782447787e-02 -5.9303478755548833e-01 +6.0428860184992290e-03
-2.8000000000000012e+00 +8.1647778624044545e+00 +0.0000000000000000e+00 -2.7999999882511322e+00 -3.1314012294232536e-02 -5.9303536983618865e-01 +6.0426022136214532e-03
-2.9000000000000012e+00 +8.1647617120068023e+00 +0.0000000000000000e+00 -2.8999999869468214e+00 -3.1314124693519282e-02 -5.9303595143035737e-01 +6.0423135618561689e-03
-3.0000000000000013e+00 +8.1647449949196389e+00 +0.0000000000000000e+00 -2.9999999855493824e+00 -3.1314234955987758e-02 -5.9303653389702704e-01 +6.0420200084926028e-03
-3.1000000000000014e+00 +8.1647277111424064e+00 +0.0000000000000000e+00 -3.0999999840556036e+00 -3.1314342057315356e-02 -5.9303711879521781e-01 +6.0417214988227426e-03
-3.2000000000000015e+00 +8.1647098606745487e+00 +0.0000000000000000e+00 -3.1999999824622738e+00 -3.1314444973177293e-02 -5.9303770768393771e-01 +6.0414179781416947e-03
-3.3000000000000016e+00 +8.1646914435155011e+00 +0.0000000000000000e+00 -3.2999999807661813e+00 -3.1314542679246604e-02 -5.9303830212217934e-01 +6.0411093917480093e-03
-3.4000000000000017e+00 +8.1646724596646969e+00 +0.0000000000000000e+00 -3.3999999789641144e+00 -3.1314634151194169e-02 -5.9303890366892120e-01 +6.0407956849440215e-03
-3.5000000000000018e+00 +8.1646529091215623e+00 +0.0000000000000000e+00 -3.4999999770528620e+00 -3.1314718364688854e-02 -5.9303951388312470e-01 +6.0404768030361726e-03
-3.6000000000000019e+00 +8.1646327918855146e+00 +0.0000000000000000e+00 -3.5999999750292124e+00 -3.1314794295397463e-02 -5.9304013432373481e-01 +6.0401526913353640e-03
-3.7000000000000020e+00 +8.1646121079559606e+00 +0.0000000000000000e+00 -3.6999999728899540e+00 -3.1314860918984840e-02 -5.9304076654967652e-01 +6.0398232951572629e-03
-3.8000000000000020e+00 +8.1645908573322981e+00 +0.0000000000000000e+00 -3.7999999706318750e+00 -3.1314917211113999e-02 -5.9304141211985772e-01 +6.0394885598226864e-03
-3.9000000000000021e+00 +8.1645690400139088e+00 +0.0000000000000000e+00 -3.8999999682517643e+00 -3.1314962147446002e-02 -5.9304207259316299e-01 +6.0391484306578751e-03
-4.0000000000000018e+00 +8.1645466560001640e+00 +0.0000000000000000e+00 -3.9999999657464103e+00 -3.1314994703640159e-02 -5.9304274952845781e-01 +6.0388028529948764e-03
-4.1000000000000014e+00 +8.1645237052904172e+00 +0.0000000000000000e+00 -4.0999999631126007e+00 -3.1315014318536893e-02 -5.9304344416106991e-01 +6.0384518405748747e-03
-4.2000000000000011e+00 +8.1645001878840038e+00 +0.0000000000000000e+00 -4.1999999603471245e+00 -3.1315022283709644e-02 -5.9304415643225061e-01 +6.0380956807556205e-03
-4.3000000000000007e+00 +8.1644761037802454e+00 +0.0000000000000000e+00 -4.2999999574467704e+00 -3.1315020353917818e-02 -5.9304488595971372e-01 +6.0377347292983486e-03
-4.4000000000000004e+00 +8.1644514529784455e+00 +0.0000000000000000e+00 -4.3999999544083268e+00 -3.1315010283923590e-02 -5.9304563236115060e-01 +6.0373693419640299e-03
-4.5000000000000000e+00 +8.1644262354778920e+00 +0.0000000000000000e+00 -4.4999999512285811e+00 -3.1314993828492149e-02 -5.9304639525422786e-01 +6.0369998745132608e-03
-4.5999999999999996e+00 +8.1644004512778565e+00 +0.0000000000000000e+00 -4.5999999479043225e+00 -3.1314972742392019e-02 -5.9304717425658715e-01 +6.0366266827062021e-03
-4.6999999999999993e+00 +8.1643741003775947e+00 +0.0000000000000000e+00 -4.6999999444323386e+00 -3.1314948780395396e-02 -5.9304796898584367e-01 +6.0362501223024988e-03
-4.7999999999999989e+00 +8.1643471827763481e+00 +0.0000000000000000e+00 -4.7999999408094185e+00 -3.1314923697278375e-02 -5.9304877905958564e-01 +6.0358705490612032e-03
-4.8999999999999986e+00 +8.1643196984733439e+00 +0.0000000000000000e+00 -4.8999999370323497e+00 -3.1314899247821285e-02 -5.9304960409537344e-01 +6.0354883187406887e-03
-4.9999999999999982e+00 +8.1642916474677953e+00 +0.0000000000000000e+00 -4.9999999330979215e+00 -3.1314877186808934e-02 -5.9305044371073912e-01 +6.0351037870985920e-03
-5.0999999999999979e+00 +8.1642630297589012e+00 +0.0000000000000000e+00 -5.0999999290029212e+00 -3.1314859269030978e-02 -5.9305129752318331e-01 +6.0347173098916976e-03
-5.1999999999999975e+00 +8.1642338453458461e+00 +0.0000000000000000e+00 -5.1999999247441373e+00 -3.1314847249282136e-02 -5.9305216515017678e-01 +6.0343292428759075e-03
-5.2999999999999972e+00 +8.1642040942278005e+00 +0.0000000000000000e+00 -5.2999999203183581e+00 -3.1314842882362533e-02 -5.9305304620915889e-01 +6.0339399418061299e-03
-5.3999999999999968e+00 +8.1641737764039242e+00 +0.0000000000000000e+00 -5.3999999157223719e+00 -3.1314847923077982e-02 -5.9305394031753567e-01 +6.0335497624362062e-03
-5.4999999999999964e+00 +8.1641428918733645e+00 +0.0000000000000000e+00 -5.4999999109529671e+00 -3.1314864126240245e-02 -5.9305484709267908e-01 +6.0331590605188406e-03
-5.5999999999999961e+00 +8.1641114406352564e+00 +0.0000000000000000e+00 -5.5999999060069312e+00 -3.1314893246667398e-02 -5.9305576615192823e-01 +6.0327681918055202e-03
-5.6999999999999957e+00 +8.1640794226887223e+00 +0.0000000000000000e+00 -5.6999999008810525e+00 -3.1314937039184004e-02 -5.9305669711258457e-01 +6.0323775120464263e-03
-5.7999999999999954e+00 +8.1640468380328723e+00 +0.0000000000000000e+00 -5.7999998955721193e+00 -3.1314997258621552e-02 -5.9305763959191449e-01 +6.0319873769903781e-03
-5.8999999999999950e+00 +8.1640136866668076e+00 +0.0000000000000000e+00 -5.8999998900769199e+00 -3.1315075659818642e-02 -5.9305859320714649e-01 +6.0315981423847238e-03
-5.9999999999999947e+00 +8.1639799685896186e+00 +0.0000000000000000e+00 -5.9999998843922420e+00 -3.1315173997621300e-02 -5.9305955757547091e-01 +6.0312101639752886e-03
-6.0999999999999943e+00 +8.1639456838003852e+00 +0.0000000000000000e+00 -6.0999998785148737e+00 -3.1315293363169835e-02 -5.9306053208149689e-01 +6.0308237061215374e-03
-6.1999999999999940e+00 +8.1639108322981766e+00 +0.0000000000000000e+00 -6.1999998724416034e+00 -3.1315432192744817e-02 -5.9306151517965733e-01 +6.0304386676402902e-03
-6.2999999999999936e+00 +8.1638754140820549e+00 +0.0000000000000000e+00 -6.2999998661692196e+00 -3.1315588258904160e-02 -5.9306250509188341e-01 +6.0300548559591733e-03
-6.3999999999999932e+00 +8.1638394291510750e+00 +0.0000000000000000e+00 -6.3999998596945096e+00 -3.1315759334199798e-02 -5.9306350004015951e-01 +6.0296720785016642e-03
-6.4999999999999929e+00 +8.1638028775042883e+00 +0.0000000000000000e+00 -6.4999998530142609e+00 -3.1315943191177364e-02 -5.9306449824652385e-01 +6.0292901426869131e-03
-6.5999999999999925e+00 +8.1637657591407429e+00 +0.0000000000000000e+00 -6.5999998461252618e+00 -3.1316137602375949e-02 -5.9306549793307206e-01 +6.0289088559295836e-03
-6.6999999999999922e+00 +8.1637280740594829e+00 +0.0000000000000000e+00 -6.6999998390243007e+00 -3.1316340340327917e-02 -5.9306649732196137e-01 +6.0285280256396866e-03
-6.7999999999999918e+00 +8.1636898222595562e+00 +0.0000000000000000e+00 -6.7999998317081660e+00 -3.1316549177558481e-02 -5.9306749463541009e-01 +6.0281474592224068e-03
-6.8999999999999915e+00 +8.1636510037400107e+00 +0.0000000000000000e+00 -6.8999998241736442e+00 -3.1316761886585637e-02 -5.9306848809570334e-01 +6.0277669640779481e-03
-6.9999999999999911e+00 +8.1636116184998979e+00 +0.0000000000000000e+00 -6.9999998164175246e+00 -3.1316976239919692e-02 -5.9306947592519377e-01 +6.0273863476013566e-03
-7.0999999999999908e+00 +8.1635716665382745e+00 +0.0000000000000000e+00 -7.0999998084365945e+00 -3.1317190010063174e-02 -5.9307045634630529e-01 +6.0270054171823626e-03
-7.1999999999999904e+00 +8.1635311478542079e+00 +0.0000000000000000e+00 -7.1999998002276415e+00 -3.1317400969510481e-02 -5.9307142758153508e-01 +6.0266239802052070e-03
-7.2999999999999901e+00 +8.1634900624467690e+00 +0.0000000000000000e+00 -7.2999997917874540e+00 -3.1317606890747612e-02 -5.9307238785345706e-01 +6.0262418440484838e-03
-7.3999999999999897e+00 +8.1634484103150431e+00 +0.0000000000000000e+00 -7.3999997831128193e+00 -3.1317805546251978e-02 -5.9307333538472395e-01 +6.0258588160849655e-03
-7.4999999999999893e+00 +8.1634061914581242e+00 +0.0000000000000000e+00 -7.4999997742005258e+00 -3.1317994708492031e-02 -5.9307426839807009e-01 +6.0254747036814485e-03
-7.5999999999999890e+00 +8.1633634058751241e+00 +0.0000000000000000e+00 -7.5999997650473610e+00 -3.1318172149927159e-02 -5.9307518511631430e-01 +6.0250893141985716e-03
-7.6999999999999886e+00 +8.1633200535651671e+00 +0.0000000000000000e+00 -7.6999997556501132e+00 -3.1318335643007220e-02 -5.9307608376236265e-01 +6.0247024549906682e-03
-7.7999999999999883e+00 +8.1632761345273970e+00 +0.0000000000000000e+00 -7.7999997460055699e+00 -3.1318482960172471e-02 -5.9307696255921027e-01 +6.0243139334055862e-03
-7.8999999999999879e+00 +8.1632316487609753e+00 +0.0000000000000000e+00 -7.8999997361105185e+00 -3.1318611873853222e-02 -5.9307781972994622e-01 +6.0239235567845321e-03
-7.9999999999999876e+00 +8.1631865962650849e+00 +0.0000000000000000e+00 -7.9999997259617475e+00 -3.1318720156469568e-02 -5.9307865349775257e-01 +6.0235311324618969e-03
-8.0999999999999872e+00 +8.1631409770389300e+00 +0.0000000000000000e+00 -8.0999997155560433e+00 -3.1318806106027587e-02 -5.9307946262324485e-01 +6.0231365305653860e-03
-8.1999999999999869e+00 +8.1630947910817397e+00 +0.0000000000000000e+00 -8.1999997048901960e+00 -3.1318870122935841e-02 -5.9308024801645176e-01 +6.0227398724251998e-03
-8.2999999999999865e+00 +8.1630480383927644e+00 +0.0000000000000000e+00 -8.2999996939609915e+00 -3.1318913133225885e-02 -5.9308101112473355e-01 +6.0223413421834982e-03
-8.3999999999999861e+00 +8.1630007189712757e+00 +0.0000000000000000e+00 -8.3999996827652179e+00 -3.1318936062950421e-02 -5.9308175339542935e-01 +6.0219411239950862e-03
-8.4999999999999858e+00 +8.1629528328165666e+00 +0.0000000000000000e+00 -8.4999996712996637e+00 -3.1318939838183929e-02 -5.9308247627585564e-01 +6.0215394020278340e-03
-8.5999999999999854e+00 +8.1629043799279462e+00 +0.0000000000000000e+00 -8.5999996595611172e+00 -3.1318925385023441e-02 -5.9308318121330628e-01 +6.0211363604631097e-03
-8.6999999999999851e+00 +8.1628553603047447e+00 +0.0000000000000000e+00 -8.6999996475463650e+00 -3.1318893629589173e-02 -5.9308386965504989e-01 +6.0207321834961957e-03
-8.7999999999999847e+00 +8.1628057739463031e+00 +0.0000000000000000e+00 -8.7999996352521954e+00 -3.1318845498025202e-02 -5.9308454304833003e-01 +6.0203270553367220e-03
-8.8999999999999844e+00 +8.1627556208519820e+00 +0.0000000000000000e+00 -8.8999996226753968e+00 -3.1318781916500144e-02 -5.9308520284036315e-01 +6.0199211602090909e-03
-8.9999999999999840e+00 +8.1627049010211508e+00 +0.0000000000000000e+00 -8.9999996098127557e+00 -3.1318703811207910e-02 -5.9308585047833851e-01 +6.0195146823528878e-03
-9.0999999999999837e+00 +8.1626536144531912e+00 +0.0000000000000000e+00 -9.0999995966610605e+00 -3.1318612108368275e-02 -5.9308648740941705e-01 +6.0191078060233298e-03
-9.1999999999999833e+00 +8.1626017611474975e+00 +0.0000000000000000e+00 -9.1999995832170995e+00 -3.1318507734227660e-02 -5.9308711508072987e-01 +6.0187007154916686e-03
-9.2999999999999829e+00 +8.1625493411034729e+00 +0.0000000000000000e+00 -9.2999995694776594e+00 -3.1318391615059726e-02 -5.9308773493937661e-01 +6.0182935950456274e-03
-9.3999999999999826e+00 +8.1624963543205240e+00 +0.0000000000000000e+00 -9.3999995554395284e+00 -3.1318264677166134e-02 -5.9308834843242553e-01 +6.0178866289898256e-03
-9.4999999999999822e+00 +8.1624428007980683e+00 +0.0000000000000000e+00 -9.4999995410994948e+00 -3.1318127846877181e-02 -5.9308895700691300e-01 +6.0174800016461983e-03
-9.5999999999999819e+00 +8.1623886805355230e+00 +0.0000000000000000e+00 -9.5999995264543454e+00 -3.1317982050552480e-02 -5.9308956210983999e-01 +6.0170738973544229e-03
-9.6999999999999815e+00 +8.1623339935323145e+00 +0.0000000000000000e+00 -9.6999995115008684e+00 -3.1317828214581643e-02 -5.9309016518817392e-01 +6.0166685004723417e-03
-9.7999999999999812e+00 +8.1622787397878671e+00 +0.0000000000000000e+00 -9.7999994962358521e+00 -3.1317667265384971e-02 -5.9309076768884528e-01 +6.0162639953763933e-03
-9.8999999999999808e+00 +8.1622229193016054e+00 +0.0000000000000000e+00 -9.8999994806560832e+00 -3.1317500129414130e-02 -5.9309137105874843e-01 +6.0158605664620366e-03
-9.9999999999999805e+00 +8.1621665320729555e+00 +0.0000000000000000e+00 -9.9999994647583499e+00 -3.1317327733152815e-02 -5.9309197674473890e-01 +6.0154583981441604e-03
-1.0099999999999980e+01 +8.1621095781013420e+00 +0.0000000000000000e+00 -1.0099999448539441e+01 -3.1317151074258733e-02 -5.9309258610295912e-01 +6.0150576319266307e-03
-1.0199999999999980e+01 +8.1620520573861821e+00 +0.0000000000000000e+00 -1.0199999431996142e+01 -3.1316971434958984e-02 -5.9309320012682376e-01 +6.0146582375969499e-03
-1.0299999999999979e+01 +8.1619939699268915e+00 +0.0000000000000000e+00 -1.0299999415125242e+01 -3.1316790168564083e-02 -5.9309381971907171e-01 +6.0142601420024025e-03
-1.0399999999999979e+01 +8.1619353157228804e+00 +0.0000000000000000e+00 -1.0399999397923528e+01 -3.1316608628314230e-02 -5.9309444578244885e-01 +6.0138632719794584e-03
-1.0499999999999979e+01 +8.1618760947735520e+00 +0.0000000000000000e+00 -1.0499999380387788e+01 -3.1316428167377480e-02 -5.9309507921970739e-01 +6.0134675543534319e-03
-1.0599999999999978e+01 +8.1618163070783023e+00 +0.0000000000000000e+00 -1.0599999362514810e+01 -3.1316250138847937e-02 -5.9309572093360563e-01 +6.0130729159381677e-03
-1.0699999999999978e+01 +8.1617559526365202e+00 +0.0000000000000000e+00 -1.0699999344301380e+01 -3.1316075895743860e-02 -5.9309637182690833e-01 +6.0126792835356793e-03
-1.0799999999999978e+01 +8.1616950314475858e+00 +0.0000000000000000e+00 -1.0799999325744288e+01 -3.1315906791005925e-02 -5.9309703280238724e-01 +6.0122865839358367e-03
-1.0899999999999977e+01 +8.1616335435108702e+00 +0.0000000000000000e+00 -1.0899999306840321e+01 -3.1315744177495324e-02 -5.9309770476282075e-01 +6.0118947439160263e-03
-1.0999999999999977e+01 +8.1615714888257322e+00 +0.0000000000000000e+00 -1.0999999287586267e+01 -3.1315589407991978e-02 -5.9309838861099407e-01 +6.0115036902408190e-03
-1.1099999999999977e+01 +8.1615088673915199e+00 +0.0000000000000000e+00 -1.1099999267978911e+01 -3.1315443835192622e-02 -5.9309908524969956e-01 +6.0111133496616263e-03
-1.1199999999999976e+01 +8.1614456792075707e+00 +0.0000000000000000e+00 -1.1199999248015041e+01 -3.1315308811709124e-02 -5.9309979558173587e-01 +6.0107236489163798e-03
-1.1299999999999976e+01 +8.1613819242732077e+00 +0.0000000000000000e+00 -1.1299999227691448e+01 -3.1315185690066520e-02 -5.9310052050990936e-01 +6.0103345147291976e-03
-1.1399999999999975e+01 +8.1613176025877401e+00 +0.0000000000000000e+00 -1.1399999207004916e+01 -3.1315075822701217e-02 -5.9310126093703308e-01 +6.0099458738100374e-03
-1.1499999999999975e+01 +8.1612527141504607e+00 +0.0000000000000000e+00 -1.1499999185952234e+01 -3.1314980561959208e-02 -5.9310201776592841e-01 +6.0095576528543830e-03
-1.1599999999999975e+01 +8.1611872589606502e+00 +0.0000000000000000e+00 -1.1599999164530189e+01 -3.1314901260094147e-02 -5.9310279189942283e-01 +6.0091697785428924e-03
-1.1699999999999974e+01 +8.1611212370175696e+00 +0.0000000000000000e+00 -1.1699999142735567e+01 -3.1314839269265621e-02 -5.9310358424035214e-01 +6.0087821775410815e-03
