# field on trajectory
# s[mm] rx[mm] ry[mm] rz[mm] bx[T] by[T] bz[T]
-0.0000000000000000e+00 +8.1530000000000094e+00 +0.0000000000000000e+00 -0.0000000000000000e+00 -2.9538357152949054e-02 -5.6441441928330005e-01 +5.6887878121764058e-03
-1.0000000000000001e-01 +8.1529997159377707e+00 +0.0000000000000000e+00 -1.0008006405070299e-01 -2.9538260477265429e-02 -5.6441466309391830e-01 +5.6887826565001909e-03
-2.0000000000000001e-01 +8.1529988637557800e+00 +0.0000000000000000e+00 -2.0016012809818201e-01 -2.9538168420829767e-02 -5.6441488865839173e-01 +5.6887756604417977e-03
-2.9999999999999999e-01 +8.1529974434524792e+00 +0.0000000000000000e+00 -3.0024019213920999e-01 -2.9538080170259332e-02 -5.6441509739724383e-01 +5.6887669337214730e-03
-4.0000000000000002e-01 +8.1529954550242092e+00 +0.0000000000000000e+00 -4.0032025617056399e-01 -2.9537994912178327e-02 -5.6441529073099950e-01 +5.6887565860607430e-03
-5.0000000000000000e-01 +8.1529928984782600e+00 +0.0000000000000000e+00 -5.0040032018901703e-01 -2.9537911833211954e-02 -5.6441547008008464e-01 +5.6887447271813463e-03
-5.9999999999999998e-01 +8.1529897738146193e+00 +0.0000000000000000e+00 -6.0048038419134497e-01 -2.9537830119993461e-02 -5.6441563686497187e-01 +5.6887314668066591e-03
-6.9999999999999996e-01 +8.1529860810223909e+00 +0.0000000000000000e+00 -7.0056044817432195e-01 -2.9537748959165187e-02 -5.6441579250620910e-01 +5.6887169146619251e-03
-8.0000000000000004e-01 +8.1529818201124709e+00 +0.0000000000000000e+00 -8.0064051213472498e-01 -2.9537667537364410e-02 -5.6441593842416915e-01 +5.6887011804716585e-03
-9.0000000000000002e-01 +8.1529769910812302e+00 +0.0000000000000000e+00 -9.0072057606932698e-01 -2.9537585041237952e-02 -5.6441607603933219e-01 +5.6886843739624680e-03
-1.0000000000000000e+00 +8.1529715939250291e+00 +0.0000000000000000e+00 -1.0008006399749001e+00 -2.9537500657435663e-02 -5.6441620677217708e-01 +5.6886666048618804e-03
-1.1000000000000001e+00 +8.1529656286511507e+00 +0.0000000000000000e+00 -1.1008807038482300e+00 -2.9537413572605337e-02 -5.6441633204309771e-01 +5.6886479828974585e-03
-1.2000000000000000e+00 +8.1529590952522994e+00 +0.0000000000000000e+00 -1.2009607676860801e+00 -2.9537322973402832e-02 -5.6441645327260281e-01 +5.6886286177987621e-03
-1.3000000000000000e+00 +8.1529519937357708e+00 +0.0000000000000000e+00 -1.3010408314852300e+00 -2.9537228046479368e-02 -5.6441657188109307e-01 +5.6886086192950236e-03
-1.3999999999999999e+00 +8.1529443240979198e+00 +0.0000000000000000e+00 -1.4011208952424601e+00 -2.9537127978491711e-02 -5.6441668928905886e-01 +5.6885880971171204e-03
-1.5000000000000000e+00 +8.1529360863350995e+00 +0.0000000000000000e+00 -1.5012009589545301e+00 -2.9537021956097094e-02 -5.6441680691700058e-01 +5.6885671609967006e-03
-1.6000000000000001e+00 +8.1529272804509691e+00 +0.0000000000000000e+00 -1.6012810226182299e+00 -2.9536909165949650e-02 -5.6441692618537276e-01 +5.6885459206655522e-03
-1.7000000000000000e+00 +8.1529179064491508e+00 +0.0000000000000000e+00 -1.7013610862303301e+00 -2.9536788794702968e-02 -5.6441704851464225e-01 +5.6885244858561603e-03
-1.8000000000000000e+00 +8.1529079643223703e+00 +0.0000000000000000e+00 -1.8014411497875999e+00 -2.9536660029014072e-02 -5.6441717532537550e-01 +5.6885029663025239e-03
-1.8999999999999999e+00 +8.1528974540779000e+00 +0.0000000000000000e+00 -1.9015212132868200e+00 -2.9536522055532397e-02 -5.6441730803804413e-01 +5.6884814717381247e-03
-2.0000000000000000e+00 +8.1528863757084800e+00 +0.0000000000000000e+00 -2.0016012767247702e+00 -2.9536374060912862e-02 -5.6441744807325123e-01 +5.6884601118981663e-03
-2.1000000000000001e+00 +8.1528747292177304e+00 +0.0000000000000000e+00 -2.1016813400982199e+00 -2.9536215627725616e-02 -5.6441759680406378e-01 +5.6884389913120521e-03
-2.2000000000000002e+00 +8.1528625146056601e+00 +0.0000000000000000e+00 -2.2017614034039301e+00 -2.9536047848029573e-02 -5.6441775542259875e-01 +5.6884181946629019e-03
-2.2999999999999998e+00 +8.1528497318759001e+00 +0.0000000000000000e+00 -2.3018414666387002e+00 -2.9535872173563425e-02 -5.6441792507782107e-01 +5.6883978019030453e-03
-2.3999999999999999e+00 +8.1528363810211903e+00 +0.0000000000000000e+00 -2.4019215297993002e+00 -2.9535690056067251e-02 -5.6441810691878314e-01 +5.6883778929837925e-03
-2.5000000000000000e+00 +8.1528224620451493e+00 +0.0000000000000000e+00 -2.5020015928824901e+00 -2.9535502947273189e-02 -5.6441830209445620e-01 +5.6883585478534589e-03
-2.6000000000000001e+00 +8.1528079749477893e+00 +0.0000000000000000e+00 -2.6020816558850601e+00 -2.9535312298910970e-02 -5.6441851175384017e-01 +5.6883398464582409e-03
-2.7000000000000002e+00 +8.1527929197291105e+00 +0.0000000000000000e+00 -2.7021617188037701e+00 -2.9535119562706030e-02 -5.6441873704593837e-01 +5.6883218687416616e-03
-2.7999999999999998e+00 +8.1527772963891003e+00 +0.0000000000000000e+00 -2.8022417816354102e+00 -2.9534926190379170e-02 -5.6441897911975447e-01 +5.6883046946442995e-03
-2.8999999999999999e+00 +8.1527611049277802e+00 +0.0000000000000000e+00 -2.9023218443767500e+00 -2.9534733633646042e-02 -5.6441923912429359e-01 +5.6882884041035333e-03
-3.0000000000000000e+00 +8.1527443453451305e+00 +0.0000000000000000e+00 -3.0024019070245598e+00 -2.9534543344216815e-02 -5.6441951820856118e-01 +5.6882730770532706e-03
-3.1000000000000001e+00 +8.1527270176411495e+00 +0.0000000000000000e+00 -3.1024819695756198e+00 -2.9534356773795758e-02 -5.6441981752156334e-01 +5.6882587934236721e-03
-3.2000000000000002e+00 +8.1527091218158603e+00 +0.0000000000000000e+00 -3.2025620320267101e+00 -2.9534175374080852e-02 -5.6442013821230608e-01 +5.6882456331409110e-03
-3.2999999999999998e+00 +8.1526906578692397e+00 +0.0000000000000000e+00 -3.3026420943745900e+00 -2.9534000596763338e-02 -5.6442048142979462e-01 +5.6882336761268680e-03
-3.3999999999999999e+00 +8.1526716258013003e+00 +0.0000000000000000e+00 -3.4027221566160502e+00 -2.9533833893527352e-02 -5.6442084832303352e-01 +5.6882230022989016e-03
-3.5000000000000000e+00 +8.1526520256120403e+00 +0.0000000000000000e+00 -3.5028022187478500e+00 -2.9533676716049527e-02 -5.6442124004102689e-01 +5.6882136915695604e-03
-3.6000000000000001e+00 +8.1526318572978198e+00 +0.0000000000000000e+00 -3.6028822807667802e+00 -2.9533530516000057e-02 -5.6442165773280450e-01 +5.6882058238466090e-03
-3.7000000000000002e+00 +8.1526111208659096e+00 +0.0000000000000000e+00 -3.7029623426696099e+00 -2.9533396745036328e-02 -5.6442210254731107e-01 +5.6881994790316187e-03
-3.7999999999999998e+00 +8.1525898163126804e+00 +0.0000000000000000e+00 -3.8030424044531101e+00 -2.9533276854811438e-02 -5.6442257563357157e-01 +5.6881947370214037e-03
-3.8999999999999999e+00 +8.1525679436344909e+00 +0.0000000000000000e+00 -3.9031224661140600e+00 -2.9533172296969425e-02 -5.6442307814060999e-01 +5.6881916777069231e-03
-4.0000000000000000e+00 +8.1525455028386205e+00 +0.0000000000000000e+00 -4.0032025276492398e+00 -2.9533084523121287e-02 -5.6442361121733986e-01 +5.6881903809707359e-03
-4.0999999999999996e+00 +8.1525224939177896e+00 +0.0000000000000000e+00 -4.1032825890554099e+00 -2.9533014349619826e-02 -5.6442417522838750e-01 +5.6881908799518259e-03
-4.2000000000000002e+00 +8.1524989168792708e+00 +0.0000000000000000e+00 -4.2033626503293604e+00 -2.9532960284119409e-02 -5.6442476768756533e-01 +5.6881930379242959e-03
-4.2999999999999998e+00 +8.1524747717157897e+00 +0.0000000000000000e+00 -4.3034427114678504e+00 -2.9532920309956589e-02 -5.6442538546138055e-01 +5.6881966795869461e-03
-4.4000000000000004e+00 +8.1524500584346207e+00 +0.0000000000000000e+00 -4.4035227724676700e+00 -2.9532892410446036e-02 -5.6442602541621212e-01 +5.6882016296371735e-03
-4.5000000000000000e+00 +8.1524247770285001e+00 +0.0000000000000000e+00 -4.5036028333255800e+00 -2.9532874568891965e-02 -5.6442668441853516e-01 +5.6882077127733896e-03
-4.5999999999999996e+00 +8.1523989275046898e+00 +0.0000000000000000e+00 -4.6036828940383696e+00 -2.9532864768575296e-02 -5.6442735933469412e-01 +5.6882147536928352e-03
-4.7000000000000002e+00 +8.1523725098559208e+00 +0.0000000000000000e+00 -4.7037629546028104e+00 -2.9532860992765187e-02 -5.6442804703112615e-01 +5.6882225770940051e-03
-4.7999999999999998e+00 +8.1523455240894709e+00 +0.0000000000000000e+00 -4.8038430150156701e+00 -2.9532861224706202e-02 -5.6442874437413759e-01 +5.6882310076744706e-03
-4.9000000000000004e+00 +8.1523179701980606e+00 +0.0000000000000000e+00 -4.9039230752737302e+00 -2.9532863447629842e-02 -5.6442944823012553e-01 +5.6882398701332965e-03
-5.0000000000000000e+00 +8.1522898481889605e+00 +0.0000000000000000e+00 -5.0040031353737602e+00 -2.9532865644741606e-02 -5.6443015546535236e-01 +5.6882489891688492e-03
-5.0999999999999996e+00 +8.1522611580549000e+00 +0.0000000000000000e+00 -5.1040831953125396e+00 -2.9532865799232609e-02 -5.6443086294617051e-01 +5.6882581894812387e-03
-5.2000000000000002e+00 +8.1522318997995207e+00 +0.0000000000000000e+00 -5.2041632550868497e+00 -2.9532861894268257e-02 -5.6443156753882440e-01 +5.6882672957704163e-03
-5.2999999999999998e+00 +8.1522020734228100e+00 +0.0000000000000000e+00 -5.3042433146934496e+00 -2.9532851912993610e-02 -5.6443226610956132e-01 +5.6882761327374355e-03
-5.4000000000000004e+00 +8.1521716789247893e+00 +0.0000000000000000e+00 -5.4043233741291203e+00 -2.9532833838531222e-02 -5.6443295552460226e-01 +5.6882845250842999e-03
-5.5000000000000000e+00 +8.1521407163090807e+00 +0.0000000000000000e+00 -5.5044034333906504e+00 -2.9532805653979029e-02 -5.6443363265011426e-01 +5.6882922975137924e-03
-5.5999999999999996e+00 +8.1521091855684098e+00 +0.0000000000000000e+00 -5.6044834924747899e+00 -2.9532765342415626e-02 -5.6443429435232029e-01 +5.6882992747307373e-03
-5.7000000000000002e+00 +8.1520770867064094e+00 +0.0000000000000000e+00 -5.7045635513783299e+00 -2.9532710886890624e-02 -5.6443493749733042e-01 +5.6883052814404103e-03
-5.7999999999999998e+00 +8.1520444197231008e+00 +0.0000000000000000e+00 -5.8046436100980499e+00 -2.9532640270429976e-02 -5.6443555895125208e-01 +5.6883101423497919e-03
-5.9000000000000004e+00 +8.1520111846184609e+00 +0.0000000000000000e+00 -5.9047236686307096e+00 -2.9532551476033852e-02 -5.6443615558016313e-01 +5.6883136821674193e-03
-5.9999999999999902e+00 +8.1519773813925003e+00 +0.0000000000000000e+00 -6.0048037269731003e+00 -2.9532442486739991e-02 -5.6443672425019153e-01 +5.6883157256092647e-03
-6.0999999999999899e+00 +8.1519430100452208e+00 +0.0000000000000000e+00 -6.1048837851219799e+00 -2.9532311951695950e-02 -5.6443726268823369e-01 +5.6883161574003355e-03
-6.1999999999999904e+00 +8.1519080705766100e+00 +0.0000000000000000e+00 -6.2049638430741396e+00 -2.9532160828073997e-02 -5.6443777160367536e-01 +5.6883150701808310e-03
-6.2999999999999901e+00 +8.1518725629866804e+00 +0.0000000000000000e+00 -6.3050439008263499e+00 -2.9531990572615803e-02 -5.6443825235143474e-01 +5.6883126015933759e-03
-6.3999999999999897e+00 +8.1518364872754301e+00 +0.0000000000000000e+00 -6.4051239583753699e+00 -2.9531802642111169e-02 -5.6443870628646486e-01 +5.6883088892845874e-03
-6.4999999999999902e+00 +8.1517998434428591e+00 +0.0000000000000000e+00 -6.5052040157180002e+00 -2.9531598493400320e-02 -5.6443913476375596e-01 +5.6883040709052425e-03
-6.5999999999999899e+00 +8.1517626314889604e+00 +0.0000000000000000e+00 -6.6052840728510001e+00 -2.9531379583376174e-02 -5.6443953913833511e-01 +5.6882982841104700e-03
-6.6999999999999904e+00 +8.1517248514137499e+00 +0.0000000000000000e+00 -6.7053641297711399e+00 -2.9531147368986654e-02 -5.6443992076527061e-01 +5.6882916665599503e-03
-6.7999999999999901e+00 +8.1516865032135701e+00 +0.0000000000000000e+00 -6.8054441864752100e+00 -2.9530903307238537e-02 -5.6444028099969912e-01 +5.6882843559183816e-03
-6.8999999999999897e+00 +8.1516475868957095e+00 +0.0000000000000000e+00 -6.9055242429599701e+00 -2.9530648855193645e-02 -5.6444062119671656e-01 +5.6882764898545180e-03
-6.9999999999999902e+00 +8.1516081024565192e+00 +0.0000000000000000e+00 -7.0056042992222096e+00 -2.9530385469980252e-02 -5.6444094271154799e-01 +5.6882682060430947e-03
-7.0999999999999899e+00 +8.1515680498960101e+00 +0.0000000000000000e+00 -7.1056843552586999e+00 -2.9530114608789362e-02 -5.6444124689943720e-01 +5.6882596421638475e-03
-7.1999999999999904e+00 +8.1515274292141804e+00 +0.0000000000000000e+00 -7.2057644110662000e+00 -2.9529837728878450e-02 -5.6444153511567641e-01 +5.6882509359020041e-03
-7.2999999999999901e+00 +8.1514862404073902e+00 +0.0000000000000000e+00 -7.3058444666415099e+00 -2.9529556287575323e-02 -5.6444180871563587e-01 +5.6882422249487597e-03
-7.3999999999999897e+00 +8.1514444834829192e+00 +0.0000000000000000e+00 -7.4059245219813796e+00 -2.9529271742274366e-02 -5.6444206905465288e-01 +5.6882336470003006e-03
-7.4999999999999902e+00 +8.1514021584334806e+00 +0.0000000000000000e+00 -7.5060045770826100e+00 -2.9528985550449444e-02 -5.6444231748823170e-01 +5.6882253397600212e-03
-7.5999999999999899e+00 +8.1513592652663593e+00 +0.0000000000000000e+00 -7.6060846319419504e+00 -2.9528699169644030e-02 -5.6444255537181831e-01 +5.6882174409364000e-03
-7.6999999999999904e+00 +8.1513158039779192e+00 +0.0000000000000000e+00 -7.7061646865561997e+00 -2.9528414057484138e-02 -5.6444278406100012e-01 +5.6882100882452054e-03
-7.7999999999999901e+00 +8.1512717745681602e+00 +0.0000000000000000e+00 -7.8062447409221098e+00 -2.9528131671674618e-02 -5.6444300491139554e-01 +5.6882034194085341e-03
-7.8999999999999897e+00 +8.1512271770334301e+00 +0.0000000000000000e+00 -7.9063247950364799e+00 -2.9527853470004372e-02 -5.6444321927871133e-01 +5.6881975721555659e-03
-7.9999999999999902e+00 +8.1511820113773901e+00 +0.0000000000000000e+00 -8.0064048488960609e+00 -2.9527580910279048e-02 -5.6444342851871065e-01 +5.6881926842094208e-03
-8.0999999999999908e+00 +8.1511362776036496e+00 +0.0000000000000000e+00 -8.1064849024976393e+00 -2.9527315151293997e-02 -5.6444363422161292e-01 +5.6881888360281957e-03
-8.1999999999999904e+00 +8.1510899757086008e+00 +0.0000000000000000e+00 -8.2065649558379903e+00 -2.9527056363699067e-02 -5.6444383875213022e-01 +5.6881859188531213e-03
-8.2999999999999901e+00 +8.1510431056885899e+00 +0.0000000000000000e+00 -8.3066450089139003e+00 -2.9526804514305217e-02 -5.6444404463466669e-01 +5.6881837849000307e-03
-8.3999999999999897e+00 +8.1509956675508892e+00 +0.0000000000000000e+00 -8.4067250617221205e+00 -2.9526559569867123e-02 -5.6444425439351742e-01 +5.6881822863817898e-03
-8.4999999999999893e+00 +8.1509476612882299e+00 +0.0000000000000000e+00 -8.5068051142594392e+00 -2.9526321497091633e-02 -5.6444447055306390e-01 +5.6881812755102002e-03
-8.5999999999999908e+00 +8.1508990869078808e+00 +0.0000000000000000e+00 -8.6068851665226305e+00 -2.9526090262623827e-02 -5.6444469563754751e-01 +5.6881806044936072e-03
-8.6999999999999904e+00 +8.1508499444025801e+00 +0.0000000000000000e+00 -8.7069652185084596e+00 -2.9525865833057049e-02 -5.6444493217129510e-01 +5.6881801255391010e-03
-8.7999999999999794e+00 +8.1508002337759500e+00 +0.0000000000000000e+00 -8.8070452702137203e+00 -2.9525648174920368e-02 -5.6444518267851984e-01 +5.6881796908504019e-03
-8.8999999999999808e+00 +8.1507499550316407e+00 +0.0000000000000000e+00 -8.9071253216351796e+00 -2.9525437254681125e-02 -5.6444544968340415e-01 +5.6881791526286274e-03
-8.9999999999999805e+00 +8.1506991081623692e+00 +0.0000000000000000e+00 -9.0072053727696098e+00 -2.9525233038747514e-02 -5.6444573571018386e-01 +5.6881783630730745e-03
-9.0999999999999801e+00 +8.1506476931717806e+00 +0.0000000000000000e+00 -9.1072854236137797e+00 -2.9525035493457495e-02 -5.6444604328297843e-01 +5.6881771743793651e-03
-9.1999999999999797e+00 +8.1505957100635005e+00 +0.0000000000000000e+00 -9.2073654741644795e+00 -2.9524844585081374e-02 -5.6444637492587368e-01 +5.6881754387402388e-03
-9.2999999999999794e+00 +8.1505431588302599e+00 +0.0000000000000000e+00 -9.3074455244184708e+00 -2.9524660279824345e-02 -5.6444673316300586e-01 +5.6881730083463101e-03
-9.3999999999999808e+00 +8.1504900394757005e+00 +0.0000000000000000e+00 -9.4075255743725297e+00 -2.9524482543815428e-02 -5.6444712051839019e-01 +5.6881697353842369e-03
-9.4999999999999805e+00 +8.1504363520034495e+00 +0.0000000000000000e+00 -9.5076056240234408e+00 -2.9524311343110069e-02 -5.6444753951600646e-01 +5.6881654720375091e-03
-9.5999999999999801e+00 +8.1503820964062506e+00 +0.0000000000000000e+00 -9.6076856733679694e+00 -2.9524146643692663e-02 -5.6444799267988099e-01 +5.6881600704871962e-03
-9.6999999999999797e+00 +8.1503272726913600e+00 +0.0000000000000000e+00 -9.7077657224029004e+00 -2.9523988411463982e-02 -5.6444848253388813e-01 +5.6881533829098449e-03
-9.7999999999999794e+00 +8.1502718808515109e+00 +0.0000000000000000e+00 -9.8078457711250007e+00 -2.9523836612251338e-02 -5.6444901160197547e-01 +5.6881452614796881e-03
-9.8999999999999808e+00 +8.1502159208903304e+00 +0.0000000000000000e+00 -9.9079258195310498e+00 -2.9523691211795936e-02 -5.6444958240796539e-01 +5.6881355583665244e-03
-9.9999999999999805e+00 +8.1501593928078400e+00 +0.0000000000000000e+00 -1.0008005867617801e+01 -2.9523552175743647e-02 -5.6445019747512948e-01 +5.6881241257690273e-03
-1.0100000000000000e+01 +8.1501022966040200e+00 +0.0000000000000000e+00 -1.0108085915382100e+01 -2.9523419436702999e-02 -5.6445085800875061e-01 +5.6881108950807939e-03
-1.0199999999999999e+01 +8.1500446322825209e+00 +0.0000000000000000e+00 -1.0208165962820599e+01 -2.9523292823396999e-02 -5.6445156106090055e-01 +5.6880960472670532e-03
-1.0300000000000001e+01 +8.1499863998360507e+00 +0.0000000000000000e+00 -1.0308246009930199e+01 -2.9523172144168726e-02 -5.6445230286771597e-01 +5.6880798123325428e-03
-1.0400000000000000e+01 +8.1499275992682705e+00 +0.0000000000000000e+00 -1.0408326056707599e+01 -2.9523057207383296e-02 -5.6445307966527059e-01 +5.6880624202823495e-03
-1.0500000000000000e+01 +8.1498682305791608e+00 +0.0000000000000000e+00 -1.0508406103149600e+01 -2.9522947821434720e-02 -5.6445388768969007e-01 +5.6880441011230897e-03
-1.0600000000000000e+01 +8.1498082937723701e+00 +0.0000000000000000e+00 -1.0608486149253000e+01 -2.9522843794743701e-02 -5.6445472317709600e-01 +5.6880250848623552e-03
-1.0699999999999999e+01 +8.1497477888406102e+00 +0.0000000000000000e+00 -1.0708566195014500e+01 -2.9522744935764483e-02 -5.6445558236371818e-01 +5.6880056015098726e-03
-1.0800000000000001e+01 +8.1496867157875403e+00 +0.0000000000000000e+00 -1.0808646240430900e+01 -2.9522651052976679e-02 -5.6445646148572692e-01 +5.6879858810758230e-03
-1.0900000000000000e+01 +8.1496250746131391e+00 +0.0000000000000000e+00 -1.0908726285499000e+01 -2.9522561954892057e-02 -5.6445735677934694e-01 +5.6879661535719876e-03
-1.1000000000000000e+01 +8.1495628653174208e+00 +0.0000000000000000e+00 -1.1008806330215601e+01 -2.9522477450053906e-02 -5.6445826448082870e-01 +5.6879466490115053e-03
-1.1100000000000000e+01 +8.1495000879040198e+00 +0.0000000000000000e+00 -1.1108886374577500e+01 -2.9522397347036277e-02 -5.6445918082642166e-01 +5.6879275974085755e-03
-1.1199999999999999e+01 +8.1494367423620098e+00 +0.0000000000000000e+00 -1.1208966418581401e+01 -2.9522321454452494e-02 -5.6446010205251473e-01 +5.6879092287799547e-03
-1.1300000000000001e+01 +8.1493728287059604e+00 +0.0000000000000000e+00 -1.1309046462224000e+01 -2.9522249580939183e-02 -5.6446102439532908e-01 +5.6878917731417733e-03
-1.1400000000000000e+01 +8.1493083469249505e+00 +0.0000000000000000e+00 -1.1409126505502300e+01 -2.9522181535178386e-02 -5.6446194409131023e-01 +5.6878754605136101e-03
-1.1500000000000000e+01 +8.1492432970226201e+00 +0.0000000000000000e+00 -1.1509206548412800e+01 -2.9522117125881705e-02 -5.6446285737682145e-01 +5.6878605209153329e-03
-1.1600000000000000e+01 +8.1491776789989707e+00 +0.0000000000000000e+00 -1.1609286590952600e+01 -2.9522056161798659e-02 -5.6446376048828328e-01 +5.6878471843685588e-03
-1.1699999999999999e+01 +8.1491114928576298e+00 +0.0000000000000000e+00 -1.1709366633118099e+01 -2.9521998451714548e-02 -5.6446464966211973e-01 +5.6878356808961047e-03
