# field on trajectory
# s[mm] rx[mm] ry[mm] rz[mm] bx[T] by[T] bz[T]
-0.0000000000000000e+00 +8.1530000000000005e+00 +0.0000000000000000e+00 -0.0000000000000000e+00 -2.8830568979557918e-02 -5.3678989563067780e-01 +5.3396835713852269e-03
-1.0000000000000001e-01 +8.1529997163961507e+00 +0.0000000000000000e+00 -9.9999999999463796e-02 -2.8830556515617410e-02 -5.3678997744804724e-01 +5.3396543785252304e-03
-2.0000000000000001e-01 +8.1529988655856904e+00 +0.0000000000000000e+00 -1.9999999999571000e-01 -2.8830542076266445e-02 -5.3679005919279399e-01 +5.3396276023698489e-03
-2.9999999999999999e-01 +8.1529974475670297e+00 +0.0000000000000000e+00 -2.9999999998552201e-01 -2.8830525811749611e-02 -5.3679014173128869e-01 +5.3396031561820916e-03
-4.0000000000000002e-01 +8.1529954623438208e+00 +0.0000000000000000e+00 -3.9999999996568297e-01 -2.8830507872301046e-02 -5.3679022592985903e-01 +5.3395809532259314e-03
-5.0000000000000000e-01 +8.1529929099124292e+00 +0.0000000000000000e+00 -4.9999999993297400e-01 -2.8830488408150105e-02 -5.3679031265488164e-01 +5.3395609067673046e-03
-5.9999999999999998e-01 +8.1529897902728408e+00 +0.0000000000000000e+00 -5.9999999988417896e-01 -2.8830467569518257e-02 -5.3679040277270362e-01 +5.3395429300733821e-03
-6.9999999999999996e-01 +8.1529861034287006e+00 +0.0000000000000000e+00 -6.9999999981608096e-01 -2.8830445506619853e-02 -5.3679049714964111e-01 +5.3395269364126304e-03
-8.0000000000000004e-01 +8.1529818493763706e+00 +0.0000000000000000e+00 -7.9999999972546199e-01 -2.8830422369667465e-02 -5.3679059665206230e-01 +5.3395128390557193e-03
-9.0000000000000002e-01 +8.1529770281158598e+00 +0.0000000000000000e+00 -8.9999999960910604e-01 -2.8830398308868521e-02 -5.3679070214630709e-01 +5.3395005512747616e-03
-1.0000000000000000e+00 +8.1529716396507901e+00 +0.0000000000000000e+00 -9.9999999946379403e-01 -2.8830373474426279e-02 -5.3679081449868626e-01 +5.3394899863433943e-03
-1.1000000000000001e+00 +8.1529656839775306e+00 +0.0000000000000000e+00 -1.0999999992863101e+00 -2.8830348016545024e-02 -5.3679093457556382e-01 +5.3394810575376770e-03
-1.2000000000000000e+00 +8.1529591610960797e+00 +0.0000000000000000e+00 -1.1999999990734400e+00 -2.8830322085426744e-02 -5.3679106324327741e-01 +5.3394736781353430e-03
-1.3000000000000000e+00 +8.1529520710100805e+00 +0.0000000000000000e+00 -1.2999999988219599e+00 -2.8830295831272154e-02 -5.3679120136813785e-01 +5.3394677614158718e-03
-1.3999999999999999e+00 +8.1529444137122500e+00 +0.0000000000000000e+00 -1.3999999985286500e+00 -2.8830269404287234e-02 -5.3679134981653776e-01 +5.3394632206616556e-03
-1.5000000000000000e+00 +8.1529361892135093e+00 +0.0000000000000000e+00 -1.4999999981903001e+00 -2.8830242954672940e-02 -5.3679150945473686e-01 +5.3394599691559018e-03
-1.6000000000000001e+00 +8.1529273975065699e+00 +0.0000000000000000e+00 -1.5999999978037001e+00 -2.8830216632640217e-02 -5.3679168114913234e-01 +5.3394579201854137e-03
-1.7000000000000000e+00 +8.1529180385914497e+00 +0.0000000000000000e+00 -1.6999999973656199e+00 -2.8830190588401094e-02 -5.3679186576606874e-01 +5.3394569870387765e-03
-1.8000000000000000e+00 +8.1529081124681397e+00 +0.0000000000000000e+00 -1.7999999968728499e+00 -2.8830164972172480e-02 -5.3679206417189540e-01 +5.3394570830069621e-03
-1.8999999999999999e+00 +8.1528976191402798e+00 +0.0000000000000000e+00 -1.8999999963221601e+00 -2.8830139934175679e-02 -5.3679227723293854e-01 +5.3394581213831501e-03
-2.0000000000000000e+00 +8.1528865586042194e+00 +0.0000000000000000e+00 -1.9999999957103500e+00 -2.8830115624641609e-02 -5.3679250581558258e-01 +5.3394600154635964e-03
-2.1000000000000001e+00 +8.1528749308599799e+00 +0.0000000000000000e+00 -2.0999999950341901e+00 -2.8830092181601038e-02 -5.3679275049648267e-01 +5.3394627005440339e-03
-2.2000000000000002e+00 +8.1528627359111905e+00 +0.0000000000000000e+00 -2.1999999942904802e+00 -2.8830069694264673e-02 -5.3679301069344443e-01 +5.3394661999094347e-03
-2.2999999999999998e+00 +8.1528499737542006e+00 +0.0000000000000000e+00 -2.2999999934759798e+00 -2.8830048239644364e-02 -5.3679328553462036e-01 +5.3394705588402057e-03
-2.3999999999999999e+00 +8.1528366443890299e+00 +0.0000000000000000e+00 -2.3999999925874800e+00 -2.8830027894755292e-02 -5.3679357414813811e-01 +5.3394758226133253e-03
-2.5000000000000000e+00 +8.1528227478193003e+00 +0.0000000000000000e+00 -2.4999999916217801e+00 -2.8830008736616373e-02 -5.3679387566209935e-01 +5.3394820365018211e-03
-2.6000000000000001e+00 +8.1528082840413791e+00 +0.0000000000000000e+00 -2.5999999905756401e+00 -2.8829990842254842e-02 -5.3679418920466049e-01 +5.3394892457750446e-03
-2.7000000000000002e+00 +8.1527932530552807e+00 +0.0000000000000000e+00 -2.6999999894458502e+00 -2.8829974288702338e-02 -5.3679451390395239e-01 +5.3394974956973368e-03
-2.7999999999999998e+00 +8.1527776548646198e+00 +0.0000000000000000e+00 -2.7999999882291999e+00 -2.8829959152995372e-02 -5.3679484888808038e-01 +5.3395068315275143e-03
-2.8999999999999999e+00 +8.1527614894657692e+00 +0.0000000000000000e+00 -2.8999999869224702e+00 -2.8829945512179846e-02 -5.3679519328520464e-01 +5.3395172985191428e-03
-3.0000000000000000e+00 +8.1527447568587394e+00 +0.0000000000000000e+00 -2.9999999855224302e+00 -2.8829933443307237e-02 -5.3679554622345915e-01 +5.3395289419192003e-03
-3.1000000000000001e+00 +8.1527274570471508e+00 +0.0000000000000000e+00 -3.0999999840258798e+00 -2.8829923023434963e-02 -5.3679590683095324e-01 +5.3395418069675602e-03
-3.2000000000000002e+00 +8.1527095900273707e+00 +0.0000000000000000e+00 -3.1999999824295902e+00 -2.8829914329630956e-02 -5.3679627423585030e-01 +5.3395559388972683e-03
-3.2999999999999998e+00 +8.1526911557994008e+00 +0.0000000000000000e+00 -3.2999999807303602e+00 -2.8829907438969831e-02 -5.3679664756628831e-01 +5.3395713829332073e-03
-3.3999999999999999e+00 +8.1526721543668792e+00 +0.0000000000000000e+00 -3.3999999789249502e+00 -2.8829902428533258e-02 -5.3679702595038004e-01 +5.3395881842915804e-03
-3.5000000000000000e+00 +8.1526525857261696e+00 +0.0000000000000000e+00 -3.4999999770101602e+00 -2.8829899375414553e-02 -5.3679740851629265e-01 +5.3396063881801792e-03
-3.6000000000000001e+00 +8.1526324498772702e+00 +0.0000000000000000e+00 -3.5999999749827598e+00 -2.8829898356714807e-02 -5.3679779439216802e-01 +5.3396260397970685e-03
-3.7000000000000002e+00 +8.1526117468238208e+00 +0.0000000000000000e+00 -3.6999999728395401e+00 -2.8829899449543277e-02 -5.3679818270612256e-01 +5.3396471843300368e-03
-3.7999999999999998e+00 +8.1525904765621799e+00 +0.0000000000000000e+00 -3.7999999705772902e+00 -2.8829902731021984e-02 -5.3679857258632746e-01 +5.3396698669569047e-03
-3.8999999999999999e+00 +8.1525686390959908e+00 +0.0000000000000000e+00 -3.8999999681927799e+00 -2.8829908278280435e-02 -5.3679896316090092e-01 +5.3396941328438989e-03
-4.0000000000000000e+00 +8.1525462344179704e+00 +0.0000000000000000e+00 -3.9999999656827998e+00 -2.8829916168463060e-02 -5.3679935355804398e-01 +5.3397200271464952e-03
-4.0999999999999996e+00 +8.1525232625354001e+00 +0.0000000000000000e+00 -4.0999999630441302e+00 -2.8829926389116727e-02 -5.3679974314276635e-01 +5.3397475664778756e-03
-4.2000000000000002e+00 +8.1524997234482708e+00 +0.0000000000000000e+00 -4.1999999602735496e+00 -2.8829938569380129e-02 -5.3680013222779999e-01 +5.3397766533273125e-03
-4.2999999999999998e+00 +8.1524756171529607e+00 +0.0000000000000000e+00 -4.2999999573678496e+00 -2.8829952248773470e-02 -5.3680052136283796e-01 +5.3398071616554063e-03
-4.4000000000000004e+00 +8.1524509436494608e+00 +0.0000000000000000e+00 -4.3999999543238104e+00 -2.8829966966794931e-02 -5.3680091109756900e-01 +5.3398389654241577e-03
-4.5000000000000000e+00 +8.1524257029377605e+00 +0.0000000000000000e+00 -4.4999999511382098e+00 -2.8829982262920613e-02 -5.3680130198170484e-01 +5.3398719385975768e-03
-4.5999999999999996e+00 +8.1523998950215208e+00 +0.0000000000000000e+00 -4.5999999478078299e+00 -2.8829997676601646e-02 -5.3680169456495408e-01 +5.3399059551417173e-03
-4.7000000000000002e+00 +8.1523735198970808e+00 +0.0000000000000000e+00 -4.6999999443294600e+00 -2.8830012747267073e-02 -5.3680208939710516e-01 +5.3399408890258630e-03
-4.7999999999999998e+00 +8.1523465775644599e+00 +0.0000000000000000e+00 -4.7999999406998803e+00 -2.8830027014318048e-02 -5.3680248702794575e-01 +5.3399766142219855e-03
-4.9000000000000004e+00 +8.1523190680272801e+00 +0.0000000000000000e+00 -4.8999999369158704e+00 -2.8830040017126447e-02 -5.3680288800726428e-01 +5.3400130047051193e-03
-5.0000000000000000e+00 +8.1522909912819195e+00 +0.0000000000000000e+00 -4.9999999329742204e+00 -2.8830051295037663e-02 -5.3680329288493200e-01 +5.3400499344544725e-03
-5.0999999999999996e+00 +8.1522623473319999e+00 +0.0000000000000000e+00 -5.0999999288717000e+00 -2.8830060387363451e-02 -5.3680370221079643e-01 +5.3400872774526844e-03
-5.2000000000000002e+00 +8.1522331361738907e+00 +0.0000000000000000e+00 -5.1999999246051098e+00 -2.8830066833386164e-02 -5.3680411653478932e-01 +5.3401249076872326e-03
-5.2999999999999998e+00 +8.1522033578075899e+00 +0.0000000000000000e+00 -5.2999999201712198e+00 -2.8830070172353100e-02 -5.3680453640684878e-01 +5.3401626991499505e-03
-5.4000000000000004e+00 +8.1521730122331100e+00 +0.0000000000000000e+00 -5.3999999155668199e+00 -2.8830069943476352e-02 -5.3680496237694519e-01 +5.3402005258376215e-03
-5.5000000000000000e+00 +8.1521420994540694e+00 +0.0000000000000000e+00 -5.4999999107886799e+00 -2.8830065685930068e-02 -5.3680539499505819e-01 +5.3402382617520365e-03
-5.5999999999999996e+00 +8.1521106194668391e+00 +0.0000000000000000e+00 -5.5999999058335996e+00 -2.8830056938853182e-02 -5.3680583481125521e-01 +5.3402757809011383e-03
-5.7000000000000002e+00 +8.1520785722750606e+00 +0.0000000000000000e+00 -5.6999999006983604e+00 -2.8830043241342279e-02 -5.3680628237558814e-01 +5.3403129572982657e-03
-5.7999999999999998e+00 +8.1520459578750906e+00 +0.0000000000000000e+00 -5.7999998953797300e+00 -2.8830024132455861e-02 -5.3680673823820002e-01 +5.3403496649635602e-03
-5.9000000000000004e+00 +8.1520127762669308e+00 +0.0000000000000000e+00 -5.8999998898744996e+00 -2.8829999151208610e-02 -5.3680720294924633e-01 +5.3403857779234874e-03
-5.9999999999999902e+00 +8.1519790274505795e+00 +0.0000000000000000e+00 -5.9999998841794504e+00 -2.8829967836571376e-02 -5.3680767705892252e-01 +5.3404211702114297e-03
-6.0999999999999899e+00 +8.1519447114296799e+00 +0.0000000000000000e+00 -6.0999998782913698e+00 -2.8829929938576051e-02 -5.3680816094979866e-01 +5.3404557378952510e-03
-6.1999999999999904e+00 +8.1519098282005906e+00 +0.0000000000000000e+00 -6.1999998722070400e+00 -2.8829886051669876e-02 -5.3680865433395142e-01 +5.3404894651615711e-03
-6.2999999999999901e+00 +8.1518743777669407e+00 +0.0000000000000000e+00 -6.2999998659232403e+00 -2.8829836981428908e-02 -5.3680915675573759e-01 +5.3405223582328439e-03
-6.3999999999999897e+00 +8.1518383601214701e+00 +0.0000000000000000e+00 -6.3999998594367504e+00 -2.8829783533463625e-02 -5.3680966775956018e-01 +5.3405544233414938e-03
-6.4999999999999902e+00 +8.1518017752750893e+00 +0.0000000000000000e+00 -6.4999998527443603e+00 -2.8829726513409270e-02 -5.3681018688965454e-01 +5.3405856667281017e-03
-6.5999999999999899e+00 +8.1517646232205205e+00 +0.0000000000000000e+00 -6.5999998458428504e+00 -2.8829666726941545e-02 -5.3681071369035271e-01 +5.3406160946444922e-03
-6.6999999999999904e+00 +8.1517269039541098e+00 +0.0000000000000000e+00 -6.6999998387290001e+00 -2.8829604979769791e-02 -5.3681124770592203e-01 +5.3406457133524567e-03
-6.7999999999999901e+00 +8.1516886174867995e+00 +0.0000000000000000e+00 -6.7999998313996004e+00 -2.8829542077634360e-02 -5.3681178848048106e-01 +5.3406745291233087e-03
-6.8999999999999897e+00 +8.1516497638112906e+00 +0.0000000000000000e+00 -6.8999998238514202e+00 -2.8829478826320948e-02 -5.3681233555824148e-01 +5.3407025482406865e-03
-6.9999999999999902e+00 +8.1516103429239593e+00 +0.0000000000000000e+00 -6.9999998160812602e+00 -2.8829416031653739e-02 -5.3681288848334374e-01 +5.3407297769992972e-03
-7.0999999999999899e+00 +8.1515703548320708e+00 +0.0000000000000000e+00 -7.0999998080858804e+00 -2.8829354499494211e-02 -5.3681344679980136e-01 +5.3407562217047243e-03
-7.1999999999999904e+00 +8.1515297995356395e+00 +0.0000000000000000e+00 -7.1999997998620904e+00 -2.8829295035749811e-02 -5.3681401005163465e-01 +5.3407818886751545e-03
-7.2999999999999901e+00 +8.1514886770310095e+00 +0.0000000000000000e+00 -7.2999997914066501e+00 -2.8829238446374132e-02 -5.3681457778284070e-01 +5.3408067842414652e-03
-7.3999999999999897e+00 +8.1514469873182005e+00 +0.0000000000000000e+00 -7.3999997827163604e+00 -2.8829185537365767e-02 -5.3681514953733800e-01 +5.3408309147470589e-03
-7.4999999999999902e+00 +8.1514047304008308e+00 +0.0000000000000000e+00 -7.4999997737879900e+00 -2.8829137114769920e-02 -5.3681572485896623e-01 +5.3408542865482113e-03
-7.5999999999999899e+00 +8.1513619062752696e+00 +0.0000000000000000e+00 -7.5999997646183202e+00 -2.8829093984684178e-02 -5.3681630329156227e-01 +5.3408769060152468e-03
-7.6999999999999904e+00 +8.1513185149451601e+00 +0.0000000000000000e+00 -7.6999997552041499e+00 -2.8829056953254602e-02 -5.3681688437885333e-01 +5.3408987795318299e-03
-7.7999999999999901e+00 +8.1512745564032194e+00 +0.0000000000000000e+00 -7.7999997455422498e+00 -2.8829026826684329e-02 -5.3681746766458793e-01 +5.3409199134966797e-03
-7.8999999999999897e+00 +8.1512300306567305e+00 +0.0000000000000000e+00 -7.8999997356294100e+00 -2.8829004411225330e-02 -5.3681805269234684e-01 +5.3409403143220300e-03
-7.9999999999999902e+00 +8.1511849377056897e+00 +0.0000000000000000e+00 -7.9999997254624002e+00 -2.8828990513188536e-02 -5.3681863900570204e-01 +5.3409599884356208e-03
-8.0999999999999908e+00 +8.1511392775464593e+00 +0.0000000000000000e+00 -8.0999997150380096e+00 -2.8828985677876336e-02 -5.3681922620930522e-01 +5.3409789677826601e-03
-8.1999999999999904e+00 +8.1510930501790408e+00 +0.0000000000000000e+00 -8.1999997043530293e+00 -2.8828989406342619e-02 -5.3681981415221180e-01 +5.3409973863230830e-03
-8.2999999999999901e+00 +8.1510462556034309e+00 +0.0000000000000000e+00 -8.2999996934042404e+00 -2.8829000938554110e-02 -5.3682040274458831e-01 +5.3410154035101014e-03
-8.3999999999999897e+00 +8.1509988938232691e+00 +0.0000000000000000e+00 -8.3999996821884100e+00 -2.8829019514453325e-02 -5.3682099189657506e-01 +5.3410331787849957e-03
-8.4999999999999893e+00 +8.1509509648349194e+00 +0.0000000000000000e+00 -8.4999996707023406e+00 -2.8829044373961905e-02 -5.3682158151836623e-01 +5.3410508715774551e-03
-8.5999999999999908e+00 +8.1509024686420197e+00 +0.0000000000000000e+00 -8.5999996589427994e+00 -2.8829074756974094e-02 -5.3682217152010170e-01 +5.3410686413040273e-03
-8.6999999999999904e+00 +8.1508534052409196e+00 +0.0000000000000000e+00 -8.6999996469065692e+00 -2.8829109903361426e-02 -5.3682276181197619e-01 +5.3410866473687446e-03
-8.7999999999999794e+00 +8.1508037746316404e+00 +0.0000000000000000e+00 -8.7999996345904599e+00 -2.8829149052967698e-02 -5.3682335230415734e-01 +5.3411050491618418e-03
-8.8999999999999808e+00 +8.1507535768178094e+00 +0.0000000000000000e+00 -8.8999996219912205e+00 -2.8829191445608020e-02 -5.3682394290678803e-01 +5.3411240060592955e-03
-8.9999999999999805e+00 +8.1507028117957798e+00 +0.0000000000000000e+00 -8.9999996091056396e+00 -2.8829236321072135e-02 -5.3682453353006432e-01 +5.3411436774231692e-03
-9.0999999999999801e+00 +8.1506514795655693e+00 +0.0000000000000000e+00 -9.0999995959305195e+00 -2.8829282919119365e-02 -5.3682512408415739e-01 +5.3411642226003364e-03
-9.1999999999999797e+00 +8.1505995801308000e+00 +0.0000000000000000e+00 -9.1999995824626293e+00 -2.8829330479477659e-02 -5.3682571447921368e-01 +5.3411858009220128e-03
-9.2999999999999794e+00 +8.1505471134878498e+00 +0.0000000000000000e+00 -9.2999995686987500e+00 -2.8829378241846938e-02 -5.3682630462543302e-01 +5.3412085717041121e-03
-9.3999999999999808e+00 +8.1504940796366991e+00 +0.0000000000000000e+00 -9.3999995546356701e+00 -2.8829425445894025e-02 -5.3682689443299225e-01 +5.3412326942459606e-03
-9.4999999999999805e+00 +8.1504404785773694e+00 +0.0000000000000000e+00 -9.4999995402701707e+00 -2.8829471331253052e-02 -5.3682748381206813e-01 +5.3412583278301031e-03
-9.5999999999999801e+00 +8.1503863103171206e+00 +0.0000000000000000e+00 -9.5999995255990296e+00 -2.8829515137521914e-02 -5.3682807267278820e-01 +5.3412856317212971e-03
-9.6999999999999797e+00 +8.1503315748450404e+00 +0.0000000000000000e+00 -9.6999995106190298e+00 -2.8829556104271046e-02 -5.3682866092541481e-01 +5.3413147651679496e-03
-9.7999999999999794e+00 +8.1502762721684103e+00 +0.0000000000000000e+00 -9.7999994953269702e+00 -2.8829593471028619e-02 -5.3682924848007951e-01 +5.3413458873989329e-03
-9.8999999999999808e+00 +8.1502204022835905e+00 +0.0000000000000000e+00 -9.8999994797196091e+00 -2.8829626477290791e-02 -5.3682983524699690e-01 +5.3413791576252855e-03
-9.9999999999999805e+00 +8.1501639651905897e+00 +0.0000000000000000e+00 -9.9999994637937508e+00 -2.8829654362515250e-02 -5.3683042113635782e-01 +5.3414147350386767e-03
-1.0100000000000000e+01 +8.1501069608966592e+00 +0.0000000000000000e+00 -1.0099999447546200e+01 -2.8829676620099668e-02 -5.3683100611273171e-01 +5.3414527167999545e-03
-1.0199999999999999e+01 +8.1500493893909205e+00 +0.0000000000000000e+00 -1.0199999430973600e+01 -2.8829693759377783e-02 -5.3683159035854788e-01 +5.3414929520122856e-03
-1.0300000000000001e+01 +8.1499912506769796e+00 +0.0000000000000000e+00 -1.0299999414073000e+01 -2.8829706543706392e-02 -5.3683217411057937e-01 +5.3415352277662101e-03
-1.0400000000000000e+01 +8.1499325447584905e+00 +0.0000000000000000e+00 -1.0399999396840901e+01 -2.8829715736490208e-02 -5.3683275760561955e-01 +5.3415793311554468e-03
-1.0500000000000000e+01 +8.1498732716317992e+00 +0.0000000000000000e+00 -1.0499999379274200e+01 -2.8829722101185912e-02 -5.3683334108053749e-01 +5.3416250492775473e-03
-1.0600000000000000e+01 +8.1498134313005703e+00 +0.0000000000000000e+00 -1.0599999361369800e+01 -2.8829726401297742e-02 -5.3683392477217073e-01 +5.3416721692329285e-03
-1.0699999999999999e+01 +8.1497530237611500e+00 +0.0000000000000000e+00 -1.0699999343124301e+01 -2.8829729400384311e-02 -5.3683450891743423e-01 +5.3417204781260608e-03
-1.0800000000000001e+01 +8.1496920490171796e+00 +0.0000000000000000e+00 -1.0799999324534600e+01 -2.8829731862054189e-02 -5.3683509375321203e-01 +5.3417697630644967e-03
-1.0900000000000000e+01 +8.1496305070650106e+00 +0.0000000000000000e+00 -1.0899999305597399e+01 -2.8829734549972796e-02 -5.3683567951646660e-01 +5.3418198111600855e-03
-1.1000000000000000e+01 +8.1495683979046607e+00 +0.0000000000000000e+00 -1.0999999286309500e+01 -2.8829738227859281e-02 -5.3683626644415827e-01 +5.3418704095282415e-03
-1.1100000000000000e+01 +8.1495057215361193e+00 +0.0000000000000000e+00 -1.1099999266667700e+01 -2.8829743659489229e-02 -5.3683685477327248e-01 +5.3419213452883538e-03
-1.1199999999999999e+01 +8.1494424779630208e+00 +0.0000000000000000e+00 -1.1199999246668799e+01 -2.8829751608694446e-02 -5.3683744474079487e-01 +5.3419724055636100e-03
-1.1300000000000001e+01 +8.1493786671817396e+00 +0.0000000000000000e+00 -1.1299999226309600e+01 -2.8829762839368334e-02 -5.3683803658378981e-01 +5.3420233774819350e-03
-1.1400000000000000e+01 +8.1493142891922599e+00 +0.0000000000000000e+00 -1.1399999205586900e+01 -2.8829778115462938e-02 -5.3683863053932368e-01 +5.3420740481752828e-03
-1.1500000000000000e+01 +8.1492493440018698e+00 +0.0000000000000000e+00 -1.1499999184497300e+01 -2.8829798200988715e-02 -5.3683922684443608e-01 +5.3421242047794774e-03
-1.1600000000000000e+01 +8.1491838315996592e+00 +0.0000000000000000e+00 -1.1599999163037801e+01 -2.8829823860025583e-02 -5.3683982573632927e-01 +5.3421736344362314e-03
-1.1699999999999999e+01 +8.1491177519928897e+00 +0.0000000000000000e+00 -1.1699999141205099e+01 -2.8829855856710065e-02 -5.3684042745210125e-01 +5.3422221242905360e-03
