# trajectory
# s[mm] rx[mm] ry[mm] rz[mm] px[rad] py[rad] pz[rad]
0.0000000000000000e+00 +8.1649999999999991e+00 +0.0000000000000000e+00 +0.0000000000000000e+00 +0.0000000000000000e+00 +0.0000000000000000e+00 +1.0000000000000000e+00
1.0000000000000001e-01 +8.1649997168708790e+00 +0.0000000000000000e+00 +9.9999999999465586e-02 -5.6625816841142358e-06 +0.0000000000000000e+00 +9.9999999998396760e-01
2.0000000000000001e-01 +8.1649988674838063e+00 +0.0000000000000000e+00 +1.9999999999572471e-01 -1.1325159066875778e-05 +0.0000000000000000e+00 +9.9999999993587041e-01
3.0000000000000004e-01 +8.1649974518392039e+00 +0.0000000000000000e+00 +2.9999999998557086e-01 -1.6987732319149300e-05 +0.0000000000000000e+00 +9.9999999985570853e-01
4.0000000000000002e-01 +8.1649954699374749e+00 +0.0000000000000000e+00 +3.9999999996579760e-01 -2.2650301604857681e-05 +0.0000000000000000e+00 +9.9999999974348197e-01
5.0000000000000000e-01 +8.1649929217790103e+00 +0.0000000000000000e+00 +4.9999999993319844e-01 -2.8312867080981989e-05 +0.0000000000000000e+00 +9.9999999959919084e-01
5.9999999999999998e-01 +8.1649898073641811e+00 +0.0000000000000000e+00 +5.9999999988456698e-01 -3.3975428897561475e-05 +0.0000000000000000e+00 +9.9999999942283513e-01
6.9999999999999996e-01 +8.1649861266933481e+00 +0.0000000000000000e+00 +6.9999999981669669e-01 -3.9637987197693580e-05 +0.0000000000000000e+00 +9.9999999921441496e-01
7.9999999999999993e-01 +8.1649818797668541e+00 +0.0000000000000000e+00 +7.9999999972638114e-01 -4.5300542117533959e-05 +0.0000000000000000e+00 +9.9999999897393044e-01
8.9999999999999991e-01 +8.1649770665850330e+00 +0.0000000000000000e+00 +8.9999999961041399e-01 -5.0963093786296498e-05 +0.0000000000000000e+00 +9.9999999870138156e-01
9.9999999999999989e-01 +8.1649716871482010e+00 +0.0000000000000000e+00 +9.9999999946558871e-01 -5.6625642326253351e-05 +0.0000000000000000e+00 +9.9999999839676834e-01
1.0999999999999999e+00 +8.1649657414566672e+00 +0.0000000000000000e+00 +1.0999999992886988e+00 -6.2288187852734979e-05 +0.0000000000000000e+00 +9.9999999806009088e-01
1.2000000000000000e+00 +8.1649592295107265e+00 +0.0000000000000000e+00 +1.1999999990765380e+00 -6.7950730474130225e-05 +0.0000000000000000e+00 +9.9999999769134917e-01
1.3000000000000000e+00 +8.1649521513106649e+00 +0.0000000000000000e+00 +1.2999999988258999e+00 -7.3613270291886381e-05 +0.0000000000000000e+00 +9.9999999729054323e-01
1.4000000000000001e+00 +8.1649445068567577e+00 +0.0000000000000000e+00 +1.3999999985335778e+00 -7.9275807400509246e-05 +0.0000000000000000e+00 +9.9999999685767316e-01
1.5000000000000002e+00 +8.1649362961492713e+00 +0.0000000000000000e+00 +1.4999999981963656e+00 -8.4938341887563228e-05 +0.0000000000000000e+00 +9.9999999639273907e-01
1.6000000000000003e+00 +8.1649275191884652e+00 +0.0000000000000000e+00 +1.5999999978110568e+00 -9.0600873833671431e-05 +0.0000000000000000e+00 +9.9999999589574085e-01
1.7000000000000004e+00 +8.1649181759745879e+00 +0.0000000000000000e+00 +1.6999999973744451e+00 -9.6263403312515786e-05 +0.0000000000000000e+00 +9.9999999536667861e-01
1.8000000000000005e+00 +8.1649082665078829e+00 +0.0000000000000000e+00 +1.7999999968833238e+00 -1.0192593039083715e-04 +0.0000000000000000e+00 +9.9999999480555235e-01
1.9000000000000006e+00 +8.1648977907885882e+00 +0.0000000000000000e+00 +1.8999999963344867e+00 -1.0758845512843546e-04 +0.0000000000000000e+00 +9.9999999421236219e-01
2.0000000000000004e+00 +8.1648867488169348e+00 +0.0000000000000000e+00 +1.9999999957247274e+00 -1.1325097757816982e-04 +0.0000000000000000e+00 +9.9999999358710800e-01
2.1000000000000005e+00 +8.1648751405931481e+00 +0.0000000000000000e+00 +2.0999999950508395e+00 -1.1891349778605350e-04 +0.0000000000000000e+00 +9.9999999292979003e-01
2.2000000000000006e+00 +8.1648629661174503e+00 +0.0000000000000000e+00 +2.1999999943096165e+00 -1.2457601579229661e-04 +0.0000000000000000e+00 +9.9999999224040814e-01
2.3000000000000007e+00 +8.1648502253900617e+00 +0.0000000000000000e+00 +2.2999999934978521e+00 -1.3023853163234882e-04 +0.0000000000000000e+00 +9.9999999151896246e-01
2.4000000000000008e+00 +8.1648369184111953e+00 +0.0000000000000000e+00 +2.3999999926123401e+00 -1.3590104533699426e-04 +0.0000000000000000e+00 +9.9999999076545298e-01
2.5000000000000009e+00 +8.1648230451810644e+00 +0.0000000000000000e+00 +2.4999999916498741e+00 -1.4156355693235168e-04 +0.0000000000000000e+00 +9.9999998997987971e-01
2.6000000000000010e+00 +8.1648086056998785e+00 +0.0000000000000000e+00 +2.5999999906072473e+00 -1.4722606643987457e-04 +0.0000000000000000e+00 +9.9999998916224275e-01
2.7000000000000011e+00 +8.1647935999678456e+00 +0.0000000000000000e+00 +2.6999999894812539e+00 -1.5288857387635131e-04 +0.0000000000000000e+00 +9.9999998831254200e-01
2.8000000000000012e+00 +8.1647780279851716e+00 +0.0000000000000000e+00 +2.7999999882686870e+00 -1.5855107925390530e-04 +0.0000000000000000e+00 +9.9999998743077767e-01
2.9000000000000012e+00 +8.1647618897520626e+00 +0.0000000000000000e+00 +2.8999999869663404e+00 -1.6421358257999514e-04 +0.0000000000000000e+00 +9.9999998651694966e-01
3.0000000000000013e+00 +8.1647451852687229e+00 +0.0000000000000000e+00 +2.9999999855710082e+00 -1.6987608385741481e-04 +0.0000000000000000e+00 +9.9999998557105807e-01
3.1000000000000014e+00 +8.1647279145353586e+00 +0.0000000000000000e+00 +3.0999999840794836e+00 -1.7553858308429372e-04 +0.0000000000000000e+00 +9.9999998459310291e-01
3.2000000000000015e+00 +8.1647100775521739e+00 +0.0000000000000000e+00 +3.1999999824885603e+00 -1.8120108025409704e-04 +0.0000000000000000e+00 +9.9999998358308417e-01
3.3000000000000016e+00 +8.1646916743193767e+00 +0.0000000000000000e+00 +3.2999999807950320e+00 -1.8686357535562575e-04 +0.0000000000000000e+00 +9.9999998254100197e-01
3.4000000000000017e+00 +8.1646727048371730e+00 +0.0000000000000000e+00 +3.3999999789956923e+00 -1.9252606837301685e-04 +0.0000000000000000e+00 +9.9999998146685631e-01
3.5000000000000018e+00 +8.1646531691057724e+00 +0.0000000000000000e+00 +3.4999999770873345e+00 -1.9818855928574358e-04 +0.0000000000000000e+00 +9.9999998036064730e-01
3.6000000000000019e+00 +8.1646330671253864e+00 +0.0000000000000000e+00 +3.5999999750667526e+00 -2.0385104806861556e-04 +0.0000000000000000e+00 +9.9999997922237494e-01
3.7000000000000020e+00 +8.1646123988962298e+00 +0.0000000000000000e+00 +3.6999999729307405e+00 -2.0951353469177898e-04 +0.0000000000000000e+00 +9.9999997805203922e-01
3.8000000000000020e+00 +8.1645911644185212e+00 +0.0000000000000000e+00 +3.7999999706760916e+00 -2.1517601912071689e-04 +0.0000000000000000e+00 +9.9999997684964015e-01
3.9000000000000021e+00 +8.1645693636924808e+00 +0.0000000000000000e+00 +3.8999999682995998e+00 -2.2083850131624926e-04 +0.0000000000000000e+00 +9.9999997561517784e-01
4.0000000000000018e+00 +8.1645469967183342e+00 +0.0000000000000000e+00 +3.9999999657980587e+00 -2.2650098123453327e-04 +0.0000000000000000e+00 +9.9999997434865240e-01
4.1000000000000014e+00 +8.1645240634963123e+00 +0.0000000000000000e+00 +4.0999999631682620e+00 -2.3216345882754285e-04 +0.0000000000000000e+00 +9.9999997305006383e-01
4.2000000000000011e+00 +8.1645005640266479e+00 +0.0000000000000000e+00 +4.1999999604070029e+00 -2.3782593404834097e-04 +0.0000000000000000e+00 +9.9999997171941213e-01
4.3000000000000007e+00 +8.1644764983095826e+00 +0.0000000000000000e+00 +4.2999999575110754e+00 -2.4348840685635203e-04 +0.0000000000000000e+00 +9.9999997035669741e-01
4.4000000000000004e+00 +8.1644518663453578e+00 +0.0000000000000000e+00 +4.3999999544772734e+00 -2.4915087721784086e-04 +0.0000000000000000e+00 +9.9999996896191967e-01
4.5000000000000000e+00 +8.1644266681342206e+00 +0.0000000000000000e+00 +4.4999999513023905e+00 -2.5481334510591249e-04 +0.0000000000000000e+00 +9.9999996753507903e-01
4.5999999999999996e+00 +8.1644009036764196e+00 +0.0000000000000000e+00 +4.5999999479832203e+00 -2.6047581050051211e-04 +0.0000000000000000e+00 +9.9999996607617547e-01
4.6999999999999993e+00 +8.1643745729722035e+00 +0.0000000000000000e+00 +4.6999999445165566e+00 -2.6613827338842471e-04 +0.0000000000000000e+00 +9.9999996458520912e-01
4.7999999999999989e+00 +8.1643476760218245e+00 +0.0000000000000000e+00 +4.7999999408991929e+00 -2.7180073376327485e-04 +0.0000000000000000e+00 +9.9999996306217986e-01
4.8999999999999986e+00 +8.1643202128255350e+00 +0.0000000000000000e+00 +4.8999999371279230e+00 -2.7746319162552641e-04 +0.0000000000000000e+00 +9.9999996150708792e-01
4.9999999999999982e+00 +8.1642921833835835e+00 +0.0000000000000000e+00 +4.9999999331995415e+00 -2.8312564698248230e-04 +0.0000000000000000e+00 +9.9999995991993318e-01
5.0999999999999979e+00 +8.1642635876962206e+00 +0.0000000000000000e+00 +5.0999999291108411e+00 -2.8878809984828421e-04 +0.0000000000000000e+00 +9.9999995830071575e-01
5.1999999999999975e+00 +8.1642344257636950e+00 +0.0000000000000000e+00 +5.1999999248586155e+00 -2.9445055024391220e-04 +0.0000000000000000e+00 +9.9999995664943575e-01
5.2999999999999972e+00 +8.1642046975862534e+00 +0.0000000000000000e+00 +5.2999999204396593e+00 -3.0011299819718442e-04 +0.0000000000000000e+00 +9.9999995496609306e-01
5.3999999999999968e+00 +8.1641744031641359e+00 +0.0000000000000000e+00 +5.3999999158507652e+00 -3.0577544374275678e-04 +0.0000000000000000e+00 +9.9999995325068780e-01
5.4999999999999964e+00 +8.1641435424975839e+00 +0.0000000000000000e+00 +5.4999999110887279e+00 -3.1143788692212252e-04 +0.0000000000000000e+00 +9.9999995150321996e-01
5.5999999999999961e+00 +8.1641121155868301e+00 +0.0000000000000000e+00 +5.5999999061503409e+00 -3.1710032778361184e-04 +0.0000000000000000e+00 +9.9999994972368966e-01
5.6999999999999957e+00 +8.1640801224321038e+00 +0.0000000000000000e+00 +5.6999999010323972e+00 -3.2276276638239156e-04 +0.0000000000000000e+00 +9.9999994791209679e-01
5.7999999999999954e+00 +8.1640475630336269e+00 +0.0000000000000000e+00 +5.7999998957316912e+00 -3.2842520278046449e-04 +0.0000000000000000e+00 +9.9999994606844145e-01
5.8999999999999950e+00 +8.1640144373916179e+00 +0.0000000000000000e+00 +5.8999998902450166e+00 -3.3408763704666927e-04 +0.0000000000000000e+00 +9.9999994419272364e-01
5.9999999999999947e+00 +8.1639807455062865e+00 +0.0000000000000000e+00 +5.9999998845691671e+00 -3.3975006925667970e-04 +0.0000000000000000e+00 +9.9999994228494338e-01
6.0999999999999943e+00 +8.1639464873778333e+00 +0.0000000000000000e+00 +6.0999998787009364e+00 -3.4541249949285432e-04 +0.0000000000000000e+00 +9.9999994034510065e-01
6.1999999999999940e+00 +8.1639116630064521e+00 +0.0000000000000000e+00 +6.1999998726371182e+00 -3.5107492784258628e-04 +0.0000000000000000e+00 +9.9999993837319545e-01
6.2999999999999936e+00 +8.1638762723923257e+00 +0.0000000000000000e+00 +6.2999998663745069e+00 -3.5673735439665345e-04 +0.0000000000000000e+00 +9.9999993636922779e-01
6.3999999999999932e+00 +8.1638403155356301e+00 +0.0000000000000000e+00 +6.3999998599098955e+00 -3.6239977924906822e-04 +0.0000000000000000e+00 +9.9999993433319767e-01
6.4999999999999929e+00 +8.1638037924365303e+00 +0.0000000000000000e+00 +6.4999998532400776e+00 -3.6806220249707765e-04 +0.0000000000000000e+00 +9.9999993226510508e-01
6.5999999999999925e+00 +8.1637667030951810e+00 +0.0000000000000000e+00 +6.5999998463618477e+00 -3.7372462424116329e-04 +0.0000000000000000e+00 +9.9999993016495003e-01
6.6999999999999922e+00 +8.1637290475117279e+00 +0.0000000000000000e+00 +6.6999998392719986e+00 -3.7938704458504124e-04 +0.0000000000000000e+00 +9.9999992803273252e-01
6.7999999999999918e+00 +8.1636908256863059e+00 +0.0000000000000000e+00 +6.7999998319673249e+00 -3.8504946363566192e-04 +0.0000000000000000e+00 +9.9999992586845243e-01
6.8999999999999915e+00 +8.1636520376190393e+00 +0.0000000000000000e+00 +6.8999998244446203e+00 -3.9071188150321024e-04 +0.0000000000000000e+00 +9.9999992367210977e-01
6.9999999999999911e+00 +8.1636126833100402e+00 +0.0000000000000000e+00 +6.9999998167006785e+00 -3.9637429830110545e-04 +0.0000000000000000e+00 +9.9999992144370464e-01
7.0999999999999908e+00 +8.1635727627594097e+00 +0.0000000000000000e+00 +7.0999998087322931e+00 -4.0203671414600111e-04 +0.0000000000000000e+00 +9.9999991918323683e-01
7.1999999999999904e+00 +8.1635322759672384e+00 +0.0000000000000000e+00 +7.1999998005362578e+00 -4.0769912915778503e-04 +0.0000000000000000e+00 +9.9999991689070644e-01
7.2999999999999901e+00 +8.1634912229336027e+00 +0.0000000000000000e+00 +7.2999997921093662e+00 -4.1336154345957926e-04 +0.0000000000000000e+00 +9.9999991456611337e-01
7.3999999999999897e+00 +8.1634496036585666e+00 +0.0000000000000000e+00 +7.3999997834484121e+00 -4.1902395717774004e-04 +0.0000000000000000e+00 +9.9999991220945761e-01
7.4999999999999893e+00 +8.1634074181421816e+00 +0.0000000000000000e+00 +7.4999997745501892e+00 -4.2468637044185771e-04 +0.0000000000000000e+00 +9.9999990982073916e-01
7.5999999999999890e+00 +8.1633646663844885e+00 +0.0000000000000000e+00 +7.5999997654114910e+00 -4.3034878338475680e-04 +0.0000000000000000e+00 +9.9999990739995792e-01
7.6999999999999886e+00 +8.1633213483855105e+00 +0.0000000000000000e+00 +7.6999997560291114e+00 -4.3601119614249589e-04 +0.0000000000000000e+00 +9.9999990494711377e-01
7.7999999999999883e+00 +8.1632774641452617e+00 +0.0000000000000000e+00 +7.7999997463998447e+00 -4.4167360885436765e-04 +0.0000000000000000e+00 +9.9999990246220671e-01
7.8999999999999879e+00 +8.1632330136637368e+00 +0.0000000000000000e+00 +7.8999997365204839e+00 -4.4733602166289864e-04 +0.0000000000000000e+00 +9.9999989994523675e-01
7.9999999999999876e+00 +8.1631879969409198e+00 +0.0000000000000000e+00 +7.9999997263878235e+00 -4.5299843471384947e-04 +0.0000000000000000e+00 +9.9999989739620365e-01
8.0999999999999872e+00 +8.1631424139767805e+00 +0.0000000000000000e+00 +8.0999997159986563e+00 -4.5866084815574730e-04 +0.0000000000000000e+00 +9.9999989481510754e-01
8.1999999999999869e+00 +8.1630962647712710e+00 +0.0000000000000000e+00 +8.1999997053497768e+00 -4.6432326213474424e-04 +0.0000000000000000e+00 +9.9999989220194818e-01
8.2999999999999865e+00 +8.1630495493243309e+00 +0.0000000000000000e+00 +8.2999996944379770e+00 -4.6998567678947588e-04 +0.0000000000000000e+00 +9.9999988955672559e-01
8.3999999999999861e+00 +8.1630022676358855e+00 +0.0000000000000000e+00 +8.3999996832600523e+00 -4.7564809225059427e-04 +0.0000000000000000e+00 +9.9999988687943964e-01
8.4999999999999858e+00 +8.1629544197058497e+00 +0.0000000000000000e+00 +8.4999996718127964e+00 -4.8131050864076800e-04 +0.0000000000000000e+00 +9.9999988417009034e-01
8.5999999999999854e+00 +8.1629060055341238e+00 +0.0000000000000000e+00 +8.5999996600930011e+00 -4.8697292607468250e-04 +0.0000000000000000e+00 +9.9999988142867746e-01
8.6999999999999851e+00 +8.1628570251205979e+00 +0.0000000000000000e+00 +8.6999996480974620e+00 -4.9263534465904040e-04 +0.0000000000000000e+00 +9.9999987865520112e-01
8.7999999999999847e+00 +8.1628074784651510e+00 +0.0000000000000000e+00 +8.7999996358229726e+00 -4.9829776449256168e-04 +0.0000000000000000e+00 +9.9999987584966110e-01
8.8999999999999844e+00 +8.1627573655676553e+00 +0.0000000000000000e+00 +8.8999996232663250e+00 -5.0396018566598402e-04 +0.0000000000000000e+00 +9.9999987301205739e-01
8.9999999999999840e+00 +8.1627066864279705e+00 +0.0000000000000000e+00 +8.9999996104243145e+00 -5.0962260826206327e-04 +0.0000000000000000e+00 +9.9999987014239000e-01
9.0999999999999837e+00 +8.1626554410459526e+00 +0.0000000000000000e+00 +9.0999995972937349e+00 -5.1528503235557339e-04 +0.0000000000000000e+00 +9.9999986724065881e-01
9.1999999999999833e+00 +8.1626036294214472e+00 +0.0000000000000000e+00 +9.1999995838713780e+00 -5.2094745801330698e-04 +0.0000000000000000e+00 +9.9999986430686372e-01
9.2999999999999829e+00 +8.1625512515542962e+00 +0.0000000000000000e+00 +9.2999995701540392e+00 -5.2660988529407572e-04 +0.0000000000000000e+00 +9.9999986134100471e-01
9.3999999999999826e+00 +8.1624983074443325e+00 +0.0000000000000000e+00 +9.3999995561385106e+00 -5.3227231424871047e-04 +0.0000000000000000e+00 +9.9999985834308169e-01
9.4999999999999822e+00 +8.1624447970913891e+00 +0.0000000000000000e+00 +9.4999995418215875e+00 -5.3793474492006173e-04 +0.0000000000000000e+00 +9.9999985531309465e-01
9.5999999999999819e+00 +8.1623907204952904e+00 +0.0000000000000000e+00 +9.5999995272000618e+00 -5.4359717734300003e-04 +0.0000000000000000e+00 +9.9999985225104349e-01
9.6999999999999815e+00 +8.1623360776558602e+00 +0.0000000000000000e+00 +9.6999995122707272e+00 -5.4925961154441631e-04 +0.0000000000000000e+00 +9.9999984915692819e-01
9.7999999999999812e+00 +8.1622808685729211e+00 +0.0000000000000000e+00 +9.7999994970303774e+00 -5.5492204754322197e-04 +0.0000000000000000e+00 +9.9999984603074876e-01
9.8999999999999808e+00 +8.1622250932462919e+00 +0.0000000000000000e+00 +9.8999994814758079e+00 -5.6058448535034979e-04 +0.0000000000000000e+00 +9.9999984287250510e-01
9.9999999999999805e+00 +8.1621687516757913e+00 +0.0000000000000000e+00 +9.9999994656038105e+00 -5.6624692496875389e-04 +0.0000000000000000e+00 +9.9999983968219719e-01
1.0099999999999980e+01 +8.1621118438612381e+00 +0.0000000000000000e+00 +1.0099999449411179e+01 -5.7190936639361846e-04 +0.0000000000000000e+00 +9.9999983645982504e-01
1.0199999999999980e+01 +8.1620543698024530e+00 +0.0000000000000000e+00 +1.0199999432894707e+01 -5.7757180961464803e-04 +0.0000000000000000e+00 +9.9999983320538854e-01
1.0299999999999979e+01 +8.1619963294992566e+00 +0.0000000000000000e+00 +1.0299999416051188e+01 -5.8323425461835729e-04 +0.0000000000000000e+00 +9.9999982991888769e-01
1.0399999999999979e+01 +8.1619377229514711e+00 +0.0000000000000000e+00 +1.0399999398877416e+01 -5.8889670138827861e-04 +0.0000000000000000e+00 +9.9999982660032261e-01
1.0499999999999979e+01 +8.1618785501589208e+00 +0.0000000000000000e+00 +1.0499999381370184e+01 -5.9455914990496207e-04 +0.0000000000000000e+00 +9.9999982324969305e-01
1.0599999999999978e+01 +8.1618188111214334e+00 +0.0000000000000000e+00 +1.0599999363526287e+01 -6.0022160014597443e-04 +0.0000000000000000e+00 +9.9999981986699915e-01
1.0699999999999978e+01 +8.1617585058388364e+00 +0.0000000000000000e+00 +1.0699999345342516e+01 -6.0588405208589907e-04 +0.0000000000000000e+00 +9.9999981645224090e-01
1.0799999999999978e+01 +8.1616976343109613e+00 +0.0000000000000000e+00 +1.0799999326815666e+01 -6.1154650569633531e-04 +0.0000000000000000e+00 +9.9999981300541818e-01
1.0899999999999977e+01 +8.1616361965376427e+00 +0.0000000000000000e+00 +1.0899999307942531e+01 -6.1720896094589789e-04 +0.0000000000000000e+00 +9.9999980952653111e-01
1.0999999999999977e+01 +8.1615741925187191e+00 +0.0000000000000000e+00 +1.0999999288719904e+01 -6.2287141780021651e-04 +0.0000000000000000e+00 +9.9999980601557958e-01
1.1099999999999977e+01 +8.1615116222540305e+00 +0.0000000000000000e+00 +1.1099999269144579e+01 -6.2853387622193520e-04 +0.0000000000000000e+00 +9.9999980247256370e-01
1.1199999999999976e+01 +8.1614484857434242e+00 +0.0000000000000000e+00 +1.1199999249213349e+01 -6.3419633617071188e-04 +0.0000000000000000e+00 +9.9999979889748336e-01
1.1299999999999976e+01 +8.1613847829867474e+00 +0.0000000000000000e+00 +1.1299999228923006e+01 -6.3985879760321783e-04 +0.0000000000000000e+00 +9.9999979529033856e-01
1.1399999999999975e+01 +8.1613205139838545e+00 +0.0000000000000000e+00 +1.1399999208270348e+01 -6.4552126047313701e-04 +0.0000000000000000e+00 +9.9999979165112940e-01
1.1499999999999975e+01 +8.1612556787346051e+00 +0.0000000000000000e+00 +1.1499999187252165e+01 -6.5118372473116544e-04 +0.0000000000000000e+00 +9.9999978797985578e-01
1.1599999999999975e+01 +8.1611902772388625e+00 +0.0000000000000000e+00 +1.1599999165865251e+01 -6.5684619032501095e-04 +0.0000000000000000e+00 +9.9999978427651781e-01
1.1699999999999974e+01 +8.1611243094964969e+00 +0.0000000000000000e+00 +1.1699999144106400e+01 -6.6250865719939204e-04 +0.0000000000000000e+00 +9.9999978054111549e-01
1.1799999999999974e+01 +8.1610577755073823e+00 +0.0000000000000000e+00 +1.1799999121972405e+01 -6.6817112529603782e-04 +0.0000000000000000e+00 +9.9999977677364871e-01
