# field on trajectory
# s[mm] rx[mm] ry[mm] rz[mm] bx[T] by[T] bz[T]
-0.0000000000000000e+00 +8.1530000000000094e+00 +0.0000000000000000e+00 -0.0000000000000000e+00 -3.0859781800029427e-02 -5.6465226814573410e-01 +5.6013750511072812e-03
-1.0000000000000001e-01 +8.1529997159377707e+00 +0.0000000000000000e+00 -1.0008006405070299e-01 -3.0859686301470842e-02 -5.6465218050661359e-01 +5.6013472997761254e-03
-2.0000000000000001e-01 +8.1529988637557800e+00 +0.0000000000000000e+00 -2.0016012809818201e-01 -3.0859606127004110e-02 -5.6465211062767218e-01 +5.6013217157063486e-03
-2.9999999999999999e-01 +8.1529974434524792e+00 +0.0000000000000000e+00 -3.0024019213920999e-01 -3.0859539305214435e-02 -5.6465205703852783e-01 +5.6012981664615392e-03
-4.0000000000000002e-01 +8.1529954550242092e+00 +0.0000000000000000e+00 -4.0032025617056399e-01 -3.0859483864705252e-02 -5.6465201826881528e-01 +5.6012765196060332e-03
-5.0000000000000000e-01 +8.1529928984782600e+00 +0.0000000000000000e+00 -5.0040032018901703e-01 -3.0859437834089332e-02 -5.6465199284808476e-01 +5.6012566427036123e-03
-5.9999999999999998e-01 +8.1529897738146193e+00 +0.0000000000000000e+00 -6.0048038419134497e-01 -3.0859399241992276e-02 -5.6465197930594435e-01 +5.6012384033186473e-03
-6.9999999999999996e-01 +8.1529860810223909e+00 +0.0000000000000000e+00 -7.0056044817432195e-01 -3.0859366117050216e-02 -5.6465197617208562e-01 +5.6012216690160804e-03
-8.0000000000000004e-01 +8.1529818201124709e+00 +0.0000000000000000e+00 -8.0064051213472498e-01 -3.0859336487893022e-02 -5.6465198197603295e-01 +5.6012063073585770e-03
-9.0000000000000002e-01 +8.1529769910812302e+00 +0.0000000000000000e+00 -9.0072057606932698e-01 -3.0859308383155076e-02 -5.6465199524742293e-01 +5.6011921859090890e-03
-1.0000000000000000e+00 +8.1529715939250291e+00 +0.0000000000000000e+00 -1.0008006399749001e+00 -3.0859279831465650e-02 -5.6465201451589242e-01 +5.6011791722294152e-03
-1.1000000000000001e+00 +8.1529656286511507e+00 +0.0000000000000000e+00 -1.1008807038482300e+00 -3.0859248861440931e-02 -5.6465203831099475e-01 +5.6011671338790673e-03
-1.2000000000000000e+00 +8.1529590952522994e+00 +0.0000000000000000e+00 -1.2009607676860801e+00 -3.0859213501690286e-02 -5.6465206516239541e-01 +5.6011559384169744e-03
-1.3000000000000000e+00 +8.1529519937357708e+00 +0.0000000000000000e+00 -1.3010408314852300e+00 -3.0859171780801022e-02 -5.6465209359964719e-01 +5.6011454533989044e-03
-1.3999999999999999e+00 +8.1529443240979198e+00 +0.0000000000000000e+00 -1.4011208952424601e+00 -3.0859121727344715e-02 -5.6465212215238747e-01 +5.6011355463791677e-03
-1.5000000000000000e+00 +8.1529360863350995e+00 +0.0000000000000000e+00 -1.5012009589545301e+00 -3.0859061369869167e-02 -5.6465214935025410e-01 +5.6011260849094958e-03
-1.6000000000000001e+00 +8.1529272804509691e+00 +0.0000000000000000e+00 -1.6012810226182299e+00 -3.0858988736891722e-02 -5.6465217372282850e-01 +5.6011169365381558e-03
-1.7000000000000000e+00 +8.1529179064491508e+00 +0.0000000000000000e+00 -1.7013610862303301e+00 -3.0858901856898442e-02 -5.6465219379969100e-01 +5.6011079688102422e-03
-1.8000000000000000e+00 +8.1529079643223703e+00 +0.0000000000000000e+00 -1.8014411497875999e+00 -3.0858798758344682e-02 -5.6465220811050676e-01 +5.6010990492682388e-03
-1.8999999999999999e+00 +8.1528974540779000e+00 +0.0000000000000000e+00 -1.9015212132868200e+00 -3.0858677469641226e-02 -5.6465221518482833e-01 +5.6010900454497381e-03
-2.0000000000000000e+00 +8.1528863757084800e+00 +0.0000000000000000e+00 -2.0016012767247702e+00 -3.0858536019164363e-02 -5.6465221355232253e-01 +5.6010808248896302e-03
-2.1000000000000001e+00 +8.1528747292177304e+00 +0.0000000000000000e+00 -2.1016813400982199e+00 -3.0858373008355068e-02 -5.6465220236041391e-01 +5.6010713058725565e-03
-2.2000000000000002e+00 +8.1528625146056601e+00 +0.0000000000000000e+00 -2.2017614034039301e+00 -3.0858189223677553e-02 -5.6465218311213761e-01 +5.6010616001885777e-03
-2.2999999999999998e+00 +8.1528497318759001e+00 +0.0000000000000000e+00 -2.3018414666387002e+00 -3.0857985972248932e-02 -5.6465215787180101e-01 +5.6010518657373084e-03
-2.3999999999999999e+00 +8.1528363810211903e+00 +0.0000000000000000e+00 -2.4019215297993002e+00 -3.0857764561192269e-02 -5.6465212870380566e-01 +5.6010422604204193e-03
-2.5000000000000000e+00 +8.1528224620451493e+00 +0.0000000000000000e+00 -2.5020015928824901e+00 -3.0857526297630136e-02 -5.6465209767248004e-01 +5.6010329421402839e-03
-2.6000000000000001e+00 +8.1528079749477893e+00 +0.0000000000000000e+00 -2.6020816558850601e+00 -3.0857272488692467e-02 -5.6465206684219216e-01 +5.6010240688014632e-03
-2.7000000000000002e+00 +8.1527929197291105e+00 +0.0000000000000000e+00 -2.7021617188037701e+00 -3.0857004441517337e-02 -5.6465203827732369e-01 +5.6010157983107716e-03
-2.7999999999999998e+00 +8.1527772963891003e+00 +0.0000000000000000e+00 -2.8022417816354102e+00 -3.0856723463253112e-02 -5.6465201404226972e-01 +5.6010082885776264e-03
-2.8999999999999999e+00 +8.1527611049277802e+00 +0.0000000000000000e+00 -2.9023218443767500e+00 -3.0856430861060581e-02 -5.6465199620144102e-01 +5.6010016975144008e-03
-3.0000000000000000e+00 +8.1527443453451305e+00 +0.0000000000000000e+00 -3.0024019070245598e+00 -3.0856127942115168e-02 -5.6465198681926332e-01 +5.6009961830367737e-03
-3.1000000000000001e+00 +8.1527270176411495e+00 +0.0000000000000000e+00 -3.1024819695756198e+00 -3.0855816013609035e-02 -5.6465198796018035e-01 +5.6009919030640763e-03
-3.2000000000000002e+00 +8.1527091218158603e+00 +0.0000000000000000e+00 -3.2025620320267101e+00 -3.0855496382753308e-02 -5.6465200168865282e-01 +5.6009890155196487e-03
-3.2999999999999998e+00 +8.1526906578692397e+00 +0.0000000000000000e+00 -3.3026420943745900e+00 -3.0855170356780176e-02 -5.6465203006916109e-01 +5.6009876783311803e-03
-3.3999999999999999e+00 +8.1526716258013003e+00 +0.0000000000000000e+00 -3.4027221566160502e+00 -3.0854839242945128e-02 -5.6465207516620497e-01 +5.6009880494310707e-03
-3.5000000000000000e+00 +8.1526520256120403e+00 +0.0000000000000000e+00 -3.5028022187478500e+00 -3.0854504348529047e-02 -5.6465213904430600e-01 +5.6009902867567730e-03
-3.6000000000000001e+00 +8.1526318572978198e+00 +0.0000000000000000e+00 -3.6028822807667802e+00 -3.0854166980841823e-02 -5.6465222376803470e-01 +5.6009945482514345e-03
-3.7000000000000002e+00 +8.1526111208659096e+00 +0.0000000000000000e+00 -3.7029623426696099e+00 -3.0853828447218807e-02 -5.6465233140190130e-01 +5.6010009918630987e-03
-3.7999999999999998e+00 +8.1525898163126804e+00 +0.0000000000000000e+00 -3.8030424044531101e+00 -3.0853490055031501e-02 -5.6465246401052305e-01 +5.6010097755467662e-03
-3.8999999999999999e+00 +8.1525679436344909e+00 +0.0000000000000000e+00 -3.9031224661140600e+00 -3.0853153111685572e-02 -5.6465262365854274e-01 +5.6010210572639083e-03
-4.0000000000000000e+00 +8.1525455028386205e+00 +0.0000000000000000e+00 -4.0032025276492398e+00 -3.0852818924614934e-02 -5.6465281241052367e-01 +5.6010349949818673e-03
-4.0999999999999996e+00 +8.1525224939177896e+00 +0.0000000000000000e+00 -4.1032825890554099e+00 -3.0852488681174718e-02 -5.6465303160433611e-01 +5.6010517445454471e-03
-4.2000000000000002e+00 +8.1524989168792708e+00 +0.0000000000000000e+00 -4.2033626503293604e+00 -3.0852163132186802e-02 -5.6465327993626158e-01 +5.6010714540602226e-03
-4.2999999999999998e+00 +8.1524747717157897e+00 +0.0000000000000000e+00 -4.3034427114678504e+00 -3.0851842929350833e-02 -5.6465355550279928e-01 +5.6010942698778640e-03
-4.4000000000000004e+00 +8.1524500584346207e+00 +0.0000000000000000e+00 -4.4035227724676700e+00 -3.0851528724375032e-02 -5.6465385640033383e-01 +5.6011203383523030e-03
-4.5000000000000000e+00 +8.1524247770285001e+00 +0.0000000000000000e+00 -4.5036028333255800e+00 -3.0851221168988110e-02 -5.6465418072535678e-01 +5.6011498058421176e-03
-4.5999999999999996e+00 +8.1523989275046898e+00 +0.0000000000000000e+00 -4.6036828940383696e+00 -3.0850920914928231e-02 -5.6465452657424087e-01 +5.6011828187083170e-03
-4.7000000000000002e+00 +8.1523725098559208e+00 +0.0000000000000000e+00 -4.7037629546028104e+00 -3.0850628613954986e-02 -5.6465489204346608e-01 +5.6012195233167165e-03
-4.7999999999999998e+00 +8.1523455240894709e+00 +0.0000000000000000e+00 -4.8038430150156701e+00 -3.0850344917838370e-02 -5.6465527522939074e-01 +5.6012600660357327e-03
-4.9000000000000004e+00 +8.1523179701980606e+00 +0.0000000000000000e+00 -4.9039230752737302e+00 -3.0850070478370746e-02 -5.6465567422847907e-01 +5.6013045932387581e-03
-5.0000000000000000e+00 +8.1522898481889605e+00 +0.0000000000000000e+00 -5.0040031353737602e+00 -3.0849805947355712e-02 -5.6465608713707205e-01 +5.6013532513019522e-03
-5.0999999999999996e+00 +8.1522611580549000e+00 +0.0000000000000000e+00 -5.1040831953125396e+00 -3.0849551976620232e-02 -5.6465651205161405e-01 +5.6014061866066127e-03
-5.2000000000000002e+00 +8.1522318997995207e+00 +0.0000000000000000e+00 -5.2041632550868497e+00 -3.0849309218004883e-02 -5.6465694706845371e-01 +5.6014635455372630e-03
-5.2999999999999998e+00 +8.1522020734228100e+00 +0.0000000000000000e+00 -5.3042433146934496e+00 -3.0849078323370169e-02 -5.6465739028395578e-01 +5.6015254744828796e-03
-5.4000000000000004e+00 +8.1521716789247893e+00 +0.0000000000000000e+00 -5.4043233741291203e+00 -3.0848859944595457e-02 -5.6465783979447237e-01 +5.6015921198366682e-03
-5.5000000000000000e+00 +8.1521407163090807e+00 +0.0000000000000000e+00 -5.5044034333906504e+00 -3.0848654733578052e-02 -5.6465829369631393e-01 +5.6016636279958999e-03
-5.5999999999999996e+00 +8.1521091855684098e+00 +0.0000000000000000e+00 -5.6044834924747899e+00 -3.0848463342239469e-02 -5.6465875008586031e-01 +5.6017401453630983e-03
-5.7000000000000002e+00 +8.1520770867064094e+00 +0.0000000000000000e+00 -5.7045635513783299e+00 -3.0848286422517107e-02 -5.6465920705939232e-01 +5.6018218183444381e-03
-5.7999999999999998e+00 +8.1520444197231008e+00 +0.0000000000000000e+00 -5.8046436100980499e+00 -3.0848124626370595e-02 -5.6465966271320200e-01 +5.6019087933509492e-03
-5.9000000000000004e+00 +8.1520111846184609e+00 +0.0000000000000000e+00 -5.9047236686307096e+00 -3.0847978605780781e-02 -5.6466011514356462e-01 +5.6020012167983264e-03
-5.9999999999999902e+00 +8.1519773813925003e+00 +0.0000000000000000e+00 -6.0048037269731003e+00 -3.0847849012713525e-02 -5.6466056244678198e-01 +5.6020992350964251e-03
-6.0999999999999899e+00 +8.1519430100452208e+00 +0.0000000000000000e+00 -6.1048837851219799e+00 -3.0847736118031117e-02 -5.6466100318661239e-01 +5.6022028845012228e-03
-6.1999999999999904e+00 +8.1519080705766100e+00 +0.0000000000000000e+00 -6.2049638430741396e+00 -3.0847638872081345e-02 -5.6466143754649800e-01 +5.6023118195908262e-03
-6.2999999999999901e+00 +8.1518725629866804e+00 +0.0000000000000000e+00 -6.3050439008263499e+00 -3.0847555939391657e-02 -5.6466186606040636e-01 +5.6024256123263089e-03
-6.3999999999999897e+00 +8.1518364872754301e+00 +0.0000000000000000e+00 -6.4051239583753699e+00 -3.0847485984466662e-02 -5.6466228926227402e-01 +5.6025438346568122e-03
-6.4999999999999902e+00 +8.1517998434428591e+00 +0.0000000000000000e+00 -6.5052040157180002e+00 -3.0847427671786838e-02 -5.6466270768600701e-01 +5.6026660585189693e-03
-6.5999999999999899e+00 +8.1517626314889604e+00 +0.0000000000000000e+00 -6.6052840728510001e+00 -3.0847379665807261e-02 -5.6466312186547651e-01 +5.6027918558363395e-03
-6.6999999999999904e+00 +8.1517248514137499e+00 +0.0000000000000000e+00 -6.7053641297711399e+00 -3.0847340630956222e-02 -5.6466353233452049e-01 +5.6029207985188378e-03
-6.7999999999999901e+00 +8.1516865032135701e+00 +0.0000000000000000e+00 -6.8054441864752100e+00 -3.0847309231635429e-02 -5.6466393962696926e-01 +5.6030524584624536e-03
-6.8999999999999897e+00 +8.1516475868957095e+00 +0.0000000000000000e+00 -6.9055242429599701e+00 -3.0847284132212830e-02 -5.6466434427653123e-01 +5.6031864075475413e-03
-6.9999999999999902e+00 +8.1516081024565192e+00 +0.0000000000000000e+00 -7.0056042992222096e+00 -3.0847263997030035e-02 -5.6466474681696244e-01 +5.6033222176399599e-03
-7.0999999999999899e+00 +8.1515680498960101e+00 +0.0000000000000000e+00 -7.1056843552586999e+00 -3.0847247490395208e-02 -5.6466514778195043e-01 +5.6034594605893643e-03
-7.1999999999999904e+00 +8.1515274292141804e+00 +0.0000000000000000e+00 -7.2057644110662000e+00 -3.0847233276583206e-02 -5.6466554770514310e-01 +5.6035977082289287e-03
-7.2999999999999901e+00 +8.1514862404073902e+00 +0.0000000000000000e+00 -7.3058444666415099e+00 -3.0847220019835656e-02 -5.6466594712017371e-01 +5.6037365323750570e-03
-7.3999999999999897e+00 +8.1514444834829192e+00 +0.0000000000000000e+00 -7.4059245219813796e+00 -3.0847206384353947e-02 -5.6466634656054870e-01 +5.6038755048256712e-03
-7.4999999999999902e+00 +8.1514021584334806e+00 +0.0000000000000000e+00 -7.5060045770826100e+00 -3.0847191034308000e-02 -5.6466674655984350e-01 +5.6040141973616574e-03
-7.5999999999999899e+00 +8.1513592652663593e+00 +0.0000000000000000e+00 -7.6060846319419504e+00 -3.0847172633823333e-02 -5.6466714765147463e-01 +5.6041521817439908e-03
-7.6999999999999904e+00 +8.1513158039779192e+00 +0.0000000000000000e+00 -7.7061646865561997e+00 -3.0847149846989965e-02 -5.6466755036889649e-01 +5.6042890297151827e-03
-7.7999999999999901e+00 +8.1512717745681602e+00 +0.0000000000000000e+00 -7.8062447409221098e+00 -3.0847121337855297e-02 -5.6466795524548807e-01 +5.6044243129975716e-03
-7.8999999999999897e+00 +8.1512271770334301e+00 +0.0000000000000000e+00 -7.9063247950364799e+00 -3.0847085770425629e-02 -5.6466836281460653e-01 +5.6045576032933151e-03
-7.9999999999999902e+00 +8.1511820113773901e+00 +0.0000000000000000e+00 -8.0064048488960609e+00 -3.0847041808759780e-02 -5.6466877360948364e-01 +5.6046884723144220e-03
-8.0999999999999908e+00 +8.1511362776036496e+00 +0.0000000000000000e+00 -8.1064849024976393e+00 -3.0846988572284476e-02 -5.6466918807233968e-01 +5.6048166360955611e-03
-8.1999999999999904e+00 +8.1510899757086008e+00 +0.0000000000000000e+00 -8.2065649558379903e+00 -3.0846926685025540e-02 -5.6466960634492069e-01 +5.6049422875610174e-03
-8.2999999999999901e+00 +8.1510431056885899e+00 +0.0000000000000000e+00 -8.3066450089139003e+00 -3.0846857081284578e-02 -5.6467002850704129e-01 +5.6050657179987015e-03
-8.3999999999999897e+00 +8.1509956675508892e+00 +0.0000000000000000e+00 -8.4067250617221205e+00 -3.0846780695326582e-02 -5.6467045463848975e-01 +5.6051872187091786e-03
-8.4999999999999893e+00 +8.1509476612882299e+00 +0.0000000000000000e+00 -8.5068051142594392e+00 -3.0846698461389190e-02 -5.6467088481922478e-01 +5.6053070810081979e-03
-8.5999999999999908e+00 +8.1508990869078808e+00 +0.0000000000000000e+00 -8.6068851665226305e+00 -3.0846611313670263e-02 -5.6467131912915314e-01 +5.6054255962248913e-03
-8.6999999999999904e+00 +8.1508499444025801e+00 +0.0000000000000000e+00 -8.7069652185084596e+00 -3.0846520186338718e-02 -5.6467175764835753e-01 +5.6055430557046017e-03
-8.7999999999999794e+00 +8.1508002337759500e+00 +0.0000000000000000e+00 -8.8070452702137203e+00 -3.0846426013523522e-02 -5.6467220045690070e-01 +5.6056597508073683e-03
-8.8999999999999808e+00 +8.1507499550316407e+00 +0.0000000000000000e+00 -8.9071253216351796e+00 -3.0846329729317196e-02 -5.6467264763491221e-01 +5.6057759729093012e-03
-8.9999999999999805e+00 +8.1506991081623692e+00 +0.0000000000000000e+00 -9.0072053727696098e+00 -3.0846232267779397e-02 -5.6467309926267573e-01 +5.6058920134039701e-03
-9.0999999999999801e+00 +8.1506476931717806e+00 +0.0000000000000000e+00 -9.1072854236137797e+00 -3.0846134562927348e-02 -5.6467355542046027e-01 +5.6060081637011689e-03
-9.1999999999999797e+00 +8.1505957100635005e+00 +0.0000000000000000e+00 -9.2073654741644795e+00 -3.0846037548739384e-02 -5.6467401618860924e-01 +5.6061247152283033e-03
-9.2999999999999794e+00 +8.1505431588302599e+00 +0.0000000000000000e+00 -9.3074455244184708e+00 -3.0845942159158493e-02 -5.6467448164762513e-01 +5.6062419594317568e-03
-9.3999999999999808e+00 +8.1504900394757005e+00 +0.0000000000000000e+00 -9.4075255743725297e+00 -3.0845849328082740e-02 -5.6467495187800265e-01 +5.6063601877756799e-03
-9.4999999999999805e+00 +8.1504363520034495e+00 +0.0000000000000000e+00 -9.5076056240234408e+00 -3.0845759989368896e-02 -5.6467542696031692e-01 +5.6064796917433685e-03
-9.5999999999999801e+00 +8.1503820964062506e+00 +0.0000000000000000e+00 -9.6076856733679694e+00 -3.0845675076835839e-02 -5.6467590697530801e-01 +5.6066007628386254e-03
-9.6999999999999797e+00 +8.1503272726913600e+00 +0.0000000000000000e+00 -9.7077657224029004e+00 -3.0845595524253679e-02 -5.6467639200368669e-01 +5.6067236925842626e-03
-9.7999999999999794e+00 +8.1502718808515109e+00 +0.0000000000000000e+00 -9.8078457711250007e+00 -3.0845522265354489e-02 -5.6467688212636247e-01 +5.6068487725249140e-03
-9.8999999999999808e+00 +8.1502159208903304e+00 +0.0000000000000000e+00 -9.9079258195310498e+00 -3.0845456233821344e-02 -5.6467737742424717e-01 +5.6069762942255290e-03
-9.9999999999999805e+00 +8.1501593928078400e+00 +0.0000000000000000e+00 -1.0008005867617801e+01 -3.0845398363168932e-02 -5.6467787797832369e-01 +5.6071065492447171e-03
-1.0100000000000000e+01 +8.1501022966040200e+00 +0.0000000000000000e+00 -1.0108085915382100e+01 -3.0845349281323015e-02 -5.6467838375277035e-01 +5.6072397595676692e-03
-1.0199999999999999e+01 +8.1500446322825209e+00 +0.0000000000000000e+00 -1.0208165962820599e+01 -3.0845308653368098e-02 -5.6467889434341900e-01 +5.6073759278785261e-03
-1.0300000000000001e+01 +8.1499863998360507e+00 +0.0000000000000000e+00 -1.0308246009930199e+01 -3.0845275955274552e-02 -5.6467940927377902e-01 +5.6075150137655161e-03
-1.0400000000000000e+01 +8.1499275992682705e+00 +0.0000000000000000e+00 -1.0408326056707599e+01 -3.0845250663083752e-02 -5.6467992806723943e-01 +5.6076569768088915e-03
-1.0500000000000000e+01 +8.1498682305791608e+00 +0.0000000000000000e+00 -1.0508406103149600e+01 -3.0845232252916032e-02 -5.6468045024717894e-01 +5.6078017765818734e-03
-1.0600000000000000e+01 +8.1498082937723701e+00 +0.0000000000000000e+00 -1.0608486149253000e+01 -3.0845220200969921e-02 -5.6468097533690909e-01 +5.6079493726498330e-03
-1.0699999999999999e+01 +8.1497477888406102e+00 +0.0000000000000000e+00 -1.0708566195014500e+01 -3.0845213983530032e-02 -5.6468150285978524e-01 +5.6080997245712338e-03
-1.0800000000000001e+01 +8.1496867157875403e+00 +0.0000000000000000e+00 -1.0808646240430900e+01 -3.0845213076960552e-02 -5.6468203233903735e-01 +5.6082527918956760e-03
-1.0900000000000000e+01 +8.1496250746131391e+00 +0.0000000000000000e+00 -1.0908726285499000e+01 -3.0845216957713129e-02 -5.6468256329788047e-01 +5.6084085341648222e-03
-1.1000000000000000e+01 +8.1495628653174208e+00 +0.0000000000000000e+00 -1.1008806330215601e+01 -3.0845225102327577e-02 -5.6468309525948657e-01 +5.6085669109118986e-03
-1.1100000000000000e+01 +8.1495000879040198e+00 +0.0000000000000000e+00 -1.1108886374577500e+01 -3.0845236987432533e-02 -5.6468362774695424e-01 +5.6087278816611685e-03
-1.1199999999999999e+01 +8.1494367423620098e+00 +0.0000000000000000e+00 -1.1208966418581401e+01 -3.0845252089754846e-02 -5.6468416028344837e-01 +5.6088914059291561e-03
-1.1300000000000001e+01 +8.1493728287059604e+00 +0.0000000000000000e+00 -1.1309046462224000e+01 -3.0845269886105777e-02 -5.6468469239189023e-01 +5.6090574432212589e-03
-1.1400000000000000e+01 +8.1493083469249505e+00 +0.0000000000000000e+00 -1.1409126505502300e+01 -3.0845289853403401e-02 -5.6468522359534912e-01 +5.6092259530355452e-03
-1.1500000000000000e+01 +8.1492432970226201e+00 +0.0000000000000000e+00 -1.1509206548412800e+01 -3.0845311468658796e-02 -5.6468575341673333e-01 +5.6093968948593732e-03
-1.1600000000000000e+01 +8.1491776789989707e+00 +0.0000000000000000e+00 -1.1609286590952600e+01 -3.0845334208985435e-02 -5.6468628137892718e-01 +5.6095702281706060e-03
-1.1699999999999999e+01 +8.1491114928576298e+00 +0.0000000000000000e+00 -1.1709366633118099e+01 -3.0845357551598406e-02 -5.6468680700473672e-01 +5.6097459124368025e-03
