# multipoles
# s[mm] polynom_b[n=0][T/m^n] polynom_b[n=1][T/m^n] polynom_b[n=2][T/m^n] polynom_b[n=3][T/m^n] polynom_b[n=4][T/m^n] polynom_b[n=5][T/m^n] polynom_b[n=6][T/m^n] 
-0.0000000000000000e+00 -5.6465565044931343e-01 +7.7333366649072497e+00 -6.7914494070520826e-01 -6.8190715674848377e+01 +1.3953266855207080e+03 +7.9420589536040919e+04 -1.7029522166560959e+07 
-1.0000000000000001e-01 -5.6465562042876272e-01 +7.7333233119617306e+00 -6.8322769131005689e-01 -6.7927994646442727e+01 +1.4910278593050516e+03 +7.8273727724914032e+04 -1.7510875648487110e+07 
-2.0000000000000001e-01 -5.6465560419951466e-01 +7.7333085303873226e+00 -6.8617394231387319e-01 -6.7647196218720779e+01 +1.5692593625235645e+03 +7.7167737082067601e+04 -1.7922147083017621e+07 
-2.9999999999999999e-01 -5.6465560051767216e-01 +7.7332924385310013e+00 -6.8810512587057360e-01 -6.7348939882924853e+01 +1.6317098428401985e+03 +7.6094539293789509e+04 -1.8269678359774008e+07 
-4.0000000000000002e-01 -5.6465560813947979e-01 +7.7332751547398395e+00 -6.8914266850766215e-01 -6.7033845137400903e+01 +1.6800678365906058e+03 +7.5046056136623549e+04 -1.8559810832675137e+07 
-5.0000000000000000e-01 -5.6465562582102502e-01 +7.7332567973528867e+00 -6.8940800526929236e-01 -6.6702531242874244e+01 +1.7160220334648986e+03 +7.4014208012740259e+04 -1.8798886565577440e+07 
-5.9999999999999998e-01 -5.6465565231853387e-01 +7.7332374847119620e+00 -6.8902256085027658e-01 -6.6355617535840508e+01 +1.7412609246025936e+03 +7.2990915770934997e+04 -1.8993246676452279e+07 
-6.9999999999999996e-01 -5.6465568638810826e-01 +7.7332173351542153e+00 -6.8810776821792086e-01 -6.5993723205378046e+01 +1.7574731528729324e+03 +7.1968099383833192e+04 -1.9149232991369952e+07 
-8.0000000000000004e-01 -5.6465572678591913e-01 +7.7331964670186473e+00 -6.8678505465158901e-01 -6.5617467479166748e+01 +1.7663472488731468e+03 +7.0937678997957555e+04 -1.9273186792860985e+07 
-9.0000000000000002e-01 -5.6465577226812003e-01 +7.7331749986496554e+00 -6.8517585045536744e-01 -6.5227469726738093e+01 +1.7695718019637936e+03 +6.9891575543425381e+04 -1.9371449644712470e+07 
-1.0000000000000000e+00 -5.6465582159087935e-01 +7.7331530483888198e+00 -6.8340158381528360e-01 -6.4824349217211378e+01 +1.7688353606581738e+03 +6.8821709307029887e+04 -1.9450362914447274e+07 
-1.1000000000000001e+00 -5.6465587351038804e-01 +7.7331307345812972e+00 -6.8158368704995964e-01 -6.4408725293516767e+01 +1.7658265475776936e+03 +6.7720000894824479e+04 -1.9516268307329282e+07 
-1.2000000000000000e+00 -5.6465592678273224e-01 +7.7331081755874180e+00 -6.7984358919435250e-01 -6.3981217723159226e+01 +1.7622339313573402e+03 +6.6578373311728225e+04 -1.9575507290780902e+07 
-1.3000000000000000e+00 -5.6465598016409979e-01 +7.7330854897632140e+00 -6.7830271988259094e-01 -6.3542446103742094e+01 +1.7597460858086279e+03 +6.5388748412308407e+04 -1.9634421335665438e+07 
-1.3999999999999999e+00 -5.6465603241067774e-01 +7.7330627954760507e+00 -6.7708251055205593e-01 -6.3093030339084684e+01 +1.7600516298087975e+03 +6.4143049728473088e+04 -1.9699352150152851e+07 
-1.5000000000000000e+00 -5.6465608227857900e-01 +7.7330402111055934e+00 -6.7630439482745541e-01 -6.2633590643923235e+01 +1.7648392244291113e+03 +6.2833202417489578e+04 -1.9776641638558567e+07 
-1.6000000000000001e+00 -5.6465612852397973e-01 +7.7330178550338857e+00 -6.7608980313719802e-01 -6.2164747271530501e+01 +1.7757974763186037e+03 +6.1451131724317645e+04 -1.9872631454699181e+07 
-1.7000000000000000e+00 -5.6465616990302880e-01 +7.7329958456663626e+00 -6.7656016967268406e-01 -6.1687121101594570e+01 +1.7946150685937396e+03 +5.9988766318105852e+04 -1.9993663621461704e+07 
-1.8000000000000000e+00 -5.6465620517191573e-01 +7.7329743014085022e+00 -6.7783692855119337e-01 -6.1201332963326969e+01 +1.8229806914876897e+03 +5.8438034362486127e+04 -2.0146080207337759e+07 
-1.8999999999999999e+00 -5.6465623308679302e-01 +7.7329533406895532e+00 -6.8004151236760102e-01 -6.0708004335102231e+01 +1.8625830159032244e+03 +5.6790867600819649e+04 -2.0336223204809483e+07 
-2.0000000000000000e+00 -5.6465625240381712e-01 +7.7329330819479836e+00 -6.8329536141439373e-01 -6.0207756896713725e+01 +1.9151108651035925e+03 +5.5039198672105966e+04 -2.0570435333269712e+07 
-2.1000000000000001e+00 -5.6465626239473088e-01 +7.7329136404541723e+00 -6.8768284759369924e-01 -5.9701648562048469e+01 +1.9817480511217389e+03 +5.3179150150433459e+04 -2.0853146503484435e+07 
-2.2000000000000002e+00 -5.6465626439781524e-01 +7.7328951188883170e+00 -6.9313948785009694e-01 -5.9192567408658427e+01 +2.0616534459147260e+03 +5.1224253413347011e+04 -2.1181139029324327e+07 
-2.2999999999999998e+00 -5.6465626026895155e-01 +7.7328776168136697e+00 -6.9956342204297184e-01 -5.8683881087473331e+01 +2.1534781977016964e+03 +4.9192560176866747e+04 -2.1549283188389879e+07 
-2.3999999999999999e+00 -5.6465625186405766e-01 +7.7328612337965534e+00 -7.0685279361746600e-01 -5.8178957356229347e+01 +2.2558735313610559e+03 +4.7102122787235989e+04 -2.1952449642126955e+07 
-2.5000000000000000e+00 -5.6465624103903267e-01 +7.7328460693987333e+00 -7.1490574153859454e-01 -5.7681163840728267e+01 +2.3674905917287001e+03 +4.4970992771419224e+04 -2.2385508682813037e+07 
-2.6000000000000001e+00 -5.6465622964976914e-01 +7.7328322231762288e+00 -7.2362040595003108e-01 -5.7193868036835987e+01 +2.4869805509919870e+03 +4.2817220974767530e+04 -2.2843330743280932e+07 
-2.7000000000000002e+00 -5.6465621955229783e-01 +7.7328197946817694e+00 -7.3289492474784690e-01 -5.6720437363837675e+01 +2.6129945493469850e+03 +4.0658857803271436e+04 -2.3320786130882010e+07 
-2.7999999999999998e+00 -5.6465621260246779e-01 +7.7328088834615887e+00 -7.4262743754903215e-01 -5.6264239083689802e+01 +2.7441837635355000e+03 +3.8513952789629649e+04 -2.3812745336119447e+07 
-2.8999999999999999e+00 -5.6465621065631788e-01 +7.7327995890515586e+00 -7.5271607862456436e-01 -5.5828640188876342e+01 +2.8791992781512149e+03 +3.6400553948642337e+04 -2.4314078433680829e+07 
-3.0000000000000000e+00 -5.6465621556978851e-01 +7.7327920109810480e+00 -7.6305898435411512e-01 -5.5417007528688202e+01 +3.0166922242732985e+03 +3.4336708548926232e+04 -2.4819655735959101e+07 
-3.1000000000000001e+00 -5.6465622919886627e-01 +7.7327862487747403e+00 -7.7355428914339841e-01 -5.5032707856226473e+01 +3.1553137027457651e+03 +3.2340463362169063e+04 -2.5324347430350173e+07 
-3.2000000000000002e+00 -5.6465625339960690e-01 +7.7327824019376301e+00 -7.8410012342918756e-01 -5.4679107404800277e+01 +3.2937147506204715e+03 +3.0429862248979989e+04 -2.5823023430778459e+07 
-3.2999999999999998e+00 -5.6465629002795892e-01 +7.7327805699699832e+00 -7.9459462043040530e-01 -5.4359572324937872e+01 +3.4305464635780791e+03 +2.8622948695207335e+04 -2.6310553945140895e+07 
-3.3999999999999999e+00 -5.6465634094005968e-01 +7.7327808523601176e+00 -8.0493590788094638e-01 -5.4077468474528956e+01 +3.5644598417959623e+03 +2.6937764590703937e+04 -2.6781808750793394e+07 
-3.5000000000000000e+00 -5.6465640799187478e-01 +7.7327833485766231e+00 -8.1502211468974795e-01 -5.3836161200922106e+01 +3.6941059183349503e+03 +2.5392348992636191e+04 -2.7231657809221327e+07 
-3.6000000000000001e+00 -5.6465649303954824e-01 +7.7327881580833733e+00 -8.2475136529113457e-01 -5.3639015785729626e+01 +3.8181356503625266e+03 +2.4004740730291891e+04 -2.7654970746714927e+07 
-3.7000000000000002e+00 -5.6465659793914535e-01 +7.7327953803186640e+00 -8.3402178396092808e-01 -5.3489396840392082e+01 +3.9352000006649450e+03 +2.2792974897649219e+04 -2.8046617239142593e+07 
-3.7999999999999998e+00 -5.6465672454678284e-01 +7.7328051147106729e+00 -8.4273149243952894e-01 -5.3390668754059959e+01 +4.0439498940459434e+03 +2.1775085453551590e+04 -2.8401466811063904e+07 
-3.8999999999999999e+00 -5.6465687471861725e-01 +7.7328174606685609e+00 -8.5077860835831687e-01 -5.3346195449702620e+01 +4.1430361889694886e+03 +2.0969103842118628e+04 -2.8714388702842329e+07 
-4.0000000000000000e+00 -5.6465705031081703e-01 +7.7328325175836943e+00 -8.5806125107095377e-01 -5.3359340417003288e+01 +4.2311097840613274e+03 +2.0393059190804302e+04 -2.8980252368459128e+07 
-4.0999999999999996e+00 -5.6465725258460542e-01 +7.7328503416524494e+00 -8.6450181084516842e-01 -5.3432595337297911e+01 +4.3071415732785063e+03 +2.0061656080294368e+04 -2.9195177799002882e+07 
-4.2000000000000002e+00 -5.6465748042055020e-01 +7.7328708091067941e+00 -8.7011871420499665e-01 -5.3564852976299541e+01 +4.3713613333197691e+03 +1.9975751188867780e+04 -2.9360209443889894e+07 
-4.2999999999999998e+00 -5.6465773210363768e-01 +7.7328937493278520e+00 -8.7495412802502337e-01 -5.3754077375523643e+01 +4.4243082165839323e+03 +2.0132601806047034e+04 -2.9477603157978736e+07 
-4.4000000000000004e+00 -5.6465800591897508e-01 +7.7329189917047056e+00 -8.7905021751108492e-01 -5.3998232773859570e+01 +4.4665213417404757e+03 +2.0529466344045541e+04 -2.9549614642732829e+07 
-4.5000000000000000e+00 -5.6465830015158003e-01 +7.7329463656236799e+00 -8.8244914664393515e-01 -5.4295283288325415e+01 +4.4985397917835144e+03 +2.1163602450517119e+04 -2.9578499408323999e+07 
-4.5999999999999996e+00 -5.6465861308649234e-01 +7.7329757004789217e+00 -8.8519307879820042e-01 -5.4643193223131640e+01 +4.5209026308696975e+03 +2.2032268826597021e+04 -2.9566512870585844e+07 
-4.7000000000000002e+00 -5.6465894300877195e-01 +7.7330068256607056e+00 -8.8732417740161751e-01 -5.5039926723436899e+01 +4.5341489164842897e+03 +2.3132723201742781e+04 -2.9515910404794578e+07 
-4.7999999999999998e+00 -5.6465928820343358e-01 +7.7330395705672501e+00 -8.8888460188904306e-01 -5.5483448118686269e+01 +4.5388176134251817e+03 +2.4462224322717320e+04 -2.9428946916053720e+07 
-4.9000000000000004e+00 -5.6465964695546977e-01 +7.7330737645990117e+00 -8.8991651713667352e-01 -5.5971721742458968e+01 +4.5354477851619058e+03 +2.6018030887748180e+04 -2.9307877782066885e+07 
-5.0000000000000000e+00 -5.6466001754992490e-01 +7.7331092371614751e+00 -8.9046207926339604e-01 -5.6502712026258571e+01 +4.5245783130389700e+03 +2.7797402124765598e+04 -2.9154957487717062e+07 
-5.0999999999999996e+00 -5.6466039827181258e-01 +7.7331458176648962e+00 -8.9056345005634396e-01 -5.7074383480442449e+01 +4.5067481747573365e+03 +2.9797597654472116e+04 -2.8972440963066760e+07 
-5.2000000000000002e+00 -5.6466078740609293e-01 +7.7331833355225923e+00 -8.9026278846147111e-01 -5.7684700641526462e+01 +4.4824962766833187e+03 +3.2015877183234847e+04 -2.8762582770088609e+07 
-5.2999999999999998e+00 -5.6466118323775905e-01 +7.7332216201516424e+00 -8.8960225142288818e-01 -5.8331628087501272e+01 +4.4523614779684422e+03 +3.4449500584390771e+04 -2.8527637240393996e+07 
-5.4000000000000004e+00 -5.6466158405180567e-01 +7.7332605009772797e+00 -8.8862399644090218e-01 -5.9013130569612549e+01 +4.4168826295774516e+03 +3.7095728676333252e+04 -2.8269858636052452e+07 
-5.5000000000000000e+00 -5.6466198813314616e-01 +7.7332998074277874e+00 -8.8737017860127076e-01 -5.9727172848779453e+01 +4.3765985209771952e+03 +3.9951822245589668e+04 -2.7991500903917551e+07 
-5.5999999999999996e+00 -5.6466239376679617e-01 +7.7333393689412091e+00 -8.8588295510256143e-01 -6.0471719903709527e+01 +4.3320479649110512e+03 +4.3015043284492524e+04 -2.7694818078662705e+07 
-5.7000000000000002e+00 -5.6466279923763174e-01 +7.7333790149597226e+00 -8.8420447760119025e-01 -6.1244736744649671e+01 +4.2837696534859560e+03 +4.6282653862910636e+04 -2.7382063600047294e+07 
-5.7999999999999998e+00 -5.6466320283060345e-01 +7.7334185749293383e+00 -8.8237690270998803e-01 -6.2044188427074268e+01 +4.2323023508486222e+03 +4.9751916273299437e+04 -2.7055491215220310e+07 
-5.9000000000000004e+00 -5.6466360283056438e-01 +7.7334578783070365e+00 -8.8044238246447570e-01 -6.2868040220220060e+01 +4.1781847152423124e+03 +5.3420093902615510e+04 -2.6717354139866095e+07 
-5.9999999999999902e+00 -5.6466399752250551e-01 +7.7334967545590310e+00 -8.7844306733594835e-01 -6.3714257589530561e+01 +4.1219553601112748e+03 +5.7284451224290409e+04 -2.6369905360115007e+07 
-6.0999999999999899e+00 -5.6466438557130838e-01 +7.7335350423971283e+00 -8.7641413310473826e-01 -6.4580297549753610e+01 +4.0640920605239953e+03 +6.1337335092220812e+04 -2.6015174253740922e+07 
-6.1999999999999904e+00 -5.6466476715048863e-01 +7.7335726305229402e+00 -8.7436498127513118e-01 -6.5461708171530915e+01 +4.0048432678486870e+03 +6.5551615083452140e+04 -2.5654265212471358e+07 
-6.2999999999999901e+00 -5.6466514280761770e-01 +7.7336094233391339e+00 -8.7229915070654063e-01 -6.6353584797611504e+01 +3.9444042037419290e+03 +6.9895285104354552e+04 -2.5288045406769838e+07 
-6.3999999999999897e+00 -5.6466551309021817e-01 +7.7336453252455772e+00 -8.7022018278814428e-01 -6.7251022742974584e+01 +3.8829701295850691e+03 +7.4336338940958289e+04 -2.4917382150872655e+07 
-6.4999999999999902e+00 -5.6466587854573780e-01 +7.7336802406454517e+00 -8.6813162245235431e-01 -6.8149117488151660e+01 +3.8207363744751224e+03 +7.8842771417968266e+04 -2.4543143059349094e+07 
-6.5999999999999899e+00 -5.6466623972168728e-01 +7.7337140739406340e+00 -8.6603702171587948e-01 -6.9042964550391645e+01 +3.7578983996480788e+03 +8.3382577667156351e+04 -2.4166196344661467e+07 
-6.6999999999999904e+00 -5.6466659716545875e-01 +7.7337467295341726e+00 -8.6393993743821818e-01 -6.9927659560443658e+01 +3.6946517545942247e+03 +8.7923753569007720e+04 -2.3787410604939345e+07 
-6.7999999999999901e+00 -5.6466695142445411e-01 +7.7337781118342095e+00 -8.6184392995212278e-01 -7.0798298381322795e+01 +3.6311920533627190e+03 +9.2434296462413753e+04 -2.3407654714525606e+07 
-6.8999999999999897e+00 -5.6466730304602597e-01 +7.7338081252442334e+00 -8.5975256673291089e-01 -7.1649976819533720e+01 +3.5677150422329373e+03 +9.6882203444462095e+04 -2.3027798140304916e+07 
-6.9999999999999902e+00 -5.6466765257751961e-01 +7.7338366741738538e+00 -8.5766942058262119e-01 -7.2477790953126203e+01 +3.5044165664759980e+03 +1.0123547330480283e+05 -2.2648710786361728e+07 
-7.0999999999999899e+00 -5.6466800056618471e-01 +7.7338636630329551e+00 -8.5559807085221984e-01 -7.3276836955381896e+01 +3.4414925971609864e+03 +1.0546210548681575e+05 -2.2271263129737981e+07 
-7.1999999999999904e+00 -5.6466834755926942e-01 +7.7338889962258586e+00 -8.5354210110591244e-01 -7.4042210936034095e+01 +3.3791391778120951e+03 +1.0953009918802882e+05 -2.1896325940499935e+07 
-7.2999999999999901e+00 -5.6466869410399645e-01 +7.7339125781698934e+00 -8.5150510310531480e-01 -7.4769009479873716e+01 +3.3175525078397595e+03 +1.1340745647754986e+05 -2.1524770699899442e+07 
-7.3999999999999897e+00 -5.6466904074747681e-01 +7.7339343132756087e+00 -8.4949067358674568e-01 -7.5452329071936717e+01 +3.2569288801581861e+03 +1.1706217895624024e+05 -2.1157469298099358e+07 
-7.4999999999999902e+00 -5.6466938803690159e-01 +7.7339541059553785e+00 -8.4750241756829314e-01 -7.6087266361950654e+01 +3.1974647396627834e+03 +1.2046226932621254e+05 -2.0795294300358225e+07 
-7.5999999999999899e+00 -5.6466973651924179e-01 +7.7339718606294721e+00 -8.4554394847626146e-01 -7.6668918332249589e+01 +3.1393566913735676e+03 +1.2357573233790626e+05 -2.0439118999015905e+07 
-7.6999999999999904e+00 -5.6467008674157249e-01 +7.7339874817079837e+00 -8.4361888185147493e-01 -7.7192381781191315e+01 +3.0828013775150207e+03 +1.2637057180685048e+05 -2.0089816820609536e+07 
-7.7999999999999901e+00 -5.6467043925090721e-01 +7.7340008736121906e+00 -8.4173084254990127e-01 -7.7652753945978574e+01 +3.0279956140974209e+03 +1.2881479423056304e+05 -1.9748261971912105e+07 
-7.8999999999999897e+00 -5.6467079459411240e-01 +7.7340119407653027e+00 -8.3988346821143534e-01 -7.8045132238325706e+01 +2.9751364592005039e+03 +1.3087640726635313e+05 -1.9415329771477606e+07 
-7.9999999999999902e+00 -5.6467115331813433e-01 +7.7340205875853538e+00 -8.3808039523876576e-01 -7.8364614054861804e+01 +2.9244209423065190e+03 +1.3252341855201212e+05 -1.9091895357367653e+07 
-8.0999999999999908e+00 -5.6467151591344789e-01 +7.7340267788367827e+00 -8.3632333142270121e-01 -7.8608499406391445e+01 +2.8759838502825546e+03 +1.3373670263578923e+05 -1.8778610930536270e+07 
-8.1999999999999904e+00 -5.6467188267023150e-01 +7.7340307151801593e+00 -8.3460595123108516e-01 -7.8782848589392316e+01 +2.8297583636572595e+03 +1.3454932925114417e+05 -1.8475585524130944e+07 
-8.2999999999999901e+00 -5.6467225383486597e-01 +7.7340326552724061e+00 -8.3291981236681933e-01 -7.8895919581167021e+01 +2.7856388133209161e+03 +1.3500772399795361e+05 -1.8182881494698878e+07 
-8.3999999999999897e+00 -5.6467262965380005e-01 +7.7340328577652873e+00 -8.3125646627372474e-01 -7.8955970233381890e+01 +2.7435194233160228e+03 +1.3515831218500249e+05 -1.7900560763404079e+07 
-8.4999999999999893e+00 -5.6467301037360373e-01 +7.7340315812997957e+00 -8.2960745404219316e-01 -7.8971258066117514e+01 +2.7032942493930550e+03 +1.3504751748203734e+05 -1.7628684563135382e+07 
-8.5999999999999908e+00 -5.6467339624082658e-01 +7.7340290845141526e+00 -8.2796431192418229e-01 -7.8950040503018627e+01 +2.6648572715384125e+03 +1.3472176330562818e+05 -1.7367313845129780e+07 
-8.6999999999999904e+00 -5.6467378750214869e-01 +7.7340256260375009e+00 -8.2631856364270373e-01 -7.8900574691339727e+01 +2.6281022547846487e+03 +1.3422747178842922e+05 -1.7116508639634054e+07 
-8.7999999999999794e+00 -5.6467418440428041e-01 +7.7340214644855001e+00 -8.2466172910186963e-01 -7.8831117362729856e+01 +2.5929229120310902e+03 +1.3361106295967425e+05 -1.6876328822103813e+07 
-8.8999999999999808e+00 -5.6467458719405694e-01 +7.7340168584750719e+00 -8.2298531639705319e-01 -7.8749925266237426e+01 +2.5592127536712756e+03 +1.3291895727889764e+05 -1.6646833402654829e+07 
-8.9999999999999805e+00 -5.6467499611831451e-01 +7.7340120666053824e+00 -8.2128082658476265e-01 -7.8665254622104953e+01 +2.5268651811784252e+03 +1.3219757248509311e+05 -1.6428080982677694e+07 
-9.0999999999999801e+00 -5.6467541142399902e-01 +7.7340073474751589e+00 -8.1953975075058172e-01 -7.8585361603642525e+01 +2.4957734292703744e+03 +1.3149332636134792e+05 -1.6220129473030344e+07 
-9.1999999999999797e+00 -5.6467583335812210e-01 +7.7340029596650304e+00 -8.1775357183377861e-01 -7.8518501852477826e+01 +2.4658306020180903e+03 +1.3085263399353696e+05 -1.6023036271606997e+07 
-9.2999999999999794e+00 -5.6467626216783007e-01 +7.7339991617544301e+00 -8.1591375962091972e-01 -7.8472930936268924e+01 +2.4369295780394446e+03 +1.3032191036342402e+05 -1.5836857814924773e+07 
-9.3999999999999808e+00 -5.6467669810026888e-01 +7.7339962123097665e+00 -8.1401177725724083e-01 -7.8456904032148984e+01 +2.4089631378889226e+03 +1.2994756857731828e+05 -1.5661650194294756e+07 
-9.4999999999999805e+00 -5.6467714140270719e-01 +7.7339943698890572e+00 -8.1203907584839541e-01 -7.8478676039157023e+01 +2.3818238550128003e+03 +1.2977602048434941e+05 -1.5497468620829992e+07 
-9.5999999999999801e+00 -5.6467759232246950e-01 +7.7339938930375194e+00 -8.0998709991584095e-01 -7.8546501458130535e+01 +2.3554042078227858e+03 +1.2985367600418530e+05 -1.5344367984013947e+07 
-9.6999999999999797e+00 -5.6467805110706049e-01 +7.7339950402943289e+00 -8.0784727518761712e-01 -7.8668634593880029e+01 +2.3295963450111021e+03 +1.3022694432706137e+05 -1.5202401727464529e+07 
-9.7999999999999794e+00 -5.6467851800396340e-01 +7.7339980701869226e+00 -8.0561102348819313e-01 -7.8853329377622885e+01 +2.3042923696601620e+03 +1.3094223286734267e+05 -1.5071623204341389e+07 
-9.8999999999999808e+00 -5.6467899326078630e-01 +7.7340032412318589e+00 -8.0326975405565737e-01 -7.9108839386546421e+01 +2.2793841711266186e+03 +1.3204594736001000e+05 -1.4952084873076214e+07 
-9.9999999999999805e+00 -5.6467947712529509e-01 +7.7340108119310109e+00 -8.0081486092804111e-01 -7.9443417749096682e+01 +2.2547633865991170e+03 +1.3358449168945861e+05 -1.4843838116449300e+07 
-1.0100000000000000e+01 -5.6467996970437084e-01 +7.7340209762325349e+00 -7.9824596071352460e-01 -7.9862970740730972e+01 +2.2304255668371488e+03 +1.3559131989607654e+05 -1.4747180206147984e+07 
