# field on trajectory
# s[mm] rx[mm] ry[mm] rz[mm] bx[T] by[T] bz[T]
0.0000000000000000e+00 +8.1529999999999987e+00 +0.0000000000000000e+00 +0.0000000000000000e+00 -3.1481992577476449e-02 -5.9245918840111889e-01 +5.9116629606008244e-03
1.0000000000000001e-01 +8.1529997169777797e+00 +0.0000000000000000e+00 +9.9999999999466002e-02 -3.1482036944485127e-02 -5.9245939859766406e-01 +5.9116117078438649e-03
2.0000000000000001e-01 +8.1529988679109913e+00 +0.0000000000000000e+00 +1.9999999999572793e-01 -3.1482091685538012e-02 -5.9245958607928084e-01 +5.9115609022771833e-03
3.0000000000000004e-01 +8.1529974527994540e+00 +0.0000000000000000e+00 +2.9999999998558169e-01 -3.1482156299392883e-02 -5.9245975197369749e-01 +5.9115105466266927e-03
4.0000000000000002e-01 +8.1529954716430098e+00 +0.0000000000000000e+00 +3.9999999996582325e-01 -3.1482230284801634e-02 -5.9245989740864180e-01 +5.9114606436187246e-03
5.0000000000000000e-01 +8.1529929244415200e+00 +0.0000000000000000e+00 +4.9999999993324856e-01 -3.1482313140511128e-02 -5.9246002351183902e-01 +5.9114111959801090e-03
5.9999999999999998e-01 +8.1529898111948622e+00 +0.0000000000000000e+00 +5.9999999988465347e-01 -3.1482404365264262e-02 -5.9246013141100939e-01 +5.9113622064383186e-03
6.9999999999999996e-01 +8.1529861319029351e+00 +0.0000000000000000e+00 +6.9999999981683403e-01 -3.1482503457801014e-02 -5.9246022223387151e-01 +5.9113136777215860e-03
7.9999999999999993e-01 +8.1529818865656516e+00 +0.0000000000000000e+00 +7.9999999972658609e-01 -3.1482609916859326e-02 -5.9246029710813763e-01 +5.9112656125590171e-03
8.9999999999999991e-01 +8.1529770751829407e+00 +0.0000000000000000e+00 +8.9999999961070554e-01 -3.1482723241176243e-02 -5.9246035716151502e-01 +5.9112180136807295e-03
9.9999999999999989e-01 +8.1529716977547455e+00 +0.0000000000000000e+00 +9.9999999946598839e-01 -3.1482842929488740e-02 -5.9246040352170515e-01 +5.9111708838179540e-03
1.0999999999999999e+00 +8.1529657542810199e+00 +0.0000000000000000e+00 +1.0999999992892304e+00 -3.1482968480534904e-02 -5.9246043731640152e-01 +5.9111242257031743e-03
1.2000000000000000e+00 +8.1529592447617336e+00 +0.0000000000000000e+00 +1.1999999990772277e+00 -3.1483099393054846e-02 -5.9246045967329075e-01 +5.9110780420702381e-03
1.3000000000000000e+00 +8.1529521691968636e+00 +0.0000000000000000e+00 +1.2999999988267761e+00 -3.1483235165791615e-02 -5.9246047172005101e-01 +5.9110323356544731e-03
1.4000000000000001e+00 +8.1529445275863992e+00 +0.0000000000000000e+00 +1.3999999985346716e+00 -3.1483375297492372e-02 -5.9246047458435036e-01 +5.9109871091928270e-03
1.5000000000000002e+00 +8.1529363199303386e+00 +0.0000000000000000e+00 +1.4999999981977099e+00 -3.1483519286909283e-02 -5.9246046939384855e-01 +5.9109423654239747e-03
1.6000000000000003e+00 +8.1529275462286872e+00 +0.0000000000000000e+00 +1.5999999978126871e+00 -3.1483666632800500e-02 -5.9246045727619334e-01 +5.9108981070884400e-03
1.7000000000000004e+00 +8.1529182064814556e+00 +0.0000000000000000e+00 +1.6999999973763993e+00 -3.1483816833931227e-02 -5.9246043935902137e-01 +5.9108543369287263e-03
1.8000000000000005e+00 +8.1529083006886616e+00 +0.0000000000000000e+00 +1.7999999968856422e+00 -3.1483969389074697e-02 -5.9246041676995764e-01 +5.9108110576894281e-03
1.9000000000000006e+00 +8.1528978288503264e+00 +0.0000000000000000e+00 +1.8999999963372116e+00 -3.1484123797013125e-02 -5.9246039063661382e-01 +5.9107682721173619e-03
2.0000000000000004e+00 +8.1528867909664751e+00 +0.0000000000000000e+00 +1.9999999957279038e+00 -3.1484279556538777e-02 -5.9246036208658792e-01 +5.9107259829616733e-03
2.1000000000000005e+00 +8.1528751870371359e+00 +0.0000000000000000e+00 +2.0999999950545143e+00 -3.1484436186033415e-02 -5.9246033233278728e-01 +5.9106842079440797e-03
2.2000000000000006e+00 +8.1528630170623373e+00 +0.0000000000000000e+00 +2.1999999943138393e+00 -3.1484593282203488e-02 -5.9246030292940577e-01 +5.9106430246682303e-03
2.3000000000000007e+00 +8.1528502810421077e+00 +0.0000000000000000e+00 +2.2999999935026749e+00 -3.1484750461343212e-02 -5.9246027551597136e-01 +5.9106025257074724e-03
2.4000000000000008e+00 +8.1528369789764739e+00 +0.0000000000000000e+00 +2.3999999926178166e+00 -3.1484907339756112e-02 -5.9246025173202610e-01 +5.9105628036342454e-03
2.5000000000000009e+00 +8.1528231108654587e+00 +0.0000000000000000e+00 +2.4999999916560607e+00 -3.1485063533755721e-02 -5.9246023321712926e-01 +5.9105239510198410e-03
2.6000000000000010e+00 +8.1528086767090802e+00 +0.0000000000000000e+00 +2.5999999906142026e+00 -3.1485218659666095e-02 -5.9246022161085932e-01 +5.9104860604341346e-03
2.7000000000000011e+00 +8.1527936765073505e+00 +0.0000000000000000e+00 +2.6999999894890387e+00 -3.1485372333822217e-02 -5.9246021855281561e-01 +5.9104492244453442e-03
2.8000000000000012e+00 +8.1527781102602717e+00 +0.0000000000000000e+00 +2.7999999882773650e+00 -3.1485524172570750e-02 -5.9246022568262313e-01 +5.9104135356197792e-03
2.9000000000000012e+00 +8.1527619779678382e+00 +0.0000000000000000e+00 +2.8999999869759772e+00 -3.1485673792270408e-02 -5.9246024463993208e-01 +5.9103790865215871e-03
3.0000000000000013e+00 +8.1527452796300306e+00 +0.0000000000000000e+00 +2.9999999855816712e+00 -3.1485820809292575e-02 -5.9246027706442161e-01 +5.9103459697124926e-03
3.1000000000000014e+00 +8.1527280152468204e+00 +0.0000000000000000e+00 +3.0999999840912431e+00 -3.1485964840021814e-02 -5.9246032459580211e-01 +5.9103142777515586e-03
3.2000000000000015e+00 +8.1527101848181616e+00 +0.0000000000000000e+00 +3.1999999825014886e+00 -3.1486105500856412e-02 -5.9246038887381747e-01 +5.9102841031949413e-03
3.3000000000000016e+00 +8.1526917883439936e+00 +0.0000000000000000e+00 +3.2999999808092038e+00 -3.1486242408208943e-02 -5.9246047153824799e-01 +5.9102555385956148e-03
3.4000000000000017e+00 +8.1526728258242365e+00 +0.0000000000000000e+00 +3.3999999790111843e+00 -3.1486375178506783e-02 -5.9246057422891141e-01 +5.9102286765031374e-03
3.5000000000000018e+00 +8.1526532972587944e+00 +0.0000000000000000e+00 +3.4999999771042263e+00 -3.1486503428192654e-02 -5.9246069858566663e-01 +5.9102036094634009e-03
3.6000000000000019e+00 +8.1526332026475483e+00 +0.0000000000000000e+00 +3.5999999750851259e+00 -3.1486626773725164e-02 -5.9246084624841555e-01 +5.9101804300183570e-03
3.7000000000000020e+00 +8.1526125419903579e+00 +0.0000000000000000e+00 +3.6999999729506787e+00 -3.1486744831579365e-02 -5.9246101885710567e-01 +5.9101592307058111e-03
3.8000000000000020e+00 +8.1525913152870579e+00 +0.0000000000000000e+00 +3.7999999706976806e+00 -3.1486857218247240e-02 -5.9246121805173146e-01 +5.9101401040591176e-03
3.9000000000000021e+00 +8.1525695225374601e+00 +0.0000000000000000e+00 +3.8999999683229274e+00 -3.1486963550238355e-02 -5.9246144547233870e-01 +5.9101231426069573e-03
4.0000000000000018e+00 +8.1525471637413460e+00 +0.0000000000000000e+00 +3.9999999658232150e+00 -3.1487063444080220e-02 -5.9246170275902466e-01 +5.9101084388730922e-03
4.1000000000000014e+00 +8.1525242388984722e+00 +0.0000000000000000e+00 +4.0999999631953390e+00 -3.1487156626412119e-02 -5.9246199098556795e-01 +5.9100960589296581e-03
4.2000000000000011e+00 +8.1525007480085634e+00 +0.0000000000000000e+00 +4.1999999604360960e+00 -3.1487243264251563e-02 -5.9246230896027563e-01 +5.9100859630597403e-03
4.3000000000000007e+00 +8.1524766910713158e+00 +0.0000000000000000e+00 +4.2999999575422816e+00 -3.1487323634690624e-02 -5.9246265492505790e-01 +5.9100780851005031e-03
4.4000000000000004e+00 +8.1524520680864008e+00 +0.0000000000000000e+00 +4.3999999545106911e+00 -3.1487398014797267e-02 -5.9246302712179089e-01 +5.9100723588903442e-03
4.5000000000000000e+00 +8.1524268790534631e+00 +0.0000000000000000e+00 +4.4999999513381210e+00 -3.1487466681613618e-02 -5.9246342379231620e-01 +5.9100687182690563e-03
4.5999999999999996e+00 +8.1524011239721261e+00 +0.0000000000000000e+00 +4.5999999480213667e+00 -3.1487529912153825e-02 -5.9246384317843637e-01 +5.9100670970779765e-03
4.6999999999999993e+00 +8.1523748028419885e+00 +0.0000000000000000e+00 +4.6999999445572236e+00 -3.1487587983402357e-02 -5.9246428352191283e-01 +5.9100674291601117e-03
4.7999999999999989e+00 +8.1523479156626308e+00 +0.0000000000000000e+00 +4.7999999409424881e+00 -3.1487641172311918e-02 -5.9246474306446328e-01 +5.9100696483603086e-03
4.8999999999999986e+00 +8.1523204624336163e+00 +0.0000000000000000e+00 +4.8999999371739555e+00 -3.1487689755801664e-02 -5.9246522004775704e-01 +5.9100736885253921e-03
4.9999999999999982e+00 +8.1522924431544883e+00 +0.0000000000000000e+00 +4.9999999332484215e+00 -3.1487734010755164e-02 -5.9246571271341486e-01 +5.9100794835043038e-03
5.0999999999999979e+00 +8.1522638578247779e+00 +0.0000000000000000e+00 +5.0999999291626823e+00 -3.1487774214018577e-02 -5.9246621930300369e-01 +5.9100869671482670e-03
5.1999999999999975e+00 +8.1522347064440037e+00 +0.0000000000000000e+00 +5.1999999249135334e+00 -3.1487810642398611e-02 -5.9246673805803463e-01 +5.9100960733109165e-03
5.2999999999999972e+00 +8.1522049890116683e+00 +0.0000000000000000e+00 +5.2999999204977710e+00 -3.1487843572660774e-02 -5.9246726721996024e-01 +5.9101067358484560e-03
5.3999999999999968e+00 +8.1521747055272691e+00 +0.0000000000000000e+00 +5.3999999159121899e+00 -3.1487873281527322e-02 -5.9246780503017105e-01 +5.9101188886198034e-03
5.4999999999999964e+00 +8.1521438559902926e+00 +0.0000000000000000e+00 +5.4999999111535862e+00 -3.1487900045675365e-02 -5.9246834972999352e-01 +5.9101324654867327e-03
5.5999999999999961e+00 +8.1521124404002201e+00 +0.0000000000000000e+00 +5.5999999062187564e+00 -3.1487924141734965e-02 -5.9246889956068660e-01 +5.9101474003140234e-03
5.6999999999999957e+00 +8.1520804587565276e+00 +0.0000000000000000e+00 +5.6999999011044951e+00 -3.1487945846287259e-02 -5.9246945276343854e-01 +5.9101636269696172e-03
5.7999999999999954e+00 +8.1520479110586876e+00 +0.0000000000000000e+00 +5.7999998958075984e+00 -3.1487965435862429e-02 -5.9247000757936441e-01 +5.9101810793247443e-03
5.8999999999999950e+00 +8.1520147973061707e+00 +0.0000000000000000e+00 +5.8999998903248621e+00 -3.1487983186937893e-02 -5.9247056224950345e-01 +5.9101996912540918e-03
5.9999999999999947e+00 +8.1519811174984493e+00 +0.0000000000000000e+00 +5.9999998846530813e+00 -3.1487999375936326e-02 -5.9247111501481531e-01 +5.9102193966359424e-03
6.0999999999999943e+00 +8.1519468716349959e+00 +0.0000000000000000e+00 +6.0999998787890517e+00 -3.1488014304772799e-02 -5.9247166442769084e-01 +5.9102401390230229e-03
6.1999999999999940e+00 +8.1519120597152863e+00 +0.0000000000000000e+00 +6.1999998727295695e+00 -3.1488028377518858e-02 -5.9247221028652930e-01 +5.9102619006549464e-03
6.2999999999999936e+00 +8.1518766817388002e+00 +0.0000000000000000e+00 +6.2999998664714294e+00 -3.1488042023786661e-02 -5.9247275270126742e-01 +5.9102846734461608e-03
6.3999999999999932e+00 +8.1518407377050206e+00 +0.0000000000000000e+00 +6.3999998600114276e+00 -3.1488055673184578e-02 -5.9247329178187458e-01 +5.9103084493153163e-03
6.4999999999999929e+00 +8.1518042276134324e+00 +0.0000000000000000e+00 +6.4999998533463597e+00 -3.1488069755317503e-02 -5.9247382763835588e-01 +5.9103332201854101e-03
6.5999999999999925e+00 +8.1517671514635257e+00 +0.0000000000000000e+00 +6.5999998464730218e+00 -3.1488084699787269e-02 -5.9247436038075307e-01 +5.9103589779839405e-03
6.6999999999999922e+00 +8.1517295092547926e+00 +0.0000000000000000e+00 +6.6999998393882088e+00 -3.1488100936192892e-02 -5.9247489011914600e-01 +5.9103857146430589e-03
6.7999999999999918e+00 +8.1516913009867285e+00 +0.0000000000000000e+00 +6.7999998320887158e+00 -3.1488118894130938e-02 -5.9247541696365713e-01 +5.9104134220997057e-03
6.8999999999999915e+00 +8.1516525266588324e+00 +0.0000000000000000e+00 +6.8999998245713394e+00 -3.1488139003195963e-02 -5.9247594102444989e-01 +5.9104420922957666e-03
6.9999999999999911e+00 +8.1516131862706036e+00 +0.0000000000000000e+00 +6.9999998168328750e+00 -3.1488161692980639e-02 -5.9247646241173257e-01 +5.9104717171782201e-03
7.0999999999999908e+00 +8.1515732798215446e+00 +0.0000000000000000e+00 +7.0999998088701179e+00 -3.1488187393076274e-02 -5.9247698123576087e-01 +5.9105022886992891e-03
7.1999999999999904e+00 +8.1515328073111615e+00 +0.0000000000000000e+00 +7.1999998006798638e+00 -3.1488216533073085e-02 -5.9247749760683743e-01 +5.9105337988165779e-03
7.2999999999999901e+00 +8.1514917687389623e+00 +0.0000000000000000e+00 +7.2999997922589079e+00 -3.1488249542560499e-02 -5.9247801163531566e-01 +5.9105662394932359e-03
7.3999999999999897e+00 +8.1514501641044586e+00 +0.0000000000000000e+00 +7.3999997836040459e+00 -3.1488286851127513e-02 -5.9247852343160090e-01 +5.9105996026980840e-03
7.4999999999999893e+00 +8.1514079934071599e+00 +0.0000000000000000e+00 +7.4999997747120730e+00 -3.1488328888363129e-02 -5.9247903310615246e-01 +5.9106338804057962e-03
7.5999999999999890e+00 +8.1513652566465833e+00 +0.0000000000000000e+00 +7.5999997655797857e+00 -3.1488376083856483e-02 -5.9247954076948506e-01 +5.9106690645970095e-03
7.6999999999999886e+00 +8.1513219538222437e+00 +0.0000000000000000e+00 +7.6999997562039786e+00 -3.1488428867197410e-02 -5.9248004653217168e-01 +5.9107051472585062e-03
7.7999999999999883e+00 +8.1512780849336597e+00 +0.0000000000000000e+00 +7.7999997465814479e+00 -3.1488487667976572e-02 -5.9248055050484416e-01 +5.9107421203833353e-03
7.8999999999999879e+00 +8.1512336499803499e+00 +0.0000000000000000e+00 +7.8999997367089883e+00 -3.1488552915785964e-02 -5.9248105279819629e-01 +5.9107799759709825e-03
7.9999999999999876e+00 +8.1511886489618384e+00 +0.0000000000000000e+00 +7.9999997265833960e+00 -3.1488625040219126e-02 -5.9248155352298448e-01 +5.9108187060274986e-03
8.0999999999999872e+00 +8.1511430818776454e+00 +0.0000000000000000e+00 +8.0999997162014665e+00 -3.1488704331539476e-02 -5.9248205270784782e-01 +5.9108582861713624e-03
8.1999999999999869e+00 +8.1510969487272966e+00 +0.0000000000000000e+00 +8.1999997055599945e+00 -3.1488790522704341e-02 -5.9248255005272310e-01 +5.9108986264451921e-03
8.2999999999999865e+00 +8.1510502495103196e+00 +0.0000000000000000e+00 +8.2999996946557761e+00 -3.1488883207407538e-02 -5.9248304517533501e-01 +5.9109396204902491e-03
8.3999999999999861e+00 +8.1510029842262419e+00 +0.0000000000000000e+00 +8.3999996834856070e+00 -3.1488981979422626e-02 -5.9248353769337325e-01 +5.9109811619394619e-03
8.4999999999999858e+00 +8.1509551528745945e+00 +0.0000000000000000e+00 +8.4999996720462825e+00 -3.1489086432605215e-02 -5.9248402722448834e-01 +5.9110231444171376e-03
8.5999999999999854e+00 +8.1509067554549102e+00 +0.0000000000000000e+00 +8.5999996603345963e+00 -3.1489196160895752e-02 -5.9248451338629216e-01 +5.9110654615386555e-03
8.6999999999999851e+00 +8.1508577919667271e+00 +0.0000000000000000e+00 +8.6999996483473456e+00 -3.1489310758322030e-02 -5.9248499579635650e-01 +5.9111080069101495e-03
8.7999999999999847e+00 +8.1508082624095870e+00 +0.0000000000000000e+00 +8.7999996360813260e+00 -3.1489429819001789e-02 -5.9248547407221108e-01 +5.9111506741282094e-03
8.8999999999999844e+00 +8.1507581667830333e+00 +0.0000000000000000e+00 +8.8999996235333327e+00 -3.1489552937145282e-02 -5.9248594783134256e-01 +5.9111933567795628e-03
8.9999999999999840e+00 +8.1507075050866149e+00 +0.0000000000000000e+00 +8.9999996107001614e+00 -3.1489679707057933e-02 -5.9248641669119384e-01 +5.9112359484407868e-03
9.0999999999999837e+00 +8.1506562773198858e+00 +0.0000000000000000e+00 +9.0999995975786074e+00 -3.1489809723142845e-02 -5.9248688026916163e-01 +5.9112783426779839e-03
9.1999999999999833e+00 +8.1506044834824039e+00 +0.0000000000000000e+00 +9.1999995841654645e+00 -3.1489942579903424e-02 -5.9248733818259647e-01 +5.9113204330464722e-03
9.2999999999999829e+00 +8.1505521235737355e+00 +0.0000000000000000e+00 +9.2999995704575298e+00 -3.1490077871945993e-02 -5.9248779004879959e-01 +5.9113621130905030e-03
9.3999999999999826e+00 +8.1504991975934491e+00 +0.0000000000000000e+00 +9.3999995564515988e+00 -3.1490215193982360e-02 -5.9248823548502438e-01 +5.9114032763429216e-03
9.4999999999999822e+00 +8.1504457055411201e+00 +0.0000000000000000e+00 +9.4999995421444652e+00 -3.1490354140832365e-02 -5.9248867410847184e-01 +5.9114438163248850e-03
9.5999999999999819e+00 +8.1503916474163329e+00 +0.0000000000000000e+00 +9.5999995275329262e+00 -3.1490494307426536e-02 -5.9248910553629286e-01 +5.9114836265455328e-03
9.6999999999999815e+00 +8.1503370232186754e+00 +0.0000000000000000e+00 +9.6999995126137772e+00 -3.1490635288808681e-02 -5.9248952938558286e-01 +5.9115226005017106e-03
9.7999999999999812e+00 +8.1502818329477460e+00 +0.0000000000000000e+00 +9.7999994973838120e+00 -3.1490776680138381e-02 -5.9248994527338439e-01 +5.9115606316776257e-03
9.8999999999999808e+00 +8.1502260766031487e+00 +0.0000000000000000e+00 +9.8999994818398278e+00 -3.1490918076693679e-02 -5.9249035281668283e-01 +5.9115976135445687e-03
9.9999999999999805e+00 +8.1501697541844944e+00 +0.0000000000000000e+00 +9.9999994659786182e+00 -3.1491059073873645e-02 -5.9249075163240728e-01 +5.9116334395605957e-03
1.0099999999999980e+01 +8.1501128656914066e+00 +0.0000000000000000e+00 +1.0099999449796980e+01 -3.1491199253510134e-02 -5.9249114166368233e-01 +5.9116680381623415e-03
1.0199999999999980e+01 +8.1500554111235122e+00 +0.0000000000000000e+00 +1.0199999433291708e+01 -3.1491338142732334e-02 -5.9249152415863826e-01 +5.9117014777489620e-03
1.0299999999999979e+01 +8.1499973904804488e+00 +0.0000000000000000e+00 +1.0299999416459599e+01 -3.1491475254926841e-02 -5.9249190069168345e-01 +5.9117338617143949e-03
1.0399999999999979e+01 +8.1499388037618576e+00 +0.0000000000000000e+00 +1.0399999399297446e+01 -3.1491610103410693e-02 -5.9249227283724792e-01 +5.9117652934555960e-03
1.0499999999999979e+01 +8.1498796509673852e+00 +0.0000000000000000e+00 +1.0499999381802045e+01 -3.1491742201429258e-02 -5.9249264216978392e-01 +5.9117958763726733e-03
1.0599999999999978e+01 +8.1498199320966798e+00 +0.0000000000000000e+00 +1.0599999363970193e+01 -3.1491871062154050e-02 -5.9249301026376622e-01 +5.9118257138689682e-03
1.0699999999999978e+01 +8.1497596471493914e+00 +0.0000000000000000e+00 +1.0699999345798684e+01 -3.1491996198680414e-02 -5.9249337869369223e-01 +5.9118549093511840e-03
1.0799999999999978e+01 +8.1496987961251719e+00 +0.0000000000000000e+00 +1.0799999327284313e+01 -3.1492117124025519e-02 -5.9249374903408458e-01 +5.9118835662294918e-03
1.0899999999999977e+01 +8.1496373790236678e+00 +0.0000000000000000e+00 +1.0899999308423876e+01 -3.1492233351126005e-02 -5.9249412285948988e-01 +5.9119117879176189e-03
1.0999999999999977e+01 +8.1495753958445238e+00 +0.0000000000000000e+00 +1.0999999289214168e+01 -3.1492344392835894e-02 -5.9249450174448093e-01 +5.9119396778329926e-03
1.1099999999999977e+01 +8.1495128465873794e+00 +0.0000000000000000e+00 +1.1099999269651985e+01 -3.1492449761924390e-02 -5.9249488726365596e-01 +5.9119673393968159e-03
1.1199999999999976e+01 +8.1494497312518686e+00 +0.0000000000000000e+00 +1.1199999249734121e+01 -3.1492548971073633e-02 -5.9249528099164128e-01 +5.9119948760341942e-03
1.1299999999999976e+01 +8.1493860498376165e+00 +0.0000000000000000e+00 +1.1299999229457374e+01 -3.1492641532876571e-02 -5.9249568450308943e-01 +5.9120223911742339e-03
1.1399999999999975e+01 +8.1493218023442395e+00 +0.0000000000000000e+00 +1.1399999208818535e+01 -3.1492726959834787e-02 -5.9249609937268344e-01 +5.9120499882501648e-03
1.1499999999999975e+01 +8.1492569887713451e+00 +0.0000000000000000e+00 +1.1499999187814403e+01 -3.1492804764356175e-02 -5.9249652717513313e-01 +5.9120777706994287e-03
1.1599999999999975e+01 +8.1491916091185246e+00 +0.0000000000000000e+00 +1.1599999166441773e+01 -3.1492874458752949e-02 -5.9249696948518016e-01 +5.9121058419638068e-03
1.1699999999999974e+01 +8.1491256633853570e+00 +0.0000000000000000e+00 +1.1699999144697438e+01 -3.1492935555239326e-02 -5.9249742787759518e-01 +5.9121343054895090e-03
1.1799999999999974e+01 +8.1490591515714073e+00 +0.0000000000000000e+00 +1.1799999122578194e+01 -3.1492987565929359e-02 -5.9249790392718094e-01 +5.9121632647273015e-03
