# multipoles
# s[mm] polynom_b[n=0][T/m^n] polynom_b[n=1][T/m^n] polynom_b[n=2][T/m^n] polynom_b[n=3][T/m^n] polynom_b[n=4][T/m^n] polynom_b[n=5][T/m^n] polynom_b[n=6][T/m^n] 
+0.0000000000000000e+00 -5.9307129152299110e-01 +8.1010130108913376e+00 -1.6155412502843198e+00 +6.0977833320760759e+01 +1.2343060203862215e+04 -5.1813927418872912e+05 -5.8367672099970013e+07 
-1.0000000000000001e-01 -5.9307155437797787e-01 +8.1010293918406777e+00 -1.6132307757487068e+00 +6.1112461141337107e+01 +1.2316732591720029e+04 -5.2001753755329474e+05 -5.8244894221786723e+07 
-2.0000000000000001e-01 -5.9307181775925655e-01 +8.1010458017358449e+00 -1.6116331461768199e+00 +6.1252564894078425e+01 +1.2300235776471789e+04 -5.2186643696009630e+05 -5.8160440252644435e+07 
-3.0000000000000004e-01 -5.9307208098399355e-01 +8.1010622860802108e+00 -1.6107084294361891e+00 +6.1394716037426548e+01 +1.2292938292116667e+04 -5.2366982252497092e+05 -5.8112042553705804e+07 
-4.0000000000000002e-01 -5.9307234336936887e-01 +8.1010788903719959e+00 -1.6104166919167955e+00 +6.1535486205521671e+01 +1.2294208643456634e+04 -5.2541154544494057e+05 -5.8097433346624732e+07 
-5.0000000000000000e-01 -5.9307260423255015e-01 +8.1010956601167798e+00 -1.6107180016889961e+00 +6.1671446810046277e+01 +1.2303415366684454e+04 -5.2707545558277122e+05 -5.8114345003799789e+07 
-5.9999999999999998e-01 -5.9307286289073291e-01 +8.1011126408224161e+00 -1.6115724226150334e+00 +6.1799169249892188e+01 +1.2319926912812736e+04 -5.2864540284383891e+05 -5.8160509482271381e+07 
-6.9999999999999996e-01 -5.9307311866108070e-01 +8.1011298779957848e+00 -1.6129400227819495e+00 +6.1915224944653112e+01 +1.2343111814272870e+04 -5.3010523719030467e+05 -5.8233659133022554e+07 
-7.9999999999999993e-01 -5.9307337086078282e-01 +8.1011474171511555e+00 -1.6147808668572523e+00 +6.2016185143413800e+01 +1.2372338539471055e+04 -5.3143880766706273e+05 -5.8331526010599814e+07 
-8.9999999999999991e-01 -5.9307361880705201e-01 +8.1011653037984654e+00 -1.6170550161910051e+00 +6.2098621230360038e+01 +1.2406975491846380e+04 -5.3262996407222550e+05 -5.8451841859649889e+07 
-9.9999999999999989e-01 -5.9307386181706034e-01 +8.1011835834521886e+00 -1.6197225371432995e+00 +6.2159104480610047e+01 +1.2446391173284914e+04 -5.3366255555466202e+05 -5.8592338908303708e+07 
-1.0999999999999999e+00 -5.9307409920800824e-01 +8.1012023016257650e+00 -1.6227434921009791e+00 +6.2194206228767101e+01 +1.2489954011030935e+04 -5.3452043161102745e+05 -5.8750749037806399e+07 
-1.2000000000000000e+00 -5.9307433029710144e-01 +8.1012215038312085e+00 -1.6260779426954239e+00 +6.2200497876278639e+01 +1.2537032421493481e+04 -5.3518744210659107e+05 -5.8924804094567083e+07 
-1.3000000000000000e+00 -5.9307455440155066e-01 +8.1012412355830374e+00 -1.6296859492873781e+00 +6.2174550774246590e+01 +1.2586994798869930e+04 -5.3564743657352007e+05 -5.9112235832086287e+07 
-1.4000000000000001e+00 -5.9307477083855209e-01 +8.1012615423917165e+00 -1.6335275742517579e+00 +6.2112936419260514e+01 +1.2639209581913632e+04 -5.3588426535229303e+05 -5.9310776239880525e+07 
-1.5000000000000002e+00 -5.9307497892534278e-01 +8.1012824697716272e+00 -1.6375628740786485e+00 +6.2012226220185575e+01 +1.2693045101852000e+04 -5.3588177822448465e+05 -5.9518156817552589e+07 
-1.6000000000000003e+00 -5.9307517797913423e-01 +8.1013040632295930e+00 -1.6417519081505161e+00 +6.1868991835315661e+01 +1.2747869748171006e+04 -5.3562382636791840e+05 -5.9732109357878871e+07 
-1.7000000000000004e+00 -5.9307536731713062e-01 +8.1013263682732610e+00 -1.6460547364978106e+00 +6.1679804929056615e+01 +1.2803051932071321e+04 -5.3509426094083581e+05 -5.9950365793394454e+07 
-1.8000000000000005e+00 -5.9307554625660208e-01 +8.1013494304087512e+00 -1.6504314103169868e+00 +6.1441237238811652e+01 +1.2857959902003324e+04 -5.3427693344440486e+05 -6.0170657306037664e+07 
-1.9000000000000006e+00 -5.9307571411478388e-01 +8.1013732951343105e+00 -1.6548419849891043e+00 +6.1149860759620729e+01 +1.2911961994639581e+04 -5.3315569679990364e+05 -6.0390715530800439e+07 
-2.0000000000000004e+00 -5.9307587020887276e-01 +8.1013980079506425e+00 -1.6592465198166317e+00 +6.0802247449360785e+01 +1.2964426628310282e+04 -5.3171440362307651e+05 -6.0608272522396512e+07 
-2.1000000000000005e+00 -5.9307601419802258e-01 +8.1014235649808697e+00 -1.6636086537109698e+00 +6.0396607505494615e+01 +1.3014836730863859e+04 -5.2994448463768337e+05 -6.0821506506974712e+07 
-2.2000000000000006e+00 -5.9307614710830003e-01 +8.1014497710633435e+00 -1.6679058071064117e+00 +5.9937656247300843e+01 +1.3063113482870600e+04 -5.2786778992649331e+05 -6.1030288770082459e+07 
-2.3000000000000007e+00 -5.9307627030735210e-01 +8.1014763847506988e+00 -1.6721187058240981e+00 +5.9431724111768737e+01 +1.3109282514805203e+04 -5.2551380290370749e+05 -6.1234889903366730e+07 
-2.4000000000000008e+00 -5.9307638516282879e-01 +8.1015031645901185e+00 -1.6762280743960989e+00 +5.8885141634680764e+01 +1.3153369424755123e+04 -5.2291200740144227e+05 -6.1435580326587118e+07 
-2.5000000000000009e+00 -5.9307649304238574e-01 +8.1015298691223983e+00 -1.6802146364114263e+00 +5.8304239495822706e+01 +1.3195399792036846e+04 -5.2009188799073221e+05 -6.1632630374134600e+07 
-2.6000000000000010e+00 -5.9307659531363510e-01 +8.1015562568923585e+00 -1.6840591189351344e+00 +5.7695348189437695e+01 +1.3235399246147503e+04 -5.1708292801057355e+05 -6.1826310580092244e+07 
-2.7000000000000011e+00 -5.9307669334418700e-01 +8.1015820864370696e+00 -1.6877422489231577e+00 +5.7064798373052682e+01 +1.3273393410252291e+04 -5.1391461162888422e+05 -6.2016891439893074e+07 
-2.8000000000000012e+00 -5.9307678850164680e-01 +8.1016071162897614e+00 -1.6912447524651153e+00 +5.6418920730048832e+01 +1.3309407878541269e+04 -5.1061642298404680e+05 -6.2204643282020643e+07 
-2.9000000000000012e+00 -5.9307688215357146e-01 +8.1016311049826655e+00 -1.6945473609157002e+00 +5.5764045897560877e+01 +1.3343468336214908e+04 -5.0721784580610885e+05 -6.2389836846610211e+07 
-3.0000000000000013e+00 -5.9307697566751527e-01 +8.1016538110408582e+00 -1.6976308050647773e+00 +5.5106504633136090e+01 +1.3375600447428504e+04 -5.0374836437265627e+05 -6.2572742748464473e+07 
-3.1000000000000014e+00 -5.9307707041101299e-01 +8.1016749929893788e+00 -1.7004758161479954e+00 +5.4452627589408849e+01 +1.3405829866879001e+04 -5.0023746214867849e+05 -6.2753631512031622e+07 
-3.2000000000000015e+00 -5.9307716775157282e-01 +8.1016944093459387e+00 -1.7030631279726582e+00 +5.3808745535465995e+01 +1.3434182286955142e+04 -4.9671462312160927e+05 -6.2932773813178539e+07 
-3.3000000000000016e+00 -5.9307726905667879e-01 +8.1017118186245725e+00 -1.7053734758695012e+00 +5.3181189226530741e+01 +1.3460683413162462e+04 -4.9320933098392491e+05 -6.3110440349658415e+07 
-3.4000000000000017e+00 -5.9307737569378460e-01 +8.1017269793356661e+00 -1.7073875978385509e+00 +5.2576289411876445e+01 +1.3485358987217420e+04 -4.8975106921613391e+05 -6.3286901953644514e+07 
-3.5000000000000018e+00 -5.9307748903031821e-01 +8.1017396499846175e+00 -1.7090862332503924e+00 +5.2000376854635341e+01 +1.3508234757511816e+04 -4.8636932116303634e+05 -6.3462429439410128e+07 
-3.6000000000000019e+00 -5.9307761043367546e-01 +8.1017495890705824e+00 -1.7104501244552743e+00 +5.1459782366268250e+01 +1.3529336512409849e+04 -4.8309357023975061e+05 -6.3637293765794933e+07 
-3.7000000000000020e+00 -5.9307774127123059e-01 +8.1017565550864816e+00 -1.7114600146880070e+00 +5.0960836804745135e+01 +1.3548690037336901e+04 -4.7995329992755660e+05 -6.3811765826874800e+07 
-3.8000000000000020e+00 -5.9307788291031827e-01 +8.1017603065267529e+00 -1.7120966506746755e+00 +5.0509870821660400e+01 +1.3566321164285548e+04 -4.7697799224649637e+05 -6.3986116684050500e+07 
-3.9000000000000021e+00 -5.9307803671823822e-01 +8.1017606018705575e+00 -1.7123407819898722e+00 +5.0113215371810433e+01 +1.3582255758012432e+04 -4.7419713077766798e+05 -6.4160617497759245e+07 
-4.0000000000000018e+00 -5.9307820406224343e-01 +8.1017571995999660e+00 -1.7121731619824843e+00 +4.9777201154956899e+01 +1.3596519733000398e+04 -4.7164019737950811e+05 -6.4335539608516499e+07 
-4.1000000000000014e+00 -5.9307838603681662e-01 +8.1017499287088395e+00 -1.7115828539509070e+00 +4.9506952155384219e+01 +1.3609125140204496e+04 -4.6933250058625574e+05 -6.4510841550693884e+07 
-4.2000000000000011e+00 -5.9307858264495905e-01 +8.1017388907328396e+00 -1.7105941060031433e+00 +4.9303127612729647e+01 +1.3620061429440553e+04 -4.6728432721586392e+05 -6.4685344936407581e+07 
-4.3000000000000007e+00 -5.9307879361671101e-01 +8.1017242530058518e+00 -1.7092404314913339e+00 +4.9165361554146088e+01 +1.3629319958434053e+04 -4.6550263707569346e+05 -6.4857612593647115e+07 
-4.4000000000000004e+00 -5.9307901868213020e-01 +8.1017061828629267e+00 -1.7075553437118436e+00 +4.9093288070194966e+01 +1.3636892091391759e+04 -4.6399439078275638e+05 -6.5026207383741409e+07 
-4.5000000000000000e+00 -5.9307925757124447e-01 +8.1016848476556760e+00 -1.7055723605201543e+00 +4.9086540880573786e+01 +1.3642769276953555e+04 -4.6276654730440426e+05 -6.5189692543959029e+07 
-4.5999999999999996e+00 -5.9307951001409120e-01 +8.1016604147404081e+00 -1.7033250002516436e+00 +4.9144753663233523e+01 +1.3646942977730121e+04 -4.6182606583239906e+05 -6.5346631370124355e+07 
-4.6999999999999993e+00 -5.9307977574073489e-01 +8.1016330514851642e+00 -1.7008467800250053e+00 +4.9267559880067409e+01 +1.3649404641205098e+04 -4.6117990486534615e+05 -6.5495587086319774e+07 
-4.7999999999999989e+00 -5.9308005448120360e-01 +8.1016029252665653e+00 -1.6981712227944770e+00 +4.9454592871471796e+01 +1.3650145825661457e+04 -4.6083502276936342e+05 -6.5635123419475101e+07 
-4.8999999999999986e+00 -5.9308034596554449e-01 +8.1015702034745196e+00 -1.6953318515954259e+00 +4.9705485720924230e+01 +1.3649158099197270e+04 -4.6079837700808456e+05 -6.5763804139996849e+07 
-4.9999999999999982e+00 -5.9308064992382004e-01 +8.1015350535100215e+00 -1.6923621892511680e+00 +5.0019871336079518e+01 +1.3646433030732176e+04 -4.6107692466927913e+05 -6.5880193011235699e+07 
-5.0999999999999979e+00 -5.9308096608605687e-01 +8.1014976427865051e+00 -1.6892957651638392e+00 +5.0397382412599072e+01 +1.3641962317903894e+04 -4.6167762226916070e+05 -6.5982854390029840e+07 
-5.1999999999999975e+00 -5.9308129418234379e-01 +8.1014581387288320e+00 -1.6861661041060998e+00 +5.0837651478633660e+01 +1.3635737584176839e+04 -4.6260742606844578e+05 -6.6070352289614409e+07 
-5.2999999999999972e+00 -5.9308163394272118e-01 +8.1014167087757833e+00 -1.6830067386692118e+00 +5.1340310820023809e+01 +1.3627750603966027e+04 -4.6387329162685288e+05 -6.6141251418034859e+07 
-5.3999999999999968e+00 -5.9308198509726662e-01 +8.1013735203851081e+00 -1.6798511996438166e+00 +5.1904992349597833e+01 +1.3617993127274951e+04 -4.6548217310624628e+05 -6.6194116363444723e+07 
-5.4999999999999964e+00 -5.9308234737604537e-01 +8.1013287410221864e+00 -1.6767330218909819e+00 +5.2531327943996487e+01 +1.3606456988398022e+04 -4.6744102525822411e+05 -6.6227512099830158e+07 
-5.5999999999999961e+00 -5.9308272050915867e-01 +8.1012825381706151e+00 -1.6736857392284814e+00 +5.3218949148460901e+01 +1.3593134016097008e+04 -4.6975680174311489e+05 -6.6240003581073828e+07 
-5.6999999999999957e+00 -5.9308310422665711e-01 +8.1012350793346606e+00 -1.6707428940318687e+00 +5.3967487108572449e+01 +1.3578016206977727e+04 -4.7243645476177387e+05 -6.6230156539666608e+07 
-5.7999999999999954e+00 -5.9308349825867834e-01 +8.1011865320274357e+00 -1.6679380216005650e+00 +5.4776572915246533e+01 +1.3561095436225021e+04 -4.7548693705673312e+05 -6.6196536127172559e+07 
-5.8999999999999950e+00 -5.9308390233530872e-01 +8.1011370637834972e+00 -1.6653046660980195e+00 +5.5645837273498131e+01 +1.3542363755500564e+04 -4.7891520010950248e+05 -6.6137708321521878e+07 
-5.9999999999999947e+00 -5.9308431618667279e-01 +8.1010868421570610e+00 -1.6628763711855268e+00 +5.6574910530019153e+01 +1.3521813224699723e+04 -4.8272819420942076e+05 -6.6052239146655127e+07 
-6.0999999999999943e+00 -5.9308473945329387e-01 +8.1010360576158931e+00 -1.6606812755119249e+00 +5.7562166487866122e+01 +1.3499477314258957e+04 -4.8692516618753673e+05 -6.5939267972843401e+07 
-6.1999999999999940e+00 -5.9308517142762163e-01 +8.1009849950711477e+00 -1.6587253756681619e+00 +5.8600338520930869e+01 +1.3475579812361690e+04 -4.9147054138296307e+05 -6.5800415475922726e+07 
-6.2999999999999936e+00 -5.9308561131776938e-01 +8.1009339639104017e+00 -1.6570089975286033e+00 +5.9680586689668651e+01 +1.3450399595427658e+04 -4.9631898335878528e+05 -6.5637978719988480e+07 
-6.3999999999999932e+00 -5.9308605833192773e-01 +8.1008832735210916e+00 -1.6555324589775260e+00 +6.0794071027095896e+01 +1.3424215420778686e+04 -5.0142515528537938e+05 -6.5454254296008050e+07 
-6.4999999999999929e+00 -5.9308651167835347e-01 +8.1008332332827226e+00 -1.6542960715208530e+00 +6.1931951742332075e+01 +1.3397305949317279e+04 -5.0674372095540294e+05 -6.5251538409268588e+07 
-6.5999999999999925e+00 -5.9308697056531878e-01 +8.1007841525738300e+00 -1.6533001457464021e+00 +6.3085389045323105e+01 +1.3369949847497370e+04 -5.1222934383229568e+05 -6.5032127361864291e+07 
-6.6999999999999922e+00 -5.9308743420120913e-01 +8.1007363407700623e+00 -1.6525449802698369e+00 +6.4245543186981024e+01 +1.3342425586305950e+04 -5.1783668722185853e+05 -6.4798316622896746e+07 
-6.7999999999999918e+00 -5.9308790179444593e-01 +8.1006901072378934e+00 -1.6520308708449110e+00 +6.5403574637200308e+01 +1.3315011608581455e+04 -5.2352041528434562e+05 -6.4552401606038310e+07 
-6.8999999999999915e+00 -5.9308837255351476e-01 +8.1006457613456249e+00 -1.6517581062108933e+00 +6.6550643763347907e+01 +1.3287986250775783e+04 -5.2923519114459027e+05 -6.4296677304310098e+07 
-6.9999999999999911e+00 -5.9308884568698039e-01 +8.1006036124519341e+00 -1.6517269681926694e+00 +6.7677911174607061e+01 +1.3261627755582127e+04 -5.3493567890880979e+05 -6.4033438376121581e+07 
-7.0999999999999908e+00 -5.9308932040348261e-01 +8.1005639699127876e+00 -1.6519377296486975e+00 +6.8776537490678294e+01 +1.3236214217010134e+04 -5.4057654222372058e+05 -6.3764978842947632e+07 
-7.1999999999999904e+00 -5.9308979591170485e-01 +8.1005271430762971e+00 -1.6523906609349779e+00 +6.9837683527010554e+01 +1.3212023722368362e+04 -5.4611244544259342e+05 -6.3493592817575179e+07 
-7.2999999999999901e+00 -5.9309027142045356e-01 +8.1004934412836622e+00 -1.6530860182720470e+00 +7.0852510212917750e+01 +1.3189334118924358e+04 -5.5149805297467404e+05 -6.3221573360921711e+07 
-7.3999999999999897e+00 -5.9309074613857149e-01 +8.1004631738758217e+00 -1.6540240552807037e+00 +7.1812178452496894e+01 +1.3168423239719317e+04 -5.5668802862168849e+05 -6.2951213575184956e+07 
-7.4999999999999893e+00 -5.9309121927499697e-01 +8.1004366501833989e+00 -1.6552050160406293e+00 +7.2707849360339821e+01 +1.3149568775152075e+04 -5.6163703676954051e+05 -6.2684806003578901e+07 
-7.5999999999999890e+00 -5.9309169003874196e-01 +8.1004141795293005e+00 -1.6566291365220118e+00 +7.3530684229628122e+01 +1.3133048290251543e+04 -5.6629974231650145e+05 -6.2424642684203058e+07 
-7.6999999999999886e+00 -5.9309215763892376e-01 +8.1003960712314917e+00 -1.6582966422894618e+00 +7.4271844421221715e+01 +1.3119139197278922e+04 -5.7063080992749601e+05 -6.2173015067404985e+07 
-7.7999999999999883e+00 -5.9309262128471962e-01 +8.1003826345994039e+00 -1.6602077531721580e+00 +7.4922491459724228e+01 +1.3108118834068287e+04 -5.7458490454934479e+05 -6.1932214358119197e+07 
-7.8999999999999879e+00 -5.9309308018541873e-01 +8.1003741789346257e+00 -1.6623626771582405e+00 +7.5473787036018479e+01 +1.3100264353962588e+04 -5.7811669148547761e+05 -6.1704531011339307e+07 
-7.9999999999999876e+00 -5.9309353355039207e-01 +8.1003710135352858e+00 -1.6647616137895860e+00 +7.5916892845926213e+01 +1.3095852786149702e+04 -5.8118083532932447e+05 -6.1492255004184954e+07 
-8.0999999999999872e+00 -5.9309398085977005e-01 +8.1003733178571835e+00 -1.6674008076035338e+00 +7.6245844954105067e+01 +1.3095099652101302e+04 -5.8374521467506990e+05 -6.1297375086039886e+07 
-8.1999999999999869e+00 -5.9309442265896772e-01 +8.1003807614489993e+00 -1.6702561898546202e+00 +7.6466245298080182e+01 +1.3097868115595122e+04 -5.8583117697661195e+05 -6.1120201251162767e+07 
-8.2999999999999865e+00 -5.9309485975539811e-01 +8.1003928882406644e+00 -1.6732975024112460e+00 +7.6586615856731157e+01 +1.3103906059018300e+04 -5.8747361779050389e+05 -6.0960501657951578e+07 
-8.3999999999999861e+00 -5.9309529295637142e-01 +8.1004092421363687e+00 -1.6764944958732513e+00 +7.6615479287806977e+01 +1.3112961495375017e+04 -5.8870743594494974e+05 -6.0818045030219786e+07 
-8.4999999999999858e+00 -5.9309572306913150e-01 +8.1004293670291840e+00 -1.6798169243246877e+00 +7.6561358488876934e+01 +1.3124782463535441e+04 -5.8956753109546623e+05 -6.0692600132493228e+07 
-8.5999999999999854e+00 -5.9309615090083190e-01 +8.1004528067948787e+00 -1.6832345488793246e+00 +7.6432776773851515e+01 +1.3139117100889640e+04 -5.9008880473319546e+05 -6.0583936130729511e+07 
-8.6999999999999851e+00 -5.9309657725854581e-01 +8.1004791052932905e+00 -1.6867171357041058e+00 +7.6238257829339119e+01 +1.3155713597857461e+04 -5.9030615992108325e+05 -6.0491822355017662e+07 
-8.7999999999999847e+00 -5.9309700294925338e-01 +8.1005078063650302e+00 -1.6902344575498041e+00 +7.5986325809658240e+01 +1.3174320229583769e+04 -5.9025450182020885e+05 -6.0416028459167279e+07 
-8.8999999999999844e+00 -5.9309742877982075e-01 +8.1005384538274932e+00 -1.6937562962781607e+00 +7.5685505456090496e+01 +1.3194685399895820e+04 -5.8996873839184153e+05 -6.0356324618712641e+07 
-8.9999999999999840e+00 -5.9309785555706196e-01 +8.1005705914920707e+00 -1.6972524352852634e+00 +7.5344321578046518e+01 +1.3216557499977651e+04 -5.8948377732956130e+05 -6.0312480866726883e+07 
-9.0999999999999837e+00 -5.9309828408763576e-01 +8.1006037631385972e+00 -1.7006926714475705e+00 +7.4971299807305499e+01 +1.3239685127812469e+04 -5.8883453044357337e+05 -6.0284268118423618e+07 
-9.1999999999999833e+00 -5.9309871517815405e-01 +8.1006375125328383e+00 -1.7040468025122801e+00 +7.4574966085475424e+01 +1.3263816855385869e+04 -5.8805591069035523e+05 -6.0271457083330899e+07 
-9.2999999999999829e+00 -5.9309914963509724e-01 +8.1006713834201829e+00 -1.7072846363370726e+00 +7.4163846840842510e+01 +1.3288701394188212e+04 -5.8718283314853325e+05 -6.0273819025776036e+07 
-9.3999999999999826e+00 -5.9309958826482201e-01 +8.1007049195243876e+00 -1.7103759908641072e+00 +7.3746469023770246e+01 +1.3314087600849596e+04 -5.8625021523213910e+05 -6.0291125808225259e+07 
-9.4999999999999822e+00 -5.9310003187361382e-01 +8.1007376645457416e+00 -1.7132906865446687e+00 +7.3331360154554275e+01 +1.3339724325346649e+04 -5.8529297692649323e+05 -6.0323149150136605e+07 
-9.5999999999999819e+00 -5.9310048126760961e-01 +8.1007691621708684e+00 -1.7159985562263327e+00 +7.2927048042194656e+01 +1.3365360603453524e+04 -5.8434603917671414e+05 -6.0369661557689212e+07 
-9.6999999999999815e+00 -5.9310093725285373e-01 +8.1007989560555451e+00 -1.7184694381587282e+00 +7.2542061281422846e+01 +1.3390745517805675e+04 -5.8344432674167352e+05 -6.0430435643075518e+07 
-9.7999999999999812e+00 -5.9310140063523886e-01 +8.1008265898379328e+00 -1.7206731828744266e+00 +7.2184928852150179e+01 +1.3415628330462505e+04 -5.8262276582705020e+05 -6.0505244766382858e+07 
-9.8999999999999808e+00 -5.9310187222057564e-01 +8.1008516071316059e+00 -1.7225796442301451e+00 +7.1864180327910816e+01 +1.3439758307605423e+04 -5.8191628529056360e+05 -6.0593862185112208e+07 
-9.9999999999999805e+00 -5.9310235281452461e-01 +8.1008735515271866e+00 -1.7241586884273234e+00 +7.1588345853304915e+01 +1.3462884893656950e+04 -5.8135981655433134e+05 -6.0696061887586251e+07 
-1.0099999999999980e+01 -5.9310284306339323e-01 +8.1008920714124226e+00 -1.7253840769346627e+00 +7.1364105242591137e+01 +1.3484737690954880e+04 -5.8098074065456702e+05 -6.0811241448575869e+07 
