# trajectory
# s[mm] rx[mm] ry[mm] rz[mm] px[rad] py[rad] pz[rad]
0.0000000000000000e+00 +8.1529999999999987e+00 +0.0000000000000000e+00 +0.0000000000000000e+00 +0.0000000000000000e+00 +0.0000000000000000e+00 +1.0000000000000000e+00
1.0000000000000001e-01 +8.1529997170326123e+00 +0.0000000000000000e+00 +9.9999999999466210e-02 -5.6593479946805804e-06 +0.0000000000000000e+00 +9.9999999998398592e-01
2.0000000000000001e-01 +8.1529988681303411e+00 +0.0000000000000000e+00 +1.9999999999572959e-01 -1.1318697742414770e-05 +0.0000000000000000e+00 +9.9999999993594357e-01
3.0000000000000004e-01 +8.1529974532929987e+00 +0.0000000000000000e+00 +2.9999999998558735e-01 -1.6978049458038592e-05 +0.0000000000000000e+00 +9.9999999985587296e-01
4.0000000000000002e-01 +8.1529954725203773e+00 +0.0000000000000000e+00 +3.9999999996583657e-01 -2.2637403349341117e-05 +0.0000000000000000e+00 +9.9999999974377407e-01
5.0000000000000000e-01 +8.1529929258122493e+00 +0.0000000000000000e+00 +4.9999999993327449e-01 -2.8296759617064428e-05 +0.0000000000000000e+00 +9.9999999959964680e-01
5.9999999999999998e-01 +8.1529898131683680e+00 +0.0000000000000000e+00 +5.9999999988469832e-01 -3.3956118454903572e-05 +0.0000000000000000e+00 +9.9999999942349116e-01
6.9999999999999996e-01 +8.1529861345884669e+00 +0.0000000000000000e+00 +6.9999999981690508e-01 -3.9615480049506540e-05 +0.0000000000000000e+00 +9.9999999921530702e-01
7.9999999999999993e-01 +8.1529818900722599e+00 +0.0000000000000000e+00 +7.9999999972669200e-01 -4.5274844580474270e-05 +0.0000000000000000e+00 +9.9999999897509440e-01
8.9999999999999991e-01 +8.1529770796194470e+00 +0.0000000000000000e+00 +8.9999999961085630e-01 -5.0934212220360619e-05 +0.0000000000000000e+00 +9.9999999870285317e-01
9.9999999999999989e-01 +8.1529717032297064e+00 +0.0000000000000000e+00 +9.9999999946619500e-01 -5.6593583134672377e-05 +0.0000000000000000e+00 +9.9999999839858333e-01
1.0999999999999999e+00 +8.1529657609027044e+00 +0.0000000000000000e+00 +1.0999999992895053e+00 -6.2252957481869276e-05 +0.0000000000000000e+00 +9.9999999806228479e-01
1.2000000000000000e+00 +8.1529592526380910e+00 +0.0000000000000000e+00 +1.1999999990775843e+00 -6.7912335413364017e-05 +0.0000000000000000e+00 +9.9999999769395753e-01
1.3000000000000000e+00 +8.1529521784354984e+00 +0.0000000000000000e+00 +1.2999999988272291e+00 -7.3571717073522310e-05 +0.0000000000000000e+00 +9.9999999729360145e-01
1.4000000000000001e+00 +8.1529445382945482e+00 +0.0000000000000000e+00 +1.3999999985352369e+00 -7.9231102599662884e-05 +0.0000000000000000e+00 +9.9999999686121643e-01
1.5000000000000002e+00 +8.1529363322148463e+00 +0.0000000000000000e+00 +1.4999999981984047e+00 -8.4890492122057578e-05 +0.0000000000000000e+00 +9.9999999639680237e-01
1.6000000000000003e+00 +8.1529275601959874e+00 +0.0000000000000000e+00 +1.5999999978135298e+00 -9.0549885763931376e-05 +0.0000000000000000e+00 +9.9999999590035926e-01
1.7000000000000004e+00 +8.1529182222375525e+00 +0.0000000000000000e+00 +1.6999999973774089e+00 -9.6209283641462477e-05 +0.0000000000000000e+00 +9.9999999537188700e-01
1.8000000000000005e+00 +8.1529083183391133e+00 +0.0000000000000000e+00 +1.7999999968868394e+00 -1.0186868586378239e-04 +0.0000000000000000e+00 +9.9999999481138557e-01
1.9000000000000006e+00 +8.1528978485002312e+00 +0.0000000000000000e+00 +1.8999999963386183e+00 -1.0752809253297600e-04 +0.0000000000000000e+00 +9.9999999421885477e-01
2.0000000000000004e+00 +8.1528868127204550e+00 +0.0000000000000000e+00 +1.9999999957295427e+00 -1.1318750374408166e-04 +0.0000000000000000e+00 +9.9999999359429459e-01
2.1000000000000005e+00 +8.1528752109993281e+00 +0.0000000000000000e+00 +2.0999999950564097e+00 -1.1884691958503318e-04 +0.0000000000000000e+00 +9.9999999293770492e-01
2.2000000000000006e+00 +8.1528630433363816e+00 +0.0000000000000000e+00 +2.1999999943160162e+00 -1.2450634013602032e-04 +0.0000000000000000e+00 +9.9999999224908565e-01
2.3000000000000007e+00 +8.1528503097311411e+00 +0.0000000000000000e+00 +2.2999999935051592e+00 -1.3016576546884929e-04 +0.0000000000000000e+00 +9.9999999152843677e-01
2.4000000000000008e+00 +8.1528370101831253e+00 +0.0000000000000000e+00 +2.3999999926206357e+00 -1.3582519564688482e-04 +0.0000000000000000e+00 +9.9999999077575807e-01
2.5000000000000009e+00 +8.1528231446918475e+00 +0.0000000000000000e+00 +2.4999999916592430e+00 -1.4148463072505041e-04 +0.0000000000000000e+00 +9.9999998999104955e-01
2.6000000000000010e+00 +8.1528087132568157e+00 +0.0000000000000000e+00 +2.5999999906177780e+00 -1.4714407074982845e-04 +0.0000000000000000e+00 +9.9999998917431110e-01
2.7000000000000011e+00 +8.1527937158775323e+00 +0.0000000000000000e+00 +2.6999999894930378e+00 -1.5280351575926054e-04 +0.0000000000000000e+00 +9.9999998832554260e-01
2.8000000000000012e+00 +8.1527781525534966e+00 +0.0000000000000000e+00 +2.7999999882818192e+00 -1.5846296578294776e-04 +0.0000000000000000e+00 +9.9999998744474405e-01
2.9000000000000012e+00 +8.1527620232842075e+00 +0.0000000000000000e+00 +2.8999999869809190e+00 -1.6412242084205085e-04 +0.0000000000000000e+00 +9.9999998653191524e-01
3.0000000000000013e+00 +8.1527453280691606e+00 +0.0000000000000000e+00 +2.9999999855871344e+00 -1.6978188094929060e-04 +0.0000000000000000e+00 +9.9999998558705616e-01
3.1000000000000014e+00 +8.1527280669078497e+00 +0.0000000000000000e+00 +3.0999999840972623e+00 -1.7544134610894804e-04 +0.0000000000000000e+00 +9.9999998461016670e-01
3.2000000000000015e+00 +8.1527102397997702e+00 +0.0000000000000000e+00 +3.1999999825080998e+00 -1.8110081631686486e-04 +0.0000000000000000e+00 +9.9999998360124687e-01
3.3000000000000016e+00 +8.1526918467444176e+00 +0.0000000000000000e+00 +3.2999999808164437e+00 -1.8676029156044368e-04 +0.0000000000000000e+00 +9.9999998256029643e-01
3.4000000000000017e+00 +8.1526728877412911e+00 +0.0000000000000000e+00 +3.3999999790190913e+00 -1.9241977181864842e-04 +0.0000000000000000e+00 +9.9999998148731539e-01
3.5000000000000018e+00 +8.1526533627898878e+00 +0.0000000000000000e+00 +3.4999999771128394e+00 -1.9807925706200464e-04 +0.0000000000000000e+00 +9.9999998038230364e-01
3.6000000000000019e+00 +8.1526332718897123e+00 +0.0000000000000000e+00 +3.5999999750944847e+00 -2.0373874725259996e-04 +0.0000000000000000e+00 +9.9999997924526107e-01
3.7000000000000020e+00 +8.1526126150402725e+00 +0.0000000000000000e+00 +3.6999999729608239e+00 -2.0939824234408441e-04 +0.0000000000000000e+00 +9.9999997807618768e-01
3.8000000000000020e+00 +8.1525913922410815e+00 +0.0000000000000000e+00 +3.7999999707086545e+00 -2.1505774228167081e-04 +0.0000000000000000e+00 +9.9999997687508335e-01
3.9000000000000021e+00 +8.1525696034916564e+00 +0.0000000000000000e+00 +3.8999999683347730e+00 -2.2071724700213529e-04 +0.0000000000000000e+00 +9.9999997564194798e-01
4.0000000000000018e+00 +8.1525472487915227e+00 +0.0000000000000000e+00 +3.9999999658359764e+00 -2.2637675643381769e-04 +0.0000000000000000e+00 +9.9999997437678156e-01
4.1000000000000014e+00 +8.1525243281402151e+00 +0.0000000000000000e+00 +4.0999999632090613e+00 -2.3203627049725448e-04 +0.0000000000000000e+00 +9.9999997307958399e-01
4.2000000000000011e+00 +8.1525008415372717e+00 +0.0000000000000000e+00 +4.1999999604508256e+00 -2.3769578911213702e-04 +0.0000000000000000e+00 +9.9999997175035527e-01
4.3000000000000007e+00 +8.1524767889822431e+00 +0.0000000000000000e+00 +4.2999999575580654e+00 -2.4335531220426917e-04 +0.0000000000000000e+00 +9.9999997038909527e-01
4.4000000000000004e+00 +8.1524521704746835e+00 +0.0000000000000000e+00 +4.3999999545275772e+00 -2.4901483970619947e-04 +0.0000000000000000e+00 +9.9999996899580401e-01
4.5000000000000000e+00 +8.1524269860141558e+00 +0.0000000000000000e+00 +4.4999999513561582e+00 -2.5467437155722068e-04 +0.0000000000000000e+00 +9.9999996757048137e-01
4.5999999999999996e+00 +8.1524012356002284e+00 +0.0000000000000000e+00 +4.5999999480406055e+00 -2.6033390770336935e-04 +0.0000000000000000e+00 +9.9999996611312736e-01
4.6999999999999993e+00 +8.1523749192324733e+00 +0.0000000000000000e+00 +4.6999999445777156e+00 -2.6599344809742523e-04 +0.0000000000000000e+00 +9.9999996462374185e-01
4.7999999999999989e+00 +8.1523480369104675e+00 +0.0000000000000000e+00 +4.7999999409642857e+00 -2.7165299269891075e-04 +0.0000000000000000e+00 +9.9999996310232475e-01
4.8999999999999986e+00 +8.1523205886337937e+00 +0.0000000000000000e+00 +4.8999999371971130e+00 -2.7731254147409044e-04 +0.0000000000000000e+00 +9.9999996154887605e-01
4.9999999999999982e+00 +8.1522925744020345e+00 +0.0000000000000000e+00 +4.9999999332729939e+00 -2.8297209439597030e-04 +0.0000000000000000e+00 +9.9999995996339575e-01
5.0999999999999979e+00 +8.1522639942147777e+00 +0.0000000000000000e+00 +5.0999999291887246e+00 -2.8863165144429713e-04 +0.0000000000000000e+00 +9.9999995834588362e-01
5.1999999999999975e+00 +8.1522348480716094e+00 +0.0000000000000000e+00 +5.1999999249411024e+00 -2.9429121260555780e-04 +0.0000000000000000e+00 +9.9999995669633979e-01
5.2999999999999972e+00 +8.1522051359721193e+00 +0.0000000000000000e+00 +5.2999999205269246e+00 -2.9995077787297854e-04 +0.0000000000000000e+00 +9.9999995501476402e-01
5.3999999999999968e+00 +8.1521748579158970e+00 +0.0000000000000000e+00 +5.3999999159429874e+00 -3.0561034724652423e-04 +0.0000000000000000e+00 +9.9999995330115632e-01
5.4999999999999964e+00 +8.1521440139025323e+00 +0.0000000000000000e+00 +5.4999999111860882e+00 -3.1126992073289751e-04 +0.0000000000000000e+00 +9.9999995155551669e-01
5.5999999999999961e+00 +8.1521126039316130e+00 +0.0000000000000000e+00 +5.5999999062530232e+00 -3.1692949834553799e-04 +0.0000000000000000e+00 +9.9999994977784490e-01
5.6999999999999957e+00 +8.1520806280027251e+00 +0.0000000000000000e+00 +5.6999999011405897e+00 -3.2258908010462131e-04 +0.0000000000000000e+00 +9.9999994796814096e-01
5.7999999999999954e+00 +8.1520480861154532e+00 +0.0000000000000000e+00 +5.7999998958455841e+00 -3.2824866603705825e-04 +0.0000000000000000e+00 +9.9999994612640475e-01
5.8999999999999950e+00 +8.1520149782693778e+00 +0.0000000000000000e+00 +5.8999998903648034e+00 -3.3390825617649376e-04 +0.0000000000000000e+00 +9.9999994425263627e-01
5.9999999999999947e+00 +8.1519813044640763e+00 +0.0000000000000000e+00 +5.9999998846950442e+00 -3.3956785056330602e-04 +0.0000000000000000e+00 +9.9999994234683542e-01
6.0999999999999943e+00 +8.1519470646991223e+00 +0.0000000000000000e+00 +6.0999998788331027e+00 -3.4522744924436966e-04 +0.0000000000000000e+00 +9.9999994040900198e-01
6.1999999999999940e+00 +8.1519122589740824e+00 +0.0000000000000000e+00 +6.1999998727757761e+00 -3.5088705227046143e-04 +0.0000000000000000e+00 +9.9999993843913604e-01
6.2999999999999936e+00 +8.1518768872885214e+00 +0.0000000000000000e+00 +6.2999998665198618e+00 -3.5654665969366673e-04 +0.0000000000000000e+00 +9.9999993643723739e-01
6.3999999999999932e+00 +8.1518409496419952e+00 +0.0000000000000000e+00 +6.3999998600621559e+00 -3.6220627156714378e-04 +0.0000000000000000e+00 +9.9999993440330592e-01
6.4999999999999929e+00 +8.1518044460340580e+00 +0.0000000000000000e+00 +6.4999998533994550e+00 -3.6786588794512394e-04 +0.0000000000000000e+00 +9.9999993233734163e-01
6.5999999999999925e+00 +8.1517673764642549e+00 +0.0000000000000000e+00 +6.5999998465285561e+00 -3.7352550888291154e-04 +0.0000000000000000e+00 +9.9999993023934430e-01
6.6999999999999922e+00 +8.1517297409321277e+00 +0.0000000000000000e+00 +6.6999998394462557e+00 -3.7918513443688435e-04 +0.0000000000000000e+00 +9.9999992810931393e-01
6.7999999999999918e+00 +8.1516915394372109e+00 +0.0000000000000000e+00 +6.7999998321493509e+00 -3.8484476466449342e-04 +0.0000000000000000e+00 +9.9999992594725040e-01
6.8999999999999915e+00 +8.1516527719790357e+00 +0.0000000000000000e+00 +6.8999998246346381e+00 -3.9050439962426338e-04 +0.0000000000000000e+00 +9.9999992375315361e-01
6.9999999999999911e+00 +8.1516134385571259e+00 +0.0000000000000000e+00 +6.9999998168989137e+00 -3.9616403937579262e-04 +0.0000000000000000e+00 +9.9999992152702344e-01
7.0999999999999908e+00 +8.1515735391709985e+00 +0.0000000000000000e+00 +7.0999998089389749e+00 -4.0182368397975347e-04 +0.0000000000000000e+00 +9.9999991926885978e-01
7.1999999999999904e+00 +8.1515330738201666e+00 +0.0000000000000000e+00 +7.1999998007516179e+00 -4.0748333349789232e-04 +0.0000000000000000e+00 +9.9999991697866253e-01
7.2999999999999901e+00 +8.1514920425041346e+00 +0.0000000000000000e+00 +7.2999997923336393e+00 -4.1314298799302991e-04 +0.0000000000000000e+00 +9.9999991465643157e-01
7.3999999999999897e+00 +8.1514504452223999e+00 +0.0000000000000000e+00 +7.3999997836818361e+00 -4.1880264752906148e-04 +0.0000000000000000e+00 +9.9999991230216678e-01
7.4999999999999893e+00 +8.1514082819744580e+00 +0.0000000000000000e+00 +7.4999997747930047e+00 -4.2446231217095702e-04 +0.0000000000000000e+00 +9.9999990991586818e-01
7.5999999999999890e+00 +8.1513655527597937e+00 +0.0000000000000000e+00 +7.5999997656639415e+00 -4.3012198198476151e-04 +0.0000000000000000e+00 +9.9999990749753553e-01
7.6999999999999886e+00 +8.1513222575778865e+00 +0.0000000000000000e+00 +7.6999997562914437e+00 -4.3578165703759522e-04 +0.0000000000000000e+00 +9.9999990504716874e-01
7.7999999999999883e+00 +8.1512783964282089e+00 +0.0000000000000000e+00 +7.7999997466723077e+00 -4.4144133739765386e-04 +0.0000000000000000e+00 +9.9999990256476767e-01
7.8999999999999879e+00 +8.1512339693102280e+00 +0.0000000000000000e+00 +7.8999997368033297e+00 -4.4710102313420895e-04 +0.0000000000000000e+00 +9.9999990005033212e-01
7.9999999999999876e+00 +8.1511889762234020e+00 +0.0000000000000000e+00 +7.9999997266813061e+00 -4.5276071431760807e-04 +0.0000000000000000e+00 +9.9999989750386209e-01
8.0999999999999872e+00 +8.1511434171671819e+00 +0.0000000000000000e+00 +8.0999997163030333e+00 -4.5842041101920019e-04 +0.0000000000000000e+00 +9.9999989492535746e-01
8.1999999999999869e+00 +8.1510972921410119e+00 +0.0000000000000000e+00 +8.1999997056653093e+00 -4.6408011331051122e-04 +0.0000000000000000e+00 +9.9999989231481801e-01
8.2999999999999865e+00 +8.1510506011443304e+00 +0.0000000000000000e+00 +8.2999996947649297e+00 -4.6973982126241945e-04 +0.0000000000000000e+00 +9.9999988967224362e-01
8.3999999999999861e+00 +8.1510033441765675e+00 +0.0000000000000000e+00 +8.3999996835986899e+00 -4.7539953494508106e-04 +0.0000000000000000e+00 +9.9999988699763420e-01
8.4999999999999858e+00 +8.1509555212371474e+00 +0.0000000000000000e+00 +8.4999996721633888e+00 -4.8105925442793048e-04 +0.0000000000000000e+00 +9.9999988429098963e-01
8.5999999999999854e+00 +8.1509071323254858e+00 +0.0000000000000000e+00 +8.5999996604558202e+00 -4.8671897977968070e-04 +0.0000000000000000e+00 +9.9999988155230979e-01
8.6999999999999851e+00 +8.1508581774409929e+00 +0.0000000000000000e+00 +8.6999996484727831e+00 -4.9237871106832393e-04 +0.0000000000000000e+00 +9.9999987878159458e-01
8.7999999999999847e+00 +8.1508086565830720e+00 +0.0000000000000000e+00 +8.7999996362110728e+00 -4.9803844836113177e-04 +0.0000000000000000e+00 +9.9999987597884377e-01
8.8999999999999844e+00 +8.1507585697511189e+00 +0.0000000000000000e+00 +8.8999996236674850e+00 -5.0369819172465581e-04 +0.0000000000000000e+00 +9.9999987314405725e-01
8.9999999999999840e+00 +8.1507079169445227e+00 +0.0000000000000000e+00 +8.9999996108388167e+00 -5.0935794122472804e-04 +0.0000000000000000e+00 +9.9999987027723491e-01
9.0999999999999837e+00 +8.1506566981626669e+00 +0.0000000000000000e+00 +9.0999995977218635e+00 -5.1501769692646152e-04 +0.0000000000000000e+00 +9.9999986737837665e-01
9.1999999999999833e+00 +8.1506049134049281e+00 +0.0000000000000000e+00 +9.1999995843134226e+00 -5.2067745889425050e-04 +0.0000000000000000e+00 +9.9999986444748223e-01
9.2999999999999829e+00 +8.1505525626706774e+00 +0.0000000000000000e+00 +9.2999995706102911e+00 -5.2633722719177124e-04 +0.0000000000000000e+00 +9.9999986148455156e-01
9.3999999999999826e+00 +8.1504996459592771e+00 +0.0000000000000000e+00 +9.3999995566092647e+00 -5.3199700188198240e-04 +0.0000000000000000e+00 +9.9999985848958450e-01
9.4999999999999822e+00 +8.1504461632700860e+00 +0.0000000000000000e+00 +9.4999995423071404e+00 -5.3765678302712563e-04 +0.0000000000000000e+00 +9.9999985546258086e-01
9.5999999999999819e+00 +8.1503921146024556e+00 +0.0000000000000000e+00 +9.5999995277007137e+00 -5.4331657068872605e-04 +0.0000000000000000e+00 +9.9999985240354061e-01
9.6999999999999815e+00 +8.1503374999557305e+00 +0.0000000000000000e+00 +9.6999995127867802e+00 -5.4897636492759287e-04 +0.0000000000000000e+00 +9.9999984931246355e-01
9.7999999999999812e+00 +8.1502823193292500e+00 +0.0000000000000000e+00 +9.7999994975621370e+00 -5.5463616580381985e-04 +0.0000000000000000e+00 +9.9999984618934945e-01
9.8999999999999808e+00 +8.1502265727223477e+00 +0.0000000000000000e+00 +9.8999994820235813e+00 -5.6029597337678601e-04 +0.0000000000000000e+00 +9.9999984303419831e-01
9.9999999999999805e+00 +8.1501702601343506e+00 +0.0000000000000000e+00 +9.9999994661679086e+00 -5.6595578770515624e-04 +0.0000000000000000e+00 +9.9999983984700991e-01
1.0099999999999980e+01 +8.1501133815645801e+00 +0.0000000000000000e+00 +1.0099999449991916e+01 -5.7161560884674075e-04 +0.0000000000000000e+00 +9.9999983662778402e-01
1.0199999999999980e+01 +8.1500559370123522e+00 +0.0000000000000000e+00 +1.0199999433492398e+01 -5.7727543685694377e-04 +0.0000000000000000e+00 +9.9999983337652065e-01
1.0299999999999979e+01 +8.1499979264769777e+00 +0.0000000000000000e+00 +1.0299999416666152e+01 -5.8293527178721180e-04 +0.0000000000000000e+00 +9.9999983009321958e-01
1.0399999999999979e+01 +8.1499393499577621e+00 +0.0000000000000000e+00 +1.0399999399509975e+01 -5.8859511368489171e-04 +0.0000000000000000e+00 +9.9999982677788057e-01
1.0499999999999979e+01 +8.1498802074540073e+00 +0.0000000000000000e+00 +1.0499999382020661e+01 -5.9425496259323017e-04 +0.0000000000000000e+00 +9.9999982343050364e-01
1.0599999999999978e+01 +8.1498204989650098e+00 +0.0000000000000000e+00 +1.0599999364195007e+01 -5.9991481855137317e-04 +0.0000000000000000e+00 +9.9999982005108856e-01
1.0699999999999978e+01 +8.1497602244900609e+00 +0.0000000000000000e+00 +1.0699999346029809e+01 -6.0557468159436493e-04 +0.0000000000000000e+00 +9.9999981663963522e-01
1.0799999999999978e+01 +8.1496993840284535e+00 +0.0000000000000000e+00 +1.0799999327521865e+01 -6.1123455175314751e-04 +0.0000000000000000e+00 +9.9999981319614339e-01
1.0899999999999977e+01 +8.1496379775794736e+00 +0.0000000000000000e+00 +1.0899999308667971e+01 -6.1689442905455999e-04 +0.0000000000000000e+00 +9.9999980972061309e-01
1.0999999999999977e+01 +8.1495760051424053e+00 +0.0000000000000000e+00 +1.0999999289464920e+01 -6.2255431352133790e-04 +0.0000000000000000e+00 +9.9999980621304407e-01
1.1099999999999977e+01 +8.1495134667165310e+00 +0.0000000000000000e+00 +1.1099999269909512e+01 -6.2821420517211214e-04 +0.0000000000000000e+00 +9.9999980267343624e-01
1.1199999999999976e+01 +8.1494503623011312e+00 +0.0000000000000000e+00 +1.1199999249998541e+01 -6.3387410402140855e-04 +0.0000000000000000e+00 +9.9999979910178949e-01
1.1299999999999976e+01 +8.1493866918954865e+00 +0.0000000000000000e+00 +1.1299999229728803e+01 -6.3953401007964684e-04 +0.0000000000000000e+00 +9.9999979549810358e-01
1.1399999999999975e+01 +8.1493224554988757e+00 +0.0000000000000000e+00 +1.1399999209097095e+01 -6.4519392335314011e-04 +0.0000000000000000e+00 +9.9999979186237853e-01
1.1499999999999975e+01 +8.1492576531105758e+00 +0.0000000000000000e+00 +1.1499999188100212e+01 -6.5085384384409362e-04 +0.0000000000000000e+00 +9.9999978819461410e-01
1.1599999999999975e+01 +8.1491922847298657e+00 +0.0000000000000000e+00 +1.1599999166734950e+01 -6.5651377155060428e-04 +0.0000000000000000e+00 +9.9999978449481020e-01
1.1699999999999974e+01 +8.1491263503560241e+00 +0.0000000000000000e+00 +1.1699999144998106e+01 -6.6217370646665975e-04 +0.0000000000000000e+00 +9.9999978076296669e-01
1.1799999999999974e+01 +8.1490598499883315e+00 +0.0000000000000000e+00 +1.1799999122886476e+01 -6.6783364858213727e-04 +0.0000000000000000e+00 +9.9999977699908349e-01
