# multipoles
# s[mm] polynom_b[n=0][T/m^n] polynom_b[n=1][T/m^n] polynom_b[n=2][T/m^n] polynom_b[n=3][T/m^n] polynom_b[n=4][T/m^n] polynom_b[n=5][T/m^n] polynom_b[n=6][T/m^n] 
+0.0000000000000000e+00 -5.6526740230014905e-01 +7.7425158431442487e+00 -5.5794247304194067e-01 -1.3184931315868241e+01 +8.3044043141213006e+03 -8.1462763839820342e+04 -4.7579048256116547e+07 
+1.0000000000000001e-01 -5.6526775931705664e-01 +7.7425138555481983e+00 -5.6574963926301569e-01 -1.2984761055906386e+01 +8.3959944281765765e+03 -8.1499979656431227e+04 -4.7913302369694315e+07 
+2.0000000000000001e-01 -5.6526812332414555e-01 +7.7425128650711414e+00 -5.7321130418985788e-01 -1.2787460953965217e+01 +8.4858477806902247e+03 -8.1534083556105485e+04 -4.8251264516465664e+07 
+2.9999999999999999e-01 -5.6526849490050235e-01 +7.7425128125968188e+00 -5.8031295716878573e-01 -1.2592377773052387e+01 +8.5736264391069417e+03 -8.1571414185825211e+04 -4.8591179410445824e+07 
+4.0000000000000002e-01 -5.6526887462521314e-01 +7.7425136390154394e+00 -5.8704008313856204e-01 -1.2398858515539736e+01 +8.6589923892620463e+03 -8.1618308611102548e+04 -4.8931291381031744e+07 
+5.0000000000000000e-01 -5.6526926307739278e-01 +7.7425152852050774e+00 -5.9337817037807394e-01 -1.2206249853131952e+01 +8.7416076776007067e+03 -8.1681105703591544e+04 -4.9269845035919845e+07 
+5.9999999999999998e-01 -5.6526966083613372e-01 +7.7425176920491534e+00 -5.9931270735219644e-01 -1.2013898639769355e+01 +8.8211343591430868e+03 -8.1766143160057283e+04 -4.9605085034713224e+07 
+6.9999999999999996e-01 -5.6527006848051331e-01 +7.7425208004166590e+00 -6.0482918077703496e-01 -1.1821151339883979e+01 +8.8972344537221725e+03 -8.1879760814042500e+04 -4.9935255860775426e+07 
+8.0000000000000004e-01 -5.6527048658965229e-01 +7.7425245511812584e+00 -6.0991307923868054e-01 -1.1627354576101496e+01 +8.9695700193717912e+03 -8.2028297481240719e+04 -5.0258602185071230e+07 
+9.0000000000000002e-01 -5.6527091574264787e-01 +7.7425288852116081e+00 -6.1454989130761861e-01 -1.1431854851572924e+01 +9.0378031154428481e+03 -8.2218092566863983e+04 -5.0573368683388308e+07 
+1.0000000000000000e+00 -5.6527135651856142e-01 +7.7425337433685693e+00 -6.1872510649071066e-01 -1.1233998459174474e+01 +9.1015958204819690e+03 -8.2455486619907548e+04 -5.0877800124427199e+07 
+1.1000000000000001e+00 -5.6527180949654010e-01 +7.7425390665145928e+00 -6.2242421115555524e-01 -1.1033131761800512e+01 +9.1606101562365275e+03 -8.2746819696080798e+04 -5.1170141008840181e+07 
+1.2000000000000000e+00 -5.6527227525564572e-01 +7.7425447955052071e+00 -6.2563269847852032e-01 -1.0828600939549801e+01 +9.2145082738377132e+03 -8.3098432831806713e+04 -5.1448636450449586e+07 
+1.3000000000000000e+00 -5.6527275437497537e-01 +7.7425508711932904e+00 -6.2833605462166287e-01 -1.0619752105270383e+01 +9.2629521959222020e+03 -8.3516667420288330e+04 -5.1711530956634834e+07 
+1.3999999999999999e+00 -5.6527324743365903e-01 +7.7425572344236571e+00 -6.3051977187827901e-01 -1.0405931155112039e+01 +9.3056040634724031e+03 -8.4007866044913084e+04 -5.1957069600770228e+07 
+1.5000000000000000e+00 -5.6527375501069754e-01 +7.7425638260424270e+00 -6.3216934139600345e-01 -1.0186484039568482e+01 +9.3421259976529782e+03 -8.4578370920575442e+04 -5.2183497359897718e+07 
+1.6000000000000001e+00 -5.6527427768524008e-01 +7.7425705868889700e+00 -6.3327025321616992e-01 -9.9607565186703493e+00 +9.3721801003686433e+03 -8.5234525346095819e+04 -5.2389059119010732e+07 
+1.7000000000000000e+00 -5.6527481603635499e-01 +7.7425774577989044e+00 -6.3380800112251401e-01 -9.7280942458412873e+00 +9.3954285510959144e+03 -8.5982673231827546e+04 -5.2572000143175095e+07 
+1.8000000000000000e+00 -5.6527537064311728e-01 +7.7425843796035139e+00 -6.3376807775800204e-01 -9.4878427637304572e+00 +9.4115335080689347e+03 -8.6829159094228322e+04 -5.2730565591346547e+07 
+1.8999999999999999e+00 -5.6527594208456877e-01 +7.7425912931286103e+00 -6.3313597667397903e-01 -9.2393474672374172e+00 +9.4201571522033573e+03 -8.7780328277092500e+04 -5.2863000738224030e+07 
+2.0000000000000000e+00 -5.6527653093980490e-01 +7.7425981391988792e+00 -6.3189719164401492e-01 -8.9819537058880208e+00 +9.4209616705677836e+03 -8.8842526437205699e+04 -5.2967550885589711e+07 
+2.1000000000000001e+00 -5.6527713754080078e-01 +7.7426048713720723e+00 -6.3004565176786353e-01 -8.7154303795055430e+00 +9.4137273245433043e+03 -9.0018489543568430e+04 -5.3042874383020669e+07 
+2.2000000000000002e+00 -5.6527776123423257e-01 +7.7426114923225597e+00 -6.2760876006452504e-01 -8.4412183167531065e+00 +9.3987035442753204e+03 -9.1296761343847567e+04 -5.3089286694607019e+07 
+2.2999999999999998e+00 -5.6527840112120964e-01 +7.7426180165317522e+00 -6.2462222900354025e-01 -8.1611704397989637e+00 +9.3762564272034269e+03 -9.2662399114713800e+04 -5.3107519415852278e+07 
+2.3999999999999999e+00 -5.6527905630288866e-01 +7.7426244584856416e+00 -6.2112176176559730e-01 -7.8771397829775527e+00 +9.3467519000243865e+03 -9.4100459619457441e+04 -5.3098303349004529e+07 
+2.5000000000000000e+00 -5.6527972588031106e-01 +7.7426308326716660e+00 -6.1714307189267981e-01 -7.5909794315918031e+00 +9.3105560830289469e+03 -9.5595999379829664e+04 -5.3062370211304769e+07 
+2.6000000000000001e+00 -5.6528040895463272e-01 +7.7426371535775855e+00 -6.1272186519732474e-01 -7.3045424700772772e+00 +9.2680349482485763e+03 -9.7134075045733698e+04 -5.3000451012686968e+07 
+2.7000000000000002e+00 -5.6528110462699288e-01 +7.7426434357012264e+00 -6.0789384617385944e-01 -7.0196822559566545e+00 +9.2195544471546455e+03 -9.8699741833173786e+04 -5.2913276684071593e+07 
+2.7999999999999998e+00 -5.6528181199845651e-01 +7.7426496935349194e+00 -6.0269472405738378e-01 -6.7382519963961434e+00 +9.1654806150162422e+03 -1.0027805591360654e+05 -5.2801578541405693e+07 
+2.8999999999999999e+00 -5.6528253017020502e-01 +7.7426559415827327e+00 -5.9716020045770346e-01 -6.4621052058484105e+00 +9.1061793449627203e+03 -1.0185407189065278e+05 -5.2666087238159917e+07 
+3.0000000000000000e+00 -5.6528325824335812e-01 +7.7426621943498644e+00 -5.9132598053348417e-01 -6.1930954271591094e+00 +9.0420165944606943e+03 -1.0341284433915550e+05 -5.2507533732080787e+07 
+3.1000000000000001e+00 -5.6528399531901952e-01 +7.7426684663444316e+00 -5.8522776700945689e-01 -5.9330762704504743e+00 +8.9733582722204210e+03 -1.0493942762480391e+05 -5.2326648749533989e+07 
+3.2000000000000002e+00 -5.6528474049837929e-01 +7.7426747720877866e+00 -5.7890125913634549e-01 -5.6839017217420471e+00 +8.9005702243480318e+03 -1.0641887410096308e+05 -5.2124162735951282e+07 
+3.2999999999999998e+00 -5.6528549288256613e-01 +7.7426811261000816e+00 -5.7238215853477348e-01 -5.4474256911274557e+00 +8.8240183327857067e+03 -1.0783623683235252e+05 -5.1900806291202992e+07 
+3.3999999999999999e+00 -5.6528625157272971e-01 +7.7426875429146715e+00 -5.6570616104629723e-01 -5.2255024660936540e+00 +8.7440683736617430e+03 -1.0917656686758486e+05 -5.1657309531176947e+07 
+3.5000000000000000e+00 -5.6528701567004314e-01 +7.7426940370676736e+00 -5.5890896495156284e-01 -5.0199863946627241e+00 +8.6610861624171066e+03 -1.1042491512570155e+05 -5.1394402751006946e+07 
+3.6000000000000001e+00 -5.6528778427568838e-01 +7.7427006231070736e+00 -5.5202626384420372e-01 -4.8327321283997415e+00 +8.5754374274680249e+03 -1.1156633106273002e+05 -5.1112815848065443e+07 
+3.7000000000000002e+00 -5.6528855649081589e-01 +7.7427073155855375e+00 -5.4509375057776466e-01 -4.6655944429718721e+00 +8.4874878768891358e+03 -1.1258586363415551e+05 -5.0813278617081448e+07 
+3.7999999999999998e+00 -5.6528933141663606e-01 +7.7427141290680481e+00 -5.3814711648614810e-01 -4.5204284393275680e+00 +8.3976031866815465e+03 -1.1346856018833167e+05 -5.0496520703841403e+07 
+3.8999999999999999e+00 -5.6529010815433200e-01 +7.7427210781292644e+00 -5.3122204893338310e-01 -4.3990894617486331e+00 +8.3061489569292935e+03 -1.1419946697973194e+05 -5.0163271404514052e+07 
+4.0000000000000000e+00 -5.6529088580514997e-01 +7.7427281773527419e+00 -5.2435423656527103e-01 -4.3034330836609609e+00 +8.2134908074234536e+03 -1.1476362922434532e+05 -4.9814260111905068e+07 
+4.0999999999999996e+00 -5.6529166357496574e-01 +7.7427354346333788e+00 -5.1757482578370995e-01 -4.2342479068553009e+00 +8.1199705867316861e+03 -1.1515427496476193e+05 -4.9450329983228579e+07 
+4.2000000000000002e+00 -5.6529244107580434e-01 +7.7427428346620069e+00 -5.1089845139368084e-01 -4.1882191773589224e+00 +8.0258435820647655e+03 -1.1539604101121175e+05 -4.9072744110611834e+07 
+4.2999999999999998e+00 -5.6529321801818488e-01 +7.7427503571943923e+00 -5.0433601969838537e-01 -4.1610441730450241e+00 +7.9313454320473893e+03 -1.1552111137881507e+05 -4.8682861969304599e+07 
+4.4000000000000004e+00 -5.6529399411254311e-01 +7.7427579819880155e+00 -4.9789844510127507e-01 -4.1484202132890076e+00 +7.8367119328397976e+03 -1.1556166983981061e+05 -4.8282043774364047e+07 
+4.5000000000000000e+00 -5.6529476906931309e-01 +7.7427656887993672e+00 -4.9159664399947378e-01 -4.1460445776264168e+00 +7.7421789283901808e+03 -1.1554990042995154e+05 -4.7871649976798318e+07 
+4.5999999999999996e+00 -5.6529554259888404e-01 +7.7427734573927429e+00 -4.8544153675904095e-01 -4.1496147700748942e+00 +7.6479823447763993e+03 -1.1551798586069571e+05 -4.7453041413360558e+07 
+4.7000000000000002e+00 -5.6529631441169037e-01 +7.7427812675281524e+00 -4.7944404711111616e-01 -4.1548281637184372e+00 +7.5543581838350483e+03 -1.1549810960214822e+05 -4.7027579293635108e+07 
+4.7999999999999998e+00 -5.6529708421811198e-01 +7.7427890989739812e+00 -4.7361510412238295e-01 -4.1573823760449695e+00 +7.4615425551626686e+03 -1.1552245367656036e+05 -4.6596625331094295e+07 
+4.9000000000000004e+00 -5.6529785172848090e-01 +7.7427969314958593e+00 -4.6796564150966896e-01 -4.1529749244866627e+00 +7.3697716684374909e+03 -1.1562320070602885e+05 -4.6161541723387308e+07 
+5.0000000000000000e+00 -5.6529861665314973e-01 +7.7428047448631530e+00 -4.6250659937817890e-01 -4.1373034456782936e+00 +7.2792818626056369e+03 -1.1583253255528265e+05 -4.5723691279186897e+07 
+5.0999999999999996e+00 -5.6529937870244151e-01 +7.7428125188491110e+00 -4.5724891719676325e-01 -4.1060656750988720e+00 +7.1903094763000463e+03 -1.1618263050291454e+05 -4.5284436809143938e+07 
+5.2000000000000002e+00 -5.6530013758665454e-01 +7.7428202332238625e+00 -4.5220354737531521e-01 -4.0549592497010005e+00 +7.1030911080087108e+03 -1.1670567638047285e+05 -4.4845142370227695e+07 
+5.2999999999999998e+00 -5.6530089301606934e-01 +7.7428278677668310e+00 -4.4738144259069768e-01 -3.9796820763343024e+00 +7.0178633659290463e+03 -1.1743385038832559e+05 -4.4407172048475511e+07 
+5.4000000000000004e+00 -5.6530164470092648e-01 +7.7428354022530934e+00 -4.4279356416329785e-01 -3.8759319303837390e+00 +6.9348630403887018e+03 -1.1839933345534038e+05 -4.3971890813667633e+07 
+5.5000000000000000e+00 -5.6530239235144608e-01 +7.7428428164628329e+00 -4.3845087492794149e-01 -3.7394067340761379e+00 +6.8543269615946374e+03 -1.1963430558156031e+05 -4.3540663824064553e+07 
+5.5999999999999996e+00 -5.6530313567782298e-01 +7.7428500901749500e+00 -4.3436435069990664e-01 -3.5658043560100037e+00 +6.7764922163992906e+03 -1.2117094706496710e+05 -4.3114857451007478e+07 
+5.7000000000000002e+00 -5.6530387439021756e-01 +7.7428572031754612e+00 -4.3054496787026247e-01 -3.3508228785829699e+00 +6.7015959198480350e+03 -1.2304143685880469e+05 -4.2695838213848732e+07 
+5.7999999999999998e+00 -5.6530460819878625e-01 +7.7428641352490741e+00 -4.2700371286926353e-01 -3.0901603351238656e+00 +6.6298753850479588e+03 -1.2527795414950467e+05 -4.2284973556876011e+07 
+5.9000000000000004e+00 -5.6530533681364403e-01 +7.7428708661832806e+00 -4.2375157785340983e-01 -2.7795148377097645e+00 +6.5615680554429027e+03 -1.2791267758729192e+05 -4.1883631566880912e+07 
+5.9999999999999902e+00 -5.6530605994487360e-01 +7.7428773757634666e+00 -4.2079956209387481e-01 -2.4145844497025331e+00 +6.4969115188710948e+03 -1.3097778599569677e+05 -4.1493181003335625e+07 
+6.0999999999999899e+00 -5.6530677738335411e-01 +7.7428836626727815e+00 -4.1815207079956307e-01 -1.9932127768197634e+00 +6.4360272276521500e+03 -1.3448969706025656e+05 -4.1114510242401898e+07 
+6.1999999999999904e+00 -5.6530748927921792e-01 +7.7428897996094603e+00 -4.1578279751460601e-01 -1.5218115383358888e+00 +6.3785563067672274e+03 -1.3840149278026834e+05 -4.0746719869799204e+07 
+6.2999999999999901e+00 -5.6530819588142689e-01 +7.7428958775824341e+00 -4.1365665335098661e-01 -1.0089479067287896e+00 +6.3240155363305703e+03 -1.4265022399355925e+05 -4.0388496486701094e+07 
+6.3999999999999897e+00 -5.6530889743909152e-01 +7.7429019875794802e+00 -4.1173853843972391e-01 -4.6318843749773764e-01 +6.2719214816024905e+03 -1.4717294479946338e+05 -4.0038525710844263e+07 
+6.4999999999999902e+00 -5.6530959420120841e-01 +7.7429082205879105e+00 -4.0999334558291223e-01 +1.0690035928321326e-01 +6.2217905534463744e+03 -1.5190670931505229e+05 -3.9695492438409954e+07 
+6.5999999999999899e+00 -5.6531028641699266e-01 +7.7429146675733049e+00 -4.0838595423269031e-01 +6.9275262336790289e-01 +6.1731388933777844e+03 -1.5678857513946184e+05 -3.9358080296749353e+07 
+6.6999999999999904e+00 -5.6531097433564359e-01 +7.7429214194943476e+00 -4.0688123745264604e-01 +1.2858027339522220e+00 +6.1254825012017673e+03 -1.6175560101042091e+05 -3.9024972243357316e+07 
+6.7999999999999901e+00 -5.6531165820635076e-01 +7.7429285672928980e+00 -4.0544405175884324e-01 +1.8774855760796454e+00 +6.0783370504857194e+03 -1.6674484827758127e+05 -3.8694849713200510e+07 
+6.8999999999999897e+00 -5.6531233827846417e-01 +7.7429362019015313e+00 -4.0403924682424314e-01 +2.4592363438282803e+00 +6.0312180662452674e+03 -1.7169337980918572e+05 -3.8366393447015688e+07 
+6.9999999999999902e+00 -5.6531301480137353e-01 +7.7429444142341266e+00 -4.0263165857701400e-01 +3.0224908010948157e+00 +5.9836407902093642e+03 -1.7653826146094207e+05 -3.8038282844227493e+07 
+7.0999999999999899e+00 -5.6531368802448756e-01 +7.7429532951932183e+00 -4.0118610585567133e-01 +3.5586850723046459e+00 +5.9351201249120131e+03 -1.8121656085134839e+05 -3.7709195719626561e+07 
+7.1999999999999904e+00 -5.6531435819726750e-01 +7.7429629356641705e+00 -3.9966740259414840e-01 +4.0592558147258382e+00 +5.8851708566728812e+03 -1.8566534836513066e+05 -3.7377809342906259e+07 
+7.2999999999999901e+00 -5.6531502556932267e-01 +7.7429734265180752e+00 -3.9804034272485822e-01 +4.5156401274291920e+00 +5.8333073725270287e+03 -1.8982169658639914e+05 -3.7042799106027730e+07 
+7.3999999999999897e+00 -5.6531569039027052e-01 +7.7429848586101748e+00 -3.9626971017251572e-01 +4.9192756072942592e+00 +5.7790438470291656e+03 -1.9362268064650675e+05 -3.6702839404492721e+07 
+7.4999999999999902e+00 -5.6531635290978810e-01 +7.7429973227769437e+00 -3.9432027232714778e-01 +5.2616004386841793e+00 +5.7218941178191280e+03 -1.9700537873599515e+05 -3.6356603047589079e+07 
+7.5999999999999899e+00 -5.6531701337768125e-01 +7.7430109098371025e+00 -3.9215678241847940e-01 +5.5340533416098054e+00 +5.6613717355848039e+03 -1.9990687173490343e+05 -3.6002761511444502e+07 
+7.6999999999999904e+00 -5.6531767204376504e-01 +7.7430257105952238e+00 -3.8974397858869908e-01 +5.7280734923111183e+00 +5.5969899326760960e+03 -2.0226424280703370e+05 -3.5639984754281878e+07 
+7.7999999999999901e+00 -5.6531832915802960e-01 +7.7430418158335668e+00 -3.8704658252059726e-01 +5.8351007509840391e+00 +5.5282616106860887e+03 -2.0401457867878769e+05 -3.5266941196929812e+07 
+7.8999999999999897e+00 -5.6531898497040622e-01 +7.7430593163219052e+00 -3.8402930267842567e-01 +5.8465753746986246e+00 +5.4546993935180753e+03 -2.0509496796142397e+05 -3.4882297955515891e+07 
+7.9999999999999902e+00 -5.6531963973099819e-01 +7.7430783028002192e+00 -3.8065682626456870e-01 +5.7539385583093594e+00 +5.3758154771305235e+03 -2.0544250428141508e+05 -3.4484720130071364e+07 
+8.0999999999999908e+00 -5.6532029371351200e-01 +7.7430988228632689e+00 -3.7690403543456696e-01 +5.5515823979929086e+00 +5.2913089232210923e+03 -2.0501475786947523e+05 -3.4073562020650119e+07 
+8.1999999999999904e+00 -5.6532094722973247e-01 +7.7431207617767157e+00 -3.7279230217801568e-01 +5.2457290189087686e+00 +5.2016273415312971e+03 -2.0385294806008146e+05 -3.3650609200457618e+07 
+8.2999999999999901e+00 -5.6532160058652525e-01 +7.7431439663055990e+00 -3.6835613416647528e-01 +4.8456018467607302e+00 +5.1074065130830786e+03 -2.0201991249787662e+05 -3.3218171539608251e+07 
+8.3999999999999897e+00 -5.6532225409066550e-01 +7.7431682832228894e+00 -3.6363005063466031e-01 +4.3604240763100703e+00 +5.0092824382652479e+03 -1.9957848789357638e+05 -3.2778559873040576e+07 
+8.4999999999999893e+00 -5.6532290804892349e-01 +7.7431935593157855e+00 -3.5864858133354338e-01 +3.7994183829419192e+00 +4.9078913184982539e+03 -1.9659150798577882e+05 -3.2334085929719739e+07 
+8.5999999999999908e+00 -5.6532356276794582e-01 +7.7432196413759158e+00 -3.5344626788845790e-01 +3.1718072326039088e+00 +4.8038695850541080e+03 -1.9312180543794317e+05 -3.1887062475608464e+07 
+8.6999999999999904e+00 -5.6532421855437309e-01 +7.7432463762064980e+00 -3.4805766331617066e-01 +2.4868126519157152e+00 +4.6978538912757485e+03 -1.8923221044631055e+05 -3.1439803277649317e+07 
+8.7999999999999794e+00 -5.6532487571475420e-01 +7.7432736106265789e+00 -3.4251733200302509e-01 +1.7536561090706986e+00 +4.5904811095741661e+03 -1.8498555007904262e+05 -3.0994623080970798e+07 
+8.8999999999999808e+00 -5.6532553455552625e-01 +7.7433011914579444e+00 -3.3685985305253302e-01 +9.8155888732063667e-01 +4.4823884004644169e+03 -1.8044465043545832e+05 -3.0553837948594447e+07 
+8.9999999999999805e+00 -5.6532619538313567e-01 +7.7433289655445021e+00 -3.3111981474088181e-01 +1.7974152329271628e-01 +4.3742130999275005e+03 -1.7567233340549329e+05 -3.0119764704292569e+07 
+9.0999999999999801e+00 -5.6532685850389408e-01 +7.7433567797332197e+00 -3.2533182326801180e-01 -6.4257564555533131e-01 +4.2665928934502299e+03 -1.7073141984454615e+05 -2.9694721778272189e+07 
+9.1999999999999797e+00 -5.6532752422403520e-01 +7.7433844808889880e+00 -3.1953049495874547e-01 -1.4761729141483322e+00 +4.1601656631408650e+03 -1.6568472707027575e+05 -2.9281028465784747e+07 
+9.2999999999999794e+00 -5.6532819284977098e-01 +7.7434119158869752e+00 -3.1375045994334311e-01 -2.3118309917714628e+00 +4.0555695578046793e+03 -1.6059507011378984e+05 -2.8881005257964153e+07 
+9.3999999999999808e+00 -5.6532886468716337e-01 +7.7434389316149828e+00 -3.0802636820331891e-01 -3.1403310714638550e+00 +3.9534431105984281e+03 -1.5552526135833430e+05 -2.8496974406796299e+07 
+9.4999999999999805e+00 -5.6532954004225455e-01 +7.7434653749757025e+00 -3.0239287734786480e-01 -3.9524549069945105e+00 +3.8544250114063630e+03 -1.5053811004615415e+05 -2.8131258852092698e+07 
+9.5999999999999801e+00 -5.6533021922086590e-01 +7.7434910928897329e+00 -2.9688466896955951e-01 -4.7389848834343136e+00 +3.7591544025085873e+03 -1.4569642194657918e+05 -2.7786183585183073e+07 
+9.6999999999999797e+00 -5.6533090252897111e-01 +7.7435159322852085e+00 -2.9153642900518384e-01 -5.4907037477584844e+00 +3.6682705230330525e+03 -1.4106300083691964e+05 -2.7464074002944250e+07 
+9.7999999999999794e+00 -5.6533159027222157e-01 +7.7435397401094459e+00 -2.8638287078097568e-01 -6.1983949226971040e+00 +3.5824131385457008e+03 -1.3670064676501765e+05 -2.7167257925924074e+07 
+9.8999999999999808e+00 -5.6533228275632241e-01 +7.7435623633233295e+00 -2.8145871599314137e-01 -6.8528423650440997e+00 +3.5022221771300515e+03 -1.3267215682445190e+05 -2.6898063858980678e+07 
+9.9999999999999805e+00 -5.6533298028680745e-01 +7.7435836489057994e+00 -2.7679870978951976e-01 -7.4448307369234765e+00 +3.4283380165632548e+03 -1.2904032417282018e+05 -2.6658822359620266e+07 
+1.0100000000000000e+01 -5.6533368299606634e-01 +7.7436034559974312e+00 -2.7243561163411079e-01 -7.9667654699984354e+00 +3.3613033271857416e+03 -1.2585604083018946e+05 -2.6451372669210427e+07 
