# multipoles
# s[mm] polynom_b[n=0][T/m^n] polynom_b[n=1][T/m^n] polynom_b[n=2][T/m^n] polynom_b[n=3][T/m^n] polynom_b[n=4][T/m^n] polynom_b[n=5][T/m^n] polynom_b[n=6][T/m^n] 
+0.0000000000000000e+00 -5.3664574218085404e-01 +7.3478938888092777e+00 -7.9827658843194271e-01 -1.2755808480378120e+01 +6.2161263420658779e+03 -2.1074581701462701e+05 -3.9983893084838010e+07 
+1.0000000000000001e-01 -5.3664570075316975e-01 +7.3478522017300145e+00 -7.9454899713725924e-01 -1.1847836385990302e+01 +6.1594832036030857e+03 -2.1553929707131814e+05 -3.9770494605814658e+07 
+2.0000000000000001e-01 -5.3664565329883851e-01 +7.3478088806068653e+00 -7.9125857470359551e-01 -1.0919513360540247e+01 +6.1058303606052450e+03 -2.2040135521493602e+05 -3.9557234174412742e+07 
+2.9999999999999999e-01 -5.3664560054531640e-01 +7.3477643487239641e+00 -7.8836732659091313e-01 -9.9780830814838186e+00 +6.0547265480062788e+03 -2.2529985618403993e+05 -3.9342950702386469e+07 
+4.0000000000000002e-01 -5.3664554322002633e-01 +7.3477190293673402e+00 -7.8583726369748097e-01 -9.0307892575751421e+00 +6.0057305997062940e+03 -2.3020266465223959e+05 -3.9126483561175197e+07 
+5.0000000000000000e-01 -5.3664548205036411e-01 +7.3476733458244512e+00 -7.8363039050422434e-01 -8.0848756127640939e+00 +5.9584012300338745e+03 -2.3507764532168725e+05 -3.8906671561146945e+07 
+5.9999999999999998e-01 -5.3664541776372299e-01 +7.3476277213892960e+00 -7.8170871854498480e-01 -7.1475860320991185e+00 +5.9122972880929638e+03 -2.3989266206404494e+05 -3.8682354156201631e+07 
+6.9999999999999996e-01 -5.3664535108762279e-01 +7.3475825793534124e+00 -7.8003425343847466e-01 -6.2261643107868974e+00 +5.8669775097513493e+03 -2.4461557935027298e+05 -3.8452370258908823e+07 
+8.0000000000000004e-01 -5.3664528274942325e-01 +7.3475383430116992e+00 -7.7856900120007888e-01 -5.3278543165067083e+00 +5.8220006420522695e+03 -2.4921426131106057e+05 -3.8215558846038900e+07 
+9.0000000000000002e-01 -5.3664521347660710e-01 +7.3474954356631876e+00 -7.7727496676097418e-01 -4.4599000170875636e+00 +5.7769254169303349e+03 -2.5365657155507506e+05 -3.7970758834383272e+07 
+1.0000000000000000e+00 -5.3664514399666730e-01 +7.3474542806004211e+00 -7.7611415370624703e-01 -3.6295451717844402e+00 +5.7313105417141633e+03 -2.5791037495686693e+05 -3.7716809027513191e+07 
+1.1000000000000001e+00 -5.3664507503701553e-01 +7.3474153011231458e+00 -7.7504856710227643e-01 -2.8440337379919156e+00 +5.6847147614816913e+03 -2.6194353525305461e+05 -3.7452548432363681e+07 
+1.2000000000000000e+00 -5.3664500732523457e-01 +7.3473789205270101e+00 -7.7404020483360914e-01 -2.1106095296526703e+00 +5.6366966885206211e+03 -2.6572391706414073e+05 -3.7176815432047129e+07 
+1.3000000000000000e+00 -5.3664494158878251e-01 +7.3473455621072814e+00 -7.7305106785183242e-01 -1.4365163378968200e+00 +5.5868150016748959e+03 -2.6921938514060760e+05 -3.6888448747167096e+07 
+1.3999999999999999e+00 -5.3664487855526233e-01 +7.3473156491547025e+00 -7.7204315067167473e-01 -8.2899781723929800e-01 +5.5346282675534130e+03 -2.7239780500329070e+05 -3.6586286588964522e+07 
+1.5000000000000000e+00 -5.3664481895226290e-01 +7.3472896049664209e+00 -7.7097845070836102e-01 -2.9529778327940998e-01 +5.4796951163449085e+03 -2.7522704126051953e+05 -3.6269167491711475e+07 
+1.6000000000000001e+00 -5.3664476350739587e-01 +7.3472678528272137e+00 -7.6981895746083295e-01 +1.5734030593651649e-01 +5.4215740379329300e+03 -2.7767496052913868e+05 -3.5935929345495924e+07 
+1.7000000000000000e+00 -5.3664471294827498e-01 +7.3472508160241086e+00 -7.6852666207080067e-01 +5.2167294084095395e-01 +5.3598235669710093e+03 -2.7970942910588329e+05 -3.5585410287260942e+07 
+1.8000000000000000e+00 -5.3664466800264521e-01 +7.3472389178391966e+00 -7.6706355114280367e-01 +7.9045675707785246e-01 +5.2940021637208629e+03 -2.8129831405651587e+05 -3.5216448127514377e+07 
+1.8999999999999999e+00 -5.3664462939818147e-01 +7.3472325815510695e+00 -7.6539160837696607e-01 +9.5644850561341443e-01 +5.2236682459499407e+03 -2.8240948307149997e+05 -3.4827880505710363e+07 
+2.0000000000000000e+00 -5.3664459786271257e-01 +7.3472322304312367e+00 -7.6347281440077563e-01 +1.0124051230498172e+00 +5.1483801898667016e+03 -2.8301080477198126e+05 -3.4418544902340718e+07 
+2.1000000000000001e+00 -5.3664457401556453e-01 +7.3472381574171131e+00 -7.6127667833320367e-01 +9.5311343837202112e-01 +5.0678228782141141e+03 -2.8307860757271881e+05 -3.3987740926826864e+07 
+2.2000000000000002e+00 -5.3664455806000377e-01 +7.3472501586788832e+00 -7.5880010242191898e-01 +7.8110018018482030e-01 +4.9821448275702569e+03 -2.8262167714018910e+05 -3.3536457713766720e+07 
+2.2999999999999998e+00 -5.3664455009947321e-01 +7.3472679120294684e+00 -7.5604620465008632e-01 +5.0073654046772620e-01 +4.8916005956632434e+03 -2.8165658130844269e+05 -3.3066069684075151e+07 
+2.3999999999999999e+00 -5.3664455023751068e-01 +7.3472910952815162e+00 -7.5301810183857087e-01 +1.1639368375874448e-01 +4.7964447241684484e+03 -2.8019988764698897e+05 -3.2577951201758746e+07 
+2.5000000000000000e+00 -5.3664455857758853e-01 +7.3473193862412787e+00 -7.4971890767476079e-01 -3.6755706019037859e-01 +4.6969316886869892e+03 -2.7826816462211928e+05 -3.2073476304274324e+07 
+2.6000000000000001e+00 -5.3664457522318765e-01 +7.3473524627208100e+00 -7.4615173847360994e-01 -9.4674456225607906e-01 +4.5933160209197922e+03 -2.7587797944856680e+05 -3.1554019318815965e+07 
+2.7000000000000002e+00 -5.3664460027780458e-01 +7.3473900025218519e+00 -7.4231970759123722e-01 -1.6167974328434780e+00 +4.4858521910253530e+03 -2.7304590074394888e+05 -3.1020954270822704e+07 
+2.7999999999999998e+00 -5.3664463384492866e-01 +7.3474316834486055e+00 -7.3822592840886947e-01 -2.3733443869877529e+00 +4.3747946676133988e+03 -2.6978849643153406e+05 -3.0475655180598501e+07 
+2.8999999999999999e+00 -5.3664467602804311e-01 +7.3474771832996995e+00 -7.3387351451148575e-01 -3.2120140205107930e+00 +4.2603979228069657e+03 -2.6612233501457772e+05 -2.9919496091600332e+07 
+3.0000000000000000e+00 -5.3664472693063792e-01 +7.3475261798732356e+00 -7.2926557713198081e-01 -4.1284349611996536e+00 +4.1429163770259356e+03 -2.6206398469374518e+05 -2.9353850790867489e+07 
+3.1000000000000001e+00 -5.3664478665617743e-01 +7.3475783509652670e+00 -7.2440522997890544e-01 -5.1182358330985505e+00 +4.0226044957720519e+03 -2.5763001355099093e+05 -2.8780093282855976e+07 
+3.2000000000000002e+00 -5.3664485530813699e-01 +7.3476333743676934e+00 -7.1929558382588177e-01 -6.1770451830274258e+00 +3.8997166843907248e+03 -2.5283699001301391e+05 -2.8199597285050757e+07 
+3.2999999999999998e+00 -5.3664493298995930e-01 +7.3476909278699871e+00 -7.1393975195292203e-01 -7.3004915479400836e+00 +3.7745073867396136e+03 -2.4770148241437224e+05 -2.7613736682560138e+07 
+3.3999999999999999e+00 -5.3664501980509305e-01 +7.3477506892588735e+00 -7.0834084544688336e-01 -8.4842034511236957e+00 +3.6472310008214131e+03 -2.4224005901419278e+05 -2.7023885142684475e+07 
+3.5000000000000000e+00 -5.3664511585694119e-01 +7.3478123363194108e+00 -7.0250197935097070e-01 -9.7238094190366926e+00 +3.5181419927271027e+03 -2.3646928793052697e+05 -2.6431416649117298e+07 
+3.6000000000000001e+00 -5.3664522124896319e-01 +7.3478755468324080e+00 -6.9642626292761489e-01 -1.1014937938075724e+01 +3.3874947087977212e+03 -2.3040573732064010e+05 -2.5837704601179909e+07 
+3.7000000000000002e+00 -5.3664533608448095e-01 +7.3479399985771456e+00 -6.9011681040227424e-01 -1.2353217509727004e+01 +3.2555435799244528e+03 -2.2406597511514463e+05 -2.5244122787194621e+07 
+3.7999999999999998e+00 -5.3664546046688422e-01 +7.3480053693277538e+00 -6.8357673572628719e-01 -1.3734276566119224e+01 +3.1225430254140970e+03 -2.1746656946749601e+05 -2.4652044937403489e+07 
+3.8999999999999999e+00 -5.3664559449954419e-01 +7.3480713368587516e+00 -6.7680915263228791e-01 -1.5153743632959932e+01 +2.9887474474840988e+03 -2.1062408779422761e+05 -2.4062844679267872e+07 
+4.0000000000000000e+00 -5.3664573828571649e-01 +7.3481375789380019e+00 -6.6981717644318672e-01 -1.6607247098478613e+01 +2.8544112675451383e+03 -2.0355509820324232e+05 -2.3477895719606385e+07 
+4.0999999999999996e+00 -5.3664589188541356e-01 +7.3482037919540657e+00 -6.6260910193098543e-01 -1.8090040038760062e+01 +2.7198164451891389e+03 -1.9627982953718549e+05 -2.2898542806279581e+07 
+4.2000000000000002e+00 -5.3664605519633246e-01 +7.3482697386613145e+00 -6.5521316870913104e-01 -1.9595866382092485e+01 +2.5853487899009829e+03 -1.8883270385746472e+05 -2.2325999070304200e+07 
+4.2999999999999998e+00 -5.3664622807829410e-01 +7.3483351965831361e+00 -6.4766240959885391e-01 -2.1118092296251103e+01 +2.4514185182645006e+03 -1.8125158201031128e+05 -2.1761441251057111e+07 
+4.4000000000000004e+00 -5.3664641039099692e-01 +7.3483999432457017e+00 -6.3998985870478264e-01 -2.2650084060210272e+01 +2.3184358626537787e+03 -1.7357432423433411e+05 -2.1206046130989343e+07 
+4.5000000000000000e+00 -5.3664660199418623e-01 +7.3484637561795951e+00 -6.3222855717255433e-01 -2.4185208083354635e+01 +2.1868111838749264e+03 -1.6583879014032637e+05 -2.0660991081408892e+07 
+4.5999999999999996e+00 -5.3664680274747323e-01 +7.3485264129244365e+00 -6.2441154880754679e-01 -2.5716831066406659e+01 +2.0569548850713172e+03 -1.5808283771178313e+05 -2.0127453643804487e+07 
+4.7000000000000002e+00 -5.3664701251056990e-01 +7.3485876910279382e+00 -6.1657187764921639e-01 -2.7238319954842257e+01 +1.9292773656684747e+03 -1.5034432363159658e+05 -1.9606611309066653e+07 
+4.7999999999999998e+00 -5.3664723114297397e-01 +7.3486473680410782e+00 -6.0874260074276954e-01 -2.8743041807146682e+01 +1.8041892651272817e+03 -1.4266110403343930e+05 -1.9099642679958656e+07 
+4.9000000000000004e+00 -5.3664745850431583e-01 +7.3487052215296345e+00 -6.0095677119527002e-01 -3.0224364123021125e+01 +1.6821011396089343e+03 -1.3507103262156830e+05 -1.8607725928818893e+07 
+5.0000000000000000e+00 -5.3664769445403571e-01 +7.3487610290613903e+00 -5.9324745179945959e-01 -3.1675654469900415e+01 +1.5634237196605595e+03 -1.2761196284646732e+05 -1.8132040019406363e+07 
+5.0999999999999996e+00 -5.3664793885162609e-01 +7.3488145682153538e+00 -5.8564771184524789e-01 -3.3090280764335851e+01 +1.4485678519398700e+03 -1.2032174625215826e+05 -1.7673764434593227e+07 
+5.2000000000000002e+00 -5.3664819155649446e-01 +7.3488656165820574e+00 -5.7819062061231496e-01 -3.4461611261031607e+01 +1.3379443728481756e+03 -1.1323823259041355e+05 -1.7234078567022849e+07 
+5.2999999999999998e+00 -5.3664845242797587e-01 +7.3489139517596929e+00 -5.7090925886769717e-01 -3.5783014452843268e+01 +1.2319643254488328e+03 -1.0639927038054581e+05 -1.6814162746942136e+07 
+5.4000000000000004e+00 -5.3664872132538310e-01 +7.3489593513573830e+00 -5.6383670990309354e-01 -3.7047859156818667e+01 +1.1310387944448876e+03 -9.9842706438585898e+04 -1.6415197470469425e+07 
+5.5000000000000000e+00 -5.3664899810793865e-01 +7.3490015929942993e+00 -5.5700606411160769e-01 -3.8249514496051930e+01 +1.0355789860421978e+03 -9.3606385974172779e+04 -1.6038363759108171e+07 
+5.5999999999999996e+00 -5.3664928263489342e-01 +7.3490404542995380e+00 -5.5045041800681038e-01 -3.9381349885745806e+01 +9.4599621387454079e+02 -8.7728152698980368e+04 -1.5684843104161782e+07 
+5.7000000000000002e+00 -5.3664957476533559e-01 +7.3490757129192232e+00 -5.4420287752585961e-01 -4.0436735247129874e+01 +8.6270195858883187e+02 -8.2245847579249588e+04 -1.5355817742022632e+07 
+5.7999999999999998e+00 -5.3664987435836109e-01 +7.3491071465054629e+00 -5.3829655064741888e-01 -4.1409040682230383e+01 +7.8610772977569502e+02 -7.7197310738175962e+04 -1.5052470001137469e+07 
+5.9000000000000004e+00 -5.3665018127297515e-01 +7.3491345327246069e+00 -5.3276455550628465e-01 -4.2291636714744726e+01 +7.1662521431723758e+02 -7.2620380064436409e+04 -1.4775982992680153e+07 
+5.9999999999999902e+00 -5.3665049536810350e-01 +7.3491576492721107e+00 -5.2764001643958802e-01 -4.3077894547757097e+01 +6.5466621061791409e+02 -6.8552890011421041e+04 -1.4527540326298384e+07 
+6.0999999999999899e+00 -5.3665081637908940e-01 +7.3491763458711938e+00 -5.2294939403089158e-01 -4.3763051086966506e+01 +6.0054507118758227e+02 -6.5021680585844508e+04 -1.4308074568321643e+07 
+6.1999999999999904e+00 -5.3665114363010114e-01 +7.3491907154406162e+00 -5.1869614490477589e-01 -4.4348912057776118e+01 +5.5425585064590177e+02 -6.2014083374989081e+04 -1.4117801137747424e+07 
+6.2999999999999901e+00 -5.3665147636015520e-01 +7.3492009022622389e+00 -5.1487873513519578e-01 -4.4838732926986118e+01 +5.1572694541483384e+02 -5.9508527533283748e+04 -1.3956814932236472e+07 
+6.3999999999999897e+00 -5.3665181380827653e-01 +7.3492070506150098e+00 -5.1149562967233697e-01 -4.5235769037860642e+01 +4.8488672216709881e+02 -5.7483442830914493e+04 -1.3825210695754874e+07 
+6.4999999999999902e+00 -5.3665215521353460e-01 +7.3492093047789755e+00 -5.0854528828615730e-01 -4.5543275700541884e+01 +4.6166344415213945e+02 -5.5917259202543457e+04 -1.3723082678851862e+07 
+6.5999999999999899e+00 -5.3665249981497087e-01 +7.3492078090334667e+00 -5.0602617325943466e-01 -4.5764508166533425e+01 +4.4598540779253995e+02 -5.4788406799415527e+04 -1.3650525263356967e+07 
+6.6999999999999904e+00 -5.3665284685167847e-01 +7.3492027076554454e+00 -5.0393674114962783e-01 -4.5902721552495819e+01 +4.3778079883145159e+02 -5.4075316500062181e+04 -1.3607632312786896e+07 
+6.7999999999999901e+00 -5.3665319556278812e-01 +7.3491941449177931e+00 -5.0227544671407265e-01 -4.5961170797507201e+01 +4.3697775552234464e+02 -5.3756420131029052e+04 -1.3594497441342913e+07 
+6.8999999999999897e+00 -5.3665354518737729e-01 +7.3491822650962888e+00 -5.0104074114724628e-01 -4.5943110867400797e+01 +4.4350434165560767e+02 -5.3810149265372602e+04 -1.3611213907173594e+07 
+6.9999999999999902e+00 -5.3665389496461002e-01 +7.3491672124622562e+00 -5.0023107528345412e-01 -4.5851796531149958e+01 +4.5728860480904439e+02 -5.4214936530568972e+04 -1.3657874878163038e+07 
+7.0999999999999899e+00 -5.3665424413366392e-01 +7.3491491312851807e+00 -4.9984489457928644e-01 -4.5690482434539597e+01 +4.7825848241293374e+02 -5.4949215188929178e+04 -1.3734572994200310e+07 
+7.1999999999999904e+00 -5.3665459193373810e-01 +7.3491281658318943e+00 -4.9988064185269726e-01 -4.5462423082215984e+01 +5.0634185077655104e+02 -5.5991419199400647e+04 -1.3841400589677885e+07 
+7.2999999999999901e+00 -5.3665493760408856e-01 +7.3491044603696238e+00 -5.0033675598002669e-01 -4.5170872912717876e+01 +5.4146650255142481e+02 -5.7319982822041231e+04 -1.3978449594702335e+07 
+7.3999999999999897e+00 -5.3665528038389543e-01 +7.3490781591570054e+00 -5.0121167571338476e-01 -4.4819086041655822e+01 +5.8356021850359389e+02 -5.8913342078199828e+04 -1.4145811872471677e+07 
+7.4999999999999902e+00 -5.3665561951251373e-01 +7.3490494064591729e+00 -5.0250383119369157e-01 -4.4410316694581439e+01 +6.3255060839883106e+02 -6.0749932244633652e+04 -1.4343578472549127e+07 
+7.5999999999999899e+00 -5.3665595422919055e-01 +7.3490183465289745e+00 -5.0421165251130606e-01 -4.3947818656542871e+01 +6.8836526774362449e+02 -6.2808191052324270e+04 -1.4571840358141536e+07 
+7.6999999999999904e+00 -5.3665628377330832e-01 +7.3489851236232013e+00 -5.0633356340723989e-01 -4.3434845748510249e+01 +7.5093166431266206e+02 -6.5066555888168536e+04 -1.4830687883360084e+07 
+7.7999999999999901e+00 -5.3665660738425047e-01 +7.3489498819918495e+00 -5.0886798371709552e-01 -4.2874651504352123e+01 +8.2017717980163525e+02 -6.7503465701983499e+04 -1.5120210982206190e+07 
+7.8999999999999897e+00 -5.3665692430143386e-01 +7.3489127658815194e+00 -5.1181333315317434e-01 -4.2270489268709319e+01 +8.9602918534050934e+02 -7.0097360421492354e+04 -1.5440499533690074e+07 
+7.9999999999999902e+00 -5.3665723376439145e-01 +7.3488739195401243e+00 -5.1516801649614907e-01 -4.1625612576045675e+01 +9.7841474151066245e+02 -7.2826679850995279e+04 -1.5791642000219844e+07 
+8.0999999999999908e+00 -5.3665753534231675e-01 +7.3488335040595789e+00 -5.1892346469269213e-01 -4.0943376003739765e+01 +1.0671190259224441e+03 -7.5672304686957752e+04 -1.6172958112915279e+07 
+8.1999999999999904e+00 -5.3665782967999143e-01 +7.3487917419073119e+00 -5.2305079248282460e-01 -4.0227219605623105e+01 +1.1615003319913390e+03 -7.8625212036481622e+04 -1.6581298933208840e+07 
+8.2999999999999901e+00 -5.3665811764109372e-01 +7.3487488693855809e+00 -5.2751752264845331e-01 -3.9480542946800874e+01 +1.2608372588512045e+03 -8.1678964341959581e+04 -1.7013016648785520e+07 
+8.3999999999999897e+00 -5.3665840008926724e-01 +7.3487051227992781e+00 -5.3229117583987284e-01 -3.8706745577836742e+01 +1.3644083974000275e+03 -8.4827124512767579e+04 -1.7464463461907804e+07 
+8.4999999999999893e+00 -5.3665867788826305e-01 +7.3486607384510529e+00 -5.3733927682947991e-01 -3.7909226859745765e+01 +1.4714924519994097e+03 -8.8063257028208915e+04 -1.7931992172043193e+07 
+8.5999999999999908e+00 -5.3665895190180191e-01 +7.3486159526358490e+00 -5.4262934501789017e-01 -3.7091385819863497e+01 +1.5813680621123831e+03 -9.1380928753481523e+04 -1.8411955334661275e+07 
+8.6999999999999904e+00 -5.3665922299373092e-01 +7.3485710016493595e+00 -5.4812890151107296e-01 -3.6256621394960938e+01 +1.6933139358465717e+03 -9.4773707526132042e+04 -1.8900705891307097e+07 
+8.7999999999999794e+00 -5.3665949202784635e-01 +7.3485261217802487e+00 -5.5380546788801133e-01 -3.5408332192097760e+01 +1.8066088253396142e+03 -9.8235163593720106e+04 -1.9394597047451485e+07 
+8.8999999999999808e+00 -5.3665975986799530e-01 +7.3484815493173787e+00 -5.5962656441452219e-01 -3.4549916705508643e+01 +1.9205315023333367e+03 -1.0175886833933077e+05 -1.9889982182112962e+07 
+8.9999999999999805e+00 -5.3666002737813800e-01 +7.3484375205410020e+00 -5.6555971098563829e-01 -3.3684773049852652e+01 +2.0343607659673951e+03 -1.0533839586399682e+05 -2.0383214857356325e+07 
+9.0999999999999801e+00 -5.3666029542218618e-01 +7.3483942717337714e+00 -5.7157242895553706e-01 -3.2816299282292796e+01 +2.1473754894218291e+03 -1.0896732111667436e+05 -2.0870649068608597e+07 
+9.1999999999999797e+00 -5.3666056486412517e-01 +7.3483520391672146e+00 -5.7763223495908211e-01 -3.1947893012141211e+01 +2.2588544952027701e+03 -1.1263922216222472e+05 -2.1348638632205788e+07 
+9.2999999999999794e+00 -5.3666083656803565e-01 +7.3483110591141738e+00 -5.8370664884133072e-01 -3.1082951741477373e+01 +2.3680767129372307e+03 -1.1634767825608159e+05 -2.1813537953756649e+07 
+9.3999999999999808e+00 -5.3666111139796879e-01 +7.3482715678408699e+00 -5.8976318925068349e-01 -3.0224872653688191e+01 +2.4743210941682964e+03 -1.2008627103760207e+05 -2.2261701617643200e+07 
+9.4999999999999805e+00 -5.3666139021800929e-01 +7.3482338016083801e+00 -5.9576937562454413e-01 -2.9377052638147990e+01 +2.5768666510581656e+03 -1.2384858443483629e+05 -2.2689484573601834e+07 
+9.5999999999999801e+00 -5.3666167389240782e-01 +7.3481979966743651e+00 -6.0169272209374025e-01 -2.8542888343903336e+01 +2.6749923408553168e+03 -1.2762820434293963e+05 -2.3093241584391400e+07 
+9.6999999999999797e+00 -5.3666196328531657e-01 +7.3481643892920001e+00 -6.0750074734822190e-01 -2.7725776142985890e+01 +2.7679772581309967e+03 -1.3141871887173047e+05 -2.3469328154611170e+07 
+9.7999999999999794e+00 -5.3666225926105882e-01 +7.3481332157087937e+00 -6.1316096743437365e-01 -2.6929112095151886e+01 +2.8551004965403740e+03 -1.3521371854751167e+05 -2.3814099867484938e+07 
+9.8999999999999808e+00 -5.3666256268391610e-01 +7.3481047121692624e+00 -6.1864089938013345e-01 -2.6156292021940910e+01 +2.9356412168687566e+03 -1.3900679590225822e+05 -2.4123912703350008e+07 
+9.9999999999999805e+00 -5.3666287441809424e-01 +7.3480791148588827e+00 -6.2390807554610306e-01 -2.5410710198764587e+01 +3.0088789343859157e+03 -1.4279154806071043e+05 -2.4395124091929097e+07 
+1.0100000000000000e+01 -5.3666319495801484e-01 +7.3480565797809971e+00 -6.2894924239361583e-01 -2.4694874575870294e+01 +3.0744944063774819e+03 -1.4656160909317149e+05 -2.4626007206985984e+07 
