# field on trajectory
# s[mm] rx[mm] ry[mm] rz[mm] bx[T] by[T] bz[T]
0.0000000000000000e+00 +8.1530000000000094e+00 +0.0000000000000000e+00 +0.0000000000000000e+00 -2.8238929259603179e-02 -5.3643935124765330e-01 +5.3307806547089314e-03
1.0000000000000001e-01 +8.1529997163925092e+00 +0.0000000000000000e+00 +9.9999999999463796e-02 -2.8239041557978205e-02 -5.3643938698831217e-01 +5.3307399151352880e-03
2.0000000000000001e-01 +8.1529988655711296e+00 +0.0000000000000000e+00 +1.9999999999571000e-01 -2.8239136101610728e-02 -5.3643943526323434e-01 +5.3307007091665595e-03
2.9999999999999999e-01 +8.1529974475415692e+00 +0.0000000000000000e+00 +2.9999999998552201e-01 -2.8239214111174662e-02 -5.3643949607831332e-01 +5.3306630062028466e-03
4.0000000000000002e-01 +8.1529954622965306e+00 +0.0000000000000000e+00 +3.9999999996568197e-01 -2.8239276807358545e-02 -5.3643956943954441e-01 +5.3306267756442214e-03
5.0000000000000000e-01 +8.1529929098396696e+00 +0.0000000000000000e+00 +4.9999999993297300e-01 -2.8239325410854502e-02 -5.3643965535284421e-01 +5.3305919868892682e-03
5.9999999999999998e-01 +8.1529897901673394e+00 +0.0000000000000000e+00 +5.9999999988417696e-01 -2.8239361142363344e-02 -5.3643975382418307e-01 +5.3305586093368535e-03
6.9999999999999996e-01 +8.1529861032831796e+00 +0.0000000000000000e+00 +6.9999999981607697e-01 -2.8239385222587187e-02 -5.3643986485947592e-01 +5.3305266123853771e-03
8.0000000000000004e-01 +8.1529818491871993e+00 +0.0000000000000000e+00 +7.9999999972545699e-01 -2.8239398872231768e-02 -5.3643998846466001e-01 +5.3304959654339856e-03
9.0000000000000002e-01 +8.1529770278793894e+00 +0.0000000000000000e+00 +8.9999999960909804e-01 -2.8239403312003079e-02 -5.3644012464566637e-01 +5.3304666378826511e-03
1.0000000000000000e+00 +8.1529716393597500e+00 +0.0000000000000000e+00 +9.9999999946378304e-01 -2.8239399762605658e-02 -5.3644027340841627e-01 +5.3304385991325628e-03
1.1000000000000001e+00 +8.1529656836210105e+00 +0.0000000000000000e+00 +1.0999999992862901e+00 -2.8239389444743399e-02 -5.3644043475887404e-01 +5.3304118185870377e-03
1.2000000000000000e+00 +8.1529591606740706e+00 +0.0000000000000000e+00 +1.1999999990734200e+00 -2.8239373579108069e-02 -5.3644060870285726e-01 +5.3303862656499659e-03
1.3000000000000000e+00 +8.1529520705153100e+00 +0.0000000000000000e+00 +1.2999999988219300e+00 -2.8239353386389870e-02 -5.3644079524627364e-01 +5.3303619097286557e-03
1.3999999999999999e+00 +8.1529444131410909e+00 +0.0000000000000000e+00 +1.3999999985286200e+00 -2.8239330087270004e-02 -5.3644099439501380e-01 +5.3303387202331158e-03
1.5000000000000000e+00 +8.1529361885550298e+00 +0.0000000000000000e+00 +1.4999999981902701e+00 -2.8239304902416162e-02 -5.3644120615489466e-01 +5.3303166665758716e-03
1.6000000000000001e+00 +8.1529273967571498e+00 +0.0000000000000000e+00 +1.5999999978036501e+00 -2.8239279052484679e-02 -5.3644143053173654e-01 +5.3302957181731482e-03
1.7000000000000000e+00 +8.1529180377474404e+00 +0.0000000000000000e+00 +1.6999999973655600e+00 -2.8239253758117401e-02 -5.3644166753133593e-01 +5.3302758444449929e-03
1.8000000000000000e+00 +8.1529081115222706e+00 +0.0000000000000000e+00 +1.7999999968727800e+00 -2.8239230239941134e-02 -5.3644191715948841e-01 +5.3302570148159034e-03
1.8999999999999999e+00 +8.1528976180852606e+00 +0.0000000000000000e+00 +1.8999999963220899e+00 -2.8239209718561680e-02 -5.3644217942190764e-01 +5.3302391987143814e-03
2.0000000000000000e+00 +8.1528865574327902e+00 +0.0000000000000000e+00 +1.9999999957102601e+00 -2.8239193414567501e-02 -5.3644245432432802e-01 +5.3302223655743997e-03
2.1000000000000001e+00 +8.1528749295721408e+00 +0.0000000000000000e+00 +2.0999999950340902e+00 -2.8239182316494880e-02 -5.3644274172455797e-01 +5.3302065173803596e-03
2.2000000000000002e+00 +8.1528627344960096e+00 +0.0000000000000000e+00 +2.1999999942903599e+00 -2.8239176484766142e-02 -5.3644304088923978e-01 +5.3301917863055204e-03
2.2999999999999998e+00 +8.1528499722080596e+00 +0.0000000000000000e+00 +2.2999999934758399e+00 -2.8239175747772308e-02 -5.3644335093711837e-01 +5.3301783370691058e-03
2.3999999999999999e+00 +8.1528366427046404e+00 +0.0000000000000000e+00 +2.3999999925873299e+00 -2.8239179933909207e-02 -5.3644367098699475e-01 +5.3301663343910521e-03
2.5000000000000000e+00 +8.1528227459894005e+00 +0.0000000000000000e+00 +2.4999999916215998e+00 -2.8239188871573017e-02 -5.3644400015761773e-01 +5.3301559429906348e-03
2.6000000000000001e+00 +8.1528082820659602e+00 +0.0000000000000000e+00 +2.5999999905754398e+00 -2.8239202389164143e-02 -5.3644433756774379e-01 +5.3301473275867940e-03
2.7000000000000002e+00 +8.1527932509234198e+00 +0.0000000000000000e+00 +2.6999999894456299e+00 -2.8239220315093853e-02 -5.3644468233624176e-01 +5.3301406528989664e-03
2.7999999999999998e+00 +8.1527776525726896e+00 +0.0000000000000000e+00 +2.7999999882289601e+00 -2.8239242477771504e-02 -5.3644503358182916e-01 +5.3301360836440666e-03
2.8999999999999999e+00 +8.1527614870065008e+00 +0.0000000000000000e+00 +2.8999999869222002e+00 -2.8239268705620883e-02 -5.3644539042336836e-01 +5.3301337845392807e-03
3.0000000000000000e+00 +8.1527447542284808e+00 +0.0000000000000000e+00 +2.9999999855221300e+00 -2.8239298827070290e-02 -5.3644575197965472e-01 +5.3301339202996021e-03
3.1000000000000001e+00 +8.1527274542386294e+00 +0.0000000000000000e+00 +3.0999999840255499e+00 -2.8239332670559062e-02 -5.3644611736952441e-01 +5.3301366556386797e-03
3.2000000000000002e+00 +8.1527095870333106e+00 +0.0000000000000000e+00 +3.1999999824292300e+00 -2.8239370064538780e-02 -5.3644648571185760e-01 +5.3301421552685658e-03
3.2999999999999998e+00 +8.1526911526198091e+00 +0.0000000000000000e+00 +3.2999999807299600e+00 -2.8239410837468733e-02 -5.3644685612547194e-01 +5.3301505838983495e-03
3.3999999999999999e+00 +8.1526721509872004e+00 +0.0000000000000000e+00 +3.3999999789245101e+00 -2.8239454817828163e-02 -5.3644722772934106e-01 +5.3301621062361261e-03
3.5000000000000000e+00 +8.1526525821464002e+00 +0.0000000000000000e+00 +3.4999999770096801e+00 -2.8239501834102121e-02 -5.3644759964229871e-01 +5.3301768869856931e-03
3.6000000000000001e+00 +8.1526324460901396e+00 +0.0000000000000000e+00 +3.5999999749822500e+00 -2.8239551714797761e-02 -5.3644797098333807e-01 +5.3301950908493344e-03
3.7000000000000002e+00 +8.1526117428220495e+00 +0.0000000000000000e+00 +3.6999999728389801e+00 -2.8239604288434392e-02 -5.3644834087139759e-01 +5.3302168825253692e-03
3.7999999999999998e+00 +8.1525904723421299e+00 +0.0000000000000000e+00 +3.7999999705766800e+00 -2.8239659383550140e-02 -5.3644870842547121e-01 +5.3302424267089874e-03
3.8999999999999999e+00 +8.1525686346503807e+00 +0.0000000000000000e+00 +3.8999999681921298e+00 -2.8239716828701592e-02 -5.3644907276458287e-01 +5.3302718880917270e-03
4.0000000000000000e+00 +8.1525462297431694e+00 +0.0000000000000000e+00 +3.9999999656820902e+00 -2.8239776452466326e-02 -5.3644943300781567e-01 +5.3303054313614921e-03
4.0999999999999996e+00 +8.1525232576241304e+00 +0.0000000000000000e+00 +4.0999999630433699e+00 -2.8239838027302285e-02 -5.3644978852050884e-01 +5.3303431338954637e-03
4.2000000000000002e+00 +8.1524997182896204e+00 +0.0000000000000000e+00 +4.1999999602727298e+00 -2.8239901101132461e-02 -5.3645013965318489e-01 +5.3303847238435264e-03
4.2999999999999998e+00 +8.1524756117469206e+00 +0.0000000000000000e+00 +4.2999999573669703e+00 -2.8239965165735938e-02 -5.3645048700256082e-01 +5.3304298420466913e-03
4.4000000000000004e+00 +8.1524509379887604e+00 +0.0000000000000000e+00 +4.3999999543228601e+00 -2.8240029712892526e-02 -5.3645083116545511e-01 +5.3304781293453752e-03
4.5000000000000000e+00 +8.1524256970187707e+00 +0.0000000000000000e+00 +4.4999999511372000e+00 -2.8240094234372650e-02 -5.3645117273859833e-01 +5.3305292265773902e-03
4.5999999999999996e+00 +8.1523998888369498e+00 +0.0000000000000000e+00 +4.5999999478067499e+00 -2.8240158221942417e-02 -5.3645151231874255e-01 +5.3305827745789829e-03
4.7000000000000002e+00 +8.1523735134396702e+00 +0.0000000000000000e+00 +4.6999999443283098e+00 -2.8240221167363043e-02 -5.3645185050265787e-01 +5.3306384141847581e-03
4.7999999999999998e+00 +8.1523465708305594e+00 +0.0000000000000000e+00 +4.7999999406986600e+00 -2.8240282562386275e-02 -5.3645218788705262e-01 +5.3306957862267728e-03
4.9000000000000004e+00 +8.1523190610096208e+00 +0.0000000000000000e+00 +4.8999999369145701e+00 -2.8240341898757959e-02 -5.3645252506865349e-01 +5.3307545315352863e-03
5.0000000000000000e+00 +8.1522909839768491e+00 +0.0000000000000000e+00 +4.9999999329728402e+00 -2.8240398668216302e-02 -5.3645286264417735e-01 +5.3308142909384310e-03
5.0999999999999996e+00 +8.1522623397286207e+00 +0.0000000000000000e+00 +5.0999999288702398e+00 -2.8240452362492539e-02 -5.3645320121035733e-01 +5.3308747052623852e-03
5.2000000000000002e+00 +8.1522331282685592e+00 +0.0000000000000000e+00 +5.1999999246035600e+00 -2.8240502473306551e-02 -5.3645354136386358e-01 +5.3309354153304976e-03
5.2999999999999998e+00 +8.1522033495966806e+00 +0.0000000000000000e+00 +5.2999999201695802e+00 -2.8240548492370277e-02 -5.3645388370138036e-01 +5.3309960619640235e-03
5.4000000000000004e+00 +8.1521730037093203e+00 +0.0000000000000000e+00 +5.3999999155650800e+00 -2.8240589911387375e-02 -5.3645422881960747e-01 +5.3310562859820668e-03
5.5000000000000000e+00 +8.1521420906137791e+00 +0.0000000000000000e+00 +5.4999999107868396e+00 -2.8240626222047132e-02 -5.3645457731515167e-01 +5.3311157282003837e-03
5.5999999999999996e+00 +8.1521106102991308e+00 +0.0000000000000000e+00 +5.5999999058316599e+00 -2.8240656916035035e-02 -5.3645492978474041e-01 +5.3311740294335443e-03
5.7000000000000002e+00 +8.1520785627762997e+00 +0.0000000000000000e+00 +5.6999999006963096e+00 -2.8240681485017065e-02 -5.3645528682492716e-01 +5.3312308304917910e-03
5.7999999999999998e+00 +8.1520459480379905e+00 +0.0000000000000000e+00 +5.7999998953775700e+00 -2.8240699420654408e-02 -5.3645564903238430e-01 +5.3312857721840327e-03
5.9000000000000004e+00 +8.1520127660915005e+00 +0.0000000000000000e+00 +5.8999998898722197e+00 -2.8240710214590518e-02 -5.3645601700366163e-01 +5.3313384953152625e-03
5.9999999999999902e+00 +8.1519790169259103e+00 +0.0000000000000000e+00 +5.9999998841770603e+00 -2.8240713358463090e-02 -5.3645639133542899e-01 +5.3313886406889952e-03
6.0999999999999899e+00 +8.1519447005521197e+00 +0.0000000000000000e+00 +6.0999998782888598e+00 -2.8240708559560703e-02 -5.3645677244331524e-01 +5.3314359643511179e-03
6.1999999999999904e+00 +8.1519098169665103e+00 +0.0000000000000000e+00 +6.1999998722044003e+00 -2.8240696387861947e-02 -5.3645716001959898e-01 +5.3314806833361390e-03
6.2999999999999901e+00 +8.1518743661654298e+00 +0.0000000000000000e+00 +6.2999998659204701e+00 -2.8240677629020276e-02 -5.3645755357570712e-01 +5.3315231299259375e-03
6.3999999999999897e+00 +8.1518383481488907e+00 +0.0000000000000000e+00 +6.3999998594338496e+00 -2.8240653068690245e-02 -5.3645795262305340e-01 +5.3315636364019790e-03
6.4999999999999902e+00 +8.1518017629241495e+00 +0.0000000000000000e+00 +6.4999998527413201e+00 -2.8240623492526325e-02 -5.3645835667301556e-01 +5.3316025350450659e-03
6.5999999999999899e+00 +8.1517646104839496e+00 +0.0000000000000000e+00 +6.5999998458396698e+00 -2.8240589686191291e-02 -5.3645876523709324e-01 +5.3316401581370559e-03
6.6999999999999904e+00 +8.1517268908319203e+00 +0.0000000000000000e+00 +6.6999998387256703e+00 -2.8240552435346771e-02 -5.3645917782672337e-01 +5.3316768379589596e-03
6.7999999999999901e+00 +8.1516886039680703e+00 +0.0000000000000000e+00 +6.7999998313961196e+00 -2.8240512525658873e-02 -5.3645959395338694e-01 +5.3317129067920839e-03
6.8999999999999897e+00 +8.1516497498923908e+00 +0.0000000000000000e+00 +6.8999998238477902e+00 -2.8240470742796994e-02 -5.3646001312858327e-01 +5.3317486969178046e-03
6.9999999999999902e+00 +8.1516103286012402e+00 +0.0000000000000000e+00 +6.9999998160774597e+00 -2.8240427872435393e-02 -5.3646043486385731e-01 +5.3317845406178786e-03
7.0999999999999899e+00 +8.1515703400982602e+00 +0.0000000000000000e+00 +7.0999998080819298e+00 -2.8240384700249144e-02 -5.3646085867071991e-01 +5.3318207701736533e-03
7.1999999999999904e+00 +8.1515297843834595e+00 +0.0000000000000000e+00 +7.1999997998579603e+00 -2.8240342011918485e-02 -5.3646128406072946e-01 +5.3318577178669384e-03
7.2999999999999901e+00 +8.1514886614531896e+00 +0.0000000000000000e+00 +7.2999997914023496e+00 -2.8240300593128976e-02 -5.3646171054549130e-01 +5.3318957159800562e-03
7.3999999999999897e+00 +8.1514469713147300e+00 +0.0000000000000000e+00 +7.3999997827118804e+00 -2.8240261229566088e-02 -5.3646213763655248e-01 +5.3319350967947574e-03
7.4999999999999902e+00 +8.1514047139571595e+00 +0.0000000000000000e+00 +7.4999997737833199e+00 -2.8240224706926494e-02 -5.3646256484561583e-01 +5.3319761925944885e-03
7.5999999999999899e+00 +8.1513618893914099e+00 +0.0000000000000000e+00 +7.5999997646134698e+00 -2.8240191810902943e-02 -5.3646299168424649e-01 +5.3320193356613801e-03
7.6999999999999904e+00 +8.1513184976138309e+00 +0.0000000000000000e+00 +7.6999997551991104e+00 -2.8240163327198302e-02 -5.3646341766414041e-01 +5.3320648582790616e-03
7.7999999999999901e+00 +8.1512745386207808e+00 +0.0000000000000000e+00 +7.7999997455370096e+00 -2.8240140041520180e-02 -5.3646384229701771e-01 +5.3321130927315901e-03
7.8999999999999897e+00 +8.1512300124159101e+00 +0.0000000000000000e+00 +7.8999997356239602e+00 -2.8240122739578256e-02 -5.3646426509456924e-01 +5.3321643713029332e-03
7.9999999999999902e+00 +8.1511849189955701e+00 +0.0000000000000000e+00 +7.9999997254567399e+00 -2.8240112207090055e-02 -5.3646468556856552e-01 +5.3322190262781186e-03
8.0999999999999908e+00 +8.1511392583670403e+00 +0.0000000000000000e+00 +8.0999997150321406e+00 -2.8240109023400434e-02 -5.3646510348353760e-01 +5.3322773134849974e-03
8.1999999999999904e+00 +8.1510930305230396e+00 +0.0000000000000000e+00 +8.1999997043469399e+00 -2.8240112942355112e-02 -5.3646551961540767e-01 +5.3323391829264858e-03
8.2999999999999901e+00 +8.1510462354672200e+00 +0.0000000000000000e+00 +8.2999996933979094e+00 -2.8240123511400539e-02 -5.3646593499283823e-01 +5.3324045081567448e-03
8.3999999999999897e+00 +8.1509988731995708e+00 +0.0000000000000000e+00 +8.3999996821818605e+00 -2.8240140277963913e-02 -5.3646635064451720e-01 +5.3324731627416673e-03
8.4999999999999893e+00 +8.1509509437164507e+00 +0.0000000000000000e+00 +8.4999996706955496e+00 -2.8240162789452551e-02 -5.3646676759915923e-01 +5.3325450202592285e-03
8.5999999999999908e+00 +8.1509024470215099e+00 +0.0000000000000000e+00 +8.5999996589357703e+00 -2.8240190593249132e-02 -5.3646718688542461e-01 +5.3326199542990073e-03
8.6999999999999904e+00 +8.1508533831147396e+00 +0.0000000000000000e+00 +8.6999996468993004e+00 -2.8240223236715215e-02 -5.3646760953199768e-01 +5.3326978384633855e-03
8.7999999999999794e+00 +8.1508037519961398e+00 +0.0000000000000000e+00 +8.7999996345829192e+00 -2.8240260267189253e-02 -5.3646803656756314e-01 +5.3327785463676237e-03
8.8999999999999808e+00 +8.1507535536620708e+00 +0.0000000000000000e+00 +8.8999996219834205e+00 -2.8240301231987411e-02 -5.3646846902082934e-01 +5.3328619516405029e-03
8.9999999999999805e+00 +8.1507027881161793e+00 +0.0000000000000000e+00 +8.9999996090975891e+00 -2.8240345678398716e-02 -5.3646890792044977e-01 +5.3329479279238447e-03
9.0999999999999801e+00 +8.1506514553584601e+00 +0.0000000000000000e+00 +9.0999995959221902e+00 -2.8240393153688679e-02 -5.3646935429510290e-01 +5.3330363488737070e-03
9.1999999999999797e+00 +8.1505995553889097e+00 +0.0000000000000000e+00 +9.1999995824540193e+00 -2.8240443205097270e-02 -5.3646980917346432e-01 +5.3331270881604668e-03
9.2999999999999794e+00 +8.1505470882038900e+00 +0.0000000000000000e+00 +9.2999995686898593e+00 -2.8240495379839678e-02 -5.3647027358423482e-01 +5.3332200194694543e-03
9.3999999999999808e+00 +8.1504940538070496e+00 +0.0000000000000000e+00 +9.3999995546264898e+00 -2.8240549225101563e-02 -5.3647074855605781e-01 +5.3333150165004797e-03
9.4999999999999805e+00 +8.1504404521983798e+00 +0.0000000000000000e+00 +9.4999995402606903e+00 -2.8240604288042610e-02 -5.3647123511760142e-01 +5.3334119529690246e-03
9.5999999999999801e+00 +8.1503862833778804e+00 +0.0000000000000000e+00 +9.5999995255892507e+00 -2.8240660115794517e-02 -5.3647173429753070e-01 +5.3335107026063321e-03
9.6999999999999797e+00 +8.1503315473419207e+00 +0.0000000000000000e+00 +9.6999995106089507e+00 -2.8240716255461748e-02 -5.3647224712453401e-01 +5.3336111391600258e-03
9.7999999999999794e+00 +8.1502762440941297e+00 +0.0000000000000000e+00 +9.7999994953165697e+00 -2.8240772254116878e-02 -5.3647277462724263e-01 +5.3337131363936554e-03
9.8999999999999808e+00 +8.1502203736345091e+00 +0.0000000000000000e+00 +9.8999994797088906e+00 -2.8240827658803966e-02 -5.3647331783431129e-01 +5.3338165680878770e-03
9.9999999999999805e+00 +8.1501639359594300e+00 +0.0000000000000000e+00 +9.9999994637827001e+00 -2.8240882016538085e-02 -5.3647387777441691e-01 +5.3339213080408187e-03
1.0100000000000000e+01 +8.1501069310761505e+00 +0.0000000000000000e+00 +1.0099999447534801e+01 -2.8240934951919282e-02 -5.3647445510685532e-01 +5.3340272372917686e-03
1.0199999999999999e+01 +8.1500493589774106e+00 +0.0000000000000000e+00 +1.0199999430961901e+01 -2.8240986400037724e-02 -5.3647504901378973e-01 +5.3341342657853737e-03
1.0300000000000001e+01 +8.1499912196668394e+00 +0.0000000000000000e+00 +1.0299999414060901e+01 -2.8241036373655402e-02 -5.3647565830793098e-01 +5.3342423106752766e-03
1.0400000000000000e+01 +8.1499325131444493e+00 +0.0000000000000000e+00 +1.0399999396828500e+01 -2.8241084885598164e-02 -5.3647628180194640e-01 +5.3343512890971015e-03
1.0500000000000000e+01 +8.1498732394065900e+00 +0.0000000000000000e+00 +1.0499999379261400e+01 -2.8241131948757447e-02 -5.3647691830845834e-01 +5.3344611181679385e-03
1.0600000000000000e+01 +8.1498133984568994e+00 +0.0000000000000000e+00 +1.0599999361356600e+01 -2.8241177576087708e-02 -5.3647756663996260e-01 +5.3345717149849790e-03
1.0699999999999999e+01 +8.1497529902953794e+00 +0.0000000000000000e+00 +1.0699999343110701e+01 -2.8241221780612332e-02 -5.3647822560890535e-01 +5.3346829966258455e-03
1.0800000000000001e+01 +8.1496920149220404e+00 +0.0000000000000000e+00 +1.0799999324520600e+01 -2.8241264575423832e-02 -5.3647889402765692e-01 +5.3347948801477718e-03
1.0900000000000000e+01 +8.1496304723332305e+00 +0.0000000000000000e+00 +1.0899999305583000e+01 -2.8241305973686879e-02 -5.3647957070853569e-01 +5.3349072825873822e-03
1.1000000000000000e+01 +8.1495683625325892e+00 +0.0000000000000000e+00 +1.0999999286294800e+01 -2.8241345988635893e-02 -5.3648025446372449e-01 +5.3350201209593261e-03
1.1100000000000000e+01 +8.1495056855201309e+00 +0.0000000000000000e+00 +1.1099999266652601e+01 -2.8241384633580773e-02 -5.3648094410535319e-01 +5.3351333122565901e-03
1.1199999999999999e+01 +8.1494424412958306e+00 +0.0000000000000000e+00 +1.1199999246653300e+01 -2.8241421921907209e-02 -5.3648163844546559e-01 +5.3352467734497063e-03
1.1300000000000001e+01 +8.1493786298560700e+00 +0.0000000000000000e+00 +1.1299999226293700e+01 -2.8241457867079711e-02 -5.3648233629604847e-01 +5.3353604214865088e-03
1.1400000000000000e+01 +8.1493142512044905e+00 +0.0000000000000000e+00 +1.1399999205570500e+01 -2.8241492482639109e-02 -5.3648303646894557e-01 +5.3354741732907635e-03
1.1500000000000000e+01 +8.1492493053447106e+00 +0.0000000000000000e+00 +1.1499999184480499e+01 -2.8241525782207025e-02 -5.3648373777591352e-01 +5.3355879457622352e-03
1.1600000000000000e+01 +8.1491837922658306e+00 +0.0000000000000000e+00 +1.1599999163020600e+01 -2.8241557779492988e-02 -5.3648443902872456e-01 +5.3357016557772537e-03
1.1699999999999999e+01 +8.1491177119787608e+00 +0.0000000000000000e+00 +1.1699999141187400e+01 -2.8241588488282340e-02 -5.3648513903889705e-01 +5.3358152201854227e-03
1.1800000000000001e+01 +8.1490510644762306e+00 +0.0000000000000000e+00 +1.1799999118977800e+01 -2.8241617922453031e-02 -5.3648583661798976e-01 +5.3359285558121543e-03
