# field on trajectory
# s[mm] rx[mm] ry[mm] rz[mm] bx[T] by[T] bz[T]
0.0000000000000000e+00 +8.1530000000000094e+00 +0.0000000000000000e+00 +0.0000000000000000e+00 -2.9787937327973052e-02 -5.6511964203541298e-01 +5.7540528250889780e-03
1.0000000000000001e-01 +8.1529997163925092e+00 +0.0000000000000000e+00 +9.9999999999463796e-02 -2.9787736262722280e-02 -5.6511900052710673e-01 +5.7542064972388070e-03
2.0000000000000001e-01 +8.1529988655711296e+00 +0.0000000000000000e+00 +1.9999999999571000e-01 -2.9787532569158674e-02 -5.6511837706539136e-01 +5.7543551979419363e-03
2.9999999999999999e-01 +8.1529974475415692e+00 +0.0000000000000000e+00 +2.9999999998552201e-01 -2.9787326457262696e-02 -5.6511777163374799e-01 +5.7544989629693876e-03
4.0000000000000002e-01 +8.1529954622965306e+00 +0.0000000000000000e+00 +3.9999999996568197e-01 -2.9787118137016903e-02 -5.6511718421577606e-01 +5.7546378280918971e-03
5.0000000000000000e-01 +8.1529929098396696e+00 +0.0000000000000000e+00 +4.9999999993297300e-01 -2.9786907818397469e-02 -5.6511661479500497e-01 +5.7547718290779449e-03
5.9999999999999998e-01 +8.1529897901673394e+00 +0.0000000000000000e+00 +5.9999999988417696e-01 -2.9786695711382490e-02 -5.6511606335503228e-01 +5.7549010016952193e-03
6.9999999999999996e-01 +8.1529861032831796e+00 +0.0000000000000000e+00 +6.9999999981607697e-01 -2.9786482025947334e-02 -5.6511552987940938e-01 +5.7550253817094353e-03
8.0000000000000004e-01 +8.1529818491871993e+00 +0.0000000000000000e+00 +7.9999999972545699e-01 -2.9786266972070000e-02 -5.6511501435172273e-01 +5.7551450048851770e-03
9.0000000000000002e-01 +8.1529770278793894e+00 +0.0000000000000000e+00 +8.9999999960909804e-01 -2.9786050759730773e-02 -5.6511451675556312e-01 +5.7552599069856138e-03
1.0000000000000000e+00 +8.1529716393597500e+00 +0.0000000000000000e+00 +9.9999999946378304e-01 -2.9785833598913330e-02 -5.6511403707452379e-01 +5.7553701237724750e-03
1.1000000000000001e+00 +8.1529656836210105e+00 +0.0000000000000000e+00 +1.0999999992862901e+00 -2.9785615699608647e-02 -5.6511357529225292e-01 +5.7554756910066307e-03
1.2000000000000000e+00 +8.1529591606740706e+00 +0.0000000000000000e+00 +1.1999999990734200e+00 -2.9785397271806058e-02 -5.6511313139225594e-01 +5.7555766444459967e-03
1.3000000000000000e+00 +8.1529520705153100e+00 +0.0000000000000000e+00 +1.2999999988219300e+00 -2.9785178525507210e-02 -5.6511270535814395e-01 +5.7556730198481875e-03
1.3999999999999999e+00 +8.1529444131410909e+00 +0.0000000000000000e+00 +1.3999999985286200e+00 -2.9784959670721499e-02 -5.6511229717352041e-01 +5.7557648529693237e-03
1.5000000000000000e+00 +8.1529361885550298e+00 +0.0000000000000000e+00 +1.4999999981902701e+00 -2.9784740917464168e-02 -5.6511190682192214e-01 +5.7558521795634202e-03
1.6000000000000001e+00 +8.1529273967571498e+00 +0.0000000000000000e+00 +1.5999999978036501e+00 -2.9784522475761740e-02 -5.6511153428689942e-01 +5.7559350353832530e-03
1.7000000000000000e+00 +8.1529180377474404e+00 +0.0000000000000000e+00 +1.6999999973655600e+00 -2.9784304555651668e-02 -5.6511117955198809e-01 +5.7560134561800563e-03
1.8000000000000000e+00 +8.1529081115222706e+00 +0.0000000000000000e+00 +1.7999999968727800e+00 -2.9784087367184860e-02 -5.6511084260073252e-01 +5.7560874777038079e-03
1.8999999999999999e+00 +8.1528976180852606e+00 +0.0000000000000000e+00 +1.8999999963220899e+00 -2.9783871120422429e-02 -5.6511052341660062e-01 +5.7561571357023144e-03
2.0000000000000000e+00 +8.1528865574327902e+00 +0.0000000000000000e+00 +1.9999999957102601e+00 -2.9783656025442511e-02 -5.6511022198309280e-01 +5.7562224659223902e-03
2.1000000000000001e+00 +8.1528749295721408e+00 +0.0000000000000000e+00 +2.0999999950340902e+00 -2.9783442351571605e-02 -5.6510993816327637e-01 +5.7562834905250434e-03
2.2000000000000002e+00 +8.1528627344960096e+00 +0.0000000000000000e+00 +2.1999999942903599e+00 -2.9783230605101064e-02 -5.6510967133902412e-01 +5.7563401773376450e-03
2.2999999999999998e+00 +8.1528499722080596e+00 +0.0000000000000000e+00 +2.2999999934758399e+00 -2.9783021351552003e-02 -5.6510942077178805e-01 +5.7563924806016574e-03
2.3999999999999999e+00 +8.1528366427046404e+00 +0.0000000000000000e+00 +2.3999999925873299e+00 -2.9782815156442047e-02 -5.6510918572306335e-01 +5.7564403545574058e-03
2.5000000000000000e+00 +8.1528227459894005e+00 +0.0000000000000000e+00 +2.4999999916215998e+00 -2.9782612585278104e-02 -5.6510896545427503e-01 +5.7564837534428677e-03
2.6000000000000001e+00 +8.1528082820659602e+00 +0.0000000000000000e+00 +2.5999999905754398e+00 -2.9782414203557872e-02 -5.6510875922683368e-01 +5.7565226314942449e-03
2.7000000000000002e+00 +8.1527932509234198e+00 +0.0000000000000000e+00 +2.6999999894456299e+00 -2.9782220576774172e-02 -5.6510856630224859e-01 +5.7565569429471304e-03
2.7999999999999998e+00 +8.1527776525726896e+00 +0.0000000000000000e+00 +2.7999999882289601e+00 -2.9782032270399123e-02 -5.6510838594184376e-01 +5.7565866420334994e-03
2.8999999999999999e+00 +8.1527614870065008e+00 +0.0000000000000000e+00 +2.8999999869222002e+00 -2.9781849849898612e-02 -5.6510821740706885e-01 +5.7566116829849733e-03
3.0000000000000000e+00 +8.1527447542284808e+00 +0.0000000000000000e+00 +2.9999999855221300e+00 -2.9781673880719336e-02 -5.6510805995927305e-01 +5.7566320200304099e-03
3.1000000000000001e+00 +8.1527274542386294e+00 +0.0000000000000000e+00 +3.0999999840255499e+00 -2.9781504928293151e-02 -5.6510791285981599e-01 +5.7566476073970677e-03
3.2000000000000002e+00 +8.1527095870333106e+00 +0.0000000000000000e+00 +3.1999999824292300e+00 -2.9781343558035696e-02 -5.6510777537006973e-01 +5.7566583993105911e-03
3.2999999999999998e+00 +8.1526911526198091e+00 +0.0000000000000000e+00 +3.2999999807299600e+00 -2.9781190335339148e-02 -5.6510764675130276e-01 +5.7566643499937873e-03
3.3999999999999999e+00 +8.1526721509872004e+00 +0.0000000000000000e+00 +3.3999999789245101e+00 -2.9781045825582445e-02 -5.6510752626490690e-01 +5.7566654136689890e-03
3.5000000000000000e+00 +8.1526525821464002e+00 +0.0000000000000000e+00 +3.4999999770096801e+00 -2.9780910594113908e-02 -5.6510741317208579e-01 +5.7566615445547578e-03
3.6000000000000001e+00 +8.1526324460901396e+00 +0.0000000000000000e+00 +3.5999999749822500e+00 -2.9780785206265793e-02 -5.6510730673416498e-01 +5.7566526968691276e-03
3.7000000000000002e+00 +8.1526117428220495e+00 +0.0000000000000000e+00 +3.6999999728389801e+00 -2.9780670227341259e-02 -5.6510720621236565e-01 +5.7566388248272175e-03
3.7999999999999998e+00 +8.1525904723421299e+00 +0.0000000000000000e+00 +3.7999999705766800e+00 -2.9780566222618782e-02 -5.6510711086791721e-01 +5.7566198826423803e-03
3.8999999999999999e+00 +8.1525686346503807e+00 +0.0000000000000000e+00 +3.8999999681921298e+00 -2.9780473757349282e-02 -5.6510701996202795e-01 +5.7565958245258926e-03
4.0000000000000000e+00 +8.1525462297431694e+00 +0.0000000000000000e+00 +3.9999999656820902e+00 -2.9780393396756154e-02 -5.6510693275591328e-01 +5.7565666046872251e-03
4.0999999999999996e+00 +8.1525232576241304e+00 +0.0000000000000000e+00 +4.0999999630433699e+00 -2.9780325466390312e-02 -5.6510684857974247e-01 +5.7565321872873349e-03
4.2000000000000002e+00 +8.1524997182896204e+00 +0.0000000000000000e+00 +4.1999999602727298e+00 -2.9780269333231992e-02 -5.6510676703986162e-01 +5.7564925763038503e-03
4.2999999999999998e+00 +8.1524756117469206e+00 +0.0000000000000000e+00 +4.2999999573669703e+00 -2.9780224124629752e-02 -5.6510668781158901e-01 +5.7564477856694206e-03
4.4000000000000004e+00 +8.1524509379887604e+00 +0.0000000000000000e+00 +4.3999999543228601e+00 -2.9780188967955604e-02 -5.6510661057038658e-01 +5.7563978293201038e-03
4.5000000000000000e+00 +8.1524256970187707e+00 +0.0000000000000000e+00 +4.4999999511372000e+00 -2.9780162990596475e-02 -5.6510653499166552e-01 +5.7563427211935235e-03
4.5999999999999996e+00 +8.1523998888369498e+00 +0.0000000000000000e+00 +4.5999999478067499e+00 -2.9780145319961475e-02 -5.6510646075090176e-01 +5.7562824752302750e-03
4.7000000000000002e+00 +8.1523735134396702e+00 +0.0000000000000000e+00 +4.6999999443283098e+00 -2.9780135083483327e-02 -5.6510638752363751e-01 +5.7562171053741487e-03
4.7999999999999998e+00 +8.1523465708305594e+00 +0.0000000000000000e+00 +4.7999999406986600e+00 -2.9780131408615618e-02 -5.6510631498540098e-01 +5.7561466255714611e-03
4.9000000000000004e+00 +8.1523190610096208e+00 +0.0000000000000000e+00 +4.8999999369145701e+00 -2.9780133422838587e-02 -5.6510624281179123e-01 +5.7560710497721653e-03
5.0000000000000000e+00 +8.1522909839768491e+00 +0.0000000000000000e+00 +4.9999999329728402e+00 -2.9780140253659181e-02 -5.6510617067845470e-01 +5.7559903919297837e-03
5.0999999999999996e+00 +8.1522623397286207e+00 +0.0000000000000000e+00 +5.0999999288702398e+00 -2.9780151028613974e-02 -5.6510609826111380e-01 +5.7559046660019229e-03
5.2000000000000002e+00 +8.1522331282685592e+00 +0.0000000000000000e+00 +5.1999999246035600e+00 -2.9780164875266427e-02 -5.6510602523548703e-01 +5.7558138859496117e-03
5.2999999999999998e+00 +8.1522033495966806e+00 +0.0000000000000000e+00 +5.2999999201695802e+00 -2.9780180921212606e-02 -5.6510595127737440e-01 +5.7557180657383973e-03
5.4000000000000004e+00 +8.1521730037093203e+00 +0.0000000000000000e+00 +5.3999999155650800e+00 -2.9780198294082759e-02 -5.6510587606266072e-01 +5.7556172193385987e-03
5.5000000000000000e+00 +8.1521420906137791e+00 +0.0000000000000000e+00 +5.4999999107868396e+00 -2.9780216121537004e-02 -5.6510579926720494e-01 +5.7555113607243120e-03
5.5999999999999996e+00 +8.1521106102991308e+00 +0.0000000000000000e+00 +5.5999999058316599e+00 -2.9780233531278424e-02 -5.6510572056706876e-01 +5.7554005038760224e-03
5.7000000000000002e+00 +8.1520785627762997e+00 +0.0000000000000000e+00 +5.6999999006963096e+00 -2.9780249651038610e-02 -5.6510563963820915e-01 +5.7552846627775649e-03
5.7999999999999998e+00 +8.1520459480379905e+00 +0.0000000000000000e+00 +5.7999998953775700e+00 -2.9780263608595099e-02 -5.6510555615678926e-01 +5.7551638514196047e-03
5.9000000000000004e+00 +8.1520127660915005e+00 +0.0000000000000000e+00 +5.8999998898722197e+00 -2.9780274531759889e-02 -5.6510546979892962e-01 +5.7550380837971815e-03
5.9999999999999902e+00 +8.1519790169259103e+00 +0.0000000000000000e+00 +5.9999998841770603e+00 -2.9780281548393933e-02 -5.6510538024096346e-01 +5.7549073739126362e-03
6.0999999999999899e+00 +8.1519447005521197e+00 +0.0000000000000000e+00 +6.0999998782888598e+00 -2.9780284028750582e-02 -5.6510528737295518e-01 +5.7547717859828193e-03
6.1999999999999904e+00 +8.1519098169665103e+00 +0.0000000000000000e+00 +6.1999998722044003e+00 -2.9780282312548804e-02 -5.6510519194043785e-01 +5.7546315850706244e-03
6.2999999999999901e+00 +8.1518743661654298e+00 +0.0000000000000000e+00 +6.2999998659204701e+00 -2.9780276981857749e-02 -5.6510509490275340e-01 +5.7544870864468765e-03
6.3999999999999897e+00 +8.1518383481488907e+00 +0.0000000000000000e+00 +6.3999998594338496e+00 -2.9780268618729837e-02 -5.6510499721918539e-01 +5.7543386053784118e-03
6.4999999999999902e+00 +8.1518017629241495e+00 +0.0000000000000000e+00 +6.4999998527413201e+00 -2.9780257805198555e-02 -5.6510489984892931e-01 +5.7541864571276123e-03
6.5999999999999899e+00 +8.1517646104839496e+00 +0.0000000000000000e+00 +6.5999998458396698e+00 -2.9780245123286114e-02 -5.6510480375126038e-01 +5.7540309569540111e-03
6.6999999999999904e+00 +8.1517268908319203e+00 +0.0000000000000000e+00 +6.6999998387256703e+00 -2.9780231154992405e-02 -5.6510470988533301e-01 +5.7538724201120287e-03
6.7999999999999901e+00 +8.1516886039680703e+00 +0.0000000000000000e+00 +6.7999998313961196e+00 -2.9780216482299889e-02 -5.6510461921029342e-01 +5.7537111618519892e-03
6.8999999999999897e+00 +8.1516497498923908e+00 +0.0000000000000000e+00 +6.8999998238477902e+00 -2.9780201687171222e-02 -5.6510453268524885e-01 +5.7535474974196484e-03
6.9999999999999902e+00 +8.1516103286012402e+00 +0.0000000000000000e+00 +6.9999998160774597e+00 -2.9780187351549747e-02 -5.6510445126929432e-01 +5.7533817420563106e-03
7.0999999999999899e+00 +8.1515703400982602e+00 +0.0000000000000000e+00 +7.0999998080819298e+00 -2.9780174057354232e-02 -5.6510437592142471e-01 +5.7532142109977544e-03
7.1999999999999904e+00 +8.1515297843834595e+00 +0.0000000000000000e+00 +7.1999997998579603e+00 -2.9780162386482321e-02 -5.6510430760062125e-01 +5.7530452194749513e-03
7.2999999999999901e+00 +8.1514886614531896e+00 +0.0000000000000000e+00 +7.2999997914023496e+00 -2.9780152920809572e-02 -5.6510424726584496e-01 +5.7528750827139010e-03
7.3999999999999897e+00 +8.1514469713147300e+00 +0.0000000000000000e+00 +7.3999997827118804e+00 -2.9780146242182760e-02 -5.6510419587592642e-01 +5.7527041159342344e-03
7.4999999999999902e+00 +8.1514047139571595e+00 +0.0000000000000000e+00 +7.4999997737833199e+00 -2.9780142932430507e-02 -5.6510415438978656e-01 +5.7525326343514432e-03
7.5999999999999899e+00 +8.1513618893914099e+00 +0.0000000000000000e+00 +7.5999997646134698e+00 -2.9780143573346442e-02 -5.6510412376612629e-01 +5.7523609531734202e-03
7.6999999999999904e+00 +8.1513184976138309e+00 +0.0000000000000000e+00 +7.6999997551991104e+00 -2.9780148746702748e-02 -5.6510410496370600e-01 +5.7521893876032442e-03
7.7999999999999901e+00 +8.1512745386207808e+00 +0.0000000000000000e+00 +7.7999997455370096e+00 -2.9780159034243484e-02 -5.6510409894123148e-01 +5.7520182528378412e-03
7.8999999999999897e+00 +8.1512300124159101e+00 +0.0000000000000000e+00 +7.8999997356239602e+00 -2.9780175017680644e-02 -5.6510410665729527e-01 +5.7518478640671703e-03
7.9999999999999902e+00 +8.1511849189955701e+00 +0.0000000000000000e+00 +7.9999997254567399e+00 -2.9780197278699148e-02 -5.6510412907048801e-01 +5.7516785364752779e-03
8.0999999999999908e+00 +8.1511392583670403e+00 +0.0000000000000000e+00 +8.0999997150321406e+00 -2.9780226137484423e-02 -5.6510416689436793e-01 +5.7515105117492415e-03
8.1999999999999904e+00 +8.1510930305230396e+00 +0.0000000000000000e+00 +8.1999997043469399e+00 -2.9780260868336416e-02 -5.6510421986300763e-01 +5.7513437376153064e-03
8.2999999999999901e+00 +8.1510462354672200e+00 +0.0000000000000000e+00 +8.2999996933979094e+00 -2.9780300484065957e-02 -5.6510428746549912e-01 +5.7511780883143012e-03
8.3999999999999897e+00 +8.1509988731995708e+00 +0.0000000000000000e+00 +8.3999996821818605e+00 -2.9780343997470152e-02 -5.6510436919096507e-01 +5.7510134380948322e-03
8.4999999999999893e+00 +8.1509509437164507e+00 +0.0000000000000000e+00 +8.4999996706955496e+00 -2.9780390421332029e-02 -5.6510446452855745e-01 +5.7508496612135203e-03
8.5999999999999908e+00 +8.1509024470215099e+00 +0.0000000000000000e+00 +8.5999996589357703e+00 -2.9780438768415775e-02 -5.6510457296737582e-01 +5.7506866319343803e-03
8.6999999999999904e+00 +8.1508533831147396e+00 +0.0000000000000000e+00 +8.6999996468993004e+00 -2.9780488051470759e-02 -5.6510469399654883e-01 +5.7505242245299622e-03
8.7999999999999794e+00 +8.1508037519961398e+00 +0.0000000000000000e+00 +8.7999996345829192e+00 -2.9780537283229647e-02 -5.6510482710520804e-01 +5.7503623132812978e-03
8.8999999999999808e+00 +8.1507535536620708e+00 +0.0000000000000000e+00 +8.8999996219834205e+00 -2.9780585476409577e-02 -5.6510497178251706e-01 +5.7502007724784835e-03
8.9999999999999805e+00 +8.1507027881161793e+00 +0.0000000000000000e+00 +8.9999996090975891e+00 -2.9780631643707364e-02 -5.6510512751758502e-01 +5.7500394764200278e-03
9.0999999999999801e+00 +8.1506514553584601e+00 +0.0000000000000000e+00 +9.0999995959221902e+00 -2.9780674797803525e-02 -5.6510529379955310e-01 +5.7498782994139935e-03
9.1999999999999797e+00 +8.1505995553889097e+00 +0.0000000000000000e+00 +9.1999995824540193e+00 -2.9780713951360435e-02 -5.6510547011756629e-01 +5.7497171157779824e-03
9.2999999999999794e+00 +8.1505470882038900e+00 +0.0000000000000000e+00 +9.2999995686898593e+00 -2.9780748117023477e-02 -5.6510565596080098e-01 +5.7495557998396641e-03
9.3999999999999808e+00 +8.1504940538070496e+00 +0.0000000000000000e+00 +9.3999995546264898e+00 -2.9780776307416209e-02 -5.6510585081838161e-01 +5.7493942259361523e-03
9.4999999999999805e+00 +8.1504404521983798e+00 +0.0000000000000000e+00 +9.4999995402606903e+00 -2.9780797535144461e-02 -5.6510605417946458e-01 +5.7492322684151624e-03
9.5999999999999801e+00 +8.1503862833778804e+00 +0.0000000000000000e+00 +9.5999995255892507e+00 -2.9780810812794507e-02 -5.6510626553321086e-01 +5.7490698016349571e-03
9.6999999999999797e+00 +8.1503315473419207e+00 +0.0000000000000000e+00 +9.6999995106089507e+00 -2.9780815152934056e-02 -5.6510648436881450e-01 +5.7489066999649105e-03
9.7999999999999794e+00 +8.1502762440941297e+00 +0.0000000000000000e+00 +9.7999994953165697e+00 -2.9780809568107681e-02 -5.6510671017541747e-01 +5.7487428377848773e-03
9.8999999999999808e+00 +8.1502203736345091e+00 +0.0000000000000000e+00 +9.8999994797088906e+00 -2.9780793070840705e-02 -5.6510694244219573e-01 +5.7485780894863331e-03
9.9999999999999805e+00 +8.1501639359594300e+00 +0.0000000000000000e+00 +9.9999994637827001e+00 -2.9780764673638868e-02 -5.6510718065835763e-01 +5.7484123294726328e-03
1.0100000000000000e+01 +8.1501069310761505e+00 +0.0000000000000000e+00 +1.0099999447534801e+01 -2.9780723653035586e-02 -5.6510742441149420e-01 +5.7482454441459092e-03
1.0199999999999999e+01 +8.1500493589774106e+00 +0.0000000000000000e+00 +1.0199999430961901e+01 -2.9780670341790657e-02 -5.6510767368316484e-01 +5.7480773678679738e-03
1.0300000000000001e+01 +8.1499912196668394e+00 +0.0000000000000000e+00 +1.0299999414060901e+01 -2.9780605336732380e-02 -5.6510792855332048e-01 +5.7479080469846422e-03
1.0400000000000000e+01 +8.1499325131444493e+00 +0.0000000000000000e+00 +1.0399999396828500e+01 -2.9780529234704912e-02 -5.6510818910195182e-01 +5.7477374278371868e-03
1.0500000000000000e+01 +8.1498732394065900e+00 +0.0000000000000000e+00 +1.0499999379261400e+01 -2.9780442632568724e-02 -5.6510845540909060e-01 +5.7475654567621564e-03
1.0600000000000000e+01 +8.1498133984568994e+00 +0.0000000000000000e+00 +1.0599999361356600e+01 -2.9780346127196784e-02 -5.6510872755472563e-01 +5.7473920800903506e-03
1.0699999999999999e+01 +8.1497529902953794e+00 +0.0000000000000000e+00 +1.0699999343110701e+01 -2.9780240315479409e-02 -5.6510900561888666e-01 +5.7472172441475284e-03
1.0800000000000001e+01 +8.1496920149220404e+00 +0.0000000000000000e+00 +1.0799999324520600e+01 -2.9780125794323278e-02 -5.6510928968161744e-01 +5.7470408952539614e-03
1.0900000000000000e+01 +8.1496304723332305e+00 +0.0000000000000000e+00 +1.0899999305583000e+01 -2.9780003160653417e-02 -5.6510957982300380e-01 +5.7468629797245794e-03
1.1000000000000000e+01 +8.1495683625325892e+00 +0.0000000000000000e+00 +1.0999999286294800e+01 -2.9779873011409306e-02 -5.6510987612308994e-01 +5.7466834438678911e-03
1.1100000000000000e+01 +8.1495056855201309e+00 +0.0000000000000000e+00 +1.1099999266652601e+01 -2.9779735943549771e-02 -5.6511017866196289e-01 +5.7465022339867602e-03
1.1199999999999999e+01 +8.1494424412958306e+00 +0.0000000000000000e+00 +1.1199999246653300e+01 -2.9779592554051985e-02 -5.6511048751972470e-01 +5.7463192963778985e-03
1.1300000000000001e+01 +8.1493786298560700e+00 +0.0000000000000000e+00 +1.1299999226293700e+01 -2.9779443439913442e-02 -5.6511080277652104e-01 +5.7461345773320363e-03
1.1400000000000000e+01 +8.1493142512044905e+00 +0.0000000000000000e+00 +1.1399999205570500e+01 -2.9779289198148047e-02 -5.6511112451245682e-01 +5.7459480231328618e-03
1.1500000000000000e+01 +8.1492493053447106e+00 +0.0000000000000000e+00 +1.1499999184480499e+01 -2.9779130425789616e-02 -5.6511145280765362e-01 +5.7457595800574530e-03
1.1600000000000000e+01 +8.1491837922658306e+00 +0.0000000000000000e+00 +1.1599999163020600e+01 -2.9778967719898040e-02 -5.6511178774236193e-01 +5.7455691943773049e-03
1.1699999999999999e+01 +8.1491177119787608e+00 +0.0000000000000000e+00 +1.1699999141187400e+01 -2.9778801677545381e-02 -5.6511212939667943e-01 +5.7453768123552030e-03
1.1800000000000001e+01 +8.1490510644762306e+00 +0.0000000000000000e+00 +1.1799999118977800e+01 -2.9778632895832258e-02 -5.6511247785086316e-01 +5.7451823802483273e-03
