# field on trajectory
# s[mm] rx[mm] ry[mm] rz[mm] bx[T] by[T] bz[T]
-0.0000000000000000e+00 +8.1530000000000094e+00 +0.0000000000000000e+00 -0.0000000000000000e+00 -2.9065315644965475e-02 -5.3637616285743683e-01 +5.2947136424148535e-03
-1.0000000000000001e-01 +8.1529997163925092e+00 +0.0000000000000000e+00 -9.9999999999463796e-02 -2.9065333992260831e-02 -5.3637632576756222e-01 +5.2947271169327447e-03
-2.0000000000000001e-01 +8.1529988655711296e+00 +0.0000000000000000e+00 -1.9999999999571000e-01 -2.9065359419522242e-02 -5.3637650175026297e-01 +5.2947426242454711e-03
-2.9999999999999999e-01 +8.1529974475415692e+00 +0.0000000000000000e+00 -2.9999999998552201e-01 -2.9065390634409240e-02 -5.3637669012194744e-01 +5.2947600262471485e-03
-4.0000000000000002e-01 +8.1529954622965306e+00 +0.0000000000000000e+00 -3.9999999996568197e-01 -2.9065426344590674e-02 -5.3637689019911750e-01 +5.2947791848330346e-03
-5.0000000000000000e-01 +8.1529929098396696e+00 +0.0000000000000000e+00 -4.9999999993297300e-01 -2.9065465257735790e-02 -5.3637710129819050e-01 +5.2947999618975713e-03
-5.9999999999999998e-01 +8.1529897901673394e+00 +0.0000000000000000e+00 -5.9999999988417696e-01 -2.9065506081521530e-02 -5.3637732273563365e-01 +5.2948222193355803e-03
-6.9999999999999996e-01 +8.1529861032831796e+00 +0.0000000000000000e+00 -6.9999999981607697e-01 -2.9065547523627250e-02 -5.3637755382785712e-01 +5.2948458190410063e-03
-8.0000000000000004e-01 +8.1529818491871993e+00 +0.0000000000000000e+00 -7.9999999972545699e-01 -2.9065588291739164e-02 -5.3637779389129325e-01 +5.2948706229075633e-03
-9.0000000000000002e-01 +8.1529770278793894e+00 +0.0000000000000000e+00 -8.9999999960909804e-01 -2.9065627093549276e-02 -5.3637804224237062e-01 +5.2948964928282855e-03
-1.0000000000000000e+00 +8.1529716393597500e+00 +0.0000000000000000e+00 -9.9999999946378304e-01 -2.9065662636755640e-02 -5.3637829819751148e-01 +5.2949232906953679e-03
-1.1000000000000001e+00 +8.1529656836210105e+00 +0.0000000000000000e+00 -1.0999999992862901e+00 -2.9065693629065515e-02 -5.3637856107318915e-01 +5.2949508784005412e-03
-1.2000000000000000e+00 +8.1529591606740706e+00 +0.0000000000000000e+00 -1.1999999990734200e+00 -2.9065718778185791e-02 -5.3637883018573573e-01 +5.2949791178329977e-03
-1.3000000000000000e+00 +8.1529520705153100e+00 +0.0000000000000000e+00 -1.2999999988219300e+00 -2.9065736791835915e-02 -5.3637910485158669e-01 +5.2950078708816593e-03
-1.3999999999999999e+00 +8.1529444131410909e+00 +0.0000000000000000e+00 -1.3999999985286200e+00 -2.9065746377742573e-02 -5.3637938438717025e-01 +5.2950369994339370e-03
-1.5000000000000000e+00 +8.1529361885550298e+00 +0.0000000000000000e+00 -1.4999999981902701e+00 -2.9065746243637204e-02 -5.3637966810885651e-01 +5.2950663653750117e-03
-1.6000000000000001e+00 +8.1529273967571498e+00 +0.0000000000000000e+00 -1.5999999978036501e+00 -2.9065735097260462e-02 -5.3637995533303517e-01 +5.2950958305884735e-03
-1.7000000000000000e+00 +8.1529180377474404e+00 +0.0000000000000000e+00 -1.6999999973655600e+00 -2.9065711646361143e-02 -5.3638024537609030e-01 +5.2951252569558953e-03
-1.8000000000000000e+00 +8.1529081115222706e+00 +0.0000000000000000e+00 -1.7999999968727800e+00 -2.9065674598697862e-02 -5.3638053755442550e-01 +5.2951545063569224e-03
-1.8999999999999999e+00 +8.1528976180852606e+00 +0.0000000000000000e+00 -1.8999999963220899e+00 -2.9065622662035148e-02 -5.3638083118438418e-01 +5.2951834406682920e-03
-2.0000000000000000e+00 +8.1528865574327902e+00 +0.0000000000000000e+00 -1.9999999957102601e+00 -2.9065554544149368e-02 -5.3638112558235629e-01 +5.2952119217647611e-03
-2.1000000000000001e+00 +8.1528749295721408e+00 +0.0000000000000000e+00 -2.0999999950340902e+00 -2.9065469455754073e-02 -5.3638142011107048e-01 +5.2952398620824430e-03
-2.2000000000000002e+00 +8.1528627344960096e+00 +0.0000000000000000e+00 -2.1999999942903599e+00 -2.9065368619302097e-02 -5.3638171431906656e-01 +5.2952673763165137e-03
-2.2999999999999998e+00 +8.1528499722080596e+00 +0.0000000000000000e+00 -2.2999999934758399e+00 -2.9065253760170540e-02 -5.3638200780123080e-01 +5.2952946297269588e-03
-2.3999999999999999e+00 +8.1528366427046404e+00 +0.0000000000000000e+00 -2.3999999925873299e+00 -2.9065126603733067e-02 -5.3638230015250499e-01 +5.2953217875756327e-03
-2.5000000000000000e+00 +8.1528227459894005e+00 +0.0000000000000000e+00 -2.4999999916215998e+00 -2.9064988875352929e-02 -5.3638259096777963e-01 +5.2953490151254317e-03
-2.6000000000000001e+00 +8.1528082820659602e+00 +0.0000000000000000e+00 -2.5999999905754398e+00 -2.9064842300384513e-02 -5.3638287984194888e-01 +5.2953764776411489e-03
-2.7000000000000002e+00 +8.1527932509234198e+00 +0.0000000000000000e+00 -2.6999999894456299e+00 -2.9064688604177456e-02 -5.3638316637001804e-01 +5.2954043403908259e-03
-2.7999999999999998e+00 +8.1527776525726896e+00 +0.0000000000000000e+00 -2.7999999882289601e+00 -2.9064529512061406e-02 -5.3638345014683542e-01 +5.2954327686433279e-03
-2.8999999999999999e+00 +8.1527614870065008e+00 +0.0000000000000000e+00 -2.8999999869222002e+00 -2.9064366749360016e-02 -5.3638373076738954e-01 +5.2954619276716118e-03
-3.0000000000000000e+00 +8.1527447542284808e+00 +0.0000000000000000e+00 -2.9999999855221300e+00 -2.9064202041378422e-02 -5.3638400782659501e-01 +5.2954919827508332e-03
-3.1000000000000001e+00 +8.1527274542386294e+00 +0.0000000000000000e+00 -3.0999999840255499e+00 -2.9064037113407458e-02 -5.3638428091939971e-01 +5.2955230991597272e-03
-3.2000000000000002e+00 +8.1527095870333106e+00 +0.0000000000000000e+00 -3.1999999824292300e+00 -2.9063873690722369e-02 -5.3638454964078552e-01 +5.2955554421808852e-03
-3.2999999999999998e+00 +8.1526911526198091e+00 +0.0000000000000000e+00 -3.2999999807299600e+00 -2.9063713498575769e-02 -5.3638481358566348e-01 +5.2955891770999483e-03
-3.3999999999999999e+00 +8.1526721509872004e+00 +0.0000000000000000e+00 -3.3999999789245101e+00 -2.9063558262207582e-02 -5.3638507234908717e-01 +5.2956244692080679e-03
-3.5000000000000000e+00 +8.1526525821464002e+00 +0.0000000000000000e+00 -3.4999999770096801e+00 -2.9063409706828209e-02 -5.3638532552595897e-01 +5.2956614837992039e-03
-3.6000000000000001e+00 +8.1526324460901396e+00 +0.0000000000000000e+00 -3.5999999749822500e+00 -2.9063269557632641e-02 -5.3638557271132614e-01 +5.2957003861733871e-03
-3.7000000000000002e+00 +8.1526117428220495e+00 +0.0000000000000000e+00 -3.6999999728389801e+00 -2.9063139539787862e-02 -5.3638581350016723e-01 +5.2957413416348390e-03
-3.7999999999999998e+00 +8.1525904723421299e+00 +0.0000000000000000e+00 -3.7999999705766800e+00 -2.9063021378437134e-02 -5.3638604748749952e-01 +5.2957845154933403e-03
-3.8999999999999999e+00 +8.1525686346503807e+00 +0.0000000000000000e+00 -3.8999999681921298e+00 -2.9062916798697196e-02 -5.3638627426835306e-01 +5.2958300730642323e-03
-4.0000000000000000e+00 +8.1525462297431694e+00 +0.0000000000000000e+00 -3.9999999656820902e+00 -2.9062827525658329e-02 -5.3638649343779832e-01 +5.2958781796689849e-03
-4.0999999999999996e+00 +8.1525232576241304e+00 +0.0000000000000000e+00 -4.0999999630433699e+00 -2.9062754790525176e-02 -5.3638670475445693e-01 +5.2959289766824095e-03
-4.2000000000000002e+00 +8.1524997182896204e+00 +0.0000000000000000e+00 -4.1999999602727298e+00 -2.9062697849068585e-02 -5.3638690863138239e-01 +5.2959825096743612e-03
-4.2999999999999998e+00 +8.1524756117469206e+00 +0.0000000000000000e+00 -4.2999999573669703e+00 -2.9062655463198774e-02 -5.3638710564515535e-01 +5.2960388002603357e-03
-4.4000000000000004e+00 +8.1524509379887604e+00 +0.0000000000000000e+00 -4.3999999543228601e+00 -2.9062626394832900e-02 -5.3638729637247928e-01 +5.2960978700547457e-03
-4.5000000000000000e+00 +8.1524256970187707e+00 +0.0000000000000000e+00 -4.4999999511372000e+00 -2.9062609405885849e-02 -5.3638748138999592e-01 +5.2961597406688083e-03
-4.5999999999999996e+00 +8.1523998888369498e+00 +0.0000000000000000e+00 -4.5999999478067499e+00 -2.9062603258276459e-02 -5.3638766127439219e-01 +5.2962244337114066e-03
-4.7000000000000002e+00 +8.1523735134396702e+00 +0.0000000000000000e+00 -4.6999999443283098e+00 -2.9062606713927977e-02 -5.3638783660240130e-01 +5.2962919707888606e-03
-4.7999999999999998e+00 +8.1523465708305594e+00 +0.0000000000000000e+00 -4.7999999406986600e+00 -2.9062618534764554e-02 -5.3638800795072283e-01 +5.2963623735038864e-03
-4.9000000000000004e+00 +8.1523190610096208e+00 +0.0000000000000000e+00 -4.8999999369145701e+00 -2.9062637482715949e-02 -5.3638817589610377e-01 +5.2964356634561914e-03
-5.0000000000000000e+00 +8.1522909839768491e+00 +0.0000000000000000e+00 -4.9999999329728402e+00 -2.9062662319716742e-02 -5.3638834101531274e-01 +5.2965118622419769e-03
-5.0999999999999996e+00 +8.1522623397286207e+00 +0.0000000000000000e+00 -5.0999999288702398e+00 -2.9062691807708249e-02 -5.3638850388516746e-01 +5.2965909914539757e-03
-5.2000000000000002e+00 +8.1522331282685592e+00 +0.0000000000000000e+00 -5.1999999246035600e+00 -2.9062724708635006e-02 -5.3638866508245586e-01 +5.2966730726804329e-03
-5.2999999999999998e+00 +8.1522033495966806e+00 +0.0000000000000000e+00 -5.2999999201695802e+00 -2.9062759784449409e-02 -5.3638882518401576e-01 +5.2967581275056705e-03
-5.4000000000000004e+00 +8.1521730037093203e+00 +0.0000000000000000e+00 -5.3999999155650800e+00 -2.9062795797112424e-02 -5.3638898476673635e-01 +5.2968461775098809e-03
-5.5000000000000000e+00 +8.1521420906137791e+00 +0.0000000000000000e+00 -5.4999999107868396e+00 -2.9062831508588450e-02 -5.3638914440745278e-01 +5.2969372442678089e-03
-5.5999999999999996e+00 +8.1521106102991308e+00 +0.0000000000000000e+00 -5.5999999058316599e+00 -2.9062865680857204e-02 -5.3638930468315915e-01 +5.2970313493507001e-03
-5.7000000000000002e+00 +8.1520785627762997e+00 +0.0000000000000000e+00 -5.6999999006963096e+00 -2.9062897075898798e-02 -5.3638946617071714e-01 +5.2971285143230866e-03
-5.7999999999999998e+00 +8.1520459480379905e+00 +0.0000000000000000e+00 -5.7999998953775700e+00 -2.9062924455709779e-02 -5.3638962944714896e-01 +5.2972287607455553e-03
-5.9000000000000004e+00 +8.1520127660915005e+00 +0.0000000000000000e+00 -5.8999998898722197e+00 -2.9062946582291062e-02 -5.3638979508939821e-01 +5.2973321101720651e-03
-5.9999999999999902e+00 +8.1519790169259103e+00 +0.0000000000000000e+00 -5.9999998841770603e+00 -2.9062962217661206e-02 -5.3638996367457259e-01 +5.2974385841521926e-03
-6.0999999999999899e+00 +8.1519447005521197e+00 +0.0000000000000000e+00 -6.0999998782888598e+00 -2.9062970406274920e-02 -5.3639013573788963e-01 +5.2975481835019897e-03
-6.1999999999999904e+00 +8.1519098169665103e+00 +0.0000000000000000e+00 -6.1999998722044003e+00 -2.9062971322332841e-02 -5.3639031164765560e-01 +5.2976608261311930e-03
-6.2999999999999901e+00 +8.1518743661654298e+00 +0.0000000000000000e+00 -6.2999998659204701e+00 -2.9062965422457506e-02 -5.3639049173040387e-01 +5.2977764092245619e-03
-6.3999999999999897e+00 +8.1518383481488907e+00 +0.0000000000000000e+00 -6.3999998594338496e+00 -2.9062953163253739e-02 -5.3639067631262216e-01 +5.2978948299683935e-03
-6.4999999999999902e+00 +8.1518017629241495e+00 +0.0000000000000000e+00 -6.4999998527413201e+00 -2.9062935001306731e-02 -5.3639086572072436e-01 +5.2980159855503675e-03
-6.5999999999999899e+00 +8.1517646104839496e+00 +0.0000000000000000e+00 -6.5999998458396698e+00 -2.9062911393189901e-02 -5.3639106028121131e-01 +5.2981397731612584e-03
-6.6999999999999904e+00 +8.1517268908319203e+00 +0.0000000000000000e+00 -6.6999998387256703e+00 -2.9062882795454516e-02 -5.3639126032047946e-01 +5.2982660899931590e-03
-6.7999999999999901e+00 +8.1516886039680703e+00 +0.0000000000000000e+00 -6.7999998313961196e+00 -2.9062849664634769e-02 -5.3639146616492972e-01 +5.2983948332406402e-03
-6.8999999999999897e+00 +8.1516497498923908e+00 +0.0000000000000000e+00 -6.8999998238477902e+00 -2.9062812457245804e-02 -5.3639167814093724e-01 +5.2985259001006070e-03
-6.9999999999999902e+00 +8.1516103286012402e+00 +0.0000000000000000e+00 -6.9999998160774597e+00 -2.9062771629784625e-02 -5.3639189657487851e-01 +5.2986591877726610e-03
-7.0999999999999899e+00 +8.1515703400982602e+00 +0.0000000000000000e+00 -7.0999998080819298e+00 -2.9062727638725274e-02 -5.3639212179304863e-01 +5.2987945934583735e-03
-7.1999999999999904e+00 +8.1515297843834595e+00 +0.0000000000000000e+00 -7.1999997998579603e+00 -2.9062680940522567e-02 -5.3639235412174147e-01 +5.2989320143622259e-03
-7.2999999999999901e+00 +8.1514886614531896e+00 +0.0000000000000000e+00 -7.2999997914023496e+00 -2.9062631991611472e-02 -5.3639259388724780e-01 +5.2990713476916999e-03
-7.3999999999999897e+00 +8.1514469713147300e+00 +0.0000000000000000e+00 -7.3999997827118804e+00 -2.9062581248401033e-02 -5.3639284141574695e-01 +5.2992124906562814e-03
-7.4999999999999902e+00 +8.1514047139571595e+00 +0.0000000000000000e+00 -7.4999997737833199e+00 -2.9062529167284950e-02 -5.3639309703352045e-01 +5.2993553404697621e-03
-7.5999999999999899e+00 +8.1513618893914099e+00 +0.0000000000000000e+00 -7.5999997646134698e+00 -2.9062476204625699e-02 -5.3639336106665569e-01 +5.2994997943473232e-03
-7.6999999999999904e+00 +8.1513184976138309e+00 +0.0000000000000000e+00 -7.6999997551991104e+00 -2.9062422816767956e-02 -5.3639363384131200e-01 +5.2996457495083776e-03
-7.7999999999999901e+00 +8.1512745386207808e+00 +0.0000000000000000e+00 -7.7999997455370096e+00 -2.9062369460032475e-02 -5.3639391568361439e-01 +5.2997931031755702e-03
-7.8999999999999897e+00 +8.1512300124159101e+00 +0.0000000000000000e+00 -7.8999997356239602e+00 -2.9062316590712674e-02 -5.3639420691959616e-01 +5.2999417525743412e-03
-7.9999999999999902e+00 +8.1511849189955701e+00 +0.0000000000000000e+00 -7.9999997254567399e+00 -2.9062264665079749e-02 -5.3639450787530651e-01 +5.3000915949341200e-03
-8.0999999999999908e+00 +8.1511392583670403e+00 +0.0000000000000000e+00 -8.0999997150321406e+00 -2.9062214082517291e-02 -5.3639481879838513e-01 +5.3002425365644684e-03
-8.1999999999999904e+00 +8.1510930305230396e+00 +0.0000000000000000e+00 -8.1999997043469399e+00 -2.9062165014988324e-02 -5.3639513962338781e-01 +5.3003945200870550e-03
-8.2999999999999901e+00 +8.1510462354672200e+00 +0.0000000000000000e+00 -8.2999996933979094e+00 -2.9062117577659221e-02 -5.3639547020648704e-01 +5.3005474971967248e-03
-8.3999999999999897e+00 +8.1509988731995708e+00 +0.0000000000000000e+00 -8.3999996821818605e+00 -2.9062071885774785e-02 -5.3639581040387241e-01 +5.3007014195842672e-03
-8.4999999999999893e+00 +8.1509509437164507e+00 +0.0000000000000000e+00 -8.4999996706955496e+00 -2.9062028054660814e-02 -5.3639616007175162e-01 +5.3008562389362636e-03
-8.5999999999999908e+00 +8.1509024470215099e+00 +0.0000000000000000e+00 -8.5999996589357703e+00 -2.9061986199722386e-02 -5.3639651906626917e-01 +5.3010119069341376e-03
-8.6999999999999904e+00 +8.1508533831147396e+00 +0.0000000000000000e+00 -8.6999996468993004e+00 -2.9061946436450565e-02 -5.3639688724358647e-01 +5.3011683752548257e-03
-8.7999999999999794e+00 +8.1508037519961398e+00 +0.0000000000000000e+00 -8.7999996345829192e+00 -2.9061908880423544e-02 -5.3639726445985381e-01 +5.3013255955703742e-03
-8.8999999999999808e+00 +8.1507535536620708e+00 +0.0000000000000000e+00 -8.8999996219834205e+00 -2.9061873647310565e-02 -5.3639765057124000e-01 +5.3014835195480713e-03
-8.9999999999999805e+00 +8.1507027881161793e+00 +0.0000000000000000e+00 -8.9999996090975891e+00 -2.9061840852870186e-02 -5.3639804543384806e-01 +5.3016420988494803e-03
-9.0999999999999801e+00 +8.1506514553584601e+00 +0.0000000000000000e+00 -9.0999995959221902e+00 -2.9061810612957102e-02 -5.3639844890379818e-01 +5.3018012851311367e-03
-9.1999999999999797e+00 +8.1505995553889097e+00 +0.0000000000000000e+00 -9.1999995824540193e+00 -2.9061783043523141e-02 -5.3639886083719934e-01 +5.3019610300441243e-03
-9.2999999999999794e+00 +8.1505470882038900e+00 +0.0000000000000000e+00 -9.2999995686898593e+00 -2.9061758260621282e-02 -5.3639928109017643e-01 +5.3021212852342103e-03
-9.3999999999999808e+00 +8.1504940538070496e+00 +0.0000000000000000e+00 -9.3999995546264898e+00 -2.9061736380403904e-02 -5.3639970951878913e-01 +5.3022820023408941e-03
-9.4999999999999805e+00 +8.1504404521983798e+00 +0.0000000000000000e+00 -9.4999995402606903e+00 -2.9061717519129546e-02 -5.3640014597911245e-01 +5.3024431329980791e-03
-9.5999999999999801e+00 +8.1503862833778804e+00 +0.0000000000000000e+00 -9.5999995255892507e+00 -2.9061701793164006e-02 -5.3640059032721055e-01 +5.3026046288336716e-03
-9.6999999999999797e+00 +8.1503315473419207e+00 +0.0000000000000000e+00 -9.6999995106089507e+00 -2.9061689318984223e-02 -5.3640104241916131e-01 +5.3027664414697015e-03
-9.7999999999999794e+00 +8.1502762440941297e+00 +0.0000000000000000e+00 -9.7999994953165697e+00 -2.9061680213176695e-02 -5.3640150211097803e-01 +5.3029285225213848e-03
-9.8999999999999808e+00 +8.1502203736345091e+00 +0.0000000000000000e+00 -9.8999994797088906e+00 -2.9061674592444096e-02 -5.3640196925868766e-01 +5.3030908235977836e-03
-9.9999999999999805e+00 +8.1501639359594300e+00 +0.0000000000000000e+00 -9.9999994637827001e+00 -2.9061672573607793e-02 -5.3640244371833179e-01 +5.3032532963016724e-03
-1.0100000000000000e+01 +8.1501069310761505e+00 +0.0000000000000000e+00 -1.0099999447534801e+01 -2.9061674208433672e-02 -5.3640292541521717e-01 +5.3034159117811286e-03
-1.0199999999999999e+01 +8.1500493589774106e+00 +0.0000000000000000e+00 -1.0199999430961901e+01 -2.9061679288060735e-02 -5.3640341455218388e-01 +5.3035787193970469e-03
-1.0300000000000001e+01 +8.1499912196668394e+00 +0.0000000000000000e+00 -1.0299999414060901e+01 -2.9061687538392066e-02 -5.3640391140134913e-01 +5.3037417880729548e-03
-1.0400000000000000e+01 +8.1499325131444493e+00 +0.0000000000000000e+00 -1.0399999396828500e+01 -2.9061698685255176e-02 -5.3640441623485513e-01 +5.3039051867444648e-03
-1.0500000000000000e+01 +8.1498732394065900e+00 +0.0000000000000000e+00 -1.0499999379261400e+01 -2.9061712454399608e-02 -5.3640492932486838e-01 +5.3040689843596002e-03
-1.0600000000000000e+01 +8.1498133984568994e+00 +0.0000000000000000e+00 -1.0599999361356600e+01 -2.9061728571490458e-02 -5.3640545094350012e-01 +5.3042332498782884e-03
-1.0699999999999999e+01 +8.1497529902953794e+00 +0.0000000000000000e+00 -1.0699999343110701e+01 -2.9061746762110159e-02 -5.3640598136288675e-01 +5.3043980522734686e-03
-1.0800000000000001e+01 +8.1496920149220404e+00 +0.0000000000000000e+00 -1.0799999324520600e+01 -2.9061766751754769e-02 -5.3640652085516227e-01 +5.3045634605311618e-03
-1.0900000000000000e+01 +8.1496304723332305e+00 +0.0000000000000000e+00 -1.0899999305583000e+01 -2.9061788265833017e-02 -5.3640706969248619e-01 +5.3047295436510194e-03
-1.1000000000000000e+01 +8.1495683625325892e+00 +0.0000000000000000e+00 -1.0999999286294800e+01 -2.9061811029659754e-02 -5.3640762814696219e-01 +5.3048963706458438e-03
-1.1100000000000000e+01 +8.1495056855201309e+00 +0.0000000000000000e+00 -1.1099999266652601e+01 -2.9061834768457844e-02 -5.3640819649071969e-01 +5.3050640105427030e-03
-1.1199999999999999e+01 +8.1494424412958306e+00 +0.0000000000000000e+00 -1.1199999246653300e+01 -2.9061859207354344e-02 -5.3640877499588580e-01 +5.3052325323829684e-03
-1.1300000000000001e+01 +8.1493786298560700e+00 +0.0000000000000000e+00 -1.1299999226293700e+01 -2.9061884071379621e-02 -5.3640936393461314e-01 +5.3054020052228984e-03
-1.1400000000000000e+01 +8.1493142512044905e+00 +0.0000000000000000e+00 -1.1399999205570500e+01 -2.9061909085460771e-02 -5.3640996357899895e-01 +5.3055724981331299e-03
-1.1500000000000000e+01 +8.1492493053447106e+00 +0.0000000000000000e+00 -1.1499999184480499e+01 -2.9061933974422083e-02 -5.3641057420113902e-01 +5.3057440801995356e-03
-1.1600000000000000e+01 +8.1491837922658306e+00 +0.0000000000000000e+00 -1.1599999163020600e+01 -2.9061958462988324e-02 -5.3641119607323495e-01 +5.3059168205246273e-03
-1.1699999999999999e+01 +8.1491177119787608e+00 +0.0000000000000000e+00 -1.1699999141187400e+01 -2.9061982275768335e-02 -5.3641182946732624e-01 +5.3060907882251295e-03
