# trajectory
# s[mm] rx[mm] ry[mm] rz[mm] px[rad] py[rad] pz[rad]
0.0000000000000000e+00 +8.1649999999999991e+00 +0.0000000000000000e+00 +0.0000000000000000e+00 +0.0000000000000000e+00 +0.0000000000000000e+00 +1.0000000000000000e+00
-1.0000000000000001e-01 +8.1649997170768529e+00 +0.0000000000000000e+00 -9.9999999999466349e-02 +5.6584630975501813e-06 +0.0000000000000000e+00 +9.9999999998399092e-01
-2.0000000000000001e-01 +8.1649988683073484e+00 +0.0000000000000000e+00 -1.9999999999573090e-01 +1.1316927168702418e-05 +0.0000000000000000e+00 +9.9999999993596356e-01
-3.0000000000000004e-01 +8.1649974536913863e+00 +0.0000000000000000e+00 -2.9999999998559179e-01 +1.6975392245489472e-05 +0.0000000000000000e+00 +9.9999999985591803e-01
-4.0000000000000002e-01 +8.1649954732288652e+00 +0.0000000000000000e+00 -3.9999999996584723e-01 +2.2633858365164986e-05 +0.0000000000000000e+00 +9.9999999974385423e-01
-5.0000000000000000e-01 +8.1649929269196768e+00 +0.0000000000000000e+00 -4.9999999993329536e-01 +2.8292325570203432e-05 +0.0000000000000000e+00 +9.9999999959977215e-01
-5.9999999999999998e-01 +8.1649898147637128e+00 +0.0000000000000000e+00 -5.9999999988473440e-01 +3.3950793908300115e-05 +0.0000000000000000e+00 +9.9999999942367179e-01
-6.9999999999999996e-01 +8.1649861367608558e+00 +0.0000000000000000e+00 -6.9999999981696248e-01 +3.9609263432371152e-05 +0.0000000000000000e+00 +9.9999999921555316e-01
-7.9999999999999993e-01 +8.1649818929109852e+00 +0.0000000000000000e+00 -7.9999999972677771e-01 +4.5267734200553461e-05 +0.0000000000000000e+00 +9.9999999897541614e-01
-8.9999999999999991e-01 +8.1649770832139730e+00 +0.0000000000000000e+00 -8.9999999961097843e-01 +5.0926206276204790e-05 +0.0000000000000000e+00 +9.9999999870326073e-01
-9.9999999999999989e-01 +8.1649717076696842e+00 +0.0000000000000000e+00 -9.9999999946636264e-01 +5.6584679727903702e-05 +0.0000000000000000e+00 +9.9999999839908693e-01
-1.0999999999999999e+00 +8.1649657662779784e+00 +0.0000000000000000e+00 -1.0999999992897285e+00 +6.2243154629449619e-05 +0.0000000000000000e+00 +9.9999999806289475e-01
-1.2000000000000000e+00 +8.1649592590387066e+00 +0.0000000000000000e+00 -1.1999999990778742e+00 +6.7901631059862839e-05 +0.0000000000000000e+00 +9.9999999769468417e-01
-1.3000000000000000e+00 +8.1649521859517122e+00 +0.0000000000000000e+00 -1.2999999988275981e+00 +7.3560109103384578e-05 +0.0000000000000000e+00 +9.9999999729445510e-01
-1.4000000000000001e+00 +8.1649445470168285e+00 +0.0000000000000000e+00 -1.3999999985356981e+00 +7.9218588849477018e-05 +0.0000000000000000e+00 +9.9999999686220753e-01
-1.5000000000000002e+00 +8.1649363422338812e+00 +0.0000000000000000e+00 -1.4999999981989725e+00 +8.4877070392823346e-05 +0.0000000000000000e+00 +9.9999999639794135e-01
-1.6000000000000003e+00 +8.1649275716026857e+00 +0.0000000000000000e+00 -1.5999999978142192e+00 +9.0535553833327818e-05 +0.0000000000000000e+00 +9.9999999590165667e-01
-1.7000000000000004e+00 +8.1649182351230465e+00 +0.0000000000000000e+00 -1.6999999973782365e+00 +9.6194039276115855e-05 +0.0000000000000000e+00 +9.9999999537335338e-01
-1.8000000000000005e+00 +8.1649083327947594e+00 +0.0000000000000000e+00 -1.7999999968878226e+00 +1.0185252683153409e-04 +0.0000000000000000e+00 +9.9999999481303137e-01
-1.9000000000000006e+00 +8.1648978646176058e+00 +0.0000000000000000e+00 -1.8999999963397756e+00 +1.0751101661515045e-04 +0.0000000000000000e+00 +9.9999999422069064e-01
-2.0000000000000004e+00 +8.1648868305913584e+00 +0.0000000000000000e+00 -1.9999999957308934e+00 +1.1316950874775429e-04 +0.0000000000000000e+00 +9.9999999359633107e-01
-2.1000000000000005e+00 +8.1648752307157739e+00 +0.0000000000000000e+00 -2.0999999950579742e+00 +1.1882800335465543e-04 +0.0000000000000000e+00 +9.9999999293995279e-01
-2.2000000000000006e+00 +8.1648630649906000e+00 +0.0000000000000000e+00 -2.1999999943178166e+00 +1.2448650055797310e-04 +0.0000000000000000e+00 +9.9999999225155556e-01
-2.3000000000000007e+00 +8.1648503334155720e+00 +0.0000000000000000e+00 -2.2999999935072180e+00 +1.3014500046892483e-04 +0.0000000000000000e+00 +9.9999999153113939e-01
-2.4000000000000008e+00 +8.1648370359904128e+00 +0.0000000000000000e+00 -2.3999999926229769e+00 +1.3580350318712539e-04 +0.0000000000000000e+00 +9.9999999077870416e-01
-2.5000000000000009e+00 +8.1648231727148382e+00 +0.0000000000000000e+00 -2.4999999916618916e+00 +1.4146200880058672e-04 +0.0000000000000000e+00 +9.9999998999424988e-01
-2.6000000000000010e+00 +8.1648087435885532e+00 +0.0000000000000000e+00 -2.5999999906207596e+00 +1.4712051738571786e-04 +0.0000000000000000e+00 +9.9999998917777655e-01
-2.7000000000000011e+00 +8.1647937486112596e+00 +0.0000000000000000e+00 -2.6999999894963795e+00 +1.5277902900732488e-04 +0.0000000000000000e+00 +9.9999998832928405e-01
-2.8000000000000012e+00 +8.1647781877826500e+00 +0.0000000000000000e+00 -2.7999999882855491e+00 +1.5843754371861081e-04 +0.0000000000000000e+00 +9.9999998744877228e-01
-2.9000000000000012e+00 +8.1647620611024116e+00 +0.0000000000000000e+00 -2.8999999869850668e+00 +1.6409606156117559e-04 +0.0000000000000000e+00 +9.9999998653624123e-01
-3.0000000000000013e+00 +8.1647453685702320e+00 +0.0000000000000000e+00 -2.9999999855917303e+00 +1.6975458256501586e-04 +0.0000000000000000e+00 +9.9999998559169079e-01
-3.1000000000000014e+00 +8.1647281101857931e+00 +0.0000000000000000e+00 -3.0999999841023378e+00 +1.7541310674852492e-04 +0.0000000000000000e+00 +9.9999998461512096e-01
-3.2000000000000015e+00 +8.1647102859487770e+00 +0.0000000000000000e+00 -3.1999999825136873e+00 +1.8107163411849265e-04 +0.0000000000000000e+00 +9.9999998360653164e-01
-3.3000000000000016e+00 +8.1646918958588639e+00 +0.0000000000000000e+00 -3.2999999808225771e+00 +1.8673016467010529e-04 +0.0000000000000000e+00 +9.9999998256592282e-01
-3.4000000000000017e+00 +8.1646729399157376e+00 +0.0000000000000000e+00 -3.3999999790258046e+00 +1.9238869838694535e-04 +0.0000000000000000e+00 +9.9999998149329439e-01
-3.5000000000000018e+00 +8.1646534181190820e+00 +0.0000000000000000e+00 -3.4999999771201686e+00 +1.9804723524099142e-04 +0.0000000000000000e+00 +9.9999998038864635e-01
-3.6000000000000019e+00 +8.1646333304685861e+00 +0.0000000000000000e+00 -3.5999999751024667e+00 +2.0370577519261807e-04 +0.0000000000000000e+00 +9.9999997925197859e-01
-3.7000000000000020e+00 +8.1646126769639427e+00 +0.0000000000000000e+00 -3.6999999729694970e+00 +2.0936431819059561e-04 +0.0000000000000000e+00 +9.9999997808329111e-01
-3.8000000000000020e+00 +8.1645914576048497e+00 +0.0000000000000000e+00 -3.7999999707180576e+00 +2.1502286417208997e-04 +0.0000000000000000e+00 +9.9999997688258391e-01
-3.9000000000000021e+00 +8.1645696723910124e+00 +0.0000000000000000e+00 -3.8999999683449467e+00 +2.2068141306266247e-04 +0.0000000000000000e+00 +9.9999997564985688e-01
-4.0000000000000018e+00 +8.1645473213221429e+00 +0.0000000000000000e+00 -3.9999999658469618e+00 +2.2633996477626963e-04 +0.0000000000000000e+00 +9.9999997438511001e-01
-4.1000000000000014e+00 +8.1645244043979659e+00 +0.0000000000000000e+00 -4.0999999632209017e+00 +2.3199851921595780e-04 +0.0000000000000000e+00 +9.9999997308834332e-01
-4.2000000000000011e+00 +8.1645009216182132e+00 +0.0000000000000000e+00 -4.1999999604635638e+00 +2.3765707628150572e-04 +0.0000000000000000e+00 +9.9999997175955679e-01
-4.3000000000000007e+00 +8.1644768729826254e+00 +0.0000000000000000e+00 -4.2999999575717460e+00 +2.4331563587706747e-04 +0.0000000000000000e+00 +9.9999997039875033e-01
-4.4000000000000004e+00 +8.1644522584909556e+00 +0.0000000000000000e+00 -4.3999999545422463e+00 +2.4897419791186713e-04 +0.0000000000000000e+00 +9.9999996900592403e-01
-4.5000000000000000e+00 +8.1644270781429640e+00 +0.0000000000000000e+00 -4.4999999513718629e+00 +2.5463276230019895e-04 +0.0000000000000000e+00 +9.9999996758107779e-01
-4.5999999999999996e+00 +8.1644013319384197e+00 +0.0000000000000000e+00 -4.5999999480573939e+00 +2.6029132896142728e-04 +0.0000000000000000e+00 +9.9999996612421160e-01
-4.6999999999999993e+00 +8.1643750198770988e+00 +0.0000000000000000e+00 -4.6999999445956373e+00 +2.6594989781998657e-04 +0.0000000000000000e+00 +9.9999996463532548e-01
-4.7999999999999989e+00 +8.1643481419587847e+00 +0.0000000000000000e+00 -4.7999999409833913e+00 +2.7160846880538151e-04 +0.0000000000000000e+00 +9.9999996311441930e-01
-4.8999999999999986e+00 +8.1643206981832694e+00 +0.0000000000000000e+00 -4.8999999372174541e+00 +2.7726704185218701e-04 +0.0000000000000000e+00 +9.9999996156149318e-01
-4.9999999999999982e+00 +8.1642926885503488e+00 +0.0000000000000000e+00 -4.9999999332946228e+00 +2.8292561690004825e-04 +0.0000000000000000e+00 +9.9999995997654700e-01
-5.0999999999999979e+00 +8.1642641130598257e+00 +0.0000000000000000e+00 -5.0999999292116964e+00 +2.8858419389368083e-04 +0.0000000000000000e+00 +9.9999995835958078e-01
-5.1999999999999975e+00 +8.1642349717115081e+00 +0.0000000000000000e+00 -5.1999999249654723e+00 +2.9424277278287058e-04 +0.0000000000000000e+00 +9.9999995671059450e-01
-5.2999999999999972e+00 +8.1642052645052079e+00 +0.0000000000000000e+00 -5.2999999205527484e+00 +2.9990135352247392e-04 +0.0000000000000000e+00 +9.9999995502958816e-01
-5.3999999999999968e+00 +8.1641749914407438e+00 +0.0000000000000000e+00 -5.3999999159703229e+00 +3.0555993607241777e-04 +0.0000000000000000e+00 +9.9999995331656177e-01
-5.4999999999999964e+00 +8.1641441525179346e+00 +0.0000000000000000e+00 -5.4999999112149940e+00 +3.1121852039769958e-04 +0.0000000000000000e+00 +9.9999995157151522e-01
-5.5999999999999961e+00 +8.1641127477366062e+00 +0.0000000000000000e+00 -5.5999999062835588e+00 +3.1687710646838746e-04 +0.0000000000000000e+00 +9.9999994979444851e-01
-5.6999999999999957e+00 +8.1640807770965846e+00 +0.0000000000000000e+00 -5.6999999011728164e+00 +3.2253569425962032e-04 +0.0000000000000000e+00 +9.9999994798536163e-01
-5.7999999999999954e+00 +8.1640482405976975e+00 +0.0000000000000000e+00 -5.7999998958795640e+00 +3.2819428375160784e-04 +0.0000000000000000e+00 +9.9999994614425458e-01
-5.8999999999999950e+00 +8.1640151382397779e+00 +0.0000000000000000e+00 -5.8999998904005997e+00 +3.3385287492963074e-04 +0.0000000000000000e+00 +9.9999994427112737e-01
-5.9999999999999947e+00 +8.1639814700226569e+00 +0.0000000000000000e+00 -5.9999998847327216e+00 +3.3951146778404064e-04 +0.0000000000000000e+00 +9.9999994236597989e-01
-6.0999999999999943e+00 +8.1639472359461660e+00 +0.0000000000000000e+00 -6.0999998788727279e+00 +3.4517006231033788e-04 +0.0000000000000000e+00 +9.9999994042881224e-01
-6.1999999999999940e+00 +8.1639124360101398e+00 +0.0000000000000000e+00 -6.1999998728174166e+00 +3.5082865851002480e-04 +0.0000000000000000e+00 +9.9999993845962432e-01
-6.2999999999999936e+00 +8.1638770702144097e+00 +0.0000000000000000e+00 -6.2999998665635850e+00 +3.5648725639145901e-04 +0.0000000000000000e+00 +9.9999993645841601e-01
-6.3999999999999932e+00 +8.1638411385588050e+00 +0.0000000000000000e+00 -6.3999998601080321e+00 +3.6214585596993119e-04 +0.0000000000000000e+00 +9.9999993442518731e-01
-6.4999999999999929e+00 +8.1638046410431571e+00 +0.0000000000000000e+00 -6.4999998534475552e+00 +3.6780445726766503e-04 +0.0000000000000000e+00 +9.9999993235993823e-01
-6.5999999999999925e+00 +8.1637675776672936e+00 +0.0000000000000000e+00 -6.5999998465789522e+00 +3.7346306031381767e-04 +0.0000000000000000e+00 +9.9999993026266876e-01
-6.6999999999999922e+00 +8.1637299484310351e+00 +0.0000000000000000e+00 -6.6999998394990214e+00 +3.7912166514447954e-04 +0.0000000000000000e+00 +9.9999992813337879e-01
-6.7999999999999918e+00 +8.1636917533342039e+00 +0.0000000000000000e+00 -6.7999998322045609e+00 +3.8478027180267475e-04 +0.0000000000000000e+00 +9.9999992597206833e-01
-6.8999999999999915e+00 +8.1636529923766119e+00 +0.0000000000000000e+00 -6.8999998246923679e+00 +3.9043888033836113e-04 +0.0000000000000000e+00 +9.9999992377873725e-01
-6.9999999999999911e+00 +8.1636136655580707e+00 +0.0000000000000000e+00 -6.9999998169592406e+00 +3.9609749080843050e-04 +0.0000000000000000e+00 +9.9999992155338557e-01
-7.0999999999999908e+00 +8.1635737728783830e+00 +0.0000000000000000e+00 -7.0999998090019769e+00 +4.0175610327670871e-04 +0.0000000000000000e+00 +9.9999991929601328e-01
-7.1999999999999904e+00 +8.1635333143373465e+00 +0.0000000000000000e+00 -7.1999998008173751e+00 +4.0741471781395594e-04 +0.0000000000000000e+00 +9.9999991700662016e-01
-7.2999999999999901e+00 +8.1634922899347497e+00 +0.0000000000000000e+00 -7.2999997924022333e+00 +4.1307333449786682e-04 +0.0000000000000000e+00 +9.9999991468520633e-01
-7.3999999999999897e+00 +8.1634506996703724e+00 +0.0000000000000000e+00 -7.3999997837533487e+00 +4.1873195341307070e-04 +0.0000000000000000e+00 +9.9999991233177155e-01
-7.4999999999999893e+00 +8.1634085435439889e+00 +0.0000000000000000e+00 -7.4999997748675202e+00 +4.2439057465113171e-04 +0.0000000000000000e+00 +9.9999990994631582e-01
-7.5999999999999890e+00 +8.1633658215553613e+00 +0.0000000000000000e+00 -7.5999997657415452e+00 +4.3004919831054908e-04 +0.0000000000000000e+00 +9.9999990752883905e-01
-7.6999999999999886e+00 +8.1633225337042425e+00 +0.0000000000000000e+00 -7.6999997563722209e+00 +4.3570782449675735e-04 +0.0000000000000000e+00 +9.9999990507934111e-01
-7.7999999999999883e+00 +8.1632786799903734e+00 +0.0000000000000000e+00 -7.7999997467563462e+00 +4.4136645332212653e-04 +0.0000000000000000e+00 +9.9999990259782201e-01
-7.8999999999999879e+00 +8.1632342604134855e+00 +0.0000000000000000e+00 -7.8999997368907184e+00 +4.4702508490596234e-04 +0.0000000000000000e+00 +9.9999990008428152e-01
-7.9999999999999876e+00 +8.1631892749732966e+00 +0.0000000000000000e+00 -7.9999997267721357e+00 +4.5268371937450642e-04 +0.0000000000000000e+00 +9.9999989753871965e-01
-8.0999999999999872e+00 +8.1631437236695099e+00 +0.0000000000000000e+00 -8.0999997163973951e+00 +4.5834235686034616e-04 +0.0000000000000000e+00 +9.9999989496113628e-01
-8.1999999999999869e+00 +8.1630976065018181e+00 +0.0000000000000000e+00 -8.1999997057632950e+00 +4.6400099749591980e-04 +0.0000000000000000e+00 +9.9999989235153119e-01
-8.2999999999999865e+00 +8.1630509234699016e+00 +0.0000000000000000e+00 -8.2999996948666332e+00 +4.6965964140702123e-04 +0.0000000000000000e+00 +9.9999988970990439e-01
-8.3999999999999861e+00 +8.1630036745734245e+00 +0.0000000000000000e+00 -8.3999996837042072e+00 +4.7531828871220943e-04 +0.0000000000000000e+00 +9.9999988703625564e-01
-8.4999999999999858e+00 +8.1629558598120422e+00 +0.0000000000000000e+00 -8.4999996722728159e+00 +4.8097693952280811e-04 +0.0000000000000000e+00 +9.9999988433058495e-01
-8.5999999999999854e+00 +8.1629074791853995e+00 +0.0000000000000000e+00 -8.5999996605692566e+00 +4.8663559394290556e-04 +0.0000000000000000e+00 +9.9999988159289221e-01
-8.6999999999999851e+00 +8.1628585326931304e+00 +0.0000000000000000e+00 -8.6999996485903264e+00 +4.9229425206935421e-04 +0.0000000000000000e+00 +9.9999987882317720e-01
-8.7999999999999847e+00 +8.1628090203348602e+00 +0.0000000000000000e+00 -8.7999996363328243e+00 +4.9795291399177069e-04 +0.0000000000000000e+00 +9.9999987602143992e-01
-8.8999999999999844e+00 +8.1627589421102034e+00 +0.0000000000000000e+00 -8.8999996237935477e+00 +5.0361157979253511e-04 +0.0000000000000000e+00 +9.9999987318768013e-01
-8.9999999999999840e+00 +8.1627082980187691e+00 +0.0000000000000000e+00 -8.9999996109692937e+00 +5.0927024954679125e-04 +0.0000000000000000e+00 +9.9999987032189785e-01
-9.0999999999999837e+00 +8.1626570880601594e+00 +0.0000000000000000e+00 -9.0999995978568595e+00 +5.1492892332244584e-04 +0.0000000000000000e+00 +9.9999986742409297e-01
-9.1999999999999833e+00 +8.1626053122339677e+00 +0.0000000000000000e+00 -9.1999995844530442e+00 +5.2058760118016867e-04 +0.0000000000000000e+00 +9.9999986449426537e-01
-9.2999999999999829e+00 +8.1625529705397852e+00 +0.0000000000000000e+00 -9.2999995707546450e+00 +5.2624628317339192e-04 +0.0000000000000000e+00 +9.9999986153241494e-01
-9.3999999999999826e+00 +8.1625000629771947e+00 +0.0000000000000000e+00 -9.3999995567584591e+00 +5.3190496934831010e-04 +0.0000000000000000e+00 +9.9999985853854156e-01
-9.4999999999999822e+00 +8.1624465895457750e+00 +0.0000000000000000e+00 -9.4999995424612855e+00 +5.3756365974387944e-04 +0.0000000000000000e+00 +9.9999985551264525e-01
-9.5999999999999819e+00 +8.1623925502451034e+00 +0.0000000000000000e+00 -9.5999995278599215e+00 +5.4322235439181797e-04 +0.0000000000000000e+00 +9.9999985245472578e-01
-9.6999999999999815e+00 +8.1623379450747535e+00 +0.0000000000000000e+00 -9.6999995129511642e+00 +5.4888105331660469e-04 +0.0000000000000000e+00 +9.9999984936478314e-01
-9.7999999999999812e+00 +8.1622827740342974e+00 +0.0000000000000000e+00 -9.7999994977318110e+00 +5.5453975653547971e-04 +0.0000000000000000e+00 +9.9999984624281724e-01
-9.8999999999999808e+00 +8.1622270371233032e+00 +0.0000000000000000e+00 -9.8999994821986608e+00 +5.6019846405844340e-04 +0.0000000000000000e+00 +9.9999984308882794e-01
-9.9999999999999805e+00 +8.1621707343413412e+00 +0.0000000000000000e+00 -9.9999994663485090e+00 +5.6585717588825645e-04 +0.0000000000000000e+00 +9.9999983990281527e-01
-1.0099999999999980e+01 +8.1621138656879815e+00 +0.0000000000000000e+00 -1.0099999450178156e+01 +5.7151589202101769e-04 +0.0000000000000000e+00 +9.9999983668477910e-01
-1.0199999999999980e+01 +8.1620564311627941e+00 +0.0000000000000000e+00 -1.0199999433684399e+01 +5.7717461245252778e-04 +0.0000000000000000e+00 +9.9999983343471932e-01
-1.0299999999999979e+01 +8.1619984307653475e+00 +0.0000000000000000e+00 -1.0299999416864033e+01 +5.8283333718465254e-04 +0.0000000000000000e+00 +9.9999983015263594e-01
-1.0399999999999979e+01 +8.1619398644952135e+00 +0.0000000000000000e+00 -1.0399999399713858e+01 +5.8849206622590196e-04 +0.0000000000000000e+00 +9.9999982683852884e-01
-1.0499999999999979e+01 +8.1618807323519587e+00 +0.0000000000000000e+00 -1.0499999382230671e+01 +5.9415079959142985e-04 +0.0000000000000000e+00 +9.9999982349239791e-01
-1.0599999999999978e+01 +8.1618210343351496e+00 +0.0000000000000000e+00 -1.0599999364411270e+01 +5.9980953730303386e-04 +0.0000000000000000e+00 +9.9999982011424315e-01
-1.0699999999999978e+01 +8.1617607704443511e+00 +0.0000000000000000e+00 -1.0699999346252453e+01 +6.0546827938915576e-04 +0.0000000000000000e+00 +9.9999981670406435e-01
-1.0799999999999978e+01 +8.1616999406791244e+00 +0.0000000000000000e+00 -1.0799999327751015e+01 +6.1112702588488098e-04 +0.0000000000000000e+00 +9.9999981326186149e-01
-1.0899999999999977e+01 +8.1616385450390254e+00 +0.0000000000000000e+00 -1.0899999308903757e+01 +6.1678577683193917e-04 +0.0000000000000000e+00 +9.9999980978763447e-01
-1.0999999999999977e+01 +8.1615765835236083e+00 +0.0000000000000000e+00 -1.0999999289707475e+01 +6.2244453227870374e-04 +0.0000000000000000e+00 +9.9999980628138319e-01
-1.1099999999999977e+01 +8.1615140561324182e+00 +0.0000000000000000e+00 -1.1099999270158966e+01 +6.2810329228019199e-04 +0.0000000000000000e+00 +9.9999980274310751e-01
-1.1199999999999976e+01 +8.1614509628649987e+00 +0.0000000000000000e+00 -1.1199999250255029e+01 +6.3376205689806531e-04 +0.0000000000000000e+00 +9.9999979917280735e-01
-1.1299999999999976e+01 +8.1613873037208826e+00 +0.0000000000000000e+00 -1.1299999229992460e+01 +6.3942082620062910e-04 +0.0000000000000000e+00 +9.9999979557048246e-01
-1.1399999999999975e+01 +8.1613230786995992e+00 +0.0000000000000000e+00 -1.1399999209368058e+01 +6.4507960026283250e-04 +0.0000000000000000e+00 +9.9999979193613286e-01
-1.1499999999999975e+01 +8.1612582878006688e+00 +0.0000000000000000e+00 -1.1499999188378620e+01 +6.5073837916626879e-04 +0.0000000000000000e+00 +9.9999978826975833e-01
-1.1599999999999975e+01 +8.1611929310236011e+00 +0.0000000000000000e+00 -1.1599999167020943e+01 +6.5639716299917522e-04 +0.0000000000000000e+00 +9.9999978457135885e-01
-1.1699999999999974e+01 +8.1611270083679006e+00 +0.0000000000000000e+00 -1.1699999145291825e+01 +6.6205595185643291e-04 +0.0000000000000000e+00 +9.9999978084093410e-01
