# field on trajectory
# s[mm] rx[mm] ry[mm] rz[mm] bx[T] by[T] bz[T]
0.0000000000000000e+00 +8.1530000000000005e+00 +0.0000000000000000e+00 +0.0000000000000000e+00 -3.0628777611419675e-02 -5.6443356217751806e-01 +5.5922444553914213e-03
1.0000000000000001e-01 +8.1529997163961507e+00 +0.0000000000000000e+00 +9.9999999999463796e-02 -3.0628892047218637e-02 -5.6443368884479639e-01 +5.5922223966222628e-03
2.0000000000000001e-01 +8.1529988655856904e+00 +0.0000000000000000e+00 +1.9999999999571000e-01 -3.0629001793021287e-02 -5.6443381246110924e-01 +5.5922029680904655e-03
2.9999999999999999e-01 +8.1529974475670297e+00 +0.0000000000000000e+00 +2.9999999998552201e-01 -3.0629106999105950e-02 -5.6443393323972746e-01 +5.5921860249348067e-03
4.0000000000000002e-01 +8.1529954623438208e+00 +0.0000000000000000e+00 +3.9999999996568297e-01 -3.0629207815741511e-02 -5.6443405139385605e-01 +5.5921714222922168e-03
5.0000000000000000e-01 +8.1529929099124292e+00 +0.0000000000000000e+00 +4.9999999993297400e-01 -3.0629304393194178e-02 -5.6443416713673256e-01 +5.5921590152991987e-03
5.9999999999999998e-01 +8.1529897902728408e+00 +0.0000000000000000e+00 +5.9999999988417896e-01 -3.0629396881724839e-02 -5.6443428068154611e-01 +5.5921486590913803e-03
6.9999999999999996e-01 +8.1529861034287006e+00 +0.0000000000000000e+00 +6.9999999981608096e-01 -3.0629485431590591e-02 -5.6443439224143921e-01 +5.5921402088039236e-03
8.0000000000000004e-01 +8.1529818493763706e+00 +0.0000000000000000e+00 +7.9999999972546199e-01 -3.0629570193050987e-02 -5.6443450202959522e-01 +5.5921335195728223e-03
9.0000000000000002e-01 +8.1529770281158598e+00 +0.0000000000000000e+00 +8.9999999960910604e-01 -3.0629651316365272e-02 -5.6443461025915587e-01 +5.5921284465344501e-03
1.0000000000000000e+00 +8.1529716396507901e+00 +0.0000000000000000e+00 +9.9999999946379403e-01 -3.0629728951794020e-02 -5.6443471714322524e-01 +5.5921248448259847e-03
1.1000000000000001e+00 +8.1529656839775306e+00 +0.0000000000000000e+00 +1.0999999992863101e+00 -3.0629803249605320e-02 -5.6443482289495528e-01 +5.5921225695866848e-03
1.2000000000000000e+00 +8.1529591610960797e+00 +0.0000000000000000e+00 +1.1999999990734400e+00 -3.0629874360072015e-02 -5.6443492772746440e-01 +5.5921214759574516e-03
1.3000000000000000e+00 +8.1529520710100805e+00 +0.0000000000000000e+00 +1.2999999988219599e+00 -3.0629942433473355e-02 -5.6443503185384014e-01 +5.5921214190812482e-03
1.3999999999999999e+00 +8.1529444137122500e+00 +0.0000000000000000e+00 +1.3999999985286500e+00 -3.0630007620102671e-02 -5.6443513548725521e-01 +5.5921222541046728e-03
1.5000000000000000e+00 +8.1529361892135093e+00 +0.0000000000000000e+00 +1.4999999981903001e+00 -3.0630070070257181e-02 -5.6443523884074343e-01 +5.5921238361760668e-03
1.6000000000000001e+00 +8.1529273975065699e+00 +0.0000000000000000e+00 +1.5999999978037001e+00 -3.0630129934254513e-02 -5.6443534212748436e-01 +5.5921260204488243e-03
1.7000000000000000e+00 +8.1529180385914497e+00 +0.0000000000000000e+00 +1.6999999973656199e+00 -3.0630187362423969e-02 -5.6443544556060876e-01 +5.5921286620797877e-03
1.8000000000000000e+00 +8.1529081124681397e+00 +0.0000000000000000e+00 +1.7999999968728499e+00 -3.0630242505111253e-02 -5.6443554935325801e-01 +5.5921316162302476e-03
1.8999999999999999e+00 +8.1528976191402798e+00 +0.0000000000000000e+00 +1.8999999963221601e+00 -3.0630295512678665e-02 -5.6443565371855842e-01 +5.5921347380660799e-03
2.0000000000000000e+00 +8.1528865586042194e+00 +0.0000000000000000e+00 +1.9999999957103500e+00 -3.0630346535511194e-02 -5.6443575886970776e-01 +5.5921378827590192e-03
2.1000000000000001e+00 +8.1528749308599799e+00 +0.0000000000000000e+00 +2.0999999950341901e+00 -3.0630395734363672e-02 -5.6443586494894948e-01 +5.5921409660330016e-03
2.2000000000000002e+00 +8.1528627359111905e+00 +0.0000000000000000e+00 +2.1999999942904802e+00 -3.0630443311403886e-02 -5.6443597181473937e-01 +5.5921441458030661e-03
2.2999999999999998e+00 +8.1528499737542006e+00 +0.0000000000000000e+00 +2.2999999934759798e+00 -3.0630489479153672e-02 -5.6443607925465289e-01 +5.5921476405326334e-03
2.3999999999999999e+00 +8.1528366443890299e+00 +0.0000000000000000e+00 +2.3999999925874800e+00 -3.0630534450131523e-02 -5.6443618705624499e-01 +5.5921516686851819e-03
2.5000000000000000e+00 +8.1528227478193003e+00 +0.0000000000000000e+00 +2.4999999916217801e+00 -3.0630578436851488e-02 -5.6443629500704895e-01 +5.5921564487239886e-03
2.6000000000000001e+00 +8.1528082840413791e+00 +0.0000000000000000e+00 +2.5999999905756401e+00 -3.0630621651826437e-02 -5.6443640289466357e-01 +5.5921621991127492e-03
2.7000000000000002e+00 +8.1527932530552807e+00 +0.0000000000000000e+00 +2.6999999894458502e+00 -3.0630664307562457e-02 -5.6443651050666777e-01 +5.5921691383144807e-03
2.7999999999999998e+00 +8.1527776548646198e+00 +0.0000000000000000e+00 +2.7999999882291999e+00 -3.0630706616557795e-02 -5.6443661763062269e-01 +5.5921774847912664e-03
2.8999999999999999e+00 +8.1527614894657692e+00 +0.0000000000000000e+00 +2.8999999869224702e+00 -3.0630748791306027e-02 -5.6443672405415568e-01 +5.5921874570048873e-03
3.0000000000000000e+00 +8.1527447568587394e+00 +0.0000000000000000e+00 +2.9999999855224302e+00 -3.0630791044290579e-02 -5.6443682956487695e-01 +5.5921992734157058e-03
3.1000000000000001e+00 +8.1527274570471508e+00 +0.0000000000000000e+00 +3.0999999840258798e+00 -3.0630833587983526e-02 -5.6443693395038086e-01 +5.5922131524824246e-03
3.2000000000000002e+00 +8.1527095900273707e+00 +0.0000000000000000e+00 +3.1999999824295902e+00 -3.0630876634848925e-02 -5.6443703699833048e-01 +5.5922293126627149e-03
3.2999999999999998e+00 +8.1526911557994008e+00 +0.0000000000000000e+00 +3.2999999807303602e+00 -3.0630920397337159e-02 -5.6443713849637300e-01 +5.5922479724120891e-03
3.3999999999999999e+00 +8.1526721543668792e+00 +0.0000000000000000e+00 +3.3999999789249502e+00 -3.0630965087883884e-02 -5.6443723823214265e-01 +5.5922693501836828e-03
3.5000000000000000e+00 +8.1526525857261696e+00 +0.0000000000000000e+00 +3.4999999770101602e+00 -3.0631010918913234e-02 -5.6443733599334345e-01 +5.5922936644288565e-03
3.6000000000000001e+00 +8.1526324498772702e+00 +0.0000000000000000e+00 +3.5999999749827598e+00 -3.0631058102832360e-02 -5.6443743156766746e-01 +5.5923211335960950e-03
3.7000000000000002e+00 +8.1526117468238208e+00 +0.0000000000000000e+00 +3.6999999728395401e+00 -3.0631106852030108e-02 -5.6443752474279396e-01 +5.5923519761307593e-03
3.7999999999999998e+00 +8.1525904765621799e+00 +0.0000000000000000e+00 +3.7999999705772902e+00 -3.0631157378880461e-02 -5.6443761530647563e-01 +5.5923864104757207e-03
3.8999999999999999e+00 +8.1525686390959908e+00 +0.0000000000000000e+00 +3.8999999681927799e+00 -3.0631209895735412e-02 -5.6443770304642560e-01 +5.5924246550699388e-03
4.0000000000000000e+00 +8.1525462344179704e+00 +0.0000000000000000e+00 +3.9999999656827998e+00 -3.0631264614931240e-02 -5.6443778775046016e-01 +5.5924669283496887e-03
4.0999999999999996e+00 +8.1525232625354001e+00 +0.0000000000000000e+00 +4.0999999630441302e+00 -3.0631321629716560e-02 -5.6443786921403016e-01 +5.5925134033424665e-03
4.2000000000000002e+00 +8.1524997234482708e+00 +0.0000000000000000e+00 +4.1999999602735496e+00 -3.0631380557084757e-02 -5.6443794726357632e-01 +5.5925640714575538e-03
4.2999999999999998e+00 +8.1524756171529607e+00 +0.0000000000000000e+00 +4.2999999573678496e+00 -3.0631440894964421e-02 -5.6443802173331059e-01 +5.5926188786982372e-03
4.4000000000000004e+00 +8.1524509436494608e+00 +0.0000000000000000e+00 +4.3999999543238104e+00 -3.0631502141278629e-02 -5.6443809245743104e-01 +5.5926777710651717e-03
4.5000000000000000e+00 +8.1524257029377605e+00 +0.0000000000000000e+00 +4.4999999511382098e+00 -3.0631563793946381e-02 -5.6443815927014940e-01 +5.5927406945565535e-03
4.5999999999999996e+00 +8.1523998950215208e+00 +0.0000000000000000e+00 +4.5999999478078299e+00 -3.0631625350881118e-02 -5.6443822200566440e-01 +5.5928075951677016e-03
4.7000000000000002e+00 +8.1523735198970808e+00 +0.0000000000000000e+00 +4.6999999443294600e+00 -3.0631686309995246e-02 -5.6443828049824663e-01 +5.5928784188918152e-03
4.7999999999999998e+00 +8.1523465775644599e+00 +0.0000000000000000e+00 +4.7999999406998803e+00 -3.0631746169195593e-02 -5.6443833458215276e-01 +5.5929531117189695e-03
4.9000000000000004e+00 +8.1523190680272801e+00 +0.0000000000000000e+00 +4.8999999369158704e+00 -3.0631804426383493e-02 -5.6443838409162772e-01 +5.5930316196360075e-03
5.0000000000000000e+00 +8.1522909912819195e+00 +0.0000000000000000e+00 +4.9999999329742204e+00 -3.0631860579459238e-02 -5.6443842886098927e-01 +5.5931138886272779e-03
5.0999999999999996e+00 +8.1522623473319999e+00 +0.0000000000000000e+00 +5.0999999288717000e+00 -3.0631914126316072e-02 -5.6443846872451342e-01 +5.5931998646733608e-03
5.2000000000000002e+00 +8.1522331361738907e+00 +0.0000000000000000e+00 +5.1999999246051098e+00 -3.0631964564846202e-02 -5.6443850351655034e-01 +5.5932894937520978e-03
5.2999999999999998e+00 +8.1522033578075899e+00 +0.0000000000000000e+00 +5.2999999201712198e+00 -3.0632011392936389e-02 -5.6443853307143965e-01 +5.5933827218376106e-03
5.4000000000000004e+00 +8.1521730122331100e+00 +0.0000000000000000e+00 +5.3999999155668199e+00 -3.0632054108469309e-02 -5.6443855722353609e-01 +5.5934794949004584e-03
5.5000000000000000e+00 +8.1521420994540694e+00 +0.0000000000000000e+00 +5.4999999107886799e+00 -3.0632092209322212e-02 -5.6443857580718615e-01 +5.5935797589072422e-03
5.5999999999999996e+00 +8.1521106194668391e+00 +0.0000000000000000e+00 +5.5999999058335996e+00 -3.0632125193371291e-02 -5.6443858865680863e-01 +5.5936834598213289e-03
5.7000000000000002e+00 +8.1520785722750606e+00 +0.0000000000000000e+00 +5.6999999006983604e+00 -3.0632152558485771e-02 -5.6443859560678578e-01 +5.5937905436015947e-03
5.7999999999999998e+00 +8.1520459578750906e+00 +0.0000000000000000e+00 +5.7999998953797300e+00 -3.0632173802533934e-02 -5.6443859649157357e-01 +5.5939009562034443e-03
5.9000000000000004e+00 +8.1520127762669308e+00 +0.0000000000000000e+00 +5.8999998898744996e+00 -3.0632188423378542e-02 -5.6443859114561934e-01 +5.5940146435778295e-03
5.9999999999999902e+00 +8.1519790274505795e+00 +0.0000000000000000e+00 +5.9999998841794504e+00 -3.0632195918878412e-02 -5.6443857940338937e-01 +5.5941315516714139e-03
6.0999999999999899e+00 +8.1519447114296799e+00 +0.0000000000000000e+00 +6.0999998782913698e+00 -3.0632196088788078e-02 -5.6443856121552127e-01 +5.5942515982400952e-03
6.1999999999999904e+00 +8.1519098282005906e+00 +0.0000000000000000e+00 +6.1999998722070400e+00 -3.0632189940473870e-02 -5.6443853699743785e-01 +5.5943745882952155e-03
6.2999999999999901e+00 +8.1518743777669407e+00 +0.0000000000000000e+00 +6.2999998659232403e+00 -3.0632178783209590e-02 -5.6443850728065992e-01 +5.5945002986679745e-03
6.3999999999999897e+00 +8.1518383601214701e+00 +0.0000000000000000e+00 +6.3999998594367504e+00 -3.0632163926282145e-02 -5.6443847259675983e-01 +5.5946285061985101e-03
6.4999999999999902e+00 +8.1518017752750893e+00 +0.0000000000000000e+00 +6.4999998527443603e+00 -3.0632146678980204e-02 -5.6443843347713596e-01 +5.5947589877339624e-03
6.5999999999999899e+00 +8.1517646232205205e+00 +0.0000000000000000e+00 +6.5999998458428504e+00 -3.0632128350609460e-02 -5.6443839045329181e-01 +5.5948915201317157e-03
6.6999999999999904e+00 +8.1517269039541098e+00 +0.0000000000000000e+00 +6.6999998387290001e+00 -3.0632110250484262e-02 -5.6443834405666493e-01 +5.5950258802580670e-03
6.7999999999999901e+00 +8.1516886174867995e+00 +0.0000000000000000e+00 +6.7999998313996004e+00 -3.0632093687923610e-02 -5.6443829481854135e-01 +5.5951618449877009e-03
6.8999999999999897e+00 +8.1516497638112906e+00 +0.0000000000000000e+00 +6.8999998238514202e+00 -3.0632079972265035e-02 -5.6443824327030756e-01 +5.5952991912066900e-03
6.9999999999999902e+00 +8.1516103429239593e+00 +0.0000000000000000e+00 +6.9999998160812602e+00 -3.0632070412856115e-02 -5.6443818994327832e-01 +5.5954376958111127e-03
7.0999999999999899e+00 +8.1515703548320708e+00 +0.0000000000000000e+00 +7.0999998080858804e+00 -3.0632066319052076e-02 -5.6443813536864085e-01 +5.5955771357068590e-03
7.1999999999999904e+00 +8.1515297995356395e+00 +0.0000000000000000e+00 +7.1999997998620904e+00 -3.0632069000223618e-02 -5.6443808007759244e-01 +5.5957172878114483e-03
7.2999999999999901e+00 +8.1514886770310095e+00 +0.0000000000000000e+00 +7.2999997914066501e+00 -3.0632079765755941e-02 -5.6443802460131032e-01 +5.5958579290541063e-03
7.3999999999999897e+00 +8.1514469873182005e+00 +0.0000000000000000e+00 +7.3999997827163604e+00 -3.0632099925046286e-02 -5.6443796947089486e-01 +5.5959988363755596e-03
7.4999999999999902e+00 +8.1514047304008308e+00 +0.0000000000000000e+00 +7.4999997737879900e+00 -3.0632130787504389e-02 -5.6443791521736797e-01 +5.5961397867284254e-03
7.5999999999999899e+00 +8.1513619062752696e+00 +0.0000000000000000e+00 +7.5999997646183202e+00 -3.0632173662557351e-02 -5.6443786237175297e-01 +5.5962805570784228e-03
7.6999999999999904e+00 +8.1513185149451601e+00 +0.0000000000000000e+00 +7.6999997552041499e+00 -3.0632229859644346e-02 -5.6443781146496430e-01 +5.5964209244036131e-03
7.7999999999999901e+00 +8.1512745564032194e+00 +0.0000000000000000e+00 +7.7999997455422498e+00 -3.0632300688224333e-02 -5.6443776302794468e-01 +5.5965606656962052e-03
7.8999999999999897e+00 +8.1512300306567305e+00 +0.0000000000000000e+00 +7.8999997356294100e+00 -3.0632387457766252e-02 -5.6443771759146555e-01 +5.5966995579609120e-03
7.9999999999999902e+00 +8.1511849377056897e+00 +0.0000000000000000e+00 +7.9999997254624002e+00 -3.0632491477758435e-02 -5.6443767568629533e-01 +5.5968373782170552e-03
8.0999999999999908e+00 +8.1511392775464593e+00 +0.0000000000000000e+00 +8.0999997150380096e+00 -3.0632613612596525e-02 -5.6443763793481927e-01 +5.5969739528729271e-03
8.1999999999999904e+00 +8.1510930501790408e+00 +0.0000000000000000e+00 +8.1999997043530293e+00 -3.0632752946229774e-02 -5.6443760532594478e-01 +5.5971093058439511e-03
8.2999999999999901e+00 +8.1510462556034309e+00 +0.0000000000000000e+00 +8.2999996934042404e+00 -3.0632908117496423e-02 -5.6443757894018953e-01 +5.5972435104187342e-03
8.3999999999999897e+00 +8.1509988938232691e+00 +0.0000000000000000e+00 +8.3999996821884100e+00 -3.0633077765239717e-02 -5.6443755985800481e-01 +5.5973766398819966e-03
8.4999999999999893e+00 +8.1509509648349194e+00 +0.0000000000000000e+00 +8.4999996707023406e+00 -3.0633260528312452e-02 -5.6443754915985844e-01 +5.5975087675152373e-03
8.5999999999999908e+00 +8.1509024686420197e+00 +0.0000000000000000e+00 +8.5999996589427994e+00 -3.0633455045571294e-02 -5.6443754792612200e-01 +5.5976399665954085e-03
8.6999999999999904e+00 +8.1508534052409196e+00 +0.0000000000000000e+00 +8.6999996469065692e+00 -3.0633659955882755e-02 -5.6443755723718192e-01 +5.5977703103958620e-03
8.7999999999999794e+00 +8.1508037746316404e+00 +0.0000000000000000e+00 +8.7999996345904599e+00 -3.0633873898118974e-02 -5.6443757817335327e-01 +5.5978998721853031e-03
8.8999999999999808e+00 +8.1507535768178094e+00 +0.0000000000000000e+00 +8.8999996219912205e+00 -3.0634095511157814e-02 -5.6443761181488095e-01 +5.5980287252275981e-03
8.9999999999999805e+00 +8.1507028117957798e+00 +0.0000000000000000e+00 +8.9999996091056396e+00 -3.0634323433887507e-02 -5.6443765924202183e-01 +5.5981569427824545e-03
9.0999999999999801e+00 +8.1506514795655693e+00 +0.0000000000000000e+00 +9.0999995959305195e+00 -3.0634556305202319e-02 -5.6443772153495897e-01 +5.5982845981043597e-03
9.1999999999999797e+00 +8.1505995801308000e+00 +0.0000000000000000e+00 +9.1999995824626293e+00 -3.0634792764002744e-02 -5.6443779977380237e-01 +5.5984117644424045e-03
9.2999999999999794e+00 +8.1505471134878498e+00 +0.0000000000000000e+00 +9.2999995686987500e+00 -3.0635031449200045e-02 -5.6443789503867070e-01 +5.5985385150409362e-03
9.3999999999999808e+00 +8.1504940796366991e+00 +0.0000000000000000e+00 +9.3999995546356701e+00 -3.0635270999712062e-02 -5.6443800840960767e-01 +5.5986649231385298e-03
9.4999999999999805e+00 +8.1504404785773694e+00 +0.0000000000000000e+00 +9.4999995402701707e+00 -3.0635510054464712e-02 -5.6443814096660783e-01 +5.5987910619680588e-03
9.5999999999999801e+00 +8.1503863103171206e+00 +0.0000000000000000e+00 +9.5999995255990296e+00 -3.0635747252389357e-02 -5.6443829378956023e-01 +5.5989170047559631e-03
9.6999999999999797e+00 +8.1503315748450404e+00 +0.0000000000000000e+00 +9.6999995106190298e+00 -3.0635981232433152e-02 -5.6443846795844399e-01 +5.5990428247240445e-03
9.7999999999999794e+00 +8.1502762721684103e+00 +0.0000000000000000e+00 +9.7999994953269702e+00 -3.0636210633544516e-02 -5.6443866455304637e-01 +5.5991685950864201e-03
9.8999999999999808e+00 +8.1502204022835905e+00 +0.0000000000000000e+00 +9.8999994797196091e+00 -3.0636434094685118e-02 -5.6443888465318726e-01 +5.5992943890516246e-03
9.9999999999999805e+00 +8.1501639651905897e+00 +0.0000000000000000e+00 +9.9999994637937508e+00 -3.0636650254824073e-02 -5.6443912933860441e-01 +5.5994202798212668e-03
1.0100000000000000e+01 +8.1501069608966592e+00 +0.0000000000000000e+00 +1.0099999447546200e+01 -3.0636858045448714e-02 -5.6443939930368603e-01 +5.5995463314757795e-03
1.0199999999999999e+01 +8.1500493893909205e+00 +0.0000000000000000e+00 +1.0199999430973600e+01 -3.0637057568130351e-02 -5.6443969370196667e-01 +5.5996725716321843e-03
1.0300000000000001e+01 +8.1499912506769796e+00 +0.0000000000000000e+00 +1.0299999414073000e+01 -3.0637249216966221e-02 -5.6444001130169374e-01 +5.5997990187791969e-03
1.0400000000000000e+01 +8.1499325447584905e+00 +0.0000000000000000e+00 +1.0399999396840901e+01 -3.0637433386064172e-02 -5.6444035087120614e-01 +5.5999256913915902e-03
1.0500000000000000e+01 +8.1498732716317992e+00 +0.0000000000000000e+00 +1.0499999379274200e+01 -3.0637610469545769e-02 -5.6444071117899453e-01 +5.6000526079304346e-03
1.0600000000000000e+01 +8.1498134313005703e+00 +0.0000000000000000e+00 +1.0599999361369800e+01 -3.0637780861540537e-02 -5.6444109099358952e-01 +5.6001797868415913e-03
1.0699999999999999e+01 +8.1497530237611500e+00 +0.0000000000000000e+00 +1.0699999343124301e+01 -3.0637944956192105e-02 -5.6444148908367886e-01 +5.6003072465565266e-03
1.0800000000000001e+01 +8.1496920490171796e+00 +0.0000000000000000e+00 +1.0799999324534600e+01 -3.0638103147652352e-02 -5.6444190421799600e-01 +5.6004350054908109e-03
1.0900000000000000e+01 +8.1496305070650106e+00 +0.0000000000000000e+00 +1.0899999305597399e+01 -3.0638255830087568e-02 -5.6444233516543718e-01 +5.6005630820449388e-03
1.1000000000000000e+01 +8.1495683979046607e+00 +0.0000000000000000e+00 +1.0999999286309500e+01 -3.0638403397674110e-02 -5.6444278069497678e-01 +5.6006914946030960e-03
1.1100000000000000e+01 +8.1495057215361193e+00 +0.0000000000000000e+00 +1.1099999266667700e+01 -3.0638546244600069e-02 -5.6444323957570108e-01 +5.6008202615331314e-03
1.1199999999999999e+01 +8.1494424779630208e+00 +0.0000000000000000e+00 +1.1199999246668799e+01 -3.0638684765063984e-02 -5.6444371057678122e-01 +5.6009494011859014e-03
1.1300000000000001e+01 +8.1493786671817396e+00 +0.0000000000000000e+00 +1.1299999226309600e+01 -3.0638819353279334e-02 -5.6444419246755995e-01 +5.6010789318958120e-03
1.1400000000000000e+01 +8.1493142891922599e+00 +0.0000000000000000e+00 +1.1399999205586900e+01 -3.0638950403470384e-02 -5.6444468401747117e-01 +5.6012088719795908e-03
1.1500000000000000e+01 +8.1492493440018698e+00 +0.0000000000000000e+00 +1.1499999184497300e+01 -3.0639078309870768e-02 -5.6444518399601329e-01 +5.6013392397356639e-03
1.1600000000000000e+01 +8.1491838315996592e+00 +0.0000000000000000e+00 +1.1599999163037801e+01 -3.0639203466734027e-02 -5.6444569117294952e-01 +5.6014700534458353e-03
1.1699999999999999e+01 +8.1491177519928897e+00 +0.0000000000000000e+00 +1.1699999141205099e+01 -3.0639326268319004e-02 -5.6444620431802928e-01 +5.6016013313720473e-03
1.1800000000000001e+01 +8.1490511051779304e+00 +0.0000000000000000e+00 +1.1799999118996000e+01 -3.0639447108901756e-02 -5.6444672220121483e-01 +5.6017330917583520e-03
