# multipoles
# s[mm] polynom_b[n=0][T/m^n] polynom_b[n=1][T/m^n] polynom_b[n=2][T/m^n] polynom_b[n=3][T/m^n] polynom_b[n=4][T/m^n] polynom_b[n=5][T/m^n] polynom_b[n=6][T/m^n] 
+0.0000000000000000e+00 -5.6444066437140294e-01 +7.7313435326927049e+00 -7.7515177729391327e-01 -2.4873700282657900e+01 +9.0110487176883544e+03 -3.1436151399344508e+04 -4.9034508978076585e+07 
+1.0000000000000001e-01 -5.6444076728156278e-01 +7.7313559091020698e+00 -7.6495876757327397e-01 -2.4755124672168513e+01 +8.8544036124827780e+03 -3.2268179601520969e+04 -4.8406328124055676e+07 
+2.0000000000000001e-01 -5.6444086774050461e-01 +7.7313626601199275e+00 -7.5574821026460137e-01 -2.4500870871371749e+01 +8.7100905335853367e+03 -3.3888275502512792e+04 -4.7818136038293764e+07 
+2.9999999999999999e-01 -5.6444096589507087e-01 +7.7313640242883093e+00 -7.4747310990865845e-01 -2.4120025185949682e+01 +8.5776214819758243e+03 -3.6239171645604991e+04 -4.7268564587814689e+07 
+4.0000000000000002e-01 -5.6444106189213494e-01 +7.7313602401504546e+00 -7.4008646880241524e-01 -2.3621673936075528e+01 +8.4565084152175586e+03 -3.9263600627030137e+04 -4.6756245426149815e+07 
+5.0000000000000000e-01 -5.6444115587844834e-01 +7.7313515462566871e+00 -7.3354129317425332e-01 -2.3014903637734879e+01 +8.3462633621498371e+03 -4.2904294010319303e+04 -4.6279810531965323e+07 
+5.9999999999999998e-01 -5.6444124800077800e-01 +7.7313381811617212e+00 -7.2779059398196633e-01 -2.2308800915276649e+01 +8.2463984405356769e+03 -4.7103982845927145e+04 -4.5837892302478559e+07 
+6.9999999999999996e-01 -5.6444133840598743e-01 +7.7313203834275983e+00 -7.2278737963505724e-01 -2.1512452600011859e+01 +8.1564257154524084e+03 -5.1805397064868026e+04 -4.5429122872296304e+07 
+8.0000000000000004e-01 -5.6444142724072455e-01 +7.7312983916162787e+00 -7.1848466416859469e-01 -2.0634945524955047e+01 +8.0758573598588628e+03 -5.6951266624895485e+04 -4.5052134892889187e+07 
+9.0000000000000002e-01 -5.6444151465176995e-01 +7.7312724442948024e+00 -7.1483545789513814e-01 -1.9685366664856332e+01 +8.0042054716333141e+03 -6.2484320731064487e+04 -4.4705560650535576e+07 
+1.0000000000000000e+00 -5.6444160078586525e-01 +7.7312427800328924e+00 -7.1179277528458695e-01 -1.8672803085473344e+01 +7.9409822275962779e+03 -6.8347288064687949e+04 -4.4388032811879195e+07 
+1.1000000000000001e+00 -5.6444168578968490e-01 +7.7312096374028476e+00 -7.0930962796664065e-01 -1.7606341939044405e+01 +7.8856997469963753e+03 -7.4482896804984441e+04 -4.4098183764216915e+07 
+1.2000000000000000e+00 -5.6444176980997829e-01 +7.7311732549775432e+00 -7.0733903097683293e-01 -1.6495070408519581e+01 +7.8378702128077703e+03 -8.0833874947954129e+04 -4.3834646206086636e+07 
+1.3000000000000000e+00 -5.6444185299341920e-01 +7.7311338713337356e+00 -7.0583399414292547e-01 -1.5348075808222081e+01 +7.7970057087268005e+03 -8.7342949699679390e+04 -4.3596052371397421e+07 
+1.3999999999999999e+00 -5.6444193548673682e-01 +7.7310917250470288e+00 -7.0474752970203047e-01 -1.4174445450320238e+01 +7.7626183618861714e+03 -9.3952848205164526e+04 -4.3381034706497349e+07 
+1.5000000000000000e+00 -5.6444201743666944e-01 +7.7310470546927821e+00 -7.0403264754558292e-01 -1.2983266668914080e+01 +7.7342202531837429e+03 -1.0060629741380220e+05 -4.3188225447204605e+07 
+1.6000000000000001e+00 -5.6444209898990438e-01 +7.7310000988458611e+00 -7.0364235591397040e-01 -1.1783626816799217e+01 +7.7113234306206805e+03 -1.0724602408312329e+05 -4.3016256682635456e+07 
+1.7000000000000000e+00 -5.6444218029312920e-01 +7.7309510960826673e+00 -7.0352966178613818e-01 -1.0584613334321311e+01 +7.6934399181132658e+03 -1.1381475433812699e+05 -4.2863760405066364e+07 
+1.8000000000000000e+00 -5.6444226149315091e-01 +7.7309002849775190e+00 -7.0364756658407857e-01 -9.3953136369952333e+00 +7.6800816328766332e+03 -1.2025521434487059e+05 -4.2729368114159934e+07 
+1.8999999999999999e+00 -5.6444234273664040e-01 +7.7308479041034746e+00 -7.0394907318016386e-01 -8.2248151653578567e+00 +7.6707605169599128e+03 -1.2651012993692320e+05 -4.2611711441191629e+07 
+2.0000000000000000e+00 -5.6444242417043433e-01 +7.7307941920272745e+00 -7.0438717657767913e-01 -7.0822052173116106e+00 +7.6649883639044629e+03 -1.3252222764827186e+05 -4.2509421335958667e+07 
+2.1000000000000001e+00 -5.6444250590917477e-01 +7.7307393752302280e+00 -7.0492299204721887e-01 -5.9749298408043963e+00 +7.6623582983467550e+03 -1.3824566989263843e+05 -4.2421397511736721e+07 
+2.2000000000000002e+00 -5.6444258793886359e-01 +7.7306836345786243e+00 -7.0554933017669597e-01 -4.9041251384430362e+00 +7.6627702507220856e+03 -1.4367846247504340e+05 -4.2347505241745725e+07 
+2.2999999999999998e+00 -5.6444267021327932e-01 +7.7306271401598465e+00 -7.0626673514393956e-01 -3.8694097700571684e+00 +7.6661965340793613e+03 -1.4882912481678606e+05 -4.2287826070179231e+07 
+2.3999999999999999e+00 -5.6444275268625843e-01 +7.7305700620660067e+00 -7.0707575479662355e-01 -2.8704025489858771e+00 +7.6726095330739181e+03 -1.5370617536775529e+05 -4.2242441888709202e+07 
+2.5000000000000000e+00 -5.6444283531160588e-01 +7.7305125703865389e+00 -7.0797693100247860e-01 -1.9067221994601822e+00 +7.6819815210966626e+03 -1.5831813309323197e+05 -4.2211434064175770e+07 
+2.6000000000000001e+00 -5.6444291804313462e-01 +7.7304548352064302e+00 -7.0897080849208172e-01 -9.7798732991750803e-01 +7.6942848263894957e+03 -1.6267351754580246e+05 -4.2194884223755464e+07 
+2.7000000000000002e+00 -5.6444300083467314e-01 +7.7303970266148196e+00 -7.1005793084386426e-01 -8.3816663316063980e-02 +7.7094917573120683e+03 -1.6678084758353015e+05 -4.2192873902516201e+07 
+2.7999999999999998e+00 -5.6444308364008322e-01 +7.7303393147016974e+00 -7.1123883877849292e-01 +7.7617105827762278e-01 +7.7275745746285611e+03 -1.7064864191725402e+05 -4.2205484422728956e+07 
+2.8999999999999999e+00 -5.6444316641321302e-01 +7.7302818695499278e+00 -7.1251407518321141e-01 +1.6023572943828577e+00 +7.7485055774875809e+03 -1.7428542035256891e+05 -4.2232797276019521e+07 
+3.0000000000000000e+00 -5.6444324910791421e-01 +7.7302248612472040e+00 -7.1388418376478646e-01 +2.3951233868011497e+00 +7.7722570866665665e+03 -1.7769970200709798e+05 -4.2274894067867741e+07 
+3.1000000000000001e+00 -5.6444333167808736e-01 +7.7301684598774738e+00 -7.1534970356781702e-01 +3.1548507781755610e+00 +7.7988013369832788e+03 -1.8090000649873039e+05 -4.2331855993095957e+07 
+3.2000000000000002e+00 -5.6444341407762499e-01 +7.7301128355277333e+00 -7.1691117600639465e-01 +3.8819208473003037e+00 +7.8281106130047056e+03 -1.8389485306790620e+05 -4.2403764487763457e+07 
+3.2999999999999998e+00 -5.6444349626042922e-01 +7.7300581582762895e+00 -7.1856914279651452e-01 +4.5767152245057972e+00 +7.8601572078853615e+03 -1.8669276232914536e+05 -4.2490701026498303e+07 
+3.3999999999999999e+00 -5.6444357818043056e-01 +7.7300045982058174e+00 -7.2032414383295928e-01 +5.2396154440628910e+00 +7.8949133844344769e+03 -1.8930225434892005e+05 -4.2592746939334042e+07 
+3.5000000000000000e+00 -5.6444365979156574e-01 +7.7299523253978579e+00 -7.2217672002330413e-01 +5.8710030773951551e+00 +7.9323514300059906e+03 -1.9173184932490604e+05 -4.2709983676037520e+07 
+3.6000000000000001e+00 -5.6444374104783634e-01 +7.7299015099286574e+00 -7.2412740979247214e-01 +6.4712598760030069e+00 +7.9724435899122700e+03 -1.9399006848361404e+05 -4.2842492486741178e+07 
+3.7000000000000002e+00 -5.6444382190315345e-01 +7.7298523218775657e+00 -7.2617675429821060e-01 +7.0407675198670328e+00 +8.0151621654702540e+03 -1.9608543258729242e+05 -4.2990354884025469e+07 
+3.7999999999999998e+00 -5.6444390231155517e-01 +7.7298049313186850e+00 -7.2832529169450688e-01 +7.5799078619377909e+00 +8.0604794063184891e+03 -1.9802646335316924e+05 -4.3153652133206069e+07 
+3.8999999999999999e+00 -5.6444398222706738e-01 +7.7297595083263770e+00 -7.3057356359680414e-01 +8.0890627772748616e+00 +8.1083676327607209e+03 -1.9982168260405408e+05 -4.3332465833977155e+07 
+4.0000000000000000e+00 -5.6444406160367988e-01 +7.7297162229724279e+00 -7.3292210890676757e-01 +8.5686141696512443e+00 +8.1587991140320355e+03 -2.0147961220831031e+05 -4.3526877328072622e+07 
+4.0999999999999996e+00 -5.6444414033725032e-01 +7.7296752164393192e+00 -7.3537226336886086e-01 +9.0185963565613214e+00 +8.2117122506473770e+03 -2.0300534667131852e+05 -4.3736671920036808e+07 
+4.2000000000000002e+00 -5.6444421811521728e-01 +7.7296365216138554e+00 -7.3792705016037385e-01 +9.4379104846015860e+00 +8.2669206013372259e+03 -2.0439239602880724e+05 -4.3960591594075859e+07 
+4.2999999999999998e+00 -5.6444429457860223e-01 +7.7296001460466410e+00 -7.4058959670120217e-01 +9.8252277469975962e+00 +8.3242088382651436e+03 -2.0563182607909536e+05 -4.4197147854845621e+07 
+4.4000000000000004e+00 -5.6444436936828957e-01 +7.7295660972913689e+00 -7.4336303300512641e-01 +1.0179219317909347e+01 +8.3833616819882955e+03 -2.0671470269070941e+05 -4.4444852440873370e+07 
+4.5000000000000000e+00 -5.6444444212530698e-01 +7.7295343829033971e+00 -7.4625048563653995e-01 +1.0498556414897143e+01 +8.4441637920162157e+03 -2.0763209222334847e+05 -4.4702216818178222e+07 
+4.5999999999999996e+00 -5.6444451249060146e-01 +7.7295050104443872e+00 -7.4925507733555874e-01 +1.0781910156312899e+01 +8.5063997569998428e+03 -2.0837506067983934e+05 -4.4967752126264863e+07 
+4.7000000000000002e+00 -5.6444458010522880e-01 +7.7294779874737802e+00 -7.5237993099016531e-01 +1.1027951816413907e+01 +8.5698541685445234e+03 -2.0893467520945641e+05 -4.5239969525416031e+07 
+4.7999999999999998e+00 -5.6444464461014854e-01 +7.7294533215597943e+00 -7.5562816793595389e-01 +1.1235352515442587e+01 +8.6343115943691319e+03 -2.0930200233606118e+05 -4.5517380084778391e+07 
+4.9000000000000004e+00 -5.6444470564643789e-01 +7.7294310202703738e+00 -7.5900290822080618e-01 +1.1402783470708632e+01 +8.6995565755512471e+03 -2.0946810938292497e+05 -4.5798494748007998e+07 
+5.0000000000000000e+00 -5.6444476285507872e-01 +7.7294110911792782e+00 -7.6250727028493770e-01 +1.1528915850686008e+01 +8.7653736288927030e+03 -2.0942406372545924e+05 -4.6081824367883347e+07 
+5.0999999999999996e+00 -5.6444481587720619e-01 +7.7293935418600146e+00 -7.6614436721119528e-01 +1.1612420927541663e+01 +8.8315471696012664e+03 -2.0916093358717332e+05 -4.6365879322140023e+07 
+5.2000000000000002e+00 -5.6444486435384167e-01 +7.7293783798945412e+00 -7.6991731574289912e-01 +1.1651969852348367e+01 +8.8978616863636435e+03 -2.0866978684012324e+05 -4.6649170357910775e+07 
+5.2999999999999998e+00 -5.6444490792609325e-01 +7.7293656128673272e+00 -7.7382922511800512e-01 +1.1646233816133003e+01 +8.9641015246342577e+03 -2.0794169189071422e+05 -4.6930207546418384e+07 
+5.4000000000000004e+00 -5.6444494623503783e-01 +7.7293552483643033e+00 -7.7788320844899062e-01 +1.1593884092219287e+01 +9.0300511100738786e+03 -2.0696771797482588e+05 -4.7207501369957700e+07 
+5.5000000000000000e+00 -5.6444497892178114e-01 +7.7293472939813181e+00 -7.8208237101544775e-01 +1.1493591791779593e+01 +9.0954947157745537e+03 -2.0573893373246639e+05 -4.7479561582924590e+07 
+5.5999999999999996e+00 -5.6444500562751554e-01 +7.7293417573132439e+00 -7.8642981852306759e-01 +1.1344028189708448e+01 +9.1602166315391623e+03 -2.0424640912730727e+05 -4.7744898052673563e+07 
+5.7000000000000002e+00 -5.6444502599334256e-01 +7.7293386459634084e+00 -7.9092865667015377e-01 +1.1143864444734003e+01 +9.2240011457882283e+03 -2.0248121381418701e+05 -4.8002020647870213e+07 
+5.7999999999999998e+00 -5.6444503966044146e-01 +7.7293379675383997e+00 -7.9558198480113029e-01 +1.0891771766551937e+01 +9.2866324288254291e+03 -2.0043441815295545e+05 -4.8249438691856273e+07 
+5.9000000000000004e+00 -5.6444504626997360e-01 +7.7293397296473563e+00 -8.0039290414993669e-01 +1.0586421439627122e+01 +9.3478946888613373e+03 -1.9809709335293112e+05 -4.8485661706578515e+07 
+5.9999999999999902e+00 -5.6444504546317587e-01 +7.7293439398982313e+00 -8.0536450988118768e-01 +1.0226485008867913e+01 +9.4075720540420498e+03 -1.9546031241388014e+05 -4.8709198913330659e+07 
+6.0999999999999899e+00 -5.6444503708558680e-01 +7.7293505658578221e+00 -8.1049621108882608e-01 +9.8119149971161388e+00 +9.4655168858204815e+03 -1.9252286795178271e+05 -4.8919106517907962e+07 
+6.1999999999999904e+00 -5.6444502168007238e-01 +7.7293594483893235e+00 -8.1577480513369816e-01 +9.3466741723294415e+00 +9.5218057510711260e+03 -1.8930817495451137e+05 -4.9116227151481174e+07 
+6.2999999999999901e+00 -5.6444499993806074e-01 +7.7293704034753468e+00 -8.2118442584232498e-01 +8.8355037255752897e+00 +9.5765620579350889e+03 -1.8584454298962545e+05 -4.9301771092108101e+07 
+6.3999999999999897e+00 -5.6444497255095116e-01 +7.7293832471002055e+00 -8.2670920974902284e-01 +8.2831446852409645e+00 +9.6299092591718872e+03 -1.8216028035554683e+05 -4.9476948796275206e+07 
+6.4999999999999902e+00 -5.6444494021011737e-01 +7.7293977952351147e+00 -8.3233329692675817e-01 +7.6943382970071523e+00 +9.6819708778326421e+03 -1.7828369614987561e+05 -4.9642971048864856e+07 
+6.5999999999999899e+00 -5.6444490360692046e-01 +7.7294138638517405e+00 -8.3804082868500551e-01 +7.0738256705904625e+00 +9.7328704567098976e+03 -1.7424309833249848e+05 -4.9801048701297581e+07 
+6.6999999999999904e+00 -5.6444486343262812e-01 +7.7294312689114095e+00 -8.4381595773431006e-01 +6.4263480699089968e+00 +9.7827317540563217e+03 -1.7006679534948018e+05 -4.9952393611893654e+07 
+6.7999999999999901e+00 -5.6444482037856103e-01 +7.7294498263692466e+00 -8.4964283354608894e-01 +5.7566467656762565e+00 +9.8316784636102548e+03 -1.6578309519127998e+05 -5.0098217304681532e+07 
+6.8999999999999897e+00 -5.6444477513588764e-01 +7.7294693521737710e+00 -8.5550561354881249e-01 +5.0694630749476666e+00 +9.8798344273527673e+03 -1.6142030571540006e+05 -5.0239731984144904e+07 
+6.9999999999999902e+00 -5.6444472839583038e-01 +7.7294896622654212e+00 -8.6138845919743168e-01 +4.3695383612652838e+00 +9.9273235639113900e+03 -1.5700673451325257e+05 -5.0378150200402327e+07 
+7.0999999999999899e+00 -5.6444468084951871e-01 +7.7295105725772411e+00 -8.6727553880428843e-01 +3.6616140449857428e+00 +9.9742699150683693e+03 -1.5257068906977514e+05 -5.0514685052317031e+07 
+7.1999999999999904e+00 -5.6444463318808691e-01 +7.7295318990382187e+00 -8.7315102106721088e-01 +2.9504314694161078e+00 +1.0020797533011102e+04 -1.4814047587629306e+05 -5.0650549674034588e+07 
+7.2999999999999901e+00 -5.6444458610259673e-01 +7.7295534575607556e+00 -8.7899908570470919e-01 +2.2407322681125708e+00 +1.0067030671427199e+04 -1.4374440257233960e+05 -5.0786958118621640e+07 
+7.3999999999999897e+00 -5.6444454028402835e-01 +7.7295750640558074e+00 -8.8480391261617686e-01 +1.5372579225774516e+00 +1.0113093587449244e+04 -1.3941077537245353e+05 -5.0925124432435036e+07 
+7.4999999999999902e+00 -5.6444449642339289e-01 +7.7295965344250002e+00 -8.9054969092188518e-01 +8.4474998609968677e-01 +1.0159110707942462e+04 -1.3516790035691753e+05 -5.1066263433473118e+07 
+7.5999999999999899e+00 -5.6444445521155340e-01 +7.7296176845570725e+00 -8.9622061420574939e-01 +1.6795015598700772e-01 +1.0205206543577149e+04 -1.3104408379944682e+05 -5.1211590312332675e+07 
+7.6999999999999904e+00 -5.6444441733940143e-01 +7.7296383303352449e+00 -9.0180088220377552e-01 -4.8839990648408227e-01 +1.0251505716370391e+04 -1.2706763121426248e+05 -5.1362320752168834e+07 
+7.7999999999999901e+00 -5.6444438349776926e-01 +7.7296582876320539e+00 -9.0727469892664947e-01 -1.1195584705750008e+00 +1.0298132929270232e+04 -1.2326684785969459e+05 -5.1519670794037089e+07 
+7.8999999999999897e+00 -5.6444435437741913e-01 +7.7296773723084833e+00 -9.1262627915668393e-01 -1.7207836939415617e+00 +1.0345213081120744e+04 -1.1967003901461873e+05 -5.1684857364735909e+07 
+7.9999999999999902e+00 -5.6444433066903821e-01 +7.7296954002310994e+00 -9.1783983979410777e-01 -2.2873344586318574e+00 +1.0392871062976803e+04 -1.1630550492525272e+05 -5.1859097226270139e+07 
+8.0999999999999908e+00 -5.6444431308773335e-01 +7.7297121966097357e+00 -9.2289725329200423e-01 -2.8149266934725876e+00 +1.0441099447909402e+04 -1.1319811840014187e+05 -5.2042827922666557e+07 
+8.1999999999999904e+00 -5.6444430243667298e-01 +7.7297276096224552e+00 -9.2777196865262979e-01 -3.3003437449862059e+00 +1.0489449721387396e+04 -1.1036373857393774e+05 -5.2233944036019221e+07 
+8.2999999999999901e+00 -5.6444429953869280e-01 +7.7297414905460986e+00 -9.3243553590953698e-01 -3.7404984974104987e+00 +1.0537380446450517e+04 -1.0781682370306413e+05 -5.2429816468201950e+07 
+8.3999999999999897e+00 -5.6444430521644784e-01 +7.7297536906474749e+00 -9.3685951568191217e-01 -4.1323035605592491e+00 +1.0584350375099151e+04 -1.0557183369677389e+05 -5.2627816985521398e+07 
+8.4999999999999893e+00 -5.6444432029271441e-01 +7.7297640611848024e+00 -9.4101546600671981e-01 -4.4726712838595510e+00 +1.0629818197793000e+04 -1.0364323011935197e+05 -5.2825317026530348e+07 
+8.5999999999999908e+00 -5.6444434559008339e-01 +7.7297724534153121e+00 -9.4487495315744774e-01 -4.7585140027300303e+00 +1.0673242751120380e+04 -1.0204547469690880e+05 -5.3019688693340279e+07 
+8.6999999999999904e+00 -5.6444438193121638e-01 +7.7297787185828364e+00 -9.4840954658331855e-01 -4.9867436601352289e+00 +1.0714082916387513e+04 -1.0079303156234315e+05 -5.3208304258331016e+07 
+8.7999999999999794e+00 -5.6444443013863010e-01 +7.7297827079297461e+00 -9.5159082183568999e-01 -5.1542721565897027e+00 +1.0751797675924672e+04 -9.9900365223783330e+04 -5.3388536431241423e+07 
+8.8999999999999808e+00 -5.6444449103483418e-01 +7.7297842726863024e+00 -9.5439035453788201e-01 -5.2580110563982432e+00 +1.0785846004921723e+04 -9.9381942219297343e+04 -5.3557757862610586e+07 
+8.9999999999999805e+00 -5.6444456544231925e-01 +7.7297832640801243e+00 -9.5677973097650792e-01 -5.2948718247322155e+00 +1.0815687062411531e+04 -9.9252229870299692e+04 -5.3713342026270010e+07 
+9.0999999999999801e+00 -5.6444465418347545e-01 +7.7297795333286938e+00 -9.5873053803449026e-01 -5.2617656487053841e+00 +1.0840780005370176e+04 -9.9525697192155960e+04 -5.3852662347549751e+07 
+9.1999999999999797e+00 -5.6444475808062555e-01 +7.7297729316419277e+00 -9.6021436965198892e-01 -5.1556034854004587e+00 +1.0860584111017775e+04 -1.0021681471552241e+05 -5.3973092784740180e+07 
+9.2999999999999794e+00 -5.6444487795613962e-01 +7.7297633102239667e+00 -9.6120282224618447e-01 -4.9732961306786549e+00 +1.0874558687422346e+04 -1.0134005402317195e+05 -5.4072007399070784e+07 
+9.3999999999999808e+00 -5.6444501463222496e-01 +7.7297505202683601e+00 -9.6166750074390039e-01 -4.7117540618292519e+00 +1.0882163188238625e+04 -1.0290988873200380e+05 -5.4146780897257127e+07 
+9.4999999999999805e+00 -5.6444516893104835e-01 +7.7297344129635759e+00 -9.6158001327770348e-01 -4.3678876112110467e+00 +1.0882857114268625e+04 -1.0494079344500072e+05 -5.4194788173485667e+07 
+9.5999999999999801e+00 -5.6444534167480753e-01 +7.7297148394880288e+00 -9.6091197251484917e-01 -3.9386068066338527e+00 +1.0876100032492708e+04 -1.0744724471946014e+05 -5.4213404380791277e+07 
+9.6999999999999797e+00 -5.6444553368552486e-01 +7.7296916510118487e+00 -9.5963499758788096e-01 -3.4208214390016733e+00 +1.0861351619298497e+04 -1.1044372064003214e+05 -5.4200005155695431e+07 
+9.7999999999999794e+00 -5.6444574578528639e-01 +7.7296646986966442e+00 -9.5772071183154217e-01 -2.8114410374690806e+00 +1.0838071613105574e+04 -1.1394470101770267e+05 -5.4151966379873216e+07 
+9.8999999999999808e+00 -5.6444597879601321e-01 +7.7296338336988537e+00 -9.5514074615476041e-01 -2.1073749834725506e+00 +1.0805719876277175e+04 -1.1796466667122699e+05 -5.4066664470965885e+07 
+9.9999999999999805e+00 -5.6444623353941603e-01 +7.7295989072200086e+00 -9.5186673923403409e-01 -1.3055335095559899e+00 +1.0763756354314120e+04 -1.2251809394133234e+05 -5.3941476056202039e+07 
+1.0100000000000000e+01 -5.6444651045108596e-01 +7.7295598668307264e+00 -9.4788581023399077e-01 -4.0531585500010403e-01 +1.0711882634171203e+04 -1.2760574147313784e+05 -5.3774838908930577e+07 
