# multipoles
# s[mm] polynom_b[n=0][T/m^n] polynom_b[n=1][T/m^n] polynom_b[n=2][T/m^n] polynom_b[n=3][T/m^n] polynom_b[n=4][T/m^n] polynom_b[n=5][T/m^n] polynom_b[n=6][T/m^n] 
-0.0000000000000000e+00 -5.6471749553290485e-01 +7.7336007402535545e+00 -7.0099076625663159e-01 -2.6296032086467036e+01 -1.9486679043780487e+03 -9.5492420629175846e+04 +3.1696236381435603e+04 
-1.0000000000000001e-01 -5.6471738603470711e-01 +7.7336356141017850e+00 -6.9020228334013556e-01 -2.6980804684134650e+01 -2.0718938809361730e+03 -9.3056993230773063e+04 +4.3678077514407400e+05 
-2.0000000000000001e-01 -5.6471728840963153e-01 +7.7336710454582764e+00 -6.7917322391835400e-01 -2.7707424849862260e+01 -2.2014327521577916e+03 -9.0378874202471823e+04 +8.7983234963670827e+05 
-2.9999999999999999e-01 -5.6471720202670617e-01 +7.7337067184347257e+00 -6.6793708413618547e-01 -2.8468191999230417e+01 -2.3367125440116615e+03 -8.7493786780971219e+04 +1.3580581724806284e+06 
-4.0000000000000002e-01 -5.6471712625512893e-01 +7.7337423171442925e+00 -6.5652735125048889e-01 -2.9255405581539041e+01 -2.4771614490348834e+03 -8.4437454094193512e+04 +1.8686662388931029e+06 
-5.0000000000000000e-01 -5.6471706046397152e-01 +7.7337775257043164e+00 -6.4497751726668318e-01 -3.0061365154047259e+01 -2.6222075717944022e+03 -8.1245598761555928e+04 +2.4088641294892235e+06 
-5.9999999999999998e-01 -5.6471700402235814e-01 +7.7338120282296963e+00 -6.3332107376569946e-01 -3.0878370192761018e+01 -2.7712790288019628e+03 -7.7953943953885362e+04 +2.9758594890981945e+06 
-6.9999999999999996e-01 -5.6471695629937080e-01 +7.7338455088369686e+00 -6.2159151006761604e-01 -3.1698720212213715e+01 -2.9238039822837009e+03 -7.4598212705110011e+04 +3.5668601836884506e+06 
-8.0000000000000004e-01 -5.6471691666410517e-01 +7.7338776516477452e+00 -6.0982231671645837e-01 -3.2514714857120872e+01 -3.0792105758301141e+03 -7.1214127387767658e+04 +4.1790740018798797e+06 
-9.0000000000000002e-01 -5.6471688448564417e-01 +7.7339081407806658e+00 -5.9804698467238460e-01 -3.3318653673163062e+01 -3.2369269513237746e+03 -6.7837411028430375e+04 +4.8097087357365405e+06 
-1.0000000000000000e+00 -5.6471685913305303e-01 +7.7339366603642441e+00 -5.8629900662230960e-01 -3.4102836476549811e+01 -3.3963812250137603e+03 -6.4503785163259905e+04 +5.4559720742614679e+06 
-1.1000000000000001e+00 -5.6471683997546185e-01 +7.7339628945187906e+00 -5.7461187305700223e-01 -3.4859562834161864e+01 -3.5570015608374288e+03 -6.1248972835294488e+04 +6.1150719441062519e+06 
-1.2000000000000000e+00 -5.6471682638183140e-01 +7.7339865273740349e+00 -5.6301907710664523e-01 -3.5581132570273553e+01 -3.7182160835440491e+03 -5.8108695663641091e+04 +6.7842161135756280e+06 
-1.3000000000000000e+00 -5.6471681772119264e-01 +7.7340072430603986e+00 -5.5155411596087534e-01 -3.6259845504486279e+01 -3.8794528499093676e+03 -5.5118675379458684e+04 +7.4606120484589925e+06 
-1.3999999999999999e+00 -5.6471681336260504e-01 +7.7340247257124339e+00 -5.4025048228957973e-01 -3.6888001564833679e+01 -4.0401400135248746e+03 -5.2314633131022136e+04 +8.1414677023692736e+06 
-1.5000000000000000e+00 -5.6471681267501062e-01 +7.7340386594634900e+00 -5.2914167517467592e-01 -3.7457900628276334e+01 -4.1997056184513376e+03 -4.9732290404653788e+04 +8.8239905372550823e+06 
-1.6000000000000001e+00 -5.6471681502736815e-01 +7.7340487284501709e+00 -5.1826119360668510e-01 -3.7961842642629577e+01 -4.3575777234192801e+03 -4.7407368348278629e+04 +9.5053881166603137e+06 
-1.7000000000000000e+00 -5.6471681978862065e-01 +7.7340546168190718e+00 -5.0764253753703437e-01 -3.8392127826916969e+01 -4.5131843826190416e+03 -4.5375586575561763e+04 +1.0182868017145026e+07 
-1.8000000000000000e+00 -5.6471682632767739e-01 +7.7340560087087624e+00 -4.9731921286911074e-01 -3.8741056144567395e+01 -4.6659535538309055e+03 -4.3672666228653594e+04 +1.0853637397884691e+07 
-1.8999999999999999e+00 -5.6471683401340655e-01 +7.7340525882723083e+00 -4.8732472232544527e-01 -3.9000927967492764e+01 -4.8153132700618153e+03 -4.2334326098183497e+04 +1.1514903812923471e+07 
-2.0000000000000000e+00 -5.6471684221465346e-01 +7.7340440396576060e+00 -4.7769257685625960e-01 -3.9164043482128150e+01 -4.9606914253202012e+03 -4.1396286120610013e+04 +1.2163874197841348e+07 
-2.1000000000000001e+00 -5.6471685033833352e-01 +7.7340301669564058e+00 -4.6845263528463255e-01 -3.9225278457674214e+01 -5.1015532397050647e+03 -4.0882669578922054e+04 +1.2797878332051147e+07 
-2.2000000000000002e+00 -5.6471685794754345e-01 +7.7340112541347779e+00 -4.5962129409421254e-01 -3.9189833933163783e+01 -5.2374879521170669e+03 -4.0771108830776160e+04 +1.3414627804692224e+07 
-2.2999999999999998e+00 -5.6471686464524440e-01 +7.7339877051938641e+00 -4.5121186168632182e-01 -3.9065498908634481e+01 -5.3681096523699243e+03 -4.1027584444474574e+04 +1.4011903107911462e+07 
-2.3999999999999999e+00 -5.6471687003445181e-01 +7.7339599241321242e+00 -4.4323764686329908e-01 -3.8860062306528313e+01 -5.4930324206949590e+03 -4.1618077406296041e+04 +1.4587484682060428e+07 
-2.5000000000000000e+00 -5.6471687371813384e-01 +7.7339283149537037e+00 -4.3571195770584814e-01 -3.8581313207780092e+01 -5.6118703501149703e+03 -4.2508567776609372e+04 +1.5139153028428186e+07 
-2.6000000000000001e+00 -5.6471687529926429e-01 +7.7338932816598769e+00 -4.2864810208592308e-01 -3.8237040615562940e+01 -5.7242375336121122e+03 -4.3665036009342752e+04 +1.5664688636755483e+07 
-2.7000000000000002e+00 -5.6471687438094320e-01 +7.7338552282574158e+00 -4.2205938658310410e-01 -3.7835033692264076e+01 -5.8297480844712363e+03 -4.5053461594766282e+04 +1.6161872083698658e+07 
-2.7999999999999998e+00 -5.6471687056614017e-01 +7.7338145587519191e+00 -4.1595911365509092e-01 -3.7383081569588917e+01 -5.9280161899791956e+03 -4.6639824146861647e+04 +1.6628484287702899e+07 
-2.8999999999999999e+00 -5.6471686345794736e-01 +7.7337716771487059e+00 -4.1036058924365715e-01 -3.6888973373253037e+01 -6.0186559619437603e+03 -4.8390103261936005e+04 +1.7062305785797849e+07 
-3.0000000000000000e+00 -5.6471685265942240e-01 +7.7337269874579695e+00 -4.0527711379198023e-01 -3.6360498373391330e+01 -6.1012816101058952e+03 -5.0270277634887294e+04 +1.7461117564673394e+07 
-3.1000000000000001e+00 -5.6471683777366255e-01 +7.7336808936865440e+00 -4.0072198734915515e-01 -3.5805445757722410e+01 -6.1755073434009319e+03 -5.2246326341107124e+04 +1.7822700588102147e+07 
-3.2000000000000002e+00 -5.6471681840383237e-01 +7.7336337998440561e+00 -3.9670850665943985e-01 -3.5231604797403442e+01 -6.2409474205414690e+03 -5.4284227906144828e+04 +1.8144836024142198e+07 
-3.2999999999999998e+00 -5.6471679415303111e-01 +7.7335861099421113e+00 -3.9324996702059445e-01 -3.4646764830011357e+01 -6.2972161186465019e+03 -5.6349960376687850e+04 +1.8425305106523123e+07 
-3.3999999999999999e+00 -5.6471676462454534e-01 +7.7335382279894169e+00 -3.9035965975508147e-01 -3.4058715125252455e+01 -6.3439277770536028e+03 -5.8409502081042279e+04 +1.8661889334619787e+07 
-3.5000000000000000e+00 -5.6471672942150308e-01 +7.7334905579979303e+00 -3.8805087656678633e-01 -3.3475245057481530e+01 -6.3806967127792841e+03 -6.0428830639811305e+04 +1.8852370063195363e+07 
-3.6000000000000001e+00 -5.6471668814723119e-01 +7.7334435039794274e+00 -3.8633690379927227e-01 -3.2904144008590428e+01 -6.4071373295632620e+03 -6.2373923519267883e+04 +1.8994529024206851e+07 
-3.7000000000000002e+00 -5.6471664040501568e-01 +7.7333974699435277e+00 -3.8523102349382066e-01 -3.2353201316802831e+01 -6.4228641004021329e+03 -6.4210758301874383e+04 +1.9086148248688240e+07 
-3.7999999999999998e+00 -5.6471658579818595e-01 +7.7333528599045485e+00 -3.8474651905505347e-01 -3.1830206468713090e+01 -6.4274914481323076e+03 -6.5905311594382030e+04 +1.9125009469730731e+07 
-3.8999999999999999e+00 -5.6471652393015093e-01 +7.7333100778727495e+00 -3.8489666525909316e-01 -3.1342948858466247e+01 -6.4206339462970645e+03 -6.7423560379246774e+04 +1.9108895106596742e+07 
-4.0000000000000000e+00 -5.6471645440437612e-01 +7.7332695278600774e+00 -3.8569473592747672e-01 -3.0899217948800480e+01 -6.4019061653845747e+03 -6.8731481096021598e+04 +1.9035587512723420e+07 
-4.0999999999999996e+00 -5.6471637690037424e-01 +7.7332315403059901e+00 -3.8715279737655112e-01 -3.0505209726427044e+01 -6.3710161008926334e+03 -6.9802581001544910e+04 +1.8903516036924377e+07 
-4.2000000000000002e+00 -5.6471629139598267e-01 +7.7331961486516061e+00 -3.8927693402271979e-01 -3.0160493169882770e+01 -6.3280723707932921e+03 -7.0642168231887423e+04 +1.8713823265432362e+07 
-4.2999999999999998e+00 -5.6471619794191596e-01 +7.7331633113410003e+00 -3.9207145438613794e-01 -2.9862915584560220e+01 -6.2732906446116212e+03 -7.1263926810363264e+04 +1.8468362902628373e+07 
-4.4000000000000004e+00 -5.6471609658901978e-01 +7.7331329868313325e+00 -3.9554066627151346e-01 -2.9610324598616600e+01 -6.2068865982153611e+03 -7.1681539102747658e+04 +1.8168988670288127e+07 
-4.5000000000000000e+00 -5.6471598738807793e-01 +7.7331051335859815e+00 -3.9968887490001581e-01 -2.9400567976473187e+01 -6.1290759547794260e+03 -7.1908686892514510e+04 +1.7817554512461457e+07 
-4.5999999999999996e+00 -5.6471587038985294e-01 +7.7330797100745947e+00 -4.0452039323228434e-01 -2.9231493612474111e+01 -6.0400742833876348e+03 -7.1959051439450923e+04 +1.7415913628125135e+07 
-4.7000000000000002e+00 -5.6471574564516236e-01 +7.7330566747793794e+00 -4.1003953178431496e-01 -2.9100949709790779e+01 -5.9400971949481118e+03 -7.1846312454230079e+04 +1.6965919407884277e+07 
-4.7999999999999998e+00 -5.6471561320477026e-01 +7.7330359861931512e+00 -4.1625060183214219e-01 -2.9006784722272524e+01 -5.8293602796636815e+03 -7.1584148450803215e+04 +1.6469425131744232e+07 
-4.9000000000000004e+00 -5.6471547311944315e-01 +7.7330176028134270e+00 -4.2315791878659065e-01 -2.8946847181971407e+01 -5.7080790460734852e+03 -7.1186237758231306e+04 +1.5928283689327322e+07 
-5.0000000000000000e+00 -5.6471532543998559e-01 +7.7330014831517149e+00 -4.3076579462891890e-01 -2.8918985969535850e+01 -5.5764690612758195e+03 -7.0666256946345442e+04 +1.5344348236892784e+07 
-5.0999999999999996e+00 -5.6471517021717532e-01 +7.7329875857299593e+00 -4.3907854965113852e-01 -2.8921050193350702e+01 -5.4347457263382112e+03 -7.0037881595292245e+04 +1.4719471125158228e+07 
-5.2000000000000002e+00 -5.6471500750174852e-01 +7.7329758690820514e+00 -4.4810050298294701e-01 -2.8950889256528079e+01 -5.2831244637864702e+03 -6.9314785836511757e+04 +1.4055504811869312e+07 
-5.2999999999999998e+00 -5.6471483734448313e-01 +7.7329662917497304e+00 -4.5783597380160851e-01 -2.9006352701948611e+01 -5.1218206837177513e+03 -6.8510643366844408e+04 +1.3354301670251755e+07 
-5.4000000000000004e+00 -5.6471465979616342e-01 +7.7329588122925390e+00 -4.6828928491560812e-01 -2.9085290532225660e+01 -4.9510497266467974e+03 -6.7639125507124831e+04 +1.2617713749285905e+07 
-5.5000000000000000e+00 -5.6471447490747484e-01 +7.7329533892740647e+00 -4.7946476252636300e-01 -2.9185552784589085e+01 -4.7710268586867496e+03 -6.6713903745230840e+04 +1.1847592723030698e+07 
-5.5999999999999996e+00 -5.6471428272926349e-01 +7.7329499812759241e+00 -4.9136673117797408e-01 -2.9304989946071295e+01 -4.5819673756380053e+03 -6.5748647315276830e+04 +1.1045790409824774e+07 
-5.7000000000000002e+00 -5.6471408331215833e-01 +7.7329485468942023e+00 -5.0399952356693345e-01 -2.9441452843266912e+01 -4.3840864059086871e+03 -6.4757023850266989e+04 +1.0214157804736340e+07 
-5.7999999999999998e+00 -5.6471387670695583e-01 +7.7329490447332967e+00 -5.1736746976924619e-01 -2.9592792457375765e+01 -4.1775991278758984e+03 -6.3752700492458476e+04 +9.3545461497071665e+06 
-5.9000000000000004e+00 -5.6471366296431702e-01 +7.7329514334139979e+00 -5.3147490447639290e-01 -2.9756860165293727e+01 -3.9627206218185911e+03 -6.2749342469853276e+04 +8.4688061985779274e+06 
-5.9999999999999902e+00 -5.6471344213503438e-01 +7.7329556715715650e+00 -5.4632616485107632e-01 -2.9931507672616949e+01 -3.7396659149553434e+03 -6.1760613522408741e+04 +7.5587884455865221e+06 
-6.0999999999999899e+00 -5.6471321450711132e-01 +7.7329616799828180e+00 -5.6190635689738289e-01 -3.0114223754076285e+01 -3.5088296971083569e+03 -6.0800866005825075e+04 +6.6267164799293457e+06 
-6.1999999999999904e+00 -5.6471298132235925e-01 +7.7329692335386104e+00 -5.7812154535244675e-01 -3.0301589880955650e+01 -3.2713494572622690e+03 -5.9883478110969438e+04 +5.6763751889412850e+06 
-6.2999999999999901e+00 -5.6471274406245453e-01 +7.7329780719902361e+00 -5.9485746347443924e-01 -3.0490099103723676e+01 -3.0285541705261076e+03 -5.9020633934657577e+04 +4.7119531398711707e+06 
-6.3999999999999897e+00 -5.6471250420896446e-01 +7.7329879350730035e+00 -6.1199985279281988e-01 -3.0676244194487325e+01 -2.7817726648769099e+03 -5.8224518455899306e+04 +3.7376382199956812e+06 
-6.4999999999999902e+00 -5.6471226324338275e-01 +7.7329985624851227e+00 -6.2943445379891683e-01 -3.0856517002756746e+01 -2.5323338086463059e+03 -5.7507321312956425e+04 +2.7576185548115596e+06 
-6.5999999999999899e+00 -5.6471202264728315e-01 +7.7330096938972144e+00 -6.4704700835684537e-01 -3.1027408762354774e+01 -2.2815664639600000e+03 -5.6881234924218494e+04 +1.7760822864550247e+06 
-6.6999999999999904e+00 -5.6471178390210763e-01 +7.7330210689459298e+00 -6.6472326163094264e-01 -3.1185409893970785e+01 -2.0307994459950053e+03 -5.6358455664301720e+04 +7.9721736583304533e+05 
-6.7999999999999901e+00 -5.6471154848929284e-01 +7.7330324272338657e+00 -6.8234896014604229e-01 -3.1327010021232550e+01 -1.7813615636817435e+03 -5.5951183701882801e+04 -1.7478824159357950e+05 
-6.8999999999999897e+00 -5.6471131789022277e-01 +7.7330435083303923e+00 -6.9980985343817925e-01 -3.1448697999717592e+01 -1.5345815928660520e+03 -5.5671622806143008e+04 -1.1357466734526029e+06 
-6.9999999999999902e+00 -5.6471109358628724e-01 +7.7330540517685389e+00 -7.1699169098141280e-01 -3.1546961827883749e+01 -1.2917883293358905e+03 -5.5531980851861677e+04 -2.0814699323023614e+06 
-7.0999999999999899e+00 -5.6471087705874601e-01 +7.7330637970432488e+00 -7.3378022812848520e-01 -3.1618288609639674e+01 -1.0543104802432456e+03 -5.5544469989907200e+04 -3.0077703902555881e+06 
-7.1999999999999904e+00 -5.6471066978887563e-01 +7.7330724836102114e+00 -7.5006121794289293e-01 -3.1659164530939574e+01 -8.2347681937018785e+02 -5.5721306737909632e+04 -3.9104600527710593e+06 
-7.2999999999999901e+00 -5.6471047325791668e-01 +7.7330798508873322e+00 -7.6572041800756674e-01 -3.1666074902293570e+01 -6.0061605987679002e+02 -5.6074711725963069e+04 -4.7853511558840293e+06 
-7.3999999999999897e+00 -5.6471028894696529e-01 +7.7330856382481086e+00 -7.8064358987684679e-01 -3.1635503976545682e+01 -3.8705686076501308e+02 -5.6616910713584861e+04 -5.6282561497476548e+06 
-7.4999999999999902e+00 -5.6471011833723761e-01 +7.7330895850255166e+00 -7.9471649364615748e-01 -3.1563935065983596e+01 -1.8412793772267861e+02 -5.7360133892191981e+04 -6.4349871477682320e+06 
-7.5999999999999899e+00 -5.6470996290968911e-01 +7.7330914305069376e+00 -8.0782489670686353e-01 -3.1447850417976891e+01 +6.8421058821118148e+00 -5.8316616523349425e+04 -7.2013567410720577e+06 
-7.6999999999999904e+00 -5.6470982414537996e-01 +7.7330909139352855e+00 -8.1985456381580402e-01 -3.1283731225898169e+01 +1.8452459151784862e+02 -5.9498598930223408e+04 -7.9231771080358550e+06 
-7.7999999999999901e+00 -5.6470970352528527e-01 +7.7330877745084177e+00 -8.3069126587952569e-01 -3.1068057647855181e+01 +3.4759092872742974e+02 -6.0918326279013425e+04 -8.5962607829335295e+06 
-7.8999999999999897e+00 -5.6470960253028046e-01 +7.7330817513735655e+00 -8.4022077435953813e-01 -3.0797308635064340e+01 +4.9471250558957757e+02 -6.2588049587751666e+04 -9.2164201270645875e+06 
-7.9999999999999902e+00 -5.6470952264123708e-01 +7.7330725836295464e+00 -8.4832886479956826e-01 -3.0467962045755399e+01 +6.2456075873450072e+02 -6.4520024973016029e+04 -9.7794676675586905e+06 
-8.0999999999999908e+00 -5.6470946496299224e-01 +7.7330601043054488e+00 -8.5493407064801352e-01 -3.0078409217444328e+01 +7.3615994381395967e+02 -6.6717229940528458e+04 -1.0282201912045855e+07 
-8.1999999999999904e+00 -5.6470942911018440e-01 +7.7330445166599917e+00 -8.6008914138662407e-01 -2.9633789056843248e+01 +8.3000524715701522e+02 -6.9151834396962629e+04 -1.0725637583870372e+07 
-8.2999999999999901e+00 -5.6470941432757382e-01 +7.7330261153771307e+00 -8.6388124081344497e-01 -2.9140702435011445e+01 +9.0697313131109127e+02 -7.1789879293500984e+04 -1.1111898676481152e+07 
-8.3999999999999897e+00 -5.6470941985998757e-01 +7.7330051951727707e+00 -8.6639752911318391e-01 -2.8605750890675296e+01 +9.6793999711820334e+02 -7.4597402788173422e+04 -1.1443108919500668e+07 
-8.4999999999999893e+00 -5.6470944495234687e-01 +7.7329820507881433e+00 -8.6772516004929945e-01 -2.8035536468425818e+01 +1.0137821356352468e+03 -7.7540441212512029e+04 -1.1721391556889933e+07 
-8.5999999999999908e+00 -5.6470948884959626e-01 +7.7329569769911402e+00 -8.6795127817906925e-01 -2.7436661752752308e+01 +1.0453756730810719e+03 -8.0585028913194939e+04 -1.1948869083272448e+07 
-8.6999999999999904e+00 -5.6470955079678198e-01 +7.7329302685774550e+00 -8.6716302112342991e-01 -2.6815729896212158e+01 +1.0635966226992905e+03 -8.3697198110739875e+04 -1.2127663512507705e+07 
-8.7999999999999794e+00 -5.6470963003901142e-01 +7.7329022203765234e+00 -8.6544752004956382e-01 -2.6179344782662014e+01 +1.0693208864775672e+03 -8.6842977998864386e+04 -1.2259896366645699e+07 
-8.8999999999999808e+00 -5.6470972582150603e-01 +7.7328731272477063e+00 -8.6289189722848125e-01 -2.5534110897668370e+01 +1.0634242133469354e+03 -8.9988395556947900e+04 -1.2347688488897769e+07 
-8.9999999999999805e+00 -5.6470983738951530e-01 +7.7328432840786547e+00 -8.5958326598832668e-01 -2.4886633296418623e+01 +1.0467821967483048e+03 -9.3099475722540243e+04 -1.2393160028328553e+07 
-9.0999999999999801e+00 -5.6470996398836160e-01 +7.7328129857984926e+00 -8.5560873611376020e-01 -2.4243517947481294e+01 +1.0202703812339591e+03 -9.6142239512640546e+04 -1.2398430958260091e+07 
-9.1999999999999797e+00 -5.6471010486349960e-01 +7.7327825273635158e+00 -8.5105540256991030e-01 -2.3611371338100529e+01 +9.8476404399855369e+02 -9.9082706275179284e+04 -1.2365620024837913e+07 
-9.2999999999999794e+00 -5.6471025926047225e-01 +7.7327522037689818e+00 -8.4601035460111318e-01 -2.2996800792733683e+01 +9.4113837108890334e+02 -1.0188689192153400e+05 -1.2296845595630188e+07 
-9.3999999999999808e+00 -5.6471042642484526e-01 +7.7327223100450837e+00 -8.4056067376151800e-01 -2.2406414353599931e+01 +8.9026842082703172e+02 -1.0452080964726934e+05 -1.2194225487045040e+07 
-9.4999999999999805e+00 -5.6471060560230968e-01 +7.7326931412615778e+00 -8.3479343114990323e-01 -2.1846820900347378e+01 +8.3302906846492613e+02 -1.0695046929113015e+05 -1.2059876693675539e+07 
-9.5999999999999801e+00 -5.6471079603867380e-01 +7.7326649925229853e+00 -8.2879568611333065e-01 -2.1324630012213138e+01 +7.7029498976992761e+02 -1.0914187814884662e+05 -1.1895915332332145e+07 
-9.6999999999999797e+00 -5.6471099697982030e-01 +7.7326381589773590e+00 -8.2265449334023699e-01 -2.0846452205007079e+01 +7.0294078572374019e+02 -1.1106103966512956e+05 -1.1704457210278496e+07 
-9.7999999999999794e+00 -5.6471120767171190e-01 +7.7326129358141396e+00 -8.1645689322704496e-01 -2.0418898870698126e+01 +6.3184080669107857e+02 -1.1267395378868177e+05 -1.1487617004709577e+07 
-9.8999999999999808e+00 -5.6471142736041813e-01 +7.7325896182574150e+00 -8.1028991874513268e-01 -2.0048582064983584e+01 +5.5786928451784809e+02 -1.1394661827843804e+05 -1.1247508898836371e+07 
-9.9999999999999805e+00 -5.6471165529215017e-01 +7.7325685015809977e+00 -8.0424059125028813e-01 -1.9742114870772323e+01 +4.8190026062436522e+02 -1.1484502671997251e+05 -1.0986246259031154e+07 
-1.0100000000000000e+01 -5.6471189085336326e-01 +7.7325498268802972e+00 -7.9837898788700601e-01 -1.9504548813284323e+01 +4.0465687133538336e+02 -1.1534417513375175e+05 -1.0705692069753265e+07 
