# field on trajectory
# s[mm] rx[mm] ry[mm] rz[mm] bx[T] by[T] bz[T]
-0.0000000000000000e+00 +8.1530000000000094e+00 +0.0000000000000000e+00 -0.0000000000000000e+00 -3.0935581977494842e-02 -5.9317712269659584e-01 +5.9152827273290251e-03
-1.0000000000000001e-01 +8.1529997163925092e+00 +0.0000000000000000e+00 -9.9999999999463796e-02 -3.0935556705528520e-02 -5.9317722884885737e-01 +5.9152776758508675e-03
-2.0000000000000001e-01 +8.1529988655711296e+00 +0.0000000000000000e+00 -1.9999999999571000e-01 -3.0935544202998422e-02 -5.9317733565036079e-01 +5.9152737086995786e-03
-2.9999999999999999e-01 +8.1529974475415692e+00 +0.0000000000000000e+00 -2.9999999998552201e-01 -3.0935543630292606e-02 -5.9317744275942952e-01 +5.9152708667667732e-03
-4.0000000000000002e-01 +8.1529954622965306e+00 +0.0000000000000000e+00 -3.9999999996568197e-01 -3.0935554147811774e-02 -5.9317754983446846e-01 +5.9152691909439446e-03
-5.0000000000000000e-01 +8.1529929098396696e+00 +0.0000000000000000e+00 -4.9999999993297300e-01 -3.0935574915956558e-02 -5.9317765653377141e-01 +5.9152687221208158e-03
-5.9999999999999998e-01 +8.1529897901673394e+00 +0.0000000000000000e+00 -5.9999999988417696e-01 -3.0935605095133632e-02 -5.9317776251567067e-01 +5.9152695011871767e-03
-6.9999999999999996e-01 +8.1529861032831796e+00 +0.0000000000000000e+00 -6.9999999981607697e-01 -3.0935643845747315e-02 -5.9317786743842227e-01 +5.9152715690320226e-03
-8.0000000000000004e-01 +8.1529818491871993e+00 +0.0000000000000000e+00 -7.9999999972545699e-01 -3.0935690328202370e-02 -5.9317797096029490e-01 +5.9152749665447894e-03
-9.0000000000000002e-01 +8.1529770278793894e+00 +0.0000000000000000e+00 -8.9999999960909804e-01 -3.0935743702900444e-02 -5.9317807273954337e-01 +5.9152797346153823e-03
-1.0000000000000000e+00 +8.1529716393597500e+00 +0.0000000000000000e+00 -9.9999999946378304e-01 -3.0935803130238054e-02 -5.9317817243440996e-01 +5.9152859141345208e-03
-1.1000000000000001e+00 +8.1529656836210105e+00 +0.0000000000000000e+00 -1.0999999992862901e+00 -3.0935867770607854e-02 -5.9317826970318699e-01 +5.9152935459946751e-03
-1.2000000000000000e+00 +8.1529591606740706e+00 +0.0000000000000000e+00 -1.1999999990734200e+00 -3.0935936784385304e-02 -5.9317836420401071e-01 +5.9153026710882821e-03
-1.3000000000000000e+00 +8.1529520705153100e+00 +0.0000000000000000e+00 -1.2999999988219300e+00 -3.0936009331941253e-02 -5.9317845559512938e-01 +5.9153133303107945e-03
-1.3999999999999999e+00 +8.1529444131410909e+00 +0.0000000000000000e+00 -1.3999999985286200e+00 -3.0936084573633487e-02 -5.9317854353478738e-01 +5.9153255645598354e-03
-1.5000000000000000e+00 +8.1529361885550298e+00 +0.0000000000000000e+00 -1.4999999981902701e+00 -3.0936161669801510e-02 -5.9317862768116925e-01 +5.9153394147348874e-03
-1.6000000000000001e+00 +8.1529273967571498e+00 +0.0000000000000000e+00 -1.5999999978036501e+00 -3.0936239780769342e-02 -5.9317870769248759e-01 +5.9153549217385703e-03
-1.7000000000000000e+00 +8.1529180377474404e+00 +0.0000000000000000e+00 -1.6999999973655600e+00 -3.0936318066842040e-02 -5.9317878322695861e-01 +5.9153721264766524e-03
-1.8000000000000000e+00 +8.1529081115222706e+00 +0.0000000000000000e+00 -1.7999999968727800e+00 -3.0936395688305227e-02 -5.9317885394283187e-01 +5.9153910698586986e-03
-1.8999999999999999e+00 +8.1528976180852606e+00 +0.0000000000000000e+00 -1.8999999963220899e+00 -3.0936471805418274e-02 -5.9317891949830381e-01 +5.9154117927974949e-03
-2.0000000000000000e+00 +8.1528865574327902e+00 +0.0000000000000000e+00 -1.9999999957102601e+00 -3.0936545578418823e-02 -5.9317897955163956e-01 +5.9154343362105974e-03
-2.1000000000000001e+00 +8.1528749295721408e+00 +0.0000000000000000e+00 -2.0999999950340902e+00 -3.0936616364110318e-02 -5.9317903399870076e-01 +5.9154587210968421e-03
-2.2000000000000002e+00 +8.1528627344960096e+00 +0.0000000000000000e+00 -2.1999999942903599e+00 -3.0936684305674467e-02 -5.9317908368618655e-01 +5.9154848887705913e-03
-2.2999999999999998e+00 +8.1528499722080596e+00 +0.0000000000000000e+00 -2.2999999934758399e+00 -3.0936749742883195e-02 -5.9317912969839492e-01 +5.9155127606243026e-03
-2.3999999999999999e+00 +8.1528366427046404e+00 +0.0000000000000000e+00 -2.3999999925873299e+00 -3.0936813015512699e-02 -5.9317917311969759e-01 +5.9155422580519151e-03
-2.5000000000000000e+00 +8.1528227459894005e+00 +0.0000000000000000e+00 -2.4999999916215998e+00 -3.0936874463338340e-02 -5.9317921503442128e-01 +5.9155733024474997e-03
-2.6000000000000001e+00 +8.1528082820659602e+00 +0.0000000000000000e+00 -2.5999999905754398e+00 -3.0936934426139356e-02 -5.9317925652691150e-01 +5.9156058152057553e-03
-2.7000000000000002e+00 +8.1527932509234198e+00 +0.0000000000000000e+00 -2.6999999894456299e+00 -3.0936993243706714e-02 -5.9317929868165042e-01 +5.9156397177230757e-03
-2.7999999999999998e+00 +8.1527776525726896e+00 +0.0000000000000000e+00 -2.7999999882289601e+00 -3.0937051255828293e-02 -5.9317934258296345e-01 +5.9156749313944044e-03
-2.8999999999999999e+00 +8.1527614870065008e+00 +0.0000000000000000e+00 -2.8999999869222002e+00 -3.0937108802308159e-02 -5.9317938931534631e-01 +5.9157113776164257e-03
-3.0000000000000000e+00 +8.1527447542284808e+00 +0.0000000000000000e+00 -2.9999999855221300e+00 -3.0937166222955025e-02 -5.9317943996323097e-01 +5.9157489777850328e-03
-3.1000000000000001e+00 +8.1527274542386294e+00 +0.0000000000000000e+00 -3.0999999840255499e+00 -3.0937223857590075e-02 -5.9317949561110461e-01 +5.9157876532963992e-03
-3.2000000000000002e+00 +8.1527095870333106e+00 +0.0000000000000000e+00 -3.1999999824292300e+00 -3.0937282046048432e-02 -5.9317955734351169e-01 +5.9158273255468458e-03
-3.2999999999999998e+00 +8.1526911526198091e+00 +0.0000000000000000e+00 -3.2999999807299600e+00 -3.0937341128174086e-02 -5.9317962624493781e-01 +5.9158679159315112e-03
-3.3999999999999999e+00 +8.1526721509872004e+00 +0.0000000000000000e+00 -3.3999999789245101e+00 -3.0937401443834247e-02 -5.9317970340004789e-01 +5.9159093458466530e-03
-3.5000000000000000e+00 +8.1526525821464002e+00 +0.0000000000000000e+00 -3.4999999770096801e+00 -3.0937463332902919e-02 -5.9317978989336195e-01 +5.9159515366861738e-03
-3.6000000000000001e+00 +8.1526324460901396e+00 +0.0000000000000000e+00 -3.5999999749822500e+00 -3.0937527135280172e-02 -5.9317988680958356e-01 +5.9159944098448299e-03
-3.7000000000000002e+00 +8.1526117428220495e+00 +0.0000000000000000e+00 -3.6999999728389801e+00 -3.0937593190880550e-02 -5.9317999523336373e-01 +5.9160378867156842e-03
-3.7999999999999998e+00 +8.1525904723421299e+00 +0.0000000000000000e+00 -3.7999999705766800e+00 -3.0937661839641039e-02 -5.9318011624942180e-01 +5.9160818886912006e-03
-3.8999999999999999e+00 +8.1525686346503807e+00 +0.0000000000000000e+00 -3.8999999681921298e+00 -3.0937733421520765e-02 -5.9318025094251703e-01 +5.9161263371627811e-03
-4.0000000000000000e+00 +8.1525462297431694e+00 +0.0000000000000000e+00 -3.9999999656820902e+00 -3.0937808276504049e-02 -5.9318040039748032e-01 +5.9161711535209759e-03
-4.0999999999999996e+00 +8.1525232576241304e+00 +0.0000000000000000e+00 -4.0999999630433699e+00 -3.0937886553300747e-02 -5.9318056540909514e-01 +5.9162162774326127e-03
-4.2000000000000002e+00 +8.1524997182896204e+00 +0.0000000000000000e+00 -4.1999999602727298e+00 -3.0937967635457982e-02 -5.9318074561209544e-01 +5.9162617216761597e-03
-4.2999999999999998e+00 +8.1524756117469206e+00 +0.0000000000000000e+00 -4.2999999573669703e+00 -3.0938050715231091e-02 -5.9318094035107560e-01 +5.9163075173049168e-03
-4.4000000000000004e+00 +8.1524509379887604e+00 +0.0000000000000000e+00 -4.3999999543228601e+00 -3.0938134984890231e-02 -5.9318114897071894e-01 +5.9163536953706223e-03
-4.5000000000000000e+00 +8.1524256970187707e+00 +0.0000000000000000e+00 -4.4999999511372000e+00 -3.0938219636709365e-02 -5.9318137081558964e-01 +5.9164002869211575e-03
-4.5999999999999996e+00 +8.1523998888369498e+00 +0.0000000000000000e+00 -4.5999999478067499e+00 -3.0938303862973013e-02 -5.9318160523024854e-01 +5.9164473230015752e-03
-4.7000000000000002e+00 +8.1523735134396702e+00 +0.0000000000000000e+00 -4.6999999443283098e+00 -3.0938386855976430e-02 -5.9318185155925085e-01 +5.9164948346539063e-03
-4.7999999999999998e+00 +8.1523465708305594e+00 +0.0000000000000000e+00 -4.7999999406986600e+00 -3.0938467808021085e-02 -5.9318210914705405e-01 +5.9165428529160662e-03
-4.9000000000000004e+00 +8.1523190610096208e+00 +0.0000000000000000e+00 -4.8999999369145701e+00 -3.0938545911419705e-02 -5.9318237733810442e-01 +5.9165914088225675e-03
-5.0000000000000000e+00 +8.1522909839768491e+00 +0.0000000000000000e+00 -4.9999999329728402e+00 -3.0938620358494973e-02 -5.9318265547680615e-01 +5.9166405334040396e-03
-5.0999999999999996e+00 +8.1522623397286207e+00 +0.0000000000000000e+00 -5.0999999288702398e+00 -3.0938690341581303e-02 -5.9318294290754525e-01 +5.9166902576873390e-03
-5.2000000000000002e+00 +8.1522331282685592e+00 +0.0000000000000000e+00 -5.1999999246035600e+00 -3.0938755053020392e-02 -5.9318323897460323e-01 +5.9167406126944605e-03
-5.2999999999999998e+00 +8.1522033495966806e+00 +0.0000000000000000e+00 -5.2999999201695802e+00 -3.0938813685166169e-02 -5.9318354302223797e-01 +5.9167916294432434e-03
-5.4000000000000004e+00 +8.1521730037093203e+00 +0.0000000000000000e+00 -5.3999999155650800e+00 -3.0938865430385171e-02 -5.9318385439468513e-01 +5.9168433389471965e-03
-5.5000000000000000e+00 +8.1521420906137791e+00 +0.0000000000000000e+00 -5.4999999107868396e+00 -3.0938909481050263e-02 -5.9318417243603516e-01 +5.9168957722140932e-03
-5.5999999999999996e+00 +8.1521106102991308e+00 +0.0000000000000000e+00 -5.5999999058316599e+00 -3.0938945029553848e-02 -5.9318449649046834e-01 +5.9169489602482143e-03
-5.7000000000000002e+00 +8.1520785627762997e+00 +0.0000000000000000e+00 -5.6999999006963096e+00 -3.0938971268290347e-02 -5.9318482590192734e-01 +5.9170029340468132e-03
-5.7999999999999998e+00 +8.1520459480379905e+00 +0.0000000000000000e+00 -5.7999998953775700e+00 -3.0938987389674204e-02 -5.9318516001443833e-01 +5.9170577246032800e-03
-5.9000000000000004e+00 +8.1520127660915005e+00 +0.0000000000000000e+00 -5.8999998898722197e+00 -3.0938992586125629e-02 -5.9318549817184385e-01 +5.9171133629042066e-03
-5.9999999999999902e+00 +8.1519790169259103e+00 +0.0000000000000000e+00 -5.9999998841770603e+00 -3.0938986050085444e-02 -5.9318583971806627e-01 +5.9171698799319545e-03
-6.0999999999999899e+00 +8.1519447005521197e+00 +0.0000000000000000e+00 -6.0999998782888598e+00 -3.0938967252161019e-02 -5.9318618406633561e-01 +5.9172272868438089e-03
-6.1999999999999904e+00 +8.1519098169665103e+00 +0.0000000000000000e+00 -6.1999998722044003e+00 -3.0938936775621682e-02 -5.9318653090819407e-01 +5.9172855155262584e-03
-6.2999999999999901e+00 +8.1518743661654298e+00 +0.0000000000000000e+00 -6.2999998659204701e+00 -3.0938895481870916e-02 -5.9318688000478470e-01 +5.9173444780519571e-03
-6.3999999999999897e+00 +8.1518383481488907e+00 +0.0000000000000000e+00 -6.3999998594338496e+00 -3.0938844232273648e-02 -5.9318723111727512e-01 +5.9174040864979661e-03
-6.4999999999999902e+00 +8.1518017629241495e+00 +0.0000000000000000e+00 -6.4999998527413201e+00 -3.0938783888152948e-02 -5.9318758400683258e-01 +5.9174642529456903e-03
-6.5999999999999899e+00 +8.1517646104839496e+00 +0.0000000000000000e+00 -6.5999998458396698e+00 -3.0938715310798063e-02 -5.9318793843480400e-01 +5.9175248894829391e-03
-6.6999999999999904e+00 +8.1517268908319203e+00 +0.0000000000000000e+00 -6.6999998387256703e+00 -3.0938639361451373e-02 -5.9318829416250940e-01 +5.9175859082020487e-03
-6.7999999999999901e+00 +8.1516886039680703e+00 +0.0000000000000000e+00 -6.7999998313961196e+00 -3.0938556901313165e-02 -5.9318865095136619e-01 +5.9176472212013418e-03
-6.8999999999999897e+00 +8.1516497498923908e+00 +0.0000000000000000e+00 -6.8999998238477902e+00 -3.0938468791538384e-02 -5.9318900856285983e-01 +5.9177087405850688e-03
-6.9999999999999902e+00 +8.1516103286012402e+00 +0.0000000000000000e+00 -6.9999998160774597e+00 -3.0938375893236503e-02 -5.9318936675857670e-01 +5.9177703784639478e-03
-7.0999999999999899e+00 +8.1515703400982602e+00 +0.0000000000000000e+00 -7.0999998080819298e+00 -3.0938279067464967e-02 -5.9318972530011782e-01 +5.9178320469545050e-03
-7.1999999999999904e+00 +8.1515297843834595e+00 +0.0000000000000000e+00 -7.1999997998579603e+00 -3.0938179175232394e-02 -5.9319008394919059e-01 +5.9178936581802252e-03
-7.2999999999999901e+00 +8.1514886614531896e+00 +0.0000000000000000e+00 -7.2999997914023496e+00 -3.0938077077496854e-02 -5.9319044246761155e-01 +5.9179551242718072e-03
-7.3999999999999897e+00 +8.1514469713147300e+00 +0.0000000000000000e+00 -7.3999997827118804e+00 -3.0937973635157715e-02 -5.9319080061718965e-01 +5.9180163573661721e-03
-7.4999999999999902e+00 +8.1514047139571595e+00 +0.0000000000000000e+00 -7.4999997737833199e+00 -3.0937869709066902e-02 -5.9319115815996670e-01 +5.9180772696091535e-03
-7.5999999999999899e+00 +8.1513618893914099e+00 +0.0000000000000000e+00 -7.5999997646134698e+00 -3.0937766160009386e-02 -5.9319151485789390e-01 +5.9181377731523993e-03
-7.6999999999999904e+00 +8.1513184976138309e+00 +0.0000000000000000e+00 -7.6999997551991104e+00 -3.0937663848717638e-02 -5.9319187047313071e-01 +5.9181977801566399e-03
-7.7999999999999901e+00 +8.1512745386207808e+00 +0.0000000000000000e+00 -7.7999997455370096e+00 -3.0937563635863558e-02 -5.9319222476792921e-01 +5.9182572027907379e-03
-7.8999999999999897e+00 +8.1512300124159101e+00 +0.0000000000000000e+00 -7.8999997356239602e+00 -3.0937466382053413e-02 -5.9319257750457632e-01 +5.9183159532313042e-03
-7.9999999999999902e+00 +8.1511849189955701e+00 +0.0000000000000000e+00 -7.9999997254567399e+00 -3.0937372947832723e-02 -5.9319292844551685e-01 +5.9183739436641713e-03
-8.0999999999999908e+00 +8.1511392583670403e+00 +0.0000000000000000e+00 -8.0999997150321406e+00 -3.0937284070672103e-02 -5.9319327758304474e-01 +5.9184311123897200e-03
-8.1999999999999904e+00 +8.1510930305230396e+00 +0.0000000000000000e+00 -8.1999997043469399e+00 -3.0937199996008392e-02 -5.9319362582896995e-01 +5.9184875021424093e-03
-8.2999999999999901e+00 +8.1510462354672200e+00 +0.0000000000000000e+00 -8.2999996933979094e+00 -3.0937120846332503e-02 -5.9319397432477272e-01 +5.9185431817623101e-03
-8.3999999999999897e+00 +8.1509988731995708e+00 +0.0000000000000000e+00 -8.3999996821818605e+00 -3.0937046744216917e-02 -5.9319432421186091e-01 +5.9185982200883405e-03
-8.4999999999999893e+00 +8.1509509437164507e+00 +0.0000000000000000e+00 -8.4999996706955496e+00 -3.0936977812318349e-02 -5.9319467663156589e-01 +5.9186526859581852e-03
-8.5999999999999908e+00 +8.1509024470215099e+00 +0.0000000000000000e+00 -8.5999996589357703e+00 -3.0936914173375643e-02 -5.9319503272504981e-01 +5.9187066482072892e-03
-8.6999999999999904e+00 +8.1508533831147396e+00 +0.0000000000000000e+00 -8.6999996468993004e+00 -3.0936855950217369e-02 -5.9319539363339202e-01 +5.9187601756697092e-03
-8.7999999999999794e+00 +8.1508037519961398e+00 +0.0000000000000000e+00 -8.7999996345829192e+00 -3.0936803265762966e-02 -5.9319576049755407e-01 +5.9188133371777026e-03
-8.8999999999999808e+00 +8.1507535536620708e+00 +0.0000000000000000e+00 -8.8999996219834205e+00 -3.0936756243027098e-02 -5.9319613445840813e-01 +5.9188662015619729e-03
-8.9999999999999805e+00 +8.1507027881161793e+00 +0.0000000000000000e+00 -8.9999996090975891e+00 -3.0936715005117479e-02 -5.9319651665664219e-01 +5.9189188376506611e-03
-9.0999999999999801e+00 +8.1506514553584601e+00 +0.0000000000000000e+00 -9.0999995959221902e+00 -3.0936679675242565e-02 -5.9319690823284699e-01 +5.9189713142701753e-03
-9.1999999999999797e+00 +8.1505995553889097e+00 +0.0000000000000000e+00 -9.1999995824540193e+00 -3.0936650376712636e-02 -5.9319731032748257e-01 +5.9190237002448133e-03
-9.2999999999999794e+00 +8.1505470882038900e+00 +0.0000000000000000e+00 -9.2999995686898593e+00 -3.0936627232944151e-02 -5.9319772408090388e-01 +5.9190760643969813e-03
-9.3999999999999808e+00 +8.1504940538070496e+00 +0.0000000000000000e+00 -9.3999995546264898e+00 -3.0936610367457620e-02 -5.9319815063326797e-01 +5.9191284755461936e-03
-9.4999999999999805e+00 +8.1504404521983798e+00 +0.0000000000000000e+00 -9.4999995402606903e+00 -3.0936599903885212e-02 -5.9319859112462114e-01 +5.9191810025099063e-03
-9.5999999999999801e+00 +8.1503862833778804e+00 +0.0000000000000000e+00 -9.5999995255892507e+00 -3.0936595965971959e-02 -5.9319904669486390e-01 +5.9192337141031389e-03
-9.6999999999999797e+00 +8.1503315473419207e+00 +0.0000000000000000e+00 -9.6999995106089507e+00 -3.0936598677579967e-02 -5.9319951848377728e-01 +5.9192866791386743e-03
-9.7999999999999794e+00 +8.1502762440941297e+00 +0.0000000000000000e+00 -9.7999994953165697e+00 -3.0936608162686410e-02 -5.9320000763093239e-01 +5.9193399664260937e-03
-9.8999999999999808e+00 +8.1502203736345091e+00 +0.0000000000000000e+00 -9.8999994797088906e+00 -3.0936624545391117e-02 -5.9320051527577256e-01 +5.9193936447725758e-03
-9.9999999999999805e+00 +8.1501639359594300e+00 +0.0000000000000000e+00 -9.9999994637827001e+00 -3.0936647949919256e-02 -5.9320104255761208e-01 +5.9194477829828326e-03
-1.0100000000000000e+01 +8.1501069310761505e+00 +0.0000000000000000e+00 -1.0099999447534801e+01 -3.0936678296121296e-02 -5.9320159017622387e-01 +5.9195024327517980e-03
-1.0199999999999999e+01 +8.1500493589774106e+00 +0.0000000000000000e+00 -1.0199999430961901e+01 -3.0936714685909101e-02 -5.9320215707423718e-01 +5.9195575773460180e-03
-1.0300000000000001e+01 +8.1499912196668394e+00 +0.0000000000000000e+00 -1.0299999414060901e+01 -3.0936756016608183e-02 -5.9320274175497500e-01 +5.9196131829173035e-03
-1.0400000000000000e+01 +8.1499325131444493e+00 +0.0000000000000000e+00 -1.0399999396828500e+01 -3.0936801185445669e-02 -5.9320334272190289e-01 +5.9196692156099585e-03
-1.0500000000000000e+01 +8.1498732394065900e+00 +0.0000000000000000e+00 -1.0499999379261400e+01 -3.0936849089547490e-02 -5.9320395847863305e-01 +5.9197256415605736e-03
-1.0600000000000000e+01 +8.1498133984568994e+00 +0.0000000000000000e+00 -1.0599999361356600e+01 -3.0936898625930673e-02 -5.9320458752883698e-01 +5.9197824268969303e-03
-1.0699999999999999e+01 +8.1497529902953794e+00 +0.0000000000000000e+00 -1.0699999343110701e+01 -3.0936948691505338e-02 -5.9320522837633904e-01 +5.9198395377387057e-03
-1.0800000000000001e+01 +8.1496920149220404e+00 +0.0000000000000000e+00 -1.0799999324520600e+01 -3.0936998183070299e-02 -5.9320587952508930e-01 +5.9198969401969845e-03
-1.0900000000000000e+01 +8.1496304723332305e+00 +0.0000000000000000e+00 -1.0899999305583000e+01 -3.0937045997311802e-02 -5.9320653947919666e-01 +5.9199546003743699e-03
-1.1000000000000000e+01 +8.1495683625325892e+00 +0.0000000000000000e+00 -1.0999999286294800e+01 -3.0937091030795866e-02 -5.9320720674284355e-01 +5.9200124843638733e-03
-1.1100000000000000e+01 +8.1495056855201309e+00 +0.0000000000000000e+00 -1.1099999266652601e+01 -3.0937132179970316e-02 -5.9320787982037759e-01 +5.9200705582496370e-03
-1.1199999999999999e+01 +8.1494424412958306e+00 +0.0000000000000000e+00 -1.1199999246653300e+01 -3.0937168341160299e-02 -5.9320855721628596e-01 +5.9201287881064275e-03
-1.1300000000000001e+01 +8.1493786298560700e+00 +0.0000000000000000e+00 -1.1299999226293700e+01 -3.0937198410567100e-02 -5.9320923743522702e-01 +5.9201871399997621e-03
-1.1400000000000000e+01 +8.1493142512044905e+00 +0.0000000000000000e+00 -1.1399999205570500e+01 -3.0937221284260432e-02 -5.9320991898194519e-01 +5.9202455799847861e-03
-1.1500000000000000e+01 +8.1492493053447106e+00 +0.0000000000000000e+00 -1.1499999184480499e+01 -3.0937235858178876e-02 -5.9321060036133466e-01 +5.9203040741066951e-03
-1.1600000000000000e+01 +8.1491837922658306e+00 +0.0000000000000000e+00 -1.1599999163020600e+01 -3.0937241028133541e-02 -5.9321128007855961e-01 +5.9203625884017624e-03
-1.1699999999999999e+01 +8.1491177119787608e+00 +0.0000000000000000e+00 -1.1699999141187400e+01 -3.0937235689788987e-02 -5.9321195663876236e-01 +5.9204210888940990e-03
