# field on trajectory
# s[mm] rx[mm] ry[mm] rz[mm] bx[T] by[T] bz[T]
-0.0000000000000000e+00 +8.1530000000000094e+00 +0.0000000000000000e+00 -0.0000000000000000e+00 -3.0935581977494842e-02 -5.9317712269659584e-01 +5.9152827273290251e-03
-1.0000000000000001e-01 +8.1529997159377707e+00 +0.0000000000000000e+00 -1.0008006405070299e-01 -3.0935556690522954e-02 -5.9317722893415648e-01 +5.9152776722354548e-03
-2.0000000000000001e-01 +8.1529988637557800e+00 +0.0000000000000000e+00 -2.0016012809818201e-01 -3.0935544192768376e-02 -5.9317733582170229e-01 +5.9152737032383221e-03
-2.9999999999999999e-01 +8.1529974434524792e+00 +0.0000000000000000e+00 -3.0024019213920999e-01 -3.0935543642604146e-02 -5.9317744301679509e-01 +5.9152708613281410e-03
-4.0000000000000002e-01 +8.1529954550242092e+00 +0.0000000000000000e+00 -4.0032025617056399e-01 -3.0935554198411090e-02 -5.9317755017698814e-01 +5.9152691874944010e-03
-5.0000000000000000e-01 +8.1529928984782600e+00 +0.0000000000000000e+00 -5.0040032018901703e-01 -3.0935575018569930e-02 -5.9317765695972513e-01 +5.9152687227248093e-03
-5.9999999999999998e-01 +8.1529897738146193e+00 +0.0000000000000000e+00 -6.0048038419134497e-01 -3.0935605261467498e-02 -5.9317776302248704e-01 +5.9152695080071475e-03
-6.9999999999999996e-01 +8.1529860810223909e+00 +0.0000000000000000e+00 -7.0056044817432195e-01 -3.0935644085496341e-02 -5.9317786802282646e-01 +5.9152715843299097e-03
-8.0000000000000004e-01 +8.1529818201124709e+00 +0.0000000000000000e+00 -8.0064051213472498e-01 -3.0935690649038092e-02 -5.9317797161810182e-01 +5.9152749926799208e-03
-9.0000000000000002e-01 +8.1529769910812302e+00 +0.0000000000000000e+00 -9.0072057606932698e-01 -3.0935744110477705e-02 -5.9317807346577589e-01 +5.9152797740456824e-03
-1.0000000000000000e+00 +8.1529715939250291e+00 +0.0000000000000000e+00 -1.0008006399749001e+00 -3.0935803628195029e-02 -5.9317817322329913e-01 +5.9152859694165194e-03
-1.1000000000000001e+00 +8.1529656286511507e+00 +0.0000000000000000e+00 -1.1008807038482300e+00 -3.0935868360557853e-02 -5.9317827054802419e-01 +5.9152936197819986e-03
-1.2000000000000000e+00 +8.1529590952522994e+00 +0.0000000000000000e+00 -1.2009607676860801e+00 -3.0935937465931374e-02 -5.9317836509741317e-01 +5.9153027661343867e-03
-1.3000000000000000e+00 +8.1529519937357708e+00 +0.0000000000000000e+00 -1.3010408314852300e+00 -3.0936010102663090e-02 -5.9317845652880397e-01 +5.9153134494665562e-03
-1.3999999999999999e+00 +8.1529443240979198e+00 +0.0000000000000000e+00 -1.4011208952424601e+00 -3.0936085429092285e-02 -5.9317854449961949e-01 +5.9153257107744540e-03
-1.5000000000000000e+00 +8.1529360863350995e+00 +0.0000000000000000e+00 -1.5012009589545301e+00 -3.0936162603543101e-02 -5.9317862866728155e-01 +5.9153395910565227e-03
-1.6000000000000001e+00 +8.1529272804509691e+00 +0.0000000000000000e+00 -1.6012810226182299e+00 -3.0936240784319335e-02 -5.9317870868915201e-01 +5.9153551313134321e-03
-1.7000000000000000e+00 +8.1529179064491508e+00 +0.0000000000000000e+00 -1.7013610862303301e+00 -3.0936319129705618e-02 -5.9317878422259540e-01 +5.9153723725490258e-03
-1.8000000000000000e+00 +8.1529079643223703e+00 +0.0000000000000000e+00 -1.8014411497875999e+00 -3.0936396797970372e-02 -5.9317885492506972e-01 +5.9153913557715588e-03
-1.8999999999999999e+00 +8.1528974540779000e+00 +0.0000000000000000e+00 -1.9015212132868200e+00 -3.0936472947352404e-02 -5.9317892045392062e-01 +5.9154121219919149e-03
-2.0000000000000000e+00 +8.1528863757084800e+00 +0.0000000000000000e+00 -2.0016012767247702e+00 -3.0936546736072722e-02 -5.9317898046662176e-01 +5.9154347122262960e-03
-2.1000000000000001e+00 +8.1528747292177304e+00 +0.0000000000000000e+00 -2.1016813400982199e+00 -3.0936617528998994e-02 -5.9317903487043189e-01 +5.9154591465506471e-03
-2.2000000000000002e+00 +8.1528625146056601e+00 +0.0000000000000000e+00 -2.2017614034039301e+00 -3.0936685478962524e-02 -5.9317908452527968e-01 +5.9154853651943763e-03
-2.2999999999999998e+00 +8.1528497318759001e+00 +0.0000000000000000e+00 -2.3018414666387002e+00 -3.0936750926552001e-02 -5.9317913051807047e-01 +5.9155132893609968e-03
-2.3999999999999999e+00 +8.1528363810211903e+00 +0.0000000000000000e+00 -2.4019215297993002e+00 -3.0936814212362048e-02 -5.9317917393581154e-01 +5.9155428402558026e-03
-2.5000000000000000e+00 +8.1528224620451493e+00 +0.0000000000000000e+00 -2.5020015928824901e+00 -3.0936875676984860e-02 -5.9317921586543754e-01 +5.9155739390839299e-03
-2.6000000000000001e+00 +8.1528079749477893e+00 +0.0000000000000000e+00 -2.6020816558850601e+00 -3.0936935661018173e-02 -5.9317925739393029e-01 +5.9156065070514307e-03
-2.7000000000000002e+00 +8.1527929197291105e+00 +0.0000000000000000e+00 -2.7021617188037701e+00 -3.0936994505064985e-02 -5.9317929960828975e-01 +5.9156404653648463e-03
-2.7999999999999998e+00 +8.1527772963891003e+00 +0.0000000000000000e+00 -2.8022417816354102e+00 -3.0937052549735028e-02 -5.9317934359553792e-01 +5.9156757352310848e-03
-2.8999999999999999e+00 +8.1527611049277802e+00 +0.0000000000000000e+00 -2.9023218443767500e+00 -3.0937110135646144e-02 -5.9317939044271872e-01 +5.9157122378572791e-03
-3.0000000000000000e+00 +8.1527443453451305e+00 +0.0000000000000000e+00 -3.0024019070245598e+00 -3.0937167603425731e-02 -5.9317944123690103e-01 +5.9157498944506686e-03
-3.1000000000000001e+00 +8.1527270176411495e+00 +0.0000000000000000e+00 -3.1024819695756198e+00 -3.0937225293712154e-02 -5.9317949706517936e-01 +5.9157886262184772e-03
-3.2000000000000002e+00 +8.1527091218158603e+00 +0.0000000000000000e+00 -3.2025620320267101e+00 -3.0937283547156129e-02 -5.9317955901467656e-01 +5.9158283543677640e-03
-3.2999999999999998e+00 +8.1526906578692397e+00 +0.0000000000000000e+00 -3.3026420943745900e+00 -3.0937342704422187e-02 -5.9317962817254533e-01 +5.9158690001053175e-03
-3.3999999999999999e+00 +8.1526716258013003e+00 +0.0000000000000000e+00 -3.4027221566160502e+00 -3.0937403106190062e-02 -5.9317970562596922e-01 +5.9159104846375132e-03
-3.5000000000000000e+00 +8.1526520256120403e+00 +0.0000000000000000e+00 -3.5028022187478500e+00 -3.0937465093156126e-02 -5.9317979246216590e-01 +5.9159527291701968e-03
-3.6000000000000001e+00 +8.1526318572978198e+00 +0.0000000000000000e+00 -3.6028822807667802e+00 -3.0937529006036375e-02 -5.9317988976841718e-01 +5.9159956549088427e-03
-3.7000000000000002e+00 +8.1526111208659096e+00 +0.0000000000000000e+00 -3.7029623426696099e+00 -3.0937595185561457e-02 -5.9317999863195381e-01 +5.9160391830572374e-03
-3.7999999999999998e+00 +8.1525898163126804e+00 +0.0000000000000000e+00 -3.8030424044531101e+00 -3.0937663972487716e-02 -5.9318012014013211e-01 +5.9160832348191406e-03
-3.8999999999999999e+00 +8.1525679436344909e+00 +0.0000000000000000e+00 -3.9031224661140600e+00 -3.0937735707593787e-02 -5.9318025538035024e-01 +5.9161277313972754e-03
-4.0000000000000000e+00 +8.1525455028386205e+00 +0.0000000000000000e+00 -4.0032025276492398e+00 -3.0937810731670921e-02 -5.9318040543995010e-01 +5.9161725939928774e-03
-4.0999999999999996e+00 +8.1525224939177896e+00 +0.0000000000000000e+00 -4.1032825890554099e+00 -3.0937889174806943e-02 -5.9318057108693145e-01 +5.9162177639426111e-03
-4.2000000000000002e+00 +8.1524989168792708e+00 +0.0000000000000000e+00 -4.2033626503293604e+00 -3.0937970401236910e-02 -5.9318075192803554e-01 +5.9162632557579311e-03
-4.2999999999999998e+00 +8.1524747717157897e+00 +0.0000000000000000e+00 -4.3034427114678504e+00 -3.0938053601281167e-02 -5.9318094730639759e-01 +5.9163091005678967e-03
-4.4000000000000004e+00 +8.1524500584346207e+00 +0.0000000000000000e+00 -4.4035227724676700e+00 -3.0938137965262048e-02 -5.9318115656500658e-01 +5.9163553294975862e-03
-4.5000000000000000e+00 +8.1524247770285001e+00 +0.0000000000000000e+00 -4.5036028333255800e+00 -3.0938222683517046e-02 -5.9318137904693935e-01 +5.9164019736703197e-03
-4.5999999999999996e+00 +8.1523989275046898e+00 +0.0000000000000000e+00 -4.6036828940383696e+00 -3.0938306946386131e-02 -5.9318161409512049e-01 +5.9164490642050578e-03
-4.7000000000000002e+00 +8.1523725098559208e+00 +0.0000000000000000e+00 -4.7037629546028104e+00 -3.0938389944224914e-02 -5.9318186105255732e-01 +5.9164966322186206e-03
-4.7999999999999998e+00 +8.1523455240894709e+00 +0.0000000000000000e+00 -4.8038430150156701e+00 -3.0938470867392029e-02 -5.9318211926210096e-01 +5.9165447088230985e-03
-4.9000000000000004e+00 +8.1523179701980606e+00 +0.0000000000000000e+00 -4.9039230752737302e+00 -3.0938548906262259e-02 -5.9318238806668000e-01 +5.9165933251280750e-03
-5.0000000000000000e+00 +8.1522898481889605e+00 +0.0000000000000000e+00 -5.0040031353737602e+00 -3.0938623251213885e-02 -5.9318266680906029e-01 +5.9166425122380078e-03
-5.0999999999999996e+00 +8.1522611580549000e+00 +0.0000000000000000e+00 -5.1040831953125396e+00 -3.0938693092641887e-02 -5.9318295483208106e-01 +5.9166923012544713e-03
-5.2000000000000002e+00 +8.1522318997995207e+00 +0.0000000000000000e+00 -5.2041632550868497e+00 -3.0938757620946875e-02 -5.9318325147844420e-01 +5.9167427232738557e-03
-5.2999999999999998e+00 +8.1522020734228100e+00 +0.0000000000000000e+00 -5.3042433146934496e+00 -3.0938816026541794e-02 -5.9318355609083040e-01 +5.9167938093883793e-03
-5.4000000000000004e+00 +8.1521716789247893e+00 +0.0000000000000000e+00 -5.4043233741291203e+00 -3.0938867499850576e-02 -5.9318386801186607e-01 +5.9168455906855929e-03
-5.5000000000000000e+00 +8.1521407163090807e+00 +0.0000000000000000e+00 -5.5044034333906504e+00 -3.0938911231306782e-02 -5.9318418658409300e-01 +5.9168980982479049e-03
-5.5999999999999996e+00 +8.1521091855684098e+00 +0.0000000000000000e+00 -5.6044834924747899e+00 -3.0938946411360364e-02 -5.9318451115008197e-01 +5.9169513631535942e-03
-5.7000000000000002e+00 +8.1520770867064094e+00 +0.0000000000000000e+00 -5.7045635513783299e+00 -3.0938972230468129e-02 -5.9318484105225544e-01 +5.9170054164748055e-03
-5.7999999999999998e+00 +8.1520444197231008e+00 +0.0000000000000000e+00 -5.8046436100980499e+00 -3.0938987879100523e-02 -5.9318517563300044e-01 +5.9170602892785664e-03
-5.9000000000000004e+00 +8.1520111846184609e+00 +0.0000000000000000e+00 -5.9047236686307096e+00 -3.0938992547740286e-02 -5.9318551423463872e-01 +5.9171160126263098e-03
-5.9999999999999902e+00 +8.1519773813925003e+00 +0.0000000000000000e+00 -6.0048037269731003e+00 -3.0938985426913531e-02 -5.9318585619943065e-01 +5.9171726175714862e-03
-6.0999999999999899e+00 +8.1519430100452208e+00 +0.0000000000000000e+00 -6.1048837851219799e+00 -3.0938966027977965e-02 -5.9318620094978791e-01 +5.9172301123053819e-03
-6.1999999999999904e+00 +8.1519080705766100e+00 +0.0000000000000000e+00 -6.2049638430741396e+00 -3.0938934973857943e-02 -5.9318654818604954e-01 +5.9172884258250694e-03
-6.2999999999999901e+00 +8.1518725629866804e+00 +0.0000000000000000e+00 -6.3050439008263499e+00 -3.0938893128024184e-02 -5.9318689766875621e-01 +5.9173474699917607e-03
-6.3999999999999897e+00 +8.1518364872754301e+00 +0.0000000000000000e+00 -6.4051239583753699e+00 -3.0938841353910337e-02 -5.9318724915850518e-01 +5.9174071566714071e-03
-6.4999999999999902e+00 +8.1517998434428591e+00 +0.0000000000000000e+00 -6.5052040157180002e+00 -3.0938780514911189e-02 -5.9318760241595181e-01 +5.9174673977349362e-03
-6.5999999999999899e+00 +8.1517626314889604e+00 +0.0000000000000000e+00 -6.6052840728510001e+00 -3.0938711474381004e-02 -5.9318795720181228e-01 +5.9175281050584958e-03
-6.6999999999999904e+00 +8.1517248514137499e+00 +0.0000000000000000e+00 -6.7053641297711399e+00 -3.0938635095631817e-02 -5.9318831327686727e-01 +5.9175891905237088e-03
-6.7999999999999901e+00 +8.1516865032135701e+00 +0.0000000000000000e+00 -6.8054441864752100e+00 -3.0938552241933412e-02 -5.9318867040199330e-01 +5.9176505660182071e-03
-6.8999999999999897e+00 +8.1516475868957095e+00 +0.0000000000000000e+00 -6.9055242429599701e+00 -3.0938463776504981e-02 -5.9318902833804699e-01 +5.9177121434346655e-03
-6.9999999999999902e+00 +8.1516081024565192e+00 +0.0000000000000000e+00 -7.0056042992222096e+00 -3.0938370562523364e-02 -5.9318938684604550e-01 +5.9177738346728875e-03
-7.0999999999999899e+00 +8.1515680498960101e+00 +0.0000000000000000e+00 -7.1056843552586999e+00 -3.0938273463114712e-02 -5.9318974568705107e-01 +5.9178355516388038e-03
-7.1999999999999904e+00 +8.1515274292141804e+00 +0.0000000000000000e+00 -7.2057644110662000e+00 -3.0938173341354468e-02 -5.9319010462220245e-01 +5.9178972062450472e-03
-7.2999999999999901e+00 +8.1514862404073902e+00 +0.0000000000000000e+00 -7.3058444666415099e+00 -3.0938071060267271e-02 -5.9319046341274773e-01 +5.9179587104114858e-03
-7.3999999999999897e+00 +8.1514444834829192e+00 +0.0000000000000000e+00 -7.4059245219813796e+00 -3.0937967482818764e-02 -5.9319082181992877e-01 +5.9180199760642625e-03
-7.4999999999999902e+00 +8.1514021584334806e+00 +0.0000000000000000e+00 -7.5060045770826100e+00 -3.0937863471925283e-02 -5.9319117960519063e-01 +5.9180809151381632e-03
-7.5999999999999899e+00 +8.1513592652663593e+00 +0.0000000000000000e+00 -7.6060846319419504e+00 -3.0937759890439120e-02 -5.9319153652994749e-01 +5.9181414395744272e-03
-7.6999999999999904e+00 +8.1513158039779192e+00 +0.0000000000000000e+00 -7.7061646865561997e+00 -3.0937657601158207e-02 -5.9319189235579217e-01 +5.9182014613231191e-03
-7.7999999999999901e+00 +8.1512717745681602e+00 +0.0000000000000000e+00 -7.8062447409221098e+00 -3.0937557466817953e-02 -5.9319224684438143e-01 +5.9182608923421713e-03
-7.8999999999999897e+00 +8.1512271770334301e+00 +0.0000000000000000e+00 -7.9063247950364799e+00 -3.0937460350092708e-02 -5.9319259975749583e-01 +5.9183196445982151e-03
-7.9999999999999902e+00 +8.1511820113773901e+00 +0.0000000000000000e+00 -8.0064048488960609e+00 -3.0937367113556942e-02 -5.9319295085701684e-01 +5.9183776300727941e-03
-8.0999999999999908e+00 +8.1511362776036496e+00 +0.0000000000000000e+00 -8.1064849024976393e+00 -3.0937278471327774e-02 -5.9319330018220096e-01 +5.9184347922512058e-03
-8.1999999999999904e+00 +8.1510899757086008e+00 +0.0000000000000000e+00 -8.2065649558379903e+00 -3.0937194647241723e-02 -5.9319364868848212e-01 +5.9184911786802916e-03
-8.2999999999999901e+00 +8.1510431056885899e+00 +0.0000000000000000e+00 -8.3066450089139003e+00 -3.0937115764092558e-02 -5.9319399752013724e-01 +5.9185468583661215e-03
-8.3999999999999897e+00 +8.1509956675508892e+00 +0.0000000000000000e+00 -8.4067250617221205e+00 -3.0937041944749548e-02 -5.9319434782125191e-01 +5.9186019003123896e-03
-8.4999999999999893e+00 +8.1509476612882299e+00 +0.0000000000000000e+00 -8.5068051142594392e+00 -3.0936973312171524e-02 -5.9319470073592351e-01 +5.9186563735224417e-03
-8.5999999999999908e+00 +8.1508990869078808e+00 +0.0000000000000000e+00 -8.6068851665226305e+00 -3.0936909989396612e-02 -5.9319505740802025e-01 +5.9187103469967878e-03
-8.6999999999999904e+00 +8.1508499444025801e+00 +0.0000000000000000e+00 -8.7069652185084596e+00 -3.0936852099558067e-02 -5.9319541898141526e-01 +5.9187638897354308e-03
-8.7999999999999794e+00 +8.1508002337759500e+00 +0.0000000000000000e+00 -8.8070452702137203e+00 -3.0936799765875586e-02 -5.9319578659977557e-01 +5.9188170707356628e-03
-8.8999999999999808e+00 +8.1507499550316407e+00 +0.0000000000000000e+00 -8.9071253216351796e+00 -3.0936753111662940e-02 -5.9319616140664733e-01 +5.9188699589928975e-03
-8.9999999999999805e+00 +8.1506991081623692e+00 +0.0000000000000000e+00 -9.0072053727696098e+00 -3.0936712260335633e-02 -5.9319654454554116e-01 +5.9189226235015066e-03
-9.0999999999999801e+00 +8.1506476931717806e+00 +0.0000000000000000e+00 -9.1072854236137797e+00 -3.0936677335403888e-02 -5.9319693715975053e-01 +5.9189751332528870e-03
-9.1999999999999797e+00 +8.1505957100635005e+00 +0.0000000000000000e+00 -9.2073654741644795e+00 -3.0936648460480269e-02 -5.9319734039243743e-01 +5.9190275572363251e-03
-9.2999999999999794e+00 +8.1505431588302599e+00 +0.0000000000000000e+00 -9.3074455244184708e+00 -3.0936625759287319e-02 -5.9319775538671782e-01 +5.9190799644397987e-03
-9.3999999999999808e+00 +8.1504900394757005e+00 +0.0000000000000000e+00 -9.4075255743725297e+00 -3.0936609355650551e-02 -5.9319818328547902e-01 +5.9191324238480822e-03
-9.4999999999999805e+00 +8.1504363520034495e+00 +0.0000000000000000e+00 -9.5076056240234408e+00 -3.0936599373506117e-02 -5.9319862523146805e-01 +5.9191850044435770e-03
-9.5999999999999801e+00 +8.1503820964062506e+00 +0.0000000000000000e+00 -9.6076856733679694e+00 -3.0936595936908357e-02 -5.9319908236737273e-01 +5.9192377752071389e-03
-9.6999999999999797e+00 +8.1503272726913600e+00 +0.0000000000000000e+00 -9.7077657224029004e+00 -3.0936599170021242e-02 -5.9319955583561434e-01 +5.9192908051158601e-03
-9.7999999999999794e+00 +8.1502718808515109e+00 +0.0000000000000000e+00 -9.8078457711250007e+00 -3.0936609197134129e-02 -5.9320004677857940e-01 +5.9193441631454286e-03
-9.8999999999999808e+00 +8.1502159208903304e+00 +0.0000000000000000e+00 -9.9079258195310498e+00 -3.0936626142653113e-02 -5.9320055633840907e-01 +5.9193979182679156e-03
-9.9999999999999805e+00 +8.1501593928078400e+00 +0.0000000000000000e+00 -1.0008005867617801e+01 -3.0936650131005342e-02 -5.9320108565688812e-01 +5.9194521394441172e-03
-1.0100000000000000e+01 +8.1501022966040200e+00 +0.0000000000000000e+00 -1.0108085915382100e+01 -3.0936681028937763e-02 -5.9320163532183190e-01 +5.9195068740665923e-03
-1.0199999999999999e+01 +8.1500446322825209e+00 +0.0000000000000000e+00 -1.0208165962820599e+01 -3.0936717890827928e-02 -5.9320220417578495e-01 +5.9195621015652533e-03
-1.0300000000000001e+01 +8.1499863998360507e+00 +0.0000000000000000e+00 -1.0308246009930199e+01 -3.0936759611347561e-02 -5.9320279071857085e-01 +5.9196177880108374e-03
-1.0400000000000000e+01 +8.1499275992682705e+00 +0.0000000000000000e+00 -1.0408326056707599e+01 -3.0936805085062878e-02 -5.9320339345003770e-01 +5.9196738994653064e-03
-1.0500000000000000e+01 +8.1498682305791608e+00 +0.0000000000000000e+00 -1.0508406103149600e+01 -3.0936853206438401e-02 -5.9320401087017993e-01 +5.9197304019828730e-03
-1.0600000000000000e+01 +8.1498082937723701e+00 +0.0000000000000000e+00 -1.0608486149253000e+01 -3.0936902869830751e-02 -5.9320464147908325e-01 +5.9197872616091910e-03
-1.0699999999999999e+01 +8.1497477888406102e+00 +0.0000000000000000e+00 -1.0708566195014500e+01 -3.0936952969492327e-02 -5.9320528377704451e-01 +5.9198444443823856e-03
-1.0800000000000001e+01 +8.1496867157875403e+00 +0.0000000000000000e+00 -1.0808646240430900e+01 -3.0937002399558728e-02 -5.9320593626439877e-01 +5.9199019163310319e-03
-1.0900000000000000e+01 +8.1496250746131391e+00 +0.0000000000000000e+00 -1.0908726285499000e+01 -3.0937050054052433e-02 -5.9320659744164139e-01 +5.9199596434751775e-03
-1.1000000000000000e+01 +8.1495628653174208e+00 +0.0000000000000000e+00 -1.1008806330215601e+01 -3.0937094826878269e-02 -5.9320726580940009e-01 +5.9200175918258388e-03
-1.1100000000000000e+01 +8.1495000879040198e+00 +0.0000000000000000e+00 -1.1108886374577500e+01 -3.0937135611818985e-02 -5.9320793986840958e-01 +5.9200757273845019e-03
-1.1199999999999999e+01 +8.1494367423620098e+00 +0.0000000000000000e+00 -1.1208966418581401e+01 -3.0937171302540523e-02 -5.9320861811966319e-01 +5.9201340161444682e-03
-1.1300000000000001e+01 +8.1493728287059604e+00 +0.0000000000000000e+00 -1.1309046462224000e+01 -3.0937200792571326e-02 -5.9320929906408981e-01 +5.9201924240872891e-03
-1.1400000000000000e+01 +8.1493083469249505e+00 +0.0000000000000000e+00 -1.1409126505502300e+01 -3.0937222975322198e-02 -5.9320998120297153e-01 +5.9202509171868353e-03
-1.1500000000000000e+01 +8.1492432970226201e+00 +0.0000000000000000e+00 -1.1509206548412800e+01 -3.0937236744065667e-02 -5.9321066303762193e-01 +5.9203094614057716e-03
-1.1600000000000000e+01 +8.1491776789989707e+00 +0.0000000000000000e+00 -1.1609286590952600e+01 -3.0937240991941169e-02 -5.9321134306953693e-01 +5.9203680226968649e-03
-1.1699999999999999e+01 +8.1491114928576298e+00 +0.0000000000000000e+00 -1.1709366633118099e+01 -3.0937234611949072e-02 -5.9321201980033933e-01 +5.9204265670021973e-03
