# field on trajectory
# s[mm] rx[mm] ry[mm] rz[mm] bx[T] by[T] bz[T]
0.0000000000000000e+00 +8.1649999999999991e+00 +0.0000000000000000e+00 +0.0000000000000000e+00 -3.2184227951327693e-02 -5.9234832325020936e-01 +5.8730308845061467e-03
1.0000000000000001e-01 +8.1649997169837754e+00 +0.0000000000000000e+00 +9.9999999999466030e-02 -3.2184335366666643e-02 -5.9234833834487466e-01 +5.8730377165509681e-03
2.0000000000000001e-01 +8.1649988679350987e+00 +0.0000000000000000e+00 +1.9999999999572809e-01 -3.2184440193975983e-02 -5.9234834256387991e-01 +5.8730487336868826e-03
3.0000000000000004e-01 +8.1649974528539637e+00 +0.0000000000000000e+00 +2.9999999998558236e-01 -3.2184542417425535e-02 -5.9234833651218988e-01 +5.8730636620135833e-03
4.0000000000000002e-01 +8.1649954717403777e+00 +0.0000000000000000e+00 +3.9999999996582480e-01 -3.2184642021192540e-02 -5.9234832079475930e-01 +5.8730822276309054e-03
5.0000000000000000e-01 +8.1649929245943547e+00 +0.0000000000000000e+00 +4.9999999993325156e-01 -3.2184738989460615e-02 -5.9234829601653183e-01 +5.8731041566389575e-03
5.9999999999999998e-01 +8.1649898114159178e+00 +0.0000000000000000e+00 +5.9999999988465869e-01 -3.2184833306418831e-02 -5.9234826278244346e-01 +5.8731291751382905e-03
6.9999999999999996e-01 +8.1649861322050992e+00 +0.0000000000000000e+00 +6.9999999981684224e-01 -3.2184924956260609e-02 -5.9234822169742185e-01 +5.8731570092300373e-03
7.9999999999999993e-01 +8.1649818869619395e+00 +0.0000000000000000e+00 +7.9999999972659830e-01 -3.2185013923182799e-02 -5.9234817336639156e-01 +5.8731873850160947e-03
8.9999999999999991e-01 +8.1649770756864832e+00 +0.0000000000000000e+00 +8.9999999961072297e-01 -3.2185100191384611e-02 -5.9234811839427237e-01 +5.8732200285992438e-03
9.9999999999999989e-01 +8.1649716983787837e+00 +0.0000000000000000e+00 +9.9999999946601226e-01 -3.2185183745066584e-02 -5.9234805738598140e-01 +5.8732546660833331e-03
1.0999999999999999e+00 +8.1649657550388994e+00 +0.0000000000000000e+00 +1.0999999992892624e+00 -3.2185264568429635e-02 -5.9234799094643809e-01 +5.8732910235734142e-03
1.2000000000000000e+00 +8.1649592456668945e+00 +0.0000000000000000e+00 +1.1999999990772694e+00 -3.2185342645674020e-02 -5.9234791968056089e-01 +5.8733288271759013e-03
1.3000000000000000e+00 +8.1649521702628363e+00 +0.0000000000000000e+00 +1.2999999988268292e+00 -3.2185417960998344e-02 -5.9234784419327235e-01 +5.8733678029987352e-03
1.4000000000000001e+00 +8.1649445288267977e+00 +0.0000000000000000e+00 +1.3999999985347380e+00 -3.2185490498598444e-02 -5.9234776508949982e-01 +5.8734076771515178e-03
1.5000000000000002e+00 +8.1649363213588551e+00 +0.0000000000000000e+00 +1.4999999981977918e+00 -3.2185560242666569e-02 -5.9234768297417650e-01 +5.8734481757456835e-03
1.6000000000000003e+00 +8.1649275478590866e+00 +0.0000000000000000e+00 +1.5999999978127868e+00 -3.2185627177390159e-02 -5.9234759845224416e-01 +5.8734890248946566e-03
1.7000000000000004e+00 +8.1649182083275722e+00 +0.0000000000000000e+00 +1.6999999973765190e+00 -3.2185691286951028e-02 -5.9234751212865389e-01 +5.8735299507139812e-03
1.8000000000000005e+00 +8.1649083027643954e+00 +0.0000000000000000e+00 +1.7999999968857845e+00 -3.2185752555524194e-02 -5.9234742460836853e-01 +5.8735706793215069e-03
1.9000000000000006e+00 +8.1648978311696414e+00 +0.0000000000000000e+00 +1.8999999963373795e+00 -3.2185810967276955e-02 -5.9234733649636317e-01 +5.8736109368375195e-03
2.0000000000000004e+00 +8.1648867935433920e+00 +0.0000000000000000e+00 +1.9999999957281001e+00 -3.2185866506367879e-02 -5.9234724839762820e-01 +5.8736504493849141e-03
2.1000000000000005e+00 +8.1648751898857341e+00 +0.0000000000000000e+00 +2.0999999950547421e+00 -3.2185919178892193e-02 -5.9234716086570383e-01 +5.8736890096584941e-03
2.2000000000000006e+00 +8.1648630201967496e+00 +0.0000000000000000e+00 +2.1999999943141022e+00 -3.2185969078723654e-02 -5.9234707424827837e-01 +5.8737266766320829e-03
2.3000000000000007e+00 +8.1648502844765236e+00 +0.0000000000000000e+00 +2.2999999935029760e+00 -3.2186016321680930e-02 -5.9234698884158454e-01 +5.8737635758500635e-03
2.4000000000000008e+00 +8.1648369827251379e+00 +0.0000000000000000e+00 +2.3999999926181594e+00 -3.2186061023581986e-02 -5.9234690494186437e-01 +5.8737998328580081e-03
2.5000000000000009e+00 +8.1648231149426724e+00 +0.0000000000000000e+00 +2.4999999916564488e+00 -3.2186103300244406e-02 -5.9234682284536910e-01 +5.8738355732026338e-03
2.6000000000000010e+00 +8.1648086811292053e+00 +0.0000000000000000e+00 +2.5999999906146405e+00 -3.2186143267485569e-02 -5.9234674284836120e-01 +5.8738709224317532e-03
2.7000000000000011e+00 +8.1647936812848148e+00 +0.0000000000000000e+00 +2.6999999894895303e+00 -3.2186181041122849e-02 -5.9234666524711310e-01 +5.8739060060942292e-03
2.8000000000000012e+00 +8.1647781154095735e+00 +0.0000000000000000e+00 +2.7999999882779147e+00 -3.2186216736973826e-02 -5.9234659033790915e-01 +5.8739409497399215e-03
2.9000000000000012e+00 +8.1647619835035563e+00 +0.0000000000000000e+00 +2.8999999869765891e+00 -3.2186250470856499e-02 -5.9234651841704611e-01 +5.8739758789196472e-03
3.0000000000000013e+00 +8.1647452855668305e+00 +0.0000000000000000e+00 +2.9999999855823503e+00 -3.2186282358589481e-02 -5.9234644978083095e-01 +5.8740109191851263e-03
3.1000000000000014e+00 +8.1647280215994620e+00 +0.0000000000000000e+00 +3.0999999840919941e+00 -3.2186312515992223e-02 -5.9234638472558565e-01 +5.8740461960889280e-03
3.2000000000000015e+00 +8.1647101916015146e+00 +0.0000000000000000e+00 +3.1999999825023164e+00 -3.2186341058885175e-02 -5.9234632354764383e-01 +5.8740818351844378e-03
3.3000000000000016e+00 +8.1646917955730469e+00 +0.0000000000000000e+00 +3.2999999808101137e+00 -3.2186368103090085e-02 -5.9234626654335332e-01 +5.8741179620257948e-03
3.4000000000000017e+00 +8.1646728335141141e+00 +0.0000000000000000e+00 +3.3999999790121818e+00 -3.2186393764430110e-02 -5.9234621400907650e-01 +5.8741547021678520e-03
3.5000000000000018e+00 +8.1646533054247659e+00 +0.0000000000000000e+00 +3.4999999771053170e+00 -3.2186418158730114e-02 -5.9234616624118941e-01 +5.8741921811661241e-03
3.6000000000000019e+00 +8.1646332113050502e+00 +0.0000000000000000e+00 +3.5999999750863152e+00 -3.2186441401816750e-02 -5.9234612353608374e-01 +5.8742305245767347e-03
3.7000000000000020e+00 +8.1646125511550078e+00 +0.0000000000000000e+00 +3.6999999729519728e+00 -3.2186463609518816e-02 -5.9234608619016682e-01 +5.8742698579563784e-03
3.8000000000000020e+00 +8.1645913249746744e+00 +0.0000000000000000e+00 +3.7999999706990857e+00 -3.2186484897667372e-02 -5.9234605449986166e-01 +5.8743103068622706e-03
3.9000000000000021e+00 +8.1645695327640819e+00 +0.0000000000000000e+00 +3.8999999683244502e+00 -3.2186505382095922e-02 -5.9234602876160758e-01 +5.8743519968520834e-03
4.0000000000000018e+00 +8.1645471745232552e+00 +0.0000000000000000e+00 +3.9999999658248622e+00 -3.2186525178640742e-02 -5.9234600927186143e-01 +5.8743950534839145e-03
4.1000000000000014e+00 +8.1645242502522137e+00 +0.0000000000000000e+00 +4.0999999631971180e+00 -3.2186544439920028e-02 -5.9234599629413798e-01 +5.8744395890273212e-03
4.2000000000000011e+00 +8.1645007599509700e+00 +0.0000000000000000e+00 +4.1999999604380136e+00 -3.2186563465669331e-02 -5.9234598996012844e-01 +5.8744856625953298e-03
4.3000000000000007e+00 +8.1644767036195312e+00 +0.0000000000000000e+00 +4.2999999575443448e+00 -3.2186582592400544e-02 -5.9234599036856128e-01 +5.8745333200090604e-03
4.4000000000000004e+00 +8.1644520812578971e+00 +0.0000000000000000e+00 +4.3999999545129080e+00 -3.2186602156621939e-02 -5.9234599761816120e-01 +5.8745826070861580e-03
4.5000000000000000e+00 +8.1644268928660626e+00 +0.0000000000000000e+00 +4.4999999513404987e+00 -3.2186622494838051e-02 -5.9234601180764634e-01 +5.8746335696405055e-03
4.5999999999999996e+00 +8.1644011384440152e+00 +0.0000000000000000e+00 +4.5999999480239140e+00 -3.2186643943549489e-02 -5.9234603303572864e-01 +5.8746862534820093e-03
4.6999999999999993e+00 +8.1643748179917335e+00 +0.0000000000000000e+00 +4.6999999445599494e+00 -3.2186666839252719e-02 -5.9234606140111201e-01 +5.8747407044163116e-03
4.7999999999999989e+00 +8.1643479315091927e+00 +0.0000000000000000e+00 +4.7999999409454013e+00 -3.2186691518439899e-02 -5.9234609700249241e-01 +5.8747969682445495e-03
4.8999999999999986e+00 +8.1643204789963608e+00 +0.0000000000000000e+00 +4.8999999371770651e+00 -3.2186718317598673e-02 -5.9234613993855656e-01 +5.8748550907631002e-03
4.9999999999999982e+00 +8.1642924604531952e+00 +0.0000000000000000e+00 +4.9999999332517380e+00 -3.2186747573211959e-02 -5.9234619030798030e-01 +5.8749151177633239e-03
5.0999999999999979e+00 +8.1642638758796497e+00 +0.0000000000000000e+00 +5.0999999291662155e+00 -3.2186779621757824e-02 -5.9234624820942938e-01 +5.8749770950313066e-03
5.1999999999999975e+00 +8.1642347252756711e+00 +0.0000000000000000e+00 +5.1999999249172930e+00 -3.2186814799709230e-02 -5.9234631374155733e-01 +5.8750410683476193e-03
5.2999999999999972e+00 +8.1642050086411952e+00 +0.0000000000000000e+00 +5.2999999205017678e+00 -3.2186853443533836e-02 -5.9234638700300479e-01 +5.8751070834870429e-03
5.3999999999999968e+00 +8.1641747259761548e+00 +0.0000000000000000e+00 +5.3999999159164354e+00 -3.2186895889693881e-02 -5.9234646809239933e-01 +5.8751751862183245e-03
5.4999999999999964e+00 +8.1641438772804733e+00 +0.0000000000000000e+00 +5.4999999111580919e+00 -3.2186942474645895e-02 -5.9234655710835360e-01 +5.8752454223039256e-03
5.5999999999999961e+00 +8.1641124625540655e+00 +0.0000000000000000e+00 +5.5999999062235331e+00 -3.2186993534840606e-02 -5.9234665414946597e-01 +5.8753178374997576e-03
5.6999999999999957e+00 +8.1640804817968409e+00 +0.0000000000000000e+00 +5.6999999011095550e+00 -3.2187049406722651e-02 -5.9234675931431746e-01 +5.8753924775549462e-03
5.7999999999999954e+00 +8.1640479350086981e+00 +0.0000000000000000e+00 +5.7999998958129542e+00 -3.2187110426730406e-02 -5.9234687270147290e-01 +5.8754693882115475e-03
5.8999999999999950e+00 +8.1640148221895323e+00 +0.0000000000000000e+00 +5.8999998903305269e+00 -3.2187176931295858e-02 -5.9234699440947947e-01 +5.8755486152043193e-03
5.9999999999999947e+00 +8.1639811433392264e+00 +0.0000000000000000e+00 +5.9999998846590685e+00 -3.2187249256844325e-02 -5.9234712453686511e-01 +5.8756302042604546e-03
6.0999999999999943e+00 +8.1639468984576578e+00 +0.0000000000000000e+00 +6.0999998787953755e+00 -3.2187327601478362e-02 -5.9234726319037601e-01 +5.8757141817420699e-03
6.1999999999999940e+00 +8.1639120875446949e+00 +0.0000000000000000e+00 +6.1999998727362433e+00 -3.2187411610029214e-02 -5.9234741050969197e-01 +5.8758004965773630e-03
6.2999999999999936e+00 +8.1638767106001993e+00 +0.0000000000000000e+00 +6.2999998664784691e+00 -3.2187500789007541e-02 -5.9234756664272725e-01 +5.8758890783384204e-03
6.3999999999999932e+00 +8.1638407676240217e+00 +0.0000000000000000e+00 +6.3999998600188475e+00 -3.2187594644920652e-02 -5.9234773173739486e-01 +5.8759798565996245e-03
6.4999999999999929e+00 +8.1638042586160058e+00 +0.0000000000000000e+00 +6.4999998533541756e+00 -3.2187692684272518e-02 -5.9234790594160580e-01 +5.8760727609378132e-03
6.5999999999999925e+00 +8.1637671835759846e+00 +0.0000000000000000e+00 +6.5999998464812490e+00 -3.2187794413563627e-02 -5.9234808940326988e-01 +5.8761677209324334e-03
6.6999999999999922e+00 +8.1637295425037859e+00 +0.0000000000000000e+00 +6.6999998393968641e+00 -3.2187899339291066e-02 -5.9234828227029523e-01 +5.8762646661657267e-03
6.7999999999999918e+00 +8.1636913353992266e+00 +0.0000000000000000e+00 +6.7999998320978161e+00 -3.2188006967948442e-02 -5.9234848469058810e-01 +5.8763635262228664e-03
6.8999999999999915e+00 +8.1636525622621132e+00 +0.0000000000000000e+00 +6.8999998245809016e+00 -3.2188116806025825e-02 -5.9234869681205216e-01 +5.8764642306921378e-03
6.9999999999999911e+00 +8.1636132230922449e+00 +0.0000000000000000e+00 +6.9999998168429167e+00 -3.2188228360009806e-02 -5.9234891878259099e-01 +5.8765667091651031e-03
7.0999999999999908e+00 +8.1635733178894121e+00 +0.0000000000000000e+00 +7.0999998088806571e+00 -3.2188341136383386e-02 -5.9234915075010497e-01 +5.8766708912367524e-03
7.1999999999999904e+00 +8.1635328466533927e+00 +0.0000000000000000e+00 +7.1999998006909189e+00 -3.2188454641626014e-02 -5.9234939286249200e-01 +5.8767767065056788e-03
7.2999999999999901e+00 +8.1634918093839577e+00 +0.0000000000000000e+00 +7.2999997922704978e+00 -3.2188568382213512e-02 -5.9234964526764966e-01 +5.8768840845742406e-03
7.3999999999999897e+00 +8.1634502060808671e+00 +0.0000000000000000e+00 +7.3999997836161899e+00 -3.2188681864618082e-02 -5.9234990811347199e-01 +5.8769929550487173e-03
7.4999999999999893e+00 +8.1634080367438706e+00 +0.0000000000000000e+00 +7.4999997747247908e+00 -3.2188794595308254e-02 -5.9235018154785035e-01 +5.8771032475394827e-03
7.5999999999999890e+00 +8.1633653013727088e+00 +0.0000000000000000e+00 +7.5999997655930969e+00 -3.2188906080748939e-02 -5.9235046571867567e-01 +5.8772148916611620e-03
7.6999999999999886e+00 +8.1633219999671098e+00 +0.0000000000000000e+00 +7.6999997562179043e+00 -3.2189015827401309e-02 -5.9235076077383486e-01 +5.8773278170327990e-03
7.7999999999999883e+00 +8.1632781325267949e+00 +0.0000000000000000e+00 +7.7999997465960087e+00 -3.2189123341722824e-02 -5.9235106686121308e-01 +5.8774419532780231e-03
7.8999999999999879e+00 +8.1632336990514727e+00 +0.0000000000000000e+00 +7.8999997367242063e+00 -3.2189228130167204e-02 -5.9235138412869270e-01 +5.8775572300252023e-03
7.9999999999999876e+00 +8.1631886995408411e+00 +0.0000000000000000e+00 +7.9999997265992926e+00 -3.2189329699184435e-02 -5.9235171272415377e-01 +5.8776735769076171e-03
8.0999999999999872e+00 +8.1631431339945877e+00 +0.0000000000000000e+00 +8.0999997162180630e+00 -3.2189427759255734e-02 -5.9235205256814238e-01 +5.8777909322078005e-03
8.1999999999999869e+00 +8.1630970024123890e+00 +0.0000000000000000e+00 +8.1999997055773139e+00 -3.2189522837023130e-02 -5.9235240267187583e-01 +5.8779092687900299e-03
8.2999999999999865e+00 +8.1630503047939129e+00 +0.0000000000000000e+00 +8.2999996946738417e+00 -3.2189615663212975e-02 -5.9235276181924645e-01 +5.8780285681669419e-03
8.3999999999999861e+00 +8.1630030411388166e+00 +0.0000000000000000e+00 +8.3999996835044417e+00 -3.2189706968603619e-02 -5.9235312879415791e-01 +5.8781488118552043e-03
8.4999999999999858e+00 +8.1629552114467518e+00 +0.0000000000000000e+00 +8.4999996720659112e+00 -3.2189797484026998e-02 -5.9235350238052653e-01 +5.8782699813756450e-03
8.5999999999999854e+00 +8.1629068157173617e+00 +0.0000000000000000e+00 +8.5999996603550439e+00 -3.2189887940370164e-02 -5.9235388136227929e-01 +5.8783920582533610e-03
8.6999999999999851e+00 +8.1628578539502872e+00 +0.0000000000000000e+00 +8.6999996483686370e+00 -3.2189979068576971e-02 -5.9235426452335749e-01 +5.8785150240178432e-03
8.7999999999999847e+00 +8.1628083261451643e+00 +0.0000000000000000e+00 +8.7999996361034860e+00 -3.2190071599649671e-02 -5.9235465064771409e-01 +5.8786388602030835e-03
8.8999999999999844e+00 +8.1627582323016252e+00 +0.0000000000000000e+00 +8.8999996235563863e+00 -3.2190166264650495e-02 -5.9235503851931592e-01 +5.8787635483477105e-03
8.9999999999999840e+00 +8.1627075724193006e+00 +0.0000000000000000e+00 +8.9999996107241333e+00 -3.2190263794703231e-02 -5.9235542692214305e-01 +5.8788890699950878e-03
9.0999999999999837e+00 +8.1626563464978208e+00 +0.0000000000000000e+00 +9.0999995976035244e+00 -3.2190364920994897e-02 -5.9235581464018994e-01 +5.8790154066934511e-03
9.1999999999999833e+00 +8.1626045545368182e+00 +0.0000000000000000e+00 +9.1999995841913531e+00 -3.2190470374777264e-02 -5.9235620045746451e-01 +5.8791425399960144e-03
9.2999999999999829e+00 +8.1625521965359251e+00 +0.0000000000000000e+00 +9.2999995704844167e+00 -3.2190580887368529e-02 -5.9235658315799078e-01 +5.8792704514610888e-03
9.3999999999999826e+00 +8.1624992724947774e+00 +0.0000000000000000e+00 +9.3999995564795125e+00 -3.2190697190154875e-02 -5.9235696152580686e-01 +5.8793991226522057e-03
9.4999999999999822e+00 +8.1624457824130161e+00 +0.0000000000000000e+00 +9.4999995421734340e+00 -3.2190820014592066e-02 -5.9235733434496651e-01 +5.8795285351382360e-03
9.5999999999999819e+00 +8.1623917262902861e+00 +0.0000000000000000e+00 +9.5999995275629768e+00 -3.2190950092207044e-02 -5.9235770039953928e-01 +5.8796586704934926e-03
9.6999999999999815e+00 +8.1623371041262391e+00 +0.0000000000000000e+00 +9.6999995126449381e+00 -3.2191088154599548e-02 -5.9235805847361112e-01 +5.8797895102978689e-03
9.7999999999999812e+00 +8.1622819159205360e+00 +0.0000000000000000e+00 +9.7999994974161133e+00 -3.2191234933443724e-02 -5.9235840735128364e-01 +5.8799210361369448e-03
9.8999999999999808e+00 +8.1622261616728444e+00 +0.0000000000000000e+00 +9.8999994818732979e+00 -3.2191391160489670e-02 -5.9235874581667669e-01 +5.8800532296021139e-03
9.9999999999999805e+00 +8.1621698413828430e+00 +0.0000000000000000e+00 +9.9999994660132874e+00 -3.2191557567565102e-02 -5.9235907265392618e-01 +5.8801860722906846e-03
1.0099999999999980e+01 +8.1621129550502207e+00 +0.0000000000000000e+00 +1.0099999449832879e+01 -3.2191734533931510e-02 -5.9235938694658385e-01 +5.8803195584967135e-03
1.0199999999999980e+01 +8.1620555026746793e+00 +0.0000000000000000e+00 +1.0199999433328866e+01 -3.2191921028272771e-02 -5.9235968897581293e-01 +5.8804537332804449e-03
1.0299999999999979e+01 +8.1619974842559326e+00 +0.0000000000000000e+00 +1.0299999416498046e+01 -3.2192115666546790e-02 -5.9235997932215922e-01 +5.8805886543895321e-03
1.0399999999999979e+01 +8.1619388997937055e+00 +0.0000000000000000e+00 +1.0399999399337215e+01 -3.2192317064626393e-02 -5.9236025856613850e-01 +5.8807243795668948e-03
1.0499999999999979e+01 +8.1618797492877313e+00 +0.0000000000000000e+00 +1.0499999381843168e+01 -3.2192523838296891e-02 -5.9236052728823685e-01 +5.8808609665505791e-03
1.0599999999999978e+01 +8.1618200327377561e+00 +0.0000000000000000e+00 +1.0599999364012701e+01 -3.2192734603253718e-02 -5.9236078606890863e-01 +5.8809984730736177e-03
1.0699999999999978e+01 +8.1617597501435348e+00 +0.0000000000000000e+00 +1.0699999345842610e+01 -3.2192947975099882e-02 -5.9236103548857688e-01 +5.8811369568638732e-03
1.0799999999999978e+01 +8.1616989015048294e+00 +0.0000000000000000e+00 +1.0799999327329690e+01 -3.2193162569343743e-02 -5.9236127612763168e-01 +5.8812764756438962e-03
1.0899999999999977e+01 +8.1616374868214123e+00 +0.0000000000000000e+00 +1.0899999308470738e+01 -3.2193377001396399e-02 -5.9236150856643000e-01 +5.8814170871307790e-03
1.0999999999999977e+01 +8.1615755060930653e+00 +0.0000000000000000e+00 +1.0999999289262549e+01 -3.2193589886569410e-02 -5.9236173338529452e-01 +5.8815588490360050e-03
1.1099999999999977e+01 +8.1615129593195732e+00 +0.0000000000000000e+00 +1.1099999269701920e+01 -3.2193799840072410e-02 -5.9236195116451240e-01 +5.8817018190653230e-03
1.1199999999999976e+01 +8.1614498465007301e+00 +0.0000000000000000e+00 +1.1199999249785645e+01 -3.2194005477010498e-02 -5.9236216248433637e-01 +5.8818460549185632e-03
1.1299999999999976e+01 +8.1613861676363371e+00 +0.0000000000000000e+00 +1.1299999229510520e+01 -3.2194205412382111e-02 -5.9236236792498109e-01 +5.8819916142895286e-03
1.1399999999999975e+01 +8.1613219227262004e+00 +0.0000000000000000e+00 +1.1399999208873343e+01 -3.2194398261076347e-02 -5.9236256806662546e-01 +5.8821385548658289e-03
1.1499999999999975e+01 +8.1612571117701300e+00 +0.0000000000000000e+00 +1.1499999187870907e+01 -3.2194582637870728e-02 -5.9236276348940886e-01 +5.8822869343287416e-03
1.1599999999999975e+01 +8.1611917347679395e+00 +0.0000000000000000e+00 +1.1599999166500009e+01 -3.2194757157428741e-02 -5.9236295477343381e-01 +5.8824368103530637e-03
1.1699999999999974e+01 +8.1611257917194511e+00 +0.0000000000000000e+00 +1.1699999144757445e+01 -3.2194920434297385e-02 -5.9236314249876088e-01 +5.8825882406069582e-03
1.1799999999999974e+01 +8.1610592826244854e+00 +0.0000000000000000e+00 +1.1799999122640012e+01 -3.2195071082904821e-02 -5.9236332724541219e-01 +5.8827412827518275e-03
