# field on trajectory
# s[mm] rx[mm] ry[mm] rz[mm] bx[T] by[T] bz[T]
-0.0000000000000000e+00 +8.1530000000000094e+00 +0.0000000000000000e+00 -0.0000000000000000e+00 -2.7613736781772376e-02 -5.3691330387251668e-01 +5.3615238025454884e-03
-1.0000000000000001e-01 +8.1529997163925092e+00 +0.0000000000000000e+00 -9.9999999999463796e-02 -2.7613626596787705e-02 -5.3691338534183908e-01 +5.3615017647624975e-03
-2.0000000000000001e-01 +8.1529988655711296e+00 +0.0000000000000000e+00 -1.9999999999571000e-01 -2.7613512700200859e-02 -5.3691344285248543e-01 +5.3614797580820934e-03
-2.9999999999999999e-01 +8.1529974475415692e+00 +0.0000000000000000e+00 -2.9999999998552201e-01 -2.7613394891684878e-02 -5.3691347838909853e-01 +5.3614578303808474e-03
-4.0000000000000002e-01 +8.1529954622965306e+00 +0.0000000000000000e+00 -3.9999999996568197e-01 -2.7613272970915165e-02 -5.3691349393642951e-01 +5.3614360295360878e-03
-5.0000000000000000e-01 +8.1529929098396696e+00 +0.0000000000000000e+00 -4.9999999993297300e-01 -2.7613146737560143e-02 -5.3691349147915968e-01 +5.3614144034240347e-03
-5.9999999999999998e-01 +8.1529897901673394e+00 +0.0000000000000000e+00 -5.9999999988417696e-01 -2.7613015991288858e-02 -5.3691347300203063e-01 +5.3613929999210795e-03
-6.9999999999999996e-01 +8.1529861032831796e+00 +0.0000000000000000e+00 -6.9999999981607697e-01 -2.7612880531765416e-02 -5.3691344048973377e-01 +5.3613718669026332e-03
-8.0000000000000004e-01 +8.1529818491871993e+00 +0.0000000000000000e+00 -7.9999999972545699e-01 -2.7612740158653597e-02 -5.3691339592698695e-01 +5.3613510522438441e-03
-9.0000000000000002e-01 +8.1529770278793894e+00 +0.0000000000000000e+00 -8.9999999960909804e-01 -2.7612594671615750e-02 -5.3691334129850432e-01 +5.3613306038192594e-03
-1.0000000000000000e+00 +8.1529716393597500e+00 +0.0000000000000000e+00 -9.9999999946378304e-01 -2.7612443870313006e-02 -5.3691327858899374e-01 +5.3613105695027533e-03
-1.1000000000000001e+00 +8.1529656836210105e+00 +0.0000000000000000e+00 -1.0999999992862901e+00 -2.7612287554408543e-02 -5.3691320978320545e-01 +5.3612909971679753e-03
-1.2000000000000000e+00 +8.1529591606740706e+00 +0.0000000000000000e+00 -1.1999999990734200e+00 -2.7612125523557535e-02 -5.3691313686574249e-01 +5.3612719346863924e-03
-1.3000000000000000e+00 +8.1529520705153100e+00 +0.0000000000000000e+00 -1.2999999988219300e+00 -2.7611957577420677e-02 -5.3691306182129783e-01 +5.3612534299296360e-03
-1.3999999999999999e+00 +8.1529444131410909e+00 +0.0000000000000000e+00 -1.3999999985286200e+00 -2.7611783515658586e-02 -5.3691298663454357e-01 +5.3612355307683570e-03
-1.5000000000000000e+00 +8.1529361885550298e+00 +0.0000000000000000e+00 -1.4999999981902701e+00 -2.7611603137929149e-02 -5.3691291329007429e-01 +5.3612182850715819e-03
-1.6000000000000001e+00 +8.1529273967571498e+00 +0.0000000000000000e+00 -1.5999999978036501e+00 -2.7611416243892184e-02 -5.3691284377248349e-01 +5.3612017407074731e-03
-1.7000000000000000e+00 +8.1529180377474404e+00 +0.0000000000000000e+00 -1.6999999973655600e+00 -2.7611222633208258e-02 -5.3691278006633436e-01 +5.3611859455429626e-03
-1.8000000000000000e+00 +8.1529081115222706e+00 +0.0000000000000000e+00 -1.7999999968727800e+00 -2.7611022105540457e-02 -5.3691272415618296e-01 +5.3611709474439568e-03
-1.8999999999999999e+00 +8.1528976180852606e+00 +0.0000000000000000e+00 -1.8999999963220899e+00 -2.7610814460550220e-02 -5.3691267802649301e-01 +5.3611567942744454e-03
-2.0000000000000000e+00 +8.1528865574327902e+00 +0.0000000000000000e+00 -1.9999999957102601e+00 -2.7610599497903537e-02 -5.3691264366174107e-01 +5.3611435338974918e-03
-2.1000000000000001e+00 +8.1528749295721408e+00 +0.0000000000000000e+00 -2.0999999950340902e+00 -2.7610377299990274e-02 -5.3691262273261786e-01 +5.3611311998779934e-03
-2.2000000000000002e+00 +8.1528627344960096e+00 +0.0000000000000000e+00 -2.1999999942903599e+00 -2.7610149080115956e-02 -5.3691261565523962e-01 +5.3611197685974219e-03
-2.2999999999999998e+00 +8.1528499722080596e+00 +0.0000000000000000e+00 -2.2999999934758399e+00 -2.7609916334315653e-02 -5.3691262253196748e-01 +5.3611092021401676e-03
-2.3999999999999999e+00 +8.1528366427046404e+00 +0.0000000000000000e+00 -2.3999999925873299e+00 -2.7609680558636197e-02 -5.3691264346520418e-01 +5.3610994625908868e-03
-2.5000000000000000e+00 +8.1528227459894005e+00 +0.0000000000000000e+00 -2.4999999916215998e+00 -2.7609443249131109e-02 -5.3691267855728997e-01 +5.3610905120334987e-03
-2.6000000000000001e+00 +8.1528082820659602e+00 +0.0000000000000000e+00 -2.5999999905754398e+00 -2.7609205901864491e-02 -5.3691272791055700e-01 +5.3610823125518044e-03
-2.7000000000000002e+00 +8.1527932509234198e+00 +0.0000000000000000e+00 -2.6999999894456299e+00 -2.7608970012917729e-02 -5.3691279162743555e-01 +5.3610748262306347e-03
-2.7999999999999998e+00 +8.1527776525726896e+00 +0.0000000000000000e+00 -2.7999999882289601e+00 -2.7608737078375713e-02 -5.3691286981018993e-01 +5.3610680151532104e-03
-2.8999999999999999e+00 +8.1527614870065008e+00 +0.0000000000000000e+00 -2.8999999869222002e+00 -2.7608508594343880e-02 -5.3691296256121201e-01 +5.3610618414042001e-03
-3.0000000000000000e+00 +8.1527447542284808e+00 +0.0000000000000000e+00 -2.9999999855221300e+00 -2.7608286056937360e-02 -5.3691306998280874e-01 +5.3610562670676262e-03
-3.1000000000000001e+00 +8.1527274542386294e+00 +0.0000000000000000e+00 -3.0999999840255499e+00 -2.7608070962287720e-02 -5.3691319217731104e-01 +5.3610512542280227e-03
-3.2000000000000002e+00 +8.1527095870333106e+00 +0.0000000000000000e+00 -3.1999999824292300e+00 -2.7607864806543835e-02 -5.3691332924707280e-01 +5.3610467649704962e-03
-3.2999999999999998e+00 +8.1526911526198091e+00 +0.0000000000000000e+00 -3.2999999807299600e+00 -2.7607669085866929e-02 -5.3691348129436645e-01 +5.3610427613797257e-03
-3.3999999999999999e+00 +8.1526721509872004e+00 +0.0000000000000000e+00 -3.3999999789245101e+00 -2.7607485296443184e-02 -5.3691364842159806e-01 +5.3610392055422010e-03
-3.5000000000000000e+00 +8.1526525821464002e+00 +0.0000000000000000e+00 -3.4999999770096801e+00 -2.7607314934468476e-02 -5.3691383073101340e-01 +5.3610360595433030e-03
-3.6000000000000001e+00 +8.1526324460901396e+00 +0.0000000000000000e+00 -3.5999999749822500e+00 -2.7607159496165413e-02 -5.3691402832499258e-01 +5.3610332854703768e-03
-3.7000000000000002e+00 +8.1526117428220495e+00 +0.0000000000000000e+00 -3.6999999728389801e+00 -2.7607020477772456e-02 -5.3691424130583898e-01 +5.3610308454106175e-03
-3.7999999999999998e+00 +8.1525904723421299e+00 +0.0000000000000000e+00 -3.7999999705766800e+00 -2.7606899375550723e-02 -5.3691446977588553e-01 +5.3610287014522369e-03
-3.8999999999999999e+00 +8.1525686346503807e+00 +0.0000000000000000e+00 -3.8999999681921298e+00 -2.7606797685783339e-02 -5.3691471383747003e-01 +5.3610268156842628e-03
-4.0000000000000000e+00 +8.1525462297431694e+00 +0.0000000000000000e+00 -3.9999999656820902e+00 -2.7606716904777798e-02 -5.3691497359296159e-01 +5.3610251501968759e-03
-4.0999999999999996e+00 +8.1525232576241304e+00 +0.0000000000000000e+00 -4.0999999630433699e+00 -2.7606658069356676e-02 -5.3691524892650022e-01 +5.3610236737580957e-03
-4.2000000000000002e+00 +8.1524997182896204e+00 +0.0000000000000000e+00 -4.1999999602727298e+00 -2.7606620378327566e-02 -5.3691553884956777e-01 +5.3610223818469274e-03
-4.2999999999999998e+00 +8.1524756117469206e+00 +0.0000000000000000e+00 -4.2999999573669703e+00 -2.7606602570963493e-02 -5.3691584215542831e-01 +5.3610212766193373e-03
-4.4000000000000004e+00 +8.1524509379887604e+00 +0.0000000000000000e+00 -4.3999999543228601e+00 -2.7606603386513433e-02 -5.3691615763750411e-01 +5.3610203602326755e-03
-4.5000000000000000e+00 +8.1524256970187707e+00 +0.0000000000000000e+00 -4.4999999511372000e+00 -2.7606621564189870e-02 -5.3691648408919268e-01 +5.3610196348438032e-03
-4.5999999999999996e+00 +8.1523998888369498e+00 +0.0000000000000000e+00 -4.5999999478067499e+00 -2.7606655843172432e-02 -5.3691682030397792e-01 +5.3610191026102101e-03
-4.7000000000000002e+00 +8.1523735134396702e+00 +0.0000000000000000e+00 -4.6999999443283098e+00 -2.7606704962605574e-02 -5.3691716507543052e-01 +5.3610187656900204e-03
-4.7999999999999998e+00 +8.1523465708305594e+00 +0.0000000000000000e+00 -4.7999999406986600e+00 -2.7606767661592004e-02 -5.3691751719713532e-01 +5.3610186262412207e-03
-4.9000000000000004e+00 +8.1523190610096208e+00 +0.0000000000000000e+00 -4.8999999369145701e+00 -2.7606842679194783e-02 -5.3691787546277070e-01 +5.3610186864224791e-03
-5.0000000000000000e+00 +8.1522909839768491e+00 +0.0000000000000000e+00 -4.9999999329728402e+00 -2.7606928754433682e-02 -5.3691823866608845e-01 +5.3610189483929158e-03
-5.0999999999999996e+00 +8.1522623397286207e+00 +0.0000000000000000e+00 -5.0999999288702398e+00 -2.7607024626284327e-02 -5.3691860560094140e-01 +5.3610194143123751e-03
-5.2000000000000002e+00 +8.1522331282685592e+00 +0.0000000000000000e+00 -5.1999999246035600e+00 -2.7607129033671646e-02 -5.3691897506120911e-01 +5.3610200863406666e-03
-5.2999999999999998e+00 +8.1522033495966806e+00 +0.0000000000000000e+00 -5.2999999201695802e+00 -2.7607240715471919e-02 -5.3691934584087897e-01 +5.3610209666383659e-03
-5.4000000000000004e+00 +8.1521730037093203e+00 +0.0000000000000000e+00 -5.3999999155650800e+00 -2.7607358410510648e-02 -5.3691971673405092e-01 +5.3610220573668604e-03
-5.5000000000000000e+00 +8.1521420906137791e+00 +0.0000000000000000e+00 -5.4999999107868396e+00 -2.7607480857554330e-02 -5.3692008653483358e-01 +5.3610233606872868e-03
-5.5999999999999996e+00 +8.1521106102991308e+00 +0.0000000000000000e+00 -5.5999999058316599e+00 -2.7607606795320084e-02 -5.3692045403756194e-01 +5.3610248787627178e-03
-5.7000000000000002e+00 +8.1520785627762997e+00 +0.0000000000000000e+00 -5.6999999006963096e+00 -2.7607734962457144e-02 -5.3692081803650615e-01 +5.3610266137551965e-03
-5.7999999999999998e+00 +8.1520459480379905e+00 +0.0000000000000000e+00 -5.7999998953775700e+00 -2.7607864097560851e-02 -5.3692117732616862e-01 +5.3610285678287566e-03
-5.9000000000000004e+00 +8.1520127660915005e+00 +0.0000000000000000e+00 -5.8999998898722197e+00 -2.7607992939157115e-02 -5.3692153070104698e-01 +5.3610307431469929e-03
-5.9999999999999902e+00 +8.1519790169259103e+00 +0.0000000000000000e+00 -5.9999998841770603e+00 -2.7608120225713503e-02 -5.3692187695587967e-01 +5.3610331418755316e-03
-6.0999999999999899e+00 +8.1519447005521197e+00 +0.0000000000000000e+00 -6.0999998782888598e+00 -2.7608244794009477e-02 -5.3692221518781480e-01 +5.3610357752418916e-03
-6.1999999999999904e+00 +8.1519098169665103e+00 +0.0000000000000000e+00 -6.1999998722044003e+00 -2.7608365874354085e-02 -5.3692254570401277e-01 +5.3610386907266792e-03
-6.2999999999999901e+00 +8.1518743661654298e+00 +0.0000000000000000e+00 -6.2999998659204701e+00 -2.7608482795478655e-02 -5.3692286911403975e-01 +5.3610419448736884e-03
-6.3999999999999897e+00 +8.1518383481488907e+00 +0.0000000000000000e+00 -6.3999998594338496e+00 -2.7608594886157415e-02 -5.3692318602735678e-01 +5.3610455942267096e-03
-6.4999999999999902e+00 +8.1518017629241495e+00 +0.0000000000000000e+00 -6.4999998527413201e+00 -2.7608701475208327e-02 -5.3692349705328857e-01 +5.3610496953292695e-03
-6.5999999999999899e+00 +8.1517646104839496e+00 +0.0000000000000000e+00 -6.5999998458396698e+00 -2.7608801891504268e-02 -5.3692380280118068e-01 +5.3610543047262482e-03
-6.6999999999999904e+00 +8.1517268908319203e+00 +0.0000000000000000e+00 -6.6999998387256703e+00 -2.7608895463965100e-02 -5.3692410388020695e-01 +5.3610594789620008e-03
-6.7999999999999901e+00 +8.1516886039680703e+00 +0.0000000000000000e+00 -6.7999998313961196e+00 -2.7608981521565826e-02 -5.3692440089947313e-01 +5.3610652745814348e-03
-6.8999999999999897e+00 +8.1516497498923908e+00 +0.0000000000000000e+00 -6.8999998238477902e+00 -2.7609059393337534e-02 -5.3692469446798574e-01 +5.3610717481297485e-03
-6.9999999999999902e+00 +8.1516103286012402e+00 +0.0000000000000000e+00 -6.9999998160774597e+00 -2.7609128408371132e-02 -5.3692498519467435e-01 +5.3610789561527065e-03
-7.0999999999999899e+00 +8.1515703400982602e+00 +0.0000000000000000e+00 -7.0999998080819298e+00 -2.7609187895815353e-02 -5.3692527368830656e-01 +5.3610869551958288e-03
-7.1999999999999904e+00 +8.1515297843834595e+00 +0.0000000000000000e+00 -7.1999997998579603e+00 -2.7609237184883430e-02 -5.3692556055756557e-01 +5.3610958018052088e-03
-7.2999999999999901e+00 +8.1514886614531896e+00 +0.0000000000000000e+00 -7.2999997914023496e+00 -2.7609275604855498e-02 -5.3692584641104379e-01 +5.3611055525275208e-03
-7.3999999999999897e+00 +8.1514469713147300e+00 +0.0000000000000000e+00 -7.3999997827118804e+00 -2.7609302485075003e-02 -5.3692613185713434e-01 +5.3611162639089363e-03
-7.4999999999999902e+00 +8.1514047139571595e+00 +0.0000000000000000e+00 -7.4999997737833199e+00 -2.7609317154962842e-02 -5.3692641750423831e-01 +5.3611279924972990e-03
-7.5999999999999899e+00 +8.1513618893914099e+00 +0.0000000000000000e+00 -7.5999997646134698e+00 -2.7609318944003501e-02 -5.3692670396046716e-01 +5.3611407948391471e-03
-7.6999999999999904e+00 +8.1513184976138309e+00 +0.0000000000000000e+00 -7.6999997551991104e+00 -2.7609307181762126e-02 -5.3692699183390669e-01 +5.3611547274824275e-03
-7.7999999999999901e+00 +8.1512745386207808e+00 +0.0000000000000000e+00 -7.7999997455370096e+00 -2.7609281197880968e-02 -5.3692728173250592e-01 +5.3611698469754185e-03
-7.8999999999999897e+00 +8.1512300124159101e+00 +0.0000000000000000e+00 -7.8999997356239602e+00 -2.7609240322078767e-02 -5.3692757426401649e-01 +5.3611862098661882e-03
-7.9999999999999902e+00 +8.1511849189955701e+00 +0.0000000000000000e+00 -7.9999997254567399e+00 -2.7609183884159002e-02 -5.3692787003609932e-01 +5.3612038727036890e-03
-8.0999999999999908e+00 +8.1511392583670403e+00 +0.0000000000000000e+00 -8.0999997150321406e+00 -2.7609111488825513e-02 -5.3692816975675184e-01 +5.3612228834257558e-03
-8.1999999999999904e+00 +8.1510930305230396e+00 +0.0000000000000000e+00 -8.1999997043469399e+00 -2.7609023840122822e-02 -5.3692847453624926e-01 +5.3612432555303546e-03
-8.2999999999999901e+00 +8.1510462354672200e+00 +0.0000000000000000e+00 -8.2999996933979094e+00 -2.7608921916883945e-02 -5.3692878558534862e-01 +5.3612649939085303e-03
-8.3999999999999897e+00 +8.1509988731995708e+00 +0.0000000000000000e+00 -8.3999996821818605e+00 -2.7608806697898849e-02 -5.3692910411484207e-01 +5.3612881034568365e-03
-8.4999999999999893e+00 +8.1509509437164507e+00 +0.0000000000000000e+00 -8.4999996706955496e+00 -2.7608679161912755e-02 -5.3692943133555726e-01 +5.3613125890774648e-03
-8.5999999999999908e+00 +8.1509024470215099e+00 +0.0000000000000000e+00 -8.5999996589357703e+00 -2.7608540287620140e-02 -5.3692976845827700e-01 +5.3613384556775879e-03
-8.6999999999999904e+00 +8.1508533831147396e+00 +0.0000000000000000e+00 -8.6999996468993004e+00 -2.7608391053667431e-02 -5.3693011669382162e-01 +5.3613657081703243e-03
-8.7999999999999794e+00 +8.1508037519961398e+00 +0.0000000000000000e+00 -8.7999996345829192e+00 -2.7608232438649887e-02 -5.3693047725302201e-01 +5.3613943514745997e-03
-8.8999999999999808e+00 +8.1507535536620708e+00 +0.0000000000000000e+00 -8.8999996219834205e+00 -2.7608065421111473e-02 -5.3693085134674834e-01 +5.3614243905155921e-03
-8.9999999999999805e+00 +8.1507027881161793e+00 +0.0000000000000000e+00 -8.9999996090975891e+00 -2.7607890979538717e-02 -5.3693124018582872e-01 +5.3614558302240434e-03
-9.0999999999999801e+00 +8.1506514553584601e+00 +0.0000000000000000e+00 -9.0999995959221902e+00 -2.7607710092363534e-02 -5.3693164498113211e-01 +5.3614886755372392e-03
-9.1999999999999797e+00 +8.1505995553889097e+00 +0.0000000000000000e+00 -9.1999995824540193e+00 -2.7607523737960046e-02 -5.3693206694354101e-01 +5.3615229313988743e-03
-9.2999999999999794e+00 +8.1505470882038900e+00 +0.0000000000000000e+00 -9.2999995686898593e+00 -2.7607332894644440e-02 -5.3693250728397979e-01 +5.3615586027594871e-03
-9.3999999999999808e+00 +8.1504940538070496e+00 +0.0000000000000000e+00 -9.3999995546264898e+00 -2.7607138540668898e-02 -5.3693296721333483e-01 +5.3615956945757756e-03
-9.4999999999999805e+00 +8.1504404521983798e+00 +0.0000000000000000e+00 -9.4999995402606903e+00 -2.7606941654224317e-02 -5.3693344794253484e-01 +5.3616342118115784e-03
-9.5999999999999801e+00 +8.1503862833778804e+00 +0.0000000000000000e+00 -9.5999995255892507e+00 -2.7606743213437236e-02 -5.3693395068252736e-01 +5.3616741594377480e-03
-9.6999999999999797e+00 +8.1503315473419207e+00 +0.0000000000000000e+00 -9.6999995106089507e+00 -2.7606544196369598e-02 -5.3693447664430283e-01 +5.3617155424325593e-03
-9.7999999999999794e+00 +8.1502762440941297e+00 +0.0000000000000000e+00 -9.7999994953165697e+00 -2.7606345581012760e-02 -5.3693502703881790e-01 +5.3617583657810663e-03
-9.8999999999999808e+00 +8.1502203736345091e+00 +0.0000000000000000e+00 -9.8999994797088906e+00 -2.7606148345290155e-02 -5.3693560307707511e-01 +5.3618026344760521e-03
-9.9999999999999805e+00 +8.1501639359594300e+00 +0.0000000000000000e+00 -9.9999994637827001e+00 -2.7605953467055702e-02 -5.3693620597012304e-01 +5.3618483535181763e-03
-1.0100000000000000e+01 +8.1501069310761505e+00 +0.0000000000000000e+00 -1.0099999447534801e+01 -2.7605761798715437e-02 -5.3693683634805078e-01 +5.3618955266886634e-03
-1.0199999999999999e+01 +8.1500493589774106e+00 +0.0000000000000000e+00 -1.0199999430961901e+01 -2.7605573691159672e-02 -5.3693749251744105e-01 +5.3619441528646927e-03
-1.0300000000000001e+01 +8.1499912196668394e+00 +0.0000000000000000e+00 -1.0299999414060901e+01 -2.7605389369946401e-02 -5.3693817220392581e-01 +5.3619942296836247e-03
-1.0400000000000000e+01 +8.1499325131444493e+00 +0.0000000000000000e+00 -1.0399999396828500e+01 -2.7605209060694410e-02 -5.3693887313321542e-01 +5.3620457547682888e-03
-1.0500000000000000e+01 +8.1498732394065900e+00 +0.0000000000000000e+00 -1.0499999379261400e+01 -2.7605032989085020e-02 -5.3693959303110195e-01 +5.3620987257265822e-03
-1.0600000000000000e+01 +8.1498133984568994e+00 +0.0000000000000000e+00 -1.0599999361356600e+01 -2.7604861380859130e-02 -5.3694032962337968e-01 +5.3621531401502488e-03
-1.0699999999999999e+01 +8.1497529902953794e+00 +0.0000000000000000e+00 -1.0699999343110701e+01 -2.7604694461823356e-02 -5.3694108063592672e-01 +5.3622089956152979e-03
-1.0800000000000001e+01 +8.1496920149220404e+00 +0.0000000000000000e+00 -1.0799999324520600e+01 -2.7604532457850078e-02 -5.3694184379467935e-01 +5.3622662896813172e-03
-1.0900000000000000e+01 +8.1496304723332305e+00 +0.0000000000000000e+00 -1.0899999305583000e+01 -2.7604375594880572e-02 -5.3694261682566202e-01 +5.3623250198913622e-03
-1.1000000000000000e+01 +8.1495683625325892e+00 +0.0000000000000000e+00 -1.0999999286294800e+01 -2.7604224098922166e-02 -5.3694339745490627e-01 +5.3623851837707225e-03
-1.1100000000000000e+01 +8.1495056855201309e+00 +0.0000000000000000e+00 -1.1099999266652601e+01 -2.7604078196054295e-02 -5.3694418340853434e-01 +5.3624467788273376e-03
-1.1199999999999999e+01 +8.1494424412958306e+00 +0.0000000000000000e+00 -1.1199999246653300e+01 -2.7603938112428561e-02 -5.3694497241273287e-01 +5.3625098025511242e-03
-1.1300000000000001e+01 +8.1493786298560700e+00 +0.0000000000000000e+00 -1.1299999226293700e+01 -2.7603804074271876e-02 -5.3694576219378187e-01 +5.3625742524138469e-03
-1.1400000000000000e+01 +8.1493142512044905e+00 +0.0000000000000000e+00 -1.1399999205570500e+01 -2.7603676307883615e-02 -5.3694655047797524e-01 +5.3626401258678874e-03
-1.1500000000000000e+01 +8.1492493053447106e+00 +0.0000000000000000e+00 -1.1499999184480499e+01 -2.7603555039640175e-02 -5.3694733499167613e-01 +5.3627074203464091e-03
-1.1600000000000000e+01 +8.1491837922658306e+00 +0.0000000000000000e+00 -1.1599999163020600e+01 -2.7603440496002461e-02 -5.3694811346142612e-01 +5.3627761332640115e-03
-1.1699999999999999e+01 +8.1491177119787608e+00 +0.0000000000000000e+00 -1.1699999141187400e+01 -2.7603332903502743e-02 -5.3694888361367754e-01 +5.3628462620136349e-03
