# field on trajectory
# s[mm] rx[mm] ry[mm] rz[mm] bx[T] by[T] bz[T]
0.0000000000000000e+00 +8.1649999999999991e+00 +0.0000000000000000e+00 +0.0000000000000000e+00 -2.9544702210756037e-02 -5.6473619941406539e-01 +5.6229805714570506e-03
-1.0000000000000001e-01 +8.1649997168959505e+00 +0.0000000000000000e+00 -9.9999999999465669e-02 -2.9544714791988648e-02 -5.6473612877457358e-01 +5.6229814210362198e-03
-2.0000000000000001e-01 +8.1649988675838490e+00 +0.0000000000000000e+00 -1.9999999999572543e-01 -2.9544748227493374e-02 -5.6473606299658574e-01 +5.6229804118768942e-03
-3.0000000000000004e-01 +8.1649974520637620e+00 +0.0000000000000000e+00 -2.9999999998557336e-01 -2.9544799972429561e-02 -5.6473600258348333e-01 +5.6229776617038535e-03
-4.0000000000000002e-01 +8.1649954703357501e+00 +0.0000000000000000e+00 -3.9999999996580354e-01 -2.9544867481964738e-02 -5.6473594803864247e-01 +5.6229732882421800e-03
-5.0000000000000000e-01 +8.1649929223998683e+00 +0.0000000000000000e+00 -4.9999999993321009e-01 -2.9544948211272820e-02 -5.6473589986543482e-01 +5.6229674092171736e-03
-5.9999999999999998e-01 +8.1649898082561645e+00 +0.0000000000000000e+00 -5.9999999988458708e-01 -2.9545039615532044e-02 -5.6473585856722808e-01 +5.6229601423542115e-03
-6.9999999999999996e-01 +8.1649861279046796e+00 +0.0000000000000000e+00 -6.9999999981672856e-01 -2.9545139149923020e-02 -5.6473582464738403e-01 +5.6229516053786337e-03
-7.9999999999999993e-01 +8.1649818813454473e+00 +0.0000000000000000e+00 -7.9999999972642866e-01 -2.9545244269626878e-02 -5.6473579860926137e-01 +5.6229419160156438e-03
-8.9999999999999991e-01 +8.1649770685784944e+00 +0.0000000000000000e+00 -8.9999999961048149e-01 -2.9545352429823122e-02 -5.6473578095621291e-01 +5.6229311919901662e-03
-9.9999999999999989e-01 +8.1649716896038385e+00 +0.0000000000000000e+00 -9.9999999946568108e-01 -2.9545461085687869e-02 -5.6473577219158722e-01 +5.6229195510267387e-03
-1.0999999999999999e+00 +8.1649657444214903e+00 +0.0000000000000000e+00 -1.0999999992888214e+00 -2.9545567692391736e-02 -5.6473577281872733e-01 +5.6229071108493929e-03
-1.2000000000000000e+00 +8.1649592330314480e+00 +0.0000000000000000e+00 -1.1999999990766967e+00 -2.9545669705098004e-02 -5.6473578334097263e-01 +5.6228939891815426e-03
-1.3000000000000000e+00 +8.1649521554337010e+00 +0.0000000000000000e+00 -1.2999999988261013e+00 -2.9545764578960555e-02 -5.6473580426165659e-01 +5.6228803037458551e-03
-1.4000000000000001e+00 +8.1649445116282280e+00 +0.0000000000000000e+00 -1.3999999985338289e+00 -2.9545849769121994e-02 -5.6473583608410782e-01 +5.6228661722641437e-03
-1.5000000000000002e+00 +8.1649363016149987e+00 +0.0000000000000000e+00 -1.4999999981966738e+00 -2.9545922730711664e-02 -5.6473587931165070e-01 +5.6228517124572381e-03
-1.6000000000000003e+00 +8.1649275253939688e+00 +0.0000000000000000e+00 -1.5999999978114299e+00 -2.9545980918843643e-02 -5.6473593444760339e-01 +5.6228370420448722e-03
-1.7000000000000004e+00 +8.1649181829650832e+00 +0.0000000000000000e+00 -1.6999999973748914e+00 -2.9546021788614884e-02 -5.6473600199527996e-01 +5.6228222787455730e-03
-1.8000000000000005e+00 +8.1649082743282744e+00 +0.0000000000000000e+00 -1.7999999968838525e+00 -2.9546042795103172e-02 -5.6473608245798879e-01 +5.6228075402765280e-03
-1.9000000000000006e+00 +8.1648977994834624e+00 +0.0000000000000000e+00 -1.8999999963351071e+00 -2.9546041393365211e-02 -5.6473617633903339e-01 +5.6227929443534788e-03
-2.0000000000000004e+00 +8.1648867584305549e+00 +0.0000000000000000e+00 -1.9999999957254493e+00 -2.9546015038434650e-02 -5.6473628414171173e-01 +5.6227786086905929e-03
-2.1000000000000005e+00 +8.1648751511694417e+00 +0.0000000000000000e+00 -2.0999999950516730e+00 -2.9545961889705642e-02 -5.6473640611234199e-01 +5.6227646576037116e-03
-2.2000000000000006e+00 +8.1648629777000021e+00 +0.0000000000000000e+00 -2.1999999943105726e+00 -2.9545882924097787e-02 -5.6473654146933594e-01 +5.6227512418206777e-03
-2.3000000000000007e+00 +8.1648502380221011e+00 +0.0000000000000000e+00 -2.2999999934989419e+00 -2.9545779822917045e-02 -5.6473668917412456e-01 +5.6227385186719530e-03
-2.4000000000000008e+00 +8.1648369321355911e+00 +0.0000000000000000e+00 -2.3999999926135751e+00 -2.9545654267474054e-02 -5.6473684818813408e-01 +5.6227266454873985e-03
-2.5000000000000009e+00 +8.1648230600403124e+00 +0.0000000000000000e+00 -2.4999999916512663e+00 -2.9545507939085676e-02 -5.6473701747278304e-01 +5.6227157795962785e-03
-2.6000000000000010e+00 +8.1648086217360962e+00 +0.0000000000000000e+00 -2.5999999906088096e+00 -2.9545342519076607e-02 -5.6473719598948535e-01 +5.6227060783273003e-03
-2.7000000000000011e+00 +8.1647936172227631e+00 +0.0000000000000000e+00 -2.6999999894829987e+00 -2.9545159688781023e-02 -5.6473738269964802e-01 +5.6226976990086325e-03
-2.8000000000000012e+00 +8.1647780465001283e+00 +0.0000000000000000e+00 -2.7999999882706281e+00 -2.9544961129544075e-02 -5.6473757656467172e-01 +5.6226907989679340e-03
-2.9000000000000012e+00 +8.1647619095679964e+00 +0.0000000000000000e+00 -2.8999999869684916e+00 -2.9544748522723593e-02 -5.6473777654595103e-01 +5.6226855355323733e-03
-3.0000000000000013e+00 +8.1647452064261685e+00 +0.0000000000000000e+00 -2.9999999855733832e+00 -2.9544523549691604e-02 -5.6473798160487410e-01 +5.6226820660286577e-03
-3.1000000000000014e+00 +8.1647279370744403e+00 +0.0000000000000000e+00 -3.0999999840820971e+00 -2.9544287891835965e-02 -5.6473819070282194e-01 +5.6226805477830434e-03
-3.2000000000000015e+00 +8.1647101015126022e+00 +0.0000000000000000e+00 -3.1999999824914274e+00 -2.9544043230561947e-02 -5.6473840280116960e-01 +5.6226811381213963e-03
-3.3000000000000016e+00 +8.1646916997404411e+00 +0.0000000000000000e+00 -3.2999999807981677e+00 -2.9543791247293831e-02 -5.6473861686128501e-01 +5.6226839943691728e-03
-3.4000000000000017e+00 +8.1646727317577437e+00 +0.0000000000000000e+00 -3.3999999789991122e+00 -2.9543533623476500e-02 -5.6473883184452844e-01 +5.6226892738514694e-03
-3.5000000000000018e+00 +8.1646531975642951e+00 +0.0000000000000000e+00 -3.4999999770910550e+00 -2.9543272040577054e-02 -5.6473904671225494e-01 +5.6226971338930445e-03
-3.6000000000000019e+00 +8.1646330971598822e+00 +0.0000000000000000e+00 -3.5999999750707903e+00 -2.9543008180086348e-02 -5.6473926042581091e-01 +5.6227077318183371e-03
-3.7000000000000020e+00 +8.1646124305442900e+00 +0.0000000000000000e+00 -3.6999999729351116e+00 -2.9542743723520677e-02 -5.6473947194653584e-01 +5.6227212249514921e-03
-3.8000000000000020e+00 +8.1645911977173071e+00 +0.0000000000000000e+00 -3.7999999706808132e+00 -2.9542480352423274e-02 -5.6473968023576260e-01 +5.6227377706163876e-03
-3.9000000000000021e+00 +8.1645693986787258e+00 +0.0000000000000000e+00 -3.8999999683046891e+00 -2.9542219748365992e-02 -5.6473988425481603e-01 +5.6227575261366645e-03
-4.0000000000000018e+00 +8.1645470334283416e+00 +0.0000000000000000e+00 -3.9999999658035335e+00 -2.9541963592950821e-02 -5.6474008296501343e-01 +5.6227806488357325e-03
-4.1000000000000014e+00 +8.1645241019659558e+00 +0.0000000000000000e+00 -4.0999999631741399e+00 -2.9541713231608181e-02 -5.6474027551242023e-01 +5.6228072400506569e-03
-4.2000000000000011e+00 +8.1645006042913781e+00 +0.0000000000000000e+00 -4.1999999604133027e+00 -2.9541468664976905e-02 -5.6474046178212112e-01 +5.6228371771733354e-03
-4.3000000000000007e+00 +8.1644765404044204e+00 +0.0000000000000000e+00 -4.2999999575178158e+00 -2.9541229557497859e-02 -5.6474064184397332e-01 +5.6228702816088928e-03
-4.4000000000000004e+00 +8.1644519103049031e+00 +0.0000000000000000e+00 -4.3999999544844730e+00 -2.9540995573615267e-02 -5.6474081576785284e-01 +5.6229063747619398e-03
-4.5000000000000000e+00 +8.1644267139926541e+00 +0.0000000000000000e+00 -4.4999999513100688e+00 -2.9540766377776466e-02 -5.6474098362365632e-01 +5.6229452780365598e-03
-4.5999999999999996e+00 +8.1644009514675044e+00 +0.0000000000000000e+00 -4.5999999479913969e+00 -2.9540541634431632e-02 -5.6474114548130283e-01 +5.6229868128363147e-03
-4.6999999999999993e+00 +8.1643746227292944e+00 +0.0000000000000000e+00 -4.6999999445252509e+00 -2.9540321008033568e-02 -5.6474130141073520e-01 +5.6230308005642627e-03
-4.7999999999999989e+00 +8.1643477277778675e+00 +0.0000000000000000e+00 -4.7999999409084255e+00 -2.9540104163037428e-02 -5.6474145148192145e-01 +5.6230770626229439e-03
-4.8999999999999986e+00 +8.1643202666130730e+00 +0.0000000000000000e+00 -4.8999999371377143e+00 -2.9539890763900494e-02 -5.6474159576485539e-01 +5.6231254204143861e-03
-4.9999999999999982e+00 +8.1642922392347685e+00 +0.0000000000000000e+00 -4.9999999332099110e+00 -2.9539680475081889e-02 -5.6474173432955943e-01 +5.6231756953401121e-03
-5.0999999999999979e+00 +8.1642636456428157e+00 +0.0000000000000000e+00 -5.0999999291218101e+00 -2.9539472961042364e-02 -5.6474186724608522e-01 +5.6232277088011512e-03
-5.1999999999999975e+00 +8.1642344858370830e+00 +0.0000000000000000e+00 -5.1999999248702053e+00 -2.9539267886244010e-02 -5.6474199458451502e-01 +5.6232812821980158e-03
-5.2999999999999972e+00 +8.1642047598174425e+00 +0.0000000000000000e+00 -5.2999999204518904e+00 -2.9539064915150067e-02 -5.6474211641496308e-01 +5.6233362369307316e-03
-5.3999999999999968e+00 +8.1641744675837735e+00 +0.0000000000000000e+00 -5.3999999158636598e+00 -2.9538863712224576e-02 -5.6474223280757740e-01 +5.6233923943988353e-03
-5.4999999999999964e+00 +8.1641436091359605e+00 +0.0000000000000000e+00 -5.4999999111023072e+00 -2.9538663941932244e-02 -5.6474234383254140e-01 +5.6234495760013612e-03
-5.5999999999999961e+00 +8.1641121844738915e+00 +0.0000000000000000e+00 -5.5999999061646264e+00 -2.9538465268738118e-02 -5.6474244956007436e-01 +5.6235076031368597e-03
-5.6999999999999957e+00 +8.1640801935974636e+00 +0.0000000000000000e+00 -5.6999999010474118e+00 -2.9538267357107365e-02 -5.6474255006043406e-01 +5.6235662972034051e-03
-5.7999999999999954e+00 +8.1640476365065755e+00 +0.0000000000000000e+00 -5.7999998957474572e+00 -2.9538069871504990e-02 -5.6474264540391661e-01 +5.6236254795985850e-03
-5.8999999999999950e+00 +8.1640145132011330e+00 +0.0000000000000000e+00 -5.8999998902615562e+00 -2.9537872476395628e-02 -5.6474273566085975e-01 +5.6236849717195116e-03
-5.9999999999999947e+00 +8.1639808236810474e+00 +0.0000000000000000e+00 -5.9999998845865035e+00 -2.9537674836243279e-02 -5.6474282090164296e-01 +5.6237445949628281e-03
-6.0999999999999943e+00 +8.1639465679462351e+00 +0.0000000000000000e+00 -6.0999998787190925e+00 -2.9537476787707052e-02 -5.6474290128885707e-01 +5.6238041843671470e-03
-6.1999999999999940e+00 +8.1639117459966144e+00 +0.0000000000000000e+00 -6.1999998726561181e+00 -2.9537278856229802e-02 -5.6474297735380818e-01 +5.6238636295420988e-03
-6.2999999999999936e+00 +8.1638763578321107e+00 +0.0000000000000000e+00 -6.2999998663943737e+00 -2.9537081739445369e-02 -5.6474304972000100e-01 +5.6239228337435932e-03
-6.3999999999999932e+00 +8.1638404034526530e+00 +0.0000000000000000e+00 -6.3999998599306531e+00 -2.9536886134980483e-02 -5.6474311901097263e-01 +5.6239817002318388e-03
-6.4999999999999929e+00 +8.1638038828581738e+00 +0.0000000000000000e+00 -6.4999998532617500e+00 -2.9536692740454309e-02 -5.6474318585029093e-01 +5.6240401322715256e-03
-6.5999999999999925e+00 +8.1637667960486056e+00 +0.0000000000000000e+00 -6.5999998463844589e+00 -2.9536502253478026e-02 -5.6474325086155741e-01 +5.6240980331320224e-03
-6.6999999999999922e+00 +8.1637291430238861e+00 +0.0000000000000000e+00 -6.6999998392955735e+00 -2.9536315371654281e-02 -5.6474331466840588e-01 +5.6241553060875360e-03
-6.7999999999999918e+00 +8.1636909237839514e+00 +0.0000000000000000e+00 -6.7999998319918884e+00 -2.9536132792576792e-02 -5.6474337789450468e-01 +5.6242118544173273e-03
-6.8999999999999915e+00 +8.1636521383287395e+00 +0.0000000000000000e+00 -6.8999998244701972e+00 -2.9535955213829901e-02 -5.6474344116355724e-01 +5.6242675814058831e-03
-6.9999999999999911e+00 +8.1636127866581862e+00 +0.0000000000000000e+00 -6.9999998167272937e+00 -2.9535783332988050e-02 -5.6474350509930227e-01 +5.6243223903431009e-03
-7.0999999999999908e+00 +8.1635728687722313e+00 +0.0000000000000000e+00 -7.0999998087599714e+00 -2.9535617847615374e-02 -5.6474357032551514e-01 +5.6243761845244707e-03
-7.1999999999999904e+00 +8.1635323846708090e+00 +0.0000000000000000e+00 -7.1999998005650250e+00 -2.9535459455265239e-02 -5.6474363746600853e-01 +5.6244288672512794e-03
-7.2999999999999901e+00 +8.1634913343538553e+00 +0.0000000000000000e+00 -7.2999997921392481e+00 -2.9535308853479731e-02 -5.6474370714463296e-01 +5.6244803418307766e-03
-7.3999999999999897e+00 +8.1634497178212992e+00 +0.0000000000000000e+00 -7.3999997834794353e+00 -2.9535166739789259e-02 -5.6474377998527781e-01 +5.6245305115763707e-03
-7.4999999999999893e+00 +8.1634075350730697e+00 +0.0000000000000000e+00 -7.4999997745823803e+00 -2.9535033811712057e-02 -5.6474385661187165e-01 +5.6245792798078099e-03
-7.5999999999999890e+00 +8.1633647861090921e+00 +0.0000000000000000e+00 -7.5999997654448768e+00 -2.9534910766753728e-02 -5.6474393764838438e-01 +5.6246265498513734e-03
-7.6999999999999886e+00 +8.1633214709292865e+00 +0.0000000000000000e+00 -7.6999997560637183e+00 -2.9534798302406826e-02 -5.6474402371882548e-01 +5.6246722250400559e-03
-7.7999999999999883e+00 +8.1632775895335676e+00 +0.0000000000000000e+00 -7.7999997464356996e+00 -2.9534697116150303e-02 -5.6474411544724790e-01 +5.6247162087137452e-03
-7.8999999999999879e+00 +8.1632331419218431e+00 +0.0000000000000000e+00 -7.8999997365576142e+00 -2.9534607905449140e-02 -5.6474421345774617e-01 +5.6247584042194206e-03
-7.9999999999999876e+00 +8.1631881280940188e+00 +0.0000000000000000e+00 -7.9999997264262568e+00 -2.9534531367753854e-02 -5.6474431837445860e-01 +5.6247987149113336e-03
-8.0999999999999872e+00 +8.1631425480499900e+00 +0.0000000000000000e+00 -8.0999997160384201e+00 -2.9534467867389586e-02 -5.6474443084304482e-01 +5.6248370917566237e-03
-8.1999999999999869e+00 +8.1630964017896446e+00 +0.0000000000000000e+00 -8.1999997053908995e+00 -2.9534416436204816e-02 -5.6474455159507009e-01 +5.6248736761491218e-03
-8.2999999999999865e+00 +8.1630496893128619e+00 +0.0000000000000000e+00 -8.2999996944804870e+00 -2.9534375772891808e-02 -5.6474468138348266e-01 +5.6249086570848957e-03
-8.3999999999999861e+00 +8.1630024106195158e+00 +0.0000000000000000e+00 -8.3999996833039781e+00 -2.9534344576099131e-02 -5.6474482096112344e-01 +5.6249422235547875e-03
-8.4999999999999858e+00 +8.1629545657094660e+00 +0.0000000000000000e+00 -8.4999996718581663e+00 -2.9534321544430413e-02 -5.6474497108071964e-01 +5.6249745645442122e-03
-8.5999999999999854e+00 +8.1629061545825650e+00 +0.0000000000000000e+00 -8.5999996601398454e+00 -2.9534305376442988e-02 -5.6474513249488212e-01 +5.6250058690329426e-03
-8.6999999999999851e+00 +8.1628571772386511e+00 +0.0000000000000000e+00 -8.6999996481458108e+00 -2.9534294770646719e-02 -5.6474530595610184e-01 +5.6250363259949167e-03
-8.7999999999999847e+00 +8.1628076336775521e+00 +0.0000000000000000e+00 -8.7999996358728545e+00 -2.9534288425502687e-02 -5.6474549221674430e-01 +5.6250661243980185e-03
-8.8999999999999844e+00 +8.1627575238990833e+00 +0.0000000000000000e+00 -8.8999996233177701e+00 -2.9534285039421914e-02 -5.6474569202904878e-01 +5.6250954532038920e-03
-8.9999999999999840e+00 +8.1627068479030456e+00 +0.0000000000000000e+00 -8.9999996104773530e+00 -2.9534283310764138e-02 -5.6474590614512132e-01 +5.6251245013677065e-03
-9.0999999999999837e+00 +8.1626556056892259e+00 +0.0000000000000000e+00 -9.0999995973483969e+00 -2.9534281937836526e-02 -5.6474613531693341e-01 +5.6251534578379758e-03
-9.1999999999999833e+00 +8.1626037972573968e+00 +0.0000000000000000e+00 -9.1999995839276938e+00 -2.9534279618892368e-02 -5.6474638029631641e-01 +5.6251825115563418e-03
-9.2999999999999829e+00 +8.1625514226073133e+00 +0.0000000000000000e+00 -9.2999995702120390e+00 -2.9534275052129886e-02 -5.6474664183495904e-01 +5.6252118514573670e-03
-9.3999999999999826e+00 +8.1624984817387141e+00 +0.0000000000000000e+00 -9.3999995561982264e+00 -2.9534266935690914e-02 -5.6474692068440235e-01 +5.6252416664683324e-03
-9.4999999999999822e+00 +8.1624449746513221e+00 +0.0000000000000000e+00 -9.4999995418830494e+00 -2.9534253967659622e-02 -5.6474721759603785e-01 +5.6252721455090204e-03
-9.5999999999999819e+00 +8.1623909013448426e+00 +0.0000000000000000e+00 -9.5999995272633019e+00 -2.9534234846061321e-02 -5.6474753332110117e-01 +5.6253034774915228e-03
-9.6999999999999815e+00 +8.1623362618189592e+00 +0.0000000000000000e+00 -9.6999995123357774e+00 -2.9534208268861099e-02 -5.6474786861067039e-01 +5.6253358513200262e-03
-9.7999999999999812e+00 +8.1622810560733381e+00 +0.0000000000000000e+00 -9.7999994970972715e+00 -2.9534172933962630e-02 -5.6474822421566107e-01 +5.6253694558905960e-03
-9.8999999999999808e+00 +8.1622252841076239e+00 +0.0000000000000000e+00 -9.8999994815445760e+00 -2.9534127539206857e-02 -5.6474860088682255e-01 +5.6254044800909857e-03
-9.9999999999999805e+00 +8.1621689459214402e+00 +0.0000000000000000e+00 -9.9999994656744846e+00 -2.9534070782370785e-02 -5.6474899937473488e-01 +5.6254411128004176e-03
-1.0099999999999980e+01 +8.1621120415143906e+00 +0.0000000000000000e+00 -1.0099999449483793e+01 -2.9534001701029506e-02 -5.6474942014554652e-01 +5.6254794737035678e-03
-1.0199999999999980e+01 +8.1620545708860543e+00 +0.0000000000000000e+00 -1.0199999432969292e+01 -2.9533920692205798e-02 -5.6474986252825010e-01 +5.6255194057309478e-03
-1.0299999999999979e+01 +8.1619965340359890e+00 +0.0000000000000000e+00 -1.0299999416127777e+01 -2.9533828492837051e-02 -5.6475032556759153e-01 +5.6255606826227968e-03
-1.0399999999999979e+01 +8.1619379309637328e+00 +0.0000000000000000e+00 -1.0399999398956043e+01 -2.9533725839912175e-02 -5.6475080830835422e-01 +5.6256030781177066e-03
-1.0499999999999979e+01 +8.1618787616688042e+00 +0.0000000000000000e+00 -1.0499999381450881e+01 -2.9533613470473234e-02 -5.6475130979536203e-01 +5.6256463659526048e-03
-1.0599999999999978e+01 +8.1618190261507024e+00 +0.0000000000000000e+00 -1.0599999363609085e+01 -2.9533492121617037e-02 -5.6475182907348043e-01 +5.6256903198627275e-03
-1.0699999999999978e+01 +8.1617587244089087e+00 +0.0000000000000000e+00 -1.0699999345427448e+01 -2.9533362530496765e-02 -5.6475236518761773e-01 +5.6257347135816186e-03
-1.0799999999999978e+01 +8.1616978564428884e+00 +0.0000000000000000e+00 -1.0799999326902766e+01 -2.9533225434323570e-02 -5.6475291718272635e-01 +5.6257793208410950e-03
-1.0899999999999977e+01 +8.1616364222520890e+00 +0.0000000000000000e+00 -1.0899999308031832e+01 -2.9533081570368200e-02 -5.6475348410380577e-01 +5.6258239153712522e-03
-1.0999999999999977e+01 +8.1615744218359438e+00 +0.0000000000000000e+00 -1.0999999288811440e+01 -2.9532931675962618e-02 -5.6475406499590219e-01 +5.6258682709004236e-03
-1.1099999999999977e+01 +8.1615118551938739e+00 +0.0000000000000000e+00 -1.1099999269238381e+01 -2.9532776488501600e-02 -5.6475465890411058e-01 +5.6259121611551841e-03
-1.1199999999999976e+01 +8.1614487223252841e+00 +0.0000000000000000e+00 -1.1199999249309450e+01 -2.9532616745444409e-02 -5.6475526487357786e-01 +5.6259553598603301e-03
-1.1299999999999976e+01 +8.1613850232295704e+00 +0.0000000000000000e+00 -1.1299999229021440e+01 -2.9532453184316292e-02 -5.6475588194950210e-01 +5.6259976407388489e-03
-1.1399999999999975e+01 +8.1613207579061147e+00 +0.0000000000000000e+00 -1.1399999208371145e+01 -2.9532286542710250e-02 -5.6475650917713460e-01 +5.6260387775119323e-03
-1.1499999999999975e+01 +8.1612559263542916e+00 +0.0000000000000000e+00 -1.1499999187355359e+01 -2.9532117558288520e-02 -5.6475714560178292e-01 +5.6260785438989299e-03
-1.1599999999999975e+01 +8.1611905285734654e+00 +0.0000000000000000e+00 -1.1599999165970875e+01 -2.9531946968784303e-02 -5.6475779026881068e-01 +5.6261167136173644e-03
-1.1699999999999974e+01 +8.1611245645629911e+00 +0.0000000000000000e+00 -1.1699999144214486e+01 -2.9531775512003290e-02 -5.6475844222363902e-01 +5.6261530603828967e-03
