# multipoles
# s[mm] polynom_b[n=0][T/m^n] polynom_b[n=1][T/m^n] polynom_b[n=2][T/m^n] polynom_b[n=3][T/m^n] polynom_b[n=4][T/m^n] polynom_b[n=5][T/m^n] polynom_b[n=6][T/m^n] 
+0.0000000000000000e+00 -5.6517511645323659e-01 +7.7426458817603097e+00 -3.6159004065380813e-02 -2.3417217060951369e+01 +4.7947375015552075e+02 -3.1114617566014746e+04 -1.6382914021176348e+07 
+1.0000000000000001e-01 -5.6517429177779976e-01 +7.7425772359048652e+00 -4.3846540367346608e-02 -2.2301842576329552e+01 +5.6904899636801986e+02 -3.6752262537990435e+04 -1.6671754883017413e+07 
+2.0000000000000001e-01 -5.6517346913850974e-01 +7.7425112950889812e+00 -5.1437926527473629e-02 -2.1258135358929419e+01 +6.5481345123918038e+02 -4.1990300917297063e+04 -1.6940650179968406e+07 
+3.0000000000000004e-01 -5.6517264990938487e-01 +7.7424481331139443e+00 -5.8905007912451728e-02 -2.0285594845057066e+01 +7.3655286210110046e+02 -4.6836576626003538e+04 -1.7188949072801746e+07 
+4.0000000000000002e-01 -5.6517183546446714e-01 +7.7423878237807555e+00 -6.6219627929630445e-02 -1.9383720448312147e+01 +8.1405294554271279e+02 -5.1298933747825125e+04 -1.7416000596478097e+07 
+5.0000000000000000e-01 -5.6517102717783463e-01 +7.7423304408891038e+00 -7.3353625244583567e-02 -1.8552011541961953e+01 +8.8709932763147401e+02 -5.5385216589546333e+04 -1.7621153356892820e+07 
+5.9999999999999998e-01 -5.6517022642355463e-01 +7.7422760582414254e+00 -8.0278840684540276e-02 -1.7789967569029951e+01 +9.5547768341553422e+02 -5.9103269085965250e+04 -1.7803756217713367e+07 
+6.9999999999999996e-01 -5.6516943457571811e-01 +7.7422247496342438e+00 -8.6967112174703876e-02 -1.7097087806444215e+01 +1.0189736320447408e+03 -6.2460936114799042e+04 -1.7963157774665497e+07 
+7.9999999999999993e-01 -5.6516865300843555e-01 +7.7421765888671805e+00 -9.3390276549197473e-02 -1.6472871621938697e+01 +1.0773727822413293e+03 -6.5466062032305825e+04 -1.8098706602884538e+07 
+8.9999999999999991e-01 -5.6516788309582688e-01 +7.7421316497376083e+00 -9.9520169436317168e-02 -1.5916818327517253e+01 +1.1304607201796418e+03 -6.8126491503319805e+04 -1.8209751171688642e+07 
+9.9999999999999989e-01 -5.6516712621201293e-01 +7.7420900060385209e+00 -1.0532862745589054e-01 -1.5428427125136501e+01 +1.1780230575135729e+03 -7.0450069793836097e+04 -1.8295640087493718e+07 
+1.0999999999999999e+00 -5.6516638373116135e-01 +7.7420517315640751e+00 -1.1078748200232033e-01 -1.5007197272150972e+01 +1.2198453111899748e+03 -7.2444641812439644e+04 -1.8355721517512012e+07 
+1.2000000000000000e+00 -5.6516565702743804e-01 +7.7420169001080863e+00 -1.1586856595988787e-01 -1.4652628042918916e+01 +1.2557130343538188e+03 -7.4118052314725268e+04 -1.8389343820091184e+07 
+1.3000000000000000e+00 -5.6516494747500867e-01 +7.7419855854555264e+00 -1.2054371273112208e-01 -1.4364218473973121e+01 +1.2854117933600548e+03 -7.5478147416543390e+04 -1.8395855422497585e+07 
+1.4000000000000001e+00 -5.6516425644807755e-01 +7.7419578613901017e+00 -1.2478475204665525e-01 -1.4141467617303935e+01 +1.3087270899777773e+03 -7.6532773029223958e+04 -1.8374604453644812e+07 
+1.5000000000000002e+00 -5.6516358532085731e-01 +7.7419338016999140e+00 -1.2856351406938110e-01 -1.3983874677288599e+01 +1.3254444453668928e+03 -7.7289774151409103e+04 -1.8324939161419414e+07 
+1.6000000000000003e+00 -5.6516293546758289e-01 +7.7419134801605400e+00 -1.3185182699020212e-01 -1.3890938546834400e+01 +1.3353493455585728e+03 -7.7756997485672342e+04 -1.8246207626506522e+07 
+1.7000000000000004e+00 -5.6516230826247493e-01 +7.7418969705482148e+00 -1.3462152206079675e-01 -1.3862158186361132e+01 +1.3382273425856179e+03 -7.7942289256508608e+04 -1.8137758258986142e+07 
+1.8000000000000005e+00 -5.6516170507982666e-01 +7.7418843466387468e+00 -1.3684442326259907e-01 -1.3897032596764268e+01 +1.3338638606999614e+03 -7.7853495358536195e+04 -1.7998938881297681e+07 
+1.9000000000000006e+00 -5.6516112729388601e-01 +7.7418756821919601e+00 -1.3849236092316314e-01 -1.3995060377471173e+01 +1.3220444472693034e+03 -7.7498463902623917e+04 -1.7829097901271418e+07 
+2.0000000000000004e+00 -5.6516057627896954e-01 +7.7418710509772009e+00 -1.3953715877683304e-01 -1.4155740464638887e+01 +1.3025545360250264e+03 -7.6885040934234450e+04 -1.7627583208834462e+07 
+2.1000000000000005e+00 -5.6516005295130167e-01 +7.7418704674681127e+00 -1.3996393764331799e-01 -1.4377844468355319e+01 +1.2753689085348071e+03 -7.6023635541512747e+04 -1.7394573904481750e+07 
+2.2000000000000006e+00 -5.6515955639395898e-01 +7.7418737057475804e+00 -1.3981030171327133e-01 -1.4657237339853342e+01 +1.2412120138668238e+03 -7.4934771418086006e+04 -1.7133550047926251e+07 
+2.3000000000000007e+00 -5.6515908523152758e-01 +7.7418804789799811e+00 -1.3912679884414594e-01 -1.4989057996938175e+01 +1.2009938266194645e+03 -7.3641466443768164e+04 -1.6848811260731366e+07 
+2.4000000000000008e+00 -5.6515863808855682e-01 +7.7418905003346179e+00 -1.3796398211214295e-01 -1.5368445548900160e+01 +1.1556244256924199e+03 -7.2166737245099968e+04 -1.6544657671846237e+07 
+2.5000000000000009e+00 -5.6515821358961771e-01 +7.7419034829741502e+00 -1.3637240141704016e-01 -1.5790538947404206e+01 +1.1060138251176256e+03 -7.0533601246379985e+04 -1.6225389085437892e+07 
+2.6000000000000010e+00 -5.6515781035923907e-01 +7.7419191400659155e+00 -1.3440261203595097e-01 -1.6250477307363774e+01 +1.0530721446520756e+03 -6.8765074846154865e+04 -1.5895305817197971e+07 
+2.7000000000000011e+00 -5.6515742702200034e-01 +7.7419371847769733e+00 -1.3210516243443315e-01 -1.6743399791385116e+01 +9.9770937070963760e+02 -6.6884173975537313e+04 -1.5558707533895731e+07 
+2.8000000000000012e+00 -5.6515706220240147e-01 +7.7419573302702496e+00 -1.2953061087859941e-01 -1.7264445458367984e+01 +9.4083567572124673e+02 -6.4913915108189431e+04 -1.5219894784623414e+07 
+2.9000000000000012e+00 -5.6515671452498017e-01 +7.7419792897181541e+00 -1.2672951044288516e-01 -1.7808753699320096e+01 +8.8336113218053629e+02 -6.2877312596196716e+04 -1.4883167636978110e+07 
+3.0000000000000013e+00 -5.6515638261423251e-01 +7.7420027762863546e+00 -1.2375241856941618e-01 -1.8371463734978029e+01 +8.2619589133510328e+02 -6.0797381679924270e+04 -1.4552826520336505e+07 
+3.1000000000000014e+00 -5.6515606509463101e-01 +7.7420275031473693e+00 -1.2064989525562760e-01 -1.8947715033932223e+01 +7.7025015031008468e+02 -5.8697135987928894e+04 -1.4233172071379928e+07 
+3.2000000000000015e+00 -5.6515576059064276e-01 +7.7420531834725370e+00 -1.1747250017528105e-01 -1.9532647055862068e+01 +7.1643409627750464e+02 -5.6599589085259620e+04 -1.3928504869025679e+07 
+3.3000000000000016e+00 -5.6515546772671832e-01 +7.7420795304332328e+00 -1.1427079438968436e-01 -2.0121399311253580e+01 +6.6565793831904625e+02 -5.4527754063875298e+04 -1.3643125580095068e+07 
+3.4000000000000017e+00 -5.6515518512725682e-01 +7.7421062572091968e+00 -1.1109534417234716e-01 -2.0709111591060974e+01 +6.1883197894419482e+02 -5.2504642228759323e+04 -1.3381335300780434e+07 
+3.5000000000000018e+00 -5.6515491141666507e-01 +7.7421330769744232e+00 -1.0799671403188421e-01 -2.1290923552895151e+01 +5.7686648449584459e+02 -5.0553265513032376e+04 -1.3147434946303610e+07 
+3.6000000000000019e+00 -5.6515464521930225e-01 +7.7421597029126081e+00 -1.0502547315470273e-01 -2.1861975179164023e+01 +5.4067180055322001e+02 -4.8696633787971434e+04 -1.2945725778602179e+07 
+3.7000000000000020e+00 -5.6515438515949901e-01 +7.7421858482082726e+00 -1.0223219297406468e-01 -2.2417406517710113e+01 +5.1115831204839066e+02 -4.6957756365101515e+04 -1.2780509239496103e+07 
+3.8000000000000020e+00 -5.6515412986155711e-01 +7.7422112260442715e+00 -9.9667446814575247e-02 -2.2952357601436791e+01 +4.8923642824485466e+02 -4.5359642485061551e+04 -1.2656086851889303e+07 
+3.9000000000000021e+00 -5.6515387794973904e-01 +7.7422355496142501e+00 -9.7381812078850397e-02 -2.3461968820370533e+01 +4.7581663393318013e+02 -4.3925299125155616e+04 -1.2576760491919307e+07 
+4.0000000000000018e+00 -5.6515362804829250e-01 +7.7422585321097710e+00 -9.5425866144316085e-02 -2.3941380553751706e+01 +4.7180940300772210e+02 -4.2677733115216142e+04 -1.2546831955027927e+07 
+4.1000000000000014e+00 -5.6515337891907635e-01 +7.7422799132139506e+00 -9.3843048847519830e-02 -2.4386631520167711e+01 +4.7793216252371241e+02 -4.1633861123378068e+04 -1.2569606074920179e+07 
+4.2000000000000011e+00 -5.6515312988234556e-01 +7.7422995352086090e+00 -9.2647841290057542e-02 -2.4797115545112693e+01 +4.9413119041970589e+02 -4.0787437962502278e+04 -1.2644449805568038e+07 
+4.3000000000000007e+00 -5.6515288039985290e-01 +7.7423172652224022e+00 -9.1847384909470128e-02 -2.5173007712012932e+01 +5.2015996675317865e+02 -4.0126709114785008e+04 -1.2769756706520727e+07 
+4.4000000000000004e+00 -5.6515262993337734e-01 +7.7423329703872268e+00 -9.1448815339998768e-02 -2.5514483121974482e+01 +5.5577184866070934e+02 -3.9639920072710811e+04 -1.2943919745526332e+07 
+4.5000000000000000e+00 -5.6515237794464013e-01 +7.7423465178381656e+00 -9.1459273107800138e-02 -2.5821716859695204e+01 +6.0072027171430341e+02 -3.9315316649229542e+04 -1.3165332248689631e+07 
+4.5999999999999996e+00 -5.6515212389537450e-01 +7.7423577747151660e+00 -9.1885894444534003e-02 -2.6094884077016811e+01 +6.5475857512747029e+02 -3.9141144380613026e+04 -1.3432387071178250e+07 
+4.6999999999999993e+00 -5.6515186724727051e-01 +7.7423666081611993e+00 -9.2735818446987639e-02 -2.6334159895313928e+01 +7.1764013792577430e+02 -3.9105649230112518e+04 -1.3743477246012319e+07 
+4.7999999999999989e+00 -5.6515160746204529e-01 +7.7423728853263016e+00 -9.4016178082210577e-02 -2.6539719532539841e+01 +7.8911820770714985e+02 -3.9197076800998664e+04 -1.4096995171014979e+07 
+4.8999999999999986e+00 -5.6515134400134681e-01 +7.7423764733591396e+00 -9.5734111412980438e-02 -2.6711738054173772e+01 +8.6894610861553451e+02 -3.9403673804154845e+04 -1.4491333584408395e+07 
+4.9999999999999982e+00 -5.6515107632686135e-01 +7.7423772394205583e+00 -9.7896749486932874e-02 -2.6850390752609979e+01 +9.5687701992155701e+02 -3.9713685887900749e+04 -1.4924884536979308e+07 
+5.0999999999999979e+00 -5.6515080390021755e-01 +7.7423750506708293e+00 -1.0051122686374857e-01 -2.6955852768181373e+01 +1.0526641653815423e+03 -4.0115359852806178e+04 -1.5396040265185285e+07 
+5.1999999999999975e+00 -5.6515052618303985e-01 +7.7423697742768196e+00 -1.0358467526182813e-01 -2.7028299303661385e+01 +1.1560606974179186e+03 -4.0596942394324571e+04 -1.5903192655388655e+07 
+5.2999999999999972e+00 -5.6515024263694125e-01 +7.7423612774124626e+00 -1.0712422452637374e-01 -2.7067905619422131e+01 +1.2668197127028970e+03 -4.1146680174024303e+04 -1.6444733311490128e+07 
+5.3999999999999968e+00 -5.6514995272349400e-01 +7.7423494272518543e+00 -1.1113700606053480e-01 -2.7074846824186817e+01 +1.3846943192473263e+03 -4.1752821050363164e+04 -1.7019053880827248e+07 
+5.4999999999999964e+00 -5.6514965590429322e-01 +7.7423340909789244e+00 -1.1563014452925363e-01 -2.7049298162434496e+01 +1.5094374736271029e+03 -4.2403612400574559e+04 -1.7624545267337784e+07 
+5.5999999999999961e+00 -5.6514935164087621e-01 +7.7423151357840219e+00 -1.2061076842372175e-01 -2.6991434896405679e+01 +1.6408021870906023e+03 -4.3087301847925773e+04 -1.8259598627711527e+07 
+5.6999999999999957e+00 -5.6514903939477668e-01 +7.7422924288598489e+00 -1.2608600242638976e-01 -2.6901432188583691e+01 +1.7785413733321077e+03 -4.3792137931001183e+04 -1.8922604630313855e+07 
+5.7999999999999954e+00 -5.6514871862752736e-01 +7.7422658374094748e+00 -1.3206296741521245e-01 -2.6779465317624275e+01 +1.9224078523007004e+03 -4.4506368912356389e+04 -1.9611953483887110e+07 
+5.8999999999999950e+00 -5.6514838880059093e-01 +7.7422352286369058e+00 -1.3854878876633570e-01 -2.6625709413772366e+01 +2.0721545055067677e+03 -4.5218244264094559e+04 -2.0326035672122709e+07 
+5.9999999999999947e+00 -5.6514804937547036e-01 +7.7422004697565932e+00 -1.4555058263611756e-01 -2.6440339695933190e+01 +2.2275340164125305e+03 -4.5916013388464409e+04 -2.1063240721158046e+07 
+6.0999999999999943e+00 -5.6514770014723059e-01 +7.7421615139844500e+00 -1.5306073369415463e-01 -2.6224006051904230e+01 +2.3881396593153677e+03 -4.6589504814316140e+04 -2.1821393683598932e+07 
+6.1999999999999940e+00 -5.6514734223650054e-01 +7.7421186660745320e+00 -1.6101750135554374e-01 -2.5979467703217274e+01 +2.5529730810564602e+03 -4.7234025178024058e+04 -2.2596128373048428e+07 
+6.2999999999999936e+00 -5.6514697709312978e-01 +7.7420723205788873e+00 -1.6934683193244812e-01 -2.5710054619796662e+01 +2.7208999786068839e+03 -4.7846116599335823e+04 -2.3382549049548779e+07 
+6.3999999999999932e+00 -5.6514660616702062e-01 +7.7420228720307289e+00 -1.7797466924052271e-01 -2.5419096211717513e+01 +2.8907860183818698e+03 -4.8422324516397777e+04 -2.4175759841199070e+07 
+6.4999999999999929e+00 -5.6514623090809812e-01 +7.7419707149570023e+00 -1.8682695979294081e-01 -2.5109921727240401e+01 +3.0614969465175463e+03 -4.8959195268403018e+04 -2.4970865300153282e+07 
+6.5999999999999925e+00 -5.6514585276632523e-01 +7.7419162438721107e+00 -1.9582964963577826e-01 -2.4785860067608358e+01 +3.2318985233036888e+03 -4.9453277185730607e+04 -2.5762970078794550e+07 
+6.6999999999999922e+00 -5.6514547319173558e-01 +7.7418598532718939e+00 -2.0490868142574051e-01 -2.4450239632018146e+01 +3.4008564711759027e+03 -4.9901121433916611e+04 -2.6547178685671642e+07 
+6.7999999999999918e+00 -5.6514509363439491e-01 +7.7418019376464837e+00 -2.1398999935642396e-01 -2.4106388651036063e+01 +3.5672365701947383e+03 -5.0299280196127351e+04 -2.7318595944994032e+07 
+6.8999999999999915e+00 -5.6514471554441215e-01 +7.7417428914673918e+00 -2.2299954806626313e-01 -2.3757634863037733e+01 +3.7299046392565938e+03 -5.0644308405445277e+04 -2.8072326910410974e+07 
+6.9999999999999911e+00 -5.6514434037197714e-01 +7.7416831091919596e+00 -2.3186326753715331e-01 -2.3407305613636808e+01 +3.8877264354227573e+03 -5.0932763260594002e+04 -2.8803476374762442e+07 
+7.0999999999999908e+00 -5.6514396956729773e-01 +7.7416229852618530e+00 -2.4050710204250861e-01 -2.3058727826015165e+01 +4.0395678323871980e+03 -5.1161204354630929e+04 -2.9507149740787953e+07 
+7.1999999999999904e+00 -5.6514360458064439e-01 +7.7415629141058311e+00 -2.4885699435407396e-01 -2.2715228079768544e+01 +4.1842947050221082e+03 -5.1326193232963902e+04 -3.0178452452686261e+07 
+7.2999999999999901e+00 -5.6514324686237560e-01 +7.7415032901350243e+00 -2.5683888299389129e-01 -2.2380132480857885e+01 +4.3207728845184738e+03 -5.1424294122261512e+04 -3.0812489805080693e+07 
+7.3999999999999897e+00 -5.6514289786287453e-01 +7.7414445077434610e+00 -2.6437871015038689e-01 -2.2056766679511881e+01 +4.4478683045830057e+03 -5.1452073829743640e+04 -3.1404367622637566e+07 
+7.4999999999999893e+00 -5.6514255903260047e-01 +7.7413869613105879e+00 -2.7140241549867988e-01 -2.1748455924832211e+01 +4.5644468871921117e+03 -5.1406101476921809e+04 -3.1949191724577457e+07 
+7.5999999999999890e+00 -5.6514223182208256e-01 +7.7413310451935722e+00 -2.7783593772448151e-01 -2.1458524883446554e+01 +4.6693745747089442e+03 -5.1282949437620620e+04 -3.2442068082798406e+07 
+7.6999999999999886e+00 -5.6514191768190636e-01 +7.7412771537322005e+00 -2.8360521558176283e-01 -2.1190297748273309e+01 +4.7615173483286653e+03 -5.1079192803925966e+04 -3.2878102906635888e+07 
+7.7999999999999883e+00 -5.6514161806273577e-01 +7.7412256812539901e+00 -2.8863618627487436e-01 -2.0947098407472833e+01 +4.8397412005874412e+03 -5.0791408351776881e+04 -3.3252402515466671e+07 
+7.8999999999999879e+00 -5.6514133441527958e-01 +7.7411770220595217e+00 -2.9285478947750243e-01 -2.0732250010835607e+01 +4.9029122127552146e+03 -5.0416177081547685e+04 -3.3560073710575067e+07 
+7.9999999999999876e+00 -5.6514106819034327e-01 +7.7411315704317376e+00 -2.9618696076250939e-01 -2.0549075273292104e+01 +4.9498964266924158e+03 -4.9950082334662089e+04 -3.3796223149366871e+07 
+8.0999999999999872e+00 -5.6514082058510862e-01 +7.7410896223240071e+00 -2.9857932621793992e-01 -2.0399559289868613e+01 +4.9799275095899584e+03 -4.9394431736713850e+04 -3.3957570423963882e+07 
+8.1999999999999869e+00 -5.6514059178148623e-01 +7.7410510893654845e+00 -3.0005606473239460e-01 -2.0280632819040900e+01 +4.9936402599261737e+03 -4.8768359396125263e+04 -3.4047043506444864e+07 
+8.2999999999999865e+00 -5.6514038170723857e-01 +7.7410157891342433e+00 -3.0065949735753822e-01 -2.0188041529097219e+01 +4.9920040289146273e+03 -4.8095151963349337e+04 -3.4069068426718675e+07 
+8.3999999999999861e+00 -5.6514019029007467e-01 +7.7409835392159154e+00 -3.0043195111508925e-01 -2.0117531475249422e+01 +4.9759882715602789e+03 -4.7398093747927560e+04 -3.4028071644169129e+07 
+8.4999999999999858e+00 -5.6514001745770248e-01 +7.7409541571949569e+00 -2.9941575341264326e-01 -2.0064848860045114e+01 +4.9465624414855711e+03 -4.6700467947485115e+04 -3.3928479555586889e+07 
+8.5999999999999854e+00 -5.6513986313775522e-01 +7.7409274606644392e+00 -2.9765323980999187e-01 -2.0025740300173712e+01 +4.9046961315353128e+03 -4.6025555153430942e+04 -3.3774719148175180e+07 
+8.6999999999999851e+00 -5.6513972725785278e-01 +7.7409032672223868e+00 -2.9518674788015359e-01 -1.9995952737635559e+01 +4.8513589658330156e+03 -4.5396633827059486e+04 -3.3571217505739219e+07 
+8.7999999999999847e+00 -5.6513960974559618e-01 +7.7408813944710131e+00 -2.9205861666438343e-01 -1.9971233409438906e+01 +4.7875205795889260e+03 -4.4836980511010421e+04 -3.3322401685635939e+07 
+8.8999999999999844e+00 -5.6513951052851774e-01 +7.7408616600140769e+00 -2.8831119368660402e-01 -1.9947329793034189e+01 +4.7141507600402065e+03 -4.4369870085224757e+04 -3.3032699411050901e+07 
+8.9999999999999840e+00 -5.6513942953412277e-01 +7.7408438814671241e+00 -2.8398682868438996e-01 -1.9919989895989172e+01 +4.6322193196845064e+03 -4.4018574119015750e+04 -3.2706538445428893e+07 
+9.0999999999999837e+00 -5.6513936668990195e-01 +7.7408278764472618e+00 -2.7912787365449254e-01 -1.9884961970235175e+01 +4.5426961049229503e+03 -4.3806362504202858e+04 -3.2348346652889967e+07 
+9.1999999999999833e+00 -5.6513932192324612e-01 +7.7408134625780383e+00 -2.7377669146667910e-01 -1.9837994659567407e+01 +4.4465511494042039e+03 -4.3756502591150420e+04 -3.1962552701142818e+07 
+9.2999999999999829e+00 -5.6513929516156958e-01 +7.7408004574887466e+00 -2.6797564198653007e-01 -1.9774836975603193e+01 +4.3447544182249567e+03 -4.3892259345806087e+04 -3.1553584863322947e+07 
+9.3999999999999826e+00 -5.6513928633220378e-01 +7.7407886788184843e+00 -2.6176709439173401e-01 -1.9691238437273878e+01 +4.2382760359901986e+03 -4.4236894490909930e+04 -3.1125872087134473e+07 
+9.4999999999999822e+00 -5.6513929536245000e-01 +7.7407779442070543e+00 -2.5519342115003213e-01 -1.9582948798375316e+01 +4.1280861764376186e+03 -4.4813668113469488e+04 -3.0683843480103996e+07 
+9.5999999999999819e+00 -5.6513932217955143e-01 +7.7407680713066371e+00 -2.4829700104411970e-01 -1.9445718391509715e+01 +4.0151551153074729e+03 -4.5645836668934717e+04 -3.0231928546398953e+07 
+9.6999999999999815e+00 -5.6513936671071252e-01 +7.7407588777746099e+00 -2.4112021681560519e-01 -1.9275297931276562e+01 +3.9004531867864816e+03 -4.6756654090926822e+04 -2.9774556984219924e+07 
+9.7999999999999812e+00 -5.6513942888309188e-01 +7.7407501812736044e+00 -2.3370545638685897e-01 -1.9067438527725301e+01 +3.7849508091631442e+03 -4.8169371691581357e+04 -2.9316158812270548e+07 
+9.8999999999999808e+00 -5.6513950862379447e-01 +7.7407417994771635e+00 -2.2609511276356403e-01 -1.8817891832736741e+01 +3.6696184745183796e+03 -4.9907237372707888e+04 -2.8861164297863748e+07 
+9.9999999999999805e+00 -5.6513960585986966e-01 +7.7407335500645242e+00 -2.1833158522328686e-01 -1.8522409962646606e+01 +3.5554267711029806e+03 -5.1993496139899005e+04 -2.8414004080006577e+07 
+1.0099999999999980e+01 -5.6513972031848969e-01 +7.7407252813147629e+00 -2.1045525760879150e-01 -1.8178511509859799e+01 +3.4431683930718077e+03 -5.4439824127391148e+04 -2.7978118889597408e+07 
