# field on trajectory
# s[mm] rx[mm] ry[mm] rz[mm] bx[T] by[T] bz[T]
0.0000000000000000e+00 +8.1529999999999987e+00 +0.0000000000000000e+00 +0.0000000000000000e+00 -3.2431321881781779e-02 -5.9266008164009809e-01 +5.8855411894511746e-03
1.0000000000000001e-01 +8.1529997168818582e+00 +0.0000000000000000e+00 +9.9999999999465614e-02 -3.2431394847851083e-02 -5.9266000647315242e-01 +5.8855862802330025e-03
2.0000000000000001e-01 +8.1529988675274812e+00 +0.0000000000000000e+00 +1.9999999999572499e-01 -3.2431464175664809e-02 -5.9265993800499273e-01 +5.8856326980676115e-03
3.0000000000000004e-01 +8.1529974519369350e+00 +0.0000000000000000e+00 +2.9999999998557192e-01 -3.2431530648684065e-02 -5.9265987608935711e-01 +5.8856805302440751e-03
4.0000000000000002e-01 +8.1529954701102785e+00 +0.0000000000000000e+00 +3.9999999996580016e-01 -3.2431595050364297e-02 -5.9265982057997657e-01 +5.8857298640498717e-03
5.0000000000000000e-01 +8.1529929220475630e+00 +0.0000000000000000e+00 +4.9999999993320343e-01 -3.2431658164156406e-02 -5.9265977133057868e-01 +5.8857807867712048e-03
5.9999999999999998e-01 +8.1529898077488383e+00 +0.0000000000000000e+00 +5.9999999988457553e-01 -3.2431720773507498e-02 -5.9265972819488444e-01 +5.8858333856932456e-03
6.9999999999999996e-01 +8.1529861272141435e+00 +0.0000000000000000e+00 +6.9999999981671024e-01 -3.2431783661861939e-02 -5.9265969102661453e-01 +5.8858877481004395e-03
7.9999999999999993e-01 +8.1529818804435159e+00 +0.0000000000000000e+00 +7.9999999972640135e-01 -3.2431847612662185e-02 -5.9265965967948664e-01 +5.8859439612767754e-03
8.9999999999999991e-01 +8.1529770674369839e+00 +0.0000000000000000e+00 +8.9999999961044264e-01 -3.2431913409349748e-02 -5.9265963400721866e-01 +5.8860021125060709e-03
9.9999999999999989e-01 +8.1529716881945742e+00 +0.0000000000000000e+00 +9.9999999946562779e-01 -3.2431981835366129e-02 -5.9265961386352883e-01 +5.8860622890722436e-03
1.0999999999999999e+00 +8.1529657427163045e+00 +0.0000000000000000e+00 +1.0999999992887506e+00 -3.2432053674153707e-02 -5.9265959910213772e-01 +5.8861245782596055e-03
1.2000000000000000e+00 +8.1529592310021890e+00 +0.0000000000000000e+00 +1.1999999990766048e+00 -3.2432129709156647e-02 -5.9265958957676890e-01 +5.8861890673531266e-03
1.3000000000000000e+00 +8.1529521530522384e+00 +0.0000000000000000e+00 +1.2999999988259843e+00 -3.2432210723821880e-02 -5.9265958514115036e-01 +5.8862558436387361e-03
1.4000000000000001e+00 +8.1529445088664563e+00 +0.0000000000000000e+00 +1.3999999985336828e+00 -3.2432297501600045e-02 -5.9265958564901577e-01 +5.8863249944035839e-03
1.5000000000000002e+00 +8.1529362984448426e+00 +0.0000000000000000e+00 +1.4999999981964942e+00 -3.2432390825946261e-02 -5.9265959095410548e-01 +5.8863966069363401e-03
1.6000000000000003e+00 +8.1529275217873938e+00 +0.0000000000000000e+00 +1.5999999978112120e+00 -3.2432491480321186e-02 -5.9265960091016689e-01 +5.8864707685274435e-03
1.7000000000000004e+00 +8.1529181788940992e+00 +0.0000000000000000e+00 +1.6999999973746303e+00 -3.2432600248191952e-02 -5.9265961537095835e-01 +5.8865475664694232e-03
1.8000000000000005e+00 +8.1529082697649446e+00 +0.0000000000000000e+00 +1.7999999968835425e+00 -3.2432717913032934e-02 -5.9265963419024625e-01 +5.8866270880571486e-03
1.9000000000000006e+00 +8.1528977943999141e+00 +0.0000000000000000e+00 +1.8999999963347425e+00 -3.2432845258326889e-02 -5.9265965722181047e-01 +5.8867094205881237e-03
2.0000000000000004e+00 +8.1528867527989846e+00 +0.0000000000000000e+00 +1.9999999957250241e+00 -3.2432983067565653e-02 -5.9265968431944205e-01 +5.8867946513627561e-03
2.1000000000000005e+00 +8.1528751449621311e+00 +0.0000000000000000e+00 +2.0999999950511810e+00 -3.2433131858437582e-02 -5.9265971531071382e-01 +5.8868828517318946e-03
2.2000000000000006e+00 +8.1528629708893252e+00 +0.0000000000000000e+00 +2.1999999943100073e+00 -3.2433291085385466e-02 -5.9265974991827786e-01 +5.8869740292379034e-03
2.3000000000000007e+00 +8.1528502305805333e+00 +0.0000000000000000e+00 +2.2999999934982962e+00 -3.2433459937045273e-02 -5.9265978783855888e-01 +5.8870681754715571e-03
2.4000000000000008e+00 +8.1528369240357197e+00 +0.0000000000000000e+00 +2.3999999926128419e+00 -3.2433637602059612e-02 -5.9265982876798717e-01 +5.8871652820245554e-03
2.5000000000000009e+00 +8.1528230512548472e+00 +0.0000000000000000e+00 +2.4999999916504381e+00 -3.2433823269078212e-02 -5.9265987240299711e-01 +5.8872653404895064e-03
2.6000000000000010e+00 +8.1528086122378731e+00 +0.0000000000000000e+00 +2.5999999906078783e+00 -3.2434016126758142e-02 -5.9265991844002797e-01 +5.8873683424598977e-03
2.7000000000000011e+00 +8.1527936069847549e+00 +0.0000000000000000e+00 +2.6999999894819569e+00 -3.2434215363764118e-02 -5.9265996657552411e-01 +5.8874742795300434e-03
2.8000000000000012e+00 +8.1527780354954462e+00 +0.0000000000000000e+00 +2.7999999882694668e+00 -3.2434420168768824e-02 -5.9266001650593414e-01 +5.8875831432950894e-03
2.9000000000000012e+00 +8.1527618977698992e+00 +0.0000000000000000e+00 +2.8999999869672024e+00 -3.2434629730453246e-02 -5.9266006792771109e-01 +5.8876949253509605e-03
3.0000000000000013e+00 +8.1527451938080659e+00 +0.0000000000000000e+00 +2.9999999855719572e+00 -3.2434843237506943e-02 -5.9266012053731321e-01 +5.8878096172943319e-03
3.1000000000000014e+00 +8.1527279236098966e+00 +0.0000000000000000e+00 +3.0999999840805250e+00 -3.2435059878628332e-02 -5.9266017403120208e-01 +5.8879272107226080e-03
3.2000000000000015e+00 +8.1527100871753415e+00 +0.0000000000000000e+00 +3.1999999824896994e+00 -3.2435278842525131e-02 -5.9266022810584440e-01 +5.8880476972338934e-03
3.3000000000000016e+00 +8.1526916845043491e+00 +0.0000000000000000e+00 +3.2999999807962745e+00 -3.2435499317914486e-02 -5.9266028245771118e-01 +5.8881710684269535e-03
3.4000000000000017e+00 +8.1526727155968679e+00 +0.0000000000000000e+00 +3.3999999789970436e+00 -3.2435720493523397e-02 -5.9266033678327723e-01 +5.8882973159011956e-03
3.5000000000000018e+00 +8.1526531804528464e+00 +0.0000000000000000e+00 +3.4999999770888008e+00 -3.2435941558089001e-02 -5.9266039077902166e-01 +5.8884264312566263e-03
3.6000000000000019e+00 +8.1526330790722348e+00 +0.0000000000000000e+00 +3.5999999750683398e+00 -3.2436161700358887e-02 -5.9266044414142793e-01 +5.8885584060938420e-03
3.7000000000000020e+00 +8.1526124114549816e+00 +0.0000000000000000e+00 +3.6999999729324542e+00 -3.2436380109091376e-02 -5.9266049656698339e-01 +5.8886932320139805e-03
3.8000000000000020e+00 +8.1525911776010371e+00 +0.0000000000000000e+00 +3.7999999706779377e+00 -3.2436595973055891e-02 -5.9266054775217891e-01 +5.8888309006186971e-03
3.9000000000000021e+00 +8.1525693775103534e+00 +0.0000000000000000e+00 +3.8999999683015845e+00 -3.2436808481033204e-02 -5.9266059739351062e-01 +5.8889714035101461e-03
4.0000000000000018e+00 +8.1525470111828842e+00 +0.0000000000000000e+00 +3.9999999658001877e+00 -3.2437016821815767e-02 -5.9266064518747619e-01 +5.8891147322909319e-03
4.1000000000000014e+00 +8.1525240786185851e+00 +0.0000000000000000e+00 +4.0999999631705419e+00 -3.2437220403460115e-02 -5.9266069107702246e-01 +5.8892608542540342e-03
4.2000000000000011e+00 +8.1525005798174117e+00 +0.0000000000000000e+00 +4.1999999604094400e+00 -3.2437419511032940e-02 -5.9266073599086821e-01 +5.8894096394514614e-03
4.3000000000000007e+00 +8.1524765147793232e+00 +0.0000000000000000e+00 +4.2999999575136760e+00 -3.2437614648834275e-02 -5.9266078110417375e-01 +5.8895609336226187e-03
4.4000000000000004e+00 +8.1524518835042770e+00 +0.0000000000000000e+00 +4.3999999544800437e+00 -3.2437806321140496e-02 -5.9266082759209404e-01 +5.8897145825039382e-03
4.5000000000000000e+00 +8.1524266859922285e+00 +0.0000000000000000e+00 +4.4999999513053366e+00 -3.2437995032202648e-02 -5.9266087662977940e-01 +5.8898704318286832e-03
4.5999999999999996e+00 +8.1524009222431317e+00 +0.0000000000000000e+00 +4.5999999479863494e+00 -3.2438181286244726e-02 -5.9266092939237580e-01 +5.8900283273267380e-03
4.6999999999999993e+00 +8.1523745922569368e+00 +0.0000000000000000e+00 +4.6999999445198748e+00 -3.2438365587461895e-02 -5.9266098705502257e-01 +5.8901881147243830e-03
4.7999999999999989e+00 +8.1523476960335906e+00 +0.0000000000000000e+00 +4.7999999409027074e+00 -3.2438548440018831e-02 -5.9266105079285292e-01 +5.8903496397440854e-03
4.8999999999999986e+00 +8.1523202335730307e+00 +0.0000000000000000e+00 +4.8999999371316401e+00 -3.2438730348047971e-02 -5.9266112178099351e-01 +5.8905127481043021e-03
4.9999999999999982e+00 +8.1522922048751916e+00 +0.0000000000000000e+00 +4.9999999332034673e+00 -3.2438911815647807e-02 -5.9266120119456356e-01 +5.8906772855192319e-03
5.0999999999999979e+00 +8.1522636099399985e+00 +0.0000000000000000e+00 +5.0999999291149818e+00 -3.2439093346881158e-02 -5.9266129020867508e-01 +5.8908430976986371e-03
5.1999999999999975e+00 +8.1522344487673664e+00 +0.0000000000000000e+00 +5.1999999248629782e+00 -3.2439275445773387e-02 -5.9266138999843154e-01 +5.8910100303476258e-03
5.2999999999999972e+00 +8.1522047213572009e+00 +0.0000000000000000e+00 +5.2999999204442503e+00 -3.2439458616310785e-02 -5.9266150173892684e-01 +5.8911779291664123e-03
5.3999999999999968e+00 +8.1521744277093973e+00 +0.0000000000000000e+00 +5.3999999158555907e+00 -3.2439643362438778e-02 -5.9266162660524702e-01 +5.8913466398501360e-03
5.4999999999999964e+00 +8.1521435678238348e+00 +0.0000000000000000e+00 +5.4999999110937940e+00 -3.2439830188060167e-02 -5.9266176577246721e-01 +5.8915160080886307e-03
5.5999999999999961e+00 +8.1521121417003837e+00 +0.0000000000000000e+00 +5.5999999061556540e+00 -3.2440019597033541e-02 -5.9266192041565358e-01 +5.8916858795662174e-03
5.6999999999999957e+00 +8.1520801493388966e+00 +0.0000000000000000e+00 +5.6999999010379643e+00 -3.2440212093171383e-02 -5.9266209170986028e-01 +5.8918560999614922e-03
5.7999999999999954e+00 +8.1520475907392100e+00 +0.0000000000000000e+00 +5.7999998957375185e+00 -3.2440408180238481e-02 -5.9266228083013062e-01 +5.8920265149471109e-03
5.8999999999999950e+00 +8.1520144659011446e+00 +0.0000000000000000e+00 +5.8999998902511104e+00 -3.2440608361950111e-02 -5.9266248895149676e-01 +5.8921969701895794e-03
5.9999999999999947e+00 +8.1519807748245015e+00 +0.0000000000000000e+00 +5.9999998845755336e+00 -3.2440813141970372e-02 -5.9266271724897779e-01 +5.8923673113490341e-03
6.0999999999999943e+00 +8.1519465175090655e+00 +0.0000000000000000e+00 +6.0999998787075818e+00 -3.2441022794457562e-02 -5.9266296642894745e-01 +5.8925374106726580e-03
6.1999999999999940e+00 +8.1519116939545988e+00 +0.0000000000000000e+00 +6.1999998726440486e+00 -3.2441236675730685e-02 -5.9266323532323228e-01 +5.8927072467785451e-03
6.2999999999999936e+00 +8.1518763041608455e+00 +0.0000000000000000e+00 +6.2999998663817269e+00 -3.2441453912681710e-02 -5.9266352229501618e-01 +5.8928768248796386e-03
6.3999999999999932e+00 +8.1518403481275339e+00 +0.0000000000000000e+00 +6.3999998599174113e+00 -3.2441673632239286e-02 -5.9266382570747767e-01 +5.8930461501907850e-03
6.4999999999999929e+00 +8.1518038258543744e+00 +0.0000000000000000e+00 +6.4999998532478953e+00 -3.2441894961370600e-02 -5.9266414392378963e-01 +5.8932152279288531e-03
6.5999999999999925e+00 +8.1517667373410632e+00 +0.0000000000000000e+00 +6.5999998463699727e+00 -3.2442117027083411e-02 -5.9266447530711952e-01 +5.8933840633128851e-03
6.6999999999999922e+00 +8.1517290825872859e+00 +0.0000000000000000e+00 +6.6999998392804363e+00 -3.2442338956427869e-02 -5.9266481822062878e-01 +5.8935526615642312e-03
6.7999999999999918e+00 +8.1516908615927175e+00 +0.0000000000000000e+00 +6.7999998319760806e+00 -3.2442559876498411e-02 -5.9266517102747240e-01 +5.8937210279066858e-03
6.8999999999999915e+00 +8.1516520743570204e+00 +0.0000000000000000e+00 +6.8999998244536984e+00 -3.2442778914435852e-02 -5.9266553209079975e-01 +5.8938891675666258e-03
6.9999999999999911e+00 +8.1516127208798519e+00 +0.0000000000000000e+00 +6.9999998167100834e+00 -3.2442995197429138e-02 -5.9266589977375239e-01 +5.8940570857731545e-03
7.0999999999999908e+00 +8.1515728011608619e+00 +0.0000000000000000e+00 +7.0999998087420293e+00 -3.2443207852717364e-02 -5.9266627243946701e-01 +5.8942247877582345e-03
7.1999999999999904e+00 +8.1515323151996970e+00 +0.0000000000000000e+00 +7.1999998005463297e+00 -3.2443416007591604e-02 -5.9266664845107209e-01 +5.8943922787568241e-03
7.2999999999999901e+00 +8.1514912629959966e+00 +0.0000000000000000e+00 +7.2999997921197783e+00 -3.2443618789397020e-02 -5.9266702617168987e-01 +5.8945595640070222e-03
7.3999999999999897e+00 +8.1514496445494036e+00 +0.0000000000000000e+00 +7.3999997834591689e+00 -3.2443815325534565e-02 -5.9266740396443529e-01 +5.8947266487502075e-03
7.4999999999999893e+00 +8.1514074598595574e+00 +0.0000000000000000e+00 +7.4999997745612950e+00 -3.2444004743463054e-02 -5.9266778019241606e-01 +5.8948935382311706e-03
7.5999999999999890e+00 +8.1513647089261010e+00 +0.0000000000000000e+00 +7.5999997654229494e+00 -3.2444186170701050e-02 -5.9266815321873223e-01 +5.8950602376982514e-03
7.6999999999999886e+00 +8.1513213917486791e+00 +0.0000000000000000e+00 +7.6999997560409259e+00 -3.2444358734828802e-02 -5.9266852140647641e-01 +5.8952267524034919e-03
7.7999999999999883e+00 +8.1512775083269418e+00 +0.0000000000000000e+00 +7.7999997464120181e+00 -3.2444521563490140e-02 -5.9266888311873356e-01 +5.8953930876027632e-03
7.8999999999999879e+00 +8.1512330586605444e+00 +0.0000000000000000e+00 +7.8999997365330197e+00 -3.2444673784394397e-02 -5.9266923671858029e-01 +5.8955592485559014e-03
7.9999999999999876e+00 +8.1511880427491512e+00 +0.0000000000000000e+00 +7.9999997264007243e+00 -3.2444814525318402e-02 -5.9266958056908536e-01 +5.8957252405268598e-03
8.0999999999999872e+00 +8.1511424605924336e+00 +0.0000000000000000e+00 +8.0999997160119257e+00 -3.2444943251772100e-02 -5.9266991346167186e-01 +5.8958910736152288e-03
8.1999999999999869e+00 +8.1510963121900772e+00 +0.0000000000000000e+00 +8.1999997053634157e+00 -3.2445060779968234e-02 -5.9267023590122103e-01 +5.8960567772496373e-03
8.2999999999999865e+00 +8.1510495975417729e+00 +0.0000000000000000e+00 +8.2999996944519889e+00 -3.2445168263765527e-02 -5.9267054882098091e-01 +5.8962223856917533e-03
8.3999999999999861e+00 +8.1510023166472259e+00 +0.0000000000000000e+00 +8.3999996832744390e+00 -3.2445266856989723e-02 -5.9267085315419787e-01 +5.8963879332045921e-03
8.4999999999999858e+00 +8.1509544695061447e+00 +0.0000000000000000e+00 +8.4999996718275597e+00 -3.2445357713432280e-02 -5.9267114983411717e-01 +5.8965534540525583e-03
8.5999999999999854e+00 +8.1509060561182487e+00 +0.0000000000000000e+00 +8.5999996601081445e+00 -3.2445441986849143e-02 -5.9267143979398185e-01 +5.8967189825014782e-03
8.6999999999999851e+00 +8.1508570764832609e+00 +0.0000000000000000e+00 +8.6999996481129873e+00 -3.2445520830959439e-02 -5.9267172396703327e-01 +5.8968845528186448e-03
8.7999999999999847e+00 +8.1508075306009129e+00 +0.0000000000000000e+00 +8.7999996358388799e+00 -3.2445595399444298e-02 -5.9267200328651104e-01 +5.8970501992728578e-03
8.8999999999999844e+00 +8.1507574184709384e+00 +0.0000000000000000e+00 +8.8999996232826177e+00 -3.2445666845945534e-02 -5.9267227868565342e-01 +5.8972159561344537e-03
8.9999999999999840e+00 +8.1507067400930762e+00 +0.0000000000000000e+00 +8.9999996104409927e+00 -3.2445736324064445e-02 -5.9267255109769768e-01 +5.8973818576753597e-03
9.0999999999999837e+00 +8.1506554954670669e+00 +0.0000000000000000e+00 +9.0999995973108003e+00 -3.2445804987360487e-02 -5.9267282145587841e-01 +5.8975479381691174e-03
9.1999999999999833e+00 +8.1506036845926548e+00 +0.0000000000000000e+00 +9.1999995838888324e+00 -3.2445873989350109e-02 -5.9267309069343055e-01 +5.8977142318909293e-03
9.2999999999999829e+00 +8.1505513074695841e+00 +0.0000000000000000e+00 +9.2999995701718827e+00 -3.2445944483505462e-02 -5.9267335974358526e-01 +5.8978807731176969e-03
9.3999999999999826e+00 +8.1504983640975990e+00 +0.0000000000000000e+00 +9.3999995561567449e+00 -3.2446017623253082e-02 -5.9267362953957492e-01 +5.8980475961280558e-03
9.4999999999999822e+00 +8.1504448544764436e+00 +0.0000000000000000e+00 +9.4999995418402126e+00 -3.2446094561972741e-02 -5.9267390101462902e-01 +5.8982147352024169e-03
9.5999999999999819e+00 +8.1503907786058605e+00 +0.0000000000000000e+00 +9.5999995272190795e+00 -3.2446176452996127e-02 -5.9267417510197573e-01 +5.8983822246230005e-03
9.6999999999999815e+00 +8.1503361364855884e+00 +0.0000000000000000e+00 +9.6999995122901375e+00 -3.2446264449605633e-02 -5.9267445273484320e-01 +5.8985500986738831e-03
9.7999999999999812e+00 +8.1502809281153645e+00 +0.0000000000000000e+00 +9.7999994970501820e+00 -3.2446359705033047e-02 -5.9267473484645716e-01 +5.8987183916410215e-03
9.8999999999999808e+00 +8.1502251534949206e+00 +0.0000000000000000e+00 +9.8999994814960051e+00 -3.2446463372458378e-02 -5.9267502237004333e-01 +5.8988871378123061e-03
9.9999999999999805e+00 +8.1501688126239831e+00 +0.0000000000000000e+00 +9.9999994656244020e+00 -3.2446576605008527e-02 -5.9267531623882519e-01 +5.8990563714775802e-03
1.0099999999999980e+01 +8.1501119055022748e+00 +0.0000000000000000e+00 +1.0099999449432165e+01 -3.2446700181197587e-02 -5.9267561722200157e-01 +5.8992261234250580e-03
1.0199999999999980e+01 +8.1500544321295081e+00 +0.0000000000000000e+00 +1.0199999432916087e+01 -3.2446833381245661e-02 -5.9267592543265568e-01 +5.8993964104297816e-03
1.0299999999999979e+01 +8.1499963925053915e+00 +0.0000000000000000e+00 +1.0299999416072962e+01 -3.2446975110800171e-02 -5.9267624081982362e-01 +5.8995672457639713e-03
1.0399999999999979e+01 +8.1499377866296250e+00 +0.0000000000000000e+00 +1.0399999398899585e+01 -3.2447124275511489e-02 -5.9267656333252416e-01 +5.8997386427007067e-03
1.0499999999999979e+01 +8.1498786145019029e+00 +0.0000000000000000e+00 +1.0499999381392746e+01 -3.2447279781032998e-02 -5.9267689291975556e-01 +5.8999106145139176e-03
1.0599999999999978e+01 +8.1498188761219108e+00 +0.0000000000000000e+00 +1.0599999363549241e+01 -3.2447440533021364e-02 -5.9267722953049795e-01 +5.9000831744783983e-03
1.0699999999999978e+01 +8.1497585714893308e+00 +0.0000000000000000e+00 +1.0699999345365862e+01 -3.2447605437136685e-02 -5.9267757311371105e-01 +5.9002563358698133e-03
1.0799999999999978e+01 +8.1496977006038360e+00 +0.0000000000000000e+00 +1.0799999326839403e+01 -3.2447773399042687e-02 -5.9267792361833493e-01 +5.9004301119647195e-03
1.0899999999999977e+01 +8.1496362634650925e+00 +0.0000000000000000e+00 +1.0899999307966658e+01 -3.2447943324406869e-02 -5.9267828099328856e-01 +5.9006045160405526e-03
1.0999999999999977e+01 +8.1495742600727628e+00 +0.0000000000000000e+00 +1.0999999288744419e+01 -3.2448114118900771e-02 -5.9267864518747060e-01 +5.9007795613756579e-03
1.1099999999999977e+01 +8.1495116904264986e+00 +0.0000000000000000e+00 +1.1099999269169480e+01 -3.2448284688200074e-02 -5.9267901614975838e-01 +5.9009552612492820e-03
1.1199999999999976e+01 +8.1494485545259483e+00 +0.0000000000000000e+00 +1.1199999249238635e+01 -3.2448453937984817e-02 -5.9267939382900769e-01 +5.9011316289415945e-03
1.1299999999999976e+01 +8.1493848523707548e+00 +0.0000000000000000e+00 +1.1299999228948677e+01 -3.2448620773939563e-02 -5.9267977817405237e-01 +5.9013086777336896e-03
1.1399999999999975e+01 +8.1493205839605505e+00 +0.0000000000000000e+00 +1.1399999208296398e+01 -3.2448784101753621e-02 -5.9268016913370347e-01 +5.9014864209075866e-03
1.1499999999999975e+01 +8.1492557492949658e+00 +0.0000000000000000e+00 +1.1499999187278593e+01 -3.2448942827121123e-02 -5.9268056665674984e-01 +5.9016648717462638e-03
1.1599999999999975e+01 +8.1491903483736223e+00 +0.0000000000000000e+00 +1.1599999165892054e+01 -3.2449095855741350e-02 -5.9268097069195713e-01 +5.9018440435336366e-03
1.1699999999999974e+01 +8.1491243811961365e+00 +0.0000000000000000e+00 +1.1699999144133576e+01 -3.2449242093318779e-02 -5.9268138118806757e-01 +5.9020239495545853e-03
1.1799999999999974e+01 +8.1490578477621174e+00 +0.0000000000000000e+00 +1.1799999121999951e+01 -3.2449380445563322e-02 -5.9268179809379928e-01 +5.9022046030949632e-03
