# field on trajectory
# s[mm] rx[mm] ry[mm] rz[mm] bx[T] by[T] bz[T]
0.0000000000000000e+00 +7.9199999999999999e+00 +0.0000000000000000e+00 +0.0000000000000000e+00 -2.7876083742696019e-02 -5.3830522187676555e-01 +5.4193674992018982e-03
-1.0000000000000001e-01 +7.9199997170760010e+00 +0.0000000000000000e+00 -9.9999999999466349e-02 -2.7875878042379780e-02 -5.3830520513003743e-01 +5.4193484585428097e-03
-2.0000000000000001e-01 +7.9199988683040150e+00 +0.0000000000000000e+00 -1.9999999999573087e-01 -2.7875682177025442e-02 -5.3830519305854740e-01 +5.4193316027575968e-03
-3.0000000000000004e-01 +7.9199974536840552e+00 +0.0000000000000000e+00 -2.9999999998559168e-01 -2.7875496031940943e-02 -5.3830518561674845e-01 +5.4193168229765805e-03
-4.0000000000000002e-01 +7.9199954732161286e+00 +0.0000000000000000e+00 -3.9999999996584701e-01 -2.7875319492431619e-02 -5.3830518275911066e-01 +5.4193040103305574e-03
-5.0000000000000000e-01 +7.9199929269002389e+00 +0.0000000000000000e+00 -4.9999999993329497e-01 -2.7875152443801531e-02 -5.3830518444012010e-01 +5.4192930559508285e-03
-5.9999999999999998e-01 +7.9199898147363843e+00 +0.0000000000000000e+00 -5.9999999988473374e-01 -2.7874994771354682e-02 -5.3830519061427629e-01 +5.4192838509692113e-03
-6.9999999999999996e-01 +7.9199861367245576e+00 +0.0000000000000000e+00 -6.9999999981696148e-01 -2.7874846360396315e-02 -5.3830520123609249e-01 +5.4192762865180651e-03
-7.9999999999999993e-01 +7.9199818928647483e+00 +0.0000000000000000e+00 -7.9999999972677638e-01 -2.7874707096234165e-02 -5.3830521626009353e-01 +5.4192702537303088e-03
-8.9999999999999991e-01 +7.9199770831569412e+00 +0.0000000000000000e+00 -8.9999999961097654e-01 -2.7874576864179695e-02 -5.3830523564081367e-01 +5.4192656437394415e-03
-9.9999999999999989e-01 +7.9199717076011158e+00 +0.0000000000000000e+00 -9.9999999946636020e-01 -2.7874455549549430e-02 -5.3830525933279683e-01 +5.4192623476795642e-03
-1.0999999999999999e+00 +7.9199657661972473e+00 +0.0000000000000000e+00 -1.0999999992897254e+00 -2.7874343037666147e-02 -5.3830528729059401e-01 +5.4192602566853964e-03
-1.2000000000000000e+00 +7.9199592589453065e+00 +0.0000000000000000e+00 -1.1999999990778702e+00 -2.7874239213860227e-02 -5.3830531946876292e-01 +5.4192592618923013e-03
-1.3000000000000000e+00 +7.9199521858452604e+00 +0.0000000000000000e+00 -1.2999999988275932e+00 -2.7874143963470828e-02 -5.3830535582186523e-01 +5.4192592544362985e-03
-1.4000000000000001e+00 +7.9199445468970699e+00 +0.0000000000000000e+00 -1.3999999985356921e+00 -2.7874057171847221e-02 -5.3830539630446683e-01 +5.4192601254540937e-03
-1.5000000000000002e+00 +7.9199363421006934e+00 +0.0000000000000000e+00 -1.4999999981989653e+00 -2.7873978724350035e-02 -5.3830544087113608e-01 +5.4192617660830927e-03
-1.6000000000000003e+00 +7.9199275714560846e+00 +0.0000000000000000e+00 -1.5999999978142110e+00 -2.7873908506352484e-02 -5.3830548947644064e-01 +5.4192640674614184e-03
-1.7000000000000004e+00 +7.9199182349631920e+00 +0.0000000000000000e+00 -1.6999999973782272e+00 -2.7873846403241719e-02 -5.3830554207494918e-01 +5.4192669207279408e-03
-1.8000000000000005e+00 +7.9199083326219606e+00 +0.0000000000000000e+00 -1.7999999968878120e+00 -2.7873792300419985e-02 -5.3830559862122795e-01 +5.4192702170222894e-03
-1.9000000000000006e+00 +7.9198978644323317e+00 +0.0000000000000000e+00 -1.8999999963397636e+00 -2.7873746083306013e-02 -5.3830565906983985e-01 +5.4192738474848762e-03
-2.0000000000000004e+00 +7.9198868303942422e+00 +0.0000000000000000e+00 -1.9999999957308803e+00 -2.7873707637336157e-02 -5.3830572337534366e-01 +5.4192777032569155e-03
-2.1000000000000005e+00 +7.9198752305076248e+00 +0.0000000000000000e+00 -2.0999999950579600e+00 -2.7873676653719575e-02 -5.3830579156685376e-01 +5.4192816822264357e-03
-2.2000000000000006e+00 +7.9198630647724073e+00 +0.0000000000000000e+00 -2.1999999943178010e+00 -2.7873652046693738e-02 -5.3830586397173086e-01 +5.4192857092662987e-03
-2.3000000000000007e+00 +7.9198503331885153e+00 +0.0000000000000000e+00 -2.2999999935072015e+00 -2.7873632536250539e-02 -5.3830594099189555e-01 +5.4192897159962726e-03
-2.4000000000000008e+00 +7.9198370357558669e+00 +0.0000000000000000e+00 -2.3999999926229596e+00 -2.7873616842379535e-02 -5.3830602302926522e-01 +5.4192936340370628e-03
-2.5000000000000009e+00 +7.9198231724743771e+00 +0.0000000000000000e+00 -2.4999999916618734e+00 -2.7873603685066774e-02 -5.3830611048575450e-01 +5.4192973950103447e-03
-2.6000000000000010e+00 +7.9198087433439541e+00 +0.0000000000000000e+00 -2.5999999906207409e+00 -2.7873591784293522e-02 -5.3830620376327398e-01 +5.4193009305387877e-03
-2.7000000000000011e+00 +7.9197937483645005e+00 +0.0000000000000000e+00 -2.6999999894963604e+00 -2.7873579860035021e-02 -5.3830630326372952e-01 +5.4193041722460705e-03
-2.8000000000000012e+00 +7.9197781875359121e+00 +0.0000000000000000e+00 -2.7999999882855300e+00 -2.7873566632259282e-02 -5.3830640938902208e-01 +5.4193070517569277e-03
-2.9000000000000012e+00 +7.9197620608580772e+00 +0.0000000000000000e+00 -2.8999999869850477e+00 -2.7873550820925800e-02 -5.3830652254104705e-01 +5.4193095006971640e-03
-3.0000000000000013e+00 +7.9197453683308785e+00 +0.0000000000000000e+00 -2.9999999855917121e+00 -2.7873531145984374e-02 -5.3830664312169307e-01 +5.4193114506936738e-03
-3.1000000000000014e+00 +7.9197281099541890e+00 +0.0000000000000000e+00 -3.0999999841023209e+00 -2.7873506327373808e-02 -5.3830677153284212e-01 +5.4193128333744839e-03
-3.2000000000000015e+00 +7.9197102857278736e+00 +0.0000000000000000e+00 -3.1999999825136722e+00 -2.7873475085020728e-02 -5.3830690817636839e-01 +5.4193135803687646e-03
-3.3000000000000016e+00 +7.9196918956517903e+00 +0.0000000000000000e+00 -3.2999999808225642e+00 -2.7873436138838303e-02 -5.3830705345413798e-01 +5.4193136233068647e-03
-3.4000000000000017e+00 +7.9196729397257863e+00 +0.0000000000000000e+00 -3.3999999790257953e+00 -2.7873388208725036e-02 -5.3830720776800833e-01 +5.4193128938203371e-03
-3.5000000000000018e+00 +7.9196534179497009e+00 +0.0000000000000000e+00 -3.4999999771201633e+00 -2.7873330014563526e-02 -5.3830737151982699e-01 +5.4193113235419619e-03
-3.6000000000000019e+00 +7.9196333303233617e+00 +0.0000000000000000e+00 -3.5999999751024663e+00 -2.7873260276219183e-02 -5.3830754511143186e-01 +5.4193088441057699e-03
-3.7000000000000020e+00 +7.9196126768465867e+00 +0.0000000000000000e+00 -3.6999999729695023e+00 -2.7873177713539074e-02 -5.3830772894465007e-01 +5.4193053871470819e-03
-3.8000000000000020e+00 +7.9195914575191839e+00 +0.0000000000000000e+00 -3.7999999707180696e+00 -2.7873081046350622e-02 -5.3830792342129763e-01 +5.4193008843025211e-03
-3.9000000000000021e+00 +7.9195696723409492e+00 +0.0000000000000000e+00 -3.8999999683449662e+00 -2.7872968994460401e-02 -5.3830812894317837e-01 +5.4192952672100433e-03
-4.0000000000000018e+00 +7.9195473213116676e+00 +0.0000000000000000e+00 -3.9999999658469902e+00 -2.7872840277652862e-02 -5.3830834591208354e-01 +5.4192884675089712e-03
-4.1000000000000014e+00 +7.9195244044311108e+00 +0.0000000000000000e+00 -4.0999999632209398e+00 -2.7872694110331837e-02 -5.3830857455463776e-01 +5.4192804713495265e-03
-4.2000000000000011e+00 +7.9195009216990400e+00 +0.0000000000000000e+00 -4.1999999604636127e+00 -2.7872531685455365e-02 -5.3830881439683775e-01 +5.4192714829204135e-03
-4.3000000000000007e+00 +7.9194768731152037e+00 +0.0000000000000000e+00 -4.2999999575718073e+00 -2.7872354690616812e-02 -5.3830906478952179e-01 +5.4192617609179726e-03
-4.4000000000000004e+00 +7.9194522586793399e+00 +0.0000000000000000e+00 -4.3999999545423218e+00 -2.7872164813402496e-02 -5.3830932508352547e-01 +5.4192515640360765e-03
-4.5000000000000000e+00 +7.9194270783911751e+00 +0.0000000000000000e+00 -4.4999999513719535e+00 -2.7871963741391597e-02 -5.3830959462968220e-01 +5.4192411509659316e-03
-4.5999999999999996e+00 +7.9194013322504269e+00 +0.0000000000000000e+00 -4.5999999480575013e+00 -2.7871753162156000e-02 -5.3830987277882170e-01 +5.4192307803958778e-03
-4.6999999999999993e+00 +7.9193750202568047e+00 +0.0000000000000000e+00 -4.6999999445957625e+00 -2.7871534763260191e-02 -5.3831015888177169e-01 +5.4192207110112210e-03
-4.7999999999999989e+00 +7.9193481424100076e+00 +0.0000000000000000e+00 -4.7999999409835361e+00 -2.7871310232261127e-02 -5.3831045228935659e-01 +5.4192112014940057e-03
-4.8999999999999986e+00 +7.9193206987097291e+00 +0.0000000000000000e+00 -4.8999999372176193e+00 -2.7871081256708102e-02 -5.3831075235239978e-01 +5.4192025105228485e-03
-4.9999999999999982e+00 +7.9192926891556539e+00 +0.0000000000000000e+00 -4.9999999332948102e+00 -2.7870849524142607e-02 -5.3831105842172011e-01 +5.4191948967727303e-03
-5.0999999999999979e+00 +7.9192641137474613e+00 +0.0000000000000000e+00 -5.0999999292119069e+00 -2.7870616722098243e-02 -5.3831136984813555e-01 +5.4191886189148093e-03
-5.1999999999999975e+00 +7.9192349724848254e+00 +0.0000000000000000e+00 -5.1999999249657076e+00 -2.7870384538100562e-02 -5.3831168598246071e-01 +5.4191839356162253e-03
-5.2999999999999972e+00 +7.9192052653674141e+00 +0.0000000000000000e+00 -5.2999999205530104e+00 -2.7870154659666930e-02 -5.3831200617550845e-01 +5.4191811055399053e-03
-5.3999999999999968e+00 +7.9191749923948924e+00 +0.0000000000000000e+00 -5.3999999159706125e+00 -2.7869928774306416e-02 -5.3831232977808885e-01 +5.4191803873443701e-03
-5.4999999999999964e+00 +7.9191441535669211e+00 +0.0000000000000000e+00 -5.4999999112153128e+00 -2.7869708569519678e-02 -5.3831265614101032e-01 +5.4191820396835453e-03
-5.5999999999999961e+00 +7.9191127488831583e+00 +0.0000000000000000e+00 -5.5999999062839088e+00 -2.7869495732798802e-02 -5.3831298461507870e-01 +5.4191863212065565e-03
-5.6999999999999957e+00 +7.9190807783432593e+00 +0.0000000000000000e+00 -5.6999999011731983e+00 -2.7869291951627195e-02 -5.3831331455109721e-01 +5.4191934905575495e-03
-5.7999999999999954e+00 +7.9190482419468786e+00 +0.0000000000000000e+00 -5.7999998958799797e+00 -2.7869098913479474e-02 -5.3831364529986825e-01 +5.4192038063754838e-03
-5.8999999999999950e+00 +7.9190151396936699e+00 +0.0000000000000000e+00 -5.8999998904010500e+00 -2.7868918305821260e-02 -5.3831397621219079e-01 +5.4192175272939416e-03
-5.9999999999999947e+00 +7.9189814715832867e+00 +0.0000000000000000e+00 -5.9999998847332083e+00 -2.7868751816109132e-02 -5.3831430663886304e-01 +5.4192349119409440e-03
-6.0999999999999943e+00 +7.9189472376153827e+00 +0.0000000000000000e+00 -6.0999998788732519e+00 -2.7868600732345844e-02 -5.3831463608901553e-01 +5.4192561418066618e-03
-6.1999999999999940e+00 +7.9189124377896123e+00 +0.0000000000000000e+00 -6.1999998728179788e+00 -2.7868464744751121e-02 -5.3831496470512030e-01 +5.4192810898490125e-03
-6.2999999999999936e+00 +7.9188770721056310e+00 +0.0000000000000000e+00 -6.2999998665641872e+00 -2.7868343144116899e-02 -5.3831529278798018e-01 +5.4193095518957641e-03
-6.3999999999999932e+00 +7.9188411405630950e+00 +0.0000000000000000e+00 -6.3999998601086752e+00 -2.7868235221258399e-02 -5.3831562063839300e-01 +5.4193413237780767e-03
-6.4999999999999929e+00 +7.9188046431616614e+00 +0.0000000000000000e+00 -6.4999998534482399e+00 -2.7868140267015260e-02 -5.3831594855715137e-01 +5.4193762013306813e-03
-6.5999999999999925e+00 +7.9187675799009858e+00 +0.0000000000000000e+00 -6.5999998465796796e+00 -2.7868057572252636e-02 -5.3831627684504257e-01 +5.4194139803920641e-03
-6.6999999999999922e+00 +7.9187299507807252e+00 +0.0000000000000000e+00 -6.6999998394997924e+00 -2.7867986427862396e-02 -5.3831660580284824e-01 +5.4194544568046494e-03
-6.7999999999999918e+00 +7.9186917558005341e+00 +0.0000000000000000e+00 -6.7999998322053763e+00 -2.7867926124764221e-02 -5.3831693573134465e-01 +5.4194974264149725e-03
-6.8999999999999915e+00 +7.9186529949600679e+00 +0.0000000000000000e+00 -6.8999998246932286e+00 -2.7867875953906777e-02 -5.3831726693130189e-01 +5.4195426850738746e-03
-6.9999999999999911e+00 +7.9186136682589794e+00 +0.0000000000000000e+00 -6.9999998169601474e+00 -2.7867835206268808e-02 -5.3831759970348536e-01 +5.4195900286366679e-03
-7.0999999999999908e+00 +7.9185737756969194e+00 +0.0000000000000000e+00 -7.0999998090029308e+00 -2.7867803172860316e-02 -5.3831793434865383e-01 +5.4196392529633304e-03
-7.1999999999999904e+00 +7.9185333172735382e+00 +0.0000000000000000e+00 -7.1999998008183770e+00 -2.7867779144723714e-02 -5.3831827116756115e-01 +5.4196901539186881e-03
-7.2999999999999901e+00 +7.9184922929884820e+00 +0.0000000000000000e+00 -7.2999997924032831e+00 -2.7867762412934902e-02 -5.3831861046095408e-01 +5.4197425273725839e-03
-7.3999999999999897e+00 +7.9184507028413957e+00 +0.0000000000000000e+00 -7.3999997837544473e+00 -2.7867752268604447e-02 -5.3831895252957440e-01 +5.4197961692000725e-03
-7.4999999999999893e+00 +7.9184085468319214e+00 +0.0000000000000000e+00 -7.4999997748686678e+00 -2.7867748002878740e-02 -5.3831929767415687e-01 +5.4198508752815898e-03
-7.5999999999999890e+00 +7.9183658249596975e+00 +0.0000000000000000e+00 -7.5999997657427425e+00 -2.7867748906941114e-02 -5.3831964619543171e-01 +5.4199064415031469e-03
-7.6999999999999886e+00 +7.9183225372243591e+00 +0.0000000000000000e+00 -7.6999997563734688e+00 -2.7867754272012973e-02 -5.3831999839412081e-01 +5.4199626637565033e-03
-7.7999999999999883e+00 +7.9182786836255374e+00 +0.0000000000000000e+00 -7.7999997467576447e+00 -2.7867763389354993e-02 -5.3832035457094174e-01 +5.4200193379393552e-03
-7.8999999999999879e+00 +7.9182342641628596e+00 +0.0000000000000000e+00 -7.8999997368920676e+00 -2.7867775550268172e-02 -5.3832071502660439e-01 +5.4200762599555122e-03
-7.9999999999999876e+00 +7.9181892788359480e+00 +0.0000000000000000e+00 -7.9999997267735354e+00 -2.7867790046095034e-02 -5.3832108006181301e-01 +5.4201332257150731e-03
-8.0999999999999872e+00 +7.9181437276444200e+00 +0.0000000000000000e+00 -8.0999997163988464e+00 -2.7867806250170390e-02 -5.3832144988655584e-01 +5.4201900465470458e-03
-8.1999999999999869e+00 +7.9180976105878882e+00 +0.0000000000000000e+00 -8.1999997057647978e+00 -2.7867823863649135e-02 -5.3832182434797116e-01 +5.4202465954331855e-03
-8.2999999999999865e+00 +7.9180509276659610e+00 +0.0000000000000000e+00 -8.2999996948681876e+00 -2.7867842669612716e-02 -5.3832220320245971e-01 +5.4203027607633587e-03
-8.3999999999999861e+00 +7.9180036788782413e+00 +0.0000000000000000e+00 -8.3999996837058131e+00 -2.7867862451110847e-02 -5.3832258620639395e-01 +5.4203584309216717e-03
-8.4999999999999858e+00 +7.9179558642243286e+00 +0.0000000000000000e+00 -8.4999996722744733e+00 -2.7867882991160439e-02 -5.3832297311611621e-01 +5.4204134942862723e-03
-8.5999999999999854e+00 +7.9179074837038170e+00 +0.0000000000000000e+00 -8.5999996605709654e+00 -2.7867904072744355e-02 -5.3832336368793854e-01 +5.4204678392291593e-03
-8.6999999999999851e+00 +7.9178585373162980e+00 +0.0000000000000000e+00 -8.6999996485920867e+00 -2.7867925478810392e-02 -5.3832375767814278e-01 +5.4205213541159989e-03
-8.7999999999999847e+00 +7.9178090250613584e+00 +0.0000000000000000e+00 -8.7999996363346362e+00 -2.7867946992270028e-02 -5.3832415484297746e-01 +5.4205739273059106e-03
-8.8999999999999844e+00 +7.9177589469385827e+00 +0.0000000000000000e+00 -8.8999996237954093e+00 -2.7867968395997294e-02 -5.3832455493865949e-01 +5.4206254471512927e-03
-8.9999999999999840e+00 +7.9177083029475526e+00 +0.0000000000000000e+00 -8.9999996109712068e+00 -2.7867989472827703e-02 -5.3832495772137257e-01 +5.4206758019976192e-03
-9.0999999999999837e+00 +7.9176570930878460e+00 +0.0000000000000000e+00 -9.0999995978588242e+00 -2.7868010005556988e-02 -5.3832536294726641e-01 +5.4207248801832466e-03
-9.1999999999999833e+00 +7.9176053173590386e+00 +0.0000000000000000e+00 -9.1999995844550586e+00 -2.7868029776940039e-02 -5.3832577037245521e-01 +5.4207725700392249e-03
-9.2999999999999829e+00 +7.9175529757607030e+00 +0.0000000000000000e+00 -9.2999995707567091e+00 -2.7868048569689736e-02 -5.3832617975301877e-01 +5.4208187598891048e-03
-9.3999999999999826e+00 +7.9175000682924113e+00 +0.0000000000000000e+00 -9.3999995567605730e+00 -2.7868066166475781e-02 -5.3832659084499990e-01 +5.4208633380487311e-03
-9.4999999999999822e+00 +7.9174465949537334e+00 +0.0000000000000000e+00 -9.4999995424634491e+00 -2.7868082349923579e-02 -5.3832700340440509e-01 +5.4209061928260751e-03
-9.5999999999999819e+00 +7.9173925557442368e+00 +0.0000000000000000e+00 -9.5999995278621331e+00 -2.7868096902613070e-02 -5.3832741718720289e-01 +5.4209472125210153e-03
-9.6999999999999815e+00 +7.9173379506634882e+00 +0.0000000000000000e+00 -9.6999995129534238e+00 -2.7868109607077612e-02 -5.3832783194932343e-01 +5.4209862854251610e-03
-9.7999999999999812e+00 +7.9172827797110541e+00 +0.0000000000000000e+00 -9.7999994977341185e+00 -2.7868120245802805e-02 -5.3832824744665819e-01 +5.4210232998216567e-03
-9.8999999999999808e+00 +7.9172270428864984e+00 +0.0000000000000000e+00 -9.8999994822010162e+00 -2.7868128601225357e-02 -5.3832866343505836e-01 +5.4210581439849831e-03
-9.9999999999999805e+00 +7.9171707401893867e+00 +0.0000000000000000e+00 -9.9999994663509124e+00 -2.7868134455731941e-02 -5.3832907967033505e-01 +5.4210907061807735e-03
-1.0099999999999980e+01 +7.9171138716192830e+00 +0.0000000000000000e+00 -1.0099999450180606e+01 -2.7868137634073583e-02 -5.3832949593588975e-01 +5.4211209323343839e-03
-1.0199999999999980e+01 +7.9170564371757512e+00 +0.0000000000000000e+00 -1.0199999433686894e+01 -2.7868138130643021e-02 -5.3832991212564463e-01 +5.4211489990449993e-03
-1.0299999999999979e+01 +7.9169984368583561e+00 +0.0000000000000000e+00 -1.0299999416866575e+01 -2.7868135982277862e-02 -5.3833032816120041e-01 +5.4211751405848860e-03
-1.0399999999999979e+01 +7.9169398706666616e+00 +0.0000000000000000e+00 -1.0399999399716446e+01 -2.7868131225851925e-02 -5.3833074396421299e-01 +5.4211995912299329e-03
-1.0499999999999979e+01 +7.9168807386002333e+00 +0.0000000000000000e+00 -1.0499999382233305e+01 -2.7868123898276212e-02 -5.3833115945639465e-01 +5.4212225852597893e-03
-1.0599999999999978e+01 +7.9168210406586361e+00 +0.0000000000000000e+00 -1.0599999364413950e+01 -2.7868114036499976e-02 -5.3833157455951630e-01 +5.4212443569579688e-03
-1.0699999999999978e+01 +7.9167607768414356e+00 +0.0000000000000000e+00 -1.0699999346255177e+01 -2.7868101677511650e-02 -5.3833198919540859e-01 +5.4212651406119793e-03
-1.0799999999999978e+01 +7.9166999471481976e+00 +0.0000000000000000e+00 -1.0799999327753785e+01 -2.7868086858339927e-02 -5.3833240328596388e-01 +5.4212851705134337e-03
-1.0899999999999977e+01 +7.9166385515784885e+00 +0.0000000000000000e+00 -1.0899999308906569e+01 -2.7868069616054762e-02 -5.3833281675313793e-01 +5.4213046809581927e-03
-1.0999999999999977e+01 +7.9165765901318768e+00 +0.0000000000000000e+00 -1.0999999289710329e+01 -2.7868049987768338e-02 -5.3833322951895091e-01 +5.4213239062464473e-03
-1.1099999999999977e+01 +7.9165140628079298e+00 +0.0000000000000000e+00 -1.1099999270161863e+01 -2.7868028010636089e-02 -5.3833364150548968e-01 +5.4213430806828731e-03
-1.1199999999999976e+01 +7.9164509696062160e+00 +0.0000000000000000e+00 -1.1199999250257967e+01 -2.7868003721857760e-02 -5.3833405263490919e-01 +5.4213624385767312e-03
-1.1299999999999976e+01 +7.9163873105263063e+00 +0.0000000000000000e+00 -1.1299999229995439e+01 -2.7867977158678330e-02 -5.3833446282943409e-01 +5.4213822142419954e-03
-1.1399999999999975e+01 +7.9163230855677709e+00 +0.0000000000000000e+00 -1.1399999209371078e+01 -2.7867948358389082e-02 -5.3833487201136021e-01 +5.4214026419974635e-03
-1.1499999999999975e+01 +7.9162582947301816e+00 +0.0000000000000000e+00 -1.1499999188381679e+01 -2.7867917358328595e-02 -5.3833528010305665e-01 +5.4214239561668869e-03
-1.1599999999999975e+01 +7.9161929380131122e+00 +0.0000000000000000e+00 -1.1599999167024041e+01 -2.7867884195883721e-02 -5.3833568702696699e-01 +5.4214463910790822e-03
-1.1699999999999974e+01 +7.9161270154161363e+00 +0.0000000000000000e+00 -1.1699999145294962e+01 -2.7867848908490631e-02 -5.3833609270561067e-01 +5.4214701810680575e-03
