# field on trajectory
# s[mm] rx[mm] ry[mm] rz[mm] bx[T] by[T] bz[T]
0.0000000000000000e+00 +8.1529999999999987e+00 +0.0000000000000000e+00 +0.0000000000000000e+00 -2.9582032964289386e-02 -5.6504889842331629e-01 +5.7131904769804369e-03
1.0000000000000001e-01 +8.1529997167849295e+00 +0.0000000000000000e+00 +9.9999999999465253e-02 -2.9581957729079844e-02 -5.6504876942239723e-01 +5.7131932111967095e-03
2.0000000000000001e-01 +8.1529988671398073e+00 +0.0000000000000000e+00 +1.9999999999572210e-01 -2.9581879265976430e-02 -5.6504866184721847e-01 +5.7131950470813795e-03
3.0000000000000004e-01 +8.1529974510647385e+00 +0.0000000000000000e+00 +2.9999999998556204e-01 -2.9581798411102717e-02 -5.6504857421097188e-01 +5.7131961074725389e-03
4.0000000000000002e-01 +8.1529954685598121e+00 +0.0000000000000000e+00 +3.9999999996577673e-01 -2.9581716000588724e-02 -5.6504850502686843e-01 +5.7131965152090484e-03
5.0000000000000000e-01 +8.1529929196250972e+00 +0.0000000000000000e+00 +4.9999999993315769e-01 -2.9581632870569825e-02 -5.6504845280813509e-01 +5.7131963931304494e-03
5.9999999999999998e-01 +8.1529898042606472e+00 +0.0000000000000000e+00 +5.9999999988449648e-01 -2.9581549857185602e-02 -5.6504841606801270e-01 +5.7131958640768924e-03
6.9999999999999996e-01 +8.1529861224664977e+00 +0.0000000000000000e+00 +6.9999999981658478e-01 -2.9581467796578720e-02 -5.6504839331975176e-01 +5.7131950508890524e-03
7.9999999999999993e-01 +8.1529818742426716e+00 +0.0000000000000000e+00 +7.9999999972621405e-01 -2.9581387524893782e-02 -5.6504838307661187e-01 +5.7131940764080505e-03
8.9999999999999991e-01 +8.1529770595891815e+00 +0.0000000000000000e+00 +8.9999999961017596e-01 -2.9581309878276226e-02 -5.6504838385185607e-01 +5.7131930634753700e-03
9.9999999999999989e-01 +8.1529716785060256e+00 +0.0000000000000000e+00 +9.9999999946526197e-01 -2.9581235692871185e-02 -5.6504839415875086e-01 +5.7131921349327895e-03
1.0999999999999999e+00 +8.1529657309931931e+00 +0.0000000000000000e+00 +1.0999999992882636e+00 -2.9581165804822354e-02 -5.6504841251056137e-01 +5.7131914136222869e-03
1.2000000000000000e+00 +8.1529592170506664e+00 +0.0000000000000000e+00 +1.1999999990759727e+00 -2.9581101050270869e-02 -5.6504843742055066e-01 +5.7131910223859666e-03
1.3000000000000000e+00 +8.1529521366784223e+00 +0.0000000000000000e+00 +1.2999999988251807e+00 -2.9581042265354157e-02 -5.6504846740197401e-01 +5.7131910840659897e-03
1.4000000000000001e+00 +8.1529444898764289e+00 +0.0000000000000000e+00 +1.3999999985326792e+00 -2.9580990286204822e-02 -5.6504850096807879e-01 +5.7131917215044702e-03
1.5000000000000002e+00 +8.1529362766446543e+00 +0.0000000000000000e+00 +1.4999999981952596e+00 -2.9580945948949538e-02 -5.6504853663210031e-01 +5.7131930575434215e-03
1.6000000000000003e+00 +8.1529274969830627e+00 +0.0000000000000000e+00 +1.5999999978097137e+00 -2.9580910089707885e-02 -5.6504857290726018e-01 +5.7131952150246612e-03
1.7000000000000004e+00 +8.1529181508916189e+00 +0.0000000000000000e+00 +1.6999999973728328e+00 -2.9580883544591197e-02 -5.6504860830676151e-01 +5.7131983167897317e-03
1.8000000000000005e+00 +8.1529082383702871e+00 +0.0000000000000000e+00 +1.7999999968814087e+00 -2.9580867149701519e-02 -5.6504864134378840e-01 +5.7132024856798276e-03
1.9000000000000006e+00 +8.1528977594190355e+00 +0.0000000000000000e+00 +1.8999999963322329e+00 -2.9580861741130404e-02 -5.6504867053150165e-01 +5.7132078445357119e-03
2.0000000000000004e+00 +8.1528867140378338e+00 +0.0000000000000000e+00 +1.9999999957220971e+00 -2.9580868154957789e-02 -5.6504869438303684e-01 +5.7132145161976344e-03
2.1000000000000005e+00 +8.1528751022266590e+00 +0.0000000000000000e+00 +2.0999999950477926e+00 -2.9580886892671392e-02 -5.6504871172232107e-01 +5.7132226111555754e-03
2.2000000000000006e+00 +8.1528629239854951e+00 +0.0000000000000000e+00 +2.1999999943061113e+00 -2.9580917117430890e-02 -5.6504872261654071e-01 +5.7132321905003823e-03
2.3000000000000007e+00 +8.1528501793143295e+00 +0.0000000000000000e+00 +2.2999999934938442e+00 -2.9580957657813003e-02 -5.6504872744368717e-01 +5.7132433029731585e-03
2.4000000000000008e+00 +8.1528368682131607e+00 +0.0000000000000000e+00 +2.3999999926077833e+00 -2.9581007342392263e-02 -5.6504872658173921e-01 +5.7132559973150010e-03
2.5000000000000009e+00 +8.1528229906819867e+00 +0.0000000000000000e+00 +2.4999999916447204e+00 -2.9581064999741280e-02 -5.6504872040866228e-01 +5.7132703222670190e-03
2.6000000000000010e+00 +8.1528085467208165e+00 +0.0000000000000000e+00 +2.5999999906014466e+00 -2.9581129458431010e-02 -5.6504870930240669e-01 +5.7132863265703078e-03
2.7000000000000011e+00 +8.1527935363296606e+00 +0.0000000000000000e+00 +2.6999999894747537e+00 -2.9581199547031024e-02 -5.6504869364090871e-01 +5.7133040589659829e-03
2.8000000000000012e+00 +8.1527779595085352e+00 +0.0000000000000000e+00 +2.7999999882614333e+00 -2.9581274094109745e-02 -5.6504867380208945e-01 +5.7133235681951569e-03
2.9000000000000012e+00 +8.1527618162574615e+00 +0.0000000000000000e+00 +2.8999999869582767e+00 -2.9581351928234790e-02 -5.6504865016385442e-01 +5.7133449029989607e-03
3.0000000000000013e+00 +8.1527451065764627e+00 +0.0000000000000000e+00 +2.9999999855620758e+00 -2.9581431877973113e-02 -5.6504862310409365e-01 +5.7133681121185409e-03
3.1000000000000014e+00 +8.1527278304655670e+00 +0.0000000000000000e+00 +3.0999999840696222e+00 -2.9581512771891416e-02 -5.6504859300068044e-01 +5.7133932442950614e-03
3.2000000000000015e+00 +8.1527099879248048e+00 +0.0000000000000000e+00 +3.1999999824777072e+00 -2.9581593438556288e-02 -5.6504856023147165e-01 +5.7134203482697016e-03
3.3000000000000016e+00 +8.1526915789542098e+00 +0.0000000000000000e+00 +3.2999999807831224e+00 -2.9581672706534543e-02 -5.6504852517430659e-01 +5.7134494727836696e-03
3.4000000000000017e+00 +8.1526726035538175e+00 +0.0000000000000000e+00 +3.3999999789826596e+00 -2.9581749404393478e-02 -5.6504848820700693e-01 +5.7134806665781971e-03
3.5000000000000018e+00 +8.1526530617236652e+00 +0.0000000000000000e+00 +3.4999999770731103e+00 -2.9581822360701129e-02 -5.6504844970737700e-01 +5.7135139783945459e-03
3.6000000000000019e+00 +8.1526329534637920e+00 +0.0000000000000000e+00 +3.5999999750512659e+00 -2.9581890404026548e-02 -5.6504841005320205e-01 +5.7135494569740125e-03
3.7000000000000020e+00 +8.1526122787742388e+00 +0.0000000000000000e+00 +3.6999999729139184e+00 -2.9581952362940030e-02 -5.6504836962224791e-01 +5.7135871510579231e-03
3.8000000000000020e+00 +8.1525910376550463e+00 +0.0000000000000000e+00 +3.7999999706578591e+00 -2.9582007066013483e-02 -5.6504832879226219e-01 +5.7136271093876402e-03
3.9000000000000021e+00 +8.1525692301062573e+00 +0.0000000000000000e+00 +3.8999999682798796e+00 -2.9582053341820572e-02 -5.6504828794097228e-01 +5.7136693807045766e-03
4.0000000000000018e+00 +8.1525468561279126e+00 +0.0000000000000000e+00 +3.9999999657767713e+00 -2.9582090018937093e-02 -5.6504824744608528e-01 +5.7137140137501798e-03
4.1000000000000014e+00 +8.1525239157200531e+00 +0.0000000000000000e+00 +4.0999999631453257e+00 -2.9582116249012233e-02 -5.6504820766870212e-01 +5.7137610407433743e-03
4.2000000000000011e+00 +8.1525004088827195e+00 +0.0000000000000000e+00 +4.1999999603823346e+00 -2.9582132475978417e-02 -5.6504816890358356e-01 +5.7138104278127268e-03
4.3000000000000007e+00 +8.1524763356159511e+00 +0.0000000000000000e+00 +4.2999999574845900e+00 -2.9582139466828496e-02 -5.6504813142894295e-01 +5.7138621245641395e-03
4.4000000000000004e+00 +8.1524516959197868e+00 +0.0000000000000000e+00 +4.3999999544488828e+00 -2.9582137988542256e-02 -5.6504809552303992e-01 +5.7139160806034522e-03
4.5000000000000000e+00 +8.1524264897942640e+00 +0.0000000000000000e+00 +4.4999999512720050e+00 -2.9582128808085684e-02 -5.6504806146418385e-01 +5.7139722455364170e-03
4.5999999999999996e+00 +8.1524007172394164e+00 +0.0000000000000000e+00 +4.5999999479507485e+00 -2.9582112692410404e-02 -5.6504802953073741e-01 +5.7140305689687126e-03
4.6999999999999993e+00 +8.1523743782552778e+00 +0.0000000000000000e+00 +4.6999999444819043e+00 -2.9582090408453027e-02 -5.6504800000111943e-01 +5.7140910005059409e-03
4.7999999999999989e+00 +8.1523474728418783e+00 +0.0000000000000000e+00 +4.7999999408622642e+00 -2.9582062723134440e-02 -5.6504797315380872e-01 +5.7141534897536001e-03
4.8999999999999986e+00 +8.1523200009992447e+00 +0.0000000000000000e+00 +4.8999999370886194e+00 -2.9582030403359289e-02 -5.6504794926734747e-01 +5.7142179863171111e-03
4.9999999999999982e+00 +8.1522919627274035e+00 +0.0000000000000000e+00 +4.9999999331577625e+00 -2.9581994216015199e-02 -5.6504792862034403e-01 +5.7142844398017870e-03
5.0999999999999979e+00 +8.1522633580263744e+00 +0.0000000000000000e+00 +5.0999999290664837e+00 -2.9581954927972255e-02 -5.6504791149147648e-01 +5.7143527998128494e-03
5.1999999999999975e+00 +8.1522341868961767e+00 +0.0000000000000000e+00 +5.1999999248115758e+00 -2.9581913306082272e-02 -5.6504789815949685e-01 +5.7144230159554129e-03
5.2999999999999972e+00 +8.1522044493368249e+00 +0.0000000000000000e+00 +5.2999999203898298e+00 -2.9581870117178197e-02 -5.6504788890323365e-01 +5.7144950378344777e-03
5.3999999999999968e+00 +8.1521741453483276e+00 +0.0000000000000000e+00 +5.3999999157980376e+00 -2.9581826128073471e-02 -5.6504788400159522e-01 +5.7145688150549373e-03
5.4999999999999964e+00 +8.1521432749306921e+00 +0.0000000000000000e+00 +5.4999999110329902e+00 -2.9581782105561335e-02 -5.6504788373357273e-01 +5.7146442972215638e-03
5.5999999999999961e+00 +8.1521118380839201e+00 +0.0000000000000000e+00 +5.5999999060914796e+00 -2.9581738816414248e-02 -5.6504788837824504e-01 +5.7147214339390113e-03
5.6999999999999957e+00 +8.1520798348080064e+00 +0.0000000000000000e+00 +5.6999999009702975e+00 -2.9581697027383193e-02 -5.6504789821478052e-01 +5.7148001748118030e-03
5.7999999999999954e+00 +8.1520472651029436e+00 +0.0000000000000000e+00 +5.7999998956662351e+00 -2.9581657505197090e-02 -5.6504791352244133e-01 +5.7148804694443353e-03
5.8999999999999950e+00 +8.1520141289687160e+00 +0.0000000000000000e+00 +5.8999998901760842e+00 -2.9581621016562070e-02 -5.6504793458058611e-01 +5.7149622674408677e-03
5.9999999999999947e+00 +8.1519804264053040e+00 +0.0000000000000000e+00 +5.9999998844966367e+00 -2.9581588328160862e-02 -5.6504796166867366e-01 +5.7150455184055244e-03
6.0999999999999943e+00 +8.1519461574126826e+00 +0.0000000000000000e+00 +6.0999998786246836e+00 -2.9581560053547021e-02 -5.6504799494336588e-01 +5.7151301459970180e-03
6.1999999999999940e+00 +8.1519113219908181e+00 +0.0000000000000000e+00 +6.1999998725570169e+00 -2.9581536193847204e-02 -5.6504803406977333e-01 +5.7152159700928845e-03
6.2999999999999936e+00 +8.1518759201396733e+00 +0.0000000000000000e+00 +6.2999998662904275e+00 -2.9581516597114599e-02 -5.6504807859007233e-01 +5.7153027846261438e-03
6.3999999999999932e+00 +8.1518399518592037e+00 +0.0000000000000000e+00 +6.3999998598217074e+00 -2.9581501111442046e-02 -5.6504812804639049e-01 +5.7153903835308840e-03
6.4999999999999929e+00 +8.1518034171493614e+00 +0.0000000000000000e+00 +6.4999998531476484e+00 -2.9581489584963951e-02 -5.6504818198080387e-01 +5.7154785607422993e-03
6.5999999999999925e+00 +8.1517663160100948e+00 +0.0000000000000000e+00 +6.5999998462650415e+00 -2.9581481865858145e-02 -5.6504823993533448e-01 +5.7155671101967410e-03
6.6999999999999922e+00 +8.1517286484413454e+00 +0.0000000000000000e+00 +6.6999998391706788e+00 -2.9581477802347832e-02 -5.6504830145194729e-01 +5.7156558258317581e-03
6.7999999999999918e+00 +8.1516904144430544e+00 +0.0000000000000000e+00 +6.7999998318613519e+00 -2.9581477242703408e-02 -5.6504836607254683e-01 +5.7157445015861398e-03
6.8999999999999915e+00 +8.1516516140151563e+00 +0.0000000000000000e+00 +6.8999998243338521e+00 -2.9581480035244363e-02 -5.6504843333897559e-01 +5.7158329313999577e-03
6.9999999999999911e+00 +8.1516122471575869e+00 +0.0000000000000000e+00 +6.9999998165849711e+00 -2.9581486028341201e-02 -5.6504850279300955e-01 +5.7159209092146205e-03
7.0999999999999908e+00 +8.1515723138702771e+00 +0.0000000000000000e+00 +7.0999998086114999e+00 -2.9581495070417314e-02 -5.6504857397635666e-01 +5.7160082289729021e-03
7.1999999999999904e+00 +8.1515318141531559e+00 +0.0000000000000000e+00 +7.1999998004102306e+00 -2.9581507009950818e-02 -5.6504864643065222e-01 +5.7160946846190027e-03
7.2999999999999901e+00 +8.1514907480061538e+00 +0.0000000000000000e+00 +7.2999997919779540e+00 -2.9581521695476540e-02 -5.6504871969745918e-01 +5.7161800700985801e-03
7.3999999999999897e+00 +8.1514491154291964e+00 +0.0000000000000000e+00 +7.3999997833114630e+00 -2.9581538975587820e-02 -5.6504879331826141e-01 +5.7162641793587982e-03
7.4999999999999893e+00 +8.1514069164222125e+00 +0.0000000000000000e+00 +7.4999997744075477e+00 -2.9581558698938425e-02 -5.6504886683446331e-01 +5.7163468063483732e-03
7.5999999999999890e+00 +8.1513641509851311e+00 +0.0000000000000000e+00 +7.5999997652630009e+00 -2.9581580714244469e-02 -5.6504893978738657e-01 +5.7164277450176236e-03
7.6999999999999886e+00 +8.1513208191178794e+00 +0.0000000000000000e+00 +7.6999997558746127e+00 -2.9581604870286261e-02 -5.6504901171826694e-01 +5.7165067893185009e-03
7.7999999999999883e+00 +8.1512769208203864e+00 +0.0000000000000000e+00 +7.7999997462391759e+00 -2.9581631015910208e-02 -5.6504908216825056e-01 +5.7165837332046453e-03
7.8999999999999879e+00 +8.1512324560925826e+00 +0.0000000000000000e+00 +7.8999997363534815e+00 -2.9581659000030725e-02 -5.6504915067839345e-01 +5.7166583706314287e-03
7.9999999999999876e+00 +8.1511874249344007e+00 +0.0000000000000000e+00 +7.9999997262143214e+00 -2.9581688671632116e-02 -5.6504921678965569e-01 +5.7167304955560039e-03
8.0999999999999872e+00 +8.1511418273457767e+00 +0.0000000000000000e+00 +8.0999997158184875e+00 -2.9581719791131167e-02 -5.6504928035783786e-01 +5.7167999661175408e-03
8.1999999999999869e+00 +8.1510956633266485e+00 +0.0000000000000000e+00 +8.1999997051627691e+00 -2.9581751764429894e-02 -5.6504934249843175e-01 +5.7168668971774072e-03
8.2999999999999865e+00 +8.1510489328769538e+00 +0.0000000000000000e+00 +8.2999996942439598e+00 -2.9581783908785513e-02 -5.6504940464186404e-01 +5.7169314677728341e-03
8.3999999999999861e+00 +8.1510016359966340e+00 +0.0000000000000000e+00 +8.3999996830588515e+00 -2.9581815541443391e-02 -5.6504946821855917e-01 +5.7169938569348270e-03
8.4999999999999858e+00 +8.1509537726856252e+00 +0.0000000000000000e+00 +8.4999996716042343e+00 -2.9581845979636329e-02 -5.6504953465894237e-01 +5.7170542436879596e-03
8.5999999999999854e+00 +8.1509053429438616e+00 +0.0000000000000000e+00 +8.5999996598769002e+00 -2.9581874540583850e-02 -5.6504960539343918e-01 +5.7171128070501861e-03
8.6999999999999851e+00 +8.1508563467712740e+00 +0.0000000000000000e+00 +8.6999996478736410e+00 -2.9581900541491384e-02 -5.6504968185247506e-01 +5.7171697260326344e-03
8.7999999999999847e+00 +8.1508067841677878e+00 +0.0000000000000000e+00 +8.7999996355912486e+00 -2.9581923299549631e-02 -5.6504976546647712e-01 +5.7172251796394147e-03
8.8999999999999844e+00 +8.1507566551333213e+00 +0.0000000000000000e+00 +8.8999996230265133e+00 -2.9581942131933742e-02 -5.6504985766587201e-01 +5.7172793468674163e-03
8.9999999999999840e+00 +8.1507059596677820e+00 +0.0000000000000000e+00 +8.9999996101762267e+00 -2.9581956355802647e-02 -5.6504995988108853e-01 +5.7173324067061118e-03
9.0999999999999837e+00 +8.1506546977710705e+00 +0.0000000000000000e+00 +9.0999995970371810e+00 -2.9581965288298220e-02 -5.6505007354255632e-01 +5.7173845381373548e-03
9.1999999999999833e+00 +8.1506028694430732e+00 +0.0000000000000000e+00 +9.1999995836061679e+00 -2.9581968246544691e-02 -5.6505020008070661e-01 +5.7174359201351927e-03
9.2999999999999829e+00 +8.1505504746836657e+00 +0.0000000000000000e+00 +9.2999995698799793e+00 -2.9581964547647749e-02 -5.6505034092597295e-01 +5.7174867316656533e-03
9.3999999999999826e+00 +8.1504975134927076e+00 +0.0000000000000000e+00 +9.3999995558554055e+00 -2.9581953508693911e-02 -5.6505049750879033e-01 +5.7175371516865582e-03
9.4999999999999822e+00 +8.1504439858700444e+00 +0.0000000000000000e+00 +9.4999995415292382e+00 -2.9581934446749759e-02 -5.6505067125959685e-01 +5.7175873591473218e-03
9.5999999999999819e+00 +8.1503898918155020e+00 +0.0000000000000000e+00 +9.5999995268982694e+00 -2.9581906678861201e-02 -5.6505086360883239e-01 +5.7176375329887402e-03
9.6999999999999815e+00 +8.1503352313288904e+00 +0.0000000000000000e+00 +9.6999995119592910e+00 -2.9581869522052696e-02 -5.6505107598694027e-01 +5.7176878521428129e-03
9.7999999999999812e+00 +8.1502800044099981e+00 +0.0000000000000000e+00 +9.7999994967090931e+00 -2.9581822293326596e-02 -5.6505130982436647e-01 +5.7177384955325308e-03
9.8999999999999808e+00 +8.1502242110585925e+00 +0.0000000000000000e+00 +9.8999994811444676e+00 -2.9581764309662362e-02 -5.6505156655156019e-01 +5.7177896420716788e-03
9.9999999999999805e+00 +8.1501678512744178e+00 +0.0000000000000000e+00 +9.9999994652622064e+00 -2.9581694888015785e-02 -5.6505184759897464e-01 +5.7178414706646353e-03
1.0099999999999980e+01 +8.1501109250571933e+00 +0.0000000000000000e+00 +1.0099999449059100e+01 -2.9581613701554293e-02 -5.6505215388311059e-01 +5.7178941191096816e-03
1.0199999999999980e+01 +8.1500534324066152e+00 +0.0000000000000000e+00 +1.0199999432531941e+01 -2.9581521848379148e-02 -5.6505248426462573e-01 +5.7179475608120246e-03
1.0299999999999979e+01 +8.1499953733223531e+00 +0.0000000000000000e+00 +1.0299999415677519e+01 -2.9581420782791551e-02 -5.6505283709022658e-01 +5.7180017280840266e-03
1.0399999999999979e+01 +8.1499367478040572e+00 +0.0000000000000000e+00 +1.0399999398492627e+01 -2.9581311959042077e-02 -5.6505321070664383e-01 +5.7180565532445561e-03
1.0499999999999979e+01 +8.1498775558513525e+00 +0.0000000000000000e+00 +1.0499999380974055e+01 -2.9581196831329339e-02 -5.6505360346063227e-01 +5.7181119686191750e-03
1.0599999999999978e+01 +8.1498177974638484e+00 +0.0000000000000000e+00 +1.0599999363118595e+01 -2.9581076853798651e-02 -5.6505401369897224e-01 +5.7181679065403520e-03
1.0699999999999978e+01 +8.1497574726411361e+00 +0.0000000000000000e+00 +1.0699999344923038e+01 -2.9580953480540725e-02 -5.6505443976846970e-01 +5.7182242993476561e-03
1.0799999999999978e+01 +8.1496965813827895e+00 +0.0000000000000000e+00 +1.0799999326384176e+01 -2.9580828165590385e-02 -5.6505488001595772e-01 +5.7182810793879593e-03
1.0899999999999977e+01 +8.1496351236883715e+00 +0.0000000000000000e+00 +1.0899999307498799e+01 -2.9580702362925201e-02 -5.6505533278829556e-01 +5.7183381790156442e-03
1.0999999999999977e+01 +8.1495730995574274e+00 +0.0000000000000000e+00 +1.0999999288263700e+01 -2.9580577526464161e-02 -5.6505579643237103e-01 +5.7183955305927904e-03
1.1099999999999977e+01 +8.1495105089894970e+00 +0.0000000000000000e+00 +1.1099999268675669e+01 -2.9580455110066409e-02 -5.6505626929510078e-01 +5.7184530664893905e-03
1.1199999999999976e+01 +8.1494473519841080e+00 +0.0000000000000000e+00 +1.1199999248731496e+01 -2.9580336567529876e-02 -5.6505674972343001e-01 +5.7185107190835518e-03
1.1299999999999976e+01 +8.1493836285407806e+00 +0.0000000000000000e+00 +1.1299999228427973e+01 -2.9580223352589946e-02 -5.6505723606433478e-01 +5.7185684207616775e-03
1.1399999999999975e+01 +8.1493193386590281e+00 +0.0000000000000000e+00 +1.1399999207761892e+01 -2.9580116918918223e-02 -5.6505772666482046e-01 +5.7186261039186906e-03
1.1499999999999975e+01 +8.1492544823383621e+00 +0.0000000000000000e+00 +1.1499999186730046e+01 -2.9580018720121087e-02 -5.6505821987192550e-01 +5.7186837009582268e-03
1.1599999999999975e+01 +8.1491890595782905e+00 +0.0000000000000000e+00 +1.1599999165329221e+01 -2.9579930209738477e-02 -5.6505871403271912e-01 +5.7187411442928314e-03
1.1699999999999974e+01 +8.1491230703783213e+00 +0.0000000000000000e+00 +1.1699999143556212e+01 -2.9579852841242496e-02 -5.6505920749430383e-01 +5.7187983663441752e-03
1.1799999999999974e+01 +8.1490565147379606e+00 +0.0000000000000000e+00 +1.1799999121407810e+01 -2.9579788068036125e-02 -5.6505969860381522e-01 +5.7188552995432367e-03
