# multipoles
# s[mm] polynom_b[n=0][T/m^n] polynom_b[n=1][T/m^n] polynom_b[n=2][T/m^n] polynom_b[n=3][T/m^n] polynom_b[n=4][T/m^n] polynom_b[n=5][T/m^n] polynom_b[n=6][T/m^n] 
-0.0000000000000000e+00 -5.9368661077008389e-01 +8.1263610747337562e+00 -1.0088210875035740e-01 -7.9992590485740083e+00 +9.1257625687481857e+02 -9.0149032833239136e+04 -6.7073215933424169e+06 
-1.0000000000000001e-01 -5.9368682030945330e-01 +8.1263510088771529e+00 -1.0405468314139237e-01 -7.6066065075606542e+00 +9.6813758781273452e+02 -9.2515045378255949e+04 -6.9249672155392105e+06 
-2.0000000000000001e-01 -5.9368702279974295e-01 +8.1263373045986675e+00 -1.0859253642897314e-01 -7.0993292103553953e+00 +1.0402791311463295e+03 -9.5524509832843803e+04 -7.1970845793211842e+06 
-2.9999999999999999e-01 -5.9368721940996649e-01 +8.1263203582537962e+00 -1.1438039944723585e-01 -6.4896417971661249e+00 +1.1274715125985226e+03 -9.9108638127274331e+04 -7.5182044471363379e+06 
-4.0000000000000002e-01 -5.9368741130911473e-01 +8.1263005662078260e+00 -1.2130300795379262e-01 -5.7897591473521013e+00 +1.2281854477750826e+03 -1.0319864101049661e+05 -7.8828579925828287e+06 
-5.0000000000000000e-01 -5.9368759966612328e-01 +8.1262783248328798e+00 -1.2924509391075606e-01 -5.0118962994830882e+00 +1.3408915797446425e+03 -1.0772572847493182e+05 -8.2855760371522773e+06 
-5.9999999999999998e-01 -5.9368778564995539e-01 +8.1262540305021265e+00 -1.3809139282477809e-01 -4.1682682942535534e+00 +1.4640606142313600e+03 -1.1262111063358744e+05 -8.7208896848327629e+06 
-6.9999999999999996e-01 -5.9368797042966348e-01 +8.1262280795952577e+00 -1.4772664023517632e-01 -3.2710903349942648e+00 +1.5961632563033052e+03 -1.1781599677130094e+05 -9.1833300298438836e+06 
-8.0000000000000004e-01 -5.9368815517411300e-01 +8.1262008684944060e+00 -1.5803557289640791e-01 -2.3325776712844259e+00 +1.7356702354710865e+03 -1.2324159600451167e+05 -9.6674282878238689e+06 
-9.0000000000000002e-01 -5.9368834105230406e-01 +8.1261727935820485e+00 -1.6890292563185472e-01 -1.3649455418055869e+00 +1.8810522427602402e+03 -1.2882911758942598e+05 -1.0167715484929621e+07 
-1.0000000000000000e+00 -5.9368852923325488e-01 +8.1261442512434776e+00 -1.8021343084257607e-01 -3.8040925871186942e-01 +2.0307799256321957e+03 -1.3450977038135214e+05 -1.0678722452327922e+07 
-1.1000000000000001e+00 -5.9368872088585978e-01 +8.1261156378563513e+00 -1.9185182586503186e-01 +6.0881609489038291e-01 +2.1833240294118095e+03 -1.4021476459184126e+05 -1.1194980499604480e+07 
-1.2000000000000000e+00 -5.9368891717917960e-01 +8.1260873498051858e+00 -2.0370284152736162e-01 +1.5905152424450562e+00 +2.3371551750125727e+03 -1.4587530930814464e+05 -1.1711020349273438e+07 
-1.3000000000000000e+00 -5.9368911928219947e-01 +8.1260597834659887e+00 -2.1565120366654961e-01 +2.5524731535479663e+00 +2.4907438952443076e+03 -1.5142261501612153e+05 -1.2221372330963401e+07 
-1.3999999999999999e+00 -5.9368932836393784e-01 +8.1260333352105878e+00 -2.2758164499255693e-01 +3.4824749093409908e+00 +2.6425608555645777e+03 -1.5678789279017152e+05 -1.2720567418459455e+07 
-1.5000000000000000e+00 -5.9368954559349496e-01 +8.1260084014073009e+00 -2.3937888816758204e-01 +4.3683056845321815e+00 +2.7910765378542801e+03 -1.6190235417192767e+05 -1.3203135743997788e+07 
-1.6000000000000001e+00 -5.9368977213993235e-01 +8.1259853784150149e+00 -2.5092765352766272e-01 +5.1977509009276988e+00 +2.9347613866333427e+03 -1.6669721201044050e+05 -1.3663607291922940e+07 
-1.7000000000000000e+00 -5.9369000917232828e-01 +8.1259646625880482e+00 -2.6211265936938211e-01 +5.9585961091802222e+00 +3.0720858142230031e+03 -1.7110367982075739e+05 -1.4096511924921187e+07 
-1.8000000000000000e+00 -5.9369025785987095e-01 +8.1259466502668403e+00 -2.7281862101757515e-01 +6.6386272217809212e+00 +3.2015201820818975e+03 -1.7505297302373624e+05 -1.4496379294608649e+07 
-1.8999999999999999e+00 -5.9369051937168893e-01 +8.1259317377862619e+00 -2.8293024731771044e-01 +7.2256302831954793e+00 +3.3215347413035529e+03 -1.7847630762987229e+05 -1.4857738577968765e+07 
-2.0000000000000000e+00 -5.9369079487706955e-01 +8.1259203214669569e+00 -2.9233224202667707e-01 +7.7073917192459209e+00 +3.4305996553780851e+03 -1.8130490167445922e+05 -1.5175118578442555e+07 
-2.1000000000000001e+00 -5.9369108537378201e-01 +8.1259127075739084e+00 -3.0092688986396016e-01 +8.0745125475933843e+00 +3.5274502158418290e+03 -1.8348620373834300e+05 -1.5444106401238494e+07 
-2.2000000000000002e+00 -5.9369139119805048e-01 +8.1259088604085843e+00 -3.0868347192876011e-01 +8.3283336804898820e+00 +3.6118189285029525e+03 -1.8502971152893134e+05 -1.5664226434753267e+07 
-2.2999999999999998e+00 -5.9369171252661235e-01 +8.1259086630772526e+00 -3.1558721535763978e-01 +8.4727588809605141e+00 +3.6836724591717816e+03 -1.8595975769198427e+05 -1.5835916913700253e+07 
-2.3999999999999999e+00 -5.9369204953627475e-01 +8.1259119986769868e+00 -3.2162334961061972e-01 +8.5116921441881139e+00 +3.7429775195093721e+03 -1.8630067602802912e+05 -1.5959616297769185e+07 
-2.5000000000000000e+00 -5.9369240240374721e-01 +8.1259187503019792e+00 -3.2677710546980271e-01 +8.4490375013588626e+00 +3.7897008519299097e+03 -1.8607680033416612e+05 -1.6035763211125726e+07 
-2.6000000000000001e+00 -5.9369277130580056e-01 +8.1259288010348136e+00 -3.3103371067419601e-01 +8.2886992836286257e+00 +3.8238091482515752e+03 -1.8531246594840381e+05 -1.6064796056986291e+07 
-2.7000000000000002e+00 -5.9369315641921294e-01 +8.1259420339495101e+00 -3.3437839130622843e-01 +8.0345820185168417e+00 +3.8452690686488872e+03 -1.8403200909648446e+05 -1.6047153090004668e+07 
-2.7999999999999998e+00 -5.9369355792072054e-01 +8.1259583321174844e+00 -3.3679637967368081e-01 +7.6905902633243430e+00 +3.8540473994619465e+03 -1.8225976595660436e+05 -1.5983273185937418e+07 
-2.8999999999999999e+00 -5.9369397598712315e-01 +8.1259775785993131e+00 -3.3827290035313828e-01 +7.2606288359325388e+00 +3.8501107831750287e+03 -1.8002007395001140e+05 -1.5873594543118415e+07 
-3.0000000000000000e+00 -5.9369441079519492e-01 +8.1259996564452006e+00 -3.3879318120675450e-01 +6.7486027908833872e+00 +3.8334259297056610e+03 -1.7733727158205686e+05 -1.5718555694792518e+07 
-3.1000000000000001e+00 -5.9369486252167469e-01 +8.1260244486958815e+00 -3.3834245510682420e-01 +6.1584174118955470e+00 +3.8039596490560930e+03 -1.7423569843967914e+05 -1.5518595661289580e+07 
-3.2000000000000002e+00 -5.9369533134335262e-01 +8.1260518383898148e+00 -3.3690594848528910e-01 +5.4939779801157496e+00 +3.7616786315900567e+03 -1.7073969378486869e+05 -1.5274152898998283e+07 
-3.2999999999999998e+00 -5.9369581743698285e-01 +8.1260817085462236e+00 -3.3446889276702568e-01 +4.7591902584577070e+00 +3.7065496675838158e+03 -1.6687359932420077e+05 -1.4985666350660462e+07 
-3.3999999999999999e+00 -5.9369632097934000e-01 +8.1261139421839772e+00 -3.3101651755488182e-01 +3.9579599666425431e+00 +3.6385395189260416e+03 -1.6266175624255734e+05 -1.4653574836703768e+07 
-3.5000000000000000e+00 -5.9369684214716878e-01 +8.1261484223060094e+00 -3.2653405621698289e-01 +3.0941932098196037e+00 +3.5576150218676985e+03 -1.5812850759847520e+05 -1.4278317535300488e+07 
-3.6000000000000001e+00 -5.9369738111725223e-01 +8.1261850319064042e+00 -3.2100674121605183e-01 +2.1717962725066116e+00 +3.4637429988494132e+03 -1.5329819713602541e+05 -1.3860333564423574e+07 
-3.7000000000000002e+00 -5.9369793806627291e-01 +8.1262236539724970e+00 -3.1441980749115739e-01 +1.1946755627794747e+00 +3.3568903267329651e+03 -1.4819516897204303e+05 -1.3400062313739453e+07 
-3.7999999999999998e+00 -5.9369851317099243e-01 +8.1262641714779349e+00 -3.0675849092527879e-01 +1.6673779749013867e-01 +3.2370239008324884e+03 -1.4284376860425473e+05 -1.2897943257601300e+07 
-3.8999999999999999e+00 -5.9369910660815395e-01 +8.1263064673834382e+00 -2.9800803060631825e-01 -9.0811001309532158e-01 +3.1041106839059125e+03 -1.3726834285247352e+05 -1.2354416201388720e+07 
-4.0000000000000000e+00 -5.9369971855440773e-01 +8.1263504246418314e+00 -2.8815366646257268e-01 -2.0259607636780128e+00 +2.9581176549797783e+03 -1.3149323848454742e+05 -1.1769921012495495e+07 
-4.0999999999999996e+00 -5.9370034881625067e-01 +8.1263958759890365e+00 -2.7720648991509700e-01 -3.1818109284514264e+00 +2.7993501846531558e+03 -1.2554711778357613e+05 -1.1146112484254014e+07 
-4.2000000000000002e+00 -5.9370099585492531e-01 +8.1264424703830471e+00 -2.6527023141945510e-01 -4.3665158014018095e+00 +2.6293144590007009e+03 -1.1947549782031169e+05 -1.0488943256403731e+07 
-4.2999999999999998e+00 -5.9370165782627260e-01 +8.1264898147112063e+00 -2.5246937614810633e-01 -5.5699536916865480e+00 +2.4497828432819970e+03 -1.1332798893463067e+05 -9.8053149655206632e+06 
-4.4000000000000004e+00 -5.9370233288597851e-01 +8.1265375158748210e+00 -2.3892841345096089e-01 -6.7820032640324577e+00 +2.2625277691252195e+03 -1.0715419956580688e+05 -9.1021295203497559e+06 
-4.5000000000000000e+00 -5.9370301918980128e-01 +8.1265851807874832e+00 -2.2477183691430894e-01 -7.9925435211387663e+00 +2.0693217239812057e+03 -1.0100373625443318e+05 -8.3862890168591775e+06 
-4.5999999999999996e+00 -5.9370371489333629e-01 +8.1266324163772818e+00 -2.1012414434906912e-01 -9.1914538446714928e+00 +1.8719372534623710e+03 -9.4926203500614516e+04 -7.6646957588839475e+06 
-4.7000000000000002e+00 -5.9370441815224595e-01 +8.1266788295905403e+00 -1.9510983894028247e-01 -1.0368614103966475e+01 +1.6721469843090808e+03 -8.8971203108991685e+04 -6.9442523682034705e+06 
-4.7999999999999998e+00 -5.9370512712199941e-01 +8.1267240273875174e+00 -1.7985343144602439e-01 -1.1513904525305698e+01 +1.4717236593320995e+03 -8.3188334994315897e+04 -6.2318619312527627e+06 
-4.9000000000000004e+00 -5.9370583995813786e-01 +8.1267676167533303e+00 -1.6447943677564567e-01 -1.2617206003370592e+01 +1.2724400738567558e+03 -7.7627195379096316e+04 -5.5344277014248203e+06 
-5.0000000000000000e+00 -5.9370655481605394e-01 +8.1268092046837790e+00 -1.4911237231019134e-01 -1.3668399700639631e+01 +1.0760690440124192e+03 -7.2337379105237284e+04 -4.8588529476388246e+06 
-5.0999999999999996e+00 -5.9370726985116817e-01 +8.1268483982033519e+00 -1.3387676498033230e-01 -1.4657367541191293e+01 +8.8438353831896211e+02 -6.7368476849441315e+04 -4.2120415711335307e+06 
-5.2000000000000002e+00 -5.9370798321871487e-01 +8.1268848043541677e+00 -1.1889715194856434e-01 -1.5573991908094891e+01 +6.9915668778895349e+02 -6.2770076835335953e+04 -3.6008981461826493e+06 
-5.2999999999999998e+00 -5.9370869307394547e-01 +8.1269180302027912e+00 -1.0429806987858797e-01 -1.6408155810205589e+01 +5.2216158126903235e+02 -5.8591763961524506e+04 -3.0323269439576436e+06 
-5.4000000000000004e+00 -5.9370939757201113e-01 +8.1269476828405516e+00 -9.0204066925757817e-02 -1.7149742933748591e+01 +3.5517149809916975e+02 -5.4883119378864234e+04 -2.5132330500671985e+06 
-5.5000000000000000e+00 -5.9371009486796877e-01 +8.1269733693790620e+00 -7.6739696052547240e-02 -1.7788637452296680e+01 +1.9995976687160461e+02 -5.1693721783064088e+04 -2.0505216559041673e+06 
-5.5999999999999996e+00 -5.9371078311688574e-01 +8.1269946969629228e+00 -6.4029519011237962e-02 -1.8314724434259833e+01 +5.8299854414500963e+01 -4.9073144933062678e+04 -1.6510985159698767e+06 
-5.7000000000000002e+00 -5.9371146047364731e-01 +8.1270112727627950e+00 -5.2198106348971825e-02 -1.8717889610981107e+01 -6.8034646930390736e+01 -4.7070959098763218e+04 -1.3218698525401705e+06 
-5.7999999999999998e+00 -5.9371212509310389e-01 +8.1270227039715905e+00 -4.1370034909345377e-02 -1.8988019285035158e+01 -1.7727006166928129e+02 -4.5736731546612515e+04 -1.0697421662519458e+06 
-5.9000000000000004e+00 -5.9371277513002862e-01 +8.1270285978221342e+00 -3.1669888510930416e-02 -1.9115000814047448e+01 -2.6763262256421882e+02 -4.5120023805533310e+04 -9.0162226667797496e+05 
-5.9999999999999902e+00 -5.9371340873911327e-01 +8.1270285615964060e+00 -2.3222257848351715e-02 -1.9088722892824837e+01 -3.3734849208768583e+02 -4.5270390587588168e+04 -8.2441715791991318e+05 
-6.0999999999999899e+00 -5.9371402454268296e-01 +8.1270223748513679e+00 -1.6119039272339444e-02 -1.8903664055651596e+01 -3.8517715120304837e+02 -4.6213866861346447e+04 -8.4269734612624324e+05 
-6.1999999999999904e+00 -5.9371462280679266e-01 +8.1270104095360036e+00 -1.0341549705579963e-02 -1.8570060706680291e+01 -4.1163279197188098e+02 -4.7895766882643293e+04 -9.5342715680907958e+05 
-6.2999999999999901e+00 -5.9371520415850365e-01 +8.1269931651571348e+00 -5.8477400517064106e-03 -1.8101539029262085e+01 -4.1758957854739316e+02 -5.0244052377592874e+04 -1.1520287689142120e+06 
-6.3999999999999897e+00 -5.9371576922495450e-01 +8.1269711412266297e+00 -2.5955524067644178e-03 -1.7511725298276019e+01 -4.0392182119237191e+02 -5.3186684976575940e+04 -1.4339237468715766e+06 
-6.4999999999999902e+00 -5.9371631863336582e-01 +8.1269448372593711e+00 -5.4291948340630879e-04 -1.6814245817740254e+01 -3.7150398777314882e+02 -5.6651626614608555e+04 -1.7945329832617736e+06 
-6.5999999999999899e+00 -5.9371685301104060e-01 +8.1269147527693768e+00 +3.5223510768576856e-04 -1.6022726816989820e+01 -3.2121069619424611e+02 -6.0566840104786163e+04 -2.2292767414676836e+06 
-6.6999999999999904e+00 -5.9371737298537675e-01 +8.1268813872765495e+00 +1.3199887664851889e-04 -1.5150794625914475e+01 -2.5391675310636754e+02 -6.4860288197083406e+04 -2.7335744728974910e+06 
-6.7999999999999901e+00 -5.9371787918387020e-01 +8.1268452403022486e+00 -1.1615334363443686e-03 -1.4212075566446041e+01 -1.7049707648629484e+02 -6.9459934165434155e+04 -3.3028451952747949e+06 
-6.8999999999999897e+00 -5.9371837223404311e-01 +8.1268068113682155e+00 -3.4862536142370687e-03 -1.3220195894260124e+01 -7.1826816613516527e+01 -7.4293742234124293e+04 -3.9325069117387901e+06 
-6.9999999999999902e+00 -5.9371885276361225e-01 +8.1267665999993746e+00 -6.8000418640479119e-03 -1.2188781904198954e+01 +4.1218687517266503e+01 -7.9289676904056556e+04 -4.6179768401605291e+06 
-7.0999999999999899e+00 -5.9371932140033845e-01 +8.1267251057275924e+00 -1.1060770191935403e-02 -1.1131460013213051e+01 +1.6776396604453848e+02 -8.4375702569598070e+04 -5.3546716703469502e+06 
-7.1999999999999904e+00 -5.9371977877210791e-01 +8.1266828280814956e+00 -1.6226296250977483e-02 -1.0061856490357874e+01 +3.0693330738095938e+02 -8.9479785006330683e+04 -6.1380070568047920e+06 
-7.2999999999999901e+00 -5.9372022550694736e-01 +8.1266402665902984e+00 -2.2254465314162426e-02 -8.9935975327506075e+00 +4.5785079629882068e+02 -9.4529891063661766e+04 -6.9633978014564505e+06 
-7.3999999999999897e+00 -5.9372066223290643e-01 +8.1265979207876793e+00 -2.9103110163486184e-02 -7.9403094093369795e+00 +6.1964031036389895e+02 -9.9453987731356494e+04 -7.8262578322781483e+06 
-7.4999999999999902e+00 -5.9372108957827308e-01 +8.1265562902086987e+00 -3.6730050094224406e-02 -6.9156183460194418e+00 +7.9142550685964613e+02 -1.0418004291034778e+05 -8.7220001608542427e+06 
-7.5999999999999899e+00 -5.9372150817132574e-01 +8.1265158743894474e+00 -4.5093092222849997e-02 -5.9331505240364288e+00 +9.7232984390022023e+02 -1.0863602539820726e+05 -9.6460369713930860e+06 
-7.6999999999999904e+00 -5.9372191864059387e-01 +8.1264771728685012e+00 -5.4150025461114970e-02 -5.0065321248196764e+00 +1.1614764706712585e+03 -1.1274990462801949e+05 -1.0593779111754470e+07 
-7.7999999999999901e+00 -5.9372232161466199e-01 +8.1264406851827431e+00 -6.3858629263113365e-02 -4.1493891825098688e+00 +1.3579883934067138e+03 -1.1644965163076842e+05 -1.1560636887593545e+07 
-7.8999999999999897e+00 -5.9372271772230500e-01 +8.1264069108717827e+00 -7.4176665019644025e-02 -3.3753477434037427e+00 +1.5609883123013954e+03 -1.1966323800988072e+05 -1.2542019284220587e+07 
-7.9999999999999902e+00 -5.9372310759244229e-01 +8.1263763494262786e+00 -8.5061879562994297e-02 -2.6980320324078728e+00 +1.7695987856337222e+03 -1.2231864799427096e+05 -1.3533335083085870e+07 
-8.0999999999999908e+00 -5.9372349199860641e-01 +8.1263493593370963e+00 -9.6466481256528652e-02 -2.1269182310315364e+00 +1.9829225644046958e+03 -1.2436774148545686e+05 -1.4530221508203018e+07 
-8.1999999999999904e+00 -5.9372387215050493e-01 +8.1263258411277270e+00 -1.0832408019681190e-01 -1.6581343930628938e+00 +2.1999349023647096e+03 -1.2583829796865246e+05 -1.5528623510306433e+07 
-8.2999999999999901e+00 -5.9372424933914014e-01 +8.1263056021176059e+00 -1.2056439037389850e-01 -1.2851131937253728e+00 +2.4195722233941456e+03 -1.2677324300737718e+05 -1.6524461006517652e+07 
-8.3999999999999897e+00 -5.9372462485541855e-01 +8.1262884496075785e+00 -1.3311712834060463e-01 -1.0012867607938487e+00 +2.6407710132065999e+03 -1.2721550514926881e+05 -1.7513654212710291e+07 
-8.4999999999999893e+00 -5.9372499999028361e-01 +8.1262741908813165e+00 -1.4591202186730701e-01 -8.0008673229038674e-01 +2.8624679801438606e+03 -1.2720801552294608e+05 -1.8492124397377878e+07 
-8.5999999999999908e+00 -5.9372537603450970e-01 +8.1262626332087660e+00 -1.5887880682568073e-01 -6.7494437031662613e-01 +3.0835999984434734e+03 -1.2679370713812928e+05 -1.9455793616454612e+07 
-8.6999999999999904e+00 -5.9372575427892949e-01 +8.1262535838371655e+00 -1.7194722743176546e-01 -6.1929028266396602e-01 +3.3031041090336671e+03 -1.2601551653075749e+05 -2.0400584706560437e+07 
-8.7999999999999794e+00 -5.9372613601421909e-01 +8.1262468499966580e+00 -1.8504703814575979e-01 -6.2655460287870379e-01 +3.5199175606526328e+03 -1.2491638266854327e+05 -2.1322421493124116e+07 
-8.8999999999999808e+00 -5.9372652253100799e-01 +8.1262422388945126e+00 -1.9810800058155839e-01 -6.9016681111997202e-01 +3.7329777479702666e+03 -1.2353924800538574e+05 -2.2217228485184364e+07 
-8.9999999999999805e+00 -5.9372691511991382e-01 +8.1262395577239648e+00 -2.1105989002319842e-01 -8.0355599711395742e-01 +3.9412223354268658e+03 -1.2192705693205440e+05 -2.3080931465869527e+07 
-9.0999999999999801e+00 -5.9372731507143828e-01 +8.1262386136528324e+00 -2.2383248767036476e-01 -9.6015053055482658e-01 +4.1435891159276980e+03 -1.2012275767543018e+05 -2.3909456831347682e+07 
-9.1999999999999797e+00 -5.9372772367597093e-01 +8.1262392138302175e+00 -2.3635558929164405e-01 -1.1533782577039624e+00 +4.3390161663828576e+03 -1.1816930114184854e+05 -2.4698732310621187e+07 
-9.2999999999999794e+00 -5.9372814222396375e-01 +8.1262411653781079e+00 -2.4855899607636639e-01 -1.3766662520113824e+00 +4.5264416818104137e+03 -1.1610964236866114e+05 -2.5444686192558959e+07 
-9.3999999999999808e+00 -5.9372857200565232e-01 +8.1262442754039448e+00 -2.6037252667823180e-01 -1.6234412001545904e+00 +4.7048041991942537e+03 -1.1398673821305964e+05 -2.6143248377951689e+07 
-9.4999999999999805e+00 -5.9372901431123726e-01 +8.1262483509868524e+00 -2.7172600552996745e-01 -1.8871289685601771e+00 +4.8730423780306091e+03 -1.1184354996017803e+05 -2.6790349342247713e+07 
-9.5999999999999801e+00 -5.9372947043092006e-01 +8.1262531991805691e+00 -2.8254927032057653e-01 -2.1611547276058358e+00 +5.0300951454082133e+03 -1.0972304246970077e+05 -2.7381920830691606e+07 
-9.6999999999999797e+00 -5.9372994165467319e-01 +8.1262586270162327e+00 -2.9277217363238622e-01 -2.4389430053402088e+00 +5.1749017187777763e+03 -1.0766818393934242e+05 -2.7913895944247015e+07 
-9.7999999999999794e+00 -5.9373042927252473e-01 +8.1262644415044054e+00 -3.0232457826910547e-01 -2.7139177645776997e+00 +5.3064015282469891e+03 -1.0572194539721485e+05 -2.8382208798613895e+07 
-9.8999999999999808e+00 -5.9373093457434201e-01 +8.1262704496227620e+00 -3.1113635754994035e-01 -2.9795020365289693e+00 +5.4235342139561135e+03 -1.0392730283641935e+05 -2.8782794488515023e+07 
-9.9999999999999805e+00 -5.9373145884970224e-01 +8.1262764583377187e+00 -3.1913741599665951e-01 -3.2291188033341816e+00 +5.5252399691433820e+03 -1.0232722741783987e+05 -2.9111590237373225e+07 
-1.0100000000000000e+01 -5.9373200302429019e-01 +8.1262823119189136e+00 -3.2628143024373402e-01 -3.4576194723937719e+00 +5.6108737640372537e+03 -1.0095373856782296e+05 -2.9366291760084961e+07 
