# multipoles
# s[mm] polynom_b[n=0][T/m^n] polynom_b[n=1][T/m^n] polynom_b[n=2][T/m^n] polynom_b[n=3][T/m^n] polynom_b[n=4][T/m^n] polynom_b[n=5][T/m^n] polynom_b[n=6][T/m^n] 
-0.0000000000000000e+00 -5.3710113482643118e-01 +7.3564897933515487e+00 -3.4207453078275890e-01 +2.2899236379536838e+01 +1.1490369568380177e+03 -2.6314237514807284e+05 -9.6463353188904934e+06 
-1.0000000000000001e-01 -5.3710108153593650e-01 +7.3564851097088244e+00 -3.4081365854608686e-01 +2.3197435553204397e+01 +1.1198061340794252e+03 -2.6567046280168567e+05 -9.5456499144492336e+06 
-2.0000000000000001e-01 -5.3710103467463755e-01 +7.3564845359793889e+00 -3.3945248941574119e-01 +2.3435162828534683e+01 +1.0891540144517528e+03 -2.6796889409589203e+05 -9.4410769054266773e+06 
-2.9999999999999999e-01 -5.3710099432757419e-01 +7.3564876646448703e+00 -3.3800033603469459e-01 +2.3618512016474764e+01 +1.0574104772000169e+03 -2.7005876102159685e+05 -9.3341729347467721e+06 
-4.0000000000000002e-01 -5.3710096057990953e-01 +7.3564940881791996e+00 -3.3646650901894126e-01 +2.3753577133882729e+01 +1.0249053688377435e+03 -2.7196115668382554e+05 -9.2264945002643447e+06 
-5.0000000000000000e-01 -5.3710093351673327e-01 +7.3565033990602053e+00 -3.3486031875812083e-01 +2.3846452088566640e+01 +9.9196853836218281e+02 -2.7369717355170887e+05 -9.1195981298830416e+06 
-5.9999999999999998e-01 -5.3710091322316977e-01 +7.3565151897583405e+00 -3.3319107799766534e-01 +2.3903230977779319e+01 +9.5892987717794153e+02 -2.7528790510432300e+05 -9.0150405448369700e+06 
-6.9999999999999996e-01 -5.3710089978433173e-01 +7.3565290527523848e+00 -3.3146809481248996e-01 +2.3930007644814228e+01 +9.2611919179406777e+02 -2.7675444330748060e+05 -8.9143780736166555e+06 
-8.0000000000000004e-01 -5.3710089328534238e-01 +7.3565445805165082e+00 -3.2970067944227816e-01 +2.3932876052327451e+01 +8.9386632987070061e+02 -2.7811788078098447e+05 -8.8191672403554786e+06 
-9.0000000000000002e-01 -5.3710089381131865e-01 +7.3565613655227331e+00 -3.2789814282227098e-01 +2.3917930200629375e+01 +8.6250114995899196e+02 -2.7939931029795425e+05 -8.7309646164087951e+06 
-1.0000000000000000e+00 -5.3710090144740308e-01 +7.3565790002411608e+00 -3.2606979219406113e-01 +2.3891264110595806e+01 +8.3235343549090749e+02 -2.8061982466045197e+05 -8.6513264039499294e+06 
-1.1000000000000001e+00 -5.3710091627874212e-01 +7.3565970771509139e+00 -3.2422494072901803e-01 +2.3858971533173104e+01 +8.0375308049710748e+02 -2.8180051510802208e+05 -8.5818093297391683e+06 
-1.2000000000000000e+00 -5.3710093839037731e-01 +7.3566151887182665e+00 -3.2237289727516644e-01 +2.3827146541368709e+01 +7.7702989021842075e+02 -2.8296247462511412e+05 -8.5239696836316828e+06 
-1.3000000000000000e+00 -5.3710096786744088e-01 +7.3566329274140063e+00 -3.2052297166363491e-01 +2.3801883050813430e+01 +7.5251368022614088e+02 -2.8412679525002773e+05 -8.4793637871381491e+06 
-1.3999999999999999e+00 -5.3710100479504441e-01 +7.3566498857123479e+00 -3.1868447589280652e-01 +2.3789274843184970e+01 +7.3053430088140976e+02 -2.8531456817893789e+05 -8.4495481142425481e+06 
-1.5000000000000000e+00 -5.3710104925823998e-01 +7.3566656560810593e+00 -3.1686672087461076e-01 +2.3795415836505974e+01 +7.1142156956682777e+02 -2.8654688530628389e+05 -8.4360789564115386e+06 
-1.6000000000000001e+00 -5.3710110134207689e-01 +7.3566798309883676e+00 -3.1507901987312259e-01 +2.3826399905625017e+01 +6.9550533703035796e+02 -2.8784483824169514e+05 -8.4405127402591538e+06 
-1.7000000000000000e+00 -5.3710116113161399e-01 +7.3566920029048415e+00 -3.1333068375274437e-01 +2.3888320795588012e+01 +6.8311539692724796e+02 -2.8922951773390220e+05 -8.4644055961666852e+06 
-1.8000000000000000e+00 -5.3710122871188892e-01 +7.3567017642979602e+00 -3.1163102718538421e-01 +2.3987272301459019e+01 +6.7458159968644645e+02 -2.9072201476899593e+05 -8.5093138935018200e+06 
-1.8999999999999999e+00 -5.3710130416788426e-01 +7.3567087076346702e+00 -3.0998936339019534e-01 +2.4129348174956345e+01 +6.7023375303322041e+02 -2.9234341999371687e+05 -8.5767937654731981e+06 
-2.0000000000000000e+00 -5.3710138758458859e-01 +7.3567124253799312e+00 -3.0841500930038268e-01 +2.4320642171184691e+01 +6.7040171922119680e+02 -2.9411482400437986e+05 -8.6684015729224682e+06 
-2.1000000000000001e+00 -5.3710147889477233e-01 +7.3567126455001102e+00 -3.0691599533404518e-01 +2.4564734986518850e+01 +6.7529432900204313e+02 -2.9604682792160386e+05 -8.7850353787667733e+06 
-2.2000000000000002e+00 -5.3710157742508791e-01 +7.3567096335741677e+00 -3.0549672250908133e-01 +2.4855281714851081e+01 +6.8466386149312132e+02 -2.9810857543278416e+05 -8.9250703791686036e+06 
-2.2999999999999998e+00 -5.3710168235113498e-01 +7.3567037885136815e+00 -3.0416105762897860e-01 +2.5183487435198224e+01 +6.9815518400322014e+02 -3.0025897164927941e+05 -9.0862778876011800e+06 
-2.3999999999999999e+00 -5.3710179284856840e-01 +7.3566955092333650e+00 -3.0291286687842361e-01 +2.5540557166287464e+01 +7.1541315355542622e+02 -3.0245692142088554e+05 -9.2664291799713876e+06 
-2.5000000000000000e+00 -5.3710190809303160e-01 +7.3566851946460607e+00 -3.0175601201556573e-01 +2.5917696033563818e+01 +7.3608254979553999e+02 -3.0466133038440126e+05 -9.4632951857198067e+06 
-2.6000000000000001e+00 -5.3710202726017542e-01 +7.3566732436737681e+00 -3.0069435326343674e-01 +2.6306108940570315e+01 +7.5980812488937624e+02 -3.0683110301630240e+05 -9.6746467153649274e+06 
-2.7000000000000002e+00 -5.3710214952576918e-01 +7.3566600552324335e+00 -2.9973175057412127e-01 +2.6697001029044340e+01 +7.8623463697111924e+02 -3.0892514535472216e+05 -9.8982546432084404e+06 
-2.7999999999999998e+00 -5.3710227406548217e-01 +7.3566460282453594e+00 -2.9887205618015406e-01 +2.7081577298923115e+01 +8.1500670174645995e+02 -3.1090236282242241e+05 -1.0131889183001650e+07 
-2.8999999999999999e+00 -5.3710240005511911e-01 +7.3566315616361670e+00 -2.9811912312536948e-01 +2.7451042807071421e+01 +8.4576896089039110e+02 -3.1272166135823115e+05 -1.0373320705460742e+07 
-3.0000000000000000e+00 -5.3710252667043656e-01 +7.3566170543309903e+00 -2.9747680064210863e-01 +2.7796602623223432e+01 +8.7816599287998497e+02 -3.1434194721426547e+05 -1.0620319312372409e+07 
-3.1000000000000001e+00 -5.3710265308727489e-01 +7.3566029052630970e+00 -2.9694893199850342e-01 +2.8109461700865900e+01 +9.1184227605803471e+02 -3.1572212621784571e+05 -1.0870654670705736e+07 
-3.2000000000000002e+00 -5.3710277848151600e-01 +7.3565895133616790e+00 -2.9653935924953684e-01 +2.8380825204732780e+01 +9.4644227564471601e+02 -3.1682110567650292e+05 -1.1122096416159883e+07 
-3.2999999999999998e+00 -5.3710290202900879e-01 +7.3565772775653144e+00 -2.9625191964969566e-01 +2.8601898133698587e+01 +9.8161038179955654e+02 -3.1759779222377442e+05 -1.1372413878111554e+07 
-3.3999999999999999e+00 -5.3710302290578826e-01 +7.3565665968113114e+00 -2.9609044500868364e-01 +2.8763885630714434e+01 +1.0169908948224237e+03 -3.1801109362082224e+05 -1.1619376000116991e+07 
-3.5000000000000000e+00 -5.3710314028777406e-01 +7.3565578700452372e+00 -2.9605876257810876e-01 +2.8857992728649908e+01 +1.0522280443436264e+03 -3.1801991733624827e+05 -1.1860751438539719e+07 
-3.6000000000000001e+00 -5.3710325335104547e-01 +7.3565514962136955e+00 -2.9616069763816899e-01 +2.8875424542095480e+01 +1.0869660396099755e+03 -3.1758317160901579e+05 -1.2094308804931482e+07 
-3.7000000000000002e+00 -5.3710336127169733e-01 +7.3565478742686610e+00 -2.9640006520421930e-01 +2.8807386175449722e+01 +1.1208489144348111e+03 -3.1665976500978990e+05 -1.2317815934463410e+07 
-3.7999999999999998e+00 -5.3710346322585245e-01 +7.3565474031649547e+00 -2.9678068129052615e-01 +2.8645082787622950e+01 +1.1535207403038107e+03 -3.1520860678861535e+05 -1.2529040898329740e+07 
-3.8999999999999999e+00 -5.3710355838971746e-01 +7.3565504818651402e+00 -2.9730635307445696e-01 +2.8379719459726836e+01 +1.1846254403323958e+03 -3.1318860612698214e+05 -1.2725751120644366e+07 
-4.0000000000000000e+00 -5.3710364593960136e-01 +7.3565575093321103e+00 -2.9798088056972749e-01 +2.8002501421838858e+01 +1.2138068279541476e+03 -3.1055867347809172e+05 -1.2905713578817034e+07 
-4.0999999999999996e+00 -5.3710372534861228e-01 +7.3565687727143292e+00 -2.9880921249944387e-01 +2.7507562684472461e+01 +1.2408682607422238e+03 -3.0729275411506457e+05 -1.3067641214793898e+07 
-4.2000000000000002e+00 -5.3710379726414992e-01 +7.3565841265159788e+00 -2.9979976398668995e-01 +2.6900378006602754e+01 +1.2662105496469394e+03 -3.0342315699111333e+05 -1.3213814116655361e+07 
-4.2999999999999998e+00 -5.3710386262380638e-01 +7.3566033206231660e+00 -3.0096155889175369e-01 +2.6189167521855463e+01 +1.2903743177993751e+03 -2.9899635597692523e+05 -1.3347353002086410e+07 
-4.4000000000000004e+00 -5.3710392236523985e-01 +7.3566261049265016e+00 -3.0230362640154174e-01 +2.5382151166807898e+01 +1.3139002840492396e+03 -2.9405882358093344e+05 -1.3471379018781684e+07 
-4.5000000000000000e+00 -5.3710397742600369e-01 +7.3566522293107193e+00 -3.0383499944822601e-01 +2.4487548970219187e+01 +1.3373292374766547e+03 -2.8865703259878355e+05 -1.3589013635694459e+07 
-4.5999999999999996e+00 -5.3710402874368435e-01 +7.3566814436654209e+00 -3.0556471070349767e-01 +2.3513580723968413e+01 +1.3612019596414395e+03 -2.8283745415114169e+05 -1.3703378268409450e+07 
-4.7000000000000002e+00 -5.3710407725582865e-01 +7.3567134978770019e+00 -3.0750180159452106e-01 +2.2468466233255995e+01 +1.3860593932490005e+03 -2.7664655917415000e+05 -1.3817595071221169e+07 
-4.7999999999999998e+00 -5.3710412389994144e-01 +7.3567481418318552e+00 -3.0965531235885335e-01 +2.1360425188474885e+01 +1.4124424540328807e+03 -2.7013081758404773e+05 -1.3934786047228735e+07 
-4.9000000000000004e+00 -5.3710416961348340e-01 +7.3567851254165921e+00 -3.1203429290920287e-01 +2.0197677172236752e+01 +1.4408922385564915e+03 -2.6333669834682910e+05 -1.4058074036384994e+07 
-5.0000000000000000e+00 -5.3710421533391239e-01 +7.3568241985166498e+00 -3.1464779406357973e-01 +1.8988441693584143e+01 +1.4719498539149972e+03 -2.5631066965834054e+05 -1.4190581895643404e+07 
-5.0999999999999996e+00 -5.3710426199866201e-01 +7.3568651110167655e+00 -3.1750487325162025e-01 +1.7740938141553531e+01 +1.5061565272440509e+03 -2.4909919857981298e+05 -1.4335433023307458e+07 
-5.2000000000000002e+00 -5.3710431054507402e-01 +7.3569076128015531e+00 -3.2061459342669857e-01 +1.6463385801989705e+01 +1.5440535853341587e+03 -2.4174875123472649e+05 -1.4495751260387497e+07 
-5.2999999999999998e+00 -5.3710436191048649e-01 +7.3569514537523579e+00 -3.2398602199637405e-01 +1.5164003902588686e+01 +1.5861824336108598e+03 -2.3430579293069491e+05 -1.4674660788694095e+07 
-5.4000000000000004e+00 -5.3710441703222400e-01 +7.3569963837529464e+00 -3.2762823175514905e-01 +1.3851011470476061e+01 +1.6330845716915678e+03 -2.2681678739571740e+05 -1.4875286197684849e+07 
-5.5000000000000000e+00 -5.3710447684746709e-01 +7.3570421526841283e+00 -3.3155030422500198e-01 +1.2532627461941667e+01 +1.6853016584211555e+03 -2.1932819745751095e+05 -1.5100752797241088e+07 
-5.5999999999999996e+00 -5.3710454229350435e-01 +7.3570885104262533e+00 -3.3576132456703545e-01 +1.1217070696948399e+01 +1.7433754129694039e+03 -2.1188648468363768e+05 -1.5354186140571319e+07 
-5.7000000000000002e+00 -5.3710461430739176e-01 +7.3571352068555997e+00 -3.4027038786691077e-01 +9.9125599428374951e+00 +1.8078477383226054e+03 -2.0453810979630568e+05 -1.5638712622677034e+07 
-5.7999999999999998e+00 -5.3710469382629267e-01 +7.3571819918516042e+00 -3.4508659257130325e-01 +8.6273137108717926e+00 +1.8792605873117645e+03 -1.9732953151699741e+05 -1.5957458814902583e+07 
-5.9000000000000004e+00 -5.3710478178719334e-01 +7.3572286152875801e+00 -3.5021904742519966e-01 +7.3695505086960749e+00 +1.9581561055645759e+03 -1.9030720798058799e+05 -1.6313552175793303e+07 
-5.9999999999999902e+00 -5.3710487912717275e-01 +7.3572748270387196e+00 -3.5567686581845825e-01 +6.1474886025349678e+00 +2.0450765104087118e+03 -1.8351759535563312e+05 -1.6710120439387947e+07 
-6.0999999999999899e+00 -5.3710498663623085e-01 +7.3573204003424753e+00 -3.6145740616627758e-01 +4.9678965843920224e+00 +2.1402712916245832e+03 -1.7699800623361440e+05 -1.7148815514943190e+07 
-6.1999999999999904e+00 -5.3710510453471860e-01 +7.3573651801927387e+00 -3.6750930498231343e-01 +3.8322164404985379e+00 +2.2428243054033169e+03 -1.7075153622094830e+05 -1.7625492661940206e+07 
-6.2999999999999901e+00 -5.3710523290500511e-01 +7.3574090242097636e+00 -3.7376853973839186e-01 +2.7406679612286560e+00 +2.3515281661022941e+03 -1.6477326490488418e+05 -1.8134578842580579e+07 
-6.3999999999999897e+00 -5.3710537182943086e-01 +7.3574517899988470e+00 -3.8017108510310316e-01 +1.6934713873667084e+00 +2.4651754190874581e+03 -1.5905827458035850e+05 -1.8670500656902619e+07 
-6.4999999999999902e+00 -5.3710552139022616e-01 +7.3574933351569438e+00 -3.8665292046857841e-01 +6.9084724239180151e-01 +2.5825586879472912e+03 -1.5360164932160903e+05 -1.9227685057123091e+07 
-6.5999999999999899e+00 -5.3710568166975325e-01 +7.3575335172724579e+00 -3.9315001916915088e-01 -2.6698367898980724e-01 +2.7024704652329565e+03 -1.4839847486225501e+05 -1.9800558340103090e+07 
-6.6999999999999904e+00 -5.3710585275023026e-01 +7.3575721939201744e+00 -3.9959835931903792e-01 -1.1798001401392615e+00 +2.8237033175329120e+03 -1.4344383965942077e+05 -2.0383547122098863e+07 
-6.7999999999999901e+00 -5.3710603471391394e-01 +7.3576092226698906e+00 -4.0593391483729313e-01 -2.0473807223869764e+00 +2.9450497172160367e+03 -1.3873283335923695e+05 -2.0971077543923993e+07 
-6.8999999999999897e+00 -5.3710622764303684e-01 +7.3576444610726206e+00 -4.1209265951393792e-01 -2.8695034226351166e+00 +3.0653021186581695e+03 -1.3426054913208538e+05 -2.1557575632222008e+07 
-6.9999999999999902e+00 -5.3710643161980975e-01 +7.3576777666740814e+00 -4.1801056933341363e-01 -3.6459460345867805e+00 +3.1832529970518999e+03 -1.3002208150131888e+05 -2.2137467470733456e+07 
-7.0999999999999899e+00 -5.3710664672640684e-01 +7.3577089970018070e+00 -4.2362361525448483e-01 -4.3764857868741345e+00 +3.2976947175254550e+03 -1.2601252840394343e+05 -2.2705178593376543e+07 
-7.1999999999999904e+00 -5.3710687304497395e-01 +7.3577380095801574e+00 -4.2886777160699902e-01 -5.0608997575703372e+00 +3.4074196912274633e+03 -1.2222698884647035e+05 -2.3255134720214762e+07 
-7.2999999999999901e+00 -5.3710711065767824e-01 +7.3577646619100134e+00 -4.3367900926893133e-01 -5.6989642956125062e+00 +3.5112202417065332e+03 -1.1866056623474849e+05 -2.3781761109941162e+07 
-7.3999999999999897e+00 -5.3710735964656731e-01 +7.3577888114849523e+00 -4.3799330095496170e-01 -6.2904554901420511e+00 +3.6078887128594583e+03 -1.1530836565255636e+05 -2.4279483094708260e+07 
-7.4999999999999902e+00 -5.3710762009382074e-01 +7.3578103157847394e+00 -4.4174661497486628e-01 -6.8351489644946719e+00 +3.6962173401466785e+03 -1.1216549510503780e+05 -2.4742725441689093e+07 
-7.5999999999999899e+00 -5.3710789208142495e-01 +7.3578290322756486e+00 -4.4487492037534698e-01 -7.3328198945638308e+00 +3.7749983564165250e+03 -1.0922706538977014e+05 -2.5165912875725821e+07 
-7.6999999999999904e+00 -5.3710817569142333e-01 +7.3578448184058409e+00 -4.4731418810620588e-01 -7.7832428735033066e+00 +3.8430240089801737e+03 -1.0648819088507432e+05 -2.5543470152060423e+07 
-7.7999999999999901e+00 -5.3710847100587122e-01 +7.3578575316136927e+00 -4.4900038301144596e-01 -8.1861921445833286e+00 +3.8990864042974063e+03 -1.0394398822627564e+05 -2.5869821305288296e+07 
-7.8999999999999897e+00 -5.3710877810671953e-01 +7.3578670293207145e+00 -4.4986947263915850e-01 -8.5414413966269134e+00 +3.9419776844074268e+03 -1.0158957749004068e+05 -2.6139390517251592e+07 
-7.9999999999999902e+00 -5.3710909707596244e-01 +7.3578731689303174e+00 -4.4985742098938980e-01 -8.8487637092413411e+00 +3.9704898975474102e+03 -9.9420082564387849e+04 -2.6346601470324453e+07 
-8.0999999999999908e+00 -5.3710942788340965e-01 +7.3578758682824477e+00 -4.4891960803282743e-01 -9.1083769830333399e+00 +3.9837594470467243e+03 -9.7430722495381211e+04 -2.6487440983463727e+07 
-8.1999999999999904e+00 -5.3710977003856064e-01 +7.3578753036374254e+00 -4.4709420427636704e-01 -9.3225755761021372e+00 +3.9823614079794752e+03 -9.5615617317240802e+04 -2.6564326838670276e+07 
-8.2999999999999901e+00 -5.3711012293256533e-01 +7.3578717201630930e+00 -4.4444143970110267e-01 -9.4942400032682954e+00 +3.9672472691704102e+03 -9.3968302772019582e+04 -2.6581336144565191e+07 
-8.3999999999999897e+00 -5.3711048595662403e-01 +7.3578653630416602e+00 -4.4102154512363417e-01 -9.6262511468256040e+00 +3.9393685625200715e+03 -9.2482312533576827e+04 -2.6542546274550553e+07 
-8.4999999999999893e+00 -5.3711085850194185e-01 +7.3578564774597517e+00 -4.3689475827810803e-01 -9.7214899812209659e+00 +3.8996769820039876e+03 -9.1151179824530234e+04 -2.6452035435478605e+07 
-8.5999999999999908e+00 -5.3711123995975718e-01 +7.3578453086226778e+00 -4.3212130977562302e-01 -9.7828379904428271e+00 +3.8491241149393213e+03 -8.9968434983671512e+04 -2.6313881385975491e+07 
-8.6999999999999904e+00 -5.3711162972131676e-01 +7.3578321017434511e+00 -4.2676143664654154e-01 -9.8131768545264109e+00 +3.7886617016378364e+03 -8.8927607271704401e+04 -2.6132162676678278e+07 
-8.7999999999999794e+00 -5.3711202717795237e-01 +7.3578171020538834e+00 -4.2087536987060226e-01 -9.8153887577586474e+00 +3.7192414023692750e+03 -8.8022223118799433e+04 -2.5910957551255144e+07 
-8.8999999999999808e+00 -5.3711243172100231e-01 +7.3578005547928695e+00 -4.1452334722546430e-01 -9.7923560585510021e+00 +3.6418150379537851e+03 -8.7245808010090201e+04 -2.5654345081016637e+07 
-8.9999999999999805e+00 -5.3711284274181126e-01 +7.3577827052161018e+00 -4.0776560360002118e-01 -9.7469615640204221e+00 +3.5573344107793641e+03 -8.6591884919820062e+04 -2.5366404327382684e+07 
-9.0999999999999801e+00 -5.3711325963177892e-01 +7.3577637985935826e+00 -4.0066237539945121e-01 -9.6820884621957219e+00 +3.4667513873682465e+03 -8.6053974684129716e+04 -2.5051214728552628e+07 
-9.1999999999999797e+00 -5.3711368178234553e-01 +7.3577440802103071e+00 -3.9327389854777905e-01 -9.6006203364672178e+00 +3.3710178620122042e+03 -8.5625595936135665e+04 -2.4712855933564778e+07 
-9.2999999999999794e+00 -5.3711410858500086e-01 +7.3577237953642252e+00 -3.8566041095393844e-01 -9.5054411064646622e+00 +3.2710858025759630e+03 -8.5300265443038312e+04 -2.4355408014353056e+07 
-9.3999999999999808e+00 -5.3711453943124543e-01 +7.3577031893735194e+00 -3.7788214809226900e-01 -9.3994352376129964e+00 +3.1679071717159622e+03 -8.5071496904729109e+04 -2.3982951105092455e+07 
-9.4999999999999805e+00 -5.3711497371260675e-01 +7.3576825075668673e+00 -3.6999935040466020e-01 -9.2854874612589118e+00 +3.0624340653143358e+03 -8.4932802556532159e+04 -2.3599566054198559e+07 
-9.5999999999999801e+00 -5.3711541082069347e-01 +7.3576619952911768e+00 -3.6207225363093848e-01 -9.1664829965732366e+00 +2.9556185303920415e+03 -8.4877691897114622e+04 -2.3209333562328700e+07 
-9.6999999999999797e+00 -5.3711585014715535e-01 +7.3576418979159568e+00 -3.5416109761234593e-01 -9.0453076687584115e+00 +2.8484127360713819e+03 -8.4899671024557130e+04 -2.2816335004387658e+07 
-9.7999999999999794e+00 -5.3711629108363679e-01 +7.3576224608174723e+00 -3.4632612139949714e-01 -8.9248474653418803e+00 +2.7417688751635587e+03 -8.4992245162987645e+04 -2.2424651946292669e+07 
-9.8999999999999808e+00 -5.3711673302184892e-01 +7.3576039294003737e+00 -3.3862756531425553e-01 -8.8079891445410379e+00 +2.6366392124781810e+03 -8.5148915189567721e+04 -2.2038366399220988e+07 
-9.9999999999999805e+00 -5.3711717535358461e-01 +7.3575865490797785e+00 -3.3112566853144237e-01 -8.6976197650313232e+00 +2.5339760293425402e+03 -8.5363180112887188e+04 -2.1661560515286803e+07 
-1.0100000000000000e+01 -5.3711761750101028e-01 +7.3575705269682832e+00 -3.2387585174599415e-01 -8.5963987281487082e+00 +2.4346366884473205e+03 -8.5627073820791426e+04 -2.1297831488475140e+07 
