# trajectory
# s[mm] rx[mm] ry[mm] rz[mm] px[rad] py[rad] pz[rad]
0.0000000000000000e+00 +8.1649999999999991e+00 +0.0000000000000000e+00 +0.0000000000000000e+00 +0.0000000000000000e+00 +0.0000000000000000e+00 +1.0000000000000000e+00
-1.0000000000000001e-01 +8.1649997169687030e+00 +0.0000000000000000e+00 -9.9999999999465961e-02 +5.6606264165486620e-06 +0.0000000000000000e+00 +9.9999999998397870e-01
-2.0000000000000001e-01 +8.1649988678746173e+00 +0.0000000000000000e+00 -1.9999999999572765e-01 +1.1321255794395775e-05 +0.0000000000000000e+00 +9.9999999993591460e-01
-3.0000000000000004e-01 +8.1649974527174436e+00 +0.0000000000000000e+00 -2.9999999998558080e-01 +1.6981888166155970e-05 +0.0000000000000000e+00 +9.9999999985580779e-01
-4.0000000000000002e-01 +8.1649954714968835e+00 +0.0000000000000000e+00 -3.9999999996582114e-01 +2.2642523556153459e-05 +0.0000000000000000e+00 +9.9999999974365816e-01
-5.0000000000000000e-01 +8.1649929242126316e+00 +0.0000000000000000e+00 -4.9999999993324434e-01 +2.8303161980421982e-05 +0.0000000000000000e+00 +9.9999999959946562e-01
-5.9999999999999998e-01 +8.1649898108643857e+00 +0.0000000000000000e+00 -5.9999999988464614e-01 +3.3963803446704722e-05 +0.0000000000000000e+00 +9.9999999942323015e-01
-6.9999999999999996e-01 +8.1649861314518404e+00 +0.0000000000000000e+00 -6.9999999981682226e-01 +3.9624447954454230e-05 +0.0000000000000000e+00 +9.9999999921495164e-01
-7.9999999999999993e-01 +8.1649818859746937e+00 +0.0000000000000000e+00 -7.9999999972656832e-01 +4.5285095494832342e-05 +0.0000000000000000e+00 +9.9999999897463010e-01
-8.9999999999999991e-01 +8.1649770744326418e+00 +0.0000000000000000e+00 -8.9999999961068011e-01 +5.0945746050710082e-05 +0.0000000000000000e+00 +9.9999999870226552e-01
-9.9999999999999989e-01 +8.1649716968253845e+00 +0.0000000000000000e+00 -9.9999999946595330e-01 +5.6606399596667577e-05 +0.0000000000000000e+00 +9.9999999839785780e-01
-1.0999999999999999e+00 +8.1649657531526234e+00 +0.0000000000000000e+00 -1.0999999992891836e+00 +6.2267056098993932e-05 +0.0000000000000000e+00 +9.9999999806140694e-01
-1.2000000000000000e+00 +8.1649592434140672e+00 +0.0000000000000000e+00 -1.1999999990771666e+00 +6.7927715515687161e-05 +0.0000000000000000e+00 +9.9999999769291281e-01
-1.3000000000000000e+00 +8.1649521676094245e+00 +0.0000000000000000e+00 -1.2999999988266979e+00 +7.3588377796454034e-05 +0.0000000000000000e+00 +9.9999999729237543e-01
-1.4000000000000001e+00 +8.1649445257384130e+00 +0.0000000000000000e+00 -1.3999999985345735e+00 +7.9249042882709983e-05 +0.0000000000000000e+00 +9.9999999685979468e-01
-1.5000000000000002e+00 +8.1649363178007555e+00 +0.0000000000000000e+00 -1.4999999981975887e+00 +8.4909710707578952e-05 +0.0000000000000000e+00 +9.9999999639517057e-01
-1.6000000000000003e+00 +8.1649275437961819e+00 +0.0000000000000000e+00 -1.5999999978125394e+00 +9.0570381195893287e-05 +0.0000000000000000e+00 +9.9999999589850308e-01
-1.7000000000000004e+00 +8.1649182037244294e+00 +0.0000000000000000e+00 -1.6999999973762212e+00 +9.6231054264193596e-05 +0.0000000000000000e+00 +9.9999999536979212e-01
-1.8000000000000005e+00 +8.1649082975852458e+00 +0.0000000000000000e+00 -1.7999999968854297e+00 +1.0189172982072859e-04 +0.0000000000000000e+00 +9.9999999480903767e-01
-1.9000000000000006e+00 +8.1648978253783859e+00 +0.0000000000000000e+00 -1.8999999963369605e+00 +1.0755240776545495e-04 +0.0000000000000000e+00 +9.9999999421623975e-01
-2.0000000000000004e+00 +8.1648867871036170e+00 +0.0000000000000000e+00 -1.9999999957276093e+00 +1.1321308799003716e-04 +0.0000000000000000e+00 +9.9999999359139835e-01
-2.1000000000000005e+00 +8.1648751827607153e+00 +0.0000000000000000e+00 -2.0999999950541719e+00 +1.1887377037888931e-04 +0.0000000000000000e+00 +9.9999999293451336e-01
-2.2000000000000006e+00 +8.1648630123494712e+00 +0.0000000000000000e+00 -2.1999999943134441e+00 +1.2453445482063651e-04 +0.0000000000000000e+00 +9.9999999224558478e-01
-2.3000000000000007e+00 +8.1648502758696857e+00 +0.0000000000000000e+00 -2.2999999935022211e+00 +1.3019514121957642e-04 +0.0000000000000000e+00 +9.9999999152461261e-01
-2.4000000000000008e+00 +8.1648369733211652e+00 +0.0000000000000000e+00 -2.3999999926172988e+00 +1.3585582949672125e-04 +0.0000000000000000e+00 +9.9999999077159685e-01
-2.5000000000000009e+00 +8.1648231047037250e+00 +0.0000000000000000e+00 -2.4999999916554727e+00 +1.4151651958979792e-04 +0.0000000000000000e+00 +9.9999998998653739e-01
-2.6000000000000010e+00 +8.1648086700171874e+00 +0.0000000000000000e+00 -2.5999999906135383e+00 +1.4717721145324824e-04 +0.0000000000000000e+00 +9.9999998916943422e-01
-2.7000000000000011e+00 +8.1647936692613765e+00 +0.0000000000000000e+00 -2.6999999894882913e+00 +1.5283790505822900e-04 +0.0000000000000000e+00 +9.9999998832028736e-01
-2.8000000000000012e+00 +8.1647781024361183e+00 +0.0000000000000000e+00 -2.7999999882765274e+00 +1.5849860039261223e-04 +0.0000000000000000e+00 +9.9999998743909679e-01
-2.9000000000000012e+00 +8.1647619695412406e+00 +0.0000000000000000e+00 -2.8999999869750424e+00 +1.6415929746098530e-04 +0.0000000000000000e+00 +9.9999998652586253e-01
-3.0000000000000013e+00 +8.1647452705765673e+00 +0.0000000000000000e+00 -2.9999999855806316e+00 +1.6981999628465125e-04 +0.0000000000000000e+00 +9.9999998558058445e-01
-3.1000000000000014e+00 +8.1647280055419227e+00 +0.0000000000000000e+00 -3.0999999840900911e+00 +1.7548069690162904e-04 +0.0000000000000000e+00 +9.9999998460326256e-01
-3.2000000000000015e+00 +8.1647101744371255e+00 +0.0000000000000000e+00 -3.1999999825002163e+00 +1.8114139936665377e-04 +0.0000000000000000e+00 +9.9999998359389675e-01
-3.3000000000000016e+00 +8.1646917772619858e+00 +0.0000000000000000e+00 -3.2999999808078027e+00 +1.8680210375117705e-04 +0.0000000000000000e+00 +9.9999998255248701e-01
-3.4000000000000017e+00 +8.1646728140163081e+00 +0.0000000000000000e+00 -3.3999999790096456e+00 +1.9246281014336723e-04 +0.0000000000000000e+00 +9.9999998147903335e-01
-3.5000000000000018e+00 +8.1646532846998863e+00 +0.0000000000000000e+00 -3.4999999771025410e+00 +1.9812351864810989e-04 +0.0000000000000000e+00 +9.9999998037353566e-01
-3.6000000000000019e+00 +8.1646331893125037e+00 +0.0000000000000000e+00 -3.5999999750832843e+00 +2.0378422938700807e-04 +0.0000000000000000e+00 +9.9999997923599393e-01
-3.7000000000000020e+00 +8.1646125278539294e+00 +0.0000000000000000e+00 -3.6999999729486714e+00 +2.0944494249838276e-04 +0.0000000000000000e+00 +9.9999997806640806e-01
-3.8000000000000020e+00 +8.1645913003239201e+00 +0.0000000000000000e+00 -3.7999999706954979e+00 +2.1510565813727324e-04 +0.0000000000000000e+00 +9.9999997686477793e-01
-3.9000000000000021e+00 +8.1645695067222128e+00 +0.0000000000000000e+00 -3.8999999683205591e+00 +2.2076637647543758e-04 +0.0000000000000000e+00 +9.9999997563110354e-01
-4.0000000000000018e+00 +8.1645471470485287e+00 +0.0000000000000000e+00 -3.9999999658206504e+00 +2.2642709770135308e-04 +0.0000000000000000e+00 +9.9999997436538468e-01
-4.1000000000000014e+00 +8.1645242213025693e+00 +0.0000000000000000e+00 -4.0999999631925679e+00 +2.3208782201904034e-04 +0.0000000000000000e+00 +9.9999997306762134e-01
-4.2000000000000011e+00 +8.1645007294840148e+00 +0.0000000000000000e+00 -4.1999999604331064e+00 +2.3774854963512298e-04 +0.0000000000000000e+00 +9.9999997173781341e-01
-4.3000000000000007e+00 +8.1644766715925261e+00 +0.0000000000000000e+00 -4.2999999575390619e+00 +2.4340928074588716e-04 +0.0000000000000000e+00 +9.9999997037596078e-01
-4.4000000000000004e+00 +8.1644520476277442e+00 +0.0000000000000000e+00 -4.3999999545072299e+00 +2.4907001553610522e-04 +0.0000000000000000e+00 +9.9999996898206345e-01
-4.5000000000000000e+00 +8.1644268575892909e+00 +0.0000000000000000e+00 -4.4999999513344058e+00 +2.5473075417903568e-04 +0.0000000000000000e+00 +9.9999996755612119e-01
-4.5999999999999996e+00 +8.1644011014767734e+00 +0.0000000000000000e+00 -4.5999999480173859e+00 +2.6039149683642330e-04 +0.0000000000000000e+00 +9.9999996609813391e-01
-4.6999999999999993e+00 +8.1643747792897834e+00 +0.0000000000000000e+00 -4.6999999445529648e+00 +2.6605224365849905e-04 +0.0000000000000000e+00 +9.9999996460810148e-01
-4.7999999999999989e+00 +8.1643478910278979e+00 +0.0000000000000000e+00 -4.7999999409379379e+00 +2.7171299478398025e-04 +0.0000000000000000e+00 +9.9999996308602379e-01
-4.8999999999999986e+00 +8.1643204366906783e+00 +0.0000000000000000e+00 -4.8999999371691008e+00 +2.7737375034007043e-04 +0.0000000000000000e+00 +9.9999996153190085e-01
-4.9999999999999982e+00 +8.1642924162776769e+00 +0.0000000000000000e+00 -4.9999999332432497e+00 +2.8303451044245950e-04 +0.0000000000000000e+00 +9.9999995994573243e-01
-5.0999999999999979e+00 +8.1642638297884336e+00 +0.0000000000000000e+00 -5.0999999291571791e+00 +2.8869527519532367e-04 +0.0000000000000000e+00 +9.9999995832751842e-01
-5.1999999999999975e+00 +8.1642346772224794e+00 +0.0000000000000000e+00 -5.1999999249076847e+00 +2.9435604469132536e-04 +0.0000000000000000e+00 +9.9999995667725883e-01
-5.2999999999999972e+00 +8.1642049585793348e+00 +0.0000000000000000e+00 -5.2999999204915627e+00 +3.0001681901161331e-04 +0.0000000000000000e+00 +9.9999995499495342e-01
-5.3999999999999968e+00 +8.1641746738585148e+00 +0.0000000000000000e+00 -5.3999999159056076e+00 +3.0567759822582258e-04 +0.0000000000000000e+00 +9.9999995328060221e-01
-5.4999999999999964e+00 +8.1641438230595256e+00 +0.0000000000000000e+00 -5.4999999111466149e+00 +3.1133838239207442e-04 +0.0000000000000000e+00 +9.9999995153420496e-01
-5.5999999999999961e+00 +8.1641124061818697e+00 +0.0000000000000000e+00 -5.5999999062113801e+00 +3.1699917155697630e-04 +0.0000000000000000e+00 +9.9999994975576167e-01
-5.6999999999999957e+00 +8.1640804232250463e+00 +0.0000000000000000e+00 -5.6999999010966986e+00 +3.2265996575562184e-04 +0.0000000000000000e+00 +9.9999994794527225e-01
-5.7999999999999954e+00 +8.1640478741885509e+00 +0.0000000000000000e+00 -5.7999998957993659e+00 +3.2832076501159091e-04 +0.0000000000000000e+00 +9.9999994610273657e-01
-5.8999999999999950e+00 +8.1640147590718755e+00 +0.0000000000000000e+00 -5.8999998903161774e+00 +3.3398156933694934e-04 +0.0000000000000000e+00 +9.9999994422815452e-01
-5.9999999999999947e+00 +8.1639810778745137e+00 +0.0000000000000000e+00 -5.9999998846439286e+00 +3.3964237873224909e-04 +0.0000000000000000e+00 +9.9999994232152600e-01
-6.0999999999999943e+00 +8.1639468305959593e+00 +0.0000000000000000e+00 -6.0999998787794150e+00 +3.4530319318726386e-04 +0.0000000000000000e+00 +9.9999994038285100e-01
-6.1999999999999940e+00 +8.1639120172357078e+00 +0.0000000000000000e+00 -6.1999998727194310e+00 +3.5096401268908312e-04 +0.0000000000000000e+00 +9.9999993841212942e-01
-6.2999999999999936e+00 +8.1638766377932530e+00 +0.0000000000000000e+00 -6.2999998664607721e+00 +3.5662483723020589e-04 +0.0000000000000000e+00 +9.9999993640936113e-01
-6.3999999999999932e+00 +8.1638406922680922e+00 +0.0000000000000000e+00 -6.3999998600002348e+00 +3.6228566680927642e-04 +0.0000000000000000e+00 +9.9999993437454604e-01
-6.4999999999999929e+00 +8.1638041806597226e+00 +0.0000000000000000e+00 -6.4999998533346135e+00 +3.6794650143108363e-04 +0.0000000000000000e+00 +9.9999993230768414e-01
-6.5999999999999925e+00 +8.1637671029676380e+00 +0.0000000000000000e+00 -6.5999998464607037e+00 +3.7360734110656094e-04 +0.0000000000000000e+00 +9.9999993020877531e-01
-6.6999999999999922e+00 +8.1637294591913321e+00 +0.0000000000000000e+00 -6.6999998393753009e+00 +3.7926818585278600e-04 +0.0000000000000000e+00 +9.9999992807781946e-01
-6.7999999999999918e+00 +8.1636912493302969e+00 +0.0000000000000000e+00 -6.7999998320751995e+00 +3.8492903569298009e-04 +0.0000000000000000e+00 +9.9999992591481646e-01
-6.8999999999999915e+00 +8.1636524733840226e+00 +0.0000000000000000e+00 -6.8999998245571961e+00 +3.9058989065650791e-04 +0.0000000000000000e+00 +9.9999992371976620e-01
-6.9999999999999911e+00 +8.1636131313519940e+00 +0.0000000000000000e+00 -6.9999998168180850e+00 +3.9625075077887712e-04 +0.0000000000000000e+00 +9.9999992149266859e-01
-7.0999999999999908e+00 +8.1635732232336942e+00 +0.0000000000000000e+00 -7.0999998088546619e+00 +4.0191161610173801e-04 +0.0000000000000000e+00 +9.9999991923352360e-01
-7.1999999999999904e+00 +8.1635327490285992e+00 +0.0000000000000000e+00 -7.1999998006637220e+00 +4.0757248667288302e-04 +0.0000000000000000e+00 +9.9999991694233104e-01
-7.2999999999999901e+00 +8.1634917087361831e+00 +0.0000000000000000e+00 -7.2999997922420601e+00 +4.1323336254624627e-04 +0.0000000000000000e+00 +9.9999991461909088e-01
-7.3999999999999897e+00 +8.1634501023559114e+00 +0.0000000000000000e+00 -7.3999997835864715e+00 +4.1889424378190314e-04 +0.0000000000000000e+00 +9.9999991226380291e-01
-7.4999999999999893e+00 +8.1634079298872457e+00 +0.0000000000000000e+00 -7.4999997746937517e+00 +4.2455513044606987e-04 +0.0000000000000000e+00 +9.9999990987646703e-01
-7.5999999999999890e+00 +8.1633651913296390e+00 +0.0000000000000000e+00 -7.5999997655606961e+00 +4.3021602261110291e-04 +0.0000000000000000e+00 +9.9999990745708311e-01
-7.6999999999999886e+00 +8.1633218866825370e+00 +0.0000000000000000e+00 -7.6999997561841003e+00 +4.3587692035549860e-04 +0.0000000000000000e+00 +9.9999990500565106e-01
-7.7999999999999883e+00 +8.1632780159453784e+00 +0.0000000000000000e+00 -7.7999997465607587e+00 +4.4153782376389253e-04 +0.0000000000000000e+00 +9.9999990252217075e-01
-7.8999999999999879e+00 +8.1632335791175930e+00 +0.0000000000000000e+00 -7.8999997366874668e+00 +4.4719873292705910e-04 +0.0000000000000000e+00 +9.9999990000664207e-01
-7.9999999999999876e+00 +8.1631885761985981e+00 +0.0000000000000000e+00 -7.9999997265610192e+00 +4.5285964794191091e-04 +0.0000000000000000e+00 +9.9999989745906481e-01
-8.0999999999999872e+00 +8.1631430071878057e+00 +0.0000000000000000e+00 -8.0999997161782122e+00 +4.5852056891078260e-04 +0.0000000000000000e+00 +9.9999989487943886e-01
-8.1999999999999869e+00 +8.1630968720846138e+00 +0.0000000000000000e+00 -8.1999997055358396e+00 +4.6418149593355825e-04 +0.0000000000000000e+00 +9.9999989226776409e-01
-8.2999999999999865e+00 +8.1630501708884129e+00 +0.0000000000000000e+00 -8.2999996946306975e+00 +4.6984242909979892e-04 +0.0000000000000000e+00 +9.9999988962404029e-01
-8.3999999999999861e+00 +8.1630029035985849e+00 +0.0000000000000000e+00 -8.3999996834595798e+00 +4.7550336848802677e-04 +0.0000000000000000e+00 +9.9999988694826736e-01
-8.4999999999999858e+00 +8.1629550702145046e+00 +0.0000000000000000e+00 -8.4999996720192819e+00 +4.8116431416572470e-04 +0.0000000000000000e+00 +9.9999988424044517e-01
-8.5999999999999854e+00 +8.1629066707355395e+00 +0.0000000000000000e+00 -8.5999996603065991e+00 +4.8682526618933628e-04 +0.0000000000000000e+00 +9.9999988150057351e-01
-8.6999999999999851e+00 +8.1628577051610538e+00 +0.0000000000000000e+00 -8.6999996483183271e+00 +4.9248622460426530e-04 +0.0000000000000000e+00 +9.9999987872865237e-01
-8.7999999999999847e+00 +8.1628081734904043e+00 +0.0000000000000000e+00 -8.7999996360512611e+00 +4.9814718944487558e-04 +0.0000000000000000e+00 +9.9999987592468154e-01
-8.8999999999999844e+00 +8.1627580757229499e+00 +0.0000000000000000e+00 -8.8999996235021950e+00 +5.0380816073449072e-04 +0.0000000000000000e+00 +9.9999987308866090e-01
-8.9999999999999840e+00 +8.1627074118580421e+00 +0.0000000000000000e+00 -8.9999996106679241e+00 +5.0946913848539375e-04 +0.0000000000000000e+00 +9.9999987022059045e-01
-9.0999999999999837e+00 +8.1626561818950361e+00 +0.0000000000000000e+00 -9.0999995975452439e+00 +5.1513012269882705e-04 +0.0000000000000000e+00 +9.9999986732046997e-01
-9.1999999999999833e+00 +8.1626043858332871e+00 +0.0000000000000000e+00 -9.1999995841309499e+00 +5.2079111336499171e-04 +0.0000000000000000e+00 +9.9999986438829935e-01
-9.2999999999999829e+00 +8.1625520236721485e+00 +0.0000000000000000e+00 -9.2999995704218357e+00 +5.2645211046304752e-04 +0.0000000000000000e+00 +9.9999986142407848e-01
-9.3999999999999826e+00 +8.1624990954109808e+00 +0.0000000000000000e+00 -9.3999995564146968e+00 +5.3211311396111276e-04 +0.0000000000000000e+00 +9.9999985842780736e-01
-9.4999999999999822e+00 +8.1624456010491446e+00 +0.0000000000000000e+00 -9.4999995421063286e+00 +5.3777412381626353e-04 +0.0000000000000000e+00 +9.9999985539948588e-01
-9.5999999999999819e+00 +8.1623915405860075e+00 +0.0000000000000000e+00 -9.5999995274935248e+00 +5.4343513997453369e-04 +0.0000000000000000e+00 +9.9999985233911393e-01
-9.6999999999999815e+00 +8.1623369140209423e+00 +0.0000000000000000e+00 -9.6999995125730827e+00 +5.4909616237091457e-04 +0.0000000000000000e+00 +9.9999984924669139e-01
-9.7999999999999812e+00 +8.1622817213533274e+00 +0.0000000000000000e+00 -9.7999994973417959e+00 +5.5475719092935470e-04 +0.0000000000000000e+00 +9.9999984612221826e-01
-9.8999999999999808e+00 +8.1622259625825535e+00 +0.0000000000000000e+00 -9.8999994817964581e+00 +5.6041822556275925e-04 +0.0000000000000000e+00 +9.9999984296569444e-01
-9.9999999999999805e+00 +8.1621696377080166e+00 +0.0000000000000000e+00 -9.9999994659338665e+00 +5.6607926617298983e-04 +0.0000000000000000e+00 +9.9999983977711993e-01
-1.0099999999999980e+01 +8.1621127467291235e+00 +0.0000000000000000e+00 -1.0099999449750815e+01 +5.7174031265156864e-04 +0.0000000000000000e+00 +9.9999983655649460e-01
-1.0199999999999980e+01 +8.1620552896452949e+00 +0.0000000000000000e+00 -1.0199999433244097e+01 +5.7740136488742448e-04 +0.0000000000000000e+00 +9.9999983330381859e-01
-1.0299999999999979e+01 +8.1619972664559590e+00 +0.0000000000000000e+00 -1.0299999416410509e+01 +5.8306242277464013e-04 +0.0000000000000000e+00 +9.9999983001909165e-01
-1.0399999999999979e+01 +8.1619386771605562e+00 +0.0000000000000000e+00 -1.0399999399246846e+01 +5.8872348621315804e-04 +0.0000000000000000e+00 +9.9999982670231391e-01
-1.0499999999999979e+01 +8.1618795217585358e+00 +0.0000000000000000e+00 -1.0499999381749904e+01 +5.9438455510878088e-04 +0.0000000000000000e+00 +9.9999982335348525e-01
-1.0599999999999978e+01 +8.1618198002493560e+00 +0.0000000000000000e+00 -1.0599999363916476e+01 +6.0004562937317327e-04 +0.0000000000000000e+00 +9.9999981997260567e-01
-1.0699999999999978e+01 +8.1617595126324858e+00 +0.0000000000000000e+00 -1.0699999345743358e+01 +6.0570670892386277e-04 +0.0000000000000000e+00 +9.9999981655967507e-01
-1.0799999999999978e+01 +8.1616986589073992e+00 +0.0000000000000000e+00 -1.0799999327227344e+01 +6.1136779368424097e-04 +0.0000000000000000e+00 +9.9999981311469344e-01
-1.0899999999999977e+01 +8.1616372390735776e+00 +0.0000000000000000e+00 -1.0899999308365228e+01 +6.1702888358356508e-04 +0.0000000000000000e+00 +9.9999980963766077e-01
-1.0999999999999977e+01 +8.1615752531305130e+00 +0.0000000000000000e+00 -1.0999999289153807e+01 +6.2268997855695893e-04 +0.0000000000000000e+00 +9.9999980612857697e-01
-1.1099999999999977e+01 +8.1615127010776991e+00 +0.0000000000000000e+00 -1.1099999269589876e+01 +6.2835107854541450e-04 +0.0000000000000000e+00 +9.9999980258744203e-01
-1.1199999999999976e+01 +8.1614495829146385e+00 +0.0000000000000000e+00 -1.1199999249670228e+01 +6.3401218349579331e-04 +0.0000000000000000e+00 +9.9999979901425584e-01
-1.1299999999999976e+01 +8.1613858986408356e+00 +0.0000000000000000e+00 -1.1299999229391659e+01 +6.3967329336082760e-04 +0.0000000000000000e+00 +9.9999979540901840e-01
-1.1399999999999975e+01 +8.1613216482558038e+00 +0.0000000000000000e+00 -1.1399999208750964e+01 +6.4533440809912200e-04 +0.0000000000000000e+00 +9.9999979177172960e-01
-1.1499999999999975e+01 +8.1612568317590544e+00 +0.0000000000000000e+00 -1.1499999187744937e+01 +6.5099552767515479e-04 +0.0000000000000000e+00 +9.9999978810238943e-01
-1.1599999999999975e+01 +8.1611914491501079e+00 +0.0000000000000000e+00 -1.1599999166370374e+01 +6.5665665205927944e-04 +0.0000000000000000e+00 +9.9999978440099779e-01
-1.1699999999999974e+01 +8.1611255004284828e+00 +0.0000000000000000e+00 -1.1699999144624069e+01 +6.6231778122772633e-04 +0.0000000000000000e+00 +9.9999978066755468e-01
