# field on trajectory
# s[mm] rx[mm] ry[mm] rz[mm] bx[T] by[T] bz[T]
0.0000000000000000e+00 +8.1529999999999987e+00 +0.0000000000000000e+00 +0.0000000000000000e+00 -2.8207053205052235e-02 -5.3714392078391604e-01 +5.4077172054284080e-03
1.0000000000000001e-01 +8.1529997168015029e+00 +0.0000000000000000e+00 +9.9999999999465322e-02 -2.8207023657715373e-02 -5.3714421271228918e-01 +5.4077298564653951e-03
2.0000000000000001e-01 +8.1529988672058096e+00 +0.0000000000000000e+00 +1.9999999999572260e-01 -2.8206994784066075e-02 -5.3714450123720303e-01 +5.4077406531512487e-03
3.0000000000000004e-01 +8.1529974512126149e+00 +0.0000000000000000e+00 +2.9999999998556376e-01 -2.8206966370940396e-02 -5.3714478776413332e-01 +5.4077496814899460e-03
4.0000000000000002e-01 +8.1529954688216169e+00 +0.0000000000000000e+00 +3.9999999996578073e-01 -2.8206938205172494e-02 -5.3714507369855824e-01 +5.4077570274855026e-03
5.0000000000000000e-01 +8.1529929200325135e+00 +0.0000000000000000e+00 +4.9999999993316546e-01 -2.8206910073594806e-02 -5.3714536044596073e-01 +5.4077627771419159e-03
5.9999999999999998e-01 +8.1529898048450029e+00 +0.0000000000000000e+00 +5.9999999988450980e-01 -2.8206881763038007e-02 -5.3714564941182996e-01 +5.4077670164631459e-03
6.9999999999999996e-01 +8.1529861232587795e+00 +0.0000000000000000e+00 +6.9999999981660577e-01 -2.8206853060331039e-02 -5.3714594200166021e-01 +5.4077698314530685e-03
7.9999999999999993e-01 +8.1529818752735341e+00 +0.0000000000000000e+00 +7.9999999972624525e-01 -2.8206823752301099e-02 -5.3714623962095276e-01 +5.4077713081154381e-03
8.9999999999999991e-01 +8.1529770608889542e+00 +0.0000000000000000e+00 +8.9999999961022015e-01 -2.8206793625773663e-02 -5.3714654367521686e-01 +5.4077715324538375e-03
9.9999999999999989e-01 +8.1529716801047201e+00 +0.0000000000000000e+00 +9.9999999946532225e-01 -2.8206762467572567e-02 -5.3714685556997011e-01 +5.4077705904716682e-03
1.0999999999999999e+00 +8.1529657329205012e+00 +0.0000000000000000e+00 +1.0999999992883436e+00 -2.8206730064519927e-02 -5.3714717671073975e-01 +5.4077685681720757e-03
1.2000000000000000e+00 +8.1529592193359601e+00 +0.0000000000000000e+00 +1.1999999990760759e+00 -2.8206696203436226e-02 -5.3714750850306292e-01 +5.4077655515579401e-03
1.3000000000000000e+00 +8.1529521393507469e+00 +0.0000000000000000e+00 +1.2999999988253113e+00 -2.8206660671140298e-02 -5.3714785235248808e-01 +5.4077616266318268e-03
1.4000000000000001e+00 +8.1529444929644974e+00 +0.0000000000000000e+00 +1.3999999985328415e+00 -2.8206623254449361e-02 -5.3714820966457544e-01 +5.4077568793959368e-03
1.5000000000000002e+00 +8.1529362801768368e+00 +0.0000000000000000e+00 +1.4999999981954584e+00 -2.8206583740179012e-02 -5.3714858184489789e-01 +5.4077513958520861e-03
1.6000000000000003e+00 +8.1529275009873725e+00 +0.0000000000000000e+00 +1.5999999978099539e+00 -2.8206541915143293e-02 -5.3714897029904196e-01 +5.4077452620016637e-03
1.7000000000000004e+00 +8.1529181553956942e+00 +0.0000000000000000e+00 +1.6999999973731199e+00 -2.8206497566154631e-02 -5.3714937643260841e-01 +5.4077385638455809e-03
1.8000000000000005e+00 +8.1529082434013755e+00 +0.0000000000000000e+00 +1.7999999968817482e+00 -2.8206450480023952e-02 -5.3714980165121295e-01 +5.4077313873842452e-03
1.9000000000000006e+00 +8.1528977650039671e+00 +0.0000000000000000e+00 +1.8999999963326304e+00 -2.8206400443560584e-02 -5.3715024736048778e-01 +5.4077238186175172e-03
2.0000000000000004e+00 +8.1528867202029982e+00 +0.0000000000000000e+00 +1.9999999957225585e+00 -2.8206347243572408e-02 -5.3715071496608136e-01 +5.4077159435446708e-03
2.1000000000000005e+00 +8.1528751089979785e+00 +0.0000000000000000e+00 +2.0999999950483246e+00 -2.8206290697212727e-02 -5.3715120540802352e-01 +5.4077077957642595e-03
2.2000000000000006e+00 +8.1528629313883894e+00 +0.0000000000000000e+00 +2.1999999943067201e+00 -2.8206230743024533e-02 -5.3715171776380188e-01 +5.4076991992735562e-03
2.3000000000000007e+00 +8.1528501873736907e+00 +0.0000000000000000e+00 +2.2999999934945370e+00 -2.8206167349905279e-02 -5.3715225064525596e-01 +5.4076899256683903e-03
2.4000000000000008e+00 +8.1528368769533230e+00 +0.0000000000000000e+00 +2.3999999926085667e+00 -2.8206100486761674e-02 -5.3715280266420684e-01 +5.4076797465431046e-03
2.5000000000000009e+00 +8.1528230001267037e+00 +0.0000000000000000e+00 +2.4999999916456015e+00 -2.8206030122510793e-02 -5.3715337243245576e-01 +5.4076684334904276e-03
2.6000000000000010e+00 +8.1528085568932323e+00 +0.0000000000000000e+00 +2.5999999906024329e+00 -2.8205956226081151e-02 -5.3715395856177972e-01 +5.4076557581013811e-03
2.7000000000000011e+00 +8.1527935472522923e+00 +0.0000000000000000e+00 +2.6999999894758528e+00 -2.8205878766413804e-02 -5.3715455966393033e-01 +5.4076414919651391e-03
2.8000000000000012e+00 +8.1527779712032498e+00 +0.0000000000000000e+00 +2.7999999882626527e+00 -2.8205797712463440e-02 -5.3715517435062965e-01 +5.4076254066689399e-03
2.9000000000000012e+00 +8.1527618287454562e+00 +0.0000000000000000e+00 +2.8999999869596245e+00 -2.8205713033199426e-02 -5.3715580123356677e-01 +5.4076072737979496e-03
3.0000000000000013e+00 +8.1527451198782526e+00 +0.0000000000000000e+00 +2.9999999855635595e+00 -2.8205624697606953e-02 -5.3715643892439602e-01 +5.4075868649351658e-03
3.1000000000000014e+00 +8.1527278446009674e+00 +0.0000000000000000e+00 +3.0999999840712498e+00 -2.8205532674688106e-02 -5.3715708603473367e-01 +5.4075639516612921e-03
3.2000000000000015e+00 +8.1527100029129187e+00 +0.0000000000000000e+00 +3.1999999824794871e+00 -2.8205436933462915e-02 -5.3715774117615478e-01 +5.4075383055546301e-03
3.3000000000000016e+00 +8.1526915948134153e+00 +0.0000000000000000e+00 +3.2999999807850626e+00 -2.8205337442970491e-02 -5.3715840296019002e-01 +5.4075096981909647e-03
3.4000000000000017e+00 +8.1526726203017610e+00 +0.0000000000000000e+00 +3.3999999789847686e+00 -2.8205234172270121e-02 -5.3715906999832319e-01 +5.4074779011434471e-03
3.5000000000000018e+00 +8.1526530793772540e+00 +0.0000000000000000e+00 +3.4999999770753965e+00 -2.8205127090442265e-02 -5.3715974090198815e-01 +5.4074426859824897e-03
3.6000000000000019e+00 +8.1526329720391857e+00 +0.0000000000000000e+00 +3.5999999750537377e+00 -2.8205016166589793e-02 -5.3716041428256578e-01 +5.4074038242756389e-03
3.7000000000000020e+00 +8.1526122982868472e+00 +0.0000000000000000e+00 +3.6999999729165838e+00 -2.8204901369838921e-02 -5.3716108875138102e-01 +5.4073610875874749e-03
3.8000000000000020e+00 +8.1525910581195298e+00 +0.0000000000000000e+00 +3.7999999706607266e+00 -2.8204782669340414e-02 -5.3716176291969964e-01 +5.4073142474794856e-03
3.9000000000000021e+00 +8.1525692515365211e+00 +0.0000000000000000e+00 +3.8999999682829576e+00 -2.8204660034270610e-02 -5.3716243539872599e-01 +5.4072630755099662e-03
4.0000000000000018e+00 +8.1525468785371142e+00 +0.0000000000000000e+00 +3.9999999657800682e+00 -2.8204533433832543e-02 -5.3716310479959917e-01 +5.4072073432338916e-03
4.1000000000000014e+00 +8.1525239391206039e+00 +0.0000000000000000e+00 +4.0999999631488500e+00 -2.8204402935757922e-02 -5.3716376999773363e-01 +5.4071468816808020e-03
4.2000000000000011e+00 +8.1525004332862903e+00 +0.0000000000000000e+00 +4.1999999603860951e+00 -2.8204269001796477e-02 -5.3716443092586719e-01 +5.4070817597906698e-03
4.3000000000000007e+00 +8.1524763610334752e+00 +0.0000000000000000e+00 +4.2999999574885948e+00 -2.8204132192186385e-02 -5.3716508778108352e-01 +5.4070121059829942e-03
4.4000000000000004e+00 +8.1524517223614694e+00 +0.0000000000000000e+00 +4.3999999544531398e+00 -2.8203993067148037e-02 -5.3716574076047707e-01 +5.4069380486793366e-03
4.5000000000000000e+00 +8.1524265172695820e+00 +0.0000000000000000e+00 +4.4999999512765232e+00 -2.8203852186882299e-02 -5.3716639006115474e-01 +5.4068597163035286e-03
4.5999999999999996e+00 +8.1524007457571308e+00 +0.0000000000000000e+00 +4.5999999479555349e+00 -2.8203710111568893e-02 -5.3716703588023784e-01 +5.4067772372818918e-03
4.6999999999999993e+00 +8.1523744078234355e+00 +0.0000000000000000e+00 +4.6999999444869678e+00 -2.8203567401364826e-02 -5.3716767841486412e-01 +5.4066907400434289e-03
4.7999999999999989e+00 +8.1523475034678210e+00 +0.0000000000000000e+00 +4.7999999408676119e+00 -2.8203424616402708e-02 -5.3716831786219044e-01 +5.4066003530200491e-03
4.8999999999999986e+00 +8.1523200326896124e+00 +0.0000000000000000e+00 +4.8999999370942602e+00 -2.8203282316789161e-02 -5.3716895441939283e-01 +5.4065062046467771e-03
4.9999999999999982e+00 +8.1522919954881381e+00 +0.0000000000000000e+00 +4.9999999331637035e+00 -2.8203141062603139e-02 -5.3716958828367045e-01 +5.4064084233619598e-03
5.0999999999999979e+00 +8.1522633918627321e+00 +0.0000000000000000e+00 +5.0999999290727329e+00 -2.8203001413894386e-02 -5.3717021965224576e-01 +5.4063071376074748e-03
5.1999999999999975e+00 +8.1522342218127299e+00 +0.0000000000000000e+00 +5.1999999248181403e+00 -2.8202863930681683e-02 -5.3717084872236787e-01 +5.4062024758289454e-03
5.2999999999999972e+00 +8.1522044853374673e+00 +0.0000000000000000e+00 +5.2999999203967167e+00 -2.8202729172951344e-02 -5.3717147569131363e-01 +5.4060945664759540e-03
5.3999999999999968e+00 +8.1521741824362852e+00 +0.0000000000000000e+00 +5.3999999158052541e+00 -2.8202597700655516e-02 -5.3717210075638966e-01 +5.4059835380022413e-03
5.4999999999999964e+00 +8.1521433131085264e+00 +0.0000000000000000e+00 +5.4999999110405433e+00 -2.8202470073710576e-02 -5.3717272411493400e-01 +5.4058695188659257e-03
5.5999999999999961e+00 +8.1521118773535335e+00 +0.0000000000000000e+00 +5.5999999060993764e+00 -2.8202346851995488e-02 -5.3717334596431876e-01 +5.4057526375297146e-03
5.6999999999999957e+00 +8.1520798751706511e+00 +0.0000000000000000e+00 +5.6999999009785443e+00 -2.8202228595350168e-02 -5.3717396650195159e-01 +5.4056330224611076e-03
5.7999999999999954e+00 +8.1520473065592274e+00 +0.0000000000000000e+00 +5.7999998956748380e+00 -2.8202115863573882e-02 -5.3717458592527700e-01 +5.4055108021326117e-03
5.8999999999999950e+00 +8.1520141715186103e+00 +0.0000000000000000e+00 +5.8999998901850494e+00 -2.8202009216423587e-02 -5.3717520443177968e-01 +5.4053861050219563e-03
5.9999999999999947e+00 +8.1519804700481462e+00 +0.0000000000000000e+00 +5.9999998845059697e+00 -2.8201909213612323e-02 -5.3717582221898452e-01 +5.4052590596122864e-03
6.0999999999999943e+00 +8.1519462021471867e+00 +0.0000000000000000e+00 +6.0999998786343905e+00 -2.8201816210886362e-02 -5.3717643944773541e-01 +5.4051297855631881e-03
6.1999999999999940e+00 +8.1519113678150816e+00 +0.0000000000000000e+00 +6.1999998725671031e+00 -2.8201729748272734e-02 -5.3717705613200739e-01 +5.4049983672212702e-03
6.2999999999999936e+00 +8.1518759670511827e+00 +0.0000000000000000e+00 +6.2999998663008991e+00 -2.8201649161871113e-02 -5.3717767224906743e-01 +5.4048648801047925e-03
6.3999999999999932e+00 +8.1518399998548414e+00 +0.0000000000000000e+00 +6.3999998598325689e+00 -2.8201573787780619e-02 -5.3717828777619725e-01 +5.4047293997324794e-03
6.4999999999999929e+00 +8.1518034662254077e+00 +0.0000000000000000e+00 +6.4999998531589043e+00 -2.8201502962100094e-02 -5.3717890269069390e-01 +5.4045920016235031e-03
6.5999999999999925e+00 +8.1517663661622368e+00 +0.0000000000000000e+00 +6.5999998462766971e+00 -2.8201436020928367e-02 -5.3717951696987076e-01 +5.4044527612974683e-03
6.6999999999999922e+00 +8.1517286996646803e+00 +0.0000000000000000e+00 +6.6999998391827376e+00 -2.8201372300364524e-02 -5.3718013059105729e-01 +5.4043117542744070e-03
6.7999999999999918e+00 +8.1516904667320933e+00 +0.0000000000000000e+00 +6.7999998318738175e+00 -2.8201311136508315e-02 -5.3718074353160117e-01 +5.4041690560747624e-03
6.8999999999999915e+00 +8.1516516673638311e+00 +0.0000000000000000e+00 +6.8999998243467289e+00 -2.8201251865460294e-02 -5.3718135576886705e-01 +5.4040247422193627e-03
6.9999999999999911e+00 +8.1516123015592488e+00 +0.0000000000000000e+00 +6.9999998165982618e+00 -2.8201193823322222e-02 -5.3718196728023870e-01 +5.4038788882294249e-03
7.0999999999999908e+00 +8.1515723693177033e+00 +0.0000000000000000e+00 +7.0999998086252081e+00 -2.8201136346197333e-02 -5.3718257804311886e-01 +5.4037315696265414e-03
7.1999999999999904e+00 +8.1515318706385518e+00 +0.0000000000000000e+00 +7.1999998004243588e+00 -2.8201078770190548e-02 -5.3718318803493026e-01 +5.4035828619326516e-03
7.2999999999999901e+00 +8.1514908055211510e+00 +0.0000000000000000e+00 +7.2999997919925050e+00 -2.8201020431408881e-02 -5.3718379723311505e-01 +5.4034328406700341e-03
7.3999999999999897e+00 +8.1514491739648616e+00 +0.0000000000000000e+00 +7.3999997833264386e+00 -2.8200960665961689e-02 -5.3718440561513703e-01 +5.4032815813613013e-03
7.4999999999999893e+00 +8.1514069759690422e+00 +0.0000000000000000e+00 +7.4999997744229505e+00 -2.8200898809960927e-02 -5.3718501315848166e-01 +5.4031291595293815e-03
7.5999999999999890e+00 +8.1513642115330551e+00 +0.0000000000000000e+00 +7.5999997652788318e+00 -2.8200834199521473e-02 -5.3718561984065616e-01 +5.4029756506974993e-03
7.6999999999999886e+00 +8.1513208806562609e+00 +0.0000000000000000e+00 +7.6999997558908735e+00 -2.8200766170761431e-02 -5.3718622563919061e-01 +5.4028211303891677e-03
7.7999999999999883e+00 +8.1512769833380219e+00 +0.0000000000000000e+00 +7.7999997462558666e+00 -2.8200694059802387e-02 -5.3718683053163852e-01 +5.4026656741281735e-03
7.8999999999999879e+00 +8.1512325195777020e+00 +0.0000000000000000e+00 +7.8999997363706020e+00 -2.8200617202769767e-02 -5.3718743449557715e-01 +5.4025093574385629e-03
7.9999999999999876e+00 +8.1511874893746654e+00 +0.0000000000000000e+00 +7.9999997262318718e+00 -2.8200534935793040e-02 -5.3718803750860888e-01 +5.4023522558446311e-03
8.0999999999999872e+00 +8.1511418927282779e+00 +0.0000000000000000e+00 +8.0999997158364661e+00 -2.8200446828911790e-02 -5.3718863954631968e-01 +5.4021944546531952e-03
8.1999999999999869e+00 +8.1510957296379072e+00 +0.0000000000000000e+00 +8.1999997051811775e+00 -2.8200353387808148e-02 -5.3718924057615780e-01 +5.4020360783007971e-03
8.2999999999999865e+00 +8.1510490001029208e+00 +0.0000000000000000e+00 +8.2999996942627963e+00 -2.8200255352099149e-02 -5.3718984056356267e-01 +5.4018772610066722e-03
8.3999999999999861e+00 +8.1510017041226863e+00 +0.0000000000000000e+00 +8.3999996830781125e+00 -2.8200153461430046e-02 -5.3719043947400669e-01 +5.4017181369902835e-03
8.4999999999999858e+00 +8.1509538416965750e+00 +0.0000000000000000e+00 +8.4999996716239181e+00 -2.8200048455475215e-02 -5.3719103727299700e-01 +5.4015588404713079e-03
8.5999999999999854e+00 +8.1509054128239562e+00 +0.0000000000000000e+00 +8.5999996598970050e+00 -2.8199941073939135e-02 -5.3719163392607472e-01 +5.4013995056696141e-03
8.6999999999999851e+00 +8.1508564175042046e+00 +0.0000000000000000e+00 +8.6999996478941632e+00 -2.8199832056557326e-02 -5.3719222939881783e-01 +5.4012402668052609e-03
8.7999999999999847e+00 +8.1508068557366915e+00 +0.0000000000000000e+00 +8.7999996356121848e+00 -2.8199722143097346e-02 -5.3719282365683996e-01 +5.4010812580984778e-03
8.8999999999999844e+00 +8.1507567275207933e+00 +0.0000000000000000e+00 +8.8999996230478597e+00 -2.8199612073359762e-02 -5.3719341666579212e-01 +5.4009226137696521e-03
8.9999999999999840e+00 +8.1507060328558865e+00 +0.0000000000000000e+00 +8.9999996101979800e+00 -2.8199502587179036e-02 -5.3719400839136378e-01 +5.4007644680393102e-03
9.0999999999999837e+00 +8.1506547717413493e+00 +0.0000000000000000e+00 +9.0999995970593357e+00 -2.8199394424424595e-02 -5.3719459879928311e-01 +5.4006069551281064e-03
9.1999999999999833e+00 +8.1506029441765584e+00 +0.0000000000000000e+00 +9.1999995836287187e+00 -2.8199288325001699e-02 -5.3719518785531750e-01 +5.4004502092568161e-03
9.2999999999999829e+00 +8.1505505501608972e+00 +0.0000000000000000e+00 +9.2999995699029192e+00 -2.8199185028852478e-02 -5.3719577552527498e-01 +5.4002943646463035e-03
9.3999999999999826e+00 +8.1504975896937459e+00 +0.0000000000000000e+00 +9.3999995558787290e+00 -2.8199085275956822e-02 -5.3719636177500518e-01 +5.4001395555175330e-03
9.4999999999999822e+00 +8.1504440627744881e+00 +0.0000000000000000e+00 +9.4999995415529384e+00 -2.8198989806333424e-02 -5.3719694657039929e-01 +5.3999859160915233e-03
9.5999999999999819e+00 +8.1503899694025090e+00 +0.0000000000000000e+00 +9.5999995269223390e+00 -2.8198899360040663e-02 -5.3719752987739122e-01 +5.3998335805893593e-03
9.6999999999999815e+00 +8.1503353095771960e+00 +0.0000000000000000e+00 +9.6999995119837212e+00 -2.8198814677177622e-02 -5.3719811166195897e-01 +5.3996826832321647e-03
9.7999999999999812e+00 +8.1502800832979361e+00 +0.0000000000000000e+00 +9.7999994967338768e+00 -2.8198736497884992e-02 -5.3719869189012359e-01 +5.3995333582410833e-03
9.8999999999999808e+00 +8.1502242905641200e+00 +0.0000000000000000e+00 +9.8999994811695959e+00 -2.8198665562346126e-02 -5.3719927052795280e-01 +5.3993857398372761e-03
9.9999999999999805e+00 +8.1501679313751403e+00 +0.0000000000000000e+00 +9.9999994652876705e+00 -2.8198602610787896e-02 -5.3719984754155914e-01 +5.3992399622418974e-03
1.0099999999999980e+01 +8.1501110057303894e+00 +0.0000000000000000e+00 +1.0099999449084891e+01 -2.8198548232880254e-02 -5.3720042300378656e-01 +5.3990961121489767e-03
1.0199999999999980e+01 +8.1500535136292616e+00 +0.0000000000000000e+00 +1.0199999432558046e+01 -2.8198502415894035e-02 -5.3720099741423599e-01 +5.3989540861383292e-03
1.0299999999999979e+01 +8.1499954550711546e+00 +0.0000000000000000e+00 +1.0299999415703930e+01 -2.8198464996459283e-02 -5.3720157137914770e-01 +5.3988137332535505e-03
1.0399999999999979e+01 +8.1499368300554647e+00 +0.0000000000000000e+00 +1.0399999398519332e+01 -2.8198435811163127e-02 -5.3720214550470369e-01 +5.3986749025297541e-03
1.0499999999999979e+01 +8.1498776385815876e+00 +0.0000000000000000e+00 +1.0499999381001045e+01 -2.8198414696548633e-02 -5.3720272039702621e-01 +5.3985374429933730e-03
1.0599999999999978e+01 +8.1498178806489179e+00 +0.0000000000000000e+00 +1.0599999363145857e+01 -2.8198401489113647e-02 -5.3720329666217448e-01 +5.3984012036619386e-03
1.0699999999999978e+01 +8.1497575562568514e+00 +0.0000000000000000e+00 +1.0699999344950561e+01 -2.8198396025309491e-02 -5.3720387490614430e-01 +5.3982660335438783e-03
1.0799999999999978e+01 +8.1496966654047807e+00 +0.0000000000000000e+00 +1.0799999326411946e+01 -2.8198398141539908e-02 -5.3720445573486642e-01 +5.3981317816383058e-03
1.0899999999999977e+01 +8.1496352080920946e+00 +0.0000000000000000e+00 +1.0899999307526803e+01 -2.8198407674159737e-02 -5.3720503975420364e-01 +5.3979982969347990e-03
1.0999999999999977e+01 +8.1495731843181787e+00 +0.0000000000000000e+00 +1.0999999288291924e+01 -2.8198424459473841e-02 -5.3720562756994983e-01 +5.3978654284132137e-03
1.1099999999999977e+01 +8.1495105940824146e+00 +0.0000000000000000e+00 +1.1099999268704101e+01 -2.8198448333735832e-02 -5.3720621978782779e-01 +5.3977330250434543e-03
1.1199999999999976e+01 +8.1494474373841808e+00 +0.0000000000000000e+00 +1.1199999248760124e+01 -2.8198479133146877e-02 -5.3720681701348783e-01 +5.3976009357852720e-03
1.1299999999999976e+01 +8.1493837142228500e+00 +0.0000000000000000e+00 +1.1299999228456782e+01 -2.8198516693854581e-02 -5.3720741985250586e-01 +5.3974690095880554e-03
1.1399999999999975e+01 +8.1493194245977882e+00 +0.0000000000000000e+00 +1.1399999207790867e+01 -2.8198560851951680e-02 -5.3720802891038077e-01 +5.3973370953906245e-03
1.1499999999999975e+01 +8.1492545685083542e+00 +0.0000000000000000e+00 +1.1499999186759169e+01 -2.8198611443474946e-02 -5.3720864479253450e-01 +5.3972050421210189e-03
1.1599999999999975e+01 +8.1491891459539012e+00 +0.0000000000000000e+00 +1.1599999165358479e+01 -2.8198668304403953e-02 -5.3720926810430847e-01 +5.3970726986962954e-03
1.1699999999999974e+01 +8.1491231569337739e+00 +0.0000000000000000e+00 +1.1699999143585590e+01 -2.8198731270659843e-02 -5.3720989945096287e-01 +5.3969399140223117e-03
1.1799999999999974e+01 +8.1490566014473096e+00 +0.0000000000000000e+00 +1.1799999121437290e+01 -2.8198800178104211e-02 -5.3721053943767383e-01 +5.3968065369935222e-03
