# field on trajectory
# s[mm] rx[mm] ry[mm] rz[mm] bx[T] by[T] bz[T]
0.0000000000000000e+00 +8.1530000000000094e+00 +0.0000000000000000e+00 +0.0000000000000000e+00 -2.8329053215583381e-02 -5.3707326662400134e-01 +5.4571781350208392e-03
1.0000000000000001e-01 +8.1529997159377707e+00 +0.0000000000000000e+00 +1.0008006405070299e-01 -2.8328768815405768e-02 -5.3707276523937508e-01 +5.4572618169926495e-03
2.0000000000000001e-01 +8.1529988637557800e+00 +0.0000000000000000e+00 +2.0016012809818201e-01 -2.8328475384894775e-02 -5.3707226949749065e-01 +5.4573418990028046e-03
2.9999999999999999e-01 +8.1529974434524792e+00 +0.0000000000000000e+00 +3.0024019213920999e-01 -2.8328173695618075e-02 -5.3707177958026953e-01 +5.4574185100550497e-03
4.0000000000000002e-01 +8.1529954550242092e+00 +0.0000000000000000e+00 +4.0032025617056399e-01 -2.8327864519143556e-02 -5.3707129566965417e-01 +5.4574917791530659e-03
5.0000000000000000e-01 +8.1529928984782600e+00 +0.0000000000000000e+00 +5.0040032018901703e-01 -2.8327548627033329e-02 -5.3707081794751144e-01 +5.4575618352994603e-03
5.9999999999999998e-01 +8.1529897738146193e+00 +0.0000000000000000e+00 +6.0048038419134497e-01 -2.8327226790850153e-02 -5.3707034659576514e-01 +5.4576288074971516e-03
6.9999999999999996e-01 +8.1529860810223909e+00 +0.0000000000000000e+00 +7.0056044817432195e-01 -2.8326899782158028e-02 -5.3706988179642356e-01 +5.4576928247496272e-03
8.0000000000000004e-01 +8.1529818201124709e+00 +0.0000000000000000e+00 +8.0064051213472498e-01 -2.8326568372508465e-02 -5.3706942373133582e-01 +5.4577540160584519e-03
9.0000000000000002e-01 +8.1529769910812302e+00 +0.0000000000000000e+00 +9.0072057606932698e-01 -2.8326233333454000e-02 -5.3706897258246000e-01 +5.4578125104259977e-03
1.0000000000000000e+00 +8.1529715939250291e+00 +0.0000000000000000e+00 +1.0008006399749001e+00 -2.8325895436541699e-02 -5.3706852853175469e-01 +5.4578684368543559e-03
1.1000000000000001e+00 +8.1529656286511507e+00 +0.0000000000000000e+00 +1.1008807038482300e+00 -2.8325555453308001e-02 -5.3706809176109804e-01 +5.4579219243444761e-03
1.2000000000000000e+00 +8.1529590952522994e+00 +0.0000000000000000e+00 +1.2009607676860801e+00 -2.8325214155287947e-02 -5.3706766245247417e-01 +5.4579731018980981e-03
1.3000000000000000e+00 +8.1529519937357708e+00 +0.0000000000000000e+00 +1.3010408314852300e+00 -2.8324872314002877e-02 -5.3706724078775792e-01 +5.4580220985155246e-03
1.3999999999999999e+00 +8.1529443240979198e+00 +0.0000000000000000e+00 +1.4011208952424601e+00 -2.8324530700969706e-02 -5.3706682694890229e-01 +5.4580690431975405e-03
1.5000000000000000e+00 +8.1529360863350995e+00 +0.0000000000000000e+00 +1.5012009589545301e+00 -2.8324190087695753e-02 -5.3706642111785619e-01 +5.4581140649445853e-03
1.6000000000000001e+00 +8.1529272804509691e+00 +0.0000000000000000e+00 +1.6012810226182299e+00 -2.8323851245675113e-02 -5.3706602347651122e-01 +5.4581572927561751e-03
1.7000000000000000e+00 +8.1529179064491508e+00 +0.0000000000000000e+00 +1.7013610862303301e+00 -2.8323514946390647e-02 -5.3706563420675291e-01 +5.4581988556314442e-03
1.8000000000000000e+00 +8.1529079643223703e+00 +0.0000000000000000e+00 +1.8014411497875999e+00 -2.8323181961317504e-02 -5.3706525349054135e-01 +5.4582388825699744e-03
1.8999999999999999e+00 +8.1528974540779000e+00 +0.0000000000000000e+00 +1.9015212132868200e+00 -2.8322853061912290e-02 -5.3706488150972287e-01 +5.4582775025698279e-03
2.0000000000000000e+00 +8.1528863757084800e+00 +0.0000000000000000e+00 +2.0016012767247702e+00 -2.8322529019623233e-02 -5.3706451844624215e-01 +5.4583148446295656e-03
2.1000000000000001e+00 +8.1528747292177304e+00 +0.0000000000000000e+00 +2.1016813400982199e+00 -2.8322210485576683e-02 -5.3706416428570269e-01 +5.4583509843734264e-03
2.2000000000000002e+00 +8.1528625146056601e+00 +0.0000000000000000e+00 +2.2017614034039301e+00 -2.8321897652225765e-02 -5.3706381826549732e-01 +5.4583857939355732e-03
2.2999999999999998e+00 +8.1528497318759001e+00 +0.0000000000000000e+00 +2.3018414666387002e+00 -2.8321590602734342e-02 -5.3706347944469501e-01 +5.4584190969607484e-03
2.3999999999999999e+00 +8.1528363810211903e+00 +0.0000000000000000e+00 +2.4019215297993002e+00 -2.8321289420277795e-02 -5.3706314688243828e-01 +5.4584507170930933e-03
2.5000000000000000e+00 +8.1528224620451493e+00 +0.0000000000000000e+00 +2.5020015928824901e+00 -2.8320994188035957e-02 -5.3706281963778091e-01 +5.4584804779743640e-03
2.6000000000000001e+00 +8.1528079749477893e+00 +0.0000000000000000e+00 +2.6020816558850601e+00 -2.8320704989200508e-02 -5.3706249676979623e-01 +5.4585082032449364e-03
2.7000000000000002e+00 +8.1527929197291105e+00 +0.0000000000000000e+00 +2.7021617188037701e+00 -2.8320421906975056e-02 -5.3706217733754746e-01 +5.4585337165434216e-03
2.7999999999999998e+00 +8.1527772963891003e+00 +0.0000000000000000e+00 +2.8022417816354102e+00 -2.8320145024576807e-02 -5.3706186040008985e-01 +5.4585568415065457e-03
2.8999999999999999e+00 +8.1527611049277802e+00 +0.0000000000000000e+00 +2.9023218443767500e+00 -2.8319874425238110e-02 -5.3706154501646786e-01 +5.4585774017690538e-03
3.0000000000000000e+00 +8.1527443453451305e+00 +0.0000000000000000e+00 +3.0024019070245598e+00 -2.8319610192208050e-02 -5.3706123024571717e-01 +5.4585952209635965e-03
3.1000000000000001e+00 +8.1527270176411495e+00 +0.0000000000000000e+00 +3.1024819695756198e+00 -2.8319352408754057e-02 -5.3706091514686161e-01 +5.4586101227206089e-03
3.2000000000000002e+00 +8.1527091218158603e+00 +0.0000000000000000e+00 +3.2025620320267101e+00 -2.8319101158163495e-02 -5.3706059877891466e-01 +5.4586219306682181e-03
3.2999999999999998e+00 +8.1526906578692397e+00 +0.0000000000000000e+00 +3.3026420943745900e+00 -2.8318856523745245e-02 -5.3706028020087793e-01 +5.4586304684321246e-03
3.3999999999999999e+00 +8.1526716258013003e+00 +0.0000000000000000e+00 +3.4027221566160502e+00 -2.8318618588831310e-02 -5.3705995847174148e-01 +5.4586355596354941e-03
3.5000000000000000e+00 +8.1526520256120403e+00 +0.0000000000000000e+00 +3.5028022187478500e+00 -2.8318387436778433e-02 -5.3705963265048307e-01 +5.4586370278988444e-03
3.6000000000000001e+00 +8.1526318572978198e+00 +0.0000000000000000e+00 +3.6028822807667802e+00 -2.8318163150971042e-02 -5.3705930179609318e-01 +5.4586346968402265e-03
3.7000000000000002e+00 +8.1526111208659096e+00 +0.0000000000000000e+00 +3.7029623426696099e+00 -2.8317945814817197e-02 -5.3705896496747008e-01 +5.4586283900739923e-03
3.7999999999999998e+00 +8.1525898163126804e+00 +0.0000000000000000e+00 +3.8030424044531101e+00 -2.8317735511758719e-02 -5.3705862122357761e-01 +5.4586179312123501e-03
3.8999999999999999e+00 +8.1525679436344909e+00 +0.0000000000000000e+00 +3.9031224661140600e+00 -2.8317532325268534e-02 -5.3705826962336567e-01 +5.4586031438644276e-03
4.0000000000000000e+00 +8.1525455028386205e+00 +0.0000000000000000e+00 +4.0032025276492398e+00 -2.8317336338844739e-02 -5.3705790922569663e-01 +5.4585838516369939e-03
4.0999999999999996e+00 +8.1525224939177896e+00 +0.0000000000000000e+00 +4.1032825890554099e+00 -2.8317147529188898e-02 -5.3705753933946754e-01 +5.4585599336326417e-03
4.2000000000000002e+00 +8.1524989168792708e+00 +0.0000000000000000e+00 +4.2033626503293604e+00 -2.8316965484743627e-02 -5.3705716018181870e-01 +5.4585314706465330e-03
4.2999999999999998e+00 +8.1524747717157897e+00 +0.0000000000000000e+00 +4.3034427114678504e+00 -2.8316789705770378e-02 -5.3705677217628933e-01 +5.4584985892843253e-03
4.4000000000000004e+00 +8.1524500584346207e+00 +0.0000000000000000e+00 +4.4035227724676700e+00 -2.8316619692511015e-02 -5.3705637574631537e-01 +5.4584614161554352e-03
4.5000000000000000e+00 +8.1524247770285001e+00 +0.0000000000000000e+00 +4.5036028333255800e+00 -2.8316454945197852e-02 -5.3705597131544347e-01 +5.4584200778756194e-03
4.5999999999999996e+00 +8.1523989275046898e+00 +0.0000000000000000e+00 +4.6036828940383696e+00 -2.8316294964040891e-02 -5.3705555930711746e-01 +5.4583747010651194e-03
4.7000000000000002e+00 +8.1523725098559208e+00 +0.0000000000000000e+00 +4.7037629546028104e+00 -2.8316139249237923e-02 -5.3705514014489353e-01 +5.4583254123512304e-03
4.7999999999999998e+00 +8.1523455240894709e+00 +0.0000000000000000e+00 +4.8038430150156701e+00 -2.8315987300961739e-02 -5.3705471425222628e-01 +5.4582723383664721e-03
4.9000000000000004e+00 +8.1523179701980606e+00 +0.0000000000000000e+00 +4.9039230752737302e+00 -2.8315838619370252e-02 -5.3705428205268457e-01 +5.4582156057511400e-03
5.0000000000000000e+00 +8.1522898481889605e+00 +0.0000000000000000e+00 +5.0040031353737602e+00 -2.8315692704593595e-02 -5.3705384396973610e-01 +5.4581553411514579e-03
5.0999999999999996e+00 +8.1522611580549000e+00 +0.0000000000000000e+00 +5.1040831953125396e+00 -2.8315549056744410e-02 -5.3705340042696414e-01 +5.4580916712221698e-03
5.2000000000000002e+00 +8.1522318997995207e+00 +0.0000000000000000e+00 +5.2041632550868497e+00 -2.8315407175906325e-02 -5.3705295184787960e-01 +5.4580247226249518e-03
5.2999999999999998e+00 +8.1522020734228100e+00 +0.0000000000000000e+00 +5.3042433146934496e+00 -2.8315266562138428e-02 -5.3705249865602911e-01 +5.4579546220298765e-03
5.4000000000000004e+00 +8.1521716789247893e+00 +0.0000000000000000e+00 +5.4043233741291203e+00 -2.8315126715472427e-02 -5.3705204127496875e-01 +5.4578814961155136e-03
5.5000000000000000e+00 +8.1521407163090807e+00 +0.0000000000000000e+00 +5.5044034333906504e+00 -2.8314987135909950e-02 -5.3705158012823817e-01 +5.4578054715690013e-03
5.5999999999999996e+00 +8.1521091855684098e+00 +0.0000000000000000e+00 +5.6044834924747899e+00 -2.8314847323426848e-02 -5.3705111563946861e-01 +5.4577266750875202e-03
5.7000000000000002e+00 +8.1520770867064094e+00 +0.0000000000000000e+00 +5.7045635513783299e+00 -2.8314706777963331e-02 -5.3705064823222182e-01 +5.4576452333770006e-03
5.7999999999999998e+00 +8.1520444197231008e+00 +0.0000000000000000e+00 +5.8046436100980499e+00 -2.8314564999428284e-02 -5.3705017833009805e-01 +5.4575612731535784e-03
5.9000000000000004e+00 +8.1520111846184609e+00 +0.0000000000000000e+00 +5.9047236686307096e+00 -2.8314421487696577e-02 -5.3704970635671168e-01 +5.4574749211436938e-03
5.9999999999999902e+00 +8.1519773813925003e+00 +0.0000000000000000e+00 +6.0048037269731003e+00 -2.8314275742627529e-02 -5.3704923273569316e-01 +5.4573863040827484e-03
6.0999999999999899e+00 +8.1519430100452208e+00 +0.0000000000000000e+00 +6.1048837851219799e+00 -2.8314127470965629e-02 -5.3704875792942997e-01 +5.4572955310482826e-03
6.1999999999999904e+00 +8.1519080705766100e+00 +0.0000000000000000e+00 +6.2049638430741396e+00 -2.8313977096376612e-02 -5.3704828253456538e-01 +5.4572026499040346e-03
6.2999999999999901e+00 +8.1518725629866804e+00 +0.0000000000000000e+00 +6.3050439008263499e+00 -2.8313825197702251e-02 -5.3704780717682732e-01 +5.4571076952594196e-03
6.3999999999999897e+00 +8.1518364872754301e+00 +0.0000000000000000e+00 +6.4051239583753699e+00 -2.8313672353796202e-02 -5.3704733248197811e-01 +5.4570107017176883e-03
6.4999999999999902e+00 +8.1517998434428591e+00 +0.0000000000000000e+00 +6.5052040157180002e+00 -2.8313519143524559e-02 -5.3704685907581540e-01 +5.4569117038755716e-03
6.5999999999999899e+00 +8.1517626314889604e+00 +0.0000000000000000e+00 +6.6052840728510001e+00 -2.8313366145766582e-02 -5.3704638758417333e-01 +5.4568107363229526e-03
6.6999999999999904e+00 +8.1517248514137499e+00 +0.0000000000000000e+00 +6.7053641297711399e+00 -2.8313213939415362e-02 -5.3704591863292539e-01 +5.4567078336425195e-03
6.7999999999999901e+00 +8.1516865032135701e+00 +0.0000000000000000e+00 +6.8054441864752100e+00 -2.8313063103379926e-02 -5.3704545284801075e-01 +5.4566030304097103e-03
6.8999999999999897e+00 +8.1516475868957095e+00 +0.0000000000000000e+00 +6.9055242429599701e+00 -2.8312914216580127e-02 -5.3704499085532920e-01 +5.4564963611912470e-03
6.9999999999999902e+00 +8.1516081024565192e+00 +0.0000000000000000e+00 +7.0056042992222096e+00 -2.8312767857956007e-02 -5.3704453328090285e-01 +5.4563878605464839e-03
7.0999999999999899e+00 +8.1515680498960101e+00 +0.0000000000000000e+00 +7.1056843552586999e+00 -2.8312624606462642e-02 -5.3704408075077181e-01 +5.4562775630259417e-03
7.1999999999999904e+00 +8.1515274292141804e+00 +0.0000000000000000e+00 +7.2057644110662000e+00 -2.8312485041072293e-02 -5.3704363389101994e-01 +5.4561655031712397e-03
7.2999999999999901e+00 +8.1514862404073902e+00 +0.0000000000000000e+00 +7.3058444666415099e+00 -2.8312349740776493e-02 -5.3704319332780481e-01 +5.4560517155150543e-03
7.3999999999999897e+00 +8.1514444834829192e+00 +0.0000000000000000e+00 +7.4059245219813796e+00 -2.8312219284580973e-02 -5.3704275968725079e-01 +5.4559362345796454e-03
7.4999999999999902e+00 +8.1514021584334806e+00 +0.0000000000000000e+00 +7.5060045770826100e+00 -2.8312094251516411e-02 -5.3704233359563947e-01 +5.4558190948784772e-03
7.5999999999999899e+00 +8.1513592652663593e+00 +0.0000000000000000e+00 +7.6060846319419504e+00 -2.8311975220627551e-02 -5.3704191567919446e-01 +5.4557003309136541e-03
7.6999999999999904e+00 +8.1513158039779192e+00 +0.0000000000000000e+00 +7.7061646865561997e+00 -2.8311862770983933e-02 -5.3704150656427174e-01 +5.4555799771775094e-03
7.7999999999999901e+00 +8.1512717745681602e+00 +0.0000000000000000e+00 +7.8062447409221098e+00 -2.8311757481674912e-02 -5.3704110687725404e-01 +5.4554580681511755e-03
7.8999999999999897e+00 +8.1512271770334301e+00 +0.0000000000000000e+00 +7.9063247950364799e+00 -2.8311659931813029e-02 -5.3704071724460456e-01 +5.4553346383047849e-03
7.9999999999999902e+00 +8.1511820113773901e+00 +0.0000000000000000e+00 +8.0064048488960609e+00 -2.8311570700454734e-02 -5.3704033829276709e-01 +5.4552097220957980e-03
8.0999999999999908e+00 +8.1511362776036496e+00 +0.0000000000000000e+00 +8.1064849024976393e+00 -2.8311490018768298e-02 -5.3703997054806807e-01 +5.4550833516460746e-03
8.1999999999999904e+00 +8.1510899757086008e+00 +0.0000000000000000e+00 +8.2065649558379903e+00 -2.8311416968482519e-02 -5.3703961420593227e-01 +5.4549555513916260e-03
8.2999999999999901e+00 +8.1510431056885899e+00 +0.0000000000000000e+00 +8.3066450089139003e+00 -2.8311350394282123e-02 -5.3703926939346502e-01 +5.4548263441802827e-03
8.3999999999999897e+00 +8.1509956675508892e+00 +0.0000000000000000e+00 +8.4067250617221205e+00 -2.8311289140862245e-02 -5.3703893623761823e-01 +5.4546957528546075e-03
8.4999999999999893e+00 +8.1509476612882299e+00 +0.0000000000000000e+00 +8.5068051142594392e+00 -2.8311232052938846e-02 -5.3703861486537463e-01 +5.4545638002537391e-03
8.5999999999999908e+00 +8.1508990869078808e+00 +0.0000000000000000e+00 +8.6068851665226305e+00 -2.8311177975237602e-02 -5.3703830540353104e-01 +5.4544305092110845e-03
8.6999999999999904e+00 +8.1508499444025801e+00 +0.0000000000000000e+00 +8.7069652185084596e+00 -2.8311125752505769e-02 -5.3703800797890999e-01 +5.4542959025564572e-03
8.7999999999999794e+00 +8.1508002337759500e+00 +0.0000000000000000e+00 +8.8070452702137203e+00 -2.8311074229502502e-02 -5.3703772271816996e-01 +5.4541600031140312e-03
8.8999999999999808e+00 +8.1507499550316407e+00 +0.0000000000000000e+00 +8.9071253216351796e+00 -2.8311022251003549e-02 -5.3703744974788215e-01 +5.4540228337030972e-03
8.9999999999999805e+00 +8.1506991081623692e+00 +0.0000000000000000e+00 +9.0072053727696098e+00 -2.8310968661805925e-02 -5.3703718919460985e-01 +5.4538844171388035e-03
9.0999999999999801e+00 +8.1506476931717806e+00 +0.0000000000000000e+00 +9.1072854236137797e+00 -2.8310912306719713e-02 -5.3703694118474277e-01 +5.4537447762303855e-03
9.1999999999999797e+00 +8.1505957100635005e+00 +0.0000000000000000e+00 +9.2073654741644795e+00 -2.8310852030572650e-02 -5.3703670584457752e-01 +5.4536039337819307e-03
9.2999999999999794e+00 +8.1505431588302599e+00 +0.0000000000000000e+00 +9.3074455244184708e+00 -2.8310786678214961e-02 -5.3703648330039300e-01 +5.4534619125931076e-03
9.3999999999999808e+00 +8.1504900394757005e+00 +0.0000000000000000e+00 +9.4075255743725297e+00 -2.8310715094510979e-02 -5.3703627367828821e-01 +5.4533187354574046e-03
9.4999999999999805e+00 +8.1504363520034495e+00 +0.0000000000000000e+00 +9.5076056240234408e+00 -2.8310636124343962e-02 -5.3703607710426027e-01 +5.4531744251628995e-03
9.5999999999999801e+00 +8.1503820964062506e+00 +0.0000000000000000e+00 +9.6076856733679694e+00 -2.8310548612620699e-02 -5.3703589370428118e-01 +5.4530290044929658e-03
9.6999999999999797e+00 +8.1503272726913600e+00 +0.0000000000000000e+00 +9.7077657224029004e+00 -2.8310451404261840e-02 -5.3703572360410823e-01 +5.4528824962242683e-03
9.7999999999999794e+00 +8.1502718808515109e+00 +0.0000000000000000e+00 +9.8078457711250007e+00 -2.8310343344213854e-02 -5.3703556692949561e-01 +5.4527349231288874e-03
9.8999999999999808e+00 +8.1502159208903304e+00 +0.0000000000000000e+00 +9.9079258195310498e+00 -2.8310223277439255e-02 -5.3703542380600444e-01 +5.4525863079722637e-03
9.9999999999999805e+00 +8.1501593928078400e+00 +0.0000000000000000e+00 +1.0008005867617801e+01 -2.8310090049120714e-02 -5.3703529435912600e-01 +5.4524366735150369e-03
1.0100000000000000e+01 +8.1501022966040200e+00 +0.0000000000000000e+00 +1.0108085915382100e+01 -2.8309942990749206e-02 -5.3703517876124052e-01 +5.4522860444343397e-03
1.0199999999999999e+01 +8.1500446322825209e+00 +0.0000000000000000e+00 +1.0208165962820599e+01 -2.8309782966210305e-02 -5.3703507733279010e-01 +5.4521344514679299e-03
1.0300000000000001e+01 +8.1499863998360507e+00 +0.0000000000000000e+00 +1.0308246009930199e+01 -2.8309611140432313e-02 -5.3703499042348846e-01 +5.4519819265609172e-03
1.0400000000000000e+01 +8.1499275992682705e+00 +0.0000000000000000e+00 +1.0408326056707599e+01 -2.8309428678274053e-02 -5.3703491838306827e-01 +5.4518285016757475e-03
1.0500000000000000e+01 +8.1498682305791608e+00 +0.0000000000000000e+00 +1.0508406103149600e+01 -2.8309236744528978e-02 -5.3703486156139513e-01 +5.4516742087938061e-03
1.0600000000000000e+01 +8.1498082937723701e+00 +0.0000000000000000e+00 +1.0608486149253000e+01 -2.8309036503920526e-02 -5.3703482030841387e-01 +5.4515190799153540e-03
1.0699999999999999e+01 +8.1497477888406102e+00 +0.0000000000000000e+00 +1.0708566195014500e+01 -2.8308829121106157e-02 -5.3703479497425877e-01 +5.4513631470611288e-03
1.0800000000000001e+01 +8.1496867157875403e+00 +0.0000000000000000e+00 +1.0808646240430900e+01 -2.8308615760667035e-02 -5.3703478590909715e-01 +5.4512064422711660e-03
1.0900000000000000e+01 +8.1496250746131391e+00 +0.0000000000000000e+00 +1.0908726285499000e+01 -2.8308397587112073e-02 -5.3703479346323757e-01 +5.4510489976064115e-03
1.1000000000000000e+01 +8.1495628653174208e+00 +0.0000000000000000e+00 +1.1008806330215601e+01 -2.8308175764874689e-02 -5.3703481798710728e-01 +5.4508908451489221e-03
1.1100000000000000e+01 +8.1495000879040198e+00 +0.0000000000000000e+00 +1.1108886374577500e+01 -2.8307951458309739e-02 -5.3703485983122767e-01 +5.4507320170020879e-03
1.1199999999999999e+01 +8.1494367423620098e+00 +0.0000000000000000e+00 +1.1208966418581401e+01 -2.8307725831698938e-02 -5.3703491934634973e-01 +5.4505725452925003e-03
1.1300000000000001e+01 +8.1493728287059604e+00 +0.0000000000000000e+00 +1.1309046462224000e+01 -2.8307500049233342e-02 -5.3703499688316392e-01 +5.4504124621674102e-03
1.1400000000000000e+01 +8.1493083469249505e+00 +0.0000000000000000e+00 +1.1409126505502300e+01 -2.8307275275031709e-02 -5.3703509279267780e-01 +5.4502517997990808e-03
1.1500000000000000e+01 +8.1492432970226201e+00 +0.0000000000000000e+00 +1.1509206548412800e+01 -2.8307052673123032e-02 -5.3703520742592326e-01 +5.4500905903822391e-03
1.1600000000000000e+01 +8.1491776789989707e+00 +0.0000000000000000e+00 +1.1609286590952600e+01 -2.8306833407451937e-02 -5.3703534113409324e-01 +5.4499288661359491e-03
1.1699999999999999e+01 +8.1491114928576298e+00 +0.0000000000000000e+00 +1.1709366633118099e+01 -2.8306618641874112e-02 -5.3703549426849218e-01 +5.4497666593035596e-03
1.1800000000000001e+01 +8.1490447385876905e+00 +0.0000000000000000e+00 +1.1809446674906400e+01 -2.8306409540161774e-02 -5.3703566718067108e-01 +5.4496040021545598e-03
