# field on trajectory
# s[mm] rx[mm] ry[mm] rz[mm] bx[T] by[T] bz[T]
0.0000000000000000e+00 +8.1649999999999991e+00 +0.0000000000000000e+00 +0.0000000000000000e+00 -2.8270959092210782e-02 -5.3695078147143482e-01 +5.4469943743328756e-03
1.0000000000000001e-01 +8.1649997168578583e+00 +0.0000000000000000e+00 +9.9999999999465558e-02 -2.8270795849793938e-02 -5.3695033100652445e-01 +5.4471413599464337e-03
2.0000000000000001e-01 +8.1649988674317502e+00 +0.0000000000000000e+00 +1.9999999999572432e-01 -2.8270637497883180e-02 -5.3694988710431402e-01 +5.4472844339556936e-03
3.0000000000000004e-01 +8.1649974517221438e+00 +0.0000000000000000e+00 +2.9999999998556953e-01 -2.8270483840170994e-02 -5.3694945053967813e-01 +5.4474235100521722e-03
4.0000000000000002e-01 +8.1649954697294991e+00 +0.0000000000000000e+00 +3.9999999996579444e-01 -2.8270334680350388e-02 -5.3694902208748907e-01 +5.4475585019280251e-03
5.0000000000000000e-01 +8.1649929214542674e+00 +0.0000000000000000e+00 +4.9999999993319227e-01 -2.8270189822114534e-02 -5.3694860252261578e-01 +5.4476893232760252e-03
5.9999999999999998e-01 +8.1649898068968909e+00 +0.0000000000000000e+00 +5.9999999988455632e-01 -2.8270049069156523e-02 -5.3694819261992499e-01 +5.4478158877895614e-03
6.9999999999999996e-01 +8.1649861260578032e+00 +0.0000000000000000e+00 +6.9999999981667982e-01 -2.8269912225168958e-02 -5.3694779315427843e-01 +5.4479381091625994e-03
7.9999999999999993e-01 +8.1649818789374251e+00 +0.0000000000000000e+00 +7.9999999972635605e-01 -2.8269779093843650e-02 -5.3694740490053117e-01 +5.4480559010896632e-03
8.9999999999999991e-01 +8.1649770655361653e+00 +0.0000000000000000e+00 +8.9999999961037824e-01 -2.8269649478871291e-02 -5.3694702863353327e-01 +5.4481691772658375e-03
9.9999999999999989e-01 +8.1649716858544217e+00 +0.0000000000000000e+00 +9.9999999946553975e-01 -2.8269523183941169e-02 -5.3694666512812628e-01 +5.4482778513867238e-03
1.0999999999999999e+00 +8.1649657398925779e+00 +0.0000000000000000e+00 +1.0999999992886338e+00 -2.8269400012740774e-02 -5.3694631515914404e-01 +5.4483818371484291e-03
1.2000000000000000e+00 +8.1649592276510035e+00 +0.0000000000000000e+00 +1.1999999990764536e+00 -2.8269279768955494e-02 -5.3694597950141065e-01 +5.4484810482475551e-03
1.3000000000000000e+00 +8.1649521491300519e+00 +0.0000000000000000e+00 +1.2999999988257926e+00 -2.8269162256268306e-02 -5.3694565892973978e-01 +5.4485753983811594e-03
1.4000000000000001e+00 +8.1649445043300606e+00 +0.0000000000000000e+00 +1.3999999985334441e+00 -2.8269047278359431e-02 -5.3694535421893408e-01 +5.4486648012467597e-03
1.5000000000000002e+00 +8.1649362932513530e+00 +0.0000000000000000e+00 +1.4999999981962016e+00 -2.8268934638906024e-02 -5.3694506614378346e-01 +5.4487491705422957e-03
1.6000000000000003e+00 +8.1649275158942309e+00 +0.0000000000000000e+00 +1.5999999978108579e+00 -2.8268824141581824e-02 -5.3694479547906482e-01 +5.4488284199661194e-03
1.7000000000000004e+00 +8.1649181722589823e+00 +0.0000000000000000e+00 +1.6999999973742066e+00 -2.8268715590056840e-02 -5.3694454299954120e-01 +5.4489024632169702e-03
1.8000000000000005e+00 +8.1649082623458717e+00 +0.0000000000000000e+00 +1.7999999968830411e+00 -2.8268608787997012e-02 -5.3694430947995986e-01 +5.4489712139939601e-03
1.9000000000000006e+00 +8.1648977861551462e+00 +0.0000000000000000e+00 +1.8999999963341547e+00 -2.8268503539063902e-02 -5.3694409569505197e-01 +5.4490345859965527e-03
2.0000000000000004e+00 +8.1648867436870329e+00 +0.0000000000000000e+00 +1.9999999957243406e+00 -2.8268399646914397e-02 -5.3694390241953205e-01 +5.4490924929245441e-03
2.1000000000000005e+00 +8.1648751349417346e+00 +0.0000000000000000e+00 +2.0999999950503923e+00 -2.8268297040723263e-02 -5.3694372999469198e-01 +5.4491448899184041e-03
2.2000000000000006e+00 +8.1648629599194340e+00 +0.0000000000000000e+00 +2.1999999943091026e+00 -2.8268196151752221e-02 -5.3694357702818829e-01 +5.4491918978802388e-03
2.3000000000000007e+00 +8.1648502186202929e+00 +0.0000000000000000e+00 +2.2999999934972655e+00 -2.8268097536780955e-02 -5.3694344169426311e-01 +5.4492336791523424e-03
2.4000000000000008e+00 +8.1648369110444534e+00 +0.0000000000000000e+00 +2.3999999926116740e+00 -2.8268001752584017e-02 -5.3694332216714979e-01 +5.4492703960767035e-03
2.5000000000000009e+00 +8.1648230371920434e+00 +0.0000000000000000e+00 +2.4999999916491213e+00 -2.8267909355930532e-02 -5.3694321662107203e-01 +5.4493022109949364e-03
2.6000000000000010e+00 +8.1648085970631747e+00 +0.0000000000000000e+00 +2.5999999906064013e+00 -2.8267820903583953e-02 -5.3694312323024529e-01 +5.4493292862481989e-03
2.7000000000000011e+00 +8.1647935906579470e+00 +0.0000000000000000e+00 +2.6999999894803066e+00 -2.8267736952301822e-02 -5.3694304016887551e-01 +5.4493517841771267e-03
2.8000000000000012e+00 +8.1647780179764471e+00 +0.0000000000000000e+00 +2.7999999882676310e+00 -2.8267658058835535e-02 -5.3694296561116162e-01 +5.4493698671217458e-03
2.9000000000000012e+00 +8.1647618790187568e+00 +0.0000000000000000e+00 +2.8999999869651676e+00 -2.8267584779930077e-02 -5.3694289773129322e-01 +5.4493836974214092e-03
3.0000000000000013e+00 +8.1647451737849455e+00 +0.0000000000000000e+00 +2.9999999855697097e+00 -2.8267517672323828e-02 -5.3694283470345217e-01 +5.4493934374147159e-03
3.1000000000000014e+00 +8.1647279022750823e+00 +0.0000000000000000e+00 +3.0999999840780510e+00 -2.8267457292748235e-02 -5.3694277470181284e-01 +5.4493992494394315e-03
3.2000000000000015e+00 +8.1647100644892294e+00 +0.0000000000000000e+00 +3.1999999824869843e+00 -2.8267404197927632e-02 -5.3694271590054199e-01 +5.4494012958324267e-03
3.3000000000000016e+00 +8.1646916604274509e+00 +0.0000000000000000e+00 +3.2999999807933031e+00 -2.8267358944578984e-02 -5.3694265647379846e-01 +5.4493997389295831e-03
3.4000000000000017e+00 +8.1646726900898106e+00 +0.0000000000000000e+00 +3.3999999789938009e+00 -2.8267322089411615e-02 -5.3694259459573412e-01 +5.4493947410657355e-03
3.5000000000000018e+00 +8.1646531534763742e+00 +0.0000000000000000e+00 +3.4999999770852708e+00 -2.8267294189127001e-02 -5.3694252844049439e-01 +5.4493864645745850e-03
3.6000000000000019e+00 +8.1646330505872111e+00 +0.0000000000000000e+00 +3.5999999750645064e+00 -2.8267275800418486e-02 -5.3694245618221714e-01 +5.4493750717886343e-03
3.7000000000000020e+00 +8.1646123814223994e+00 +0.0000000000000000e+00 +3.6999999729283011e+00 -2.8267267479971051e-02 -5.3694237599503380e-01 +5.4493607250391003e-03
3.8000000000000020e+00 +8.1645911459820244e+00 +0.0000000000000000e+00 +3.7999999706734480e+00 -2.8267269784461087e-02 -5.3694228605306971e-01 +5.4493435866558512e-03
3.9000000000000021e+00 +8.1645693442661820e+00 +0.0000000000000000e+00 +3.8999999682967403e+00 -2.8267283270556113e-02 -5.3694218453044373e-01 +5.4493238189673191e-03
4.0000000000000018e+00 +8.1645469762749787e+00 +0.0000000000000000e+00 +3.9999999657949714e+00 -2.8267308494914534e-02 -5.3694206960126878e-01 +5.4493015843004363e-03
4.1000000000000014e+00 +8.1645240420085390e+00 +0.0000000000000000e+00 +4.0999999631649349e+00 -2.8267345712875511e-02 -5.3694193991725769e-01 +5.4492769969612430e-03
4.2000000000000011e+00 +8.1645005414669978e+00 +0.0000000000000000e+00 +4.1999999604034244e+00 -2.8267393974535388e-02 -5.3694179604055003e-01 +5.4492499791763691e-03
4.3000000000000007e+00 +8.1644764746505096e+00 +0.0000000000000000e+00 +4.2999999575072323e+00 -2.8267452028692051e-02 -5.3694163901091307e-01 +5.4492204051503962e-03
4.4000000000000004e+00 +8.1644518415592398e+00 +0.0000000000000000e+00 +4.3999999544731523e+00 -2.8267518624158473e-02 -5.3694146986813751e-01 +5.4491881490850566e-03
4.5000000000000000e+00 +8.1644266421933676e+00 +0.0000000000000000e+00 +4.4999999512979780e+00 -2.8267592509763878e-02 -5.3694128965204180e-01 +5.4491530851790990e-03
4.5999999999999996e+00 +8.1644008765530831e+00 +0.0000000000000000e+00 +4.5999999479785032e+00 -2.8267672434354893e-02 -5.3694109940247159e-01 +5.4491150876281574e-03
4.6999999999999993e+00 +8.1643745446385889e+00 +0.0000000000000000e+00 +4.6999999445115206e+00 -2.8267757146796739e-02 -5.3694090015930296e-01 +5.4490740306246122e-03
4.7999999999999989e+00 +8.1643476464500946e+00 +0.0000000000000000e+00 +4.7999999408938239e+00 -2.8267845395974326e-02 -5.3694069296244407e-01 +5.4490297883574672e-03
4.8999999999999986e+00 +8.1643201819878204e+00 +0.0000000000000000e+00 +4.8999999371222067e+00 -2.8267935930793461e-02 -5.3694047885183749e-01 +5.4489822350122135e-03
4.9999999999999982e+00 +8.1642921512519919e+00 +0.0000000000000000e+00 +4.9999999331934619e+00 -2.8268027500181991e-02 -5.3694025886746066e-01 +5.4489312447706852e-03
5.0999999999999979e+00 +8.1642635542428419e+00 +0.0000000000000000e+00 +5.0999999291043832e+00 -2.8268118853090957e-02 -5.3694003404932933e-01 +5.4488766918109454e-03
5.1999999999999975e+00 +8.1642343909606101e+00 +0.0000000000000000e+00 +5.1999999248517641e+00 -2.8268208738495740e-02 -5.3693980543749797e-01 +5.4488184503071312e-03
5.2999999999999972e+00 +8.1642046614055364e+00 +0.0000000000000000e+00 +5.2999999204323984e+00 -2.8268295905397239e-02 -5.3693957407206305e-01 +5.4487563944293398e-03
5.3999999999999968e+00 +8.1641743655778676e+00 +0.0000000000000000e+00 +5.3999999158430789e+00 -2.8268379102823059e-02 -5.3693934099316420e-01 +5.4486903983434884e-03
5.4999999999999964e+00 +8.1641435034778489e+00 +0.0000000000000000e+00 +5.4999999110805993e+00 -2.8268457079828616e-02 -5.3693910724098637e-01 +5.4486203362111765e-03
5.5999999999999961e+00 +8.1641120751057290e+00 +0.0000000000000000e+00 +5.5999999061417522e+00 -2.8268528585498314e-02 -5.3693887385576089e-01 +5.4485460821895575e-03
5.6999999999999957e+00 +8.1640800804617530e+00 +0.0000000000000000e+00 +5.6999999010233324e+00 -2.8268592368946716e-02 -5.3693864187776863e-01 +5.4484675104312088e-03
5.7999999999999954e+00 +8.1640475195461679e+00 +0.0000000000000000e+00 +5.7999998957221326e+00 -2.8268647179319716e-02 -5.3693841234734052e-01 +5.4483844950839839e-03
5.8999999999999950e+00 +8.1640143923592170e+00 +0.0000000000000000e+00 +5.8999998902349464e+00 -2.8268691765795651e-02 -5.3693818630486045e-01 +5.4482969102909026e-03
5.9999999999999947e+00 +8.1639806989011383e+00 +0.0000000000000000e+00 +5.9999998845585667e+00 -2.8268724877586568e-02 -5.3693796479076672e-01 +5.4482046301899964e-03
6.0999999999999943e+00 +8.1639464391721681e+00 +0.0000000000000000e+00 +6.0999998786897880e+00 -2.8268745515558739e-02 -5.3693774876210487e-01 +5.4481075719120366e-03
6.1999999999999940e+00 +8.1639116131725338e+00 +0.0000000000000000e+00 +6.1999998726254031e+00 -2.8268753687080286e-02 -5.3693753884216522e-01 +5.4480058245785588e-03
6.2999999999999936e+00 +8.1638762209024591e+00 +0.0000000000000000e+00 +6.2999998663622057e+00 -2.8268749651133820e-02 -5.3693733557080137e-01 +5.4478995203150974e-03
6.3999999999999932e+00 +8.1638402623621591e+00 +0.0000000000000000e+00 +6.3999998598969885e+00 -2.8268733666690686e-02 -5.3693713948787503e-01 +5.4477887912543436e-03
6.4999999999999929e+00 +8.1638037375518415e+00 +0.0000000000000000e+00 +6.4999998532265462e+00 -2.8268705992710180e-02 -5.3693695113325668e-01 +5.4476737695365362e-03
6.5999999999999925e+00 +8.1637666464717054e+00 +0.0000000000000000e+00 +6.5999998463476715e+00 -2.8268666888138783e-02 -5.3693677104682425e-01 +5.4475545873097810e-03
6.6999999999999922e+00 +8.1637289891219424e+00 +0.0000000000000000e+00 +6.6999998392571580e+00 -2.8268616611909519e-02 -5.3693659976846431e-01 +5.4474313767304307e-03
6.7999999999999918e+00 +8.1636907655027340e+00 +0.0000000000000000e+00 +6.7999998319517987e+00 -2.8268555422941023e-02 -5.3693643783807088e-01 +5.4473042699634301e-03
6.8999999999999915e+00 +8.1636519756142523e+00 +0.0000000000000000e+00 +6.8999998244283880e+00 -2.8268483580136991e-02 -5.3693628579554509e-01 +5.4471733991826683e-03
6.9999999999999911e+00 +8.1636126194566589e+00 +0.0000000000000000e+00 +6.9999998166837187e+00 -2.8268401342385282e-02 -5.3693614418079594e-01 +5.4470388965713375e-03
7.0999999999999908e+00 +8.1635726970301050e+00 +0.0000000000000000e+00 +7.0999998087145837e+00 -2.8268308968557275e-02 -5.3693601353373999e-01 +5.4469008943222987e-03
7.1999999999999904e+00 +8.1635322083347290e+00 +0.0000000000000000e+00 +7.1999998005177774e+00 -2.8268206717507016e-02 -5.3693589439429901e-01 +5.4467595246384080e-03
7.2999999999999901e+00 +8.1634911533706589e+00 +0.0000000000000000e+00 +7.2999997920900928e+00 -2.8268094848070559e-02 -5.3693578730240354e-01 +5.4466149197329060e-03
7.3999999999999897e+00 +8.1634495321380065e+00 +0.0000000000000000e+00 +7.3999997834283233e+00 -2.8267973619065186e-02 -5.3693569279798925e-01 +5.4464672118297447e-03
7.4999999999999893e+00 +8.1634073446368749e+00 +0.0000000000000000e+00 +7.4999997745292628e+00 -2.8267843289288642e-02 -5.3693561142099921e-01 +5.4463165331639614e-03
7.5999999999999890e+00 +8.1633645908673511e+00 +0.0000000000000000e+00 +7.5999997653897049e+00 -2.8267704117518409e-02 -5.3693554371138186e-01 +5.4461630159820251e-03
7.6999999999999886e+00 +8.1633212708295062e+00 +0.0000000000000000e+00 +7.6999997560064424e+00 -2.8267556362510944e-02 -5.3693549020909170e-01 +5.4460067925421940e-03
7.7999999999999883e+00 +8.1632773845234006e+00 +0.0000000000000000e+00 +7.7999997463762689e+00 -2.8267400283000937e-02 -5.3693545145408927e-01 +5.4458479951148657e-03
7.8999999999999879e+00 +8.1632329319490733e+00 +0.0000000000000000e+00 +7.8999997364959782e+00 -2.8267236137700578e-02 -5.3693542798634120e-01 +5.4456867559829489e-03
7.9999999999999876e+00 +8.1631879131065528e+00 +0.0000000000000000e+00 +7.9999997263623630e+00 -2.8267064185298754e-02 -5.3693542034581798e-01 +5.4455232074421900e-03
8.0999999999999872e+00 +8.1631423279958479e+00 +0.0000000000000000e+00 +8.0999997159722170e+00 -2.8266884790371444e-02 -5.3693542876667844e-01 +5.4453574685041336e-03
8.1999999999999869e+00 +8.1630961766169516e+00 +0.0000000000000000e+00 +8.1999997053223339e+00 -2.8266698741128044e-02 -5.3693545225978767e-01 +5.4451896049978691e-03
8.2999999999999865e+00 +8.1630494589698408e+00 +0.0000000000000000e+00 +8.2999996944095074e+00 -2.8266506931694361e-02 -5.3693548953015369e-01 +5.4450196694523821e-03
8.3999999999999861e+00 +8.1630021750544763e+00 +0.0000000000000000e+00 +8.3999996832305293e+00 -2.8266310256202541e-02 -5.3693553928274462e-01 +5.4448477143925495e-03
8.4999999999999858e+00 +8.1629543248708085e+00 +0.0000000000000000e+00 +8.4999996717821951e+00 -2.8266109608791262e-02 -5.3693560022248688e-01 +5.4446737923389658e-03
8.5999999999999854e+00 +8.1629059084187752e+00 +0.0000000000000000e+00 +8.5999996600612967e+00 -2.8265905883605984e-02 -5.3693567105426576e-01 +5.4444979558077606e-03
8.6999999999999851e+00 +8.1628569256983017e+00 +0.0000000000000000e+00 +8.6999996480646278e+00 -2.8265699974799073e-02 -5.3693575048292097e-01 +5.4443202573104029e-03
8.7999999999999847e+00 +8.1628073767093081e+00 +0.0000000000000000e+00 +8.7999996357889820e+00 -2.8265492776530086e-02 -5.3693583721324822e-01 +5.4441407493535272e-03
8.8999999999999844e+00 +8.1627572614517039e+00 +0.0000000000000000e+00 +8.8999996232311531e+00 -2.8265285182965876e-02 -5.3693592994999495e-01 +5.4439594844387339e-03
8.9999999999999840e+00 +8.1627065799253913e+00 +0.0000000000000000e+00 +8.9999996103879329e+00 -2.8265078088280857e-02 -5.3693602739786073e-01 +5.4437765150624137e-03
9.0999999999999837e+00 +8.1626553321302708e+00 +0.0000000000000000e+00 +9.0999995972561152e+00 -2.8264872386657196e-02 -5.3693612826149495e-01 +5.4435918937155575e-03
9.1999999999999833e+00 +8.1626035180662377e+00 +0.0000000000000000e+00 +9.1999995838324953e+00 -2.8264668972284950e-02 -5.3693623124549539e-01 +5.4434056728835745e-03
9.2999999999999829e+00 +8.1625511377331854e+00 +0.0000000000000000e+00 +9.2999995701138651e+00 -2.8264468739362329e-02 -5.3693633505440708e-01 +5.4432179050461103e-03
9.3999999999999826e+00 +8.1624981911310055e+00 +0.0000000000000000e+00 +9.3999995560970167e+00 -2.8264272582095861e-02 -5.3693643839271976e-01 +5.4430286426768396e-03
9.4999999999999822e+00 +8.1624446782595914e+00 +0.0000000000000000e+00 +9.4999995417787453e+00 -2.8264081394700588e-02 -5.3693653996486879e-01 +5.4428379382433136e-03
9.5999999999999819e+00 +8.1623905991188384e+00 +0.0000000000000000e+00 +9.5999995271558429e+00 -2.8263896071400247e-02 -5.3693663847523032e-01 +5.4426458442067465e-03
9.6999999999999815e+00 +8.1623359537086433e+00 +0.0000000000000000e+00 +9.6999995122251033e+00 -2.8263717506427491e-02 -5.3693673262812314e-01 +5.4424524130218463e-03
9.7999999999999812e+00 +8.1622807420289085e+00 +0.0000000000000000e+00 +9.7999994969833200e+00 -2.8263546594024028e-02 -5.3693682112780383e-01 +5.4422576971366174e-03
9.8999999999999808e+00 +8.1622249640795435e+00 +0.0000000000000000e+00 +9.8999994814272867e+00 -2.8263384228440883e-02 -5.3693690267846861e-01 +5.4420617489921832e-03
9.9999999999999805e+00 +8.1621686198604628e+00 +0.0000000000000000e+00 +9.9999994655537972e+00 -2.8263231303938523e-02 -5.3693697598424894e-01 +5.4418646210226051e-03
1.0099999999999980e+01 +8.1621117093715920e+00 +0.0000000000000000e+00 +1.0099999449359643e+01 -2.8263088529809580e-02 -5.3693704027717837e-01 +5.4416663638075782e-03
1.0199999999999980e+01 +8.1620542326128653e+00 +0.0000000000000000e+00 +1.0199999432841619e+01 -2.8262955875424066e-02 -5.3693709690114844e-01 +5.4414670205302088e-03
1.0299999999999979e+01 +8.1619961895842241e+00 +0.0000000000000000e+00 +1.0299999415996517e+01 -2.8262833125148865e-02 -5.3693714772804058e-01 +5.4412666325170380e-03
1.0399999999999979e+01 +8.1619375802856169e+00 +0.0000000000000000e+00 +1.0399999398821132e+01 -2.8262720063327997e-02 -5.3693719462975120e-01 +5.4410652410848276e-03
1.0499999999999979e+01 +8.1618784047169957e+00 +0.0000000000000000e+00 +1.0499999381312257e+01 -2.8262616474281986e-02 -5.3693723947819161e-01 +5.4408628875403020e-03
1.0599999999999978e+01 +8.1618186628783160e+00 +0.0000000000000000e+00 +1.0599999363466685e+01 -2.8262522142307317e-02 -5.3693728414528819e-01 +5.4406596131799448e-03
1.0699999999999978e+01 +8.1617583547695318e+00 +0.0000000000000000e+00 +1.0699999345281210e+01 -2.8262436851675902e-02 -5.3693733050298420e-01 +5.4404554592897515e-03
1.0799999999999978e+01 +8.1616974803905951e+00 +0.0000000000000000e+00 +1.0799999326752625e+01 -2.8262360386634416e-02 -5.3693738042323869e-01 +5.4402504671449935e-03
1.0899999999999977e+01 +8.1616360397414560e+00 +0.0000000000000000e+00 +1.0899999307877723e+01 -2.8262292531403804e-02 -5.3693743577802810e-01 +5.4400446780099917e-03
1.0999999999999977e+01 +8.1615740328220561e+00 +0.0000000000000000e+00 +1.0999999288653298e+01 -2.8262233070178715e-02 -5.3693749843934668e-01 +5.4398381331378894e-03
1.1099999999999977e+01 +8.1615114596323330e+00 +0.0000000000000000e+00 +1.1099999269076141e+01 -2.8262181787126823e-02 -5.3693757027920641e-01 +5.4396308737704119e-03
1.1199999999999976e+01 +8.1614483201722123e+00 +0.0000000000000000e+00 +1.1199999249143049e+01 -2.8262138466388434e-02 -5.3693765316963749e-01 +5.4394229411376342e-03
1.1299999999999976e+01 +8.1613846144416087e+00 +0.0000000000000000e+00 +1.1299999228850814e+01 -2.8262102892075754e-02 -5.3693774898269042e-01 +5.4392143764577516e-03
1.1399999999999975e+01 +8.1613203424404226e+00 +0.0000000000000000e+00 +1.1399999208196228e+01 -2.8262074848272391e-02 -5.3693785959043372e-01 +5.4390052209368541e-03
1.1499999999999975e+01 +8.1612555041685386e+00 +0.0000000000000000e+00 +1.1499999187176085e+01 -2.8262054119032858e-02 -5.3693798686495697e-01 +5.4387955157686836e-03
1.1599999999999975e+01 +8.1611900996258253e+00 +0.0000000000000000e+00 +1.1599999165787178e+01 -2.8262040488381865e-02 -5.3693813267837065e-01 +5.4385853021344044e-03
1.1699999999999974e+01 +8.1611241288121317e+00 +0.0000000000000000e+00 +1.1699999144026300e+01 -2.8262033740313851e-02 -5.3693829890280498e-01 +5.4383746212023701e-03
1.1799999999999974e+01 +8.1610575917272836e+00 +0.0000000000000000e+00 +1.1799999121890245e+01 -2.8262033658792395e-02 -5.3693848741041306e-01 +5.4381635141278993e-03
