# multipoles
# s[mm] polynom_b[n=0][T/m^n] polynom_b[n=1][T/m^n] polynom_b[n=2][T/m^n] polynom_b[n=3][T/m^n] polynom_b[n=4][T/m^n] polynom_b[n=5][T/m^n] polynom_b[n=6][T/m^n] 
+0.0000000000000000e+00 -5.9484533425580155e-01 +8.1223674864560262e+00 -7.0923938443898138e-01 +2.1136554421890196e+01 +1.1573842666905310e+04 -2.4289003991535411e+05 -4.5993146145368956e+07 
-1.0000000000000001e-01 -5.9484531830812215e-01 +8.1223606775138766e+00 -7.0551384561888408e-01 +2.1101752803317300e+01 +1.1536597929941514e+04 -2.4270192175968926e+05 -4.5842211888189688e+07 
-2.0000000000000001e-01 -5.9484530349142750e-01 +8.1223536272910515e+00 -7.0153292382618826e-01 +2.1091374669180642e+01 +1.1495232989667826e+04 -2.4274823145874025e+05 -4.5675747187612586e+07 
-3.0000000000000004e-01 -5.9484529036359202e-01 +8.1223464219166495e+00 -6.9728704029111221e-01 +2.1101669898673201e+01 +1.1449513983403980e+04 -2.4300010877132433e+05 -4.5492615744788453e+07 
-4.0000000000000002e-01 -5.9484527948248711e-01 +8.1223391475268212e+00 -6.9276661761645353e-01 +2.1128888172732157e+01 +1.1399207082674482e+04 -2.4342869228742906e+05 -4.5291681438464053e+07 
-5.0000000000000000e-01 -5.9484527140598753e-01 +8.1223318902495105e+00 -6.8796207698304923e-01 +2.1169279421917075e+01 +1.1344078425940650e+04 -2.4400512204478632e+05 -4.5071807966783941e+07 
-5.9999999999999998e-01 -5.9484526669196847e-01 +8.1223247362170774e+00 -6.8286384120506893e-01 +2.1219093450748453e+01 +1.1283894192899736e+04 -2.4470053732199498e+05 -4.4831859246541791e+07 
-6.9999999999999996e-01 -5.9484526589829356e-01 +8.1223177715527370e+00 -6.7746233343247331e-01 +2.1274580334709565e+01 +1.1218420564480353e+04 -2.4548607895214143e+05 -4.4570699183892600e+07 
-7.9999999999999993e-01 -5.9484526958284867e-01 +8.1223110823845417e+00 -6.7174797532195696e-01 +2.1331990041495590e+01 +1.1147423701262784e+04 -2.4633288720257956e+05 -4.4287191607343167e+07 
-8.9999999999999991e-01 -5.9484527830349510e-01 +8.1223047548360388e+00 -6.6571119052099503e-01 +2.1387572649545941e+01 +1.1070669795213247e+04 -2.4721210288725901e+05 -4.3980200477770217e+07 
-9.9999999999999989e-01 -5.9484529261813901e-01 +8.1222988750261482e+00 -6.5934239819804563e-01 +2.1437578404915627e+01 +1.0987924960722652e+04 -2.4809486785914373e+05 -4.3648589408070423e+07 
-1.0999999999999999e+00 -5.9484531308463495e-01 +8.1222935290793359e+00 -6.5263202323391245e-01 +2.1478257408418038e+01 +1.0898955417329706e+04 -2.4895232314266221e+05 -4.3291222505785972e+07 
-1.2000000000000000e+00 -5.9484534026091151e-01 +8.1222888031107203e+00 -6.4557048171524112e-01 +2.1505860041809047e+01 +1.0803527219272382e+04 -2.4975561138365581e+05 -4.2906963100579672e+07 
-1.3000000000000000e+00 -5.9484537470484200e-01 +8.1222847832362923e+00 -6.3814819603880624e-01 +2.1516636686636851e+01 +1.0701406538305644e+04 -2.5047587525848678e+05 -4.2494675080967255e+07 
-1.4000000000000001e+00 -5.9484541697434234e-01 +8.1222815555693799e+00 -6.3035558380211887e-01 +2.1506837820097285e+01 +1.0592359459018671e+04 -2.5108425803620750e+05 -4.2053221939585656e+07 
-1.5000000000000002e+00 -5.9484546762734825e-01 +8.1222792062232951e+00 -6.2218305987062894e-01 +2.1472713938500064e+01 +1.0476152011804314e+04 -2.5155190310028775e+05 -4.1581466912862264e+07 
-1.6000000000000003e+00 -5.9484552722176220e-01 +8.1222778213055076e+00 -6.1362104270820894e-01 +2.1410515737978191e+01 +1.0352550293527149e+04 -2.5184995506021241e+05 -4.1078273560706519e+07 
-1.7000000000000004e+00 -5.9484559631554756e-01 +8.1222774869237515e+00 -6.0465994327512451e-01 +2.1316493926987029e+01 +1.0221320258820151e+04 -2.5194955861561457e+05 -4.0542504778351054e+07 
-1.8000000000000005e+00 -5.9484567546665401e-01 +8.1222782891813168e+00 -5.9529017407640727e-01 +2.1186899378323027e+01 +1.0082227890714066e+04 -2.5182185949109457e+05 -3.9973023606910229e+07 
-1.9000000000000006e+00 -5.9484576523303512e-01 +8.1222803141834348e+00 -5.8550214667869427e-01 +2.1017982919198722e+01 +9.9350391525340092e+03 -2.5143800314518731e+05 -3.9368693004671253e+07 
-2.0000000000000004e+00 -5.9484586617269386e-01 +8.1222836480258351e+00 -5.7528626629395263e-01 +2.0805995703695000e+01 +9.7795198860425571e+03 -2.5076913704939891e+05 -3.8728375365764022e+07 
-2.1000000000000005e+00 -5.9484597855368082e-01 +8.1222883501411012e+00 -5.6464597639889069e-01 +2.0548343590904725e+01 +9.6156467448814565e+03 -2.4979423061338952e+05 -3.8051823768957734e+07 
-2.2000000000000006e+00 -5.9484610148063899e-01 +8.1222943725283887e+00 -5.5363702412492521e-01 +2.0247035790790257e+01 +9.4442344136745196e+03 -2.4852352664044558e+05 -3.7342299493845269e+07 
-2.3000000000000007e+00 -5.9484623376637380e-01 +8.1223016401250394e+00 -5.4232828057451055e-01 +1.9905229164774109e+01 +9.2663060005007464e+03 -2.4697508824200652e+05 -3.6603928235292032e+07 
-2.4000000000000008e+00 -5.9484637422371833e-01 +8.1223100778660342e+00 -5.3078861233419816e-01 +1.9526080689589701e+01 +9.0828845181367888e+03 -2.4516697933158989e+05 -3.5840835210496552e+07 
-2.5000000000000009e+00 -5.9484652166548946e-01 +8.1223196106961630e+00 -5.1908688891368937e-01 +1.9112747090879477e+01 +8.8949930364514385e+03 -2.4311726244709792e+05 -3.5057145912154987e+07 
-2.6000000000000010e+00 -5.9484667490452514e-01 +8.1223301635638734e+00 -5.0729197646936564e-01 +1.8668385036552575e+01 +8.7036545526171576e+03 -2.4084399993653205e+05 -3.4256985462601490e+07 
-2.7000000000000011e+00 -5.9484683275366168e-01 +8.1223416614202719e+00 -4.9547274262255375e-01 +1.8196151153363765e+01 +8.5098920956611364e+03 -2.3836525399770009e+05 -3.3444479145004362e+07 
-2.8000000000000012e+00 -5.9484699402571917e-01 +8.1223540292285126e+00 -4.8369805543414024e-01 +1.7699201767056035e+01 +8.3147286883653087e+03 -2.3569908523297490e+05 -3.2623752172608539e+07 
-2.9000000000000012e+00 -5.9484715753351503e-01 +8.1223671919500688e+00 -4.7203678495277429e-01 +1.7180693299367469e+01 +8.1191873943645578e+03 -2.3286355493010522e+05 -3.1798929956757292e+07 
-3.0000000000000013e+00 -5.9484732208988800e-01 +8.1223810745589233e+00 -4.6055779760924759e-01 +1.6643781850660915e+01 +7.9242911998210811e+03 -2.2987672264298316e+05 -3.0974137515751895e+07 
-3.1000000000000014e+00 -5.9484748650766750e-01 +8.1223956020402071e+00 -4.4932996160072519e-01 +1.6091623254997796e+01 +7.7310631198727797e+03 -2.2675664654867639e+05 -3.0153499988106187e+07 
-3.2000000000000015e+00 -5.9484764959965652e-01 +8.1224106993772249e+00 -4.3842214814016245e-01 +1.5527373451441283e+01 +7.5405262201436390e+03 -2.2352138559183560e+05 -2.9341142730231065e+07 
-3.3000000000000016e+00 -5.9484781017869259e-01 +8.1224262915715553e+00 -4.2790322481558479e-01 +1.4954187897524074e+01 +7.3537034939537225e+03 -2.2018899607797712e+05 -2.8541190739201508e+07 
-3.4000000000000017e+00 -5.9484796705758647e-01 +8.1224423036310966e+00 -4.1784206203890933e-01 +1.4375221925189139e+01 +7.1716179787672663e+03 -2.1677753375908226e+05 -2.7757769191865936e+07 
-3.5000000000000018e+00 -5.9484811904914225e-01 +8.1224586605709135e+00 -4.0830753164617734e-01 +1.3793630715935207e+01 +6.9952927343236288e+03 -2.1330505370022918e+05 -2.6995003350031987e+07 
-3.6000000000000019e+00 -5.9484826496616805e-01 +8.1224752874226560e+00 -3.9936850470440249e-01 +1.3212569026463987e+01 +6.8257507967810479e+03 -2.0978960868016505e+05 -2.6257018333656825e+07 
-3.7000000000000020e+00 -5.9484840362145974e-01 +8.1224921092239981e+00 -3.9109385460304091e-01 +1.2635191498431810e+01 +6.6640152435517684e+03 -2.0624925100398867e+05 -2.5547939441561200e+07 
-3.8000000000000020e+00 -5.9484853382783087e-01 +8.1225090510272651e+00 -3.8355245181027342e-01 +1.2064652411896938e+01 +6.5111090830196654e+03 -2.0270203108357097e+05 -2.4871891601146251e+07 
-3.9000000000000021e+00 -5.9484865439804835e-01 +8.1225260378966500e+00 -3.7681317391832875e-01 +1.1504105772483140e+01 +6.3680554569251972e+03 -1.9916599796710029e+05 -2.4233000356943782e+07 
-4.0000000000000018e+00 -5.9484876414489563e-01 +8.1225429949093115e+00 -3.7094489535103581e-01 +1.0956705266932596e+01 +6.2358774328872132e+03 -1.9565919904972453e+05 -2.3635390856798280e+07 
-4.1000000000000014e+00 -5.9484886233329004e-01 +8.1225598381230348e+00 -3.6599155456776694e-01 +1.0425641066647508e+01 +6.1152903702356407e+03 -1.9220076924512562e+05 -2.3082070513078868e+07 
-4.2000000000000011e+00 -5.9484895003178351e-01 +8.1225764517503052e+00 -3.6189780764410379e-01 +9.9140604432801727e+00 +6.0057925108745467e+03 -1.8881311154470715e+05 -2.2571619688809674e+07 
-4.3000000000000007e+00 -5.9484902875859991e-01 +8.1225927131192091e+00 -3.5858361370254527e-01 +9.4250520446181749e+00 +5.9065815681435251e+03 -1.8551917921468383e+05 -2.2101524696598530e+07 
-4.4000000000000004e+00 -5.9484910003199287e-01 +8.1226084995449153e+00 -3.5596892910545352e-01 +8.9617047571453039e+00 +5.8168552122012279e+03 -1.8234192652980032e+05 -2.1669271654709775e+07 
-4.5000000000000000e+00 -5.9484916537012433e-01 +8.1226236883346044e+00 -3.5397372080280270e-01 +8.5271075732885357e+00 +5.7358113118469319e+03 -1.7930430801052781e+05 -2.1272347605391249e+07 
-4.5999999999999996e+00 -5.9484922629118031e-01 +8.1226381567854702e+00 -3.5251795349464726e-01 +8.1243496280813385e+00 +5.6626476989509565e+03 -1.7642927857831150e+05 -2.0908239414021429e+07 
-4.6999999999999993e+00 -5.9484928431330486e-01 +8.1226517821782043e+00 -3.5152159765606100e-01 +7.7565203769396387e+00 +5.5965623214727457e+03 -1.7373979455507998e+05 -2.0574434499693766e+07 
-4.7999999999999989e+00 -5.9484934095460684e-01 +8.1226644417836358e+00 -3.5090462674685091e-01 +7.4267094088764081e+00 +5.5367531800019851e+03 -1.7125881259793194e+05 -2.0268420505720731e+07 
-4.8999999999999986e+00 -5.9484939773315904e-01 +8.1226760128572266e+00 -3.5058702057494956e-01 +7.1380065765621090e+00 +5.4824184095616156e+03 -1.6900929036243667e+05 -1.9987685732951611e+07 
-4.9999999999999982e+00 -5.9484945616703533e-01 +8.1226863726440719e+00 -3.5048875817281056e-01 +6.8935018573051039e+00 +5.4327561306976932e+03 -1.6701418571821775e+05 -1.9729718396247752e+07 
-5.0999999999999979e+00 -5.9484951777423645e-01 +8.1226953983670960e+00 -3.5052982782391928e-01 +6.6962856808367075e+00 +5.3869646447988780e+03 -1.6529645861122946e+05 -1.9492007565629356e+07 
-5.1999999999999975e+00 -5.9484958407274680e-01 +8.1227029672374851e+00 -3.5063022012448042e-01 +6.5494486143106085e+00 +5.3442423027607720e+03 -1.6387906919167368e+05 -1.9272042541655488e+07 
-5.2999999999999972e+00 -5.9484965658051048e-01 +8.1227089564505182e+00 -3.5070993106846754e-01 +6.4560814829307196e+00 +5.3037875659908605e+03 -1.6278497852175182e+05 -1.9067313151844159e+07 
-5.3999999999999968e+00 -5.9484973681544695e-01 +8.1227132431783815e+00 -3.5068895932855570e-01 +6.4192755554916499e+00 +5.2647989485747248e+03 -1.6203714958416112e+05 -1.8875309457493987e+07 
-5.4999999999999964e+00 -5.9484982629542038e-01 +8.1227157045815108e+00 -3.5048731124578880e-01 +6.4421222233059314e+00 +5.2264751217412622e+03 -1.6165854543989876e+05 -1.8693522276966963e+07 
-5.5999999999999961e+00 -5.9484992653825919e-01 +8.1227162177952223e+00 -3.5002499772242168e-01 +6.5277133615770246e+00 +5.1880148487061033e+03 -1.6167213125042690e+05 -1.8519442857197184e+07 
-5.6999999999999957e+00 -5.9485003906176048e-01 +8.1227146599393212e+00 -3.4922203338698332e-01 +6.6791410539127005e+00 +5.1486169692744597e+03 -1.6210087268513540e+05 -1.8350562802455474e+07 
-5.7999999999999954e+00 -5.9485016538366586e-01 +8.1227109081102853e+00 -3.4799844021531329e-01 +6.8994977983519581e+00 +5.1074804711224697e+03 -1.6296773706635772e+05 -1.8184374417861093e+07 
-5.8999999999999950e+00 -5.9485030702168840e-01 +8.1227048393812780e+00 -3.4627424398498008e-01 +7.1918765179894759e+00 +5.0638044225458052e+03 -1.6429569345345171e+05 -1.8018370389772210e+07 
-5.9999999999999947e+00 -5.9485046549348142e-01 +8.1226963308059386e+00 -3.4396947824208174e-01 +7.5593703958797809e+00 +5.0167880470376376e+03 -1.6610771153697645e+05 -1.7850044136898533e+07 
-6.0999999999999943e+00 -5.9485064198809934e-01 +8.1226853197461431e+00 -3.4102404430144218e-01 +8.0031397003460025e+00 +4.9658047103780509e+03 -1.6841399922192917e+05 -1.7677297230141114e+07 
-6.1999999999999940e+00 -5.9485083640506531e-01 +8.1226719762400759e+00 -3.3745620765703621e-01 +8.5171346842666953e+00 +4.9109291137285654e+03 -1.7117666301293462e+05 -1.7499815864411876e+07 
-6.2999999999999936e+00 -5.9485104832754976e-01 +8.1226565264910793e+00 -3.3330355144402696e-01 +9.0936254856332166e+00 +4.8524116989358672e+03 -1.7434644572557270e+05 -1.7317765751251578e+07 
-6.3999999999999932e+00 -5.9485127733879672e-01 +8.1226391967120062e+00 -3.2860364882626342e-01 +9.7248820490571291e+00 +4.7905027183242291e+03 -1.7787408934446619e+05 -1.7131311737912882e+07 
-6.4999999999999929e+00 -5.9485152302207778e-01 +8.1226202131244278e+00 -3.2339406883581562e-01 +1.0403174152344098e+01 +4.7254523460276041e+03 -1.8171033527143273e+05 -1.6940618331704427e+07 
-6.5999999999999925e+00 -5.9485178496070512e-01 +8.1225998019623464e+00 -3.1771237503108657e-01 +1.1120771284415312e+01 +4.6575106571917140e+03 -1.8580592359144808e+05 -1.6745849615468184e+07 
-6.6999999999999922e+00 -5.9485206273809832e-01 +8.1225781894633613e+00 -3.1159611656127939e-01 +1.1869942947484450e+01 +4.5869274506140528e+03 -1.9011159494423482e+05 -1.6547168384060895e+07 
-6.7999999999999918e+00 -5.9485235593765018e-01 +8.1225556018836098e+00 -3.0508284494526366e-01 +1.2642958194476119e+01 +4.5139525722285416e+03 -1.9457808778402011e+05 -1.6344737699333454e+07 
-6.8999999999999915e+00 -5.9485266414287008e-01 +8.1225322654802969e+00 -2.9821009635625195e-01 +1.3432086157317499e+01 +4.4388355761905304e+03 -1.9915614149528104e+05 -1.6138719270754879e+07 
-6.9999999999999911e+00 -5.9485298693730693e-01 +8.1225084065317112e+00 -2.9101540133506215e-01 +1.4229595469210423e+01 +4.3618259129681264e+03 -2.0379649306594708e+05 -1.5929274362992613e+07 
-7.0999999999999908e+00 -5.9485332390456247e-01 +8.1224842513228861e+00 -2.8353628284306287e-01 +1.5027754690322730e+01 +4.2831728893874770e+03 -2.0844987957779240e+05 -1.5716563598375011e+07 
-7.1999999999999904e+00 -5.9485367462832506e-01 +8.1224600261553590e+00 -2.7581025234643064e-01 +1.5818832019855323e+01 +4.2031255960395338e+03 -2.1306703654206663e+05 -1.5500746617937114e+07 
-7.2999999999999901e+00 -5.9485403869231734e-01 +8.1224359573389808e+00 -2.6787481543440672e-01 +1.6595095545497784e+01 +4.1219330100123861e+03 -2.1759869937165212e+05 -1.5281982562076915e+07 
-7.3999999999999897e+00 -5.9485441568036168e-01 +8.1224122711973319e+00 -2.5976746472769263e-01 +1.7348813100683941e+01 +4.0398438651328793e+03 -2.2199560261694566e+05 -1.5060429466495592e+07 
-7.4999999999999893e+00 -5.9485480517631895e-01 +8.1223891940728770e+00 -2.5152568697110522e-01 +1.8072252102227555e+01 +3.9571067863210251e+03 -2.2620847896983867e+05 -1.4836244903371152e+07 
-7.5999999999999890e+00 -5.9485520676414461e-01 +8.1223669523190036e+00 -2.4318695595081116e-01 +1.8757679805988928e+01 +3.8739701502584217e+03 -2.3018806084560827e+05 -1.4609585304708038e+07 
-7.6999999999999886e+00 -5.9485562002787118e-01 +8.1223457723028929e+00 -2.3478873492519434e-01 +1.9397363213530895e+01 +3.7906821382095354e+03 -2.3388507980314901e+05 -1.4380606236329893e+07 
-7.7999999999999883e+00 -5.9485604455158414e-01 +8.1223258804116281e+00 -2.2636847929245646e-01 +1.9983568908241466e+01 +3.7074907820410522e+03 -2.3725026564358934e+05 -1.4149462603305437e+07 
-7.8999999999999879e+00 -5.9485647991947932e-01 +8.1223075030447678e+00 -2.1796362909622560e-01 +2.0508563280581640e+01 +3.6246438206077396e+03 -2.4023434774982781e+05 -1.3916307966676658e+07 
-7.9999999999999876e+00 -5.9485692571580862e-01 +8.1222908666183322e+00 -2.0961161737908648e-01 +2.0964612447525134e+01 +3.5423888721073354e+03 -2.4278805473690268e+05 -1.3681295404264532e+07 
-8.0999999999999872e+00 -5.9485738142768640e-01 +8.1222761490736435e+00 -2.0135250406609034e-01 +2.1346024278013278e+01 +3.4610571460527176e+03 -2.4487582575488757e+05 -1.3445104703166222e+07 
-8.1999999999999869e+00 -5.9485784611907411e-01 +8.1222633359884977e+00 -1.9323914284207067e-01 +2.1655000626421497e+01 +3.3813046086126265e+03 -2.4651498172556655e+05 -1.3210283134074755e+07 
-8.2999999999999865e+00 -5.9485831873961437e-01 +8.1222523649453624e+00 -1.8532814396053127e-01 +2.1895667782854861e+01 +3.3038664707837597e+03 -2.4773572534342416e+05 -1.2979788979499524e+07 
-8.3999999999999861e+00 -5.9485879823891941e-01 +8.1222431735503768e+00 -1.7767612312039530e-01 +2.2072151514292003e+01 +3.2294780556958281e+03 -2.4856825672228259e+05 -1.2756581042201988e+07 
-8.4999999999999858e+00 -5.9485928356657158e-01 +8.1222356994163984e+00 -1.7033970278384739e-01 +2.2188577525948105e+01 +3.1588748309597881e+03 -2.4904277593110403e+05 -1.2543618822086981e+07 
-8.5999999999999854e+00 -5.9485977367213916e-01 +8.1222298801832071e+00 -1.6337550878571980e-01 +2.2249070872563372e+01 +3.0927923392012576e+03 -2.4918947955603700e+05 -1.2343862174665561e+07 
-8.6999999999999851e+00 -5.9486026750512677e-01 +8.1222256535042323e+00 -1.5684017737133327e-01 +2.2257756369899639e+01 +3.0319663326841383e+03 -2.4903856316822045e+05 -1.2160271949443636e+07 
-8.7999999999999847e+00 -5.9486076401504862e-01 +8.1222229570555289e+00 -1.5079034604725244e-01 +2.2218758315709366e+01 +2.9771326028184217e+03 -2.4862021964511232e+05 -1.1995809188839165e+07 
-8.8999999999999844e+00 -5.9486126215137636e-01 +8.1222217285317164e+00 -1.4528266028351652e-01 +2.2136200621067015e+01 +2.9290271076590511e+03 -2.4796463996651021e+05 -1.1853435732771620e+07 
-8.9999999999999840e+00 -5.9486176086353415e-01 +8.1222219056449401e+00 -1.4037377391385050e-01 +2.2014206852067240e+01 +2.8883859759109132e+03 -2.4710201349252250e+05 -1.1736114226688763e+07 
-9.0999999999999837e+00 -5.9486225910090362e-01 +8.1222234261305442e+00 -1.3612034854342797e-01 +2.1856900050772342e+01 +2.8559454987094605e+03 -2.4606252686414521e+05 -1.1646808091335591e+07 
-9.1999999999999833e+00 -5.9486275581287051e-01 +8.1222262277447310e+00 -1.3257904822865843e-01 +2.1668402831011459e+01 +2.8324420306898137e+03 -2.4487636465354875e+05 -1.1588481054326564e+07 
-9.2999999999999829e+00 -5.9486324994875617e-01 +8.1222302482607365e+00 -1.2980654752343612e-01 +2.1452837463785610e+01 +2.8186121383053774e+03 -2.4357370976853729e+05 -1.1564097843848512e+07 
-9.3999999999999826e+00 -5.9486374045785273e-01 +8.1222354254836375e+00 -1.2785952761734151e-01 +2.1214325477420910e+01 +2.8151925310492938e+03 -2.4218474122177265e+05 -1.1576623872693691e+07 
-9.4999999999999822e+00 -5.9486422628940694e-01 +8.1222416972294251e+00 -1.2679467832931077e-01 +2.0956988263743028e+01 +2.8229201000742346e+03 -2.4073963763816576e+05 -1.1629025422574773e+07 
-9.5999999999999819e+00 -5.9486470639263400e-01 +8.1222490013451552e+00 -1.2666869642335865e-01 +2.0684946478135796e+01 +2.8425318820133552e+03 -2.3926857372599002e+05 -1.1724269458034113e+07 
-9.6999999999999815e+00 -5.9486517971670616e-01 +8.1222572756976597e+00 -1.2753828676829529e-01 +2.0402320399389659e+01 +2.8747650851607291e+03 -2.3780172245929405e+05 -1.1865323764038520e+07 
-9.7999999999999812e+00 -5.9486564521074969e-01 +8.1222664581789825e+00 -1.2946016326949461e-01 +2.0113229751580626e+01 +2.9203571058372277e+03 -2.3636925396930118e+05 -1.2055157016834117e+07 
-9.8999999999999808e+00 -5.9486610182385058e-01 +8.1222764867050117e+00 -1.3249104802907674e-01 +1.9821793767139038e+01 +2.9800455144181919e+03 -2.3500133598863159e+05 -1.2296738722489689e+07 
-9.9999999999999805e+00 -5.9486654850505216e-01 +8.1222872992143209e+00 -1.3668767171749296e-01 +1.9532131167926295e+01 +3.0545680572475021e+03 -2.3372813334130499e+05 -1.2593039185997492e+07 
-1.0099999999999980e+01 -5.9486698444874420e-01 +8.1222988370505522e+00 -1.4208654436876825e-01 +1.9247628018454133e+01 +3.1443654389230337e+03 -2.3257280906869358e+05 -1.2945759735571694e+07 
