# trajectory
# s[mm] rx[mm] ry[mm] rz[mm] px[rad] py[rad] pz[rad]
0.0000000000000000e+00 +8.1529999999999987e+00 +0.0000000000000000e+00 +0.0000000000000000e+00 +0.0000000000000000e+00 +0.0000000000000000e+00 +1.0000000000000000e+00
1.0000000000000001e-01 +8.1529997168231478e+00 +0.0000000000000000e+00 +9.9999999999465405e-02 -5.6635373008099967e-06 +0.0000000000000000e+00 +9.9999999998396216e-01
2.0000000000000001e-01 +8.1529988672924780e+00 +0.0000000000000000e+00 +1.9999999999572324e-01 -1.1327076385897629e-05 +0.0000000000000000e+00 +9.9999999993584865e-01
3.0000000000000004e-01 +8.1529974514078098e+00 +0.0000000000000000e+00 +2.9999999998556592e-01 -1.6990617292660596e-05 +0.0000000000000000e+00 +9.9999999985565946e-01
4.0000000000000002e-01 +8.1529954691689586e+00 +0.0000000000000000e+00 +3.9999999996578595e-01 -2.2654160057274526e-05 +0.0000000000000000e+00 +9.9999999974339449e-01
5.0000000000000000e-01 +8.1529929205757359e+00 +0.0000000000000000e+00 +4.9999999993317568e-01 -2.8317704714693041e-05 +0.0000000000000000e+00 +9.9999999959905372e-01
5.9999999999999998e-01 +8.1529898056279517e+00 +0.0000000000000000e+00 +5.9999999988452757e-01 -3.3981251298647797e-05 +0.0000000000000000e+00 +9.9999999942263718e-01
6.9999999999999996e-01 +8.1529861243254107e+00 +0.0000000000000000e+00 +6.9999999981663397e-01 -3.9644799841648556e-05 +0.0000000000000000e+00 +9.9999999921414484e-01
7.9999999999999993e-01 +8.1529818766679174e+00 +0.0000000000000000e+00 +7.9999999972628733e-01 -4.5308350374983259e-05 +0.0000000000000000e+00 +9.9999999897357661e-01
8.9999999999999991e-01 +8.1529770626552693e+00 +0.0000000000000000e+00 +8.9999999961028010e-01 -5.0971902928718092e-05 +0.0000000000000000e+00 +9.9999999870093248e-01
9.9999999999999989e-01 +8.1529716822872640e+00 +0.0000000000000000e+00 +9.9999999946540463e-01 -5.6635457531697562e-05 +0.0000000000000000e+00 +9.9999999839621245e-01
1.0999999999999999e+00 +8.1529657355636935e+00 +0.0000000000000000e+00 +1.0999999992884533e+00 -6.2299014211544574e-05 +0.0000000000000000e+00 +9.9999999805941642e-01
1.2000000000000000e+00 +8.1529592224843501e+00 +0.0000000000000000e+00 +1.1999999990762187e+00 -6.7962572994660519e-05 +0.0000000000000000e+00 +9.9999999769054437e-01
1.3000000000000000e+00 +8.1529521430490224e+00 +0.0000000000000000e+00 +1.2999999988254931e+00 -7.3626133906225371e-05 +0.0000000000000000e+00 +9.9999999728959621e-01
1.4000000000000001e+00 +8.1529444972574971e+00 +0.0000000000000000e+00 +1.3999999985330689e+00 -7.9289696970197775e-05 +0.0000000000000000e+00 +9.9999999685657204e-01
1.5000000000000002e+00 +8.1529362851095559e+00 +0.0000000000000000e+00 +1.4999999981957384e+00 -8.4953262209315144e-05 +0.0000000000000000e+00 +9.9999999639147163e-01
1.6000000000000003e+00 +8.1529275066049820e+00 +0.0000000000000000e+00 +1.5999999978102939e+00 -9.0616829645093742e-05 +0.0000000000000000e+00 +9.9999999589429511e-01
1.7000000000000004e+00 +8.1529181617435533e+00 +0.0000000000000000e+00 +1.6999999973735280e+00 -9.6280399297828830e-05 +0.0000000000000000e+00 +9.9999999536504236e-01
1.8000000000000005e+00 +8.1529082505250479e+00 +0.0000000000000000e+00 +1.7999999968822331e+00 -1.0194397118659476e-04 +0.0000000000000000e+00 +9.9999999480371338e-01
1.9000000000000006e+00 +8.1528977729492418e+00 +0.0000000000000000e+00 +1.8999999963332015e+00 -1.0760754532924507e-04 +0.0000000000000000e+00 +9.9999999421030805e-01
2.0000000000000004e+00 +8.1528867290159077e+00 +0.0000000000000000e+00 +1.9999999957232255e+00 -1.1327112174241265e-04 +0.0000000000000000e+00 +9.9999999358482650e-01
2.1000000000000005e+00 +8.1528751187248183e+00 +0.0000000000000000e+00 +2.0999999950490977e+00 -1.1893470044182575e-04 +0.0000000000000000e+00 +9.9999999292726849e-01
2.2000000000000006e+00 +8.1528629420757426e+00 +0.0000000000000000e+00 +2.1999999943076101e+00 -1.2459828144578355e-04 +0.0000000000000000e+00 +9.9999999223763414e-01
2.3000000000000007e+00 +8.1528501990684514e+00 +0.0000000000000000e+00 +2.2999999934955553e+00 -1.3026186477863155e-04 +0.0000000000000000e+00 +9.9999999151592334e-01
2.4000000000000008e+00 +8.1528368897027086e+00 +0.0000000000000000e+00 +2.3999999926097257e+00 -1.3592545047107731e-04 +0.0000000000000000e+00 +9.9999999076213597e-01
2.5000000000000009e+00 +8.1528230139782778e+00 +0.0000000000000000e+00 +2.4999999916469133e+00 -1.4158903856019032e-04 +0.0000000000000000e+00 +9.9999998997627204e-01
2.6000000000000010e+00 +8.1528085718949157e+00 +0.0000000000000000e+00 +2.5999999906039108e+00 -1.4725262908940181e-04 +0.0000000000000000e+00 +9.9999998915833155e-01
2.7000000000000011e+00 +8.1527935634523772e+00 +0.0000000000000000e+00 +2.6999999894775106e+00 -1.5291622210850445e-04 +0.0000000000000000e+00 +9.9999998830831438e-01
2.8000000000000012e+00 +8.1527779886504099e+00 +0.0000000000000000e+00 +2.7999999882645046e+00 -1.5857981767365220e-04 +0.0000000000000000e+00 +9.9999998742622054e-01
2.9000000000000012e+00 +8.1527618474887564e+00 +0.0000000000000000e+00 +2.8999999869616855e+00 -1.6424341584735997e-04 +0.0000000000000000e+00 +9.9999998651205002e-01
3.0000000000000013e+00 +8.1527451399671520e+00 +0.0000000000000000e+00 +2.9999999855658452e+00 -1.6990701669850330e-04 +0.0000000000000000e+00 +9.9999998556580272e-01
3.1000000000000014e+00 +8.1527278660853248e+00 +0.0000000000000000e+00 +3.0999999840737766e+00 -1.7557062030231806e-04 +0.0000000000000000e+00 +9.9999998458747852e-01
3.2000000000000015e+00 +8.1527100258429961e+00 +0.0000000000000000e+00 +3.1999999824822716e+00 -1.8123422674040009e-04 +0.0000000000000000e+00 +9.9999998357707742e-01
3.3000000000000016e+00 +8.1526916192398780e+00 +0.0000000000000000e+00 +3.2999999807881228e+00 -1.8689783610070483e-04 +0.0000000000000000e+00 +9.9999998253459932e-01
3.4000000000000017e+00 +8.1526726462756738e+00 +0.0000000000000000e+00 +3.3999999789881223e+00 -1.9256144847754688e-04 +0.0000000000000000e+00 +9.9999998146004410e-01
3.5000000000000018e+00 +8.1526531069500781e+00 +0.0000000000000000e+00 +3.4999999770790624e+00 -1.9822506397159956e-04 +0.0000000000000000e+00 +9.9999998035341175e-01
3.6000000000000019e+00 +8.1526330012627728e+00 +0.0000000000000000e+00 +3.5999999750577354e+00 -2.0388868268989452e-04 +0.0000000000000000e+00 +9.9999997921470229e-01
3.7000000000000020e+00 +8.1526123292134294e+00 +0.0000000000000000e+00 +3.6999999729209336e+00 -2.0955230474582116e-04 +0.0000000000000000e+00 +9.9999997804391549e-01
3.8000000000000020e+00 +8.1525910908017085e+00 +0.0000000000000000e+00 +3.7999999706654495e+00 -2.1521593025912618e-04 +0.0000000000000000e+00 +9.9999997684105135e-01
3.9000000000000021e+00 +8.1525692860272585e+00 +0.0000000000000000e+00 +3.8999999682880748e+00 -2.2087955935591304e-04 +0.0000000000000000e+00 +9.9999997560610976e-01
4.0000000000000018e+00 +8.1525469148897134e+00 +0.0000000000000000e+00 +3.9999999657856020e+00 -2.2654319216864135e-04 +0.0000000000000000e+00 +9.9999997433909060e-01
4.1000000000000014e+00 +8.1525239773886966e+00 +0.0000000000000000e+00 +4.0999999631548238e+00 -2.3220682883536977e-04 +0.0000000000000000e+00 +9.9999997303999388e-01
4.2000000000000011e+00 +8.1525004735238138e+00 +0.0000000000000000e+00 +4.1999999603925318e+00 -2.3787046949143306e-04 +0.0000000000000000e+00 +9.9999997170881938e-01
4.3000000000000007e+00 +8.1524764032946617e+00 +0.0000000000000000e+00 +4.2999999574955181e+00 -2.4353411426111956e-04 +0.0000000000000000e+00 +9.9999997034556709e-01
4.4000000000000004e+00 +8.1524517667008212e+00 +0.0000000000000000e+00 +4.3999999544605757e+00 -2.4919776325691459e-04 +0.0000000000000000e+00 +9.9999996895023679e-01
4.5000000000000000e+00 +8.1524265637418658e+00 +0.0000000000000000e+00 +4.4999999512844964e+00 -2.5486141657950055e-04 +0.0000000000000000e+00 +9.9999996752282849e-01
4.5999999999999996e+00 +8.1524007944173587e+00 +0.0000000000000000e+00 +4.5999999479640721e+00 -2.6052507431775692e-04 +0.0000000000000000e+00 +9.9999996606334207e-01
4.6999999999999993e+00 +8.1523744587268538e+00 +0.0000000000000000e+00 +4.6999999444960956e+00 -2.6618873654876045e-04 +0.0000000000000000e+00 +9.9999996457177742e-01
4.7999999999999989e+00 +8.1523475566698984e+00 +0.0000000000000000e+00 +4.7999999408773588e+00 -2.7185240333778515e-04 +0.0000000000000000e+00 +9.9999996304813454e-01
4.8999999999999986e+00 +8.1523200882460340e+00 +0.0000000000000000e+00 +4.8999999371046536e+00 -2.7751607473830246e-04 +0.0000000000000000e+00 +9.9999996149241321e-01
4.9999999999999982e+00 +8.1522920534547971e+00 +0.0000000000000000e+00 +4.9999999331747720e+00 -2.8317975079198131e-04 +0.0000000000000000e+00 +9.9999995990461343e-01
5.0999999999999979e+00 +8.1522634522957205e+00 +0.0000000000000000e+00 +5.0999999290845066e+00 -2.8884343152868827e-04 +0.0000000000000000e+00 +9.9999995828473498e-01
5.1999999999999975e+00 +8.1522342847683351e+00 +0.0000000000000000e+00 +5.1999999248306494e+00 -2.9450711696648782e-04 +0.0000000000000000e+00 +9.9999995663277785e-01
5.2999999999999972e+00 +8.1522045508721703e+00 +0.0000000000000000e+00 +5.2999999204099923e+00 -3.0017080711164233e-04 +0.0000000000000000e+00 +9.9999995494874205e-01
5.3999999999999968e+00 +8.1521742506067554e+00 +0.0000000000000000e+00 +5.3999999158193281e+00 -3.0583450195861232e-04 +0.0000000000000000e+00 +9.9999995323262736e-01
5.4999999999999964e+00 +8.1521433839716213e+00 +0.0000000000000000e+00 +5.4999999110554487e+00 -3.1149820149005669e-04 +0.0000000000000000e+00 +9.9999995148443377e-01
5.5999999999999961e+00 +8.1521119509663009e+00 +0.0000000000000000e+00 +5.5999999061151460e+00 -3.1716190567683289e-04 +0.0000000000000000e+00 +9.9999994970416128e-01
5.6999999999999957e+00 +8.1520799515903306e+00 +0.0000000000000000e+00 +5.6999999009952118e+00 -3.2282561447799719e-04 +0.0000000000000000e+00 +9.9999994789180968e-01
5.7999999999999954e+00 +8.1520473858432521e+00 +0.0000000000000000e+00 +5.7999998956924390e+00 -3.2848932784080480e-04 +0.0000000000000000e+00 +9.9999994604737896e-01
5.8999999999999950e+00 +8.1520142537246123e+00 +0.0000000000000000e+00 +5.8999998902036186e+00 -3.3415304570071021e-04 +0.0000000000000000e+00 +9.9999994417086913e-01
5.9999999999999947e+00 +8.1519805552339655e+00 +0.0000000000000000e+00 +5.9999998845255433e+00 -3.3981676798136747e-04 +0.0000000000000000e+00 +9.9999994226228006e-01
6.0999999999999943e+00 +8.1519462903708728e+00 +0.0000000000000000e+00 +6.0999998786550051e+00 -3.4548049459527539e-04 +0.0000000000000000e+00 +9.9999994032161177e-01
6.1999999999999940e+00 +8.1519114591349062e+00 +0.0000000000000000e+00 +6.1999998725887959e+00 -3.5114422545087245e-04 +0.0000000000000000e+00 +9.9999993834886414e-01
6.2999999999999936e+00 +8.1518760615256447e+00 +0.0000000000000000e+00 +6.2999998663237085e+00 -3.5680796045963175e-04 +0.0000000000000000e+00 +9.9999993634403728e-01
6.3999999999999932e+00 +8.1518400975426779e+00 +0.0000000000000000e+00 +6.3999998598565346e+00 -3.6247169953670607e-04 +0.0000000000000000e+00 +9.9999993430713097e-01
6.4999999999999929e+00 +8.1518035671856044e+00 +0.0000000000000000e+00 +6.4999998531840655e+00 -3.6813544260092798e-04 +0.0000000000000000e+00 +9.9999993223814521e-01
6.5999999999999925e+00 +8.1517664704540280e+00 +0.0000000000000000e+00 +6.5999998463030938e+00 -3.7379918957481019e-04 +0.0000000000000000e+00 +9.9999993013708000e-01
6.6999999999999922e+00 +8.1517288073475616e+00 +0.0000000000000000e+00 +6.6999998392104114e+00 -3.7946294038454552e-04 +0.0000000000000000e+00 +9.9999992800393533e-01
6.7999999999999918e+00 +8.1516905778658248e+00 +0.0000000000000000e+00 +6.7999998319028112e+00 -3.8512669496000725e-04 +0.0000000000000000e+00 +9.9999992583871111e-01
6.8999999999999915e+00 +8.1516517820084449e+00 +0.0000000000000000e+00 +6.8999998243770841e+00 -3.9079045323474917e-04 +0.0000000000000000e+00 +9.9999992364140733e-01
6.9999999999999911e+00 +8.1516124197750557e+00 +0.0000000000000000e+00 +6.9999998166300230e+00 -3.9645421514600591e-04 +0.0000000000000000e+00 +9.9999992141202398e-01
7.0999999999999908e+00 +8.1515724911652967e+00 +0.0000000000000000e+00 +7.0999998086584197e+00 -4.0211798063469304e-04 +0.0000000000000000e+00 +9.9999991915056097e-01
7.1999999999999904e+00 +8.1515319961788126e+00 +0.0000000000000000e+00 +7.1999998004590662e+00 -4.0778174964540740e-04 +0.0000000000000000e+00 +9.9999991685701828e-01
7.2999999999999901e+00 +8.1514909348152536e+00 +0.0000000000000000e+00 +7.2999997920287543e+00 -4.1344552212642724e-04 +0.0000000000000000e+00 +9.9999991453139592e-01
7.3999999999999897e+00 +8.1514493070742748e+00 +0.0000000000000000e+00 +7.3999997833642759e+00 -4.1910929802971248e-04 +0.0000000000000000e+00 +9.9999991217369377e-01
7.4999999999999893e+00 +8.1514071129555354e+00 +0.0000000000000000e+00 +7.4999997744624238e+00 -4.2477307731090489e-04 +0.0000000000000000e+00 +9.9999990978391184e-01
7.5999999999999890e+00 +8.1513643524587014e+00 +0.0000000000000000e+00 +7.5999997653199891e+00 -4.3043685992932840e-04 +0.0000000000000000e+00 +9.9999990736205002e-01
7.6999999999999886e+00 +8.1513210255834405e+00 +0.0000000000000000e+00 +7.6999997559337645e+00 -4.3610064584798938e-04 +0.0000000000000000e+00 +9.9999990490810831e-01
7.7999999999999883e+00 +8.1512771323294242e+00 +0.0000000000000000e+00 +7.7999997463005419e+00 -4.4176443503357685e-04 +0.0000000000000000e+00 +9.9999990242208669e-01
7.8999999999999879e+00 +8.1512326726963273e+00 +0.0000000000000000e+00 +7.8999997364171133e+00 -4.4742822745646278e-04 +0.0000000000000000e+00 +9.9999989990398508e-01
7.9999999999999876e+00 +8.1511876466838267e+00 +0.0000000000000000e+00 +7.9999997262802705e+00 -4.5309202309070230e-04 +0.0000000000000000e+00 +9.9999989735380346e-01
8.0999999999999872e+00 +8.1511420542916024e+00 +0.0000000000000000e+00 +8.0999997158868045e+00 -4.5875582191421928e-04 +0.0000000000000000e+00 +9.9999989477154183e-01
8.1999999999999869e+00 +8.1510958955193384e+00 +0.0000000000000000e+00 +8.1999997052335090e+00 -4.6441962391084317e-04 +0.0000000000000000e+00 +9.9999989215720009e-01
8.2999999999999865e+00 +8.1510491703667149e+00 +0.0000000000000000e+00 +8.2999996943171759e+00 -4.7008342907234611e-04 +0.0000000000000000e+00 +9.9999988951077823e-01
8.3999999999999861e+00 +8.1510018788334175e+00 +0.0000000000000000e+00 +8.3999996831345953e+00 -4.7574723739862826e-04 +0.0000000000000000e+00 +9.9999988683227614e-01
8.4999999999999858e+00 +8.1509540209191300e+00 +0.0000000000000000e+00 +8.4999996716825610e+00 -4.8141104889771813e-04 +0.0000000000000000e+00 +9.9999988412169383e-01
8.5999999999999854e+00 +8.1509055966235326e+00 +0.0000000000000000e+00 +8.5999996599578648e+00 -4.8707486358577276e-04 +0.0000000000000000e+00 +9.9999988137903117e-01
8.6999999999999851e+00 +8.1508566059463057e+00 +0.0000000000000000e+00 +8.6999996479572985e+00 -4.9273868148707808e-04 +0.0000000000000000e+00 +9.9999987860428807e-01
8.7999999999999847e+00 +8.1508070488871276e+00 +0.0000000000000000e+00 +8.7999996356776542e+00 -4.9840250263404929e-04 +0.0000000000000000e+00 +9.9999987579746452e-01
8.8999999999999844e+00 +8.1507569254456698e+00 +0.0000000000000000e+00 +8.8999996231157219e+00 -5.0406632706723078e-04 +0.0000000000000000e+00 +9.9999987295856041e-01
8.9999999999999840e+00 +8.1507062356216018e+00 +0.0000000000000000e+00 +8.9999996102682953e+00 -5.0973015483529683e-04 +0.0000000000000000e+00 +9.9999987008757574e-01
9.0999999999999837e+00 +8.1506549794145879e+00 +0.0000000000000000e+00 +9.0999995971321663e+00 -5.1539398599505172e-04 +0.0000000000000000e+00 +9.9999986718451028e-01
9.1999999999999833e+00 +8.1506031568242872e+00 +0.0000000000000000e+00 +9.1999995837041268e+00 -5.2105782061143005e-04 +0.0000000000000000e+00 +9.9999986424936405e-01
9.2999999999999829e+00 +8.1505507678503477e+00 +0.0000000000000000e+00 +9.2999995699809688e+00 -5.2672165875749708e-04 +0.0000000000000000e+00 +9.9999986128213691e-01
9.3999999999999826e+00 +8.1504978124924143e+00 +0.0000000000000000e+00 +9.3999995559594840e+00 -5.3238550051444881e-04 +0.0000000000000000e+00 +9.9999985828282878e-01
9.4999999999999822e+00 +8.1504442907501211e+00 +0.0000000000000000e+00 +9.4999995416364644e+00 -5.3804934597161287e-04 +0.0000000000000000e+00 +9.9999985525143953e-01
9.5999999999999819e+00 +8.1503902026230932e+00 +0.0000000000000000e+00 +9.5999995270087020e+00 -5.4371319522644821e-04 +0.0000000000000000e+00 +9.9999985218796905e-01
9.6999999999999815e+00 +8.1503355481109452e+00 +0.0000000000000000e+00 +9.6999995120729885e+00 -5.4937704838454581e-04 +0.0000000000000000e+00 +9.9999984909241724e-01
9.7999999999999812e+00 +8.1502803272132827e+00 +0.0000000000000000e+00 +9.7999994968261159e+00 -5.5504090555962894e-04 +0.0000000000000000e+00 +9.9999984596478397e-01
9.8999999999999808e+00 +8.1502245399296953e+00 +0.0000000000000000e+00 +9.8999994812648762e+00 -5.6070476687355357e-04 +0.0000000000000000e+00 +9.9999984280506915e-01
9.9999999999999805e+00 +8.1501681862597657e+00 +0.0000000000000000e+00 +9.9999994653860611e+00 -5.6636863245630850e-04 +0.0000000000000000e+00 +9.9999983961327255e-01
1.0099999999999980e+01 +8.1501112662030586e+00 +0.0000000000000000e+00 +1.0099999449186463e+01 -5.7203250244547280e-04 +0.0000000000000000e+00 +9.9999983638939405e-01
1.0199999999999980e+01 +8.1500537797591264e+00 +0.0000000000000000e+00 +1.0199999432662871e+01 -5.7769637698024047e-04 +0.0000000000000000e+00 +9.9999983313343344e-01
1.0299999999999979e+01 +8.1499957269275072e+00 +0.0000000000000000e+00 +1.0299999415812080e+01 -5.8336025619544507e-04 +0.0000000000000000e+00 +9.9999982984539060e-01
1.0399999999999979e+01 +8.1499371077077267e+00 +0.0000000000000000e+00 +1.0399999398630881e+01 -5.8902414022101552e-04 +0.0000000000000000e+00 +9.9999982652526542e-01
1.0499999999999979e+01 +8.1498779220992983e+00 +0.0000000000000000e+00 +1.0499999381116064e+01 -5.9468802918197596e-04 +0.0000000000000000e+00 +9.9999982317305769e-01
1.0599999999999978e+01 +8.1498181701017227e+00 +0.0000000000000000e+00 +1.0599999363264423e+01 -6.0035192319844483e-04 +0.0000000000000000e+00 +9.9999981978876729e-01
1.0699999999999978e+01 +8.1497578517144866e+00 +0.0000000000000000e+00 +1.0699999345072749e+01 -6.0601582238563431e-04 +0.0000000000000000e+00 +9.9999981637239399e-01
1.0799999999999978e+01 +8.1496969669370696e+00 +0.0000000000000000e+00 +1.0799999326537833e+01 -6.1167972685384985e-04 +0.0000000000000000e+00 +9.9999981292393769e-01
1.0899999999999977e+01 +8.1496355157689369e+00 +0.0000000000000000e+00 +1.0899999307656467e+01 -6.1734363670848933e-04 +0.0000000000000000e+00 +9.9999980944339828e-01
1.0999999999999977e+01 +8.1495734982095449e+00 +0.0000000000000000e+00 +1.0999999288425443e+01 -6.2300755205004226e-04 +0.0000000000000000e+00 +9.9999980593077553e-01
1.1099999999999977e+01 +8.1495109142583413e+00 +0.0000000000000000e+00 +1.1099999268841552e+01 -6.2867147297408950e-04 +0.0000000000000000e+00 +9.9999980238606934e-01
1.1199999999999976e+01 +8.1494477639147611e+00 +0.0000000000000000e+00 +1.1199999248901587e+01 -6.3433539957130224e-04 +0.0000000000000000e+00 +9.9999979880927947e-01
1.1299999999999976e+01 +8.1493840471782342e+00 +0.0000000000000000e+00 +1.1299999228602339e+01 -6.3999933192744119e-04 +0.0000000000000000e+00 +9.9999979520040583e-01
1.1399999999999975e+01 +8.1493197640481814e+00 +0.0000000000000000e+00 +1.1399999207940599e+01 -6.4566327012335618e-04 +0.0000000000000000e+00 +9.9999979155944829e-01
1.1499999999999975e+01 +8.1492549145240130e+00 +0.0000000000000000e+00 +1.1499999186913159e+01 -6.5132721423498527e-04 +0.0000000000000000e+00 +9.9999978788640675e-01
1.1599999999999975e+01 +8.1491894986051339e+00 +0.0000000000000000e+00 +1.1599999165516811e+01 -6.5699116433335367e-04 +0.0000000000000000e+00 +9.9999978418128099e-01
1.1699999999999974e+01 +8.1491235162909437e+00 +0.0000000000000000e+00 +1.1699999143748347e+01 -6.6265512048457333e-04 +0.0000000000000000e+00 +9.9999978044407078e-01
1.1799999999999974e+01 +8.1490569675808331e+00 +0.0000000000000000e+00 +1.1799999121604555e+01 -6.6831908274984214e-04 +0.0000000000000000e+00 +9.9999977667477613e-01
