# field on trajectory
# s[mm] rx[mm] ry[mm] rz[mm] bx[T] by[T] bz[T]
0.0000000000000000e+00 +8.1529999999999987e+00 +0.0000000000000000e+00 +0.0000000000000000e+00 -3.2416371666471960e-02 -5.9295244163934824e-01 +5.9111733147574914e-03
1.0000000000000001e-01 +8.1529997167421850e+00 +0.0000000000000000e+00 +9.9999999999465114e-02 -3.2416432980791179e-02 -5.9295242770213852e-01 +5.9112053642796265e-03
2.0000000000000001e-01 +8.1529988669687530e+00 +0.0000000000000000e+00 +1.9999999999572082e-01 -3.2416488257248133e-02 -5.9295241637784246e-01 +5.9112383103099809e-03
3.0000000000000004e-01 +8.1529974506797132e+00 +0.0000000000000000e+00 +2.9999999998555771e-01 -3.2416537714943273e-02 -5.9295240860622167e-01 +5.9112720880878655e-03
4.0000000000000002e-01 +8.1529954678750727e+00 +0.0000000000000000e+00 +3.9999999996576641e-01 -3.2416581572983043e-02 -5.9295240532703630e-01 +5.9113066328517795e-03
5.0000000000000000e-01 +8.1529929185548351e+00 +0.0000000000000000e+00 +4.9999999993313748e-01 -3.2416620050477588e-02 -5.9295240748004585e-01 +5.9113418798394631e-03
5.9999999999999998e-01 +8.1529898027189969e+00 +0.0000000000000000e+00 +5.9999999988446162e-01 -3.2416653366538747e-02 -5.9295241600501014e-01 +5.9113777642879686e-03
6.9999999999999996e-01 +8.1529861203675509e+00 +0.0000000000000000e+00 +6.9999999981652938e-01 -3.2416681740277814e-02 -5.9295243184168978e-01 +5.9114142214337110e-03
7.9999999999999993e-01 +8.1529818715004829e+00 +0.0000000000000000e+00 +7.9999999972613134e-01 -3.2416705390803477e-02 -5.9295245592984902e-01 +5.9114511865125405e-03
8.9999999999999991e-01 +8.1529770561177699e+00 +0.0000000000000000e+00 +8.9999999961005805e-01 -3.2416724537219589e-02 -5.9295248920925514e-01 +5.9114885947597999e-03
9.9999999999999989e-01 +8.1529716742193781e+00 +0.0000000000000000e+00 +9.9999999946510021e-01 -3.2416739398623086e-02 -5.9295253261967973e-01 +5.9115263814103992e-03
1.0999999999999999e+00 +8.1529657258052683e+00 +0.0000000000000000e+00 +1.0999999992880483e+00 -3.2416750194101847e-02 -5.9295258710090115e-01 +5.9115644816988633e-03
1.2000000000000000e+00 +8.1529592108753874e+00 +0.0000000000000000e+00 +1.1999999990756929e+00 -3.2416757142732476e-02 -5.9295265359270388e-01 +5.9116028308594084e-03
1.3000000000000000e+00 +8.1529521294296732e+00 +0.0000000000000000e+00 +1.2999999988248248e+00 -3.2416760463578248e-02 -5.9295273303488005e-01 +5.9116413641259885e-03
1.4000000000000001e+00 +8.1529444814680492e+00 +0.0000000000000000e+00 +1.3999999985322344e+00 -3.2416760375686922e-02 -5.9295282636723257e-01 +5.9116800167323853e-03
1.5000000000000002e+00 +8.1529362669904266e+00 +0.0000000000000000e+00 +1.4999999981947125e+00 -3.2416757098088632e-02 -5.9295293452957232e-01 +5.9117187239122425e-03
1.6000000000000003e+00 +8.1529274859967007e+00 +0.0000000000000000e+00 +1.5999999978090496e+00 -3.2416750849793653e-02 -5.9295305846172286e-01 +5.9117574208991490e-03
1.7000000000000004e+00 +8.1529181384867560e+00 +0.0000000000000000e+00 +1.6999999973720361e+00 -3.2416741849790404e-02 -5.9295319910351962e-01 +5.9117960429266921e-03
1.8000000000000005e+00 +8.1529082244604556e+00 +0.0000000000000000e+00 +1.7999999968804627e+00 -3.2416730317043140e-02 -5.9295335739481125e-01 +5.9118345252285242e-03
1.9000000000000006e+00 +8.1528977439176504e+00 +0.0000000000000000e+00 +1.8999999963311200e+00 -3.2416716470489985e-02 -5.9295353427546171e-01 +5.9118728030384243e-03
2.0000000000000004e+00 +8.1528866968581717e+00 +0.0000000000000000e+00 +1.9999999957207988e+00 -3.2416700529040630e-02 -5.9295373068534918e-01 +5.9119108115903620e-03
2.1000000000000005e+00 +8.1528750832818311e+00 +0.0000000000000000e+00 +2.0999999950462893e+00 -3.2416682685625919e-02 -5.9295394722871519e-01 +5.9119484832688357e-03
2.2000000000000006e+00 +8.1528629031884225e+00 +0.0000000000000000e+00 +2.1999999943043824e+00 -3.2416663029360554e-02 -5.9295418316719273e-01 +5.9119857390593110e-03
2.3000000000000007e+00 +8.1528501565777205e+00 +0.0000000000000000e+00 +2.2999999934918685e+00 -3.2416641623405656e-02 -5.9295443742676401e-01 +5.9120224970966445e-03
2.4000000000000008e+00 +8.1528368434494833e+00 +0.0000000000000000e+00 +2.3999999926055380e+00 -3.2416618530920774e-02 -5.9295470893341073e-01 +5.9120586755146221e-03
2.5000000000000009e+00 +8.1528229638034535e+00 +0.0000000000000000e+00 +2.4999999916421816e+00 -3.2416593815065425e-02 -5.9295499661311579e-01 +5.9120941924458784e-03
2.6000000000000010e+00 +8.1528085176393539e+00 +0.0000000000000000e+00 +2.5999999905985893e+00 -3.2416567539000345e-02 -5.9295529939186076e-01 +5.9121289660217973e-03
2.7000000000000011e+00 +8.1527935049568985e+00 +0.0000000000000000e+00 +2.6999999894715523e+00 -3.2416539765889048e-02 -5.9295561619562653e-01 +5.9121629143724383e-03
2.8000000000000012e+00 +8.1527779257557835e+00 +0.0000000000000000e+00 +2.7999999882578610e+00 -3.2416510558899096e-02 -5.9295594595039081e-01 +5.9121959556264272e-03
2.9000000000000012e+00 +8.1527617800356946e+00 +0.0000000000000000e+00 +2.8999999869543061e+00 -3.2416479981203575e-02 -5.9295628758212826e-01 +5.9122280079108988e-03
3.0000000000000013e+00 +8.1527450677963067e+00 +0.0000000000000000e+00 +2.9999999855576776e+00 -3.2416448095982479e-02 -5.9295664001681059e-01 +5.9122589893513770e-03
3.1000000000000014e+00 +8.1527277890372822e+00 +0.0000000000000000e+00 +3.0999999840647661e+00 -3.2416414966424056e-02 -5.9295700218040293e-01 +5.9122888180717040e-03
3.2000000000000015e+00 +8.1527099437582766e+00 +0.0000000000000000e+00 +3.1999999824723626e+00 -3.2416380655726280e-02 -5.9295737299886619e-01 +5.9123174121939563e-03
3.3000000000000016e+00 +8.1526915319589364e+00 +0.0000000000000000e+00 +3.2999999807772573e+00 -3.2416345227098249e-02 -5.9295775139815365e-01 +5.9123446898383348e-03
3.4000000000000017e+00 +8.1526725536389009e+00 +0.0000000000000000e+00 +3.3999999789762403e+00 -3.2416308743761488e-02 -5.9295813630421235e-01 +5.9123705691231073e-03
3.5000000000000018e+00 +8.1526530087978024e+00 +0.0000000000000000e+00 +3.4999999770661026e+00 -3.2416271268951469e-02 -5.9295852664298088e-01 +5.9123949681644970e-03
3.6000000000000019e+00 +8.1526328974352698e+00 +0.0000000000000000e+00 +3.5999999750436342e+00 -3.2416232865918930e-02 -5.9295892134038886e-01 +5.9124178050765988e-03
3.7000000000000020e+00 +8.1526122195509263e+00 +0.0000000000000000e+00 +3.6999999729056259e+00 -3.2416193597931318e-02 -5.9295931932235602e-01 +5.9124389979713044e-03
3.8000000000000020e+00 +8.1525909751443919e+00 +0.0000000000000000e+00 +3.7999999706488681e+00 -3.2416153528274136e-02 -5.9295971951479121e-01 +5.9124584649581941e-03
3.9000000000000021e+00 +8.1525691642152847e+00 +0.0000000000000000e+00 +3.8999999682701514e+00 -3.2416112720252382e-02 -5.9296012084359273e-01 +5.9124761241444680e-03
4.0000000000000018e+00 +8.1525467867632226e+00 +0.0000000000000000e+00 +3.9999999657662659e+00 -3.2416071237191972e-02 -5.9296052223464579e-01 +5.9124918936348473e-03
4.1000000000000014e+00 +8.1525238427878239e+00 +0.0000000000000000e+00 +4.0999999631340023e+00 -3.2416029125486946e-02 -5.9296092269926493e-01 +5.9125057535721667e-03
4.2000000000000011e+00 +8.1525003322887049e+00 +0.0000000000000000e+00 +4.1999999603701506e+00 -3.2415986363735105e-02 -5.9296132159052006e-01 +5.9125179322617816e-03
4.3000000000000007e+00 +8.1524762552654870e+00 +0.0000000000000000e+00 +4.2999999574715018e+00 -3.2415942913595355e-02 -5.9296171834691558e-01 +5.9125287200532456e-03
4.4000000000000004e+00 +8.1524516117177903e+00 +0.0000000000000000e+00 +4.3999999544348460e+00 -3.2415898736741819e-02 -5.9296211240694940e-01 +5.9125384073003377e-03
4.5000000000000000e+00 +8.1524264016452399e+00 +0.0000000000000000e+00 +4.4999999512569735e+00 -3.2415853794864620e-02 -5.9296250320911137e-01 +5.9125472843613571e-03
4.5999999999999996e+00 +8.1524006250474645e+00 +0.0000000000000000e+00 +4.5999999479346751e+00 -3.2415808049670612e-02 -5.9296289019188331e-01 +5.9125556415994367e-03
4.6999999999999993e+00 +8.1523742819240930e+00 +0.0000000000000000e+00 +4.6999999444647402e+00 -3.2415761462884184e-02 -5.9296327279374039e-01 +5.9125637693828335e-03
4.7999999999999989e+00 +8.1523473722747628e+00 +0.0000000000000000e+00 +4.7999999408439606e+00 -3.2415713996248027e-02 -5.9296365045314703e-01 +5.9125719580852372e-03
4.8999999999999986e+00 +8.1523198960991134e+00 +0.0000000000000000e+00 +4.8999999370691256e+00 -3.2415665611523897e-02 -5.9296402260856063e-01 +5.9125804980860877e-03
4.9999999999999982e+00 +8.1522918533967896e+00 +0.0000000000000000e+00 +4.9999999331370262e+00 -3.2415616270493414e-02 -5.9296438869842893e-01 +5.9125896797708527e-03
5.0999999999999979e+00 +8.1522632441674432e+00 +0.0000000000000000e+00 +5.0999999290444524e+00 -3.2415565934958777e-02 -5.9296474816118983e-01 +5.9125997935313415e-03
5.1999999999999975e+00 +8.1522340684107313e+00 +0.0000000000000000e+00 +5.1999999247881945e+00 -3.2415514566743638e-02 -5.9296510043527118e-01 +5.9126111297660173e-03
5.2999999999999972e+00 +8.1522043261263182e+00 +0.0000000000000000e+00 +5.2999999203650434e+00 -3.2415462127693785e-02 -5.9296544495909154e-01 +5.9126239788802968e-03
5.3999999999999968e+00 +8.1521740173138753e+00 +0.0000000000000000e+00 +5.3999999157717893e+00 -3.2415408579677917e-02 -5.9296578117105758e-01 +5.9126386312868331e-03
5.4999999999999964e+00 +8.1521431419730828e+00 +0.0000000000000000e+00 +5.4999999110052222e+00 -3.2415353884588466e-02 -5.9296610850956621e-01 +5.9126553774058472e-03
5.5999999999999961e+00 +8.1521117001036298e+00 +0.0000000000000000e+00 +5.5999999060621324e+00 -3.2415298004342383e-02 -5.9296642641300201e-01 +5.9126745076654112e-03
5.6999999999999957e+00 +8.1520796917052127e+00 +0.0000000000000000e+00 +5.6999999009393107e+00 -3.2415240900881805e-02 -5.9296673431973912e-01 +5.9126963125017661e-03
5.7999999999999954e+00 +8.1520471167775383e+00 +0.0000000000000000e+00 +5.7999998956335475e+00 -3.2415182536174987e-02 -5.9296703166813869e-01 +5.9127210823596045e-03
5.8999999999999950e+00 +8.1520139753203242e+00 +0.0000000000000000e+00 +5.8999998901416326e+00 -3.2415122872216907e-02 -5.9296731789655011e-01 +5.9127491076923968e-03
5.9999999999999947e+00 +8.1519802673332986e+00 +0.0000000000000000e+00 +5.9999998844603564e+00 -3.2415061871030160e-02 -5.9296759244330954e-01 +5.9127806789626728e-03
6.0999999999999943e+00 +8.1519459928161986e+00 +0.0000000000000000e+00 +6.0999998785865097e+00 -3.2414999551538190e-02 -5.9296785496039517e-01 +5.9128159902228031e-03
6.1999999999999940e+00 +8.1519111517687755e+00 +0.0000000000000000e+00 +6.1999998725168828e+00 -3.2414936160169577e-02 -5.9296810595439231e-01 +5.9128548498507613e-03
6.2999999999999936e+00 +8.1518757441907912e+00 +0.0000000000000000e+00 +6.2999998662482657e+00 -3.2414872000213965e-02 -5.9296834614552840e-01 +5.9128969698013156e-03
6.3999999999999932e+00 +8.1518397700820167e+00 +0.0000000000000000e+00 +6.3999998597774495e+00 -3.2414807374944440e-02 -5.9296857625401622e-01 +5.9129420620248488e-03
6.4999999999999929e+00 +8.1518032294422316e+00 +0.0000000000000000e+00 +6.4999998531012242e+00 -3.2414742587616639e-02 -5.9296879700005478e-01 +5.9129898384670809e-03
6.5999999999999925e+00 +8.1517661222712281e+00 +0.0000000000000000e+00 +6.5999998462163791e+00 -3.2414677941467587e-02 -5.9296900910382822e-01 +5.9130400110688330e-03
6.6999999999999922e+00 +8.1517284485688037e+00 +0.0000000000000000e+00 +6.6999998391197062e+00 -3.2414613739714680e-02 -5.9296921328550534e-01 +5.9130922917657418e-03
6.7999999999999918e+00 +8.1516902083347649e+00 +0.0000000000000000e+00 +6.7999998318079946e+00 -3.2414550285554698e-02 -5.9296941026523964e-01 +5.9131463924880197e-03
6.8999999999999915e+00 +8.1516514015689250e+00 +0.0000000000000000e+00 +6.8999998242780354e+00 -3.2414487882162696e-02 -5.9296960076316851e-01 +5.9132020251601745e-03
6.9999999999999911e+00 +8.1516120282711029e+00 +0.0000000000000000e+00 +6.9999998165266186e+00 -3.2414426832691030e-02 -5.9296978549941337e-01 +5.9132589017007664e-03
7.0999999999999908e+00 +8.1515720884411245e+00 +0.0000000000000000e+00 +7.0999998085505345e+00 -3.2414367440268307e-02 -5.9296996519407963e-01 +5.9133167340221374e-03
7.1999999999999904e+00 +8.1515315820788175e+00 +0.0000000000000000e+00 +7.1999998003465731e+00 -3.2414310007998298e-02 -5.9297014056725472e-01 +5.9133752340301549e-03
7.2999999999999901e+00 +8.1514905091840166e+00 +0.0000000000000000e+00 +7.2999997919115254e+00 -3.2414254838958968e-02 -5.9297031233900999e-01 +5.9134341136239501e-03
7.3999999999999897e+00 +8.1514488697565586e+00 +0.0000000000000000e+00 +7.3999997832421816e+00 -3.2414202236201409e-02 -5.9297048122939877e-01 +5.9134930846956590e-03
7.4999999999999893e+00 +8.1514066637962834e+00 +0.0000000000000000e+00 +7.4999997743353317e+00 -3.2414152502748754e-02 -5.9297064795845589e-01 +5.9135518591301589e-03
7.5999999999999890e+00 +8.1513638913030331e+00 +0.0000000000000000e+00 +7.5999997651877669e+00 -3.2414105941595307e-02 -5.9297081324619938e-01 +5.9136101488048137e-03
7.6999999999999886e+00 +8.1513205522766512e+00 +0.0000000000000000e+00 +7.6999997557962763e+00 -3.2414062855705299e-02 -5.9297097781262775e-01 +5.9136676655892062e-03
7.7999999999999883e+00 +8.1512766467169815e+00 +0.0000000000000000e+00 +7.7999997461576509e+00 -3.2414023548011962e-02 -5.9297114237771997e-01 +5.9137241213448833e-03
7.8999999999999879e+00 +8.1512321746238676e+00 +0.0000000000000000e+00 +7.8999997362686818e+00 -3.2413988321416509e-02 -5.9297130766143757e-01 +5.9137792279250990e-03
7.9999999999999876e+00 +8.1511871359971533e+00 +0.0000000000000000e+00 +7.9999997261261582e+00 -3.2413957478787059e-02 -5.9297147438372044e-01 +5.9138326971745498e-03
8.0999999999999872e+00 +8.1511415308366821e+00 +0.0000000000000000e+00 +8.0999997157268702e+00 -3.2413931278052741e-02 -5.9297164327839857e-01 +5.9138843281643389e-03
8.1999999999999869e+00 +8.1510953591422926e+00 +0.0000000000000000e+00 +8.1999997050676097e+00 -3.2413909797506996e-02 -5.9297181513494579e-01 +5.9139342689040822e-03
8.2999999999999865e+00 +8.1510486209138211e+00 +0.0000000000000000e+00 +8.2999996941451659e+00 -3.2413893070558926e-02 -5.9297199075680385e-01 +5.9139827546413172e-03
8.3999999999999861e+00 +8.1510013161511026e+00 +0.0000000000000000e+00 +8.3999996829563290e+00 -3.2413881130644862e-02 -5.9297217094748600e-01 +5.9140300206258793e-03
8.4999999999999858e+00 +8.1509534448539664e+00 +0.0000000000000000e+00 +8.4999996714978892e+00 -3.2413874011229082e-02 -5.9297235651057634e-01 +5.9140763021099897e-03
8.5999999999999854e+00 +8.1509050070222369e+00 +0.0000000000000000e+00 +8.5999996597666364e+00 -3.2413871745804741e-02 -5.9297254824973278e-01 +5.9141218343483244e-03
8.6999999999999851e+00 +8.1508560026557326e+00 +0.0000000000000000e+00 +8.6999996477593626e+00 -3.2413874367894731e-02 -5.9297274696869073e-01 +5.9141668525981303e-03
8.7999999999999847e+00 +8.1508064317542637e+00 +0.0000000000000000e+00 +8.7999996354728562e+00 -3.2413881911052496e-02 -5.9297295347126466e-01 +5.9142115921192989e-03
8.8999999999999844e+00 +8.1507562943176364e+00 +0.0000000000000000e+00 +8.8999996229039091e+00 -3.2413894408862817e-02 -5.9297316856134985e-01 +5.9142562881744579e-03
8.9999999999999840e+00 +8.1507055903456447e+00 +0.0000000000000000e+00 +8.9999996100493114e+00 -3.2413911894942797e-02 -5.9297339304292507e-01 +5.9143011760290588e-03
9.0999999999999837e+00 +8.1506543198380772e+00 +0.0000000000000000e+00 +9.0999995969058514e+00 -3.2413934402942567e-02 -5.9297362772005502e-01 +5.9143464909514705e-03
9.1999999999999833e+00 +8.1506024827947101e+00 +0.0000000000000000e+00 +9.1999995834703210e+00 -3.2413961966546202e-02 -5.9297387339689278e-01 +5.9143924682130674e-03
9.2999999999999829e+00 +8.1505500792153125e+00 +0.0000000000000000e+00 +9.2999995697395104e+00 -3.2413994619472551e-02 -5.9297413087768258e-01 +5.9144393430883152e-03
9.3999999999999826e+00 +8.1504971090996374e+00 +0.0000000000000000e+00 +9.3999995557102096e+00 -3.2414032395476036e-02 -5.9297440096675980e-01 +5.9144873508548629e-03
9.4999999999999822e+00 +8.1504435724474291e+00 +0.0000000000000000e+00 +9.4999995413792089e+00 -3.2414075328347516e-02 -5.9297468446855661e-01 +5.9145367267936250e-03
9.5999999999999819e+00 +8.1503894692584193e+00 +0.0000000000000000e+00 +9.5999995267432983e+00 -3.2414123451915217e-02 -5.9297498218760225e-01 +5.9145877061888893e-03
9.6999999999999815e+00 +8.1503347995323256e+00 +0.0000000000000000e+00 +9.6999995117992679e+00 -3.2414176800045366e-02 -5.9297529492852552e-01 +5.9146405243283833e-03
9.7999999999999812e+00 +8.1502795632688496e+00 +0.0000000000000000e+00 +9.7999994965439097e+00 -3.2414235406643233e-02 -5.9297562349605759e-01 +5.9146954165033780e-03
9.8999999999999808e+00 +8.1502237604676786e+00 +0.0000000000000000e+00 +9.8999994809740119e+00 -3.2414299305653857e-02 -5.9297596869503388e-01 +5.9147526180087671e-03
9.9999999999999805e+00 +8.1501673911284858e+00 +0.0000000000000000e+00 +9.9999994650863648e+00 -3.2414368531062852e-02 -5.9297633133039696e-01 +5.9148123641431637e-03
1.0099999999999980e+01 +8.1501104552509265e+00 +0.0000000000000000e+00 +1.0099999448877758e+01 -3.2414442997777862e-02 -5.9297671198511170e-01 +5.9148748247199777e-03
1.0199999999999980e+01 +8.1500529528346384e+00 +0.0000000000000000e+00 +1.0199999432344985e+01 -3.2414522144226014e-02 -5.9297711035383505e-01 +5.9149399075933591e-03
1.0299999999999979e+01 +8.1499948838792431e+00 +0.0000000000000000e+00 +1.0299999415484832e+01 -3.2414605289650573e-02 -5.9297752590907360e-01 +5.9150074551222740e-03
1.0399999999999979e+01 +8.1499362483843445e+00 +0.0000000000000000e+00 +1.0399999398294090e+01 -3.2414691753223264e-02 -5.9297795812326226e-01 +5.9150773096607627e-03
1.0499999999999979e+01 +8.1498770463495323e+00 +0.0000000000000000e+00 +1.0499999380769550e+01 -3.2414780854042362e-02 -5.9297840646876010e-01 +5.9151493135578357e-03
1.0599999999999978e+01 +8.1498172777743800e+00 +0.0000000000000000e+00 +1.0599999362908001e+01 -3.2414871911130821e-02 -5.9297887041784969e-01 +5.9152233091573315e-03
1.0699999999999978e+01 +8.1497569426584455e+00 +0.0000000000000000e+00 +1.0699999344706235e+01 -3.2414964243434381e-02 -5.9297934944273412e-01 +5.9152991387978011e-03
1.0799999999999978e+01 +8.1496960410012740e+00 +0.0000000000000000e+00 +1.0799999326161041e+01 -3.2415057169819628e-02 -5.9297984301553419e-01 +5.9153766448123805e-03
1.0899999999999977e+01 +8.1496345728023964e+00 +0.0000000000000000e+00 +1.0899999307269209e+01 -3.2415150009072212e-02 -5.9298035060828780e-01 +5.9154556695286652e-03
1.0999999999999977e+01 +8.1495725380613298e+00 +0.0000000000000000e+00 +1.0999999288027528e+01 -3.2415242079894893e-02 -5.9298087169294644e-01 +5.9155360552685891e-03
1.1099999999999977e+01 +8.1495099367775783e+00 +0.0000000000000000e+00 +1.1099999268432789e+01 -3.2415332700905686e-02 -5.9298140574137348e-01 +5.9156176443482889e-03
1.1199999999999976e+01 +8.1494467689506322e+00 +0.0000000000000000e+00 +1.1199999248481781e+01 -3.2415421190635972e-02 -5.9298195222534211e-01 +5.9157002790779971e-03
1.1299999999999976e+01 +8.1493830345799729e+00 +0.0000000000000000e+00 +1.1299999228171295e+01 -3.2415506867528615e-02 -5.9298251061653295e-01 +5.9157838017618973e-03
1.1399999999999975e+01 +8.1493187336650692e+00 +0.0000000000000000e+00 +1.1399999207498121e+01 -3.2415589049936112e-02 -5.9298308038653125e-01 +5.9158680546980130e-03
1.1499999999999975e+01 +8.1492538662053775e+00 +0.0000000000000000e+00 +1.1499999186459048e+01 -3.2415667056118667e-02 -5.9298366100682687e-01 +5.9159528801780784e-03
1.1599999999999975e+01 +8.1491884322003454e+00 +0.0000000000000000e+00 +1.1599999165050868e+01 -3.2415740204242358e-02 -5.9298425194880844e-01 +5.9160381204874119e-03
1.1699999999999974e+01 +8.1491224316494115e+00 +0.0000000000000000e+00 +1.1699999143270368e+01 -3.2415807812377267e-02 -5.9298485268376544e-01 +5.9161236179047982e-03
1.1799999999999974e+01 +8.1490558645520039e+00 +0.0000000000000000e+00 +1.1799999121114340e+01 -3.2415869198495539e-02 -5.9298546268288210e-01 +5.9162092147023466e-03
