# field on trajectory
# s[mm] rx[mm] ry[mm] rz[mm] bx[T] by[T] bz[T]
0.0000000000000000e+00 +8.1529999999999987e+00 +0.0000000000000000e+00 +0.0000000000000000e+00 -2.8082580678648720e-02 -5.3697734225366311e-01 +5.3793807049793809e-03
1.0000000000000001e-01 +8.1529997168893527e+00 +0.0000000000000000e+00 +9.9999999999465669e-02 -2.8082583191558801e-02 -5.3697749395906680e-01 +5.3793498600915321e-03
2.0000000000000001e-01 +8.1529988675573062e+00 +0.0000000000000000e+00 +1.9999999999572526e-01 -2.8082584973814839e-02 -5.3697765204565362e-01 +5.3793180573972321e-03
3.0000000000000004e-01 +8.1529974520036941e+00 +0.0000000000000000e+00 +2.9999999998557270e-01 -2.8082586427433821e-02 -5.3697781657093513e-01 +5.3792853374970574e-03
4.0000000000000002e-01 +8.1529954702283423e+00 +0.0000000000000000e+00 +3.9999999996580193e-01 -2.8082587954429479e-02 -5.3697798759242110e-01 +5.3792517409895690e-03
5.0000000000000000e-01 +8.1529929222310695e+00 +0.0000000000000000e+00 +4.9999999993320693e-01 -2.8082589956812988e-02 -5.3697816516762387e-01 +5.3792173084715057e-03
5.9999999999999998e-01 +8.1529898080116912e+00 +0.0000000000000000e+00 +5.9999999988458153e-01 -2.8082592836593343e-02 -5.3697834935405608e-01 +5.3791820805379458e-03
6.9999999999999996e-01 +8.1529861275700100e+00 +0.0000000000000000e+00 +6.9999999981671968e-01 -2.8082596995777989e-02 -5.3697854020923286e-01 +5.3791460977825013e-03
7.9999999999999993e-01 +8.1529818809058270e+00 +0.0000000000000000e+00 +7.9999999972641533e-01 -2.8082602836373264e-02 -5.3697873779067240e-01 +5.3791094007974898e-03
8.9999999999999991e-01 +8.1529770680189326e+00 +0.0000000000000000e+00 +8.9999999961046240e-01 -2.8082610760385034e-02 -5.3697894215589681e-01 +5.3790720301741205e-03
9.9999999999999989e-01 +8.1529716889091119e+00 +0.0000000000000000e+00 +9.9999999946565465e-01 -2.8082621169819116e-02 -5.3697915336243307e-01 +5.3790340265026729e-03
1.0999999999999999e+00 +8.1529657435761429e+00 +0.0000000000000000e+00 +1.0999999992887861e+00 -2.8082634466681841e-02 -5.3697937146781294e-01 +5.3789954303726743e-03
1.2000000000000000e+00 +8.1529592320197963e+00 +0.0000000000000000e+00 +1.1999999990766508e+00 -2.8082651052980617e-02 -5.3697959652957505e-01 +5.3789562823730848e-03
1.3000000000000000e+00 +8.1529521542398342e+00 +0.0000000000000000e+00 +1.2999999988260422e+00 -2.8082671330724406e-02 -5.3697982860526527e-01 +5.3789166230924718e-03
1.4000000000000001e+00 +8.1529445102360114e+00 +0.0000000000000000e+00 +1.3999999985337546e+00 -2.8082695701924305e-02 -5.3698006775243690e-01 +5.3788764931192003e-03
1.5000000000000002e+00 +8.1529363000080775e+00 +0.0000000000000000e+00 +1.4999999981965817e+00 -2.8082724568593995e-02 -5.3698031402865243e-01 +5.3788359330415999e-03
1.6000000000000003e+00 +8.1529275235557712e+00 +0.0000000000000000e+00 +1.5999999978113175e+00 -2.8082758332750365e-02 -5.3698056749148393e-01 +5.3787949834481538e-03
1.7000000000000004e+00 +8.1529181808788262e+00 +0.0000000000000000e+00 +1.6999999973747559e+00 -2.8082797396413960e-02 -5.3698082819851345e-01 +5.3787536849276779e-03
1.8000000000000005e+00 +8.1529082719769690e+00 +0.0000000000000000e+00 +1.7999999968836906e+00 -2.8082842161609545e-02 -5.3698109620733447e-01 +5.3787120780694996e-03
1.9000000000000006e+00 +8.1528977968499170e+00 +0.0000000000000000e+00 +1.8999999963349157e+00 -2.8082893030366603e-02 -5.3698137157555215e-01 +5.3786702034636404e-03
2.0000000000000004e+00 +8.1528867554973790e+00 +0.0000000000000000e+00 +1.9999999957252248e+00 -2.8082950404719937e-02 -5.3698165436078560e-01 +5.3786281017009982e-03
2.1000000000000005e+00 +8.1528751479190582e+00 +0.0000000000000000e+00 +2.0999999950514119e+00 -2.8083014538042194e-02 -5.3698194448900904e-01 +5.3785857817083820e-03
2.2000000000000006e+00 +8.1528629741146492e+00 +0.0000000000000000e+00 +2.1999999943102706e+00 -2.8083085089037858e-02 -5.3698224135957540e-01 +5.3785431257526630e-03
2.3000000000000007e+00 +8.1528502340838394e+00 +0.0000000000000000e+00 +2.2999999934985951e+00 -2.8083161567741887e-02 -5.3698254424017478e-01 +5.3784999844351854e-03
2.4000000000000008e+00 +8.1528369278263089e+00 +0.0000000000000000e+00 +2.3999999926131790e+00 -2.8083243484186459e-02 -5.3698285239848820e-01 +5.3784562083567314e-03
2.5000000000000009e+00 +8.1528230553417327e+00 +0.0000000000000000e+00 +2.4999999916508164e+00 -2.8083330348400545e-02 -5.3698316510218547e-01 +5.3784116481174803e-03
2.6000000000000010e+00 +8.1528086166297840e+00 +0.0000000000000000e+00 +2.5999999906083007e+00 -2.8083421670409326e-02 -5.3698348161892384e-01 +5.3783661543169801e-03
2.7000000000000011e+00 +8.1527936116901270e+00 +0.0000000000000000e+00 +2.6999999894824258e+00 -2.8083516960233805e-02 -5.3698380121634637e-01 +5.3783195775541064e-03
2.8000000000000012e+00 +8.1527780405224277e+00 +0.0000000000000000e+00 +2.7999999882699860e+00 -2.8083615727890282e-02 -5.3698412316207966e-01 +5.3782717684270308e-03
2.9000000000000012e+00 +8.1527619031263452e+00 +0.0000000000000000e+00 +2.8999999869677744e+00 -2.8083717483389854e-02 -5.3698444672373380e-01 +5.3782225775331873e-03
3.0000000000000013e+00 +8.1527451995015401e+00 +0.0000000000000000e+00 +2.9999999855725852e+00 -2.8083821736737940e-02 -5.3698477116889720e-01 +5.3781718554692303e-03
3.1000000000000014e+00 +8.1527279296476713e+00 +0.0000000000000000e+00 +3.0999999840812125e+00 -2.8083927997933789e-02 -5.3698509576513920e-01 +5.3781194528309990e-03
3.2000000000000015e+00 +8.1527100935643961e+00 +0.0000000000000000e+00 +3.1999999824904495e+00 -2.8084035776970041e-02 -5.3698541978000491e-01 +5.3780652202134868e-03
3.3000000000000016e+00 +8.1526916912513734e+00 +0.0000000000000000e+00 +3.2999999807970903e+00 -2.8084144583832186e-02 -5.3698574248101572e-01 +5.3780090082108135e-03
3.4000000000000017e+00 +8.1526727227082638e+00 +0.0000000000000000e+00 +3.3999999789979287e+00 -2.8084253928498077e-02 -5.3698606313566566e-01 +5.3779506674161669e-03
3.5000000000000018e+00 +8.1526531879347299e+00 +0.0000000000000000e+00 +3.4999999770897583e+00 -2.8084363320937514e-02 -5.3698638101142182e-01 +5.3778900484217880e-03
3.6000000000000019e+00 +8.1526330869304378e+00 +0.0000000000000000e+00 +3.5999999750693727e+00 -2.8084472271111691e-02 -5.3698669537572064e-01 +5.3778270018189269e-03
3.7000000000000020e+00 +8.1526124196950551e+00 +0.0000000000000000e+00 +3.6999999729335662e+00 -2.8084580288972739e-02 -5.3698700549596723e-01 +5.3777613781978116e-03
3.8000000000000020e+00 +8.1525911862282570e+00 +0.0000000000000000e+00 +3.7999999706791319e+00 -2.8084686884463247e-02 -5.3698731063953375e-01 +5.3776930281476017e-03
3.9000000000000021e+00 +8.1525693865297217e+00 +0.0000000000000000e+00 +3.8999999683028639e+00 -2.8084791567515782e-02 -5.3698761007375706e-01 +5.3776218022563681e-03
4.0000000000000018e+00 +8.1525470205991351e+00 +0.0000000000000000e+00 +3.9999999658015559e+00 -2.8084893848052375e-02 -5.3698790306593780e-01 +5.3775475511110490e-03
4.1000000000000014e+00 +8.1525240884361878e+00 +0.0000000000000000e+00 +4.0999999631720021e+00 -2.8084993269897038e-02 -5.3698818916642199e-01 +5.3774701598374138e-03
4.2000000000000011e+00 +8.1525005900405798e+00 +0.0000000000000000e+00 +4.1999999604109952e+00 -2.8085089512520828e-02 -5.3698846905786979e-01 +5.3773896517199729e-03
4.3000000000000007e+00 +8.1524765254120162e+00 +0.0000000000000000e+00 +4.2999999575153298e+00 -2.8085182289314607e-02 -5.3698874370602812e-01 +5.3773060845814990e-03
4.4000000000000004e+00 +8.1524518945502091e+00 +0.0000000000000000e+00 +4.3999999544817996e+00 -2.8085271313678436e-02 -5.3698901407665112e-01 +5.3772195162428323e-03
4.5000000000000000e+00 +8.1524266974548727e+00 +0.0000000000000000e+00 +4.4999999513071982e+00 -2.8085356299022226e-02 -5.3698928113550137e-01 +5.3771300045228048e-03
4.5999999999999996e+00 +8.1524009341257262e+00 +0.0000000000000000e+00 +4.5999999479883193e+00 -2.8085436958766460e-02 -5.3698954584835124e-01 +5.3770376072381750e-03
4.6999999999999993e+00 +8.1523746045624925e+00 +0.0000000000000000e+00 +4.6999999445219558e+00 -2.8085513006342946e-02 -5.3698980918098294e-01 +5.3769423822035518e-03
4.7999999999999989e+00 +8.1523477087648928e+00 +0.0000000000000000e+00 +4.7999999409049021e+00 -2.8085584155195509e-02 -5.3699007209919214e-01 +5.3768443872313212e-03
4.8999999999999986e+00 +8.1523202467326517e+00 +0.0000000000000000e+00 +4.8999999371339520e+00 -2.8085650118780656e-02 -5.3699033556878495e-01 +5.3767436801315793e-03
4.9999999999999982e+00 +8.1522922184654920e+00 +0.0000000000000000e+00 +4.9999999332058991e+00 -2.8085710610568387e-02 -5.3699060055558323e-01 +5.3766403187120596e-03
5.0999999999999979e+00 +8.1522636239631368e+00 +0.0000000000000000e+00 +5.0999999291175380e+00 -2.8085765344042814e-02 -5.3699086802542340e-01 +5.3765343607780477e-03
5.1999999999999975e+00 +8.1522344632253017e+00 +0.0000000000000000e+00 +5.1999999248656614e+00 -2.8085814032702942e-02 -5.3699113894415729e-01 +5.3764258641323262e-03
5.2999999999999972e+00 +8.1522047362517043e+00 +0.0000000000000000e+00 +5.2999999204470631e+00 -2.8085856390063359e-02 -5.3699141427765551e-01 +5.3763148865751008e-03
5.3999999999999968e+00 +8.1521744430420551e+00 +0.0000000000000000e+00 +5.3999999158585368e+00 -2.8085892129654965e-02 -5.3699169499180588e-01 +5.3762014859039167e-03
5.4999999999999964e+00 +8.1521435835960574e+00 +0.0000000000000000e+00 +5.4999999110968760e+00 -2.8085920965025622e-02 -5.3699198205251641e-01 +5.3760857199135976e-03
5.5999999999999961e+00 +8.1521121579134110e+00 +0.0000000000000000e+00 +5.5999999061588746e+00 -2.8085942609740951e-02 -5.3699227642571479e-01 +5.3759676463961603e-03
5.6999999999999957e+00 +8.1520801659938051e+00 +0.0000000000000000e+00 +5.6999999010413260e+00 -2.8085956777384995e-02 -5.3699257907735187e-01 +5.3758473231407611e-03
5.7999999999999954e+00 +8.1520476078369217e+00 +0.0000000000000000e+00 +5.7999998957410241e+00 -2.8085963181560935e-02 -5.3699289097340019e-01 +5.3757248079336073e-03
5.8999999999999950e+00 +8.1520144834424340e+00 +0.0000000000000000e+00 +5.8999998902547626e+00 -2.8085961535891810e-02 -5.3699321307985692e-01 +5.3756001585578963e-03
5.9999999999999947e+00 +8.1519807928100025e+00 +0.0000000000000000e+00 +5.9999998845793350e+00 -2.8085951554021240e-02 -5.3699354636274432e-01 +5.3754734327937335e-03
6.0999999999999943e+00 +8.1519465359392758e+00 +0.0000000000000000e+00 +6.0999998787115350e+00 -2.8085933146504306e-02 -5.3699389143512644e-01 +5.3753446832010051e-03
6.1999999999999940e+00 +8.1519117128298930e+00 +0.0000000000000000e+00 +6.1999998726481564e+00 -2.8085907011464892e-02 -5.3699424749815561e-01 +5.3752139414722276e-03
6.2999999999999936e+00 +8.1518763234814795e+00 +0.0000000000000000e+00 +6.2999998663859929e+00 -2.8085874043894499e-02 -5.3699461340002630e-01 +5.3750812340912502e-03
6.3999999999999932e+00 +8.1518403678936497e+00 +0.0000000000000000e+00 +6.3999998599218380e+00 -2.8085835138755240e-02 -5.3699498798896372e-01 +5.3749465875518147e-03
6.4999999999999929e+00 +8.1518038460660112e+00 +0.0000000000000000e+00 +6.4999998532524845e+00 -2.8085791190978582e-02 -5.3699537011322473e-01 +5.3748100283579773e-03
6.5999999999999925e+00 +8.1517667579981605e+00 +0.0000000000000000e+00 +6.5999998463747271e+00 -2.8085743095463977e-02 -5.3699575862109805e-01 +5.3746715830245689e-03
6.6999999999999922e+00 +8.1517291036896911e+00 +0.0000000000000000e+00 +6.6999998392853586e+00 -2.8085691747077587e-02 -5.3699615236090681e-01 +5.3745312780776140e-03
6.7999999999999918e+00 +8.1516908831401889e+00 +0.0000000000000000e+00 +6.7999998319811725e+00 -2.8085638040650961e-02 -5.3699655018100823e-01 +5.3743891400547849e-03
6.8999999999999915e+00 +8.1516520963492347e+00 +0.0000000000000000e+00 +6.8999998244589626e+00 -2.8085582870979682e-02 -5.3699695092979638e-01 +5.3742451955058283e-03
6.9999999999999911e+00 +8.1516127433164076e+00 +0.0000000000000000e+00 +6.9999998167155226e+00 -2.8085527132822124e-02 -5.3699735345570132e-01 +5.3740994709930061e-03
7.0999999999999908e+00 +8.1515728240412848e+00 +0.0000000000000000e+00 +7.0999998087476461e+00 -2.8085471720898068e-02 -5.3699775660719218e-01 +5.3739519930915448e-03
7.1999999999999904e+00 +8.1515323385234435e+00 +0.0000000000000000e+00 +7.1999998005521268e+00 -2.8085417529887406e-02 -5.3699815923277738e-01 +5.3738027883900533e-03
7.2999999999999901e+00 +8.1514912867624592e+00 +0.0000000000000000e+00 +7.2999997921257576e+00 -2.8085365454428843e-02 -5.3699856018100545e-01 +5.3736518834909854e-03
7.3999999999999897e+00 +8.1514496687579108e+00 +0.0000000000000000e+00 +7.3999997834653319e+00 -2.8085316389118549e-02 -5.3699895830046696e-01 +5.3734993050110584e-03
7.4999999999999893e+00 +8.1514074845093791e+00 +0.0000000000000000e+00 +7.4999997745676437e+00 -2.8085271228508873e-02 -5.3699935243979491e-01 +5.3733450795816987e-03
7.5999999999999890e+00 +8.1513647340164521e+00 +0.0000000000000000e+00 +7.5999997654294864e+00 -2.8085230867107021e-02 -5.3699974144766638e-01 +5.3731892338494888e-03
7.6999999999999886e+00 +8.1513214172787194e+00 +0.0000000000000000e+00 +7.6999997560476539e+00 -2.8085196199373746e-02 -5.3700012417280374e-01 +5.3730317944765942e-03
7.7999999999999883e+00 +8.1512775342957795e+00 +0.0000000000000000e+00 +7.7999997464189388e+00 -2.8085168119721966e-02 -5.3700049946397521e-01 +5.3728727881412067e-03
7.8999999999999879e+00 +8.1512330850672381e+00 +0.0000000000000000e+00 +7.8999997365401349e+00 -2.8085147522515556e-02 -5.3700086616999620e-01 +5.3727122415379832e-03
7.9999999999999876e+00 +8.1511880695927097e+00 +0.0000000000000000e+00 +7.9999997264080358e+00 -2.8085135302067948e-02 -5.3700122313973142e-01 +5.3725501813784845e-03
8.0999999999999872e+00 +8.1511424878718195e+00 +0.0000000000000000e+00 +8.0999997160194361e+00 -2.8085132132691364e-02 -5.3700156967873247e-01 +5.3723866633184078e-03
8.1999999999999869e+00 +8.1510963399042033e+00 +0.0000000000000000e+00 +8.1999997053711269e+00 -2.8085137808869828e-02 -5.3700190691913874e-01 +5.3722218587302709e-03
8.2999999999999865e+00 +8.1510496256895077e+00 +0.0000000000000000e+00 +8.2999996944599026e+00 -2.8085151905164332e-02 -5.3700223644970113e-01 +5.3720559679068716e-03
8.3999999999999861e+00 +8.1510023452273863e+00 +0.0000000000000000e+00 +8.3999996832825587e+00 -2.8085173996174783e-02 -5.3700255985912904e-01 +5.3718891911313758e-03
8.4999999999999858e+00 +8.1509544985174998e+00 +0.0000000000000000e+00 +8.4999996718358855e+00 -2.8085203656541536e-02 -5.3700287873608810e-01 +5.3717217286769559e-03
8.5999999999999854e+00 +8.1509060855595123e+00 +0.0000000000000000e+00 +8.5999996601166782e+00 -2.8085240460946837e-02 -5.3700319466919755e-01 +5.3715537808063825e-03
8.6999999999999851e+00 +8.1508571063530919e+00 +0.0000000000000000e+00 +8.6999996481217305e+00 -2.8085283984116249e-02 -5.3700350924702944e-01 +5.3713855477716200e-03
8.7999999999999847e+00 +8.1508075608979098e+00 +0.0000000000000000e+00 +8.7999996358478363e+00 -2.8085333800820185e-02 -5.3700382405810676e-01 +5.3712172298134592e-03
8.8999999999999844e+00 +8.1507574491936339e+00 +0.0000000000000000e+00 +8.8999996232917873e+00 -2.8085389485875363e-02 -5.3700414069090285e-01 +5.3710490271610999e-03
8.9999999999999840e+00 +8.1507067712399319e+00 +0.0000000000000000e+00 +8.9999996104503772e+00 -2.8085450614146263e-02 -5.3700446073383745e-01 +5.3708811400317727e-03
9.0999999999999837e+00 +8.1506555270364700e+00 +0.0000000000000000e+00 +9.0999995973204015e+00 -2.8085516760546568e-02 -5.3700478577527710e-01 +5.3707137686303348e-03
9.1999999999999833e+00 +8.1506037165829053e+00 +0.0000000000000000e+00 +9.1999995838986521e+00 -2.8085587500040723e-02 -5.3700511740353196e-01 +5.3705471131488790e-03
9.2999999999999829e+00 +8.1505513398788896e+00 +0.0000000000000000e+00 +9.2999995701819227e+00 -2.8085662407645273e-02 -5.3700545720685566e-01 +5.3703813737663421e-03
9.3999999999999826e+00 +8.1504983969240659e+00 +0.0000000000000000e+00 +9.3999995561670051e+00 -2.8085741058430480e-02 -5.3700580677344278e-01 +5.3702167506481102e-03
9.4999999999999822e+00 +8.1504448877180682e+00 +0.0000000000000000e+00 +9.4999995418506948e+00 -2.8085823027521682e-02 -5.3700616769142662e-01 +5.3700534439456177e-03
9.5999999999999819e+00 +8.1503908122605164e+00 +0.0000000000000000e+00 +9.5999995272297838e+00 -2.8085907890100785e-02 -5.3700654154887839e-01 +5.3698916537959678e-03
9.6999999999999815e+00 +8.1503361705510180e+00 +0.0000000000000000e+00 +9.6999995123010674e+00 -2.8085995221407808e-02 -5.3700692993380550e-01 +5.3697315803215235e-03
9.7999999999999812e+00 +8.1502809625891661e+00 +0.0000000000000000e+00 +9.7999994970613376e+00 -2.8086084596742233e-02 -5.3700733443414939e-01 +5.3695734236295194e-03
9.8999999999999808e+00 +8.1502251883745345e+00 +0.0000000000000000e+00 +9.8999994815073880e+00 -2.8086175591464570e-02 -5.3700775663778466e-01 +5.3694173838116652e-03
9.9999999999999805e+00 +8.1501688479066807e+00 +0.0000000000000000e+00 +9.9999994656360123e+00 -2.8086267780997813e-02 -5.3700819813251588e-01 +5.3692636609437598e-03
1.0099999999999980e+01 +8.1501119411851395e+00 +0.0000000000000000e+00 +1.0099999449444002e+01 -2.8086360775274165e-02 -5.3700866015011295e-01 +5.3691123930888719e-03
1.0199999999999980e+01 +8.1500544682094276e+00 +0.0000000000000000e+00 +1.0199999432928152e+01 -2.8086454322063168e-02 -5.3700914249841158e-01 +5.3689634703099091e-03
1.0299999999999979e+01 +8.1499964289790370e+00 +0.0000000000000000e+00 +1.0299999416085257e+01 -2.8086548203615391e-02 -5.3700964462925238e-01 +5.3688167206713952e-03
1.0399999999999979e+01 +8.1499378234934401e+00 +0.0000000000000000e+00 +1.0399999398912106e+01 -2.8086642202213737e-02 -5.3701016599446227e-01 +5.3686719722394454e-03
1.0499999999999979e+01 +8.1498786517520880e+00 +0.0000000000000000e+00 +1.0499999381405496e+01 -2.8086736100174096e-02 -5.3701070604585355e-01 +5.3685290530818257e-03
1.0599999999999978e+01 +8.1498189137544159e+00 +0.0000000000000000e+00 +1.0599999363562219e+01 -2.8086829679845896e-02 -5.3701126423522472e-01 +5.3683877912680134e-03
1.0699999999999978e+01 +8.1497586094998358e+00 +0.0000000000000000e+00 +1.0699999345379068e+01 -2.8086922723612750e-02 -5.3701184001435898e-01 +5.3682480148692629e-03
1.0799999999999978e+01 +8.1496977389877419e+00 +0.0000000000000000e+00 +1.0799999326852836e+01 -2.8087015013893064e-02 -5.3701243283502564e-01 +5.3681095519586570e-03
1.0899999999999977e+01 +8.1496363022175107e+00 +0.0000000000000000e+00 +1.0899999307980316e+01 -2.8087106333140592e-02 -5.3701304214897805e-01 +5.3679722306111703e-03
1.0999999999999977e+01 +8.1495742991885027e+00 +0.0000000000000000e+00 +1.0999999288758303e+01 -2.8087196463845120e-02 -5.3701366740795486e-01 +5.3678358789037359e-03
1.1099999999999977e+01 +8.1495117299000608e+00 +0.0000000000000000e+00 +1.1099999269183588e+01 -2.8087285188533009e-02 -5.3701430806367934e-01 +5.3677003249153026e-03
1.1199999999999976e+01 +8.1494485943515116e+00 +0.0000000000000000e+00 +1.1199999249252965e+01 -2.8087372289767820e-02 -5.3701496356785872e-01 +5.3675653967268887e-03
1.1299999999999976e+01 +8.1493848925421659e+00 +0.0000000000000000e+00 +1.1299999228963227e+01 -2.8087457550150938e-02 -5.3701563337218494e-01 +5.3674309224216567e-03
1.1399999999999975e+01 +8.1493206244713186e+00 +0.0000000000000000e+00 +1.1399999208311167e+01 -2.8087540752322167e-02 -5.3701631692833396e-01 +5.3672967300849601e-03
1.1499999999999975e+01 +8.1492557901382519e+00 +0.0000000000000000e+00 +1.1499999187293577e+01 -2.8087621678960294e-02 -5.3701701368796495e-01 +5.3671626478044073e-03
1.1599999999999975e+01 +8.1491903895422340e+00 +0.0000000000000000e+00 +1.1599999165907251e+01 -2.8087700112783772e-02 -5.3701772310272089e-01 +5.3670285036699298e-03
1.1699999999999974e+01 +8.1491244226825170e+00 +0.0000000000000000e+00 +1.1699999144148983e+01 -2.8087775836551251e-02 -5.3701844462422821e-01 +5.3668941257738337e-03
1.1799999999999974e+01 +8.1490578895583443e+00 +0.0000000000000000e+00 +1.1799999122015564e+01 -2.8087848633062223e-02 -5.3701917770409713e-01 +5.3667593422108695e-03
