# trajectory
# s[mm] rx[mm] ry[mm] rz[mm] px[rad] py[rad] pz[rad]
0.0000000000000000e+00 +8.1649999999999991e+00 +0.0000000000000000e+00 +0.0000000000000000e+00 +0.0000000000000000e+00 +0.0000000000000000e+00 +1.0000000000000000e+00
-1.0000000000000001e-01 +8.1649997168579418e+00 +0.0000000000000000e+00 -9.9999999999465558e-02 +5.6628406735341659e-06 +0.0000000000000000e+00 +9.9999999998396616e-01
-2.0000000000000001e-01 +8.1649988674319580e+00 +0.0000000000000000e+00 -1.9999999999572432e-01 +1.1325678494314508e-05 +0.0000000000000000e+00 +9.9999999993586453e-01
-3.0000000000000004e-01 +8.1649974517223445e+00 +0.0000000000000000e+00 -2.9999999998556953e-01 +1.6988513268286774e-05 +0.0000000000000000e+00 +9.9999999985569521e-01
-4.0000000000000002e-01 +8.1649954697294120e+00 +0.0000000000000000e+00 -3.9999999996579444e-01 +2.2651344820119344e-05 +0.0000000000000000e+00 +9.9999999974345832e-01
-5.0000000000000000e-01 +8.1649929214534929e+00 +0.0000000000000000e+00 -4.9999999993319227e-01 +2.8314172993203303e-05 +0.0000000000000000e+00 +9.9999999959915387e-01
-5.9999999999999998e-01 +8.1649898068949316e+00 +0.0000000000000000e+00 -5.9999999988455632e-01 +3.3976997649652507e-05 +0.0000000000000000e+00 +9.9999999942278184e-01
-6.9999999999999996e-01 +8.1649861260540852e+00 +0.0000000000000000e+00 -6.9999999981667971e-01 +3.9639818670303672e-05 +0.0000000000000000e+00 +9.9999999921434246e-01
-7.9999999999999993e-01 +8.1649818789313233e+00 +0.0000000000000000e+00 -7.9999999972635583e-01 +4.5302635954716440e-05 +0.0000000000000000e+00 +9.9999999897383562e-01
-8.9999999999999991e-01 +8.1649770655270224e+00 +0.0000000000000000e+00 -8.9999999961037791e-01 +5.0965449421173444e-05 +0.0000000000000000e+00 +9.9999999870126155e-01
-9.9999999999999989e-01 +8.1649716858415680e+00 +0.0000000000000000e+00 -9.9999999946553919e-01 +5.6628259006680389e-05 +0.0000000000000000e+00 +9.9999999839662024e-01
-1.0999999999999999e+00 +8.1649657398753508e+00 +0.0000000000000000e+00 -1.0999999992886331e+00 +6.2291064666966149e-05 +0.0000000000000000e+00 +9.9999999805991169e-01
-1.2000000000000000e+00 +8.1649592276287652e+00 +0.0000000000000000e+00 -1.1999999990764527e+00 +6.7953866376482794e-05 +0.0000000000000000e+00 +9.9999999769113612e-01
-1.3000000000000000e+00 +8.1649521491022075e+00 +0.0000000000000000e+00 -1.2999999988257913e+00 +7.3616664128405706e-05 +0.0000000000000000e+00 +9.9999999729029343e-01
-1.4000000000000001e+00 +8.1649445042960718e+00 +0.0000000000000000e+00 -1.3999999985334424e+00 +7.9279457934633652e-05 +0.0000000000000000e+00 +9.9999999685738383e-01
-1.5000000000000002e+00 +8.1649362932107508e+00 +0.0000000000000000e+00 -1.4999999981961991e+00 +8.4942247825788822e-05 +0.0000000000000000e+00 +9.9999999639240733e-01
-1.6000000000000003e+00 +8.1649275158466352e+00 +0.0000000000000000e+00 -1.5999999978108548e+00 +9.0605033851216945e-05 +0.0000000000000000e+00 +9.9999999589536404e-01
-1.7000000000000004e+00 +8.1649181722041071e+00 +0.0000000000000000e+00 -1.6999999973742028e+00 +9.6267816078987337e-05 +0.0000000000000000e+00 +9.9999999536625395e-01
-1.8000000000000005e+00 +8.1649082622835429e+00 +0.0000000000000000e+00 -1.7999999968830367e+00 +1.0193059459589301e-04 +0.0000000000000000e+00 +9.9999999480507706e-01
-1.9000000000000006e+00 +8.1648977860853087e+00 +0.0000000000000000e+00 -1.8999999963341494e+00 +1.0759336950745072e-04 +0.0000000000000000e+00 +9.9999999421183350e-01
-2.0000000000000004e+00 +8.1648867436097579e+00 +0.0000000000000000e+00 -1.9999999957243344e+00 +1.1325614093790103e-04 +0.0000000000000000e+00 +9.9999999358652336e-01
-2.1000000000000005e+00 +8.1648751348572315e+00 +0.0000000000000000e+00 -2.0999999950503851e+00 +1.1891890902931069e-04 +0.0000000000000000e+00 +9.9999999292914665e-01
-2.2000000000000006e+00 +8.1648629598280582e+00 +0.0000000000000000e+00 -2.1999999943090947e+00 +1.2458167393169733e-04 +0.0000000000000000e+00 +9.9999999223970337e-01
-2.3000000000000007e+00 +8.1648502185225471e+00 +0.0000000000000000e+00 -2.2999999934972566e+00 +1.3024443579315431e-04 +0.0000000000000000e+00 +9.9999999151819363e-01
-2.4000000000000008e+00 +8.1648369109409966e+00 +0.0000000000000000e+00 -2.3999999926116642e+00 +1.3590719475895294e-04 +0.0000000000000000e+00 +9.9999999076461732e-01
-2.5000000000000009e+00 +8.1648230370836874e+00 +0.0000000000000000e+00 -2.4999999916491111e+00 +1.4156995097154251e-04 +0.0000000000000000e+00 +9.9999998997897455e-01
-2.6000000000000010e+00 +8.1648085969508895e+00 +0.0000000000000000e+00 -2.5999999906063902e+00 +1.4723270457055038e-04 +0.0000000000000000e+00 +9.9999998916126542e-01
-2.7000000000000011e+00 +8.1647935905428568e+00 +0.0000000000000000e+00 -2.6999999894802951e+00 +1.5289545569278202e-04 +0.0000000000000000e+00 +9.9999998831148984e-01
-2.8000000000000012e+00 +8.1647780178598293e+00 +0.0000000000000000e+00 -2.7999999882676190e+00 +1.5855820447222092e-04 +0.0000000000000000e+00 +9.9999998742964791e-01
-2.9000000000000012e+00 +8.1647618789020360e+00 +0.0000000000000000e+00 -2.8999999869651556e+00 +1.6422095104002876e-04 +0.0000000000000000e+00 +9.9999998651573963e-01
-3.0000000000000013e+00 +8.1647451736696901e+00 +0.0000000000000000e+00 -2.9999999855696982e+00 +1.6988369552454533e-04 +0.0000000000000000e+00 +9.9999998556976499e-01
-3.1000000000000014e+00 +8.1647279021629959e+00 +0.0000000000000000e+00 -3.0999999840780399e+00 +1.7554643805128860e-04 +0.0000000000000000e+00 +9.9999998459172401e-01
-3.2000000000000015e+00 +8.1647100643821418e+00 +0.0000000000000000e+00 -3.1999999824869740e+00 +1.8120917874295470e-04 +0.0000000000000000e+00 +9.9999998358161668e-01
-3.3000000000000016e+00 +8.1646916603273052e+00 +0.0000000000000000e+00 -3.2999999807932943e+00 +1.8687191771941795e-04 +0.0000000000000000e+00 +9.9999998253944311e-01
-3.4000000000000017e+00 +8.1646726899986515e+00 +0.0000000000000000e+00 -3.3999999789937938e+00 +1.9253465509773085e-04 +0.0000000000000000e+00 +9.9999998146520319e-01
-3.5000000000000018e+00 +8.1646531533963351e+00 +0.0000000000000000e+00 -3.4999999770852659e+00 +1.9819739099212412e-04 +0.0000000000000000e+00 +9.9999998035889703e-01
-3.6000000000000019e+00 +8.1646330505204983e+00 +0.0000000000000000e+00 -3.5999999750645042e+00 +2.0386012551400665e-04 +0.0000000000000000e+00 +9.9999997922052453e-01
-3.7000000000000020e+00 +8.1646123813712741e+00 +0.0000000000000000e+00 -3.6999999729283020e+00 +2.0952285877196550e-04 +0.0000000000000000e+00 +9.9999997805008567e-01
-3.8000000000000020e+00 +8.1645911459487834e+00 +0.0000000000000000e+00 -3.7999999706734524e+00 +2.1518559087176594e-04 +0.0000000000000000e+00 +9.9999997684758057e-01
-3.9000000000000021e+00 +8.1645693442531364e+00 +0.0000000000000000e+00 -3.8999999682967492e+00 +2.2084832191635135e-04 +0.0000000000000000e+00 +9.9999997561300913e-01
-4.0000000000000018e+00 +8.1645469762844325e+00 +0.0000000000000000e+00 -3.9999999657949856e+00 +2.2651105200584330e-04 +0.0000000000000000e+00 +9.9999997434637145e-01
-4.1000000000000014e+00 +8.1645240420427641e+00 +0.0000000000000000e+00 -4.0999999631649544e+00 +2.3217378123720049e-04 +0.0000000000000000e+00 +9.9999997304766741e-01
-4.2000000000000011e+00 +8.1645005415282110e+00 +0.0000000000000000e+00 -4.1999999604034501e+00 +2.3783650970046768e-04 +0.0000000000000000e+00 +9.9999997171689703e-01
-4.3000000000000007e+00 +8.1644764747408463e+00 +0.0000000000000000e+00 -4.2999999575072652e+00 +2.4349923747502466e-04 +0.0000000000000000e+00 +9.9999997035406030e-01
-4.4000000000000004e+00 +8.1644518416807355e+00 +0.0000000000000000e+00 -4.3999999544731931e+00 +2.4916196462924499e-04 +0.0000000000000000e+00 +9.9999996895915733e-01
-4.5000000000000000e+00 +8.1644266423479390e+00 +0.0000000000000000e+00 -4.4999999512980278e+00 +2.5482469122049589e-04 +0.0000000000000000e+00 +9.9999996753218801e-01
-4.5999999999999996e+00 +8.1644008767425085e+00 +0.0000000000000000e+00 -4.5999999479785618e+00 +2.6048741729513784e-04 +0.0000000000000000e+00 +9.9999996607315234e-01
-4.6999999999999993e+00 +8.1643745448644953e+00 +0.0000000000000000e+00 -4.6999999445115890e+00 +2.6615014288852457e-04 +0.0000000000000000e+00 +9.9999996458205032e-01
-4.7999999999999989e+00 +8.1643476467139457e+00 +0.0000000000000000e+00 -4.7999999408939029e+00 +2.7181286802500264e-04 +0.0000000000000000e+00 +9.9999996305888195e-01
-4.8999999999999986e+00 +8.1643201822909042e+00 +0.0000000000000000e+00 -4.8999999371222964e+00 +2.7747559271791127e-04 +0.0000000000000000e+00 +9.9999996150364723e-01
-4.9999999999999982e+00 +8.1642921515954168e+00 +0.0000000000000000e+00 -4.9999999331935632e+00 +2.8313831696958204e-04 +0.0000000000000000e+00 +9.9999995991634616e-01
-5.0999999999999979e+00 +8.1642635546275262e+00 +0.0000000000000000e+00 -5.0999999291044968e+00 +2.8880104077133860e-04 +0.0000000000000000e+00 +9.9999995829697874e-01
-5.1999999999999975e+00 +8.1642343913872786e+00 +0.0000000000000000e+00 -5.1999999248518902e+00 +2.9446376410349642e-04 +0.0000000000000000e+00 +9.9999995664554509e-01
-5.2999999999999972e+00 +8.1642046618747219e+00 +0.0000000000000000e+00 -5.2999999204325370e+00 +3.0012648693536243e-04 +0.0000000000000000e+00 +9.9999995496204508e-01
-5.3999999999999968e+00 +8.1641743660899095e+00 +0.0000000000000000e+00 -5.3999999158432308e+00 +3.0578920922523468e-04 +0.0000000000000000e+00 +9.9999995324647883e-01
-5.4999999999999964e+00 +8.1641435040328965e+00 +0.0000000000000000e+00 -5.4999999110807645e+00 +3.1145193092040209e-04 +0.0000000000000000e+00 +9.9999995149884635e-01
-5.5999999999999961e+00 +8.1641120757037466e+00 +0.0000000000000000e+00 -5.5999999061419317e+00 +3.1711465195714399e-04 +0.0000000000000000e+00 +9.9999994971914763e-01
-5.6999999999999957e+00 +8.1640800811025294e+00 +0.0000000000000000e+00 -5.6999999010235252e+00 +3.2277737226072984e-04 +0.0000000000000000e+00 +9.9999994790738278e-01
-5.7999999999999954e+00 +8.1640475202293210e+00 +0.0000000000000000e+00 -5.7999998957223395e+00 +3.2844009174541876e-04 +0.0000000000000000e+00 +9.9999994606355180e-01
-5.8999999999999950e+00 +8.1640143930842104e+00 +0.0000000000000000e+00 -5.8999998902351667e+00 +3.3410281031445932e-04 +0.0000000000000000e+00 +9.9999994418765470e-01
-5.9999999999999947e+00 +8.1639806996672935e+00 +0.0000000000000000e+00 -5.9999998845588012e+00 +3.3976552786008898e-04 +0.0000000000000000e+00 +9.9999994227969158e-01
-6.0999999999999943e+00 +8.1639464399786768e+00 +0.0000000000000000e+00 -6.0999998786900358e+00 +3.4542824426466280e-04 +0.0000000000000000e+00 +9.9999994033966244e-01
-6.1999999999999940e+00 +8.1639116140184811e+00 +0.0000000000000000e+00 -6.1999998726256642e+00 +3.5109095941307403e-04 +0.0000000000000000e+00 +9.9999993836756740e-01
-6.2999999999999936e+00 +8.1638762217868379e+00 +0.0000000000000000e+00 -6.2999998663624801e+00 +3.5675367320517468e-04 +0.0000000000000000e+00 +9.9999993636340645e-01
-6.3999999999999932e+00 +8.1638402632838876e+00 +0.0000000000000000e+00 -6.3999998598972763e+00 +3.6241638555690526e-04 +0.0000000000000000e+00 +9.9999993432717971e-01
-6.4999999999999929e+00 +8.1638037385097775e+00 +0.0000000000000000e+00 -6.4999998532268464e+00 +3.6807909640029513e-04 +0.0000000000000000e+00 +9.9999993225888728e-01
-6.5999999999999925e+00 +8.1637666474646604e+00 +0.0000000000000000e+00 -6.5999998463479841e+00 +3.7374180568346290e-04 +0.0000000000000000e+00 +9.9999993015852906e-01
-6.6999999999999922e+00 +8.1637289901486945e+00 +0.0000000000000000e+00 -6.6999998392574831e+00 +3.7940451337061681e-04 +0.0000000000000000e+00 +9.9999992802610516e-01
-6.7999999999999918e+00 +8.1636907665620395e+00 +0.0000000000000000e+00 -6.7999998319521362e+00 +3.8506721944205530e-04 +0.0000000000000000e+00 +9.9999992586161568e-01
-6.8999999999999915e+00 +8.1636519767048590e+00 +0.0000000000000000e+00 -6.8999998244287370e+00 +3.9072992389416753e-04 +0.0000000000000000e+00 +9.9999992366506052e-01
-6.9999999999999911e+00 +8.1636126205773145e+00 +0.0000000000000000e+00 -6.9999998166840793e+00 +3.9639262673943365e-04 +0.0000000000000000e+00 +9.9999992143643979e-01
-7.0999999999999908e+00 +8.1635726981795642e+00 +0.0000000000000000e+00 -7.0999998087149558e+00 +4.0205532800642558e-04 +0.0000000000000000e+00 +9.9999991917575348e-01
-7.1999999999999904e+00 +8.1635322095117644e+00 +0.0000000000000000e+00 -7.1999998005181611e+00 +4.0771802773980741e-04 +0.0000000000000000e+00 +9.9999991688300160e-01
-7.2999999999999901e+00 +8.1634911545740660e+00 +0.0000000000000000e+00 -7.2999997920904880e+00 +4.1338072600033594e-04 +0.0000000000000000e+00 +9.9999991455818416e-01
-7.3999999999999897e+00 +8.1634495333666113e+00 +0.0000000000000000e+00 -7.3999997834287292e+00 +4.1904342286486142e-04 +0.0000000000000000e+00 +9.9999991220130113e-01
-7.4999999999999893e+00 +8.1634073458895369e+00 +0.0000000000000000e+00 -7.4999997745296794e+00 +4.2470611842632794e-04 +0.0000000000000000e+00 +9.9999990981235254e-01
-7.5999999999999890e+00 +8.1633645921429672e+00 +0.0000000000000000e+00 -7.5999997653901312e+00 +4.3036881279377422e-04 +0.0000000000000000e+00 +9.9999990739133837e-01
-7.6999999999999886e+00 +8.1633212721270141e+00 +0.0000000000000000e+00 -7.6999997560068785e+00 +4.3603150609233414e-04 +0.0000000000000000e+00 +9.9999990493825852e-01
-7.7999999999999883e+00 +8.1632773858417789e+00 +0.0000000000000000e+00 -7.7999997463767139e+00 +4.4169419846323745e-04 +0.0000000000000000e+00 +9.9999990245311299e-01
-7.8999999999999879e+00 +8.1632329332873468e+00 +0.0000000000000000e+00 -7.8999997364964321e+00 +4.4735689006381051e-04 +0.0000000000000000e+00 +9.9999989993590166e-01
-7.9999999999999876e+00 +8.1631879144637853e+00 +0.0000000000000000e+00 -7.9999997263628257e+00 +4.5301958106747688e-04 +0.0000000000000000e+00 +9.9999989738662454e-01
-8.0999999999999872e+00 +8.1631423293711460e+00 +0.0000000000000000e+00 -8.0999997159726878e+00 +4.5868227166311136e-04 +0.0000000000000000e+00 +9.9999989480528151e-01
-8.1999999999999869e+00 +8.1630961780094591e+00 +0.0000000000000000e+00 -8.1999997053228135e+00 +4.6434496204792646e-04 +0.0000000000000000e+00 +9.9999989219187246e-01
-8.2999999999999865e+00 +8.1630494603787369e+00 +0.0000000000000000e+00 -8.2999996944099941e+00 +4.7000765242035823e-04 +0.0000000000000000e+00 +9.9999988954639740e-01
-8.3999999999999861e+00 +8.1630021764789689e+00 +0.0000000000000000e+00 -8.3999996832310231e+00 +4.7567034297941909e-04 +0.0000000000000000e+00 +9.9999988686885621e-01
-8.4999999999999858e+00 +8.1629543263101283e+00 +0.0000000000000000e+00 -8.4999996717826960e+00 +4.8133303392469738e-04 +0.0000000000000000e+00 +9.9999988415924868e-01
-8.5999999999999854e+00 +8.1629059098721655e+00 +0.0000000000000000e+00 -8.5999996600618047e+00 +4.8699572545635677e-04 +0.0000000000000000e+00 +9.9999988141757479e-01
-8.6999999999999851e+00 +8.1628569271650111e+00 +0.0000000000000000e+00 -8.6999996480651429e+00 +4.9265841777513598e-04 +0.0000000000000000e+00 +9.9999987864383444e-01
-8.7999999999999847e+00 +8.1628073781885782e+00 +0.0000000000000000e+00 -8.7999996357895025e+00 +4.9832111108234821e-04 +0.0000000000000000e+00 +9.9999987583802752e-01
-8.8999999999999844e+00 +8.1627572629427565e+00 +0.0000000000000000e+00 -8.8999996232316789e+00 +5.0398380557988053e-04 +0.0000000000000000e+00 +9.9999987300015392e-01
-8.9999999999999840e+00 +8.1627065814274165e+00 +0.0000000000000000e+00 -8.9999996103884641e+00 +5.0964650147019338e-04 +0.0000000000000000e+00 +9.9999987013021341e-01
-9.0999999999999837e+00 +8.1626553336424088e+00 +0.0000000000000000e+00 -9.0999995972566516e+00 +5.1530919895631999e-04 +0.0000000000000000e+00 +9.9999986722820600e-01
-9.1999999999999833e+00 +8.1626035195875648e+00 +0.0000000000000000e+00 -9.1999995838330353e+00 +5.2097189824186604e-04 +0.0000000000000000e+00 +9.9999986429413146e-01
-9.2999999999999829e+00 +8.1625511392626944e+00 +0.0000000000000000e+00 -9.2999995701144087e+00 +5.2663459953100871e-04 +0.0000000000000000e+00 +9.9999986132798968e-01
-9.3999999999999826e+00 +8.1624981926675861e+00 +0.0000000000000000e+00 -9.3999995560975638e+00 +5.3229730302849633e-04 +0.0000000000000000e+00 +9.9999985832978056e-01
-9.4999999999999822e+00 +8.1624446798020092e+00 +0.0000000000000000e+00 -9.4999995417792960e+00 +5.3796000893964772e-04 +0.0000000000000000e+00 +9.9999985529950397e-01
-9.5999999999999819e+00 +8.1623906006657112e+00 +0.0000000000000000e+00 -9.5999995271563971e+00 +5.4362271747035158e-04 +0.0000000000000000e+00 +9.9999985223715970e-01
-9.6999999999999815e+00 +8.1623359552584205e+00 +0.0000000000000000e+00 -9.6999995122256593e+00 +5.4928542882706571e-04 +0.0000000000000000e+00 +9.9999984914274753e-01
-9.7999999999999812e+00 +8.1622807435798439e+00 +0.0000000000000000e+00 -9.7999994969838777e+00 +5.5494814321681632e-04 +0.0000000000000000e+00 +9.9999984601626735e-01
-9.8999999999999808e+00 +8.1622249656296688e+00 +0.0000000000000000e+00 -9.8999994814278445e+00 +5.6061086084719769e-04 +0.0000000000000000e+00 +9.9999984285771903e-01
-9.9999999999999805e+00 +8.1621686214075595e+00 +0.0000000000000000e+00 -9.9999994655543532e+00 +5.6627358192637097e-04 +0.0000000000000000e+00 +9.9999983966710237e-01
-1.0099999999999980e+01 +8.1621117109131607e+00 +0.0000000000000000e+00 -1.0099999449360196e+01 +5.7193630666224984e-04 +0.0000000000000000e+00 +9.9999983644441726e-01
-1.0199999999999980e+01 +8.1620542341460975e+00 +0.0000000000000000e+00 -1.0199999432842167e+01 +5.7759903525354502e-04 +0.0000000000000000e+00 +9.9999983318966335e-01
-1.0299999999999979e+01 +8.1619961911059757e+00 +0.0000000000000000e+00 -1.0299999415997060e+01 +5.8326176788080968e-04 +0.0000000000000000e+00 +9.9999982990284064e-01
-1.0399999999999979e+01 +8.1619375817923814e+00 +0.0000000000000000e+00 -1.0399999398821667e+01 +5.8892450470562528e-04 +0.0000000000000000e+00 +9.9999982658394893e-01
-1.0499999999999979e+01 +8.1618784062048899e+00 +0.0000000000000000e+00 -1.0499999381312781e+01 +5.9458724587060181e-04 +0.0000000000000000e+00 +9.9999982323298797e-01
-1.0599999999999978e+01 +8.1618186643430590e+00 +0.0000000000000000e+00 -1.0599999363467196e+01 +6.0024999149937801e-04 +0.0000000000000000e+00 +9.9999981984995767e-01
-1.0699999999999978e+01 +8.1617583562064375e+00 +0.0000000000000000e+00 -1.0699999345281704e+01 +6.0591274169662156e-04 +0.0000000000000000e+00 +9.9999981643485791e-01
-1.0799999999999978e+01 +8.1616974817945636e+00 +0.0000000000000000e+00 -1.0799999326753099e+01 +6.1157549654802898e-04 +0.0000000000000000e+00 +9.9999981298768859e-01
-1.0899999999999977e+01 +8.1616360411069699e+00 +0.0000000000000000e+00 -1.0899999307878174e+01 +6.1723825612032622e-04 +0.0000000000000000e+00 +9.9999980950844947e-01
-1.0999999999999977e+01 +8.1615740341431806e+00 +0.0000000000000000e+00 -1.0999999288653720e+01 +6.2290102046126856e-04 +0.0000000000000000e+00 +9.9999980599714056e-01
-1.1099999999999977e+01 +8.1615114609027177e+00 +0.0000000000000000e+00 -1.1099999269076532e+01 +6.2856378959964094e-04 +0.0000000000000000e+00 +9.9999980245376174e-01
-1.1199999999999976e+01 +8.1614483213850999e+00 +0.0000000000000000e+00 -1.1199999249143403e+01 +6.3422656354525809e-04 +0.0000000000000000e+00 +9.9999979887831292e-01
-1.1299999999999976e+01 +8.1613846155898475e+00 +0.0000000000000000e+00 -1.1299999228851126e+01 +6.3988934228896479e-04 +0.0000000000000000e+00 +9.9999979527079397e-01
-1.1399999999999975e+01 +8.1613203435164827e+00 +0.0000000000000000e+00 -1.1399999208196494e+01 +6.4555212580263597e-04 +0.0000000000000000e+00 +9.9999979163120489e-01
-1.1499999999999975e+01 +8.1612555051645295e+00 +0.0000000000000000e+00 -1.1499999187176298e+01 +6.5121491403917703e-04 +0.0000000000000000e+00 +9.9999978795954558e-01
-1.1599999999999975e+01 +8.1611901005335188e+00 +0.0000000000000000e+00 -1.1599999165787334e+01 +6.5687770693252418e-04 +0.0000000000000000e+00 +9.9999978425581604e-01
-1.1699999999999974e+01 +8.1611241296229906e+00 +0.0000000000000000e+00 -1.1699999144026393e+01 +6.6254050439764440e-04 +0.0000000000000000e+00 +9.9999978052001615e-01
