# field on trajectory
# s[mm] rx[mm] ry[mm] rz[mm] bx[T] by[T] bz[T]
0.0000000000000000e+00 +8.1530000000000094e+00 +0.0000000000000000e+00 +0.0000000000000000e+00 -3.2918146770876268e-02 -5.9234707646601115e-01 +5.8750484986072327e-03
1.0000000000000001e-01 +8.1529997163925092e+00 +0.0000000000000000e+00 +9.9999999999463796e-02 -3.2918301235000107e-02 -5.9234691721504185e-01 +5.8750998425696832e-03
2.0000000000000001e-01 +8.1529988655711296e+00 +0.0000000000000000e+00 +1.9999999999571000e-01 -3.2918463053364121e-02 -5.9234676941378617e-01 +5.8751515653122687e-03
2.9999999999999999e-01 +8.1529974475415692e+00 +0.0000000000000000e+00 +2.9999999998552201e-01 -3.2918632140465802e-02 -5.9234663366135498e-01 +5.8752037243226364e-03
4.0000000000000002e-01 +8.1529954622965306e+00 +0.0000000000000000e+00 +3.9999999996568197e-01 -3.2918808410802129e-02 -5.9234651055696419e-01 +5.8752563770905321e-03
5.0000000000000000e-01 +8.1529929098396696e+00 +0.0000000000000000e+00 +4.9999999993297300e-01 -3.2918991778861963e-02 -5.9234640069973699e-01 +5.8753095811057933e-03
5.9999999999999998e-01 +8.1529897901673394e+00 +0.0000000000000000e+00 +5.9999999988417696e-01 -3.2919182159135474e-02 -5.9234630468884952e-01 +5.8753633938598438e-03
6.9999999999999996e-01 +8.1529861032831796e+00 +0.0000000000000000e+00 +6.9999999981607697e-01 -3.2919379466110413e-02 -5.9234622312341367e-01 +5.8754178728444868e-03
8.0000000000000004e-01 +8.1529818491871993e+00 +0.0000000000000000e+00 +7.9999999972545699e-01 -3.2919583614278547e-02 -5.9234615660256063e-01 +5.8754730755527802e-03
9.0000000000000002e-01 +8.1529770278793894e+00 +0.0000000000000000e+00 +8.9999999960909804e-01 -3.2919794518136300e-02 -5.9234610572541269e-01 +5.8755290594787457e-03
1.0000000000000000e+00 +8.1529716393597500e+00 +0.0000000000000000e+00 +9.9999999946378304e-01 -3.2920012092186826e-02 -5.9234607109107928e-01 +5.8755858821173401e-03
1.1000000000000001e+00 +8.1529656836210105e+00 +0.0000000000000000e+00 +1.0999999992862901e+00 -3.2920236250945076e-02 -5.9234605329871592e-01 +5.8756436009650527e-03
1.2000000000000000e+00 +8.1529591606740706e+00 +0.0000000000000000e+00 +1.1999999990734200e+00 -3.2920466908929559e-02 -5.9234605294731502e-01 +5.8757022735177866e-03
1.3000000000000000e+00 +8.1529520705153100e+00 +0.0000000000000000e+00 +1.2999999988219300e+00 -3.2920703980677708e-02 -5.9234607063597000e-01 +5.8757619572735488e-03
1.3999999999999999e+00 +8.1529444131410909e+00 +0.0000000000000000e+00 +1.3999999985286200e+00 -3.2920947380741986e-02 -5.9234610696375645e-01 +5.8758227097312479e-03
1.5000000000000000e+00 +8.1529361885550298e+00 +0.0000000000000000e+00 +1.4999999981902701e+00 -3.2921197023689161e-02 -5.9234616252967032e-01 +5.8758845883900698e-03
1.6000000000000001e+00 +8.1529273967571498e+00 +0.0000000000000000e+00 +1.5999999978036501e+00 -3.2921452824106710e-02 -5.9234623793271468e-01 +5.8759476507503705e-03
1.7000000000000000e+00 +8.1529180377474404e+00 +0.0000000000000000e+00 +1.6999999973655600e+00 -3.2921714696603467e-02 -5.9234633377186974e-01 +5.8760119543133692e-03
1.8000000000000000e+00 +8.1529081115222706e+00 +0.0000000000000000e+00 +1.7999999968727800e+00 -3.2921982555813245e-02 -5.9234645064611979e-01 +5.8760775565814280e-03
1.8999999999999999e+00 +8.1528976180852606e+00 +0.0000000000000000e+00 +1.8999999963220899e+00 -3.2922256316392375e-02 -5.9234658915436345e-01 +5.8761445150571504e-03
2.0000000000000000e+00 +8.1528865574327902e+00 +0.0000000000000000e+00 +1.9999999957102601e+00 -3.2922535893027821e-02 -5.9234674989552982e-01 +5.8762128872445639e-03
2.1000000000000001e+00 +8.1528749295721408e+00 +0.0000000000000000e+00 +2.0999999950340902e+00 -3.2922821007849302e-02 -5.9234693313773401e-01 +5.8762827377501752e-03
2.2000000000000002e+00 +8.1528627344960096e+00 +0.0000000000000000e+00 +2.1999999942903599e+00 -3.2923110612681862e-02 -5.9234713782641113e-01 +5.8763541595921939e-03
2.2999999999999998e+00 +8.1528499722080596e+00 +0.0000000000000000e+00 +2.2999999934758399e+00 -3.2923403466761765e-02 -5.9234736257621023e-01 +5.8764272528894637e-03
2.3999999999999999e+00 +8.1528366427046404e+00 +0.0000000000000000e+00 +2.3999999925873299e+00 -3.2923698329321405e-02 -5.9234760600184078e-01 +5.8765021177600314e-03
2.5000000000000000e+00 +8.1528227459894005e+00 +0.0000000000000000e+00 +2.4999999916215998e+00 -3.2923993959581163e-02 -5.9234786671795669e-01 +5.8765788543196978e-03
2.6000000000000001e+00 +8.1528082820659602e+00 +0.0000000000000000e+00 +2.5999999905754398e+00 -3.2924289116750237e-02 -5.9234814333921892e-01 +5.8766575626824063e-03
2.7000000000000002e+00 +8.1527932509234198e+00 +0.0000000000000000e+00 +2.6999999894456299e+00 -3.2924582560030252e-02 -5.9234843448041330e-01 +5.8767383429612066e-03
2.7999999999999998e+00 +8.1527776525726896e+00 +0.0000000000000000e+00 +2.7999999882289601e+00 -3.2924873048598403e-02 -5.9234873875615879e-01 +5.8768212952650112e-03
2.8999999999999999e+00 +8.1527614870065008e+00 +0.0000000000000000e+00 +2.8999999869222002e+00 -3.2925159341621428e-02 -5.9234905478123356e-01 +5.8769065197016830e-03
3.0000000000000000e+00 +8.1527447542284808e+00 +0.0000000000000000e+00 +2.9999999855221300e+00 -3.2925440198241653e-02 -5.9234938117034175e-01 +5.8769941163753954e-03
3.1000000000000001e+00 +8.1527274542386294e+00 +0.0000000000000000e+00 +3.0999999840255499e+00 -3.2925714377580698e-02 -5.9234971653823265e-01 +5.8770841853876083e-03
3.2000000000000002e+00 +8.1527095870333106e+00 +0.0000000000000000e+00 +3.1999999824292300e+00 -3.2925980638737265e-02 -5.9235005949970321e-01 +5.8771768268368321e-03
3.2999999999999998e+00 +8.1526911526198091e+00 +0.0000000000000000e+00 +3.2999999807299600e+00 -3.2926237740779039e-02 -5.9235040866948119e-01 +5.8772721408172010e-03
3.3999999999999999e+00 +8.1526721509872004e+00 +0.0000000000000000e+00 +3.3999999789245101e+00 -3.2926484442752334e-02 -5.9235076266246500e-01 +5.8773702274206403e-03
3.5000000000000000e+00 +8.1526525821464002e+00 +0.0000000000000000e+00 +3.4999999770096801e+00 -3.2926719503663632e-02 -5.9235112009339963e-01 +5.8774711867333376e-03
3.6000000000000001e+00 +8.1526324460901396e+00 +0.0000000000000000e+00 +3.5999999749822500e+00 -3.2926941682493667e-02 -5.9235147957720335e-01 +5.8775751188388159e-03
3.7000000000000002e+00 +8.1526117428220495e+00 +0.0000000000000000e+00 +3.6999999728389801e+00 -3.2927149738183392e-02 -5.9235183972873429e-01 +5.8776821238152943e-03
3.7999999999999998e+00 +8.1525904723421299e+00 +0.0000000000000000e+00 +3.7999999705766800e+00 -3.2927342429637692e-02 -5.9235219916291104e-01 +5.8777923017366692e-03
3.8999999999999999e+00 +8.1525686346503807e+00 +0.0000000000000000e+00 +3.8999999681921298e+00 -3.2927518515721739e-02 -5.9235255649468344e-01 +5.8779057526719735e-03
4.0000000000000000e+00 +8.1525462297431694e+00 +0.0000000000000000e+00 +3.9999999656820902e+00 -3.2927676755260253e-02 -5.9235291033906512e-01 +5.8780225766854547e-03
4.0999999999999996e+00 +8.1525232576241304e+00 +0.0000000000000000e+00 +4.0999999630433699e+00 -3.2927816353137504e-02 -5.9235325954205198e-01 +5.8781428113612285e-03
4.2000000000000002e+00 +8.1524997182896204e+00 +0.0000000000000000e+00 +4.1999999602727298e+00 -3.2927938298642739e-02 -5.9235360387373448e-01 +5.8782662443842880e-03
4.2999999999999998e+00 +8.1524756117469206e+00 +0.0000000000000000e+00 +4.2999999573669703e+00 -3.2928044027177694e-02 -5.9235394333510716e-01 +5.8783926009668549e-03
4.4000000000000004e+00 +8.1524509379887604e+00 +0.0000000000000000e+00 +4.3999999543228601e+00 -3.2928134974165711e-02 -5.9235427792726270e-01 +5.8785216063258292e-03
4.5000000000000000e+00 +8.1524256970187707e+00 +0.0000000000000000e+00 +4.4999999511372000e+00 -3.2928212575042949e-02 -5.9235460765118575e-01 +5.8786529856809646e-03
4.5999999999999996e+00 +8.1523998888369498e+00 +0.0000000000000000e+00 +4.5999999478067499e+00 -3.2928278265265835e-02 -5.9235493250786875e-01 +5.8787864642563872e-03
4.7000000000000002e+00 +8.1523735134396702e+00 +0.0000000000000000e+00 +4.6999999443283098e+00 -3.2928333480312474e-02 -5.9235525249831011e-01 +5.8789217672808843e-03
4.7999999999999998e+00 +8.1523465708305594e+00 +0.0000000000000000e+00 +4.7999999406986600e+00 -3.2928379655679803e-02 -5.9235556762342512e-01 +5.8790586199872893e-03
4.9000000000000004e+00 +8.1523190610096208e+00 +0.0000000000000000e+00 +4.8999999369145701e+00 -3.2928418226889418e-02 -5.9235587788413291e-01 +5.8791967476136912e-03
5.0000000000000000e+00 +8.1522909839768491e+00 +0.0000000000000000e+00 +4.9999999329728402e+00 -3.2928450629487717e-02 -5.9235618328132555e-01 +5.8793358754034384e-03
5.0999999999999996e+00 +8.1522623397286207e+00 +0.0000000000000000e+00 +5.0999999288702398e+00 -3.2928478299048741e-02 -5.9235648381589556e-01 +5.8794757286057117e-03
5.2000000000000002e+00 +8.1522331282685592e+00 +0.0000000000000000e+00 +5.1999999246035600e+00 -3.2928502671171318e-02 -5.9235677948864729e-01 +5.8796160324749444e-03
5.2999999999999998e+00 +8.1522033495966806e+00 +0.0000000000000000e+00 +5.2999999201695802e+00 -3.2928525181484966e-02 -5.9235707030038232e-01 +5.8797565122720042e-03
5.4000000000000004e+00 +8.1521730037093203e+00 +0.0000000000000000e+00 +5.3999999155650800e+00 -3.2928547265651371e-02 -5.9235735625190056e-01 +5.8798968932645005e-03
5.5000000000000000e+00 +8.1521420906137791e+00 +0.0000000000000000e+00 +5.4999999107868396e+00 -3.2928570359359983e-02 -5.9235763734387792e-01 +5.8800369007258680e-03
5.5999999999999996e+00 +8.1521106102991308e+00 +0.0000000000000000e+00 +5.5999999058316599e+00 -3.2928595898341316e-02 -5.9235791357710388e-01 +5.8801762599380884e-03
5.7000000000000002e+00 +8.1520785627762997e+00 +0.0000000000000000e+00 +5.6999999006963096e+00 -3.2928625318352230e-02 -5.9235818495215287e-01 +5.8803146961886495e-03
5.7999999999999998e+00 +8.1520459480379905e+00 +0.0000000000000000e+00 +5.7999998953775700e+00 -3.2928660055193570e-02 -5.9235845146970978e-01 +5.8804519347741818e-03
5.9000000000000004e+00 +8.1520127660915005e+00 +0.0000000000000000e+00 +5.8999998898722197e+00 -3.2928701544698485e-02 -5.9235871313030097e-01 +5.8805877009980249e-03
5.9999999999999902e+00 +8.1519790169259103e+00 +0.0000000000000000e+00 +5.9999998841770603e+00 -3.2928751222747098e-02 -5.9235896993456061e-01 +5.8807217201732528e-03
6.0999999999999899e+00 +8.1519447005521197e+00 +0.0000000000000000e+00 +6.0999998782888598e+00 -3.2928810231461624e-02 -5.9235922189467116e-01 +5.8808537842207241e-03
6.1999999999999904e+00 +8.1519098169665103e+00 +0.0000000000000000e+00 +6.1999998722044003e+00 -3.2928878537832225e-02 -5.9235946906998416e-01 +5.8809839514718512e-03
6.2999999999999901e+00 +8.1518743661654298e+00 +0.0000000000000000e+00 +6.2999998659204701e+00 -3.2928955815056823e-02 -5.9235971153163136e-01 +5.8811123468553743e-03
6.3999999999999897e+00 +8.1518383481488907e+00 +0.0000000000000000e+00 +6.3999998594338496e+00 -3.2929041736327602e-02 -5.9235994935073111e-01 +5.8812390952940781e-03
6.4999999999999902e+00 +8.1518017629241495e+00 +0.0000000000000000e+00 +6.4999998527413201e+00 -3.2929135974829243e-02 -5.9236018259836298e-01 +5.8813643217042110e-03
6.5999999999999899e+00 +8.1517646104839496e+00 +0.0000000000000000e+00 +6.5999998458396698e+00 -3.2929238203747192e-02 -5.9236041134574358e-01 +5.8814881509970073e-03
6.6999999999999904e+00 +8.1517268908319203e+00 +0.0000000000000000e+00 +6.6999998387256703e+00 -3.2929348096257006e-02 -5.9236063566402164e-01 +5.8816107080762944e-03
6.7999999999999901e+00 +8.1516886039680703e+00 +0.0000000000000000e+00 +6.7999998313961196e+00 -3.2929465325529851e-02 -5.9236085562439711e-01 +5.8817321178394177e-03
6.8999999999999897e+00 +8.1516497498923908e+00 +0.0000000000000000e+00 +6.8999998238477902e+00 -3.2929589564730535e-02 -5.9236107129809379e-01 +5.8818525051766548e-03
6.9999999999999902e+00 +8.1516103286012402e+00 +0.0000000000000000e+00 +6.9999998160774597e+00 -3.2929720487018671e-02 -5.9236128275638811e-01 +5.8819719949712483e-03
7.0999999999999899e+00 +8.1515703400982602e+00 +0.0000000000000000e+00 +7.0999998080819298e+00 -3.2929857765543691e-02 -5.9236149007052252e-01 +5.8820907120981890e-03
7.1999999999999904e+00 +8.1515297843834595e+00 +0.0000000000000000e+00 +7.1999997998579603e+00 -3.2930001073449046e-02 -5.9236169331179556e-01 +5.8822087814248700e-03
7.2999999999999901e+00 +8.1514886614531896e+00 +0.0000000000000000e+00 +7.2999997914023496e+00 -3.2930150083871616e-02 -5.9236189255156269e-01 +5.8823263278107892e-03
7.3999999999999897e+00 +8.1514469713147300e+00 +0.0000000000000000e+00 +7.3999997827118804e+00 -3.2930304469935501e-02 -5.9236208786111844e-01 +5.8824434761060610e-03
7.4999999999999902e+00 +8.1514047139571595e+00 +0.0000000000000000e+00 +7.4999997737833199e+00 -3.2930463904763348e-02 -5.9236227931193464e-01 +5.8825603511535474e-03
7.5999999999999899e+00 +8.1513618893914099e+00 +0.0000000000000000e+00 +7.5999997646134698e+00 -3.2930628061459792e-02 -5.9236246697533701e-01 +5.8826770777852646e-03
7.6999999999999904e+00 +8.1513184976138309e+00 +0.0000000000000000e+00 +7.6999997551991104e+00 -3.2930796613125660e-02 -5.9236265092279938e-01 +5.8827937808251093e-03
7.7999999999999901e+00 +8.1512745386207808e+00 +0.0000000000000000e+00 +7.7999997455370096e+00 -3.2930969232851881e-02 -5.9236283122583067e-01 +5.8829105850873769e-03
7.8999999999999897e+00 +8.1512300124159101e+00 +0.0000000000000000e+00 +7.8999997356239602e+00 -3.2931145593715822e-02 -5.9236300795591201e-01 +5.8830276153758639e-03
7.9999999999999902e+00 +8.1511849189955701e+00 +0.0000000000000000e+00 +7.9999997254567399e+00 -3.2931325368787040e-02 -5.9236318118461928e-01 +5.8831449964848138e-03
8.0999999999999908e+00 +8.1511392583670403e+00 +0.0000000000000000e+00 +8.0999997150321406e+00 -3.2931508220738905e-02 -5.9236335126523210e-01 +5.8832628276645690e-03
8.1999999999999904e+00 +8.1510930305230396e+00 +0.0000000000000000e+00 +8.1999997043469399e+00 -3.2931693770714018e-02 -5.9236351967821976e-01 +5.8833811060312342e-03
8.2999999999999901e+00 +8.1510462354672200e+00 +0.0000000000000000e+00 +8.2999996933979094e+00 -3.2931881629450439e-02 -5.9236368818576557e-01 +5.8834998031734136e-03
8.3999999999999897e+00 +8.1509988731995708e+00 +0.0000000000000000e+00 +8.3999996821818605e+00 -3.2932071407667095e-02 -5.9236385855012608e-01 +5.8836188906881987e-03
8.4999999999999893e+00 +8.1509509437164507e+00 +0.0000000000000000e+00 +8.4999996706955496e+00 -3.2932262716062949e-02 -5.9236403253363346e-01 +5.8837383401814658e-03
8.5999999999999908e+00 +8.1509024470215099e+00 +0.0000000000000000e+00 +8.5999996589357703e+00 -3.2932455165312055e-02 -5.9236421189860633e-01 +5.8838581232672407e-03
8.6999999999999904e+00 +8.1508533831147396e+00 +0.0000000000000000e+00 +8.6999996468993004e+00 -3.2932648366067262e-02 -5.9236439840744048e-01 +5.8839782115689227e-03
8.7999999999999794e+00 +8.1508037519961398e+00 +0.0000000000000000e+00 +8.7999996345829192e+00 -3.2932841928958040e-02 -5.9236459382258044e-01 +5.8840985767192417e-03
8.8999999999999808e+00 +8.1507535536620708e+00 +0.0000000000000000e+00 +8.8999996219834205e+00 -3.2933035464591386e-02 -5.9236479990655067e-01 +5.8842191903608803e-03
8.9999999999999805e+00 +8.1507027881161793e+00 +0.0000000000000000e+00 +8.9999996090975891e+00 -3.2933228583546713e-02 -5.9236501842186695e-01 +5.8843400241458399e-03
9.0999999999999801e+00 +8.1506514553584601e+00 +0.0000000000000000e+00 +9.0999995959221902e+00 -3.2933420896379552e-02 -5.9236525113112759e-01 +5.8844610497366433e-03
9.1999999999999797e+00 +8.1505995553889097e+00 +0.0000000000000000e+00 +9.1999995824540193e+00 -3.2933612013619516e-02 -5.9236549979698461e-01 +5.8845822388063291e-03
9.2999999999999794e+00 +8.1505470882038900e+00 +0.0000000000000000e+00 +9.2999995686898593e+00 -3.2933801545771066e-02 -5.9236576618217363e-01 +5.8847035630390310e-03
9.3999999999999808e+00 +8.1504940538070496e+00 +0.0000000000000000e+00 +9.3999995546264898e+00 -3.2933989103308380e-02 -5.9236605204942794e-01 +5.8848249941293755e-03
9.4999999999999805e+00 +8.1504404521983798e+00 +0.0000000000000000e+00 +9.4999995402606903e+00 -3.2934174296679247e-02 -5.9236635916156721e-01 +5.8849465037836644e-03
9.5999999999999801e+00 +8.1503862833778804e+00 +0.0000000000000000e+00 +9.5999995255892507e+00 -3.2934356736302843e-02 -5.9236668928147040e-01 +5.8850680637198916e-03
9.6999999999999797e+00 +8.1503315473419207e+00 +0.0000000000000000e+00 +9.6999995106089507e+00 -3.2934536032570509e-02 -5.9236704417210462e-01 +5.8851896456682921e-03
9.7999999999999794e+00 +8.1502762440941297e+00 +0.0000000000000000e+00 +9.7999994953165697e+00 -3.2934711795840801e-02 -5.9236742559643896e-01 +5.8853112213707714e-03
9.8999999999999808e+00 +8.1502203736345091e+00 +0.0000000000000000e+00 +9.8999994797088906e+00 -3.2934883636443139e-02 -5.9236783531753512e-01 +5.8854327625820716e-03
9.9999999999999805e+00 +8.1501639359594300e+00 +0.0000000000000000e+00 +9.9999994637827001e+00 -3.2935051164677182e-02 -5.9236827509854673e-01 +5.8855542410700748e-03
1.0100000000000000e+01 +8.1501069310761505e+00 +0.0000000000000000e+00 +1.0099999447534801e+01 -3.2935214071984492e-02 -5.9236874606513457e-01 +5.8856756423247870e-03
1.0199999999999999e+01 +8.1500493589774106e+00 +0.0000000000000000e+00 +1.0199999430961901e+01 -3.2935372374520933e-02 -5.9236924679317604e-01 +5.8857970066825797e-03
1.0300000000000001e+01 +8.1499912196668394e+00 +0.0000000000000000e+00 +1.0299999414060901e+01 -3.2935526169649634e-02 -5.9236977522089695e-01 +5.8859183881786667e-03
1.0400000000000000e+01 +8.1499325131444493e+00 +0.0000000000000000e+00 +1.0399999396828500e+01 -3.2935675554772718e-02 -5.9237032928646416e-01 +5.8860398408354568e-03
1.0500000000000000e+01 +8.1498732394065900e+00 +0.0000000000000000e+00 +1.0499999379261400e+01 -3.2935820627332454e-02 -5.9237090692798267e-01 +5.8861614186622021e-03
1.0600000000000000e+01 +8.1498133984568994e+00 +0.0000000000000000e+00 +1.0599999361356600e+01 -3.2935961484807735e-02 -5.9237150608340572e-01 +5.8862831756537259e-03
1.0699999999999999e+01 +8.1497529902953794e+00 +0.0000000000000000e+00 +1.0699999343110701e+01 -3.2936098224719677e-02 -5.9237212469061928e-01 +5.8864051657909764e-03
1.0800000000000001e+01 +8.1496920149220404e+00 +0.0000000000000000e+00 +1.0799999324520600e+01 -3.2936230944631058e-02 -5.9237276068741085e-01 +5.8865274430403699e-03
1.0900000000000000e+01 +8.1496304723332305e+00 +0.0000000000000000e+00 +1.0899999305583000e+01 -3.2936359742148910e-02 -5.9237341201149718e-01 +5.8866500613537409e-03
1.1000000000000000e+01 +8.1495683625325892e+00 +0.0000000000000000e+00 +1.0999999286294800e+01 -3.2936484714921159e-02 -5.9237407660043151e-01 +5.8867730746670587e-03
1.1100000000000000e+01 +8.1495056855201309e+00 +0.0000000000000000e+00 +1.1099999266652601e+01 -3.2936605960642025e-02 -5.9237475239169179e-01 +5.8868965369009941e-03
1.1199999999999999e+01 +8.1494424412958306e+00 +0.0000000000000000e+00 +1.1199999246653300e+01 -3.2936723577051547e-02 -5.9237543732264619e-01 +5.8870205019602544e-03
1.1300000000000001e+01 +8.1493786298560700e+00 +0.0000000000000000e+00 +1.1299999226293700e+01 -3.2936837661938251e-02 -5.9237612933058237e-01 +5.8871450237335289e-03
1.1400000000000000e+01 +8.1493142512044905e+00 +0.0000000000000000e+00 +1.1399999205570500e+01 -3.2936948313135601e-02 -5.9237682635261490e-01 +5.8872701560922103e-03
1.1500000000000000e+01 +8.1492493053447106e+00 +0.0000000000000000e+00 +1.1499999184480499e+01 -3.2937055628526057e-02 -5.9237752632574281e-01 +5.8873959528906658e-03
1.1600000000000000e+01 +8.1491837922658306e+00 +0.0000000000000000e+00 +1.1599999163020600e+01 -3.2937159706048047e-02 -5.9237822718696431e-01 +5.8875224679670723e-03
1.1699999999999999e+01 +8.1491177119787608e+00 +0.0000000000000000e+00 +1.1699999141187400e+01 -3.2937260643682187e-02 -5.9237892687297977e-01 +5.8876497551400312e-03
1.1800000000000001e+01 +8.1490510644762306e+00 +0.0000000000000000e+00 +1.1799999118977800e+01 -3.2937358539468560e-02 -5.9237962332051353e-01 +5.8877778682115446e-03
