# multipoles
# s[mm] polynom_b[n=0][T/m^n] polynom_b[n=1][T/m^n] polynom_b[n=2][T/m^n] polynom_b[n=3][T/m^n] polynom_b[n=4][T/m^n] polynom_b[n=5][T/m^n] polynom_b[n=6][T/m^n] 
+0.0000000000000000e+00 -5.3659794929859672e-01 +7.3522150174314245e+00 -9.2676009225093003e-01 -4.3473677739690771e+01 +6.7511659602405025e+03 -1.1033516044618034e+04 -3.6495693827358589e+07 
-1.0000000000000001e-01 -5.3659779913914107e-01 +7.3522223470434938e+00 -9.2827912053908124e-01 -4.3679596103767636e+01 +6.7508369663038757e+03 -1.0060951775303003e+04 -3.6449989981040820e+07 
-2.0000000000000001e-01 -5.3659766319765467e-01 +7.3522347638679184e+00 -9.2969562378761994e-01 -4.3963593826492215e+01 +6.7527416961565341e+03 -8.7594053221563154e+03 -3.6423521574198939e+07 
-3.0000000000000004e-01 -5.3659754117348601e-01 +7.3522517823352329e+00 -9.3104006166713571e-01 -4.4317011279200457e+01 +6.7571554832393367e+03 -7.1675933883536582e+03 -3.6416602430228166e+07 
-4.0000000000000002e-01 -5.3659743276597716e-01 +7.3522729168660463e+00 -9.3234289577694140e-01 -4.4731188587159863e+01 +6.7643537053490190e+03 -5.3242339761200910e+03 -3.6429546601848520e+07 
-5.0000000000000000e-01 -5.3659733767449602e-01 +7.3522976818843890e+00 -9.3363458575764580e-01 -4.5197465995386935e+01 +6.7746117080710328e+03 -3.2680443307045152e+03 -3.6462667997009873e+07 
-5.9999999999999998e-01 -5.3659725559840665e-01 +7.3523255918154486e+00 -9.3494559194795990e-01 -4.5707183813118114e+01 +6.7882048523280982e+03 -1.0377412466762780e+03 -3.6516280600950010e+07 
-6.9999999999999996e-01 -5.3659718623710073e-01 +7.3523561610794230e+00 -9.3630637193648170e-01 -4.6251682227781764e+01 +6.8054084487588407e+03 +1.3279578194490343e+03 -3.6590698162170269e+07 
-7.9999999999999993e-01 -5.3659712928994918e-01 +7.3523889041012795e+00 -9.3774738595716212e-01 -4.6822301590607189e+01 +6.8264978574007282e+03 +3.7903364037118472e+03 -3.6686234659560755e+07 
-8.9999999999999991e-01 -5.3659708445634013e-01 +7.3524233353055779e+00 -9.3929909260664712e-01 -4.7410382259852753e+01 +6.8517484089689924e+03 +6.3106780954073174e+03 -3.6803203935694776e+07 
-9.9999999999999989e-01 -5.3659705143564329e-01 +7.3524589691198248e+00 -9.4099195265463098e-01 -4.8007264695230710e+01 +6.8814354726289066e+03 +8.8502670699147693e+03 -3.6941920007277675e+07 
-1.0999999999999999e+00 -5.3659702992723091e-01 +7.3524953199693641e+00 -9.4285642640164347e-01 -4.8604289309539212e+01 +6.9158344058087123e+03 +1.1370387208346829e+04 -3.7102696826340199e+07 
-1.2000000000000000e+00 -5.3659701963046391e-01 +7.3525319022844347e+00 -9.4492297498403532e-01 -4.9192796672297163e+01 +6.9552205772488151e+03 +1.3832323274659831e+04 -3.7285848386945426e+07 
-1.3000000000000000e+00 -5.3659702024468015e-01 +7.3525682305010758e+00 -9.4722206211190352e-01 -4.9764127529430837e+01 +6.9998693988049981e+03 +1.6197360993821292e+04 -3.7491688871276319e+07 
-1.4000000000000001e+00 -5.3659703146921589e-01 +7.3526038190520655e+00 -9.4978415109538483e-01 -5.0309622551202509e+01 +7.0500562703059877e+03 +1.8426785612507552e+04 -3.7720532393126249e+07 
-1.5000000000000002e+00 -5.3659705300335947e-01 +7.3526381823818969e+00 -9.5263971012546811e-01 -5.0820622734121422e+01 +7.1060566746519380e+03 +2.0481884130225561e+04 -3.7972693436854817e+07 
-1.6000000000000003e+00 -5.3659708454641020e-01 +7.3526708349318488e+00 -9.5581920534788045e-01 -5.1288469002310329e+01 +7.1681460480732894e+03 +2.2323943065836538e+04 -3.8248486243266292e+07 
-1.7000000000000004e+00 -5.3659712579762664e-01 +7.3527012911512868e+00 -9.5935310612814584e-01 -5.1704502515027322e+01 +7.2365998749078844e+03 +2.3914250182548538e+04 -3.8548225249783903e+07 
-1.8000000000000005e+00 -5.3659717645622484e-01 +7.3527290654957138e+00 -9.6327188691213406e-01 -5.2060064596944734e+01 +7.3116937314385932e+03 +2.5214094030863664e+04 -3.8872225319485195e+07 
-1.9000000000000006e+00 -5.3659723622139810e-01 +7.3527536724238542e+00 -9.6760602211464219e-01 -5.2346496678371018e+01 +7.3937031723493074e+03 +2.6184763659927274e+04 -3.9220801159376152e+07 
-2.0000000000000004e+00 -5.3659730479230427e-01 +7.3527746264058100e+00 -9.7238599007227300e-01 -5.2555140502173032e+01 +7.4829038205570250e+03 +2.6787549726662295e+04 -3.9594267785716958e+07 
-2.1000000000000005e+00 -5.3659738182994243e-01 +7.3527915819198677e+00 -9.7762762194944508e-01 -5.2680203087466388e+01 +7.5793783297749214e+03 +2.6997371398548876e+04 -3.9992353640995815e+07 
-2.2000000000000006e+00 -5.3659746684807164e-01 +7.3528047509382501e+00 -9.8328930349970867e-01 -5.2727425195682187e+01 +7.6824613267902987e+03 +2.6844387214548602e+04 -4.0412552227805592e+07 
-2.3000000000000007e+00 -5.3659755932500763e-01 +7.3528144841872836e+00 -9.8931533799726656e-01 -5.2705449330983562e+01 +7.7913063464025217e+03 +2.6372746842603025e+04 -4.0851826201871745e+07 
-2.4000000000000008e+00 -5.3659765873906462e-01 +7.3528211323870600e+00 -9.9565002828831606e-01 -5.2622917833490469e+01 +7.9050669132331732e+03 +2.5626599073688489e+04 -4.1307138169765711e+07 
-2.5000000000000009e+00 -5.3659776456857367e-01 +7.3528250462642619e+00 -1.0022376758314873e+00 -5.2488473228139981e+01 +8.0228965337607306e+03 +2.4650093797702033e+04 -4.1775450678676799e+07 
-2.6000000000000010e+00 -5.3659787629189926e-01 +7.3528265765333831e+00 -1.0090225773657162e+00 -5.2310757708433307e+01 +8.1439486226894032e+03 +2.3487379099559792e+04 -4.2253725837681316e+07 
-2.7000000000000011e+00 -5.3659799338739078e-01 +7.3528260739070577e+00 -1.0159490318529645e+00 -5.2098413401328060e+01 +8.2673766451377687e+03 +2.2182602715397054e+04 -4.2738926024788529e+07 
-2.8000000000000012e+00 -5.3659811533342883e-01 +7.3528238890955819e+00 -1.0229613348774993e+00 -5.1860082390071142e+01 +8.3923340076949571e+03 +2.0779912271258156e+04 -4.3228013359252848e+07 
-2.9000000000000012e+00 -5.3659824160843106e-01 +7.3528203728024417e+00 -1.0300037771299930e+00 -5.1604406551817902e+01 +8.5179740262202376e+03 +1.9323454273733671e+04 -4.3717949541184001e+07 
-3.0000000000000013e+00 -5.3659837169082603e-01 +7.3528158757259368e+00 -1.0370206486902922e+00 -5.1340027625431297e+01 +8.6434500170110114e+03 +1.7857374561705416e+04 -4.4205696313088298e+07 
-3.1000000000000014e+00 -5.3659850505907092e-01 +7.3528107485536136e+00 -1.0439562362824688e+00 -5.1075587046682450e+01 +8.7679152370724332e+03 +1.6425817364936574e+04 -4.4688215152993575e+07 
-3.2000000000000015e+00 -5.3659864119166190e-01 +7.3528053419743200e+00 -1.0507548220017622e+00 -5.0819726282621467e+01 +8.8905228640082878e+03 +1.5072927204730271e+04 -4.5162467192853957e+07 
-3.3000000000000016e+00 -5.3659877956711743e-01 +7.3528000066611758e+00 -1.0573606860282061e+00 -5.0581086357598387e+01 +9.0104260497070336e+03 +1.3842846215345997e+04 -4.5625413477761716e+07 
-3.4000000000000017e+00 -5.3659891966399798e-01 +7.3527950932866144e+00 -1.0637181037852326e+00 -5.0368308279284683e+01 +9.1267778673417906e+03 +1.2779716601966007e+04 -4.6074014719112292e+07 
-3.5000000000000018e+00 -5.3659906096089782e-01 +7.3527909525058686e+00 -1.0697713466005763e+00 -5.0190032561510613e+01 +9.2387313191315407e+03 +1.1927677886644075e+04 -4.6505231318494245e+07 
-3.6000000000000019e+00 -5.3659920293645624e-01 +7.3527879349737599e+00 -1.0754646816916491e+00 -5.0054899706960931e+01 +9.3454393460197953e+03 +1.1330869711828589e+04 -4.6916023438143112e+07 
-3.7000000000000020e+00 -5.3659934506936580e-01 +7.3527863913294125e+00 -1.0807423699903467e+00 -4.9971549771633974e+01 +9.4460547800329568e+03 +1.1033429343690121e+04 -4.7303350761579305e+07 
-3.8000000000000020e+00 -5.3659948683833814e-01 +7.3527866722027211e+00 -1.0855486706595261e+00 -4.9948622542047850e+01 +9.5397304327108832e+03 +1.1079492691478828e+04 -4.7664172920196958e+07 
-3.9000000000000021e+00 -5.3659962772217240e-01 +7.3527891282150533e+00 -1.0898278331618536e+00 -4.9994757567017977e+01 +9.6256189471214238e+03 +1.1513194525814914e+04 -4.7995448795910396e+07 
-4.0000000000000018e+00 -5.3659976719967462e-01 +7.3527941099729528e+00 -1.0935241068583885e+00 -5.0118593967099024e+01 +9.7028729792366921e+03 +1.2378667360815416e+04 -4.8294137384630419e+07 
-4.1000000000000014e+00 -5.3659990491228293e-01 +7.3528018500082171e+00 -1.0965938111355720e+00 -5.0325900901127021e+01 +9.7708110862095054e+03 +1.3705300008543078e+04 -4.8557799679834090e+07 
-4.2000000000000011e+00 -5.3660004113807802e-01 +7.3528121170909611e+00 -1.0990403276424645e+00 -5.0610896520111282e+01 +9.8293768088948054e+03 +1.5462877271734216e+04 -4.8786197574915722e+07 
-4.3000000000000007e+00 -5.3660017631089585e-01 +7.3528245660579179e+00 -1.1008785048163969e+00 -5.0964889426925438e+01 +9.8786599967830389e+03 +1.7606105031601044e+04 -4.8979589605831705e+07 
-4.4000000000000004e+00 -5.3660031086451421e-01 +7.3528388517436953e+00 -1.1021231981170048e+00 -5.1379188103257341e+01 +9.9187506261372891e+03 +2.0089688415842335e+04 -4.9138234891118936e+07 
-4.5000000000000000e+00 -5.3660044523269035e-01 +7.3528546289816630e+00 -1.1027892641242665e+00 -5.1845100926811853e+01 +9.9497386805013448e+03 +2.2868331858557176e+04 -4.9262392543344110e+07 
-4.5999999999999996e+00 -5.3660057984914766e-01 +7.3528715526039363e+00 -1.1028915628185900e+00 -5.2353936165029047e+01 +9.9717141992291927e+03 +2.5896739048877054e+04 -4.9352321914826110e+07 
-4.6999999999999993e+00 -5.3660071514755581e-01 +7.3528892774389574e+00 -1.1024449597743151e+00 -5.2897001917734151e+01 +9.9847673148280974e+03 +2.9129612636923757e+04 -4.9408282760753721e+07 
-4.7999999999999989e+00 -5.3660085156152326e-01 +7.3529074583174410e+00 -1.1014643273702631e+00 -5.3465606263903453e+01 +9.9889882783385365e+03 +3.2521655013859709e+04 -4.9430535367071241e+07 
-4.8999999999999986e+00 -5.3660098952465041e-01 +7.3529257500638456e+00 -1.0999645375538794e+00 -5.4051057024766330e+01 +9.9844673173239025e+03 +3.6027566975271358e+04 -4.9419339862545498e+07 
-4.9999999999999982e+00 -5.3660112947045724e-01 +7.3529438075033324e+00 -1.0979604709308615e+00 -5.4644661960855117e+01 +9.9712948096965265e+03 +3.9602048843482378e+04 -4.9374957048443817e+07 
-5.0999999999999979e+00 -5.3660127183242612e-01 +7.3529612854604922e+00 -1.0954670121063299e+00 -5.5237728728846172e+01 +9.9495611964820382e+03 +4.3199800212498783e+04 -4.9297647985141478e+07 
-5.1999999999999975e+00 -5.3660141704397657e-01 +7.3529778387591413e+00 -1.0924990515822530e+00 -5.5821564866210011e+01 +9.9193570125987662e+03 +4.6775519823594761e+04 -4.9187674125739560e+07 
-5.2999999999999972e+00 -5.3660156553845817e-01 +7.3529931222186411e+00 -1.0890714877590435e+00 -5.6387477687733316e+01 +9.8807729291596279e+03 +5.0283904989191527e+04 -4.9045297526629835e+07 
-5.3999999999999968e+00 -5.3660171774918752e-01 +7.3530067906609791e+00 -1.0851992213840855e+00 -5.6926774493638945e+01 +9.8338996438759295e+03 +5.3679652797718569e+04 -4.8870780317137957e+07 
-5.4999999999999964e+00 -5.3660187410939741e-01 +7.3530184989057368e+00 -1.0808971622022321e+00 -5.7430762401340800e+01 +9.7788280064005394e+03 +5.6917459087199059e+04 -4.8664385289314598e+07 
-5.5999999999999961e+00 -5.3660203505225557e-01 +7.3530279017726770e+00 -1.0761802267834275e+00 -5.7890748435353544e+01 +9.7156489800486925e+03 +5.9952019002585512e+04 -4.8426375726442680e+07 
-5.6999999999999957e+00 -5.3660220101087253e-01 +7.3530346540751221e+00 -1.0710633368771294e+00 -5.8298039320229762e+01 +9.6444536043690714e+03 +6.2738025763414073e+04 -4.8157015205999076e+07 
-5.7999999999999954e+00 -5.3660237241826059e-01 +7.3530384106364535e+00 -1.0655614253484038e+00 -5.8643941954509145e+01 +9.5653331133376869e+03 +6.5230173394645208e+04 -4.7856568177049808e+07 
-5.8999999999999950e+00 -5.3660254970740262e-01 +7.3530388262708843e+00 -1.0596894265982171e+00 -5.8919762862933865e+01 +9.4783787464749603e+03 +6.7383153584247615e+04 -4.7525299042429253e+07 
-5.9999999999999947e+00 -5.3660273331115049e-01 +7.3530355557936211e+00 -1.0534622897880512e+00 -5.9116808472134458e+01 +9.3836820033532204e+03 +6.9151657294424556e+04 -4.7163473372142650e+07 
-6.0999999999999943e+00 -5.3660292347381011e-01 +7.3530283533071232e+00 -1.0469019267441091e+00 -5.9228783743672160e+01 +9.2814649746673476e+03 +7.0503077734487932e+04 -4.6771806696698345e+07 
-6.1999999999999940e+00 -5.3660311970503627e-01 +7.3530173676606481e+00 -1.0400593696365055e+00 -5.9259012806807284e+01 +9.1725140896918201e+03 +7.1454762434239732e+04 -4.6353051088824943e+07 
-6.2999999999999936e+00 -5.3660332133545174e-01 +7.3530028460043662e+00 -1.0329932781651734e+00 -5.9213237349848740e+01 +9.0577681446049028e+03 +7.2036369064215323e+04 -4.5910528375204563e+07 
-6.3999999999999932e+00 -5.3660352769571873e-01 +7.3529850355051867e+00 -1.0257623073324431e+00 -5.9097199559781188e+01 +8.9381658533644968e+03 +7.2277557858578599e+04 -4.5447560008590482e+07 
-6.4999999999999929e+00 -5.3660373811653017e-01 +7.3529641833489068e+00 -1.0184251091285061e+00 -5.8916642212964554e+01 +8.8146458776780601e+03 +7.2207992280010280e+04 -4.4967467208791822e+07 
-6.5999999999999925e+00 -5.3660395192863475e-01 +7.3529405367362468e+00 -1.0110403295661270e+00 -5.8677308544372067e+01 +8.6881467778396145e+03 +7.1857338203837018e+04 -4.4473570750967853e+07 
-6.6999999999999922e+00 -5.3660416846278503e-01 +7.3529143428897799e+00 -1.0036666144118631e+00 -5.8384942458213260e+01 +8.5596071103695667e+03 +7.1255265154505309e+04 -4.3969191396926984e+07 
-6.7999999999999918e+00 -5.3660438704982383e-01 +7.3528858490468840e+00 -9.9636259960246598e-01 -5.8045288333349760e+01 +8.4299652597260992e+03 +7.0431445188167520e+04 -4.3457649134948440e+07 
-6.8999999999999915e+00 -5.3660460702057122e-01 +7.3528553024685994e+00 -9.8918692403361796e-01 -5.7664091268924949e+01 +8.3001596697830937e+03 +6.9415554272230278e+04 -4.2942264248146556e+07 
-6.9999999999999911e+00 -5.3660482770594153e-01 +7.3528229504316442e+00 -9.8219821657010098e-01 -5.7247096861775802e+01 +8.1711286073918764e+03 +6.8237271002216075e+04 -4.2426356217577890e+07 
-7.0999999999999908e+00 -5.3660504843688817e-01 +7.3527890402403182e+00 -9.7545510139116542e-01 -5.6800051565342216e+01 +8.0438102559959489e+03 +6.6926278714383836e+04 -4.1913244148012236e+07 
-7.1999999999999904e+00 -5.3660526854439727e-01 +7.3527538192148985e+00 -9.6901620014573819e-01 -5.6328702329677306e+01 +7.9191427645465574e+03 +6.5512263308286005e+04 -4.1406247020929992e+07 
-7.2999999999999901e+00 -5.3660548735950164e-01 +7.3527175346997025e+00 -9.6294012917833804e-01 -5.5838796869823682e+01 +7.7980641866616761e+03 +6.4024914893614048e+04 -4.0908683382357001e+07 
-7.3999999999999897e+00 -5.3660570421331366e-01 +7.3526804340630916e+00 -9.5728549635101012e-01 -5.5336083636654529e+01 +7.6815124309728608e+03 +6.2493927522649581e+04 -4.0423871139211059e+07 
-7.4999999999999893e+00 -5.3660591843698013e-01 +7.3526427646985866e+00 -9.5211090628360018e-01 -5.4826311871078097e+01 +7.5704253527043393e+03 +6.0948999547317348e+04 -3.9955127969440237e+07 
-7.5999999999999890e+00 -5.3660612936169461e-01 +7.3526047740221188e+00 -9.4747495881643695e-01 -5.4315231528709091e+01 +7.4657407282999129e+03 +5.9419833187423799e+04 -3.9505771214435220e+07 
-7.6999999999999886e+00 -5.3660633631872356e-01 +7.3525667094748997e+00 -9.4343624610319010e-01 -5.3808593356900943e+01 +7.3683962014379304e+03 +5.7936134935680187e+04 -3.9079117624182917e+07 
-7.7999999999999883e+00 -5.3660653863939234e-01 +7.3525288185252196e+00 -9.4005335391175437e-01 -5.3312148951037166e+01 +7.2793293055482873e+03 +5.6527615895639647e+04 -3.8678483460470520e+07 
-7.8999999999999879e+00 -5.3660673565509209e-01 +7.3524913486704913e+00 -9.3738486138869037e-01 -5.2831650815556785e+01 +7.1994774622735968e+03 +5.5223992110758882e+04 -3.8307184495411776e+07 
-7.9999999999999876e+00 -5.3660692669725796e-01 +7.3524545474316794e+00 -9.3548934348628987e-01 -5.2372852184393466e+01 +7.1297780311424449e+03 +5.4054983363897110e+04 -3.7968536271697350e+07 
-8.0999999999999872e+00 -5.3660711141287365e-01 +7.3524186462019800e+00 -9.3440411443165894e-01 -5.1940635309271116e+01 +7.0708890197757155e+03 +5.3043767883635257e+04 -3.7664962072207727e+07 
-8.1999999999999869e+00 -5.3660729069167112e-01 +7.3523838158512174e+00 -9.3408334815153338e-01 -5.1536750678270039e+01 +7.0223618620695643e+03 +5.2190750345385510e+04 -3.7395260148323983e+07 
-8.2999999999999865e+00 -5.3660746572982376e-01 +7.3523502130078038e+00 -9.3446083916699518e-01 -5.1162245436809506e+01 +6.9834735300153470e+03 +5.1491418573599673e+04 -3.7157311193753384e+07 
-8.3999999999999861e+00 -5.3660763772356934e-01 +7.3523179942860164e+00 -9.3547037785691323e-01 -5.0818166479766511e+01 +6.9535009459588982e+03 +5.0941259575558412e+04 -3.6948995712489985e+07 
-8.4999999999999858e+00 -5.3660780786912476e-01 +7.3522873162725073e+00 -9.3704576110982263e-01 -5.0505560070620554e+01 +6.9317211861432006e+03 +5.0535757315154449e+04 -3.6768194986382723e+07 
-8.5999999999999854e+00 -5.3660797736276467e-01 +7.3522583355330058e+00 -9.3912078287502476e-01 -5.0225472023571577e+01 +6.9174113032869755e+03 +5.0270393745110494e+04 -3.6612790234673806e+07 
-8.6999999999999851e+00 -5.3660814740076723e-01 +7.3522312086119301e+00 -9.4162924062631259e-01 -4.9978947721106103e+01 +6.9098484453097863e+03 +5.0140648989337780e+04 -3.6480663165164173e+07 
-8.7999999999999847e+00 -5.3660831917945739e-01 +7.3522060920280179e+00 -9.4450493037669347e-01 -4.9767031976196293e+01 +6.9083097671232808e+03 +5.0142000523011280e+04 -3.6369695574471027e+07 
-8.8999999999999844e+00 -5.3660849389516074e-01 +7.3521831422758721e+00 -9.4768165274016225e-01 -4.9590769078650631e+01 +6.9120725443509691e+03 +5.0269923453882155e+04 -3.6277769879935093e+07 
-8.9999999999999840e+00 -5.3660867274424850e-01 +7.3521625158253698e+00 -9.5109320671980890e-01 -4.9451202793246466e+01 +6.9204140549942877e+03 +5.0519890557027233e+04 -3.6202768558742873e+07 
-9.0999999999999837e+00 -5.3660885692311444e-01 +7.3521443691196779e+00 -9.5467339343858948e-01 -4.9349376305959503e+01 +6.9326116518117215e+03 +5.0887371981873373e+04 -3.6142574491606154e+07 
-9.1999999999999833e+00 -5.3660904762816308e-01 +7.3521288585748259e+00 -9.5835601740122045e-01 -4.9286332213211644e+01 +6.9479427887030797e+03 +5.1367835202831346e+04 -3.6095071096156582e+07 
-9.2999999999999829e+00 -5.3660924605584459e-01 +7.3521161405776470e+00 -9.6207488211248604e-01 -4.9263112467150620e+01 +6.9656849355924378e+03 +5.1956744722144686e+04 -3.6058141914905891e+07 
-9.3999999999999826e+00 -5.3660945340264576e-01 +7.3521063714895858e+00 -9.6576379205374041e-01 -4.9280758489366043e+01 +6.9851156222804566e+03 +5.2649562738870831e+04 -3.6029670839949556e+07 
-9.4999999999999822e+00 -5.3660967086506539e-01 +7.3520997076398231e+00 -9.6935655455795644e-01 -4.9340310981412244e+01 +7.0055124655599766e+03 +5.3441748095834067e+04 -3.6007542217826903e+07 
-9.5999999999999819e+00 -5.3660989963962213e-01 +7.3520963053273416e+00 -9.7278698018344278e-01 -4.9442809985364448e+01 +7.0261531857294376e+03 +5.4328756629675088e+04 -3.5989640951973714e+07 
-9.6999999999999815e+00 -5.3661014092290127e-01 +7.3520963208220351e+00 -9.7598887639418586e-01 -4.9589294928587499e+01 +7.0463154839044400e+03 +5.5306041476992563e+04 -3.5973851912063964e+07 
-9.7999999999999812e+00 -5.3661039591147808e-01 +7.3520999103607192e+00 -9.7889605756449183e-01 -4.9780804498503883e+01 +7.0652772343342076e+03 +5.6369052324345357e+04 -3.5958060852362238e+07 
-9.8999999999999808e+00 -5.3661066580198913e-01 +7.3521072301477668e+00 -9.8144233562081362e-01 -5.0018376676328280e+01 +7.0823163036317419e+03 +5.7513235658549034e+04 -3.5940153543278024e+07 
-9.9999999999999805e+00 -5.3661095179107954e-01 +7.3521184363565952e+00 -9.8356152711044831e-01 -5.0303048855322970e+01 +7.0967106816110736e+03 +5.8734035615227622e+04 -3.5918016381818905e+07 
-1.0099999999999980e+01 -5.3661125471103899e-01 +7.3521335918017101e+00 -9.8520392415284808e-01 -5.0634750347569373e+01 +7.1078777691748855e+03 +6.0024871689147374e+04 -3.5889869860768214e+07 
