# field on trajectory
# s[mm] rx[mm] ry[mm] rz[mm] bx[T] by[T] bz[T]
0.0000000000000000e+00 +8.1530000000000094e+00 +0.0000000000000000e+00 +0.0000000000000000e+00 -3.0792262288098480e-02 -5.9279935067173661e-01 +5.8989024889280605e-03
1.0000000000000001e-01 +8.1529997159377707e+00 +0.0000000000000000e+00 +1.0008006405070299e-01 -3.0792310208901393e-02 -5.9279908178686480e-01 +5.8988131232834270e-03
2.0000000000000001e-01 +8.1529988637557800e+00 +0.0000000000000000e+00 +2.0016012809818201e-01 -3.0792377587173871e-02 -5.9279881419484615e-01 +5.8987234766266260e-03
2.9999999999999999e-01 +8.1529974434524792e+00 +0.0000000000000000e+00 +3.0024019213920999e-01 -3.0792462976768766e-02 -5.9279854826088518e-01 +5.8986336630048658e-03
4.0000000000000002e-01 +8.1529954550242092e+00 +0.0000000000000000e+00 +4.0032025617056399e-01 -3.0792564931543271e-02 -5.9279828435018223e-01 +5.8985437964660225e-03
5.0000000000000000e-01 +8.1529928984782600e+00 +0.0000000000000000e+00 +5.0040032018901703e-01 -3.0792682005353872e-02 -5.9279802282782890e-01 +5.8984539910573834e-03
5.9999999999999998e-01 +8.1529897738146193e+00 +0.0000000000000000e+00 +6.0048038419134497e-01 -3.0792812752065465e-02 -5.9279776405895812e-01 +5.8983643608270840e-03
6.9999999999999996e-01 +8.1529860810223909e+00 +0.0000000000000000e+00 +7.0056044817432195e-01 -3.0792955725553833e-02 -5.9279750840877699e-01 +5.8982750198242322e-03
8.0000000000000004e-01 +8.1529818201124709e+00 +0.0000000000000000e+00 +8.0064051213472498e-01 -3.0793109479691712e-02 -5.9279725624230040e-01 +5.8981860820960502e-03
9.0000000000000002e-01 +8.1529769910812302e+00 +0.0000000000000000e+00 +9.0072057606932698e-01 -3.0793272568366087e-02 -5.9279700792464962e-01 +5.8980976616907887e-03
1.0000000000000000e+00 +8.1529715939250291e+00 +0.0000000000000000e+00 +1.0008006399749001e+00 -3.0793443545472452e-02 -5.9279676382093649e-01 +5.8980098726563682e-03
1.1000000000000001e+00 +8.1529656286511507e+00 +0.0000000000000000e+00 +1.1008807038482300e+00 -3.0793620964910791e-02 -5.9279652429617491e-01 +5.8979228290393206e-03
1.2000000000000000e+00 +8.1529590952522994e+00 +0.0000000000000000e+00 +1.2009607676860801e+00 -3.0793803380597864e-02 -5.9279628971549081e-01 +5.8978366448868046e-03
1.3000000000000000e+00 +8.1529519937357708e+00 +0.0000000000000000e+00 +1.3010408314852300e+00 -3.0793989346454928e-02 -5.9279606044388755e-01 +5.8977514342440128e-03
1.3999999999999999e+00 +8.1529443240979198e+00 +0.0000000000000000e+00 +1.4011208952424601e+00 -3.0794177416420140e-02 -5.9279583684645398e-01 +5.8976673111561803e-03
1.5000000000000000e+00 +8.1529360863350995e+00 +0.0000000000000000e+00 +1.5012009589545301e+00 -3.0794366144444474e-02 -5.9279561928827829e-01 +5.8975843896675369e-03
1.6000000000000001e+00 +8.1529272804509691e+00 +0.0000000000000000e+00 +1.6012810226182299e+00 -3.0794554084489247e-02 -5.9279540813439013e-01 +5.8975027838205525e-03
1.7000000000000000e+00 +8.1529179064491508e+00 +0.0000000000000000e+00 +1.7013610862303301e+00 -3.0794739790530292e-02 -5.9279520374982198e-01 +5.8974226076564159e-03
1.8000000000000000e+00 +8.1529079643223703e+00 +0.0000000000000000e+00 +1.8014411497875999e+00 -3.0794921816563729e-02 -5.9279500649969941e-01 +5.8973439752158102e-03
1.8999999999999999e+00 +8.1528974540779000e+00 +0.0000000000000000e+00 +1.9015212132868200e+00 -3.0795098716595345e-02 -5.9279481674903645e-01 +5.8972670005366552e-03
2.0000000000000000e+00 +8.1528863757084800e+00 +0.0000000000000000e+00 +2.0016012767247702e+00 -3.0795269044655450e-02 -5.9279463486297357e-01 +5.8971917976563268e-03
2.1000000000000001e+00 +8.1528747292177304e+00 +0.0000000000000000e+00 +2.1016813400982199e+00 -3.0795431577673792e-02 -5.9279446121034307e-01 +5.8971184652751064e-03
2.2000000000000002e+00 +8.1528625146056601e+00 +0.0000000000000000e+00 +2.2017614034039301e+00 -3.0795585942370248e-02 -5.9279429617439716e-01 +5.8970470436286795e-03
2.2999999999999998e+00 +8.1528497318759001e+00 +0.0000000000000000e+00 +2.3018414666387002e+00 -3.0795731967953561e-02 -5.9279414014179999e-01 +5.8969775590215637e-03
2.3999999999999999e+00 +8.1528363810211903e+00 +0.0000000000000000e+00 +2.4019215297993002e+00 -3.0795869483639948e-02 -5.9279399349932094e-01 +5.8969100377594327e-03
2.5000000000000000e+00 +8.1528224620451493e+00 +0.0000000000000000e+00 +2.5020015928824901e+00 -3.0795998318642385e-02 -5.9279385663366158e-01 +5.8968445061473983e-03
2.6000000000000001e+00 +8.1528079749477893e+00 +0.0000000000000000e+00 +2.6020816558850601e+00 -3.0796118302176156e-02 -5.9279372993157453e-01 +5.8967809904913373e-03
2.7000000000000002e+00 +8.1527929197291105e+00 +0.0000000000000000e+00 +2.7021617188037701e+00 -3.0796229263456293e-02 -5.9279361377983597e-01 +5.8967195170976953e-03
2.7999999999999998e+00 +8.1527772963891003e+00 +0.0000000000000000e+00 +2.8022417816354102e+00 -3.0796331031696701e-02 -5.9279350856524848e-01 +5.8966601122736034e-03
2.8999999999999999e+00 +8.1527611049277802e+00 +0.0000000000000000e+00 +2.9023218443767500e+00 -3.0796423436109138e-02 -5.9279341467464186e-01 +5.8966028023269852e-03
3.0000000000000000e+00 +8.1527443453451305e+00 +0.0000000000000000e+00 +3.0024019070245598e+00 -3.0796506305902339e-02 -5.9279333249487642e-01 +5.8965476135666699e-03
3.1000000000000001e+00 +8.1527270176411495e+00 +0.0000000000000000e+00 +3.1024819695756198e+00 -3.0796579470281055e-02 -5.9279326241284480e-01 +5.8964945723025061e-03
3.2000000000000002e+00 +8.1527091218158603e+00 +0.0000000000000000e+00 +3.2025620320267101e+00 -3.0796642758445122e-02 -5.9279320481547304e-01 +5.8964437048454671e-03
3.2999999999999998e+00 +8.1526906578692397e+00 +0.0000000000000000e+00 +3.3026420943745900e+00 -3.0796695999588522e-02 -5.9279316008972327e-01 +5.8963950375077630e-03
3.3999999999999999e+00 +8.1526716258013003e+00 +0.0000000000000000e+00 +3.4027221566160502e+00 -3.0796739022898451e-02 -5.9279312862259625e-01 +5.8963485966029607e-03
3.5000000000000000e+00 +8.1526520256120403e+00 +0.0000000000000000e+00 +3.5028022187478500e+00 -3.0796771657554400e-02 -5.9279311080113373e-01 +5.8963044084460823e-03
3.6000000000000001e+00 +8.1526318572978198e+00 +0.0000000000000000e+00 +3.6028822807667802e+00 -3.0796793732728821e-02 -5.9279310701244714e-01 +5.8962624993540323e-03
3.7000000000000002e+00 +8.1526111208659096e+00 +0.0000000000000000e+00 +3.7029623426696099e+00 -3.0796805077579668e-02 -5.9279311764360576e-01 +5.8962228956444852e-03
3.7999999999999998e+00 +8.1525898163126804e+00 +0.0000000000000000e+00 +3.8030424044531101e+00 -3.0796805521259258e-02 -5.9279314308181275e-01 +5.8961856236378210e-03
3.8999999999999999e+00 +8.1525679436344909e+00 +0.0000000000000000e+00 +3.9031224661140600e+00 -3.0796794892908482e-02 -5.9279318371431988e-01 +5.8961507096563252e-03
4.0000000000000000e+00 +8.1525455028386205e+00 +0.0000000000000000e+00 +4.0032025276492398e+00 -3.0796773021657894e-02 -5.9279323992833477e-01 +5.8961181800223049e-03
4.0999999999999996e+00 +8.1525224939177896e+00 +0.0000000000000000e+00 +4.1032825890554099e+00 -3.0796739972178720e-02 -5.9279331189569962e-01 +5.8960880241391428e-03
4.2000000000000002e+00 +8.1524989168792708e+00 +0.0000000000000000e+00 +4.2033626503293604e+00 -3.0796696665162354e-02 -5.9279339900485029e-01 +5.8960600972257186e-03
4.2999999999999998e+00 +8.1524747717157897e+00 +0.0000000000000000e+00 +4.3034427114678504e+00 -3.0796644215700799e-02 -5.9279350046642232e-01 +5.8960342240294457e-03
4.4000000000000004e+00 +8.1524500584346207e+00 +0.0000000000000000e+00 +4.4035227724676700e+00 -3.0796583738862869e-02 -5.9279361549089959e-01 +5.8960102292976851e-03
4.5000000000000000e+00 +8.1524247770285001e+00 +0.0000000000000000e+00 +4.5036028333255800e+00 -3.0796516349706350e-02 -5.9279374328884527e-01 +5.8959879377802199e-03
4.5999999999999996e+00 +8.1523989275046898e+00 +0.0000000000000000e+00 +4.6036828940383696e+00 -3.0796443163263860e-02 -5.9279388307066427e-01 +5.8959671742268406e-03
4.7000000000000002e+00 +8.1523725098559208e+00 +0.0000000000000000e+00 +4.7037629546028104e+00 -3.0796365294555050e-02 -5.9279403404683551e-01 +5.8959477633898430e-03
4.7999999999999998e+00 +8.1523455240894709e+00 +0.0000000000000000e+00 +4.8038430150156701e+00 -3.0796283858572499e-02 -5.9279419542767298e-01 +5.8959295300216224e-03
4.9000000000000004e+00 +8.1523179701980606e+00 +0.0000000000000000e+00 +4.9039230752737302e+00 -3.0796199970293911e-02 -5.9279436642355832e-01 +5.8959122988771406e-03
5.0000000000000000e+00 +8.1522898481889605e+00 +0.0000000000000000e+00 +5.0040031353737602e+00 -3.0796114744667907e-02 -5.9279454624470185e-01 +5.8958958947115418e-03
5.0999999999999996e+00 +8.1522611580549000e+00 +0.0000000000000000e+00 +5.1040831953125396e+00 -3.0796029296626341e-02 -5.9279473410137606e-01 +5.8958801422826163e-03
5.2000000000000002e+00 +8.1522318997995207e+00 +0.0000000000000000e+00 +5.2041632550868497e+00 -3.0795944741071758e-02 -5.9279492920370458e-01 +5.8958648663487191e-03
5.2999999999999998e+00 +8.1522020734228100e+00 +0.0000000000000000e+00 +5.3042433146934496e+00 -3.0795862192882984e-02 -5.9279513076177826e-01 +5.8958498916700164e-03
5.4000000000000004e+00 +8.1521716789247893e+00 +0.0000000000000000e+00 +5.4043233741291203e+00 -3.0795782766912552e-02 -5.9279533798562245e-01 +5.8958350430082232e-03
5.5000000000000000e+00 +8.1521407163090807e+00 +0.0000000000000000e+00 +5.5044034333906504e+00 -3.0795707577984076e-02 -5.9279555008516360e-01 +5.8958201451263471e-03
5.5999999999999996e+00 +8.1521091855684098e+00 +0.0000000000000000e+00 +5.6044834924747899e+00 -3.0795637740897903e-02 -5.9279576627034525e-01 +5.8958050227899258e-03
5.7000000000000002e+00 +8.1520770867064094e+00 +0.0000000000000000e+00 +5.7045635513783299e+00 -3.0795574370420173e-02 -5.9279598575094716e-01 +5.8957895007652628e-03
5.7999999999999998e+00 +8.1520444197231008e+00 +0.0000000000000000e+00 +5.8046436100980499e+00 -3.0795518581288567e-02 -5.9279620773669961e-01 +5.8957734038206540e-03
5.9000000000000004e+00 +8.1520111846184609e+00 +0.0000000000000000e+00 +5.9047236686307096e+00 -3.0795471488209551e-02 -5.9279643143725269e-01 +5.8957565567261611e-03
5.9999999999999902e+00 +8.1519773813925003e+00 +0.0000000000000000e+00 +6.0048037269731003e+00 -3.0795434205824732e-02 -5.9279665606218412e-01 +5.8957387842601900e-03
6.0999999999999899e+00 +8.1519430100452208e+00 +0.0000000000000000e+00 +6.1048837851219799e+00 -3.0795407507197274e-02 -5.9279688095513150e-01 +5.8957199795903409e-03
6.1999999999999904e+00 +8.1519080705766100e+00 +0.0000000000000000e+00 +6.2049638430741396e+00 -3.0795390981989846e-02 -5.9279710592448109e-01 +5.8957002728323299e-03
6.2999999999999901e+00 +8.1518725629866804e+00 +0.0000000000000000e+00 +6.3050439008263499e+00 -3.0795383963754266e-02 -5.9279733087924380e-01 +5.8956798453819546e-03
6.3999999999999897e+00 +8.1518364872754301e+00 +0.0000000000000000e+00 +6.4051239583753699e+00 -3.0795385786056839e-02 -5.9279755572847204e-01 +5.8956588786316490e-03
6.4999999999999902e+00 +8.1517998434428591e+00 +0.0000000000000000e+00 +6.5052040157180002e+00 -3.0795395782479376e-02 -5.9279778038126041e-01 +5.8956375539703119e-03
6.5999999999999899e+00 +8.1517626314889604e+00 +0.0000000000000000e+00 +6.6052840728510001e+00 -3.0795413286620145e-02 -5.9279800474674949e-01 +5.8956160527831470e-03
6.6999999999999904e+00 +8.1517248514137499e+00 +0.0000000000000000e+00 +6.7053641297711399e+00 -3.0795437632094858e-02 -5.9279822873412635e-01 +5.8955945564515026e-03
6.7999999999999901e+00 +8.1516865032135701e+00 +0.0000000000000000e+00 +6.8054441864752100e+00 -3.0795468152539290e-02 -5.9279845225265893e-01 +5.8955732463529991e-03
6.8999999999999897e+00 +8.1516475868957095e+00 +0.0000000000000000e+00 +6.9055242429599701e+00 -3.0795504181603629e-02 -5.9279867521157603e-01 +5.8955523038601472e-03
6.9999999999999902e+00 +8.1516081024565192e+00 +0.0000000000000000e+00 +7.0056042992222096e+00 -3.0795545052963429e-02 -5.9279889752025072e-01 +5.8955319103420230e-03
7.0999999999999899e+00 +8.1515680498960101e+00 +0.0000000000000000e+00 +7.1056843552586999e+00 -3.0795590100313876e-02 -5.9279911908808114e-01 +5.8955122471628738e-03
7.1999999999999904e+00 +8.1515274292141804e+00 +0.0000000000000000e+00 +7.2057644110662000e+00 -3.0795638657372511e-02 -5.9279933982452504e-01 +5.8954934956822512e-03
7.2999999999999901e+00 +8.1514862404073902e+00 +0.0000000000000000e+00 +7.3058444666415099e+00 -3.0795690057881790e-02 -5.9279955963912878e-01 +5.8954758372551635e-03
7.3999999999999897e+00 +8.1514444834829192e+00 +0.0000000000000000e+00 +7.4059245219813796e+00 -3.0795743635603501e-02 -5.9279977844141363e-01 +5.8954594532306870e-03
7.4999999999999902e+00 +8.1514021584334806e+00 +0.0000000000000000e+00 +7.5060045770826100e+00 -3.0795798724331289e-02 -5.9279999614108370e-01 +5.8954445249539359e-03
7.5999999999999899e+00 +8.1513592652663593e+00 +0.0000000000000000e+00 +7.6060846319419504e+00 -3.0795854657878385e-02 -5.9280021264779137e-01 +5.8954312337634474e-03
7.6999999999999904e+00 +8.1513158039779192e+00 +0.0000000000000000e+00 +7.7061646865561997e+00 -3.0795910770090175e-02 -5.9280042787134657e-01 +5.8954197609931615e-03
7.7999999999999901e+00 +8.1512717745681602e+00 +0.0000000000000000e+00 +7.8062447409221098e+00 -3.0795966394838607e-02 -5.9280064172160218e-01 +5.8954102879710344e-03
7.8999999999999897e+00 +8.1512271770334301e+00 +0.0000000000000000e+00 +7.9063247950364799e+00 -3.0796020866026362e-02 -5.9280085410851180e-01 +5.8954029960194753e-03
7.9999999999999902e+00 +8.1511820113773901e+00 +0.0000000000000000e+00 +8.0064048488960609e+00 -3.0796073517626768e-02 -5.9280106494208085e-01 +5.8953980664445118e-03
8.0999999999999908e+00 +8.1511362776036496e+00 +0.0000000000000000e+00 +8.1064849024976393e+00 -3.0796123884677392e-02 -5.9280127428175133e-01 +5.8953956356899992e-03
8.1999999999999904e+00 +8.1510899757086008e+00 +0.0000000000000000e+00 +8.2065649558379903e+00 -3.0796172166433978e-02 -5.9280148268053334e-01 +5.8953956919982481e-03
8.2999999999999901e+00 +8.1510431056885899e+00 +0.0000000000000000e+00 +8.3066450089139003e+00 -3.0796218699140652e-02 -5.9280169079316458e-01 +5.8953981930506029e-03
8.3999999999999897e+00 +8.1509956675508892e+00 +0.0000000000000000e+00 +8.4067250617221205e+00 -3.0796263819043910e-02 -5.9280189927424254e-01 +5.8954030965312305e-03
8.4999999999999893e+00 +8.1509476612882299e+00 +0.0000000000000000e+00 +8.5068051142594392e+00 -3.0796307862404306e-02 -5.9280210877842821e-01 +5.8954103601293745e-03
8.5999999999999908e+00 +8.1508990869078808e+00 +0.0000000000000000e+00 +8.6068851665226305e+00 -3.0796351165483453e-02 -5.9280231996020705e-01 +5.8954199415370678e-03
8.6999999999999904e+00 +8.1508499444025801e+00 +0.0000000000000000e+00 +8.7069652185084596e+00 -3.0796394064557479e-02 -5.9280253347412493e-01 +5.8954317984517132e-03
8.7999999999999794e+00 +8.1508002337759500e+00 +0.0000000000000000e+00 +8.8070452702137203e+00 -3.0796436895905589e-02 -5.9280274997457894e-01 +5.8954458885740807e-03
8.8999999999999808e+00 +8.1507499550316407e+00 +0.0000000000000000e+00 +8.9071253216351796e+00 -3.0796479995815206e-02 -5.9280297011590344e-01 +5.8954621696093740e-03
8.9999999999999805e+00 +8.1506991081623692e+00 +0.0000000000000000e+00 +9.0072053727696098e+00 -3.0796523700587150e-02 -5.9280319455245822e-01 +5.8954805992682780e-03
9.0999999999999801e+00 +8.1506476931717806e+00 +0.0000000000000000e+00 +9.1072854236137797e+00 -3.0796568346525902e-02 -5.9280342393844854e-01 +5.8955011352652782e-03
9.1999999999999797e+00 +8.1505957100635005e+00 +0.0000000000000000e+00 +9.2073654741644795e+00 -3.0796614269944730e-02 -5.9280365892801112e-01 +5.8955237353196981e-03
9.2999999999999794e+00 +8.1505431588302599e+00 +0.0000000000000000e+00 +9.3074455244184708e+00 -3.0796661807170864e-02 -5.9280390017530349e-01 +5.8955483571567768e-03
9.3999999999999808e+00 +8.1504900394757005e+00 +0.0000000000000000e+00 +9.4075255743725297e+00 -3.0796711294535681e-02 -5.9280414833432127e-01 +5.8955749585059680e-03
9.4999999999999805e+00 +8.1504363520034495e+00 +0.0000000000000000e+00 +9.5076056240234408e+00 -3.0796763068380018e-02 -5.9280440405898793e-01 +5.8956034971019994e-03
9.5999999999999801e+00 +8.1503820964062506e+00 +0.0000000000000000e+00 +9.6076856733679694e+00 -3.0796817465059120e-02 -5.9280466800324094e-01 +5.8956339306859232e-03
9.6999999999999797e+00 +8.1503272726913600e+00 +0.0000000000000000e+00 +9.7077657224029004e+00 -3.0796874820931380e-02 -5.9280494082082125e-01 +5.8956662170031229e-03
9.7999999999999794e+00 +8.1502718808515109e+00 +0.0000000000000000e+00 +9.8078457711250007e+00 -3.0796935472371733e-02 -5.9280522316551043e-01 +5.8957003138059034e-03
9.8999999999999808e+00 +8.1502159208903304e+00 +0.0000000000000000e+00 +9.9079258195310498e+00 -3.0796999755760206e-02 -5.9280551569092022e-01 +5.8957361788514922e-03
9.9999999999999805e+00 +8.1501593928078400e+00 +0.0000000000000000e+00 +1.0008005867617801e+01 -3.0797068007431792e-02 -5.9280581905049157e-01 +5.8957737698928049e-03
1.0100000000000000e+01 +8.1501022966040200e+00 +0.0000000000000000e+00 +1.0108085915382100e+01 -3.0797140423689067e-02 -5.9280613360852430e-01 +5.8958130187013189e-03
1.0199999999999999e+01 +8.1500446322825209e+00 +0.0000000000000000e+00 +1.0208165962820599e+01 -3.0797216759519890e-02 -5.9280645881835592e-01 +5.8958537751596868e-03
1.0300000000000001e+01 +8.1499863998360507e+00 +0.0000000000000000e+00 +1.0308246009930199e+01 -3.0797296683178946e-02 -5.9280679395446745e-01 +5.8958958730626065e-03
1.0400000000000000e+01 +8.1499275992682705e+00 +0.0000000000000000e+00 +1.0408326056707599e+01 -3.0797379862885239e-02 -5.9280713829128684e-01 +5.8959391462055609e-03
1.0500000000000000e+01 +8.1498682305791608e+00 +0.0000000000000000e+00 +1.0508406103149600e+01 -3.0797465966828034e-02 -5.9280749110331232e-01 +5.8959834283860649e-03
1.0600000000000000e+01 +8.1498082937723701e+00 +0.0000000000000000e+00 +1.0608486149253000e+01 -3.0797554663162686e-02 -5.9280785166505301e-01 +5.8960285534030684e-03
1.0699999999999999e+01 +8.1497477888406102e+00 +0.0000000000000000e+00 +1.0708566195014500e+01 -3.0797645620016471e-02 -5.9280821925114768e-01 +5.8960743550582010e-03
1.0800000000000001e+01 +8.1496867157875403e+00 +0.0000000000000000e+00 +1.0808646240430900e+01 -3.0797738505477873e-02 -5.9280859313619028e-01 +5.8961206671539869e-03
1.0900000000000000e+01 +8.1496250746131391e+00 +0.0000000000000000e+00 +1.0908726285499000e+01 -3.0797832987602445e-02 -5.9280897259484810e-01 +5.8961673234950770e-03
1.1000000000000000e+01 +8.1495628653174208e+00 +0.0000000000000000e+00 +1.1008806330215601e+01 -3.0797928734410285e-02 -5.9280935690183367e-01 +5.8962141578879660e-03
1.1100000000000000e+01 +8.1495000879040198e+00 +0.0000000000000000e+00 +1.1108886374577500e+01 -3.0798025413883684e-02 -5.9280974533187647e-01 +5.8962610041407215e-03
1.1199999999999999e+01 +8.1494367423620098e+00 +0.0000000000000000e+00 +1.1208966418581401e+01 -3.0798122693974490e-02 -5.9281013715987207e-01 +5.8963076960645263e-03
1.1300000000000001e+01 +8.1493728287059604e+00 +0.0000000000000000e+00 +1.1309046462224000e+01 -3.0798220242585252e-02 -5.9281053166055830e-01 +5.8963540674703638e-03
1.1400000000000000e+01 +8.1493083469249505e+00 +0.0000000000000000e+00 +1.1409126505502300e+01 -3.0798317727591472e-02 -5.9281092810892944e-01 +5.8963999521732978e-03
1.1500000000000000e+01 +8.1492432970226201e+00 +0.0000000000000000e+00 +1.1509206548412800e+01 -3.0798414816822699e-02 -5.9281132577991325e-01 +5.8964451839891470e-03
1.1600000000000000e+01 +8.1491776789989707e+00 +0.0000000000000000e+00 +1.1609286590952600e+01 -3.0798511178069959e-02 -5.9281172394851966e-01 +5.8964895967360481e-03
1.1699999999999999e+01 +8.1491114928576298e+00 +0.0000000000000000e+00 +1.1709366633118099e+01 -3.0798606479081704e-02 -5.9281212188978227e-01 +5.8965330242338543e-03
1.1800000000000001e+01 +8.1490447385876905e+00 +0.0000000000000000e+00 +1.1809446674906400e+01 -3.0798700387571251e-02 -5.9281251887890829e-01 +5.8965753003056912e-03
