# multipoles
# s[mm] polynom_b[n=0][T/m^n] polynom_b[n=1][T/m^n] polynom_b[n=2][T/m^n] polynom_b[n=3][T/m^n] polynom_b[n=4][T/m^n] polynom_b[n=5][T/m^n] polynom_b[n=6][T/m^n] 
+0.0000000000000000e+00 -5.9311743926376193e-01 +8.1256952356765328e+00 +4.3553117581990175e-01 +3.4096837548492928e+01 -4.7842328630288812e+03 -4.2412182150052354e+05 +3.7159879093643995e+06 
+1.0000000000000001e-01 -5.9311690427617980e-01 +8.1256720416068386e+00 +4.4280785895248226e-01 +3.4149198701948393e+01 -4.8951376284187463e+03 -4.2332855298089050e+05 +4.0870217874747245e+06 
+2.0000000000000001e-01 -5.9311638648178910e-01 +8.1256489724625069e+00 +4.5038714581689915e-01 +3.4194832714382940e+01 -5.0114408591345173e+03 -4.2249652828858566e+05 +4.4852400139310462e+06 
+2.9999999999999999e-01 -5.9311588519623804e-01 +8.1256259829116733e+00 +4.5820937082625518e-01 +3.4234767982526826e+01 -5.1320227323948620e+03 -4.2163334822377149e+05 +4.9055569029892385e+06 
+4.0000000000000002e-01 -5.9311539973513094e-01 +8.1256030276281805e+00 +4.6621486781496069e-01 +3.4270032736848947e+01 -5.2557634120945695e+03 -4.2074661266810959e+05 +5.3428867007432031e+06 
+5.0000000000000000e-01 -5.9311492941414323e-01 +8.1255800612761231e+00 +4.7434397221517605e-01 +3.4301655490203665e+01 -5.3815430913822001e+03 -4.1984392320017260e+05 +5.7921437886408577e+06 
+5.9999999999999998e-01 -5.9311447354890967e-01 +8.1255570385314275e+00 +4.8253701870453047e-01 +3.4330664395579944e+01 -5.5082419522525752e+03 -4.1893287931453995e+05 +6.2482425036170753e+06 
+6.9999999999999996e-01 -5.9311403145503760e-01 +8.1255339140603091e+00 +4.9073434174828484e-01 +3.4358087891786973e+01 -5.6347401693352986e+03 -4.1802108222513774e+05 +6.7060971395650515e+06 
+8.0000000000000004e-01 -5.9311360244818878e-01 +8.1255106425388242e+00 +4.9887627495072351e-01 +3.4384954098269844e+01 -5.7599178966892296e+03 -4.1711613124414737e+05 +7.1606218802457564e+06 
+9.0000000000000002e-01 -5.9311318584398598e-01 +8.1254871786380800e+00 +5.0690315159646138e-01 +3.4412291280431177e+01 -5.8826552864843097e+03 -4.1622562658284191e+05 +7.6067309121973421e+06 
+1.0000000000000000e+00 -5.9311278095803721e-01 +8.1254634770361420e+00 +5.1475530606159958e-01 +3.4441127462549879e+01 -6.0018325057437987e+03 -4.1535716698588169e+05 +8.0393384770254921e+06 
+1.1000000000000001e+00 -5.9311238710599168e-01 +8.1254394924117896e+00 +5.2237307114040354e-01 +3.4472490639118966e+01 -6.1163296920686234e+03 -4.1451835103833728e+05 +8.4533586764394753e+06 
+1.2000000000000000e+00 -5.9311200360346661e-01 +8.1254151794484741e+00 +5.2969677873343601e-01 +3.4507408620977536e+01 -6.2250269615069292e+03 -4.1371677616720734e+05 +8.8437054991866499e+06 
+1.3000000000000000e+00 -5.9311162976605925e-01 +8.1253904928320555e+00 +5.3666676233791621e-01 +3.4546909139474806e+01 -6.3268044585306998e+03 -4.1296003934035491e+05 +9.2052930607740972e+06 
+1.3999999999999999e+00 -5.9311126490940547e-01 +8.1253653872502163e+00 +5.4322334900467062e-01 +3.4592019825473542e+01 -6.4205422031645003e+03 -4.1225573684531898e+05 +9.5330348818319906e+06 
+1.5000000000000000e+00 -5.9311090834904201e-01 +8.1253398174004250e+00 +5.4930687191596472e-01 +3.4643767993666735e+01 -6.5051203278855719e+03 -4.1161146307774674e+05 +9.8218450045490563e+06 
+1.6000000000000001e+00 -5.9311055940062152e-01 +8.1253137379828395e+00 +5.5485766036354067e-01 +3.4703180839307500e+01 -6.5794188888999761e+03 -4.1103481164693378e+05 +1.0066637102101989e+07 
+1.7000000000000000e+00 -5.9311021737971370e-01 +8.1252871037001313e+00 +5.5981604016624742e-01 +3.4771285431342456e+01 -6.6423178698308511e+03 -4.1053337531455024e+05 +1.0262324484095208e+07 
+1.8000000000000000e+00 -5.9310988160191780e-01 +8.1252598692671025e+00 +5.6412234147636942e-01 +3.4849108452439076e+01 -6.6926973376248616e+03 -4.1011474451850838e+05 +1.0403820858241679e+07 
+1.8999999999999999e+00 -5.9310955138275356e-01 +8.1252319893990599e+00 +5.6771688744049087e-01 +3.4937676509760735e+01 -6.7294372162470472e+03 -4.0978650911505159e+05 +1.0486039224423954e+07 
+2.0000000000000000e+00 -5.9310922603782068e-01 +8.1252034188232845e+00 +5.7054000432004037e-01 +3.5038015815508743e+01 -6.7514174881816843e+03 -4.0955625655483338e+05 +1.0503892858349107e+07 
+2.1000000000000001e+00 -5.9310890492420532e-01 +8.1251741274921123e+00 +5.7255225522648556e-01 +3.5150983770900687e+01 -6.7579341384722093e+03 -4.0943001082336681e+05 +1.0454219270323290e+07 
+2.2000000000000002e+00 -5.9310858756862961e-01 +8.1251441398932354e+00 +5.7379546465443187e-01 +3.5276908834607752e+01 -6.7499554551528463e+03 -4.0940814257062087e+05 +1.0341583831088578e+07 
+2.2999999999999998e+00 -5.9310827354118967e-01 +8.1251134925433490e+00 +5.7433185683870203e-01 +3.5416024222017228e+01 -6.7288700134658930e+03 -4.0948975994317071e+05 +1.0172492196249709e+07 
+2.3999999999999999e+00 -5.9310796241195385e-01 +8.1250822219639929e+00 +5.7422365518842433e-01 +3.5568563031273804e+01 -6.6960663681089372e+03 -4.0967397045759152e+05 +9.9534499120621551e+06 
+2.5000000000000000e+00 -5.9310765375094521e-01 +8.1250503646783745e+00 +5.7353308177959617e-01 +3.5734758360985822e+01 -6.6529330563446092e+03 -4.0995988175404165e+05 +9.6909624658239875e+06 
+2.6000000000000001e+00 -5.9310734712826951e-01 +8.1250179572050598e+00 +5.7232236106728507e-01 +3.5914843490865991e+01 -6.6008586590589939e+03 -4.1034660263805400e+05 +9.3915355503124893e+06 
+2.7000000000000002e+00 -5.9310704211399701e-01 +8.1249850360659099e+00 +5.7065371670207732e-01 +3.6109051658777908e+01 -6.5412317448299100e+03 -4.1083324180312647e+05 +9.0616748102290127e+06 
+2.7999999999999998e+00 -5.9310673827814975e-01 +8.1249516377786382e+00 +5.6858936971487706e-01 +3.6317616294994025e+01 -6.4754408352218416e+03 -4.1141890923606616e+05 +8.7078856769015472e+06 
+2.8999999999999999e+00 -5.9310643519082829e-01 +8.1249177988652210e+00 +5.6619154359307156e-01 +3.6540770761550881e+01 -6.4048745053680868e+03 -4.1210271464778978e+05 +8.3366738600689070e+06 
+3.0000000000000000e+00 -5.9310613242212207e-01 +8.1248835558403325e+00 +5.6352246388695970e-01 +3.6778748723410224e+01 -6.3309213687324636e+03 -4.1288376973445993e+05 +7.9545452500736807e+06 
+3.1000000000000001e+00 -5.9310582954205238e-01 +8.1248489452188117e+00 +5.6064435060094753e-01 +3.7031783911013221e+01 -6.2549699387369601e+03 -4.1376118672948616e+05 +7.5680052819976099e+06 
+3.2000000000000002e+00 -5.9310552612074086e-01 +8.1248140035148779e+00 +5.5761942953964339e-01 +3.7300110173407838e+01 -6.1784088466206704e+03 -4.1473407879111968e+05 +7.1835599736967329e+06 
+3.2999999999999998e+00 -5.9310522172826319e-01 +8.1247787672379843e+00 +5.5450992326343407e-01 +3.7583961596453165e+01 -6.1026266626631423e+03 -4.1580156068278325e+05 +6.8077150614316072e+06 
+3.3999999999999999e+00 -5.9310491593466619e-01 +8.1247432728956586e+00 +5.5137805490847747e-01 +3.7883572411494413e+01 -6.0290119778080707e+03 -4.1696274821615114e+05 +6.4469764084331430e+06 
+3.5000000000000000e+00 -5.9310460831008760e-01 +8.1247075569930320e+00 +5.4828605079260206e-01 +3.8199177046750677e+01 -5.9589534454631084e+03 -4.1821675863877824e+05 +6.1078501862926614e+06 
+3.6000000000000001e+00 -5.9310429842460655e-01 +8.1246716560285321e+00 +5.4529613382578079e-01 +3.8531010237118295e+01 -5.8938396639711846e+03 -4.1956271123907791e+05 +5.7968423350855410e+06 
+3.7000000000000002e+00 -5.9310398584830926e-01 +8.1246356065023235e+00 +5.4247053050438021e-01 +3.8879306795112164e+01 -5.8350593031021708e+03 -4.2099972605569410e+05 +5.5204591492546713e+06 
+3.7999999999999998e+00 -5.9310367015130683e-01 +8.1245994449020422e+00 +5.3987146344836356e-01 +3.9244302027268176e+01 -5.7840009697609212e+03 -4.2252692627920647e+05 +5.2852066582104191e+06 
+3.8999999999999999e+00 -5.9310335090371813e-01 +8.1245632077179426e+00 +5.3756116293390865e-01 +3.9626231303551329e+01 -5.7420534221460275e+03 -4.2414343579502800e+05 +5.0975916330759553e+06 
+4.0000000000000000e+00 -5.9310302767570133e-01 +8.1245269314342874e+00 +5.3560185285063522e-01 +4.0025330312834598e+01 -5.7106053047607129e+03 -4.2584838068099599e+05 +4.9641203289398476e+06 
+4.0999999999999996e+00 -5.9310270025705947e-01 +8.1244906633368110e+00 +5.3404007190408287e-01 +4.0441173472685655e+01 -5.6906608178848192e+03 -4.2763778909443208e+05 +4.8894128087035632e+06 
+4.2000000000000002e+00 -5.9310236931529092e-01 +8.1244545136212913e+00 +5.3285905806236467e-01 +4.0870285008848271e+01 -5.6816629639137309e+03 -4.2949346171220118e+05 +4.8704337367323088e+06 
+4.2999999999999998e+00 -5.9310203573698594e-01 +8.1244186131711622e+00 +5.3202605109900714e-01 +4.1308323735897190e+01 -5.6826579037172060e+03 -4.3139318122715439e+05 +4.9022031583274184e+06 
+4.4000000000000004e+00 -5.9310170040872090e-01 +8.1243830928695751e+00 +5.3150829167460523e-01 +4.1750948409680575e+01 -5.6926918055686838e+03 -4.3331472980886593e+05 +4.9797411285441518e+06 
+4.5000000000000000e+00 -5.9310136421709769e-01 +8.1243480835967894e+00 +5.3127302372042129e-01 +4.2193817800873333e+01 -5.7108108937256857e+03 -4.3523588950872904e+05 +5.0980679466506587e+06 
+4.5999999999999996e+00 -5.9310102804869980e-01 +8.1243137162369656e+00 +5.3128749260187735e-01 +4.2632590497445435e+01 -5.7360614130204203e+03 -4.3713444111247134e+05 +5.2522039865962639e+06 
+4.7000000000000002e+00 -5.9310069279020250e-01 +8.1242801216657643e+00 +5.3151894706251335e-01 +4.3062925254146791e+01 -5.7674896620696782e+03 -4.3898816613625130e+05 +5.4371698459233372e+06 
+4.7999999999999998e+00 -5.9310035932824745e-01 +8.1242474307653172e+00 +5.3193463541290698e-01 +4.3480480547457894e+01 -5.8041419236935953e+03 -4.4077484422566369e+05 +5.6479860200807992e+06 
+4.9000000000000004e+00 -5.9310002854950294e-01 +8.1242157744143189e+00 +5.3250181232012916e-01 +4.3880914868169164e+01 -5.8450645903403229e+03 -4.4247225485625444e+05 +5.8796734907521950e+06 
+5.0000000000000000e+00 -5.9309970134070611e-01 +8.1241852834892345e+00 +5.3318773419153942e-01 +4.4259886666914753e+01 -5.8893040820262104e+03 -4.4405817696693388e+05 +6.1272533494564230e+06 
+5.0999999999999996e+00 -5.9309937858854789e-01 +8.1241560888636268e+00 +5.3395965792676048e-01 +4.4613054382213413e+01 -5.9359068122303297e+03 -4.4551038915241027e+05 +6.3857466069830246e+06 
+5.2000000000000002e+00 -5.9309906117985245e-01 +8.1241283214165509e+00 +5.3478484984935393e-01 +4.4936076176754213e+01 -5.9839193658708919e+03 -4.4680666806582594e+05 +6.6501750626845341e+06 
+5.2999999999999998e+00 -5.9309875000136913e-01 +8.1241021120211947e+00 +5.3563057033075767e-01 +4.5224610264163523e+01 -6.0323882027963637e+03 -4.4792479031881917e+05 +6.9155598803389035e+06 
+5.4000000000000004e+00 -5.9309844593992789e-01 +8.1240775915472287e+00 +5.3646408914540733e-01 +4.5474314845476890e+01 -6.0803599472071337e+03 -4.4884253212085296e+05 +7.1769229602933051e+06 
+5.5000000000000000e+00 -5.9309814988233633e-01 +8.1240548908701147e+00 +5.3725267772580831e-01 +4.5680847827234551e+01 -6.1268812493935602e+03 -4.4953766760746989e+05 +7.4292863032932626e+06 
+5.5999999999999996e+00 -5.9309786271550802e-01 +8.1240341408566152e+00 +5.3796361175967800e-01 +4.5839867213767825e+01 -6.1709988187689305e+03 -4.4998797104795842e+05 +7.6676721251911996e+06 
+5.7000000000000002e+00 -5.9309758532631029e-01 +8.1240154723787832e+00 +5.3856416906605453e-01 +4.5947030741175247e+01 -6.2117593977015613e+03 -4.5017121481985663e+05 +7.8871027692977330e+06 
+5.7999999999999998e+00 -5.9309731860172410e-01 +8.1239990163053601e+00 +5.3902163381016344e-01 +4.5997996080854762e+01 -6.2482098333351778e+03 -4.5006517047314515e+05 +8.0826010250406787e+06 
+5.9000000000000004e+00 -5.9309706342870194e-01 +8.1239849034984122e+00 +5.3930329002575583e-01 +4.5988420934433321e+01 -6.2793969557759465e+03 -4.4964760926878889e+05 +8.2491895517309858e+06 
+5.9999999999999902e+00 -5.9309682069426228e-01 +8.1239732648256648e+00 +5.3937642965492261e-01 +4.5913962700851883e+01 -6.3043677317514685e+03 -4.4889630027155363e+05 +8.3818916176104126e+06 
+6.0999999999999899e+00 -5.9309659114791569e-01 +8.1239642041788471e+00 +5.3921222990082174e-01 +4.5771398099367850e+01 -6.3223283945012399e+03 -4.4779500710505771e+05 +8.4767310725856591e+06 
+6.1999999999999904e+00 -5.9309637498212109e-01 +8.1239577008845796e+00 +5.3879757922244953e-01 +4.5562492374965707e+01 -6.3331500605667970e+03 -4.4635479516979342e+05 +8.5338947713093534e+06 
+6.2999999999999901e+00 -5.9309617224811684e-01 +8.1239536988387364e+00 +5.3812336497483670e-01 +4.5290391737891326e+01 -6.3368780312057843e+03 -4.4459441332191910e+05 +8.5546573923008330e+06 
+6.3999999999999897e+00 -5.9309598299719890e-01 +8.1239521419496672e+00 +5.3718046984258605e-01 +4.4958242040560492e+01 -6.3335575206533813e+03 -4.4253260872150178e+05 +8.5402932144150417e+06 
+6.4999999999999902e+00 -5.9309580728051015e-01 +8.1239529741319068e+00 +5.3595977449540877e-01 +4.4569188939895739e+01 -6.3232337016936290e+03 -4.4018812775262457e+05 +8.4920763210362587e+06 
+6.5999999999999899e+00 -5.9309564514934643e-01 +8.1239561393155881e+00 +5.3445215912665867e-01 +4.4126377606976519e+01 -6.3059517389057564e+03 -4.3757971429879515e+05 +8.4112807699807175e+06 
+6.6999999999999904e+00 -5.9309549665497419e-01 +8.1239615814378201e+00 +5.3264850255048557e-01 +4.3632953008567199e+01 -6.2817567684939377e+03 -4.3472611148603354e+05 +8.2991804901342047e+06 
+6.7999999999999901e+00 -5.9309536184851008e-01 +8.1239692444515441e+00 +5.3053967891508103e-01 +4.3092059644685740e+01 -6.2506938391931362e+03 -4.3164606015261938e+05 +8.1570490075780489e+06 
+6.8999999999999897e+00 -5.9309524078122722e-01 +8.1239790723205108e+00 +5.2811656156562459e-01 +4.2506841668714053e+01 -6.2128079818786509e+03 -4.2835829950497241e+05 +7.9861597701554857e+06 
+6.9999999999999902e+00 -5.9309513350433563e-01 +8.1239910090233032e+00 +5.2537001874760891e-01 +4.1880442804741215e+01 -6.1681441315224665e+03 -4.2488156672457582e+05 +7.7877857842131704e+06 
+7.0999999999999899e+00 -5.9309504006898539e-01 +8.1240049985502090e+00 +5.2229092063071458e-01 +4.1216006409441185e+01 -6.1167472570928503e+03 -4.2123459728367091e+05 +7.5632002243280597e+06 
+7.1999999999999904e+00 -5.9309496052632649e-01 +8.1240209849061991e+00 +5.1887012909766583e-01 +4.0516675416369772e+01 -6.0586621742121670e+03 -4.1743612471259147e+05 +7.3136755598809170e+06 
+7.2999999999999901e+00 -5.9309489492759160e-01 +8.1240389121108922e+00 +5.1509851058103884e-01 +3.9785592300134482e+01 -5.9939337789176398e+03 -4.1350488030602678e+05 +7.0404846406722926e+06 
+7.3999999999999897e+00 -5.9309484332391293e-01 +8.1240587241959243e+00 +5.1096692168868940e-01 +3.9025899195665872e+01 -5.9226067841009426e+03 -4.0945959395019611e+05 +6.7448994692376573e+06 
+7.4999999999999902e+00 -5.9309480576639451e-01 +8.1240803652117304e+00 +5.0646621772728972e-01 +3.8240737661261541e+01 -5.8447258789897614e+03 -4.0531899265080853e+05 +6.4281919536306867e+06 
+7.5999999999999899e+00 -5.9309478230620749e-01 +8.1241037792241109e+00 +5.0158725313286823e-01 +3.7433248809258316e+01 -5.7603357329652781e+03 -4.0110180139394262e+05 +6.0916339134122906e+06 
+7.6999999999999904e+00 -5.9309477299442226e-01 +8.1241289103125105e+00 +4.9632087585455342e-01 +3.6606573336186578e+01 -5.6694808949791513e+03 -3.9682674328350642e+05 +5.7364966195042375e+06 
+7.7999999999999901e+00 -5.9309477788221077e-01 +8.1241557025748090e+00 +4.9065793359339688e-01 +3.5763851394739781e+01 -5.5722059075723109e+03 -3.9251253883516986e+05 +5.3640513236452024e+06 
+7.8999999999999897e+00 -5.9309479702058032e-01 +8.1241841001234736e+00 +4.8458926706481892e-01 +3.4908222701144211e+01 -5.4685551831162074e+03 -3.8817790661954100e+05 +4.9755686815382987e+06 
+7.9999999999999902e+00 -5.9309483046061251e-01 +8.1242140470895610e+00 +4.7810571674314728e-01 +3.4042826457528570e+01 -5.3585731245283378e+03 -3.8384156304102269e+05 +4.5723192939161155e+06 
+8.0999999999999908e+00 -5.9309487812378947e-01 +8.1242454766475554e+00 +4.7120400826979209e-01 +3.3170801486807036e+01 -5.2423633830592835e+03 -3.7952223673661338e+05 +4.1554473689544490e+06 
+8.1999999999999904e+00 -5.9309493941547398e-01 +8.1242782728504839e+00 +4.6390538596222669e-01 +3.2294850250679751e+01 -5.1202704659743240e+03 -3.7523382803423674e+05 +3.7255920050097574e+06 
+8.2999999999999901e+00 -5.9309501361303796e-01 +8.1243123061643967e+00 +4.5623754945256845e-01 +3.1417452940755904e+01 -4.9926999153863044e+03 -3.7098778592751035e+05 +3.2832565120848021e+06 
+8.3999999999999897e+00 -5.9309509999386234e-01 +8.1243474470486117e+00 +4.4822820354008064e-01 +3.0541089996764825e+01 -4.8600573734262343e+03 -3.6679556019980996e+05 +2.8289446768507939e+06 
+8.4999999999999893e+00 -5.9309519783530928e-01 +8.1243835659393628e+00 +4.3990504461752528e-01 +2.9668242621655345e+01 -4.7227483343956746e+03 -3.6266860456164763e+05 +2.3631596196891167e+06 
+8.5999999999999908e+00 -5.9309530641468233e-01 +8.1244205332549306e+00 +4.3129576994561519e-01 +2.8801392657765987e+01 -4.5811783209340438e+03 -3.5861837598228216e+05 +1.8864046355618816e+06 
+8.6999999999999904e+00 -5.9309542500933976e-01 +8.1244582194011308e+00 +4.2242807724287190e-01 +2.7943022401395805e+01 -4.4357528741821834e+03 -3.5465633350498177e+05 +1.3991831392253309e+06 
+8.7999999999999794e+00 -5.9309555289653570e-01 +8.1244964947619529e+00 +4.1332965615894496e-01 +2.7095614905675294e+01 -4.2868773967258912e+03 -3.5079394008044939e+05 +9.0199793345646223e+05 
+8.8999999999999808e+00 -5.9309568935349877e-01 +8.1245352297018023e+00 +4.0402819773527077e-01 +2.6261653896003125e+01 -4.1349573276785777e+03 -3.4704266197466542e+05 +3.9535202887190902e+05 
+8.9999999999999805e+00 -5.9309583365746987e-01 +8.1245742945680046e+00 +3.9455138841293314e-01 +2.5443623720006286e+01 -3.9803980330962295e+03 -3.4341396853457374e+05 -1.2025186621728074e+05 
+9.0999999999999801e+00 -5.9309598508565187e-01 +8.1246135596823894e+00 +3.8492691459253175e-01 +2.4644009589129890e+01 -3.8236048884557076e+03 -3.3991933353834308e+05 -6.4431096514589351e+05 
+9.1999999999999797e+00 -5.9309614291518153e-01 +8.1246528953488735e+00 +3.7518246009017125e-01 +2.3865297341309898e+01 -3.6649832405863940e+03 -3.3657023376185982e+05 -1.1763225545680469e+06 
+9.2999999999999794e+00 -5.9309630642319355e-01 +8.1246921718556742e+00 +3.6534570141190004e-01 +2.3109973423661351e+01 -3.5049383035551909e+03 -3.3337814896688459e+05 -1.7157845295389686e+06 
+9.3999999999999808e+00 -5.9309647488679951e-01 +8.1247312594545598e+00 +3.5544431779759961e-01 +2.2380525453454499e+01 -3.3438753628392951e+03 -3.3035456502182997e+05 -2.2621943853191431e+06 
+9.4999999999999805e+00 -5.9309664758306213e-01 +8.1247700283882587e+00 +3.4550598337565774e-01 +2.1679441449074901e+01 -3.1821996178829477e+03 -3.2751096948800405e+05 -2.8150499899818804e+06 
+9.5999999999999801e+00 -5.9309682378895734e-01 +8.1248083488717810e+00 +3.3555837069552497e-01 +2.1009210388346407e+01 -3.0203162567512341e+03 -3.2485885487471765e+05 -3.3738492083163923e+06 
+9.6999999999999797e+00 -5.9309700278156541e-01 +8.1248460910905713e+00 +3.2562914816741428e-01 +2.0372322225889949e+01 -2.8586304046344139e+03 -3.2240971861221665e+05 -3.9380901530726743e+06 
+9.7999999999999794e+00 -5.9309718383778076e-01 +8.1248831252113725e+00 +3.1574598064476311e-01 +1.9771267622227249e+01 -2.6975471295127732e+03 -3.2017506158340740e+05 -4.5072711762906415e+06 
+9.8999999999999808e+00 -5.9309736623456211e-01 +8.1249193213753124e+00 +3.0593653174875335e-01 +1.9208538121811269e+01 -2.5374714980075369e+03 -3.1816638905393262e+05 -5.0808905660922909e+06 
+9.9999999999999805e+00 -5.9309754924879510e-01 +8.1249545496964597e+00 +2.9622846179430906e-01 +1.8686626136873759e+01 -2.3788085395612748e+03 -3.1639521028227941e+05 -5.6584466950013712e+06 
+1.0100000000000000e+01 -5.9309773229836871e-01 +8.1249886817177437e+00 +2.8664668355705225e-01 +1.8207455573358708e+01 -2.2219441969875065e+03 -3.1486836586555000e+05 -6.2392399244172610e+06 
