# multipoles
# s[mm] polynom_b[n=0][T/m^n] polynom_b[n=1][T/m^n] polynom_b[n=2][T/m^n] polynom_b[n=3][T/m^n] polynom_b[n=4][T/m^n] polynom_b[n=5][T/m^n] polynom_b[n=6][T/m^n] 
-0.0000000000000000e+00 -5.6495056590823123e-01 +7.7409834371969355e+00 -1.7812198505564375e-01 -2.8600417767639827e+00 +3.7599030949318640e+03 -1.1367414035535106e+05 -2.0816023321304962e+07 
-1.0000000000000001e-01 -5.6495059629241351e-01 +7.7409766427377429e+00 -1.7908513150009178e-01 -2.8192983728937926e+00 +3.7802721267378379e+03 -1.1311824416081543e+05 -2.0859991389406499e+07 
-2.0000000000000001e-01 -5.6495064936234574e-01 +7.7409697364209071e+00 -1.7882138533754302e-01 -2.7522413355742139e+00 +3.7841468250442822e+03 -1.1274214064478716e+05 -2.0843126342011698e+07 
-2.9999999999999999e-01 -5.6495072312260441e-01 +7.7409629242570261e+00 -1.7742155296383372e-01 -2.6648498299838717e+00 +3.7728002677643804e+03 -1.1251602288258930e+05 -2.0770836724622212e+07 
-4.0000000000000002e-01 -5.6495081557787041e-01 +7.7409564122440573e+00 -1.7497644042786137e-01 -2.5631026665153009e+00 +3.7475055270462376e+03 -1.1241008593332194e+05 -2.0648531053944342e+07 
-5.0000000000000000e-01 -5.6495092473274011e-01 +7.7409504063812609e+00 -1.7157685396841163e-01 -2.4529787060999211e+00 +3.7095356792303874e+03 -1.1239452447148884e+05 -2.0481617864297334e+07 
-5.9999999999999998e-01 -5.6495104859186263e-01 +7.7409451126527244e+00 -1.6731360091293052e-01 -2.3404563742622146e+00 +3.6601638244883761e+03 -1.1243953562401904e+05 -2.0275505807475612e+07 
-6.9999999999999996e-01 -5.6495118515984899e-01 +7.7409407370497822e+00 -1.6227748659345265e-01 -2.2315143264864368e+00 +3.6006630287754965e+03 -1.1251531505595238e+05 -2.0035603380843326e+07 
-8.0000000000000004e-01 -5.6495133244132656e-01 +7.7409374855490105e+00 -1.5655931833426431e-01 -2.1321307740479507e+00 +3.5323063984536484e+03 -1.1259206098107985e+05 -1.9767319276724901e+07 
-9.0000000000000002e-01 -5.6495148844093779e-01 +7.7409355641287041e+00 -1.5024990247419284e-01 -2.0482839801354253e+00 +3.4563670300224944e+03 -1.1263997122290292e+05 -1.9476062163518347e+07 
-1.0000000000000000e+00 -5.6495165116334545e-01 +7.7409351787683862e+00 -1.4344004271790925e-01 -1.9859522286191638e+00 +3.3741179713492052e+03 -1.1262924343331865e+05 -1.9167240481145572e+07 
-1.1000000000000001e+00 -5.6495181861323807e-01 +7.7409365354382986e+00 -1.3622054761833605e-01 -1.9511135252443939e+00 +3.2868323718769757e+03 -1.1253007680444508e+05 -1.8846263176808365e+07 
-1.2000000000000000e+00 -5.6495198879523134e-01 +7.7409398401089886e+00 -1.2868221759718834e-01 -1.9497458484373742e+00 +3.1957832326990165e+03 -1.1231267068308183e+05 -1.8518538508939076e+07 
-1.3000000000000000e+00 -5.6495215971402923e-01 +7.7409452987548448e+00 -1.2091585684302586e-01 -1.9878272785266133e+00 +3.1022436361647242e+03 -1.1194722373611671e+05 -1.8189475149384834e+07 
-1.3999999999999999e+00 -5.6495232937434692e-01 +7.7409531173465007e+00 -1.1301226878102585e-01 -2.0713357456300487e+00 +3.0074866576388458e+03 -1.1140393549548699e+05 -1.7864481756953098e+07 
-1.5000000000000000e+00 -5.6495249578088436e-01 +7.7409635018574567e+00 -1.0506225241779979e-01 -2.2062492327162846e+00 +2.9127853004287358e+03 -1.1065300514482337e+05 -1.7548966682831462e+07 
-1.6000000000000001e+00 -5.6495265693836061e-01 +7.7409766582625270e+00 -9.7156608749483009e-02 -2.3985457156804015e+00 +2.8194126150993170e+03 -1.0966463189850459e+05 -1.7248338528655507e+07 
-1.7000000000000000e+00 -5.6495281085154003e-01 +7.7409927925366633e+00 -8.9386133625709074e-02 -2.6542031271338686e+00 +2.7286415673057440e+03 -1.0840901520765266e+05 -1.6968005531744558e+07 
-1.8000000000000000e+00 -5.6495295552520020e-01 +7.7410121106589367e+00 -8.1841625559838316e-02 -2.9791994737994583e+00 +2.6417451839134064e+03 -1.0685635407253185e+05 -1.6713376251372626e+07 
-1.8999999999999999e+00 -5.6495308896411733e-01 +7.7410348186137501e+00 -7.4613877351275407e-02 -3.3795128591455179e+00 +2.5599963997251452e+03 -1.0497684693430914e+05 -1.6489858857368670e+07 
-2.0000000000000000e+00 -5.6495320917312142e-01 +7.7410611223871753e+00 -6.7793682256779605e-02 -3.8611213659944594e+00 +2.4846681673855542e+03 -1.0274069237905485e+05 -1.6302861633398093e+07 
-2.1000000000000001e+00 -5.6495331477319544e-01 +7.7410911393224673e+00 -6.1446270124619722e-02 -4.4278321038708182e+00 +2.4166634695222892e+03 -1.0012822221617622e+05 -1.6156096389577668e+07 
-2.2000000000000002e+00 -5.6495340684890794e-01 +7.7411246344033744e+00 -5.5533613984077815e-02 -5.0747429861407989e+00 +2.3553797553883228e+03 -9.7160793662653290e+04 -1.6046369477586286e+07 
-2.2999999999999998e+00 -5.6495348710029769e-01 +7.7411612850420575e+00 -4.9991618132752887e-02 -5.7947672998173454e+00 +2.2998315670128954e+03 -9.3870147203778703e+04 -1.5968730205953542e+07 
-2.3999999999999999e+00 -5.6495355722745433e-01 +7.7412007686537301e+00 -4.4756187183622599e-02 -6.5808184428395027e+00 +2.2490334482713224e+03 -9.0288022661143754e+04 -1.5918227880249863e+07 
-2.5000000000000000e+00 -5.6495361893039875e-01 +7.7412427626506135e+00 -3.9763227219287454e-02 -7.4258097480476151e+00 +2.2019999685540079e+03 -8.6446160257794807e+04 -1.5889911919304360e+07 
-2.6000000000000001e+00 -5.6495367390915363e-01 +7.7412869444415762e+00 -3.4948643495357867e-02 -8.3226544773590980e+00 +2.1577456763658265e+03 -8.2376300624978699e+04 -1.5878831627322305e+07 
-2.7000000000000002e+00 -5.6495372386383969e-01 +7.7413329914330173e+00 -3.0248342200810734e-02 -9.2642658530116577e+00 +2.1152851288972756e+03 -7.8110184649069008e+04 -1.5880036324280435e+07 
-2.7999999999999998e+00 -5.6495377049437356e-01 +7.7413805810330336e+00 -2.5598233218852524e-02 -1.0243557185219714e+01 +2.0736329461824230e+03 -7.3679552710562144e+04 -1.5888575607143464e+07 
-2.8999999999999999e+00 -5.6495381550081936e-01 +7.7414293906384435e+00 -2.0934225047222432e-02 -1.1253441492960183e+01 +2.0318037139203859e+03 -6.9116146927878537e+04 -1.5899498885730710e+07 
-3.0000000000000000e+00 -5.6495386058314057e-01 +7.7414790976505481e+00 -1.6192226989024828e-02 -1.2286831978718405e+01 +1.9888120206296880e+03 -6.4451708351767236e+04 -1.5907855547618294e+07 
-3.1000000000000001e+00 -5.6495390744129459e-01 +7.7415293794656419e+00 -1.1308152003250168e-02 -1.3336641750261139e+01 +1.9436725163061267e+03 -5.9717978618439614e+04 -1.5908695249081220e+07 
-3.2000000000000002e+00 -5.6495395777525481e-01 +7.7415799134743155e+00 -6.2179131719530406e-03 -1.4395783804835856e+01 +1.8953998366198853e+03 -5.4946700039640979e+04 -1.5897067529717537e+07 
-3.2999999999999998e+00 -5.6495401328488792e-01 +7.7416303770659658e+00 -8.5742492862994092e-04 -1.5457171163419728e+01 +1.8430086302745392e+03 -5.0169614836064517e+04 -1.5868021956293462e+07 
-3.3999999999999999e+00 -5.6495407567017264e-01 +7.7416804476251091e+00 +4.8373957119739229e-03 -1.6513716775021940e+01 +1.7855135791742241e+03 -4.5418465674727915e+04 -1.5816608205825958e+07 
-3.5000000000000000e+00 -5.6495414663087795e-01 +7.7417298025341221e+00 +1.0930628308641123e-02 -1.7558333601306330e+01 +1.7219294132691218e+03 -4.0724995181334023e+04 -1.5737876135817397e+07 
-3.6000000000000001e+00 -5.6495422786690386e-01 +7.7417781191657449e+00 +1.7486352310385648e-02 -1.8583934390375099e+01 +1.6512708490331679e+03 -3.6120947297338316e+04 -1.5626875493185144e+07 
-3.7000000000000002e+00 -5.6495432107803423e-01 +7.7418250748971174e+00 +2.4568644996948743e-02 -1.9583432106577956e+01 +1.5725526236667217e+03 -3.1638064739669317e+04 -1.5478656065480232e+07 
-3.7999999999999998e+00 -5.6495442796403317e-01 +7.7418703470911820e+00 +3.2241579787415195e-02 -2.0549739385042347e+01 +1.4847895261061392e+03 -2.7308092195836452e+04 -1.5288267824273041e+07 
-3.8999999999999999e+00 -5.6495455022464414e-01 +7.7419136131142121e+00 +4.0569228729490543e-02 -2.1475769049586805e+01 +1.3869963516424350e+03 -2.3162773312488840e+04 -1.5050760713546373e+07 
-4.0000000000000000e+00 -5.6495468955958805e-01 +7.7419545503229399e+00 +4.9615659613070087e-02 -2.2354433735810147e+01 +1.2781879553713202e+03 -1.9233852926295749e+04 -1.4761184902939618e+07 
-4.0999999999999996e+00 -5.6495484713917443e-01 +7.7419928915015559e+00 +5.9419783224733715e-02 -2.3180025749240297e+01 +1.1577438880360071e+03 -1.5546689626488896e+04 -1.4416232095253397e+07 
-4.2000000000000002e+00 -5.6495502201726622e-01 +7.7420285887262441e+00 +6.9918500875465583e-02 -2.3952394733272410e+01 +1.0265378838371294e+03 -1.2100323339441733e+04 -1.4019325678259272e+07 
-4.2999999999999998e+00 -5.6495521271866278e-01 +7.7420616483640226e+00 +8.1022862111082949e-02 -2.4672791495978753e+01 +8.8582626846233586e+02 -8.8870136142564788e+03 -1.3575615185084123e+07 
-4.4000000000000004e+00 -5.6495541776829017e-01 +7.7420920768022752e+00 +9.2643919852456305e-02 -2.5342467388513210e+01 +7.3686529517775830e+02 -5.8990170291785753e+03 -1.3090249789897794e+07 
-4.5000000000000000e+00 -5.6495563569097063e-01 +7.7421198804300744e+00 +1.0469272517188630e-01 -2.5962673765656447e+01 +5.8091125310827840e+02 -3.1285903120610960e+03 -1.2568378846635945e+07 
-4.5999999999999996e+00 -5.6495586501156292e-01 +7.7421450656538111e+00 +1.1708033071076134e-01 -2.6534662426871773e+01 +4.1922039881000410e+02 -5.6798780757152667e+02 -1.2015151553689050e+07 
-4.7000000000000002e+00 -5.6495610425492737e-01 +7.7421676388940739e+00 +1.2971778743497125e-01 -2.7059685528248529e+01 +2.5304901625216357e+02 +1.7905380127378830e+03 -1.1435717237856733e+07 
-4.7999999999999998e+00 -5.6495635194586780e-01 +7.7421876065793844e+00 +1.4251614675022670e-01 -2.7538995385905206e+01 +8.3653379926896790e+01 +3.9547353773675704e+03 -1.0835225184829466e+07 
-4.9000000000000004e+00 -5.6495660660920444e-01 +7.7422049751614139e+00 +1.5538645965638259e-01 -2.7973844932835810e+01 -8.7710229645578536e+01 +5.9323559033542224e+03 -1.0218824715380995e+07 
-5.0000000000000000e+00 -5.6495686676975521e-01 +7.7422197511000546e+00 +1.6823977783965646e-01 -2.8365487261137350e+01 -2.5978554798316190e+02 +7.7311518841566494e+03 -9.5916650739469305e+06 
-5.0999999999999996e+00 -5.6495713095235034e-01 +7.7422319408705613e+00 +1.8098715252480116e-01 -2.8715175833442881e+01 -4.3131630680300304e+02 +9.3588775188626787e+03 -8.9588955205487739e+06 
-5.2000000000000002e+00 -5.6495739768176712e-01 +7.7422415509698741e+00 +1.9353963526031664e-01 -2.9024164666589702e+01 -6.0104623860458548e+02 +1.0823289988245873e+04 -8.3256653360792929e+06 
-5.2999999999999998e+00 -5.6495766548278648e-01 +7.7422485879094411e+00 +2.0580827652763423e-01 -2.9293708113846439e+01 -7.6771906307829249e+02 +1.2132148166952096e+04 -7.6971238537555235e+06 
-5.4000000000000004e+00 -5.6495793288024299e-01 +7.7422530582176226e+00 +2.1770413069389580e-01 -2.9525060929735098e+01 -9.3007857384352519e+02 +1.3293212985668048e+04 -7.0784200655232025e+06 
-5.5000000000000000e+00 -5.6495819839882744e-01 +7.7422549684440618e+00 +2.2913824617925851e-01 -2.9719478398094431e+01 -1.0868684537474080e+03 +1.4314248180293116e+04 -6.4747034976490773e+06 
-5.5999999999999996e+00 -5.6495846056341170e-01 +7.7422543251558729e+00 +2.4002167682812950e-01 -2.9878216214970216e+01 -1.2368324874086086e+03 +1.5203019594416197e+04 -5.8911232063417891e+06 
-5.7000000000000002e+00 -5.6495871789867336e-01 +7.7422511349413874e+00 +2.5026547489719198e-01 -3.0002530594130079e+01 -1.3787144322556278e+03 +1.5967295791635577e+04 -5.3328283829232994e+06 
-5.7999999999999998e+00 -5.6495896892941255e-01 +7.7422454044105606e+00 +2.5978069174590335e-01 -3.0093678262788419e+01 -1.5112580313321873e+03 +1.6614847980881092e+04 -4.8049682935064146e+06 
-5.9000000000000004e+00 -5.6495921218032674e-01 +7.7422371401894665e+00 +2.6847838058155699e-01 -3.0152916320761502e+01 -1.6332070600920601e+03 +1.7153449260646368e+04 -4.3126920702726869e+06 
-5.9999999999999902e+00 -5.6495944617623406e-01 +7.7422263489365113e+00 +2.7626959375165527e-01 -3.0181502677857033e+01 -1.7433052796511399e+03 +1.7590877067556463e+04 -3.8611489238210558e+06 
-6.0999999999999899e+00 -5.6495966984781254e-01 +7.7422130496256854e+00 +2.8308786628179933e-01 -3.0180183304465768e+01 -1.8405993188086736e+03 +1.7930751856195944e+04 -3.4543564511477863e+06 
-6.1999999999999904e+00 -5.6495988374280459e-01 +7.7421973146917358e+00 +2.8895512115351574e-01 -3.0147817032627472e+01 -1.9253467120456294e+03 +1.8161299299387167e+04 -3.0917445688683069e+06 
-6.2999999999999901e+00 -5.6496008881161741e-01 +7.7421792309265163e+00 +2.9391501073056836e-01 -3.0082824746199261e+01 -1.9981077720819253e+03 +1.8267167083328161e+04 -2.7715810900922418e+06 
-6.3999999999999897e+00 -5.6496028600458770e-01 +7.7421588851127625e+00 +2.9801117991488058e-01 -2.9983627057200579e+01 -2.0594426657307981e+03 +1.8233001484321590e+04 -2.4921345155686103e+06 
-6.4999999999999902e+00 -5.6496047627200319e-01 +7.7421363640283154e+00 +3.0128727290162782e-01 -2.9848644443007981e+01 -2.1099115406170604e+03 +1.8043448181842425e+04 -2.2516734342239480e+06 
-6.5999999999999899e+00 -5.6496066056426431e-01 +7.7421117544413658e+00 +3.0378693032328385e-01 -2.9676297106206619e+01 -2.1500744656468901e+03 +1.7683151448201177e+04 -2.0484668138829484e+06 
-6.6999999999999904e+00 -5.6496083983167811e-01 +7.7420851431055304e+00 +3.0555378998437038e-01 -2.9465004826202946e+01 -2.1804914521158353e+03 +1.7136753271253921e+04 -1.8807838858023356e+06 
-6.7999999999999901e+00 -5.6496101502455753e-01 +7.7420566167677256e+00 +3.0663148396977558e-01 -2.9213187201439737e+01 -2.2017223934930657e+03 +1.6388894820222929e+04 -1.7468944421313109e+06 
-6.8999999999999897e+00 -5.6496118709322740e-01 +7.7420262621658482e+00 +3.0706364305995915e-01 -2.8919263580213720e+01 -2.2143271495635099e+03 +1.5424216037466062e+04 -1.6450684343234939e+06 
-6.9999999999999902e+00 -5.6496135698802241e-01 +7.7419941660253659e+00 +3.0689389286189395e-01 -2.8581652948537680e+01 -2.2188654741380105e+03 +1.4227354961064879e+04 -1.5735763127145469e+06 
-7.0999999999999899e+00 -5.6496152565920843e-01 +7.7419604150562504e+00 +3.0616585452962519e-01 -2.8198773861833320e+01 -2.2158970265221301e+03 +1.2782947395532719e+04 -1.5306889775161701e+06 
-7.1999999999999904e+00 -5.6496169405708796e-01 +7.7419250959603332e+00 +3.0492314701516710e-01 -2.7769044647841429e+01 -2.2059814151669807e+03 +1.1075628067577218e+04 -1.5146775669127298e+06 
-7.2999999999999901e+00 -5.6496186313197416e-01 +7.7418882954237027e+00 +3.0320938399557779e-01 -2.7290883187750218e+01 -2.1896781387504366e+03 +9.0900293718748744e+03 -1.5238137396509130e+06 
-7.3999999999999897e+00 -5.6496203383409149e-01 +7.7418501001223996e+00 +3.0106817503846628e-01 -2.6762707083578810e+01 -2.1675466068482597e+03 +6.8107823482922468e+03 -1.5563695764242385e+06 
-7.4999999999999902e+00 -5.6496220711379519e-01 +7.7418105967142861e+00 +2.9854312518267079e-01 -2.6182933429845161e+01 -2.1401461314795179e+03 +4.2225153961978331e+03 -1.6106176250635053e+06 
-7.5999999999999899e+00 -5.6496238392126841e-01 +7.7417698718466452e+00 +2.9567783557960137e-01 -2.5549979021974018e+01 -2.1080359422046076e+03 +1.3098554529980217e+03 -1.6848308159411289e+06 
-7.6999999999999904e+00 -5.6496256520679333e-01 +7.7417280121470906e+00 +2.9251590166510533e-01 -2.4862260105777860e+01 -2.0717751458866060e+03 -1.9425734177336690e+03 -1.7772826689362917e+06 
-7.7999999999999901e+00 -5.6496275192065903e-01 +7.7416851042291057e+00 +2.8910091634298785e-01 -2.4118192530052216e+01 -2.0319227917932837e+03 -5.5501491440852833e+03 -1.8862469702423087e+06 
-7.8999999999999897e+00 -5.6496294501307531e-01 +7.7416412346932244e+00 +2.8547646534490123e-01 -2.3316191786661232e+01 -1.9890377789816471e+03 -9.5282514025178461e+03 -2.0099982241882361e+06 
-7.9999999999999902e+00 -5.6496314543431170e-01 +7.7415964901187939e+00 +2.8168613122687425e-01 -2.2454672801098337e+01 -1.9436789375611395e+03 -1.3892262676595128e+04 -2.1468112440856495e+06 
-8.0999999999999908e+00 -5.6496335401735798e-01 +7.7415509864486491e+00 +2.7777022438752108e-01 -2.1533731901599204e+01 -1.8963629768571830e+03 -1.8646349026348420e+04 -2.2950257613335755e+06 
-8.1999999999999904e+00 -5.6496357115528384e-01 +7.7415049522239325e+00 +2.7375849044577533e-01 -2.0560110180910474e+01 -1.8474300145838849e+03 -2.3750985732121331e+04 -2.4534334307094328e+06 
-8.2999999999999901e+00 -5.6496379713800304e-01 +7.7414586431797412e+00 +2.6967864295252064e-01 -1.9542208212514243e+01 -1.7971734065571013e+03 -2.9155896331720553e+04 -2.6209874998521078e+06 
-8.3999999999999897e+00 -5.6496403225556735e-01 +7.7414123150419165e+00 +2.6555840850480716e-01 -1.8488426421466787e+01 -1.7458867375675482e+03 -3.4810805027011789e+04 -2.7966402044829009e+06 
-8.4999999999999893e+00 -5.6496427679811023e-01 +7.7413662235228342e+00 +2.6142552028603794e-01 -1.7407164960551381e+01 -1.6938637090797690e+03 -4.0665437253893273e+04 -2.9793432806332204e+06 
-8.5999999999999908e+00 -5.6496453105579592e-01 +7.7413206243345005e+00 +2.5730772297628340e-01 -1.6306824072904167e+01 -1.6413982332408559e+03 -4.6669517652526301e+04 -3.1680475222048732e+06 
-8.6999999999999904e+00 -5.6496479531890786e-01 +7.7412757731761879e+00 +2.5323277219633344e-01 -1.5195803760542764e+01 -1.5887844184745150e+03 -5.2772771899016392e+04 -3.3617028555408437e+06 
-8.7999999999999794e+00 -5.6496506987781059e-01 +7.7412319257376856e+00 +2.4922843436864239e-01 -1.4082503862531549e+01 -1.5363165715276398e+03 -5.8924926307285445e+04 -3.5592583220404517e+06 
-8.8999999999999808e+00 -5.6496535502297784e-01 +7.7411893377002183e+00 +2.4532248553764319e-01 -1.2975324098051875e+01 -1.4842891671602140e+03 -6.5075707529001673e+04 -3.7596622432338460e+06 
-8.9999999999999805e+00 -5.6496565104490859e-01 +7.7411482647357834e+00 +2.4154271233582408e-01 -1.1882664038240032e+01 -1.4329968723873851e+03 -7.1174842744099777e+04 -3.9618620914260959e+06 
-9.0999999999999801e+00 -5.6496595823424600e-01 +7.7411089625045220e+00 +2.3791691638107090e-01 -1.0812923047663499e+01 -1.3827346302788644e+03 -7.7172059958238868e+04 -4.1648040914788377e+06 
-9.1999999999999797e+00 -5.6496627688171874e-01 +7.7410716866623117e+00 +2.3447290980642260e-01 -9.7745004905474069e+00 -1.3337975711721488e+03 -8.3017086839095544e+04 -4.3674336539799459e+06 
-9.2999999999999794e+00 -5.6496660727816150e-01 +7.7410366928490939e+00 +2.3123851460699688e-01 -8.7757954170062060e+00 -1.2864809999138085e+03 -8.8659652466025975e+04 -4.5686954391936287e+06 
-9.3999999999999808e+00 -5.6496694971448347e-01 +7.7410042366962211e+00 +2.2824156987109434e-01 -7.8252067538399714e+00 -1.2410805388041256e+03 -9.4049486294967675e+04 -4.7675326626747213e+06 
-9.4999999999999805e+00 -5.6496730448169463e-01 +7.7409745738258104e+00 +2.2550992323588401e-01 -6.9311333199138510e+00 -1.1978919551345402e+03 -9.9136317974521269e+04 -4.9628879444854083e+06 
-9.5999999999999801e+00 -5.6496767187094210e-01 +7.7409479598475102e+00 +2.2307144037646437e-01 -6.1019737045722051e+00 -1.1572113517835865e+03 -1.0386987812043131e+05 -5.1537023759754570e+06 
-9.6999999999999797e+00 -5.6496805217347468e-01 +7.7409246503593003e+00 +2.2095399631275994e-01 -5.3461263194745676e+00 -1.1193349958855397e+03 -1.0819989794589432e+05 -5.3389163515755292e+06 
-9.7999999999999794e+00 -5.6496844568059446e-01 +7.7409049009501230e+00 +2.1918547952928241e-01 -4.6719894605532488e+00 -1.0845593944477059e+03 -1.1207610894167112e+05 -5.5174692190058865e+06 
-9.8999999999999808e+00 -5.6496885268378350e-01 +7.7408889671972831e+00 +2.1779379869883825e-01 -4.0879612474688392e+00 -1.0531814312347487e+03 -1.1544824317998246e+05 -5.6882986041350551e+06 
-9.9999999999999805e+00 -5.6496927347462789e-01 +7.7408771046639240e+00 +2.1680687155343423e-01 -3.6024395344179667e+00 -1.0254981428909225e+03 -1.1826603404122805e+05 -5.8503415252657291e+06 
-1.0100000000000000e+01 -5.6496970808952440e-01 +7.7408694964258178e+00 +2.1624145583930560e-01 -3.2217882436525249e+00 -1.0017174751738283e+03 -1.2049123912495590e+05 -6.0027473896636376e+06 
