# multipoles
# s[mm] polynom_b[n=0][T/m^n] polynom_b[n=1][T/m^n] polynom_b[n=2][T/m^n] polynom_b[n=3][T/m^n] polynom_b[n=4][T/m^n] polynom_b[n=5][T/m^n] polynom_b[n=6][T/m^n] 
+0.0000000000000000e+00 -5.3710113482643118e-01 +7.3564897933515487e+00 -3.4207453078275890e-01 +2.2899236379536838e+01 +1.1490369568380177e+03 -2.6314237514807284e+05 -9.6463353188904934e+06 
+1.0000000000000001e-01 -5.3710119445498550e-01 +7.3564988733993797e+00 -3.4323027505556480e-01 +2.2536310976342431e+01 +1.1765982800872885e+03 -2.6037050783517453e+05 -9.7418627510775868e+06 
+2.0000000000000001e-01 -5.3710126030622618e-01 +7.3565121521875554e+00 -3.4429398211743006e-01 +2.2111764368875587e+01 +1.2025685091794192e+03 -2.5736862069260891e+05 -9.8321064427946564e+06 
+2.9999999999999999e-01 -5.3710133225869006e-01 +7.3565293110227659e+00 -3.4528322396138766e-01 +2.1630541114746720e+01 +1.2271077224144597e+03 -2.5415744253058985e+05 -9.9172268907035701e+06 
+4.0000000000000002e-01 -5.3710141019103119e-01 +7.3565500312076653e+00 -3.4621557125614066e-01 +2.1097585896458970e+01 +1.2503759802530176e+03 -2.5075770287919606e+05 -9.9973845205523893e+06 
+5.0000000000000000e-01 -5.3710149398182550e-01 +7.3565739940452941e+00 -3.4710859482253914e-01 +2.0517843382073416e+01 +1.2725333499183189e+03 -2.4719013115436953e+05 -1.0072739798569867e+07 
+5.9999999999999998e-01 -5.3710158350971571e-01 +7.3566008808396219e+00 -3.4797986458067254e-01 +1.9896258223140908e+01 +1.2937398876537604e+03 -2.4347545669038710e+05 -1.0143453152846619e+07 
+6.9999999999999996e-01 -5.3710167865328295e-01 +7.3566303728975182e+00 -3.4884695198311394e-01 +1.9237774989721476e+01 +1.3141556819055352e+03 -2.3963440835289407e+05 -1.0209685169960793e+07 
+8.0000000000000004e-01 -5.3710177929116343e-01 +7.3566621515237474e+00 -3.4972742555352321e-01 +1.8547338321803657e+01 +1.3339407695375201e+03 -2.3568771543406646e+05 -1.0271596199974623e+07 
+9.0000000000000002e-01 -5.3710188530198311e-01 +7.3566958980273505e+00 -3.5063885530605254e-01 +1.7829892738562179e+01 +1.3532552183775947e+03 -2.3165610654580276e+05 -1.0329346745603804e+07 
+1.0000000000000000e+00 -5.3710199656436208e-01 +7.3567312937170009e+00 -3.5159881197035336e-01 +1.7090382785288615e+01 +1.3722591096368124e+03 -2.2756031050353404e+05 -1.0383097371670488e+07 
+1.1000000000000001e+00 -5.3710211295697241e-01 +7.3567680199050294e+00 -3.5262486682058031e-01 +1.6333752906643262e+01 +1.3911125386539982e+03 -2.2342105557550010e+05 -1.0433008718970116e+07 
+1.2000000000000000e+00 -5.3710223435835758e-01 +7.3568057579041213e+00 -3.5373459027843257e-01 +1.5564947549456846e+01 +1.4099755824117267e+03 -2.1925907011038388e+05 -1.0479241334455349e+07 
+1.3000000000000000e+00 -5.3710236064715844e-01 +7.3568441890325582e+00 -3.5494555346901635e-01 +1.4788911015449568e+01 +1.4290083308271951e+03 -2.1509508168898348e+05 -1.0521955825950658e+07 
+1.3999999999999999e+00 -5.3710249170200441e-01 +7.3568829946095251e+00 -3.5627532892747044e-01 +1.4010587590264315e+01 +1.4483708989001427e+03 -2.1094981787450309e+05 -1.0561312914613670e+07 
+1.5000000000000000e+00 -5.3710262740145653e-01 +7.3569218559557914e+00 -3.5774149053250476e-01 +1.3234921524959084e+01 +1.4682234271944194e+03 -2.0684400610499358e+05 -1.0597473445874728e+07 
+1.6000000000000001e+00 -5.3710276762410680e-01 +7.3569604543982194e+00 -3.5936161110098463e-01 +1.2466856920197431e+01 +1.4887260302540924e+03 -2.0279837307628762e+05 -1.0630598123185432e+07 
+1.7000000000000000e+00 -5.3710291224851936e-01 +7.3569984712648502e+00 -3.6115326572373047e-01 +1.1711337852420442e+01 +1.5100388625750700e+03 -1.9883364543360966e+05 -1.0660847836251508e+07 
+1.8000000000000000e+00 -5.3710306115327000e-01 +7.3570355878911249e+00 -3.6313403099553831e-01 +1.0973308203587285e+01 +1.5323221028746004e+03 -1.9497054881768589e+05 -1.0688383576902807e+07 
+1.8999999999999999e+00 -5.3710321421686635e-01 +7.3570714856152257e+00 -3.6532148419503185e-01 +1.0257711798612545e+01 +1.5557359376963479e+03 -1.9122980867398731e+05 -1.0713366363720214e+07 
+2.0000000000000000e+00 -5.3710337131784414e-01 +7.3571058457779346e+00 -3.6773320458366215e-01 +9.5694924052445920e+00 +1.5804405850542962e+03 -1.8763215025464000e+05 -1.0735957349926319e+07 
+2.1000000000000001e+00 -5.3710353232015284e-01 +7.3571384276676373e+00 -3.7038216670255314e-01 +8.9122666668197041e+00 +1.6065823357772279e+03 -1.8419231120272889e+05 -1.0756489213127574e+07 
+2.2000000000000002e+00 -5.3710369703165073e-01 +7.3571693027886127e+00 -3.7326373249413636e-01 +8.2842429087272169e+00 +1.6342648611558961e+03 -1.8090033281846024e+05 -1.0776038097813090e+07 
+2.2999999999999998e+00 -5.3710386524660836e-01 +7.3571986208213920e+00 -3.7636905024811190e-01 +7.6822522907836266e+00 +1.6635842819095644e+03 -1.7773989518036941e+05 -1.0795879744793240e+07 
+2.3999999999999999e+00 -5.3710403675933815e-01 +7.3572265314513867e+00 -3.7968927054277335e-01 +7.1031258178801489e+00 +1.6946367690081213e+03 -1.7469467739599291e+05 -1.0817290153549954e+07 
+2.5000000000000000e+00 -5.3710421136409403e-01 +7.3572531843588731e+00 -3.8321554380433770e-01 +6.5436946421560540e+00 +1.7275184882971635e+03 -1.7174835937809115e+05 -1.0841545295683680e+07 
+2.6000000000000001e+00 -5.3710438885513345e-01 +7.3572787292208810e+00 -3.8693902052780965e-01 +6.0007899906122564e+00 +1.7623256100772189e+03 -1.6888462136400302e+05 -1.0869921174242137e+07 
+2.7000000000000002e+00 -5.3710456902685488e-01 +7.3573033157215457e+00 -3.9085084717282570e-01 +5.4712428758805105e+00 +1.7991542305310268e+03 -1.6608714226617641e+05 -1.0903693447511204e+07 
+2.7999999999999998e+00 -5.3710475167346772e-01 +7.3573270935318194e+00 -3.9494217358862566e-01 +4.9518846777718437e+00 +1.8381005123509703e+03 -1.6333960301261852e+05 -1.0944138099798402e+07 
+2.8999999999999999e+00 -5.3710493658934944e-01 +7.3573502123278356e+00 -3.9920414598087711e-01 +4.4395465982523250e+00 +1.8792605529450520e+03 -1.6062568335025496e+05 -1.0992530816105565e+07 
+3.0000000000000000e+00 -5.3710512356878293e-01 +7.3573728217801451e+00 -4.0362791241922025e-01 +3.9310599950729643e+00 +1.9227304885175940e+03 -1.5792906382266278e+05 -1.1050147479218476e+07 
+3.1000000000000001e+00 -5.3710531240612081e-01 +7.3573950715550120e+00 -4.0820461578758083e-01 +3.4232563234657838e+00 +1.9686063585074280e+03 -1.5523342537648432e+05 -1.1118263517765831e+07 
+3.2000000000000002e+00 -5.3710550289572401e-01 +7.3574171113176474e+00 -4.1292540167728953e-01 +2.9129670366967635e+00 +2.0169842587608462e+03 -1.5252244875203364e+05 -1.1198154645682627e+07 
+3.2999999999999998e+00 -5.3710569483190262e-01 +7.3574390907281311e+00 -4.1778141231418109e-01 +2.3970237199621383e+00 +2.0679602249153972e+03 -1.4977981530177026e+05 -1.1291096303462967e+07 
+3.3999999999999999e+00 -5.3710588800910120e-01 +7.3574611594397128e+00 -4.2276379038945922e-01 +1.8722581238991141e+00 +2.1216303066002743e+03 -1.4698920712959088e+05 -1.1398364014647875e+07 
+3.5000000000000000e+00 -5.3710608222162814e-01 +7.3574834671068094e+00 -4.2786367594953700e-01 +1.3355019398546812e+00 +2.1780905079814715e+03 -1.4413430580316001e+05 -1.1521233103542244e+07 
+3.6000000000000001e+00 -5.3710627726394777e-01 +7.3575061633738903e+00 -4.3307220658305917e-01 +7.8358710308525947e-01 +2.2374367901247028e+03 -1.4119879404313612e+05 -1.1660978702001242e+07 
+3.7000000000000002e+00 -5.3710647293045166e-01 +7.3575293978814988e+00 -4.3838051938570261e-01 +2.1334564376651122e-01 +2.2997651096536638e+03 -1.3816635493438854e+05 -1.1818875937734237e+07 
+3.7999999999999998e+00 -5.3710666901558646e-01 +7.3575533202629702e+00 -4.4377974910174972e-01 -3.7839025152154299e-01 +2.3651713878704650e+03 -1.3502067217150956e+05 -1.1996199799021024e+07 
+3.8999999999999999e+00 -5.3710686531377505e-01 +7.3575780801502182e+00 -4.4926103315410520e-01 -9.9478838183235452e-01 +2.4337515987578654e+03 -1.3174542930269241e+05 -1.2194225534920899e+07 
+4.0000000000000000e+00 -5.3710706161956434e-01 +7.3576038271665256e+00 -4.5481549803968624e-01 -1.6390163496039105e+00 +2.5056015157438123e+03 -1.2832431071083479e+05 -1.2414227461598117e+07 
+4.0999999999999996e+00 -5.3710725781701940e-01 +7.3576306420158524e+00 -4.6043314232312454e-01 -2.3126116484970081e+00 +2.5807225750409193e+03 -1.2474951175085522e+05 -1.2656823944735419e+07 
+4.2000000000000002e+00 -5.3710745414190153e-01 +7.3576583273368286e+00 -4.6609851159111981e-01 -3.0103314604401628e+00 +2.6587126837983456e+03 -1.2104899449465542e+05 -1.2919866375210529e+07 
+4.2999999999999998e+00 -5.3710765091603518e-01 +7.3576866155575642e+00 -4.7179456240082235e-01 -3.7251698902691737e+00 +2.7390621458702290e+03 -1.1726011122521079e+05 -1.3200476962962627e+07 
+4.4000000000000004e+00 -5.3710784846129933e-01 +7.3577152391095755e+00 -4.7750425809730401e-01 -4.4501210937700062e+00 +2.8212613890446805e+03 -1.1342021410907536e+05 -1.3495778482706210e+07 
+4.5000000000000000e+00 -5.3710804709945792e-01 +7.3577439304232017e+00 -4.8321056476320678e-01 -5.1781791521387621e+00 +2.9048008778396479e+03 -1.0956665591699704e+05 -1.3802893834873060e+07 
+4.5999999999999996e+00 -5.3710824715228822e-01 +7.3577724219273284e+00 -4.8889644996349485e-01 -5.9023380485305879e+00 +2.9891710975011083e+03 -1.0573679020385547e+05 -1.4118945986903565e+07 
+4.7000000000000002e+00 -5.3710844894153331e-01 +7.3578004460488060e+00 -4.9454488833214494e-01 -6.6155916550669263e+00 +3.0738626565831505e+03 -1.0196797138010245e+05 -1.4441058450671166e+07 
+4.7999999999999998e+00 -5.3710865278884956e-01 +7.3578277352208135e+00 -5.0013885749928599e-01 -7.3109339738931665e+00 +3.1583662073782957e+03 -9.8297553331359595e+04 -1.4766354900225541e+07 
+4.9000000000000004e+00 -5.3710885901587690e-01 +7.3578540218704784e+00 -5.0566133993896112e-01 -7.9813587700225206e+00 +3.2421724820944232e+03 -9.4762891565200291e+04 -1.5091959343242779e+07 
+5.0000000000000000e+00 -5.3710906794421032e-01 +7.3578790384247270e+00 -5.1109532265030300e-01 -8.6198597472068812e+00 +3.3247722852431293e+03 -9.1401342187183996e+04 -1.5414996082003253e+07 
+5.0999999999999996e+00 -5.3710927989543245e-01 +7.3579025173150407e+00 -5.1642379698170415e-01 -9.2194306607172081e+00 +3.4056564920431288e+03 -8.8250261318066638e+04 -1.5732589708517835e+07 
+5.2000000000000002e+00 -5.3710949519102069e-01 +7.3579241909695288e+00 -5.2162975966236047e-01 -9.7730651129320556e+00 +3.4843160638202621e+03 -8.5347006220537223e+04 -1.6041865166314173e+07 
+5.2999999999999998e+00 -5.3710971415240827e-01 +7.3579437918152477e+00 -5.2669621524843824e-01 -1.0273756602364235e+01 +3.5602420967234893e+03 -8.2728935059929703e+04 -1.6339947988729075e+07 
+5.4000000000000004e+00 -5.3710993710103494e-01 +7.3579610522834393e+00 -5.3160616991285925e-01 -1.0714498669169936e+01 +3.6329257011147829e+03 -8.0433406098959240e+04 -1.6623963715069033e+07 
+5.5000000000000000e+00 -5.3711016435818182e-01 +7.3579757048020209e+00 -5.3634263875000465e-01 -1.1088284687022654e+01 +3.7018581421385911e+03 -7.8497778869780203e+04 -1.6891038565541428e+07 
+5.5999999999999996e+00 -5.3711039624522972e-01 +7.3579874817994178e+00 -5.4088863989008140e-01 -1.1388107954153128e+01 +3.7665307249803163e+03 -7.6959413718906813e+04 -1.7138298885978367e+07 
+5.7000000000000002e+00 -5.3711063308330120e-01 +7.3579961157073779e+00 -5.4522720226779864e-01 -1.1606961789480817e+01 +3.8264349404068776e+03 -7.5855671205759994e+04 -1.7362871834229559e+07 
+5.7999999999999998e+00 -5.3711087519363332e-01 +7.3580013389542396e+00 -5.4934135666821438e-01 -1.1737839322665147e+01 +3.8810622998292315e+03 -7.5223913374245589e+04 -1.7561884608790357e+07 
+5.9000000000000004e+00 -5.3711112289727458e-01 +7.3580028839728193e+00 -5.5321414257508794e-01 -1.1773733722835358e+01 +3.9299044593513490e+03 -7.5101502429692686e+04 -1.7732465021821238e+07 
+5.9999999999999902e+00 -5.3711137651533492e-01 +7.3580004831909012e+00 -5.5682860727527839e-01 -1.1707637915023883e+01 +3.9724532047479415e+03 -7.5525802389964927e+04 -1.7871741431987237e+07 
+6.0999999999999899e+00 -5.3711163634881454e-01 +7.3579939844227464e+00 -5.6017191863197580e-01 -1.1535372794991620e+01 +4.0083631641340307e+03 -7.6519386736216155e+04 -1.7977800895114679e+07 
+6.1999999999999904e+00 -5.3711190263795783e-01 +7.3579837071167713e+00 -5.6324981431860632e-01 -1.1264550480427195e+01 +4.0380041971682281e+03 -7.8042852355243100e+04 -1.8052916386944946e+07 
+6.2999999999999901e+00 -5.3711217561253766e-01 +7.3579700914461075e+00 -5.6607322184456277e-01 -1.0905860252062670e+01 +4.0619421596766351e+03 -8.0040544619875072e+04 -1.8100502330503106e+07 
+6.3999999999999897e+00 -5.3711245550235420e-01 +7.3579535775825455e+00 -5.6865306332799992e-01 -1.0469991492780615e+01 +4.0807428240569757e+03 -8.2456807796182489e+04 -1.8123972814215232e+07 
+6.4999999999999902e+00 -5.3711274253725194e-01 +7.3579346056866424e+00 -5.7100025110704467e-01 -9.9676333952939746e+00 +4.0949718030982194e+03 -8.5235986718052882e+04 -1.8126741251098938e+07 
+6.5999999999999899e+00 -5.3711303694724966e-01 +7.3579136159226763e+00 -5.7312569070578168e-01 -9.4094753997792679e+00 +4.1051945988218613e+03 -8.8322424230676916e+04 -1.8112220589772064e+07 
+6.6999999999999904e+00 -5.3711333896234592e-01 +7.3578910484413145e+00 -5.7504028220787018e-01 -8.8062067065661509e+00 +4.1119766358799643e+03 -9.1660463970700468e+04 -1.8083823497047309e+07 
+6.7999999999999901e+00 -5.3711364881265466e-01 +7.3578673433941129e+00 -5.7675491688004266e-01 -8.1685166939920268e+00 +4.1158831946854252e+03 -9.5194447938226585e+04 -1.8044962029139180e+07 
+6.8999999999999897e+00 -5.3711396672838518e-01 +7.3578429409223149e+00 -5.7828047598503329e-01 -7.5070945912310894e+00 +4.1174793905259139e+03 -9.8868718401447884e+04 -1.7999047541130755e+07 
+6.9999999999999902e+00 -5.3711429293983903e-01 +7.3578182811627117e+00 -5.7962783508886306e-01 -6.8326296823333488e+00 +4.1173302576085989e+03 -1.0262761660319977e+05 -1.7949491090629965e+07 
+7.0999999999999899e+00 -5.3711462767736939e-01 +7.3577938042483018e+00 -5.8080785892736675e-01 -6.1558112975503505e+00 +4.1160006529810917e+03 -1.0641548289200058e+05 -1.7899702988442555e+07 
+7.1999999999999904e+00 -5.3711497117144724e-01 +7.3577699503046112e+00 -5.8183140307965242e-01 -5.4873287448765673e+00 +4.1140552855601154e+03 -1.1017665699717481e+05 -1.7853092925989591e+07 
+7.2999999999999901e+00 -5.3711532365267478e-01 +7.3577471594506489e+00 -5.8270931290396866e-01 -4.8378713095179409e+00 +4.1120587013890581e+03 -1.1385547811047263e+05 -1.7813069923296753e+07 
+7.3999999999999897e+00 -5.3711568535165166e-01 +7.3577258717988636e+00 -5.8345242628694571e-01 -4.2181282913928664e+00 +4.1105753342403877e+03 -1.1739628455041138e+05 -1.7783042566411506e+07 
+7.4999999999999902e+00 -5.3711605649923400e-01 +7.3577065274520903e+00 -5.8407156892054912e-01 -3.6387889048158737e+00 +4.1101694188841548e+03 -1.2074341437164778e+05 -1.7766418600548569e+07 
+7.5999999999999899e+00 -5.3711643732620873e-01 +7.3576895665163393e+00 -5.8457755728747363e-01 -3.1105426493932713e+00 +4.1114050455285123e+03 -1.2384120320874231e+05 -1.7766605187543776e+07 
+7.6999999999999904e+00 -5.3711682806361105e-01 +7.3576754290803104e+00 -5.8498119329881582e-01 -2.6440787433984974e+00 +4.1148460617776564e+03 -1.2663398747730259e+05 -1.7787008447512101e+07 
+7.7999999999999901e+00 -5.3711722894255243e-01 +7.3576645552276325e+00 -5.8529327267272879e-01 -2.2500864666690537e+00 +4.1210562342660269e+03 -1.2906610241628153e+05 -1.7831034235877484e+07 
+7.8999999999999897e+00 -5.3711764019421826e-01 +7.3576573850410112e+00 -5.8552457738867014e-01 -1.9392552905223961e+00 +4.1305991002726587e+03 -1.3108188129154293e+05 -1.7902087426067475e+07 
+7.9999999999999902e+00 -5.3711806204999246e-01 +7.3576543585891852e+00 -5.8568587487650681e-01 -1.7222745222690830e+00 +4.1440379569853703e+03 -1.3262565742044005e+05 -1.8003571869258005e+07 
+8.0999999999999908e+00 -5.3711849454292537e-01 +7.3576558227998241e+00 -5.8578782605081348e-01 -1.6077503406643749e+00 +4.1617890244763757e+03 -1.3365205731313018e+05 -1.8137888947068561e+07 
+8.1999999999999904e+00 -5.3711893689631063e-01 +7.3576617260628989e+00 -5.8583778949616083e-01 -1.5950643484325500e+00 +4.1836085330707419e+03 -1.3416202515331042e+05 -1.8303070678225890e+07 
+8.2999999999999901e+00 -5.3711938812659943e-01 +7.3576719102510628e+00 -5.8584150296507476e-01 -1.6810585054871821e+00 +4.2090670405214705e+03 -1.3416942290843918e+05 -1.8495950890854429e+07 
+8.3999999999999897e+00 -5.3711984725026185e-01 +7.3576862172391744e+00 -5.8580470373850824e-01 -1.8625746221212536e+00 +4.2377350825052981e+03 -1.3368811412093462e+05 -1.8713363282897629e+07 
+8.4999999999999893e+00 -5.3712031328376819e-01 +7.3577044889213852e+00 -5.8573313180662889e-01 -2.1364548486064718e+00 +4.2691832375333806e+03 -1.3273196114485292e+05 -1.8952141738086987e+07 
+8.5999999999999908e+00 -5.3712078524354889e-01 +7.3577265672004302e+00 -5.8563252376323793e-01 -2.4995413639841124e+00 +4.3029820072239272e+03 -1.3131482695205582e+05 -1.9209119748438090e+07 
+8.6999999999999904e+00 -5.3712126214600431e-01 +7.3577522939921636e+00 -5.8550862214203747e-01 -2.9486764934710306e+00 +4.3387019929242824e+03 -1.2945057451022380e+05 -1.9481131250643693e+07 
+8.7999999999999794e+00 -5.3712174300753179e-01 +7.3577815112299021e+00 -5.8536716865425009e-01 -3.4807028360982217e+00 +4.3759137708847757e+03 -1.2715306603520266e+05 -1.9765010044115160e+07 
+8.8999999999999808e+00 -5.3712222684454591e-01 +7.3578140608581935e+00 -5.8521390471260681e-01 -4.0924630679361442e+00 +4.4141878983213883e+03 -1.2443616418580356e+05 -2.0057589808324080e+07 
+8.9999999999999805e+00 -5.3712271267337375e-01 +7.3578497848297442e+00 -5.8505457460623933e-01 -4.7807998557951823e+00 +4.4530949730273087e+03 -1.2131373256056021e+05 -2.0355704384510502e+07 
+9.0999999999999801e+00 -5.3712319951034482e-01 +7.3578885251252357e+00 -5.8489492442268043e-01 -5.5425564072215039e+00 +4.4922056171809309e+03 -1.1779963259274236e+05 -2.0656187711202808e+07 
+9.1999999999999797e+00 -5.3712368637177021e-01 +7.3579301237303474e+00 -5.8474070073965168e-01 -6.3745758165303048e+00 +4.5310904442753754e+03 -1.1390772730278577e+05 -2.0955873643687613e+07 
+9.2999999999999794e+00 -5.3712417227397347e-01 +7.3579744226514405e+00 -5.8459765036093359e-01 -7.2737014947384901e+00 +4.5693200587678712e+03 -1.0965187888809612e+05 -2.1251595965807054e+07 
+9.3999999999999808e+00 -5.3712465623318750e-01 +7.3580212639044946e+00 -5.8447152358479204e-01 -8.2367768591393666e+00 +4.6064651195751012e+03 -1.0504595050062322e+05 -2.1540188695620023e+07 
+9.4999999999999805e+00 -5.3712513726564048e-01 +7.3580704895306006e+00 -5.8436807232149934e-01 -9.2606457578390629e+00 +4.6420962969982620e+03 -1.0010380385829271e+05 -2.1818485862090204e+07 
+9.5999999999999801e+00 -5.3712561438755635e-01 +7.3581219415833852e+00 -5.8429304774778612e-01 -1.0342152109163782e+01 +4.6757842335287942e+03 -9.4839301333943760e+04 -2.2083321330272477e+07 
+9.6999999999999797e+00 -5.3712608661513728e-01 +7.3581754621315669e+00 -5.8425220526864696e-01 -1.1478139963899455e+01 +4.7070996350985979e+03 -8.9266305628962262e+04 -2.2331529229752906e+07 
+9.7999999999999794e+00 -5.3712655296449086e-01 +7.3582308932661498e+00 -5.8425130337568354e-01 -1.2665453703034038e+01 +4.7356132501570737e+03 -8.3398678672719558e+04 -2.2559943858220112e+07 
+9.8999999999999808e+00 -5.3712701245177130e-01 +7.3582880770943442e+00 -5.8429609668653482e-01 -1.3900937864611766e+01 +4.7608957363108957e+03 -7.7250282615697070e+04 -2.2765399040691242e+07 
+9.9999999999999805e+00 -5.3712746409307599e-01 +7.3583468557370271e+00 -5.8439234832334752e-01 -1.5181437035493582e+01 +4.7825178986691317e+03 -7.0834980584409437e+04 -2.2944729278767396e+07 
+1.0100000000000000e+01 -5.3712790722425441e-01 +7.3584070179642076e+00 -5.8454709971264784e-01 -1.6502526800906534e+01 +4.8002142266558494e+03 -6.4173380608344043e+04 -2.3095815522060558e+07 
