# field on trajectory
# s[mm] rx[mm] ry[mm] rz[mm] bx[T] by[T] bz[T]
0.0000000000000000e+00 +8.1529999999999987e+00 +0.0000000000000000e+00 +0.0000000000000000e+00 -3.1789740412400826e-02 -5.9239438658045551e-01 +5.8991624207891591e-03
1.0000000000000001e-01 +8.1529997170087753e+00 +0.0000000000000000e+00 +9.9999999999466113e-02 -3.1789756928457230e-02 -5.9239434719873307e-01 +5.8991876684452629e-03
2.0000000000000001e-01 +8.1529988680351337e+00 +0.0000000000000000e+00 +1.9999999999572884e-01 -3.1789769755828673e-02 -5.9239430204437171e-01 +5.8992132179719256e-03
3.0000000000000004e-01 +8.1529974530791147e+00 +0.0000000000000000e+00 +2.9999999998558485e-01 -3.1789779149156511e-02 -5.9239425218978958e-01 +5.8992392133094245e-03
4.0000000000000002e-01 +8.1529954721407663e+00 +0.0000000000000000e+00 +3.9999999996583080e-01 -3.1789785363086194e-02 -5.9239419870743859e-01 +5.8992657983985087e-03
5.0000000000000000e-01 +8.1529929252201399e+00 +0.0000000000000000e+00 +4.9999999993326327e-01 -3.1789788652266816e-02 -5.9239414266979906e-01 +5.8992931171803261e-03
5.9999999999999998e-01 +8.1529898123172906e+00 +0.0000000000000000e+00 +5.9999999988467900e-01 -3.1789789271350552e-02 -5.9239408514937542e-01 +5.8993213135963745e-03
6.9999999999999996e-01 +8.1529861334322717e+00 +0.0000000000000000e+00 +6.9999999981687455e-01 -3.1789787474992344e-02 -5.9239402721869028e-01 +5.8993505315884367e-03
7.9999999999999993e-01 +8.1529818885651384e+00 +0.0000000000000000e+00 +7.9999999972664659e-01 -3.1789783517849189e-02 -5.9239396995028226e-01 +5.8993809150985161e-03
8.9999999999999991e-01 +8.1529770777159456e+00 +0.0000000000000000e+00 +8.9999999961079180e-01 -3.1789777654579708e-02 -5.9239391441669786e-01 +5.8994126080687791e-03
9.9999999999999989e-01 +8.1529717008847467e+00 +0.0000000000000000e+00 +9.9999999946610674e-01 -3.1789770139843763e-02 -5.9239386169048946e-01 +5.8994457544414951e-03
1.0999999999999999e+00 +8.1529657580715931e+00 +0.0000000000000000e+00 +1.0999999992893881e+00 -3.1789761228301849e-02 -5.9239381284420989e-01 +5.8994804981589702e-03
1.2000000000000000e+00 +8.1529592492765293e+00 +0.0000000000000000e+00 +1.1999999990774326e+00 -3.1789751174614578e-02 -5.9239376895040607e-01 +5.8995169831634938e-03
1.3000000000000000e+00 +8.1529521744995996e+00 +0.0000000000000000e+00 +1.2999999988270368e+00 -3.1789740233442297e-02 -5.9239373108161664e-01 +5.8995553533972679e-03
1.4000000000000001e+00 +8.1529445337408397e+00 +0.0000000000000000e+00 +1.3999999985349973e+00 -3.1789728659444488e-02 -5.9239370031036664e-01 +5.8995957528023531e-03
1.5000000000000002e+00 +8.1529363270002779e+00 +0.0000000000000000e+00 +1.4999999981981109e+00 -3.1789716707279349e-02 -5.9239367770916107e-01 +5.8996383253206138e-03
1.6000000000000003e+00 +8.1529275542779374e+00 +0.0000000000000000e+00 +1.5999999978131740e+00 -3.1789704631603216e-02 -5.9239366435048169e-01 +5.8996832148936282e-03
1.7000000000000004e+00 +8.1529182155738305e+00 +0.0000000000000000e+00 +1.6999999973769835e+00 -3.1789692687070159e-02 -5.9239366130678295e-01 +5.8997305654626677e-03
1.8000000000000005e+00 +8.1529083108879608e+00 +0.0000000000000000e+00 +1.7999999968863361e+00 -3.1789681128331422e-02 -5.9239366965048501e-01 +5.8997805209686071e-03
1.9000000000000006e+00 +8.1528978402203212e+00 +0.0000000000000000e+00 +1.8999999963380281e+00 -3.1789670210034933e-02 -5.9239369045397061e-01 +5.8998332253518641e-03
2.0000000000000004e+00 +8.1528868035708904e+00 +0.0000000000000000e+00 +1.9999999957288563e+00 -3.1789660186824879e-02 -5.9239372478958119e-01 +5.8998888225523611e-03
2.1000000000000005e+00 +8.1528752009396364e+00 +0.0000000000000000e+00 +2.0999999950556174e+00 -3.1789651340026627e-02 -5.9239377349063715e-01 +5.8999474114925883e-03
2.2000000000000006e+00 +8.1528630323265130e+00 +0.0000000000000000e+00 +2.1999999943151081e+00 -3.1789644057706110e-02 -5.9239383643453380e-01 +5.9000089110271166e-03
2.3000000000000007e+00 +8.1528502977314616e+00 +0.0000000000000000e+00 +2.2999999935041249e+00 -3.1789638754619057e-02 -5.9239391325968527e-01 +5.9000731949933475e-03
2.4000000000000008e+00 +8.1528369971544077e+00 +0.0000000000000000e+00 +2.3999999926194646e+00 -3.1789635845526860e-02 -5.9239400360449967e-01 +5.9001401372284108e-03
2.5000000000000009e+00 +8.1528231305952659e+00 +0.0000000000000000e+00 +2.4999999916579236e+00 -3.1789635745197255e-02 -5.9239410710738205e-01 +5.9002096115691304e-03
2.6000000000000010e+00 +8.1528086980539385e+00 +0.0000000000000000e+00 +2.5999999906162987e+00 -3.1789638868404996e-02 -5.9239422340673409e-01 +5.9002814918520247e-03
2.7000000000000011e+00 +8.1527936995303154e+00 +0.0000000000000000e+00 +2.6999999894913866e+00 -3.1789645629932403e-02 -5.9239435214095448e-01 +5.9003556519132867e-03
2.8000000000000012e+00 +8.1527781350242723e+00 +0.0000000000000000e+00 +2.7999999882799838e+00 -3.1789656444570158e-02 -5.9239449294844149e-01 +5.9004319655887654e-03
2.9000000000000012e+00 +8.1527620045356759e+00 +0.0000000000000000e+00 +2.8999999869788868e+00 -3.1789671727117795e-02 -5.9239464546759291e-01 +5.9005103067139601e-03
3.0000000000000013e+00 +8.1527453080643824e+00 +0.0000000000000000e+00 +2.9999999855848927e+00 -3.1789691892384495e-02 -5.9239480933680588e-01 +5.9005905491240065e-03
3.1000000000000014e+00 +8.1527280456102336e+00 +0.0000000000000000e+00 +3.0999999840947976e+00 -3.1789717355189609e-02 -5.9239498419448078e-01 +5.9006725666536477e-03
3.2000000000000015e+00 +8.1527102171730643e+00 +0.0000000000000000e+00 +3.1999999825053984e+00 -3.1789748530363447e-02 -5.9239516967901873e-01 +5.9007562331372483e-03
3.3000000000000016e+00 +8.1526918227526970e+00 +0.0000000000000000e+00 +3.2999999808134914e+00 -3.1789785832747774e-02 -5.9239536542882487e-01 +5.9008414224087482e-03
3.4000000000000017e+00 +8.1526728623489468e+00 +0.0000000000000000e+00 +3.3999999790158735e+00 -3.1789829677196554e-02 -5.9239557108230767e-01 +5.9009280083016707e-03
3.5000000000000018e+00 +8.1526533359616167e+00 +0.0000000000000000e+00 +3.4999999771093409e+00 -3.1789880478576588e-02 -5.9239578627788136e-01 +5.9010158646491083e-03
3.6000000000000019e+00 +8.1526332435905022e+00 +0.0000000000000000e+00 +3.5999999750906904e+00 -3.1789938651768143e-02 -5.9239601065396585e-01 +5.9011048652836944e-03
3.7000000000000020e+00 +8.1526125852353886e+00 +0.0000000000000000e+00 +3.6999999729567188e+00 -3.1790004611665597e-02 -5.9239624384898770e-01 +5.9011948840375986e-03
3.8000000000000020e+00 +8.1525913608960554e+00 +0.0000000000000000e+00 +3.7999999707042225e+00 -3.1790078773178125e-02 -5.9239648550138091e-01 +5.9012857947425184e-03
3.9000000000000021e+00 +8.1525695705722718e+00 +0.0000000000000000e+00 +3.8999999683299977e+00 -3.1790161551230274e-02 -5.9239673524958902e-01 +5.9013774712296501e-03
4.0000000000000018e+00 +8.1525472142637998e+00 +0.0000000000000000e+00 +3.9999999658308414e+00 -3.1790253360762695e-02 -5.9239699273206370e-01 +5.9014697873296940e-03
4.1000000000000014e+00 +8.1525242919703924e+00 +0.0000000000000000e+00 +4.0999999632035502e+00 -3.1790354478990326e-02 -5.9239725745362171e-01 +5.9015626586830013e-03
4.2000000000000011e+00 +8.1525008036917992e+00 +0.0000000000000000e+00 +4.1999999604449210e+00 -3.1790464632160786e-02 -5.9239752838449478e-01 +5.9016561681707906e-03
4.3000000000000007e+00 +8.1524767494277626e+00 +0.0000000000000000e+00 +4.2999999575517496e+00 -3.1790583408755811e-02 -5.9239780436126066e-01 +5.9017504404854605e-03
4.4000000000000004e+00 +8.1524521291780196e+00 +0.0000000000000000e+00 +4.3999999545208324e+00 -3.1790710397228535e-02 -5.9239808422048779e-01 +5.9018456003205122e-03
4.5000000000000000e+00 +8.1524269429423040e+00 +0.0000000000000000e+00 +4.4999999513489666e+00 -3.1790845186001393e-02 -5.9239836679873414e-01 +5.9019417723706353e-03
4.5999999999999996e+00 +8.1524011907203455e+00 +0.0000000000000000e+00 +4.5999999480329485e+00 -3.1790987363464245e-02 -5.9239865093254707e-01 +5.9020390813317994e-03
4.6999999999999993e+00 +8.1523748725118743e+00 +0.0000000000000000e+00 +4.6999999445695746e+00 -3.1791136517972378e-02 -5.9239893545846389e-01 +5.9021376519013168e-03
4.7999999999999989e+00 +8.1523479883166203e+00 +0.0000000000000000e+00 +4.7999999409556411e+00 -3.1791292237844472e-02 -5.9239921921301075e-01 +5.9022376087779268e-03
4.8999999999999986e+00 +8.1523205381343118e+00 +0.0000000000000000e+00 +4.8999999371879452e+00 -3.1791454111360681e-02 -5.9239950103270234e-01 +5.9023390766618795e-03
4.9999999999999982e+00 +8.1522925219646805e+00 +0.0000000000000000e+00 +4.9999999332632825e+00 -3.1791621726760644e-02 -5.9239977975404134e-01 +5.9024421802550088e-03
5.0999999999999979e+00 +8.1522639398074617e+00 +0.0000000000000000e+00 +5.0999999291784501e+00 -3.1791794672241441e-02 -5.9240005421351827e-01 +5.9025470442608096e-03
5.1999999999999975e+00 +8.1522347916623943e+00 +0.0000000000000000e+00 +5.1999999249302444e+00 -3.1791972535955719e-02 -5.9240032324761172e-01 +5.9026537933845272e-03
5.2999999999999972e+00 +8.1522050775292225e+00 +0.0000000000000000e+00 +5.2999999205154626e+00 -3.1792154906009652e-02 -5.9240058569278620e-01 +5.9027625523332293e-03
5.3999999999999968e+00 +8.1521747974076977e+00 +0.0000000000000000e+00 +5.3999999159309002e+00 -3.1792341370460997e-02 -5.9240084038549468e-01 +5.9028734458158802e-03
5.4999999999999964e+00 +8.1521439512975746e+00 +0.0000000000000000e+00 +5.4999999111733544e+00 -3.1792531517317070e-02 -5.9240108616217524e-01 +5.9029865985434369e-03
5.5999999999999961e+00 +8.1521125391986224e+00 +0.0000000000000000e+00 +5.5999999062396206e+00 -3.1792724934532793e-02 -5.9240132185925243e-01 +5.9031021352289091e-03
5.6999999999999957e+00 +8.1520805611106155e+00 +0.0000000000000000e+00 +5.6999999011264961e+00 -3.1792921210008734e-02 -5.9240154631313657e-01 +5.9032201805874450e-03
5.7999999999999954e+00 +8.1520480170333407e+00 +0.0000000000000000e+00 +5.7999998958307772e+00 -3.1793119931589134e-02 -5.9240175836022313e-01 +5.9033408593364171e-03
5.8999999999999950e+00 +8.1520149069665973e+00 +0.0000000000000000e+00 +5.8999998903492612e+00 -3.1793320687059895e-02 -5.9240195683689267e-01 +5.9034642961954958e-03
5.9999999999999947e+00 +8.1519812309101951e+00 +0.0000000000000000e+00 +5.9999998846787435e+00 -3.1793523064146602e-02 -5.9240214057951035e-01 +5.9035906158867247e-03
6.0999999999999943e+00 +8.1519469888639620e+00 +0.0000000000000000e+00 +6.0999998788160212e+00 -3.1793726773967648e-02 -5.9240230880097078e-01 +5.9037198880426871e-03
6.1999999999999940e+00 +8.1519121808277362e+00 +0.0000000000000000e+00 +6.1999998727578909e+00 -3.1793932021430125e-02 -5.9240246222034232e-01 +5.9038519619283468e-03
6.2999999999999936e+00 +8.1518768068013738e+00 +0.0000000000000000e+00 +6.2999998665011487e+00 -3.1794139134917979e-02 -5.9240260193323402e-01 +5.9039866317142061e-03
6.3999999999999932e+00 +8.1518408667847417e+00 +0.0000000000000000e+00 +6.3999998600425911e+00 -3.1794348442845489e-02 -5.9240272903524993e-01 +5.9041236915680700e-03
6.4999999999999929e+00 +8.1518043607777191e+00 +0.0000000000000000e+00 +6.4999998533790144e+00 -3.1794560273659178e-02 -5.9240284462198778e-01 +5.9042629356549159e-03
6.5999999999999925e+00 +8.1517672887801957e+00 +0.0000000000000000e+00 +6.5999998465072158e+00 -3.1794774955839503e-02 -5.9240294978904040e-01 +5.9044041581367670e-03
6.6999999999999922e+00 +8.1517296507920740e+00 +0.0000000000000000e+00 +6.6999998394239917e+00 -3.1794992817902712e-02 -5.9240304563199486e-01 +5.9045471531725593e-03
6.7999999999999918e+00 +8.1516914468132633e+00 +0.0000000000000000e+00 +6.7999998321261383e+00 -3.1795214188402664e-02 -5.9240313324643312e-01 +5.9046917149180207e-03
6.8999999999999915e+00 +8.1516526768436801e+00 +0.0000000000000000e+00 +6.8999998246104521e+00 -3.1795439395932650e-02 -5.9240321372793159e-01 +5.9048376375255398e-03
6.9999999999999911e+00 +8.1516133408832498e+00 +0.0000000000000000e+00 +6.9999998168737294e+00 -3.1795668769127108e-02 -5.9240328817206156e-01 +5.9049847151440276e-03
7.0999999999999908e+00 +8.1515734389319014e+00 +0.0000000000000000e+00 +7.0999998089127674e+00 -3.1795902636663577e-02 -5.9240335767438879e-01 +5.9051327419188089e-03
7.1999999999999904e+00 +8.1515329709895710e+00 +0.0000000000000000e+00 +7.1999998007243615e+00 -3.1796141327264382e-02 -5.9240342333047502e-01 +5.9052815119914823e-03
7.2999999999999901e+00 +8.1514919370561962e+00 +0.0000000000000000e+00 +7.2999997923053090e+00 -3.1796385169698502e-02 -5.9240348623587602e-01 +5.9054308194997854e-03
7.3999999999999897e+00 +8.1514503371317186e+00 +0.0000000000000000e+00 +7.3999997836524063e+00 -3.1796634492783332e-02 -5.9240354748614310e-01 +5.9055804585774838e-03
7.4999999999999893e+00 +8.1514081712160795e+00 +0.0000000000000000e+00 +7.4999997747624505e+00 -3.1796889625386557e-02 -5.9240360817682258e-01 +5.9057302233542271e-03
7.5999999999999890e+00 +8.1513654393092239e+00 +0.0000000000000000e+00 +7.5999997656322371e+00 -3.1797150896427880e-02 -5.9240366940345646e-01 +5.9058799079554272e-03
7.6999999999999886e+00 +8.1513221414110930e+00 +0.0000000000000000e+00 +7.6999997562585634e+00 -3.1797418634880885e-02 -5.9240373226158172e-01 +5.9060293065021320e-03
7.7999999999999883e+00 +8.1512782775216301e+00 +0.0000000000000000e+00 +7.7999997466382256e+00 -3.1797693169774793e-02 -5.9240379784673047e-01 +5.9061782131108985e-03
7.8999999999999879e+00 +8.1512338476407713e+00 +0.0000000000000000e+00 +7.8999997367680201e+00 -3.1797974830196307e-02 -5.9240386725443139e-01 +5.9063264218936493e-03
7.9999999999999876e+00 +8.1511888517684543e+00 +0.0000000000000000e+00 +7.9999997266447433e+00 -3.1798263945291422e-02 -5.9240394158020726e-01 +5.9064737269575694e-03
8.0999999999999872e+00 +8.1511432899046081e+00 +0.0000000000000000e+00 +8.0999997162651916e+00 -3.1798560533169228e-02 -5.9240402198006992e-01 +5.9066199573137275e-03
8.1999999999999869e+00 +8.1510971620491564e+00 +0.0000000000000000e+00 +8.1999997056261620e+00 -3.1798863367586930e-02 -5.9240410985203029e-01 +5.9067650816103543e-03
8.2999999999999865e+00 +8.1510504682020173e+00 +0.0000000000000000e+00 +8.2999996947244519e+00 -3.1799170911227088e-02 -5.9240420665467175e-01 +5.9069091034164283e-03
8.3999999999999861e+00 +8.1510032083631003e+00 +0.0000000000000000e+00 +8.3999996835568567e+00 -3.1799481626798215e-02 -5.9240431384666825e-01 +5.9070520263141855e-03
8.4999999999999858e+00 +8.1509553825323042e+00 +0.0000000000000000e+00 +8.4999996721201718e+00 -3.1799793977035265e-02 -5.9240443288678624e-01 +5.9071938538995533e-03
8.5999999999999854e+00 +8.1509069907095171e+00 +0.0000000000000000e+00 +8.5999996604111946e+00 -3.1800106424700381e-02 -5.9240456523388862e-01 +5.9073345897825485e-03
8.6999999999999851e+00 +8.1508580328946127e+00 +0.0000000000000000e+00 +8.6999996484267221e+00 -3.1800417432583425e-02 -5.9240471234693604e-01 +5.9074742375877162e-03
8.7999999999999847e+00 +8.1508085090874527e+00 +0.0000000000000000e+00 +8.7999996361635500e+00 -3.1800725463502717e-02 -5.9240487568499089e-01 +5.9076128009545245e-03
8.8999999999999844e+00 +8.1507584192878824e+00 +0.0000000000000000e+00 +8.8999996236184753e+00 -3.1801028980305519e-02 -5.9240505670722021e-01 +5.9077502835377963e-03
8.9999999999999840e+00 +8.1507077634957295e+00 +0.0000000000000000e+00 +8.9999996107882954e+00 -3.1801326445868840e-02 -5.9240525687289725e-01 +5.9078866890081199e-03
9.0999999999999837e+00 +8.1506565417108057e+00 +0.0000000000000000e+00 +9.0999995976698056e+00 -3.1801616323099940e-02 -5.9240547764140616e-01 +5.9080220210522647e-03
9.1999999999999833e+00 +8.1506047539329014e+00 +0.0000000000000000e+00 +9.1999995842598015e+00 -3.1801897074937045e-02 -5.9240572047224360e-01 +5.9081562833736018e-03
9.2999999999999829e+00 +8.1505524001617857e+00 +0.0000000000000000e+00 +9.2999995705550802e+00 -3.1802167164349929e-02 -5.9240598682502166e-01 +5.9082894796925146e-03
9.3999999999999826e+00 +8.1504994803972046e+00 +0.0000000000000000e+00 +9.3999995565524390e+00 -3.1802425054340611e-02 -5.9240627815947133e-01 +5.9084216137468264e-03
9.4999999999999822e+00 +8.1504459946388828e+00 +0.0000000000000000e+00 +9.4999995422486734e+00 -3.1802669207943890e-02 -5.9240659593544442e-01 +5.9085526892921998e-03
9.5999999999999819e+00 +8.1503919428865181e+00 +0.0000000000000000e+00 +9.5999995276405787e+00 -3.1802898088228136e-02 -5.9240694161291740e-01 +5.9086827101025715e-03
9.6999999999999815e+00 +8.1503373251397822e+00 +0.0000000000000000e+00 +9.6999995127249523e+00 -3.1803110158295837e-02 -5.9240731665199342e-01 +5.9088116799705581e-03
9.7999999999999812e+00 +8.1502821413983177e+00 +0.0000000000000000e+00 +9.7999994974985913e+00 -3.1803303881284217e-02 -5.9240772251290585e-01 +5.9089396027078699e-03
9.8999999999999808e+00 +8.1502263916617377e+00 +0.0000000000000000e+00 +9.8999994819582913e+00 -3.1803477720365923e-02 -5.9240816065602053e-01 +5.9090664821457401e-03
9.9999999999999805e+00 +8.1501700759296263e+00 +0.0000000000000000e+00 +9.9999994661008476e+00 -3.1803630138749706e-02 -5.9240863254183918e-01 +5.9091923221353277e-03
1.0099999999999980e+01 +8.1501131942015341e+00 +0.0000000000000000e+00 +1.0099999449923057e+01 -3.1803760069461590e-02 -5.9240913892456482e-01 +5.9093171451237167e-03
1.0199999999999980e+01 +8.1500557464769798e+00 +0.0000000000000000e+00 +1.0199999433421718e+01 -3.1803868324683543e-02 -5.9240967773266151e-01 +5.9094410478660606e-03
1.0299999999999979e+01 +8.1499977327554500e+00 +0.0000000000000000e+00 +1.0299999416593623e+01 -3.1803956186337419e-02 -5.9241024618803628e-01 +5.9095641456698529e-03
1.0399999999999979e+01 +8.1499391530364047e+00 +0.0000000000000000e+00 +1.0399999399435570e+01 -3.1804024936279159e-02 -5.9241084151247447e-01 +5.9096865538139651e-03
1.0499999999999979e+01 +8.1498800073192772e+00 +0.0000000000000000e+00 +1.0499999381944356e+01 -3.1804075856296868e-02 -5.9241146092763375e-01 +5.9098083875478930e-03
1.0599999999999978e+01 +8.1498202956034760e+00 +0.0000000000000000e+00 +1.0599999364116776e+01 -3.1804110228109035e-02 -5.9241210165504321e-01 +5.9099297620909723e-03
1.0699999999999978e+01 +8.1497600178883918e+00 +0.0000000000000000e+00 +1.0699999345949626e+01 -3.1804129333362560e-02 -5.9241276091609829e-01 +5.9100507926315828e-03
1.0799999999999978e+01 +8.1496991741733975e+00 +0.0000000000000000e+00 +1.0799999327439703e+01 -3.1804134453630950e-02 -5.9241343593205786e-01 +5.9101715943263794e-03
1.0899999999999977e+01 +8.1496377644578502e+00 +0.0000000000000000e+00 +1.0899999308583803e+01 -3.1804126870412348e-02 -5.9241412392403969e-01 +5.9102922822995181e-03
1.0999999999999977e+01 +8.1495757887410960e+00 +0.0000000000000000e+00 +1.0999999289378721e+01 -3.1804107865127752e-02 -5.9241482211301821e-01 +5.9104129716418593e-03
1.1099999999999977e+01 +8.1495132470224689e+00 +0.0000000000000000e+00 +1.1099999269821252e+01 -3.1804078719119069e-02 -5.9241552771981965e-01 +5.9105337774101986e-03
1.1199999999999976e+01 +8.1494501393012957e+00 +0.0000000000000000e+00 +1.1199999249908194e+01 -3.1804040713647244e-02 -5.9241623796511877e-01 +5.9106548146264839e-03
1.1299999999999976e+01 +8.1493864655769013e+00 +0.0000000000000000e+00 +1.1299999229636342e+01 -3.1803995129890378e-02 -5.9241695006943651e-01 +5.9107761982770297e-03
1.1399999999999975e+01 +8.1493222258486071e+00 +0.0000000000000000e+00 +1.1399999209002493e+01 -3.1803943248941896e-02 -5.9241766125313466e-01 +5.9108980433117426e-03
1.1499999999999975e+01 +8.1492574201157364e+00 +0.0000000000000000e+00 +1.1499999188003443e+01 -3.1803886351808482e-02 -5.9241836873641351e-01 +5.9110204646433346e-03
1.1599999999999975e+01 +8.1491920483776159e+00 +0.0000000000000000e+00 +1.1599999166635987e+01 -3.1803825719408492e-02 -5.9241906973930702e-01 +5.9111435771465517e-03
1.1699999999999974e+01 +8.1491261106335777e+00 +0.0000000000000000e+00 +1.1699999144896921e+01 -3.1803762632569781e-02 -5.9241976148168041e-01 +5.9112674956573758e-03
1.1799999999999974e+01 +8.1490596068829646e+00 +0.0000000000000000e+00 +1.1799999122783040e+01 -3.1803698372027962e-02 -5.9242044118322668e-01 +5.9113923349722580e-03
