# multipoles
# s[mm] polynom_b[n=0][T/m^n] polynom_b[n=1][T/m^n] polynom_b[n=2][T/m^n] polynom_b[n=3][T/m^n] polynom_b[n=4][T/m^n] polynom_b[n=5][T/m^n] polynom_b[n=6][T/m^n] 
+0.0000000000000000e+00 -5.3637535785035018e-01 +7.3488060601425724e+00 -2.3395795463755495e-01 -3.1525615721026867e+01 -4.2411382861021566e+03 +4.8113443133002278e+04 +1.3867390169063056e+07 
+1.0000000000000001e-01 -5.3637518833162456e-01 +7.3488113473089403e+00 -2.3438003074207150e-01 -3.1394126987935625e+01 -4.2770005694283445e+03 +4.6814458558634215e+04 +1.4097465422956908e+07 
+2.0000000000000001e-01 -5.3637503340929904e-01 +7.3488161712179956e+00 -2.3428828187595271e-01 -3.1240328636135864e+01 -4.3178849069279513e+03 +4.5423031003995755e+04 +1.4338180338976001e+07 
+2.9999999999999999e-01 -5.3637489271258676e-01 +7.3488205685230907e+00 -2.3374924564936586e-01 -3.1066265082603945e+01 -4.3628150654252477e+03 +4.3948165176062306e+04 +1.4585879626892924e+07 
+4.0000000000000002e-01 -5.3637476587077504e-01 +7.3488245758832198e+00 -2.3282946256622039e-01 -3.0873980936772558e+01 -4.4108147569121793e+03 +4.2398867036209682e+04 +1.4836907735551897e+07 
+5.0000000000000000e-01 -5.3637465251307381e-01 +7.3488282299499108e+00 -2.3159547230021138e-01 -3.0665520617513170e+01 -4.4609077151166102e+03 +4.0784141556106413e+04 +1.5087609232603829e+07 
+5.9999999999999998e-01 -5.3637455226874187e-01 +7.3488315673742806e+00 -2.3011381610178647e-01 -3.0442928547117592e+01 -4.5121176370262156e+03 +3.9112993811870612e+04 +1.5334328491588324e+07 
+6.9999999999999996e-01 -5.3637446476700612e-01 +7.3488346248068170e+00 -2.2845103170650924e-01 -3.0208249159719365e+01 -4.5634682934504117e+03 +3.7394429056369074e+04 +1.5573410255451526e+07 
+8.0000000000000004e-01 -5.3637438963707962e-01 +7.3488374388974176e+00 -2.2667366193862459e-01 -2.9963526886632426e+01 -4.6139833589126983e+03 +3.5637452589448083e+04 +1.5801198809281994e+07 
+9.0000000000000002e-01 -5.3637432650820926e-01 +7.3488400462932022e+00 -2.2484824583393442e-01 -2.9710806103369269e+01 -4.6626865764719578e+03 +3.3851069460740357e+04 +1.6014038754342426e+07 
+1.0000000000000000e+00 -5.3637427500962276e-01 +7.3488424836455959e+00 -2.2304132435907487e-01 -2.9452131314856683e+01 -4.7086016556175518e+03 +3.2044285494199874e+04 +1.6208274540214565e+07 
+1.1000000000000001e+00 -5.3637423477061519e-01 +7.3488447876022676e+00 -2.2131943684470287e-01 -2.9189546953103875e+01 -4.7507523348196992e+03 +3.0226106175046330e+04 +1.6380250747519698e+07 
+1.2000000000000000e+00 -5.3637420542033665e-01 +7.3488469948196444e+00 -2.1974912412132219e-01 -2.8925097705786044e+01 -4.7881623234561484e+03 +2.8405538458622224e+04 +1.6526311817144413e+07 
+1.3000000000000000e+00 -5.3637418658806046e-01 +7.3488491419538757e+00 -2.1839692460353391e-01 -2.8660828267667231e+01 -4.8198553760424438e+03 +2.6591589360773636e+04 +1.6642802401787555e+07 
+1.3999999999999999e+00 -5.3637417790304287e-01 +7.3488512656593876e+00 -2.1732937904531635e-01 -2.8398783301140316e+01 -4.8448552014118559e+03 +2.4793265718358452e+04 +1.6726066933713501e+07 
+1.5000000000000000e+00 -5.3637417899450024e-01 +7.3488534026026553e+00 -2.1661302606175120e-01 -2.8141007825334668e+01 -4.8621855476523233e+03 +2.3019576416817727e+04 +1.6772450027133496e+07 
+1.6000000000000001e+00 -5.3637418949166693e-01 +7.3488555894445557e+00 -2.1631440553740666e-01 -2.7889546711315013e+01 -4.8708701355728826e+03 +2.1279529464671898e+04 +1.6778296158492908e+07 
+1.7000000000000000e+00 -5.3637420902379385e-01 +7.3488578628620482e+00 -2.1650005498355407e-01 -2.7646445297980527e+01 -4.8699327297117743e+03 +1.9582135525503025e+04 +1.6739950007580899e+07 
+1.8000000000000000e+00 -5.3637423722015609e-01 +7.3488602595297063e+00 -2.1723651208552849e-01 -2.7413748873962188e+01 -4.8583970886075522e+03 +1.7936404950388591e+04 +1.6653756219430359e+07 
+1.8999999999999999e+00 -5.3637427370997215e-01 +7.3488628161301186e+00 -2.1859031488243044e-01 -2.7193502955222424e+01 -4.8352869605447195e+03 +1.6351349315463003e+04 +1.6516059380031377e+07 
+2.0000000000000000e+00 -5.3637431812252512e-01 +7.3488655693542029e+00 -2.2062799948695996e-01 -2.6987753312650010e+01 -4.7996261294617007e+03 +1.4835981615881912e+04 +1.6323204242791073e+07 
+2.1000000000000001e+00 -5.3637437017236400e-01 +7.3488685369185118e+00 -2.2339274533886477e-01 -2.6797930513480289e+01 -4.7507985516464651e+03 +1.3396671472286303e+04 +1.6072987573672196e+07 
+2.2000000000000002e+00 -5.3637442991511231e-01 +7.3488716565422338e+00 -2.2683409828821996e-01 -2.6623003250178655e+01 -4.6896360760580965e+03 +1.2029388401794353e+04 +1.5769044088555798e+07 
+2.2999999999999998e+00 -5.3637449749142485e-01 +7.3488748449135191e+00 -2.3087814376448437e-01 -2.6461324257220163e+01 -4.6173342626423901e+03 +1.0727545237349539e+04 +1.5416475002776962e+07 
+2.3999999999999999e+00 -5.3637457304197700e-01 +7.3488780187202511e+00 -2.3545097156578215e-01 -2.6311246304360505e+01 -4.5350885858665670e+03 +9.4845551224249466e+03 +1.5020381116852744e+07 
+2.5000000000000000e+00 -5.3637465670742901e-01 +7.3488810946507099e+00 -2.4047866541535590e-01 -2.6171122176672885e+01 -4.4440946427285635e+03 +8.2938312818059549e+03 +1.4585863830077112e+07 
+2.6000000000000001e+00 -5.3637474862840462e-01 +7.3488839893854943e+00 -2.4588731390328622e-01 -2.6039304466938859e+01 -4.3455479356695232e+03 +7.1487859014009555e+03 +1.4118024085497284e+07 
+2.7000000000000002e+00 -5.3637484894564025e-01 +7.3488866196014584e+00 -2.5160300413883507e-01 -2.5914145680601596e+01 -4.2406439988159345e+03 +6.0428307111983240e+03 +1.3621962982448265e+07 
+2.7999999999999998e+00 -5.3637495779971245e-01 +7.3488889019733978e+00 -2.5755182267836862e-01 -2.5793998285209081e+01 -4.1305783793601813e+03 +4.9693772752843224e+03 +1.3102781687330831e+07 
+2.8999999999999999e+00 -5.3637507533131679e-01 +7.3488907531696119e+00 -2.6365985747332743e-01 -2.5677214586429741e+01 -4.0165466016901341e+03 +3.9218362822584681e+03 +1.2565581265273614e+07 
+3.0000000000000000e+00 -5.3637520168105490e-01 +7.3488920898550445e+00 -2.6985319764863031e-01 -2.5562146815764702e+01 -3.8997441696065684e+03 +2.8936180579809570e+03 +1.2015462685059754e+07 
+3.1000000000000001e+00 -5.3637533698956286e-01 +7.3488928286864281e+00 -2.7605793080134888e-01 -2.5447146989109324e+01 -3.7813666200496000e+03 +1.8781317373424058e+03 +1.1457527080423009e+07 
+3.2000000000000002e+00 -5.3637548139747560e-01 +7.3488928863158760e+00 -2.8220014721490977e-01 -2.5330567023838487e+01 -3.6626094439150961e+03 +8.6878598123746974e+02 +1.0896875376979673e+07 
+3.2999999999999998e+00 -5.3637563504537167e-01 +7.3488921793856825e+00 -2.8820593400416039e-01 -2.5210758574902119e+01 -3.5446681932848892e+03 -1.4101200072872928e+02 +1.0338608789884422e+07 
+3.3999999999999999e+00 -5.3637579807391322e-01 +7.3488906245358905e+00 -2.9400138334482673e-01 -2.5086073252545496e+01 -3.4287383317648050e+03 -1.1578552024737721e+03 +9.7878281301549878e+06 
+3.5000000000000000e+00 -5.3637597062362186e-01 +7.3488881383926978e+00 -2.9951258488676108e-01 -2.4954862311064336e+01 -3.3160153724748002e+03 -2.1883385425422525e+03 +9.2496344459968209e+06 
+3.6000000000000001e+00 -5.3637615283512619e-01 +7.3488846375764219e+00 -3.0466563040943295e-01 -2.4815476848030873e+01 -3.2076947949397199e+03 -3.2390578059189561e+03 +8.7291286387883555e+06 
+3.7000000000000002e+00 -5.3637634484896923e-01 +7.3488800387012150e+00 -3.0938661186477795e-01 -2.4666267820404254e+01 -3.1049720795778185e+03 -4.3166094715651479e+03 +8.2314116218224037e+06 
+3.7999999999999998e+00 -5.3637654680571833e-01 +7.3488742583646465e+00 -3.1360162055110841e-01 -2.4505585731750841e+01 -3.0090427256301377e+03 -5.4275925593695629e+03 +7.7615844104228849e+06 
+3.8999999999999999e+00 -5.3637675884591429e-01 +7.3488672131598314e+00 -3.1723675055165973e-01 -2.4331780990993597e+01 -2.9211021843245367e+03 -6.5786065259141769e+03 +7.3247478009459870e+06 
+4.0000000000000000e+00 -5.3637698111011545e-01 +7.3488588196678037e+00 -3.2021809611062574e-01 -2.4143203692635005e+01 -2.8423459096986248e+03 -7.7762525453822009e+03 +6.9260026128583318e+06 
+4.0999999999999996e+00 -5.3637721354903489e-01 +7.3488489975900206e+00 -3.2248797500164056e-01 -2.3938295288629668e+01 -2.7737629760051968e+03 -9.0268574726609422e+03 +6.5696808784967987e+06 
+4.2000000000000002e+00 -5.3637745535365511e-01 +7.3488376795268922e+00 -3.2405377551936626e-01 -2.3715758921822978e+01 -2.7155129691008037e+03 -1.0336260461314636e+04 +6.2570249690858647e+06 
+4.2999999999999998e+00 -5.3637770552476760e-01 +7.3488248014061410e+00 -3.2493919886162659e-01 -2.3474337016694200e+01 -2.6675472821479862e+03 -1.1710333779595716e+04 +5.9885022370946165e+06 
+4.4000000000000004e+00 -5.3637796306321928e-01 +7.3488102991617605e+00 -3.2516795216058497e-01 -2.3212772116463743e+01 -2.6298171981555015e+03 -1.3154949190143428e+04 +5.7645795135363601e+06 
+4.5000000000000000e+00 -5.3637822696978166e-01 +7.3487941087275130e+00 -3.2476374074381109e-01 -2.2929806663211647e+01 -2.6022740417725504e+03 -1.4675979327399236e+04 +5.5857238434858099e+06 
+4.5999999999999996e+00 -5.3637849624525313e-01 +7.3487761660446713e+00 -3.2375026981729976e-01 -2.2624183231974769e+01 -2.5848691396828599e+03 -1.6279296300654187e+04 +5.4524022767355191e+06 
+4.7000000000000002e+00 -5.3637876989040523e-01 +7.3487564070573885e+00 -3.2215124981006998e-01 -2.2294644384706519e+01 -2.5775537287996731e+03 -1.7970772580929810e+04 +5.3650814572659014e+06 
+4.7999999999999998e+00 -5.3637904690598570e-01 +7.3487347677151815e+00 -3.1999038724973961e-01 -2.1939932742755182e+01 -2.5802791202867334e+03 -1.9756280581748761e+04 +5.3242283781060027e+06 
+4.9000000000000004e+00 -5.3637932629271956e-01 +7.3487111839717931e+00 -3.1729139335397477e-01 -2.1558790945667234e+01 -2.5929965461113875e+03 -2.1641692914993419e+04 +5.3303096786555378e+06 
+5.0000000000000000e+00 -5.3637960705132037e-01 +7.3486855917887270e+00 -3.1407798039958024e-01 -2.1149961745169211e+01 -2.6156572199445541e+03 -2.3632881872947721e+04 +5.3837919116021320e+06 
+5.0999999999999996e+00 -5.3637988818252569e-01 +7.3486579271305441e+00 -3.1037386006975304e-01 -2.0712187863972222e+01 -2.6482123710582628e+03 -2.5735720260349284e+04 +5.4851417098525967e+06 
+5.2000000000000002e+00 -5.3638016868699323e-01 +7.3486281259705946e+00 -3.0620274619764887e-01 -2.0244212161237396e+01 -2.6906131957455455e+03 -2.7956080438873483e+04 +5.6348255671729669e+06 
+5.2999999999999998e+00 -5.3638044756539427e-01 +7.3485961242875826e+00 -3.0158835354805974e-01 -1.9744777521914266e+01 -2.7428108772087025e+03 -3.0299834997704405e+04 +5.8333099226701185e+06 
+5.4000000000000004e+00 -5.3638072381838919e-01 +7.3485618580704326e+00 -2.9655440061320665e-01 -1.9212626994626383e+01 -2.8047565325260261e+03 -3.2772855962229129e+04 +6.0810609080788027e+06 
+5.5000000000000000e+00 -5.3638099644656467e-01 +7.3485252633081135e+00 -2.9112460420031222e-01 -1.8646503495132254e+01 -2.8764013167622957e+03 -3.5381016519644174e+04 +6.3785448474592092e+06 
+5.5999999999999996e+00 -5.3638126445062217e-01 +7.3484862760082050e+00 -2.8532268238478159e-01 -1.8045150329804095e+01 -2.9576963672137713e+03 -3.8130188026705342e+04 +6.7262279930183813e+06 
+5.7000000000000002e+00 -5.3638152683106166e-01 +7.3484448321757094e+00 -2.7917235771535598e-01 -1.7407310581735146e+01 -3.0485927402185912e+03 -4.1026243565022240e+04 +7.1245762169228317e+06 
+5.7999999999999998e+00 -5.3638178258849467e-01 +7.3484008678322414e+00 -2.7269735412036172e-01 -1.6731727666479927e+01 -3.1490414738866084e+03 -4.4075054721754110e+04 +7.5740553206858877e+06 
+5.9000000000000004e+00 -5.3638203072343893e-01 +7.3483543190039144e+00 -2.6592139293975259e-01 -1.6017144959530967e+01 -3.2589936613785439e+03 -4.7282493810281761e+04 +8.0751313789494317e+06 
+5.9999999999999902e+00 -5.3638227023649310e-01 +7.3483051217274191e+00 -2.5886820143086958e-01 -1.5262305983315160e+01 -3.3784002868546904e+03 -5.0654432740051539e+04 +8.6282699522850420e+06 
+6.0999999999999899e+00 -5.3638250037711221e-01 +7.3482532843025341e+00 -2.5156535419773352e-01 -1.4467160099389321e+01 -3.5070271873135948e+03 -5.4191459845138401e+04 +9.2328738353813067e+06 
+6.1999999999999904e+00 -5.3638272139775045e-01 +7.3481991259083976e+00 -2.4405792055535325e-01 -1.3637020787324484e+01 -3.6438669169507848e+03 -5.7870215584214056e+04 +9.8839600538966823e+06 
+6.2999999999999901e+00 -5.3638293380335078e-01 +7.3481430490316786e+00 -2.3639591804831767e-01 -1.2778678555093213e+01 -3.7877093174230358e+03 -6.1660647720790257e+04 +1.0575409145374585e+07 
+6.3999999999999897e+00 -5.3638313809890170e-01 +7.3480854561563511e+00 -2.2862935815585458e-01 -1.1898923922436524e+01 -3.9373443277693377e+03 -6.5532703655094680e+04 +1.1301102071460823e+07 
+6.4999999999999902e+00 -5.3638333478938016e-01 +7.3480267497742116e+00 -2.2080825065852361e-01 -1.1004547739360989e+01 -4.0915618978071761e+03 -6.9456328538711823e+04 +1.2054919798407650e+07 
+6.5999999999999899e+00 -5.3638352437996006e-01 +7.3479673323814323e+00 -2.1298259724274676e-01 -1.0102341093168823e+01 -4.2491521101047547e+03 -7.3401465797522673e+04 +1.2830743876465920e+07 
+6.6999999999999904e+00 -5.3638370737578511e-01 +7.3479076064744708e+00 -2.0520239706881044e-01 -9.1990951932219609e+00 -4.4089050741505553e+03 -7.7338057785014753e+04 +1.3622455939960528e+07 
+6.7999999999999901e+00 -5.3638388428210582e-01 +7.3478479745566938e+00 -1.9751764286811721e-01 -8.3016015668553145e+00 -4.5696109988156686e+03 -8.1236044636674604e+04 +1.4423938045687169e+07 
+6.8999999999999897e+00 -5.3638405560423763e-01 +7.3477888391328898e+00 -1.8997832311165158e-01 -7.4166519093237016e+00 -4.7300601496922536e+03 -8.5065365110245315e+04 +1.5229072467127068e+07 
+6.9999999999999902e+00 -5.3638422184762125e-01 +7.3477306027151554e+00 -1.8263441810167486e-01 -6.5510382543378123e+00 -4.8890429224319832e+03 -8.8795955592550439e+04 +1.6031742041636080e+07 
+7.0999999999999899e+00 -5.3638438351767947e-01 +7.3476736678150072e+00 -1.7553590730586086e-01 -5.7115527587663761e+00 -5.0453497069571022e+03 -9.2397751319846080e+04 +1.6825829534650557e+07 
+7.1999999999999904e+00 -5.3638454111999923e-01 +7.3476184369523532e+00 -1.6873275798690246e-01 -4.9049879631264997e+00 -5.1977710932822683e+03 -9.5840684849814905e+04 +1.7605218591040790e+07 
+7.2999999999999901e+00 -5.3638469516024423e-01 +7.3475653126485740e+00 -1.6227493507176377e-01 -4.1381365906381609e+00 -5.3450976934890405e+03 -9.9094687234537283e+04 +1.8363792916174248e+07 
+7.3999999999999897e+00 -5.3638484614408288e-01 +7.3475146974310981e+00 -1.5621239746647381e-01 -3.4177917057859588e+00 -5.4861202038243155e+03 -1.0212968702477370e+05 +1.9095436546583038e+07 
+7.4999999999999902e+00 -5.3638499457742583e-01 +7.3474669938309072e+00 -1.5059509556918427e-01 -2.7507466184129914e+00 -5.6196294521872560e+03 -1.0491561088858929e+05 +1.9794034081894390e+07 
+7.5999999999999899e+00 -5.3638514096609613e-01 +7.3474226043857218e+00 -1.4547297503902321e-01 -2.1437950046187657e+00 -5.7444163292983549e+03 -1.0742238283151403e+05 +2.0453470361661505e+07 
+7.6999999999999904e+00 -5.3638528581613809e-01 +7.3473819316329037e+00 -1.4089597238817095e-01 -1.6037307006993331e+00 -5.8592718693299094e+03 -1.0961992538466361e+05 +2.1067630843339287e+07 
+7.7999999999999901e+00 -5.3638542963368707e-01 +7.3473453781191571e+00 -1.3691401793536406e-01 -1.1373479815040475e+00 -5.9629871913639372e+03 -1.1147815800272765e+05 +2.1630401316229459e+07 
+7.8999999999999897e+00 -5.3638557292492872e-01 +7.3473133463932729e+00 -1.3357703454809777e-01 -7.5144136212977330e-01 -6.0543535214772855e+03 -1.1296699817748551e+05 +2.2135668002848160e+07 
+7.9999999999999902e+00 -5.3638571619619280e-01 +7.3472862390129476e+00 -1.3093493866684960e-01 -4.5280581714902596e-01 -6.1321621808541558e+03 -1.1405636014010166e+05 +2.2577317520756479e+07 
+8.0999999999999908e+00 -5.3638585984435583e-01 +7.3472643666168738e+00 -1.2902639261819279e-01 -2.4671111762411529e-01 -6.1954819666864614e+03 -1.1472303536956226e+05 +2.2950649073807288e+07 
+8.1999999999999904e+00 -5.3638600381571311e-01 +7.3472476454244342e+00 -1.2784169726582040e-01 -1.3170157660304146e-01 -6.2445417834677846e+03 -1.1497461441640650e+05 +2.3256825896780327e+07 
+8.2999999999999901e+00 -5.3638614794056749e-01 +7.3472358860982458e+00 -1.2735813034712481e-01 -1.0448279406798539e-01 -6.2798752912888222e+03 -1.1482721806805322e+05 +2.3498542049631797e+07 
+8.3999999999999897e+00 -5.3638629204926669e-01 +7.3472288993016690e+00 -1.2755296680191092e-01 -1.6176034705316861e-01 -6.3020162026379330e+03 -1.1429696750968581e+05 +2.3678491843674485e+07 
+8.4999999999999893e+00 -5.3638643597215219e-01 +7.3472264956930884e+00 -1.2840348370621382e-01 -3.0023959122935223e-01 -6.3114981984713468e+03 -1.1339998550146687e+05 +2.3799369463536900e+07 
+8.5999999999999908e+00 -5.3638657953948499e-01 +7.3472284859383050e+00 -1.2988696114479531e-01 -5.1662602171897298e-01 -6.3088549024519561e+03 -1.1215239429036944e+05 +2.3863868820648916e+07 
+8.6999999999999904e+00 -5.3638672258150988e-01 +7.3472346806910460e+00 -1.3198068317558873e-01 -8.0762472060322354e-01 -6.2946198652379453e+03 -1.1057031877957996e+05 +2.3874683483152252e+07 
+8.7999999999999794e+00 -5.3638686492845400e-01 +7.3472448906168903e+00 -1.3466193480672606e-01 -1.1699410192425488e+00 -6.2693266276508712e+03 -1.0866988277356923e+05 +2.3834506996043094e+07 
+8.8999999999999808e+00 -5.3638700641054571e-01 +7.3472589263700341e+00 -1.3790800314458523e-01 -1.6002798522649988e+00 -6.2335086905178023e+03 -1.0646721265363781e+05 +2.3746032710333735e+07 
+8.9999999999999805e+00 -5.3638714685790445e-01 +7.3472765986072037e+00 -1.4169618038472226e-01 -2.0953461393864869e+00 -6.1876994668901898e+03 -1.0397843522953296e+05 +2.3611953582856972e+07 
+9.0999999999999801e+00 -5.3638728610066522e-01 +7.3472977179872601e+00 -1.4600375930294171e-01 -2.6518447743766176e+00 -6.1324323604097381e+03 -1.0121967779529406e+05 +2.3434962528847277e+07 
+9.1999999999999797e+00 -5.3638742396891359e-01 +7.3473220951626850e+00 -1.5080803698466164e-01 -3.2664803841046983e+00 -6.0682407003116386e+03 -9.8207069524916282e+04 +2.3217752128252242e+07 
+9.2999999999999794e+00 -5.3638756029272816e-01 +7.3473495407885006e+00 -1.5608631347395788e-01 -3.9359575713788453e+00 -5.9956577629685298e+03 -9.4956740098086389e+04 +2.2963014716580305e+07 
+9.3999999999999808e+00 -5.3638769490210314e-01 +7.3473798655155287e+00 -1.6181589109153802e-01 -4.6569807299592938e+00 -5.9152167878862001e+03 -9.1484820758286995e+04 +2.2673442470054373e+07 
+9.4999999999999805e+00 -5.3638782762699733e-01 +7.3474128799940814e+00 -1.6797407792578789e-01 -5.4262541364803676e+00 -5.8274509127992769e+03 -8.7807443811577905e+04 +2.2351727099029258e+07 
+9.5999999999999801e+00 -5.3638795829735941e-01 +7.3474483948754594e+00 -1.7453818176327104e-01 -6.2404820038321818e+00 -5.7328932877965963e+03 -8.3940742308437024e+04 +2.2000560389946420e+07 
+9.6999999999999797e+00 -5.3638808674308947e-01 +7.3474862208047398e+00 -1.8148551841234328e-01 -7.0963682575279670e+00 -5.6320769129277960e+03 -7.9900851365019043e+04 +2.1622633418769863e+07 
+9.7999999999999794e+00 -5.3638821279402060e-01 +7.3475261684278506e+00 -1.8879340295002900e-01 -7.9906167501256542e+00 -5.5255348143932997e+03 -7.5703906909983809e+04 +2.1220637417183630e+07 
+9.8999999999999808e+00 -5.3638833627994131e-01 +7.3475680483910280e+00 -1.9643915809955456e-01 -8.9199312322791311e+00 -5.4137998762067236e+03 -7.1366045887206958e+04 +2.0797262947111595e+07 
+9.9999999999999805e+00 -5.3638845703064120e-01 +7.3476116713358275e+00 -2.0440010734266656e-01 -9.8810152120952885e+00 -5.2974049777387654e+03 -6.6903407009262752e+04 +2.0355200576181047e+07 
+1.0100000000000000e+01 -5.3638857503528969e-01 +7.3476568361314252e+00 -2.1265065219785978e-01 -1.0870268835919353e+01 -5.1768791395427497e+03 -6.2332965461013155e+04 +1.9896983577142831e+07 
