# field on trajectory
# s[mm] rx[mm] ry[mm] rz[mm] bx[T] by[T] bz[T]
0.0000000000000000e+00 +8.1529999999999987e+00 +0.0000000000000000e+00 +0.0000000000000000e+00 -3.2465394387317034e-02 -5.9275319705625951e-01 +5.8741836862285998e-03
-1.0000000000000001e-01 +8.1529997168373765e+00 +0.0000000000000000e+00 -9.9999999999465461e-02 -3.2465211867231426e-02 -5.9275311459277691e-01 +5.8741087549843375e-03
-2.0000000000000001e-01 +8.1529988673495630e+00 +0.0000000000000000e+00 -1.9999999999572368e-01 -3.2465028966620214e-02 -5.9275303622373920e-01 +5.8740368051503240e-03
-3.0000000000000004e-01 +8.1529974515366312e+00 +0.0000000000000000e+00 -2.9999999998556742e-01 -3.2464846170832062e-02 -5.9275296165051794e-01 +5.8739678925326874e-03
-4.0000000000000002e-01 +8.1529954693986539e+00 +0.0000000000000000e+00 -3.9999999996578939e-01 -3.2464663965216169e-02 -5.9275289057448100e-01 +5.8739020729396381e-03
-5.0000000000000000e-01 +8.1529929209356986e+00 +0.0000000000000000e+00 -4.9999999993318245e-01 -3.2464482835121378e-02 -5.9275282269699470e-01 +5.8738394021810867e-03
-5.9999999999999998e-01 +8.1529898061478310e+00 +0.0000000000000000e+00 -5.9999999988453934e-01 -3.2464303265894945e-02 -5.9275275771942448e-01 +5.8737799360682307e-03
-6.9999999999999996e-01 +8.1529861250351114e+00 +0.0000000000000000e+00 -6.9999999981665273e-01 -3.2464125742881544e-02 -5.9275269534313646e-01 +5.8737237304131639e-03
-7.9999999999999993e-01 +8.1529818775976022e+00 +0.0000000000000000e+00 -7.9999999972631541e-01 -3.2463950751422103e-02 -5.9275263526949640e-01 +5.8736708410284518e-03
-8.9999999999999991e-01 +8.1529770638353583e+00 +0.0000000000000000e+00 -8.9999999961032029e-01 -3.2463778776852789e-02 -5.9275257719987395e-01 +5.8736213237267718e-03
-9.9999999999999989e-01 +8.1529716837484365e+00 +0.0000000000000000e+00 -9.9999999946546003e-01 -3.2463610304503954e-02 -5.9275252083564078e-01 +5.8735752343204673e-03
-1.0999999999999999e+00 +8.1529657373368920e+00 +0.0000000000000000e+00 -1.0999999992885274e+00 -3.2463445819698955e-02 -5.9275246587817287e-01 +5.8735326286211828e-03
-1.2000000000000000e+00 +8.1529592246007763e+00 +0.0000000000000000e+00 -1.1999999990763150e+00 -3.2463285807753123e-02 -5.9275241202885043e-01 +5.8734935624394384e-03
-1.3000000000000000e+00 +8.1529521455401408e+00 +0.0000000000000000e+00 -1.2999999988256159e+00 -3.2463130753972648e-02 -5.9275235898906109e-01 +5.8734580915842365e-03
-1.4000000000000001e+00 +8.1529445001550371e+00 +0.0000000000000000e+00 -1.3999999985332228e+00 -3.2462981143653591e-02 -5.9275230646019794e-01 +5.8734262718626697e-03
-1.5000000000000002e+00 +8.1529362884455150e+00 +0.0000000000000000e+00 -1.4999999981959282e+00 -3.2462837462080674e-02 -5.9275225414366284e-01 +5.8733981590795058e-03
-1.6000000000000003e+00 +8.1529275104116259e+00 +0.0000000000000000e+00 -1.5999999978105253e+00 -3.2462700194526253e-02 -5.9275220174086640e-01 +5.8733738090367953e-03
-1.7000000000000004e+00 +8.1529181660534196e+00 +0.0000000000000000e+00 -1.6999999973738065e+00 -3.2462569826249281e-02 -5.9275214895322870e-01 +5.8733532775334671e-03
-1.8000000000000005e+00 +8.1529082553709475e+00 +0.0000000000000000e+00 -1.7999999968825646e+00 -3.2462446842494143e-02 -5.9275209548218100e-01 +5.8733366203649285e-03
-1.9000000000000006e+00 +8.1528977783642596e+00 +0.0000000000000000e+00 -1.8999999963335927e+00 -3.2462331728489627e-02 -5.9275204102916568e-01 +5.8733238933226647e-03
-2.0000000000000004e+00 +8.1528867350334089e+00 +0.0000000000000000e+00 -1.9999999957236834e+00 -3.2462224969447853e-02 -5.9275198529563933e-01 +5.8733151521938344e-03
-2.1000000000000005e+00 +8.1528751253784488e+00 +0.0000000000000000e+00 -2.0999999950496293e+00 -3.2462126795750619e-02 -5.9275192817956779e-01 +5.8733104365096631e-03
-2.2000000000000006e+00 +8.1528629493994345e+00 +0.0000000000000000e+00 -2.1999999943082234e+00 -3.2462036418519205e-02 -5.9275187036491961e-01 +5.8733097207932490e-03
-2.3000000000000007e+00 +8.1528502070964226e+00 +0.0000000000000000e+00 -2.2999999934962583e+00 -3.2461952794066620e-02 -5.9275181273217203e-01 +5.8733129633163029e-03
-2.4000000000000008e+00 +8.1528368984694666e+00 +0.0000000000000000e+00 -2.3999999926105269e+00 -3.2461874878713902e-02 -5.9275175616181275e-01 +5.8733201223510421e-03
-2.5000000000000009e+00 +8.1528230235186214e+00 +0.0000000000000000e+00 -2.4999999916478219e+00 -3.2461801628791996e-02 -5.9275170153434364e-01 +5.8733311561704402e-03
-2.6000000000000010e+00 +8.1528085822439404e+00 +0.0000000000000000e+00 -2.5999999906049363e+00 -3.2461732000643548e-02 -5.9275164973027772e-01 +5.8733460230484475e-03
-2.7000000000000011e+00 +8.1527935746454734e+00 +0.0000000000000000e+00 -2.6999999894786626e+00 -3.2461664950624705e-02 -5.9275160163014173e-01 +5.8733646812602546e-03
-2.8000000000000012e+00 +8.1527780007232664e+00 +0.0000000000000000e+00 -2.7999999882657938e+00 -3.2461599435107028e-02 -5.9275155811447588e-01 +5.8733870890825277e-03
-2.9000000000000012e+00 +8.1527618604773604e+00 +0.0000000000000000e+00 -2.8999999869631226e+00 -3.2461534410479193e-02 -5.9275152006383447e-01 +5.8734132047936405e-03
-3.0000000000000013e+00 +8.1527451539077926e+00 +0.0000000000000000e+00 -2.9999999855674417e+00 -3.2461468833148932e-02 -5.9275148835878710e-01 +5.8734429866739383e-03
-3.1000000000000014e+00 +8.1527278810145951e+00 +0.0000000000000000e+00 -3.0999999840755441e+00 -3.2461401659544753e-02 -5.9275146387991651e-01 +5.8734763930059506e-03
-3.2000000000000015e+00 +8.1527100417977909e+00 +0.0000000000000000e+00 -3.1999999824842220e+00 -3.2461331846117880e-02 -5.9275144750782371e-01 +5.8735133820746596e-03
-3.3000000000000016e+00 +8.1526916362573960e+00 +0.0000000000000000e+00 -3.2999999807902687e+00 -3.2461258349343956e-02 -5.9275144012312331e-01 +5.8735539121677347e-03
-3.4000000000000017e+00 +8.1526726643934193e+00 +0.0000000000000000e+00 -3.3999999789904769e+00 -3.2461180125724978e-02 -5.9275144260644808e-01 +5.8735979415757622e-03
-3.5000000000000018e+00 +8.1526531262058572e+00 +0.0000000000000000e+00 -3.4999999770816395e+00 -3.2461096131791052e-02 -5.9275145583844668e-01 +5.8736454285925064e-03
-3.6000000000000019e+00 +8.1526330216946992e+00 +0.0000000000000000e+00 -3.5999999750605491e+00 -3.2461005324102239e-02 -5.9275148069978645e-01 +5.8736963315151351e-03
-3.7000000000000020e+00 +8.1526123508599202e+00 +0.0000000000000000e+00 -3.6999999729239983e+00 -3.2460906659250395e-02 -5.9275151807115123e-01 +5.8737506086444721e-03
-3.8000000000000020e+00 +8.1525911137014866e+00 +0.0000000000000000e+00 -3.7999999706687801e+00 -3.2460799093860945e-02 -5.9275156883324409e-01 +5.8738082182852305e-03
-3.9000000000000021e+00 +8.1525693102193504e+00 +0.0000000000000000e+00 -3.8999999682916875e+00 -3.2460681584594774e-02 -5.9275163386678764e-01 +5.8738691187462657e-03
-4.0000000000000018e+00 +8.1525469404134494e+00 +0.0000000000000000e+00 -3.9999999657895127e+00 -3.2460553088149997e-02 -5.9275171405252258e-01 +5.8739332683408066e-03
-4.1000000000000014e+00 +8.1525240042837073e+00 +0.0000000000000000e+00 -4.0999999631590489e+00 -3.2460412943746318e-02 -5.9275180998994847e-01 +5.8740006250081345e-03
-4.2000000000000011e+00 +8.1525005018300334e+00 +0.0000000000000000e+00 -4.1999999603970890e+00 -3.2460262020559280e-02 -5.9275192115352271e-01 +5.8740711451778773e-03
-4.3000000000000007e+00 +8.1524764330523229e+00 +0.0000000000000000e+00 -4.2999999575004253e+00 -3.2460101570243531e-02 -5.9275204673642035e-01 +5.8741447849054509e-03
-4.4000000000000004e+00 +8.1524517979504569e+00 +0.0000000000000000e+00 -4.3999999544658506e+00 -3.2459932844444428e-02 -5.9275218593179158e-01 +5.8742215002507790e-03
-4.5000000000000000e+00 +8.1524265965243039e+00 +0.0000000000000000e+00 -4.4999999512901576e+00 -3.2459757094796884e-02 -5.9275233793275905e-01 +5.8743012472784748e-03
-4.5999999999999996e+00 +8.1524008287737182e+00 +0.0000000000000000e+00 -4.5999999479701392e+00 -3.2459575572924095e-02 -5.9275250193241680e-01 +5.8743839820580360e-03
-4.6999999999999993e+00 +8.1523744946985435e+00 +0.0000000000000000e+00 -4.6999999445025882e+00 -3.2459389530436492e-02 -5.9275267712382740e-01 +5.8744696606640480e-03
-4.7999999999999989e+00 +8.1523475942986146e+00 +0.0000000000000000e+00 -4.7999999408842973e+00 -3.2459200218930548e-02 -5.9275286270001970e-01 +5.8745582391763734e-03
-4.8999999999999986e+00 +8.1523201275737556e+00 +0.0000000000000000e+00 -4.8999999371120584e+00 -3.2459008889987519e-02 -5.9275305785398646e-01 +5.8746496736803468e-03
-4.9999999999999982e+00 +8.1522920945237800e+00 +0.0000000000000000e+00 -4.9999999331826652e+00 -3.2458816795172381e-02 -5.9275326177868415e-01 +5.8747439202669754e-03
-5.0999999999999979e+00 +8.1522634951484925e+00 +0.0000000000000000e+00 -5.0999999290929106e+00 -3.2458625186032604e-02 -5.9275347366702813e-01 +5.8748409350331326e-03
-5.1999999999999975e+00 +8.1522343294476940e+00 +0.0000000000000000e+00 -5.1999999248395863e+00 -3.2458435314096985e-02 -5.9275369271189293e-01 +5.8749406740817517e-03
-5.2999999999999972e+00 +8.1522045974211750e+00 +0.0000000000000000e+00 -5.2999999204194852e+00 -3.2458248430874491e-02 -5.9275391810610822e-01 +5.8750430935220173e-03
-5.3999999999999968e+00 +8.1521742990687223e+00 +0.0000000000000000e+00 -5.3999999158294010e+00 -3.2458065787853055e-02 -5.9275414904245816e-01 +5.8751481494695801e-03
-5.4999999999999964e+00 +8.1521434343901156e+00 +0.0000000000000000e+00 -5.4999999110661255e+00 -3.2457888636498469e-02 -5.9275438471367825e-01 +5.8752557980467244e-03
-5.5999999999999961e+00 +8.1521120033851311e+00 +0.0000000000000000e+00 -5.5999999061264516e+00 -3.2457718228253142e-02 -5.9275462431245496e-01 +5.8753659953825936e-03
-5.6999999999999957e+00 +8.1520800060535397e+00 +0.0000000000000000e+00 -5.6999999010071720e+00 -3.2457555814534973e-02 -5.9275486703142111e-01 +5.8754786976133646e-03
-5.7999999999999954e+00 +8.1520474423951121e+00 +0.0000000000000000e+00 -5.7999998957050787e+00 -3.2457402646736140e-02 -5.9275511206315490e-01 +5.8755938608824549e-03
-5.8999999999999950e+00 +8.1520143124096140e+00 +0.0000000000000000e+00 -5.8999998902169652e+00 -3.2457259976221960e-02 -5.9275535860017925e-01 +5.8757114413407153e-03
-5.9999999999999947e+00 +8.1519806160968127e+00 +0.0000000000000000e+00 -5.9999998845396236e+00 -3.2457129054329688e-02 -5.9275560583495757e-01 +5.8758313951466235e-03
-6.0999999999999943e+00 +8.1519463534564718e+00 +0.0000000000000000e+00 -6.0999998786698475e+00 -3.2457010775877634e-02 -5.9275585334524672e-01 +5.8759537001924341e-03
-6.1999999999999940e+00 +8.1519115244883551e+00 +0.0000000000000000e+00 -6.1999998726044288e+00 -3.2456904609699147e-02 -5.9275610225018305e-01 +5.8760784212761267e-03
-6.2999999999999936e+00 +8.1518761291922281e+00 +0.0000000000000000e+00 -6.2999998663401602e+00 -3.2456809668130103e-02 -5.9275635405425198e-01 +5.8762056449120784e-03
-6.3999999999999932e+00 +8.1518401675678493e+00 +0.0000000000000000e+00 -6.3999998598738346e+00 -3.2456725063503389e-02 -5.9275661026193804e-01 +5.8763354576028401e-03
-6.4999999999999929e+00 +8.1518036396149753e+00 +0.0000000000000000e+00 -6.4999998532022438e+00 -3.2456649908148921e-02 -5.9275687237772412e-01 +5.8764679458385627e-03
-6.5999999999999925e+00 +8.1517665453333574e+00 +0.0000000000000000e+00 -6.5999998463221816e+00 -3.2456583314393550e-02 -5.9275714190609208e-01 +5.8766031960963876e-03
-6.6999999999999922e+00 +8.1517288847227380e+00 +0.0000000000000000e+00 -6.6999998392304398e+00 -3.2456524394561093e-02 -5.9275742035152390e-01 +5.8767412948398838e-03
-6.7999999999999918e+00 +8.1516906577828543e+00 +0.0000000000000000e+00 -6.7999998319238113e+00 -3.2456472260972286e-02 -5.9275770921850157e-01 +5.8768823285184615e-03
-6.8999999999999915e+00 +8.1516518645134290e+00 +0.0000000000000000e+00 -6.8999998243990888e+00 -3.2456426025944778e-02 -5.9275801001150685e-01 +5.8770263835667812e-03
-6.9999999999999911e+00 +8.1516125049141781e+00 +0.0000000000000000e+00 -6.9999998166530641e+00 -3.2456384801793130e-02 -5.9275832423502273e-01 +5.8771735464041774e-03
-7.0999999999999908e+00 +8.1515725789848013e+00 +0.0000000000000000e+00 -7.0999998086825311e+00 -3.2456347700828732e-02 -5.9275865339353406e-01 +5.8773239034340752e-03
-7.1999999999999904e+00 +8.1515320867249841e+00 +0.0000000000000000e+00 -7.1999998004842816e+00 -3.2456313835359844e-02 -5.9275899899152651e-01 +5.8774775410433992e-03
-7.2999999999999901e+00 +8.1514910281343997e+00 +0.0000000000000000e+00 -7.2999997920551083e+00 -3.2456282317691536e-02 -5.9275936253348827e-01 +5.8776345456019990e-03
-7.3999999999999897e+00 +8.1514494032127001e+00 +0.0000000000000000e+00 -7.3999997833918041e+00 -3.2456252260125724e-02 -5.9275974552390986e-01 +5.8777950034620604e-03
-7.4999999999999893e+00 +8.1514072119595227e+00 +0.0000000000000000e+00 -7.4999997744911608e+00 -3.2456222774961074e-02 -5.9276014946728495e-01 +5.8779590009575243e-03
-7.5999999999999890e+00 +8.1513644543744803e+00 +0.0000000000000000e+00 -7.5999997653499713e+00 -3.2456192974493071e-02 -5.9276057586811048e-01 +5.8781266244035003e-03
-7.6999999999999886e+00 +8.1513211304571680e+00 +0.0000000000000000e+00 -7.6999997559650284e+00 -3.2456161971013885e-02 -5.9276102623088656e-01 +5.8782979600956820e-03
-7.7999999999999883e+00 +8.1512772402071576e+00 +0.0000000000000000e+00 -7.7999997463331239e+00 -3.2456128876812512e-02 -5.9276150206011846e-01 +5.8784730943097748e-03
-7.8999999999999879e+00 +8.1512327836239944e+00 +0.0000000000000000e+00 -7.8999997364510506e+00 -3.2456092804174601e-02 -5.9276200486031505e-01 +5.8786521133008893e-03
-7.9999999999999876e+00 +8.1511877607072005e+00 +0.0000000000000000e+00 -7.9999997263156013e+00 -3.2456052865382536e-02 -5.9276253613599061e-01 +5.8788351033029805e-03
-8.0999999999999872e+00 +8.1511421714562680e+00 +0.0000000000000000e+00 -8.0999997159235679e+00 -3.2456008343968099e-02 -5.9276309683310036e-01 +5.8790220818795407e-03
-8.1999999999999869e+00 +8.1510960158706638e+00 +0.0000000000000000e+00 -8.1999997052717433e+00 -3.2455959208489912e-02 -5.9276368566334892e-01 +5.8792127919836306e-03
-8.2999999999999865e+00 +8.1510492939498285e+00 +0.0000000000000000e+00 -8.2999996943569201e+00 -3.2455905598796950e-02 -5.9276430077992881e-01 +5.8794069079205905e-03
-8.3999999999999861e+00 +8.1510020056931740e+00 +0.0000000000000000e+00 -8.3999996831758903e+00 -3.2455847654777631e-02 -5.9276494033610005e-01 +5.8796041040003327e-03
-8.4999999999999858e+00 +8.1509541511000911e+00 +0.0000000000000000e+00 -8.4999996717254458e+00 -3.2455785516361108e-02 -5.9276560248519294e-01 +5.8798040545375825e-03
-8.5999999999999854e+00 +8.1509057301699492e+00 +0.0000000000000000e+00 -8.5999996600023785e+00 -3.2455719323518400e-02 -5.9276628538061016e-01 +5.8800064338521106e-03
-8.6999999999999851e+00 +8.1508567429020982e+00 +0.0000000000000000e+00 -8.6999996480034820e+00 -3.2455649216263725e-02 -5.9276698717582865e-01 +5.8802109162689855e-03
-8.7999999999999847e+00 +8.1508071892958682e+00 +0.0000000000000000e+00 -8.7999996357255483e+00 -3.2455575334655706e-02 -5.9276770602440243e-01 +5.8804171761188042e-03
-8.8999999999999844e+00 +8.1507570693505755e+00 +0.0000000000000000e+00 -8.8999996231653693e+00 -3.2455497818798577e-02 -5.9276844007996410e-01 +5.8806248877379431e-03
-8.9999999999999840e+00 +8.1507063830655184e+00 +0.0000000000000000e+00 -8.9999996103197368e+00 -3.2455416808843444e-02 -5.9276918749622809e-01 +5.8808337254687947e-03
-9.0999999999999837e+00 +8.1506551304399864e+00 +0.0000000000000000e+00 -9.0999995971854446e+00 -3.2455332444989576e-02 -5.9276994642699143e-01 +5.8810433636600074e-03
-9.1999999999999833e+00 +8.1506033114732563e+00 +0.0000000000000000e+00 -9.1999995837592827e+00 -3.2455244867485529e-02 -5.9277071502613743e-01 +5.8812534766667359e-03
-9.2999999999999829e+00 +8.1505509261645948e+00 +0.0000000000000000e+00 -9.2999995700380449e+00 -3.2455154216630491e-02 -5.9277149144763686e-01 +5.8814637388508685e-03
-9.3999999999999826e+00 +8.1504979745132609e+00 +0.0000000000000000e+00 -9.3999995560185230e+00 -3.2455060632775444e-02 -5.9277227384555042e-01 +5.8816738245812831e-03
-9.4999999999999822e+00 +8.1504444565185103e+00 +0.0000000000000000e+00 -9.4999995416975089e+00 -3.2454964256324485e-02 -5.9277306037403210e-01 +5.8818834082340820e-03
-9.5999999999999819e+00 +8.1503903721795936e+00 +0.0000000000000000e+00 -9.5999995270717964e+00 -3.2454865227735955e-02 -5.9277384918732923e-01 +5.8820921641928245e-03
-9.6999999999999815e+00 +8.1503357214957592e+00 +0.0000000000000000e+00 -9.6999995121381755e+00 -3.2454763687523785e-02 -5.9277463843978662e-01 +5.8822997668487847e-03
-9.7999999999999812e+00 +8.1502805044662541e+00 +0.0000000000000000e+00 -9.7999994968934381e+00 -3.2454659776258631e-02 -5.9277542628584723e-01 +5.8825058906011845e-03
-9.8999999999999808e+00 +8.1502247210903267e+00 +0.0000000000000000e+00 -9.8999994813343779e+00 -3.2454553634569241e-02 -5.9277621088005694e-01 +5.8827102098574337e-03
-9.9999999999999805e+00 +8.1501683713672310e+00 +0.0000000000000000e+00 -9.9999994654577868e+00 -3.2454445403143538e-02 -5.9277699037706333e-01 +5.8829123990333677e-03
-1.0099999999999980e+01 +8.1501114552962228e+00 +0.0000000000000000e+00 -1.0099999449260457e+01 -3.2454335237091861e-02 -5.9277776326123455e-01 +5.8831122199629136e-03
-1.0199999999999980e+01 +8.1500539728765666e+00 +0.0000000000000000e+00 -1.0199999432739180e+01 -3.2454223348990778e-02 -5.9277852933547415e-01 +5.8833097841312285e-03
-1.0299999999999979e+01 +8.1499959241075324e+00 +0.0000000000000000e+00 -1.0299999415890747e+01 -3.2454109965720006e-02 -5.9277928873227681e-01 +5.8835052904422916e-03
-1.0399999999999979e+01 +8.1499373089883953e+00 +0.0000000000000000e+00 -1.0399999398711952e+01 -3.2453995314087318e-02 -5.9278004158409070e-01 +5.8836989378066263e-03
-1.0499999999999979e+01 +8.1498781275184395e+00 +0.0000000000000000e+00 -1.0499999381199585e+01 -3.2453879620826499e-02 -5.9278078802331591e-01 +5.8838909251414974e-03
-1.0599999999999978e+01 +8.1498183796969528e+00 +0.0000000000000000e+00 -1.0599999363350438e+01 -3.2453763112595381e-02 -5.9278152818230145e-01 +5.8840814513710614e-03
-1.0699999999999978e+01 +8.1497580655232298e+00 +0.0000000000000000e+00 -1.0699999345161306e+01 -3.2453646015973746e-02 -5.9278226219334607e-01 +5.8842707154265683e-03
-1.0799999999999978e+01 +8.1496971849965725e+00 +0.0000000000000000e+00 -1.0799999326628978e+01 -3.2453528557461454e-02 -5.9278299018869396e-01 +5.8844589162465053e-03
-1.0899999999999977e+01 +8.1496357381162863e+00 +0.0000000000000000e+00 -1.0899999307750246e+01 -3.2453410963476301e-02 -5.9278371230053528e-01 +5.8846462527768015e-03
-1.0999999999999977e+01 +8.1495737248816820e+00 +0.0000000000000000e+00 -1.0999999288521904e+01 -3.2453293460352160e-02 -5.9278442866100367e-01 +5.8848329239709818e-03
-1.1099999999999977e+01 +8.1495111452920792e+00 +0.0000000000000000e+00 -1.1099999268940744e+01 -3.2453176274336797e-02 -5.9278513940217514e-01 +5.8850191287903586e-03
-1.1199999999999976e+01 +8.1494479993467994e+00 +0.0000000000000000e+00 -1.1199999249003556e+01 -3.2453059631590023e-02 -5.9278584465606587e-01 +5.8852050662041976e-03
-1.1299999999999976e+01 +8.1493842870451711e+00 +0.0000000000000000e+00 -1.1299999228707133e+01 -3.2452943758181606e-02 -5.9278654455463109e-01 +5.8853909351898924e-03
-1.1399999999999975e+01 +8.1493200083865283e+00 +0.0000000000000000e+00 -1.1399999208048268e+01 -3.2452828880089268e-02 -5.9278723922976340e-01 +5.8855769347331459e-03
-1.1499999999999975e+01 +8.1492551633702082e+00 +0.0000000000000000e+00 -1.1499999187023752e+01 -3.2452715223196697e-02 -5.9278792881329123e-01 +5.8857632638281412e-03
-1.1599999999999975e+01 +8.1491897519955554e+00 +0.0000000000000000e+00 -1.1599999165630376e+01 -3.2452603013291538e-02 -5.9278861343697720e-01 +5.8859501214777220e-03
-1.1699999999999974e+01 +8.1491237742619180e+00 +0.0000000000000000e+00 -1.1699999143864932e+01 -3.2452492476063403e-02 -5.9278929323251695e-01 +5.8861377066935627e-03
