# field on trajectory
# s[mm] rx[mm] ry[mm] rz[mm] bx[T] by[T] bz[T]
0.0000000000000000e+00 +8.1530000000000094e+00 +0.0000000000000000e+00 +0.0000000000000000e+00 -2.9582757359394574e-02 -5.6497254567274668e-01 +5.6785596254531065e-03
1.0000000000000001e-01 +8.1529997159377707e+00 +0.0000000000000000e+00 +1.0008006405070299e-01 -2.9582858722817185e-02 -5.6497272191437153e-01 +5.6785382635579354e-03
2.0000000000000001e-01 +8.1529988637557800e+00 +0.0000000000000000e+00 +2.0016012809818201e-01 -2.9582967623936404e-02 -5.6497290197837413e-01 +5.6785137637028965e-03
2.9999999999999999e-01 +8.1529974434524792e+00 +0.0000000000000000e+00 +3.0024019213920999e-01 -2.9583082918423483e-02 -5.6497308574256078e-01 +5.6784861403526418e-03
4.0000000000000002e-01 +8.1529954550242092e+00 +0.0000000000000000e+00 +4.0032025617056399e-01 -2.9583203461952642e-02 -5.6497327308475931e-01 +5.6784554079720457e-03
5.0000000000000000e-01 +8.1529928984782600e+00 +0.0000000000000000e+00 +5.0040032018901703e-01 -2.9583328110194578e-02 -5.6497346388271841e-01 +5.6784215810253341e-03
5.9999999999999998e-01 +8.1529897738146193e+00 +0.0000000000000000e+00 +6.0048038419134497e-01 -2.9583455718822458e-02 -5.6497365801424870e-01 +5.6783846739777207e-03
6.9999999999999996e-01 +8.1529860810223909e+00 +0.0000000000000000e+00 +7.0056044817432195e-01 -2.9583585143512118e-02 -5.6497385535725253e-01 +5.6783447012958765e-03
8.0000000000000004e-01 +8.1529818201124709e+00 +0.0000000000000000e+00 +8.0064051213472498e-01 -2.9583715239927616e-02 -5.6497405578947024e-01 +5.6783016774454758e-03
9.0000000000000002e-01 +8.1529769910812302e+00 +0.0000000000000000e+00 +9.0072057606932698e-01 -2.9583844863734582e-02 -5.6497425918876143e-01 +5.6782556168942823e-03
1.0000000000000000e+00 +8.1529715939250291e+00 +0.0000000000000000e+00 +1.0008006399749001e+00 -2.9583972870593059e-02 -5.6497446543299434e-01 +5.6782065341111666e-03
1.1000000000000001e+00 +8.1529656286511507e+00 +0.0000000000000000e+00 +1.1008807038482300e+00 -2.9584098116151848e-02 -5.6497467439996030e-01 +5.6781544435654000e-03
1.2000000000000000e+00 +8.1529590952522994e+00 +0.0000000000000000e+00 +1.2009607676860801e+00 -2.9584219456057433e-02 -5.6497488596757295e-01 +5.6780993597288741e-03
1.3000000000000000e+00 +8.1529519937357708e+00 +0.0000000000000000e+00 +1.3010408314852300e+00 -2.9584335745941066e-02 -5.6497510001364137e-01 +5.6780412970739271e-03
1.3999999999999999e+00 +8.1529443240979198e+00 +0.0000000000000000e+00 +1.4011208952424601e+00 -2.9584445841427599e-02 -5.6497531641606902e-01 +5.6779802700755843e-03
1.5000000000000000e+00 +8.1529360863350995e+00 +0.0000000000000000e+00 +1.5012009589545301e+00 -2.9584548598129954e-02 -5.6497553505276987e-01 +5.6779162932108409e-03
1.6000000000000001e+00 +8.1529272804509691e+00 +0.0000000000000000e+00 +1.6012810226182299e+00 -2.9584642871644827e-02 -5.6497575580161208e-01 +5.6778493809582576e-03
1.7000000000000000e+00 +8.1529179064491508e+00 +0.0000000000000000e+00 +1.7013610862303301e+00 -2.9584727517554317e-02 -5.6497597854047377e-01 +5.6777795477987126e-03
1.8000000000000000e+00 +8.1529079643223703e+00 +0.0000000000000000e+00 +1.8014411497875999e+00 -2.9584801391429064e-02 -5.6497620314732977e-01 +5.6777068082164628e-03
1.8999999999999999e+00 +8.1528974540779000e+00 +0.0000000000000000e+00 +1.9015212132868200e+00 -2.9584863348816770e-02 -5.6497642950005367e-01 +5.6776311766972634e-03
2.0000000000000000e+00 +8.1528863757084800e+00 +0.0000000000000000e+00 +2.0016012767247702e+00 -2.9584912245254145e-02 -5.6497665747664472e-01 +5.6775526677310334e-03
2.1000000000000001e+00 +8.1528747292177304e+00 +0.0000000000000000e+00 +2.1016813400982199e+00 -2.9584947350953811e-02 -5.6497688708756577e-01 +5.6774713323276150e-03
2.2000000000000002e+00 +8.1528625146056601e+00 +0.0000000000000000e+00 +2.2017614034039301e+00 -2.9584969517197045e-02 -5.6497711884861324e-01 +5.6773873607268771e-03
2.2999999999999998e+00 +8.1528497318759001e+00 +0.0000000000000000e+00 +2.3018414666387002e+00 -2.9584979972003052e-02 -5.6497735339595012e-01 +5.6773009763445700e-03
2.3999999999999999e+00 +8.1528363810211903e+00 +0.0000000000000000e+00 +2.4019215297993002e+00 -2.9584979943394284e-02 -5.6497759136580494e-01 +5.6772124025978084e-03
2.5000000000000000e+00 +8.1528224620451493e+00 +0.0000000000000000e+00 +2.5020015928824901e+00 -2.9584970659388615e-02 -5.6497783339430507e-01 +5.6771218629032231e-03
2.6000000000000001e+00 +8.1528079749477893e+00 +0.0000000000000000e+00 +2.6020816558850601e+00 -2.9584953348006145e-02 -5.6497808011758321e-01 +5.6770295806779581e-03
2.7000000000000002e+00 +8.1527929197291105e+00 +0.0000000000000000e+00 +2.7021617188037701e+00 -2.9584929237268704e-02 -5.6497833217174787e-01 +5.6769357793392747e-03
2.7999999999999998e+00 +8.1527772963891003e+00 +0.0000000000000000e+00 +2.8022417816354102e+00 -2.9584899555200786e-02 -5.6497859019288099e-01 +5.6768406823044168e-03
2.8999999999999999e+00 +8.1527611049277802e+00 +0.0000000000000000e+00 +2.9023218443767500e+00 -2.9584865529830515e-02 -5.6497885481703580e-01 +5.6767445129904774e-03
3.0000000000000000e+00 +8.1527443453451305e+00 +0.0000000000000000e+00 +3.0024019070245598e+00 -2.9584828389190618e-02 -5.6497912668023220e-01 +5.6766474948142720e-03
3.1000000000000001e+00 +8.1527270176411495e+00 +0.0000000000000000e+00 +3.1024819695756198e+00 -2.9584789361319329e-02 -5.6497940641845701e-01 +5.6765498511922056e-03
3.2000000000000002e+00 +8.1527091218158603e+00 +0.0000000000000000e+00 +3.2025620320267101e+00 -2.9584749674261397e-02 -5.6497969466765885e-01 +5.6764518055401466e-03
3.2999999999999998e+00 +8.1526906578692397e+00 +0.0000000000000000e+00 +3.3026420943745900e+00 -2.9584710556068983e-02 -5.6497999206374683e-01 +5.6763535812732954e-03
3.3999999999999999e+00 +8.1526716258013003e+00 +0.0000000000000000e+00 +3.4027221566160502e+00 -2.9584673234802693e-02 -5.6498029924258752e-01 +5.6762554018060535e-03
3.5000000000000000e+00 +8.1526520256120403e+00 +0.0000000000000000e+00 +3.5028022187478500e+00 -2.9584638938532477e-02 -5.6498061684000367e-01 +5.6761574905518936e-03
3.6000000000000001e+00 +8.1526318572978198e+00 +0.0000000000000000e+00 +3.6028822807667802e+00 -2.9584608895340005e-02 -5.6498094549179700e-01 +5.6760600709235250e-03
3.7000000000000002e+00 +8.1526111208659096e+00 +0.0000000000000000e+00 +3.7029623426696099e+00 -2.9584584333313881e-02 -5.6498128583363594e-01 +5.6759633663315961e-03
3.7999999999999998e+00 +8.1525898163126804e+00 +0.0000000000000000e+00 +3.8030424044531101e+00 -2.9584566480559252e-02 -5.6498163850121974e-01 +5.6758676001863045e-03
3.8999999999999999e+00 +8.1525679436344909e+00 +0.0000000000000000e+00 +3.9031224661140600e+00 -2.9584556565194466e-02 -5.6498200413019295e-01 +5.6757729958964078e-03
4.0000000000000000e+00 +8.1525455028386205e+00 +0.0000000000000000e+00 +4.0032025276492398e+00 -2.9584555815337862e-02 -5.6498238335604734e-01 +5.6756797768656511e-03
4.0999999999999996e+00 +8.1525224939177896e+00 +0.0000000000000000e+00 +4.1032825890554099e+00 -2.9584565132991531e-02 -5.6498277648175732e-01 +5.6755880806583859e-03
4.2000000000000002e+00 +8.1524989168792708e+00 +0.0000000000000000e+00 +4.2033626503293604e+00 -2.9584584234900971e-02 -5.6498318260149993e-01 +5.6754977328734926e-03
4.2999999999999998e+00 +8.1524747717157897e+00 +0.0000000000000000e+00 +4.3034427114678504e+00 -2.9584612568659088e-02 -5.6498360053507390e-01 +5.6754084882572912e-03
4.4000000000000004e+00 +8.1524500584346207e+00 +0.0000000000000000e+00 +4.4035227724676700e+00 -2.9584649581874175e-02 -5.6498402910217105e-01 +5.6753201015478328e-03
4.5000000000000000e+00 +8.1524247770285001e+00 +0.0000000000000000e+00 +4.5036028333255800e+00 -2.9584694722182649e-02 -5.6498446712260153e-01 +5.6752323274767988e-03
4.5999999999999996e+00 +8.1523989275046898e+00 +0.0000000000000000e+00 +4.6036828940383696e+00 -2.9584747437238573e-02 -5.6498491341606927e-01 +5.6751449207667832e-03
4.7000000000000002e+00 +8.1523725098559208e+00 +0.0000000000000000e+00 +4.7037629546028104e+00 -2.9584807174726429e-02 -5.6498536680239919e-01 +5.6750576361331902e-03
4.7999999999999998e+00 +8.1523455240894709e+00 +0.0000000000000000e+00 +4.8038430150156701e+00 -2.9584873382350593e-02 -5.6498582610131554e-01 +5.6749702282815175e-03
4.9000000000000004e+00 +8.1523179701980606e+00 +0.0000000000000000e+00 +4.9039230752737302e+00 -2.9584945507848164e-02 -5.6498629013266455e-01 +5.6748824519092730e-03
5.0000000000000000e+00 +8.1522898481889605e+00 +0.0000000000000000e+00 +5.0040031353737602e+00 -2.9585022998978357e-02 -5.6498675771619411e-01 +5.6747940617032236e-03
5.0999999999999996e+00 +8.1522611580549000e+00 +0.0000000000000000e+00 +5.1040831953125396e+00 -2.9585105303535385e-02 -5.6498722767177834e-01 +5.6747048123413375e-03
5.2000000000000002e+00 +8.1522318997995207e+00 +0.0000000000000000e+00 +5.2041632550868497e+00 -2.9585191869339344e-02 -5.6498769881922284e-01 +5.6746144584903209e-03
5.2999999999999998e+00 +8.1522020734228100e+00 +0.0000000000000000e+00 +5.3042433146934496e+00 -2.9585282144243202e-02 -5.6498816997837931e-01 +5.6745227548063880e-03
5.4000000000000004e+00 +8.1521716789247893e+00 +0.0000000000000000e+00 +5.4043233741291203e+00 -2.9585375576132431e-02 -5.6498863996911719e-01 +5.6744294559345479e-03
5.5000000000000000e+00 +8.1521407163090807e+00 +0.0000000000000000e+00 +5.5044034333906504e+00 -2.9585471612924748e-02 -5.6498910761129839e-01 +5.6743343165079193e-03
5.5999999999999996e+00 +8.1521091855684098e+00 +0.0000000000000000e+00 +5.6044834924747899e+00 -2.9585569702577065e-02 -5.6498957172489084e-01 +5.6742370911484841e-03
5.7000000000000002e+00 +8.1520770867064094e+00 +0.0000000000000000e+00 +5.7045635513783299e+00 -2.9585669293077821e-02 -5.6499003112980095e-01 +5.6741375344649238e-03
5.7999999999999998e+00 +8.1520444197231008e+00 +0.0000000000000000e+00 +5.8046436100980499e+00 -2.9585769832453993e-02 -5.6499048464598733e-01 +5.6740354010533884e-03
5.9000000000000004e+00 +8.1520111846184609e+00 +0.0000000000000000e+00 +5.9047236686307096e+00 -2.9585870768770815e-02 -5.6499093109343523e-01 +5.6739304454967903e-03
5.9999999999999902e+00 +8.1519773813925003e+00 +0.0000000000000000e+00 +6.0048037269731003e+00 -2.9585971550142275e-02 -5.6499136929218530e-01 +5.6738224223713274e-03
6.0999999999999899e+00 +8.1519430100452208e+00 +0.0000000000000000e+00 +6.1048837851219799e+00 -2.9586071722896946e-02 -5.6499179835912905e-01 +5.6737111582925394e-03
6.1999999999999904e+00 +8.1519080705766100e+00 +0.0000000000000000e+00 +6.2049638430741396e+00 -2.9586171173526524e-02 -5.6499221843961112e-01 +5.6735967295208287e-03
6.2999999999999901e+00 +8.1518725629866804e+00 +0.0000000000000000e+00 +6.3050439008263499e+00 -2.9586269862101774e-02 -5.6499262990157595e-01 +5.6734792663582344e-03
6.3999999999999897e+00 +8.1518364872754301e+00 +0.0000000000000000e+00 +6.4051239583753699e+00 -2.9586367748644316e-02 -5.6499303311298366e-01 +5.6733588991188574e-03
6.4999999999999902e+00 +8.1517998434428591e+00 +0.0000000000000000e+00 +6.5052040157180002e+00 -2.9586464793124160e-02 -5.6499342844181155e-01 +5.6732357581294928e-03
6.5999999999999899e+00 +8.1517626314889604e+00 +0.0000000000000000e+00 +6.6052840728510001e+00 -2.9586560955457211e-02 -5.6499381625605372e-01 +5.6731099737302787e-03
6.6999999999999904e+00 +8.1517248514137499e+00 +0.0000000000000000e+00 +6.7053641297711399e+00 -2.9586656195502881e-02 -5.6499419692372321e-01 +5.6729816762753271e-03
6.7999999999999901e+00 +8.1516865032135701e+00 +0.0000000000000000e+00 +6.8054441864752100e+00 -2.9586750473063157e-02 -5.6499457081287963e-01 +5.6728509961336705e-03
6.8999999999999897e+00 +8.1516475868957095e+00 +0.0000000000000000e+00 +6.9055242429599701e+00 -2.9586843747874143e-02 -5.6499493829151848e-01 +5.6727180636887212e-03
6.9999999999999902e+00 +8.1516081024565192e+00 +0.0000000000000000e+00 +7.0056042992222096e+00 -2.9586935979612601e-02 -5.6499529972773943e-01 +5.6725830093406794e-03
7.0999999999999899e+00 +8.1515680498960101e+00 +0.0000000000000000e+00 +7.1056843552586999e+00 -2.9587027127887494e-02 -5.6499565548963659e-01 +5.6724459635059928e-03
7.1999999999999904e+00 +8.1515274292141804e+00 +0.0000000000000000e+00 +7.2057644110662000e+00 -2.9587117152239096e-02 -5.6499600594532473e-01 +5.6723070566183035e-03
7.2999999999999901e+00 +8.1514862404073902e+00 +0.0000000000000000e+00 +7.3058444666415099e+00 -2.9587206012137972e-02 -5.6499635146297122e-01 +5.6721664191293686e-03
7.3999999999999897e+00 +8.1514444834829192e+00 +0.0000000000000000e+00 +7.4059245219813796e+00 -2.9587293666976700e-02 -5.6499669241068107e-01 +5.6720241815085377e-03
7.4999999999999902e+00 +8.1514021584334806e+00 +0.0000000000000000e+00 +7.5060045770826100e+00 -2.9587380076077679e-02 -5.6499702915669792e-01 +5.6718804742454483e-03
7.5999999999999899e+00 +8.1513592652663593e+00 +0.0000000000000000e+00 +7.6060846319419504e+00 -2.9587465198678942e-02 -5.6499736206917706e-01 +5.6717354278483130e-03
7.6999999999999904e+00 +8.1513158039779192e+00 +0.0000000000000000e+00 +7.7061646865561997e+00 -2.9587548993941979e-02 -5.6499769151638435e-01 +5.6715891728466141e-03
7.7999999999999901e+00 +8.1512717745681602e+00 +0.0000000000000000e+00 +7.8062447409221098e+00 -2.9587631420943498e-02 -5.6499801786658455e-01 +5.6714418397905818e-03
7.8999999999999897e+00 +8.1512271770334301e+00 +0.0000000000000000e+00 +7.9063247950364799e+00 -2.9587712438675768e-02 -5.6499834148809791e-01 +5.6712935592524109e-03
7.9999999999999902e+00 +8.1511820113773901e+00 +0.0000000000000000e+00 +8.0064048488960609e+00 -2.9587792006028776e-02 -5.6499866274923627e-01 +5.6711444618207504e-03
8.0999999999999908e+00 +8.1511362776036496e+00 +0.0000000000000000e+00 +8.1064849024976393e+00 -2.9587870030552143e-02 -5.6499898210747046e-01 +5.6709946538792801e-03
8.1999999999999904e+00 +8.1510899757086008e+00 +0.0000000000000000e+00 +8.2065649558379903e+00 -2.9587946250421066e-02 -5.6499930031483203e-01 +5.6708441617780540e-03
8.2999999999999901e+00 +8.1510431056885899e+00 +0.0000000000000000e+00 +8.3066450089139003e+00 -2.9588020368895910e-02 -5.6499961818410815e-01 +5.6706929953538867e-03
8.3999999999999897e+00 +8.1509956675508892e+00 +0.0000000000000000e+00 +8.4067250617221205e+00 -2.9588092089246239e-02 -5.6499993652802860e-01 +5.6705411644354924e-03
8.4999999999999893e+00 +8.1509476612882299e+00 +0.0000000000000000e+00 +8.5068051142594392e+00 -2.9588161114761858e-02 -5.6500025615946214e-01 +5.6703886788452146e-03
8.5999999999999908e+00 +8.1508990869078808e+00 +0.0000000000000000e+00 +8.6068851665226305e+00 -2.9588227148741982e-02 -5.6500057789119174e-01 +5.6702355483964030e-03
8.6999999999999904e+00 +8.1508499444025801e+00 +0.0000000000000000e+00 +8.7069652185084596e+00 -2.9588289894507770e-02 -5.6500090253614144e-01 +5.6700817828954347e-03
8.7999999999999794e+00 +8.1508002337759500e+00 +0.0000000000000000e+00 +8.8070452702137203e+00 -2.9588349055392909e-02 -5.6500123090717902e-01 +5.6699273921393799e-03
8.8999999999999808e+00 +8.1507499550316407e+00 +0.0000000000000000e+00 +8.9071253216351796e+00 -2.9588404334748877e-02 -5.6500156381720079e-01 +5.6697723859165721e-03
8.9999999999999805e+00 +8.1506991081623692e+00 +0.0000000000000000e+00 +9.0072053727696098e+00 -2.9588455435950185e-02 -5.6500190207921819e-01 +5.6696167740071862e-03
9.0999999999999801e+00 +8.1506476931717806e+00 +0.0000000000000000e+00 +9.1072854236137797e+00 -2.9588502062386425e-02 -5.6500224650618758e-01 +5.6694605661811847e-03
9.1999999999999797e+00 +8.1505957100635005e+00 +0.0000000000000000e+00 +9.2073654741644795e+00 -2.9588543917467496e-02 -5.6500259791109675e-01 +5.6693037721988904e-03
9.2999999999999794e+00 +8.1505431588302599e+00 +0.0000000000000000e+00 +9.3074455244184708e+00 -2.9588580704628858e-02 -5.6500295710704918e-01 +5.6691464018115648e-03
9.3999999999999808e+00 +8.1504900394757005e+00 +0.0000000000000000e+00 +9.4075255743725297e+00 -2.9588612127323593e-02 -5.6500332490709559e-01 +5.6689884647593506e-03
9.4999999999999805e+00 +8.1504363520034495e+00 +0.0000000000000000e+00 +9.5076056240234408e+00 -2.9588637889027665e-02 -5.6500370212432016e-01 +5.6688299707718616e-03
9.5999999999999801e+00 +8.1503820964062506e+00 +0.0000000000000000e+00 +9.6076856733679694e+00 -2.9588657693245115e-02 -5.6500408957192427e-01 +5.6686709295687369e-03
9.6999999999999797e+00 +8.1503272726913600e+00 +0.0000000000000000e+00 +9.7077657224029004e+00 -2.9588671243498704e-02 -5.6500448806303039e-01 +5.6685113508573087e-03
9.7999999999999794e+00 +8.1502718808515109e+00 +0.0000000000000000e+00 +9.8078457711250007e+00 -2.9588678243342451e-02 -5.6500489841090862e-01 +5.6683512443346457e-03
9.8999999999999808e+00 +8.1502159208903304e+00 +0.0000000000000000e+00 +9.9079258195310498e+00 -2.9588678396352246e-02 -5.6500532142877913e-01 +5.6681906196851895e-03
9.9999999999999805e+00 +8.1501593928078400e+00 +0.0000000000000000e+00 +1.0008005867617801e+01 -2.9588671406263645e-02 -5.6500575792981456e-01 +5.6680294865874134e-03
1.0100000000000000e+01 +8.1501022966040200e+00 +0.0000000000000000e+00 +1.0108085915382100e+01 -2.9588657298894181e-02 -5.6500620845396565e-01 +5.6678678689022271e-03
1.0199999999999999e+01 +8.1500446322825209e+00 +0.0000000000000000e+00 +1.0208165962820599e+01 -2.9588637114964483e-02 -5.6500667268004978e-01 +5.6677058352145489e-03
1.0300000000000001e+01 +8.1499863998360507e+00 +0.0000000000000000e+00 +1.0308246009930199e+01 -2.9588612094654340e-02 -5.6500715011772418e-01 +5.6675434629010809e-03
1.0400000000000000e+01 +8.1499275992682705e+00 +0.0000000000000000e+00 +1.0408326056707599e+01 -2.9588583478188758e-02 -5.6500764027650252e-01 +5.6673808293405794e-03
1.0500000000000000e+01 +8.1498682305791608e+00 +0.0000000000000000e+00 +1.0508406103149600e+01 -2.9588552505845252e-02 -5.6500814266586541e-01 +5.6672180119151250e-03
1.0600000000000000e+01 +8.1498082937723701e+00 +0.0000000000000000e+00 +1.0608486149253000e+01 -2.9588520417952090e-02 -5.6500865679520473e-01 +5.6670550880096081e-03
1.0699999999999999e+01 +8.1497477888406102e+00 +0.0000000000000000e+00 +1.0708566195014500e+01 -2.9588488454895444e-02 -5.6500918217393259e-01 +5.6668921350129815e-03
1.0800000000000001e+01 +8.1496867157875403e+00 +0.0000000000000000e+00 +1.0808646240430900e+01 -2.9588457857111949e-02 -5.6500971831131030e-01 +5.6667292303166006e-03
1.0900000000000000e+01 +8.1496250746131391e+00 +0.0000000000000000e+00 +1.0908726285499000e+01 -2.9588429865095786e-02 -5.6501026471656224e-01 +5.6665664513154551e-03
1.1000000000000000e+01 +8.1495628653174208e+00 +0.0000000000000000e+00 +1.1008806330215601e+01 -2.9588405719398480e-02 -5.6501082089884269e-01 +5.6664038754079774e-03
1.1100000000000000e+01 +8.1495000879040198e+00 +0.0000000000000000e+00 +1.1108886374577500e+01 -2.9588386660628782e-02 -5.6501138636720694e-01 +5.6662415799958133e-03
1.1199999999999999e+01 +8.1494367423620098e+00 +0.0000000000000000e+00 +1.1208966418581401e+01 -2.9588373929461204e-02 -5.6501196063075276e-01 +5.6660796424853888e-03
1.1300000000000001e+01 +8.1493728287059604e+00 +0.0000000000000000e+00 +1.1309046462224000e+01 -2.9588368766621225e-02 -5.6501254319830563e-01 +5.6659181402847533e-03
1.1400000000000000e+01 +8.1493083469249505e+00 +0.0000000000000000e+00 +1.1409126505502300e+01 -2.9588372412907051e-02 -5.6501313357881267e-01 +5.6657571508077651e-03
1.1500000000000000e+01 +8.1492432970226201e+00 +0.0000000000000000e+00 +1.1509206548412800e+01 -2.9588386109174771e-02 -5.6501373128103238e-01 +5.6655967514709594e-03
1.1600000000000000e+01 +8.1491776789989707e+00 +0.0000000000000000e+00 +1.1609286590952600e+01 -2.9588411096346977e-02 -5.6501433581367133e-01 +5.6654370196950804e-03
1.1699999999999999e+01 +8.1491114928576298e+00 +0.0000000000000000e+00 +1.1709366633118099e+01 -2.9588448615411090e-02 -5.6501494668532837e-01 +5.6652780329045855e-03
1.1800000000000001e+01 +8.1490447385876905e+00 +0.0000000000000000e+00 +1.1809446674906400e+01 -2.9588499907427953e-02 -5.6501556340463277e-01 +5.6651198685291910e-03
