# multipoles
# s[mm] polynom_b[n=0][T/m^n] polynom_b[n=1][T/m^n] polynom_b[n=2][T/m^n] polynom_b[n=3][T/m^n] polynom_b[n=4][T/m^n] polynom_b[n=5][T/m^n] polynom_b[n=6][T/m^n] 
-0.0000000000000000e+00 -5.6473370215131202e-01 +7.7331865862801861e+00 +1.6006306825967431e-01 +1.5154043205149001e+01 -6.7247808889120706e+03 -1.4398524622758199e+05 +2.0554496929641023e+07 
-1.0000000000000001e-01 -5.6473372211157036e-01 +7.7331758352851985e+00 +1.6430737054983105e-01 +1.5406504990780586e+01 -6.7826753944917436e+03 -1.4578193728842234e+05 +2.0771507888801567e+07 
-2.0000000000000001e-01 -5.6473375588618957e-01 +7.7331637710202781e+00 +1.6860421577361742e-01 +1.5754755988707933e+01 -6.8384991150353244e+03 -1.4825594948759858e+05 +2.0978077585846465e+07 
-2.9999999999999999e-01 -5.6473380231544812e-01 +7.7331504599334950e+00 +1.7291262582647071e-01 +1.6193117840928583e+01 -6.8920167474022519e+03 -1.5136557109801302e+05 +2.1174227554836068e+07 
-4.0000000000000002e-01 -5.6473386023972960e-01 +7.7331359684752821e+00 +1.7719162232491578e-01 +1.6715912074645765e+01 -6.9429929799310848e+03 -1.5506908964235650e+05 +2.1359979294130132e+07 
-5.0000000000000000e-01 -5.6473392849932780e-01 +7.7331203630959076e+00 +1.8140022558312979e-01 +1.7317460206308056e+01 -6.9911924748281426e+03 -1.5932479261035853e+05 +2.1535354186413210e+07 
-5.9999999999999998e-01 -5.6473400593455647e-01 +7.7331037102495701e+00 +1.8549745095526812e-01 +1.7992083609877014e+01 -7.0363798002850890e+03 -1.6409096664179381e+05 +2.1700373177643612e+07 
-6.9999999999999996e-01 -5.6473409138569941e-01 +7.7330860763909568e+00 +1.8944231653982951e-01 +1.8734103647500071e+01 -7.0783195748849221e+03 -1.6932589838736586e+05 +2.1855057457383588e+07 
-8.0000000000000004e-01 -5.6473418369303585e-01 +7.7330675279803760e+00 +1.9319383554663241e-01 +1.9537841496599501e+01 -7.1167763212896134e+03 -1.7498787344920676e+05 +2.1999427757751048e+07 
-9.0000000000000002e-01 -5.6473428169684170e-01 +7.7330481314753579e+00 +1.9671102096106347e-01 +2.0397618437702256e+01 -7.1515145597517803e+03 -1.8103517817227545e+05 +2.2133504807706255e+07 
-1.0000000000000000e+00 -5.6473438423742550e-01 +7.7330279533460660e+00 +1.9995288956289378e-01 +2.1307755377960738e+01 -7.1822988822308535e+03 -1.8742609680599580e+05 +2.2257309679719940e+07 
-1.1000000000000001e+00 -5.6473449015508226e-01 +7.7330070600616976e+00 +2.0287844934504523e-01 +2.2262573276509215e+01 -7.2088937151307937e+03 -1.9411891405988648e+05 +2.2370862663474664e+07 
-1.2000000000000000e+00 -5.6473459829003447e-01 +7.7329855180975970e+00 +2.0544671692480823e-01 +2.3256392946317909e+01 -7.2310636479660889e+03 -2.0107191399843126e+05 +2.2474184820480380e+07 
-1.3000000000000000e+00 -5.6473470748257537e-01 +7.7329633939369131e+00 +2.0761670342998065e-01 +2.4283534991000227e+01 -7.2485731660239007e+03 -2.0824337961517254e+05 +2.2567296715206191e+07 
-1.3999999999999999e+00 -5.6473481657301261e-01 +7.7329407540645452e+00 +2.0934742242732166e-01 +2.5338320010326541e+01 -7.2611868051996526e+03 -2.1559159413299005e+05 +2.2650219158922050e+07 
-1.5000000000000000e+00 -5.6473492440158324e-01 +7.7329176649799365e+00 +2.1059788618007488e-01 +2.6415068226742335e+01 -7.2686690765524436e+03 -2.2307483882846136e+05 +2.2722972836548645e+07 
-1.6000000000000001e+00 -5.6473502980859813e-01 +7.7328941931790141e+00 +2.1132711250085554e-01 +2.7508100012736129e+01 -7.2707845969493501e+03 -2.3065139610757070e+05 +2.2785578930251546e+07 
-1.7000000000000000e+00 -5.6473513163434219e-01 +7.7328704051782990e+00 +2.1149411691268549e-01 +2.8611735210702285e+01 -7.2672979446220943e+03 -2.3827954562145885e+05 +2.2838058440762348e+07 
-1.8000000000000000e+00 -5.6473522871911908e-01 +7.7328463674943562e+00 +2.1105791468500321e-01 +2.9720293726303780e+01 -7.2579736964093581e+03 -2.4591756770771075e+05 +2.2880432358290449e+07 
-1.8999999999999999e+00 -5.6473531990322123e-01 +7.7328221466523246e+00 +2.0997752682513510e-01 +3.0828095290605557e+01 -7.2425765371710258e+03 -2.5352374203620580e+05 +2.2912722170029130e+07 
-2.0000000000000000e+00 -5.6473540402700284e-01 +7.7327978091918910e+00 +2.0821197636107916e-01 +3.1929459288401539e+01 -7.2208711968780663e+03 -2.6105634663923370e+05 +2.2934949580299921e+07 
-2.1000000000000001e+00 -5.6473548029711651e-01 +7.7327734416237339e+00 +2.0573493125732353e-01 +3.3018564152513036e+01 -7.1927158124378329e+03 -2.6847413141063502e+05 +2.2947062681009140e+07 
-2.2000000000000002e+00 -5.6473554938510595e-01 +7.7327492155664626e+00 +2.0257824668057275e-01 +3.4088810086181482e+01 -7.1583375663569313e+03 -2.7573622945095651e+05 +2.2948707554198507e+07 
-2.2999999999999998e+00 -5.6473561232845182e-01 +7.7327253252317698e+00 +1.9878822581577729e-01 +3.5133349156879618e+01 -7.1180546575837971e+03 -2.8280149494738720e+05 +2.2939452013173971e+07 
-2.3999999999999999e+00 -5.6473567016469384e-01 +7.7327019648269344e+00 +1.9441117230160426e-01 +3.6145333568727693e+01 -7.0721852922257740e+03 -2.8962878278880625e+05 +2.2918863887296978e+07 
-2.5000000000000000e+00 -5.6473572393135174e-01 +7.7326793285586506e+00 +1.8949339539915153e-01 +3.7117915520949850e+01 -7.0210477850572661e+03 -2.9617694764104037e+05 +2.2886511513206623e+07 
-2.6000000000000001e+00 -5.6473577466596980e-01 +7.7326576106280918e+00 +1.8408120719984772e-01 +3.8044247376139751e+01 -6.9649604988260589e+03 -3.0240484497022559e+05 +2.2841963422609240e+07 
-2.7000000000000002e+00 -5.6473582340622885e-01 +7.7326370052296109e+00 +1.7822092406185389e-01 +3.8917481667069502e+01 -6.9042418827006059e+03 -3.0827133096865955e+05 +2.2784788557501968e+07 
-2.7999999999999998e+00 -5.6473587118966584e-01 +7.7326177065538442e+00 +1.7195886579444625e-01 +3.9730771033556387e+01 -6.8392104462573870e+03 -3.1373526224790676e+05 +2.2714556113023512e+07 
-2.8999999999999999e+00 -5.6473591905398890e-01 +7.7325999087863817e+00 +1.6534135668999747e-01 +4.0477268220265714e+01 -6.7701847847111212e+03 -3.1875549568244739e+05 +2.2630835674836691e+07 
-3.0000000000000000e+00 -5.6473596803687109e-01 +7.7325838061009939e+00 +1.5841472793530004e-01 +4.1150126301751030e+01 -6.6974836228602517e+03 -3.2329088977973512e+05 +2.2533197421478115e+07 
-3.1000000000000001e+00 -5.6473601917601135e-01 +7.7325695926668807e+00 +1.5122531118450203e-01 +4.1742498448730792e+01 -6.6214256945989055e+03 -3.2730030322830688e+05 +2.2421211554324295e+07 
-3.2000000000000002e+00 -5.6473607350921229e-01 +7.7325574626413669e+00 +1.4381944806171149e-01 +4.2247538141504094e+01 -6.5423299176005303e+03 -3.3074259612313192e+05 +2.2294449110647898e+07 
-3.2999999999999998e+00 -5.6473613207422046e-01 +7.7325476101724311e+00 +1.3624348444252379e-01 +4.2658399091033345e+01 -6.4605152908933669e+03 -3.3357662947022496e+05 +2.2152481495075677e+07 
-3.3999999999999999e+00 -5.6473619590893287e-01 +7.7325402293995777e+00 +1.2854376881145149e-01 +4.2968235214742130e+01 -6.3763008641746856e+03 -3.3576126502121834e+05 +2.1994880331167698e+07 
-3.5000000000000000e+00 -5.6473626605117289e-01 +7.7325355144463881e+00 +1.2076666154464749e-01 +4.3170200842824265e+01 -6.2900059058729430e+03 -3.3725536642485787e+05 +2.1821218239659794e+07 
-3.6000000000000001e+00 -5.6473634353889735e-01 +7.7325336594254974e+00 +1.1295852348311039e-01 +4.3257450573453156e+01 -6.2019496944692082e+03 -3.3801779836412601e+05 +2.1631067866178978e+07 
-3.7000000000000002e+00 -5.6473642941006386e-01 +7.7325348584355957e+00 +1.0516572677388969e-01 +4.3223139351472994e+01 -6.1124517185309951e+03 -3.3800742695703194e+05 +2.1424002815749902e+07 
-3.7999999999999998e+00 -5.6473652470268143e-01 +7.7325393055623657e+00 +9.7434647484875556e-02 +4.3060422445443393e+01 -6.0218315410682171e+03 -3.3718311963159172e+05 +2.1199597020771571e+07 
-3.8999999999999999e+00 -5.6473663045482814e-01 +7.7325471948728755e+00 +8.9811671063118700e-02 +4.2762455589582657e+01 -5.9304088988629501e+03 -3.3550374584800587e+05 +2.0957425199662641e+07 
-4.0000000000000000e+00 -5.6473674770462856e-01 +7.7325587204217063e+00 +8.2343186223477111e-02 +4.2322394825268987e+01 -5.8385035866148073e+03 -3.3292817620555422e+05 +2.0697062305746067e+07 
-4.0999999999999996e+00 -5.6473687724172117e-01 +7.7325739751506690e+00 +7.5075398584628847e-02 +4.1736843533486038e+01 -5.7465280046605967e+03 -3.2943570851157123e+05 +2.0418870433706146e+07 
-4.2000000000000002e+00 -5.6473701883915017e-01 +7.7325926348767249e+00 +6.8053329380587349e-02 +4.1016557785858886e+01 -5.6552943554381072e+03 -3.2509004452423297e+05 +2.0126600711113170e+07 
-4.2999999999999998e+00 -5.6473717201002260e-01 +7.7326142678072971e+00 +6.1321618103069242e-02 +4.0175930362175556e+01 -5.5657228795104911e+03 -3.1997671069353027e+05 +1.9824916833283760e+07 
-4.4000000000000004e+00 -5.6473733626752098e-01 +7.7326384421373744e+00 +5.4924900005531851e-02 +3.9229354434603614e+01 -5.4787337481732366e+03 -3.1418123583924124e+05 +1.9518482220246166e+07 
-4.5000000000000000e+00 -5.6473751112468829e-01 +7.7326647260577301e+00 +4.8907802945193167e-02 +3.8191223324091141e+01 -5.3952469974612550e+03 -3.0778914972862060e+05 +1.9211959685365953e+07 
-4.5999999999999996e+00 -5.6473769609453228e-01 +7.7326926877485178e+00 +4.3314946963204308e-02 +3.7075930709282289e+01 -5.3161825282058753e+03 -3.0088598435600894e+05 +1.8910011462835498e+07 
-4.7000000000000002e+00 -5.6473789069003344e-01 +7.7327218953843593e+00 +3.8190945404903177e-02 +3.5897870447589312e+01 -5.2424601246146376e+03 -2.9355727282509668e+05 +1.8617299287266616e+07 
-4.7999999999999998e+00 -5.6473809442404532e-01 +7.7327519171317931e+00 +3.3580402139602582e-02 +3.4671436677498328e+01 -5.1749993999205235e+03 -2.8588855003340362e+05 +1.8338484136152841e+07 
-4.9000000000000004e+00 -5.6473830680938009e-01 +7.7327823211507063e+00 +2.9527912586991417e-02 +3.3411023771854524e+01 -5.1147198190986428e+03 -2.7796535239670175e+05 +1.8078226345864832e+07 
-5.0000000000000000e+00 -5.6473852735879648e-01 +7.7328126755914450e+00 +2.6078064866368631e-02 +3.2131026419655498e+01 -5.0625407206850432e+03 -2.6987321832107200e+05 +1.7841185721452061e+07 
-5.0999999999999996e+00 -5.6473875558497322e-01 +7.7328425485969836e+00 +2.3275434003688016e-02 +3.0845839572984012e+01 -5.0193812078745477e+03 -2.6169768793432522e+05 +1.7632021018594194e+07 
-5.2000000000000002e+00 -5.6473899100048575e-01 +7.7328715083018871e+00 +2.1164588246451663e-02 +2.9569858467701057e+01 -4.9861602667406496e+03 -2.5352430319199513e+05 +1.7455390508595746e+07 
-5.2999999999999998e+00 -5.6473923311782359e-01 +7.7328991228310251e+00 +1.9790081536909677e-02 +2.8317478679164616e+01 -4.9637966244250110e+03 -2.4543860825152660e+05 +1.7315951305158637e+07 
-5.4000000000000004e+00 -5.6473948144942165e-01 +7.7329249603017978e+00 +1.9196457421640941e-02 +2.7103096044440509e+01 -4.9532088282202121e+03 -2.3752614900280422e+05 +1.7218359757960156e+07 
-5.5000000000000000e+00 -5.6473973550755174e-01 +7.7329485888220937e+00 +1.9428248856681887e-02 +2.5941106730835756e+01 -4.9553152357593335e+03 -2.2987247349204219e+05 +1.7167271391100455e+07 
-5.5999999999999996e+00 -5.6473999480451853e-01 +7.7329695764915050e+00 +2.0529974943824081e-02 +2.4845907200253247e+01 -4.9710339559896129e+03 -2.2256313172875100e+05 +1.7167340632102348e+07 
-5.7000000000000002e+00 -5.6474025885235823e-01 +7.7329874914002863e+00 +2.2546142448375637e-02 +2.3831894256827013e+01 -5.0012828840126213e+03 -2.1568367601775145e+05 +1.7223220996137392e+07 
-5.7999999999999998e+00 -5.6474052716315093e-01 +7.7330019016304545e+00 +2.5521244829236806e-02 +2.2913464983895231e+01 -5.0469796720548929e+03 -2.0931966050884943e+05 +1.7339564921328206e+07 
-5.9000000000000004e+00 -5.6474079924872478e-01 +7.7330123752516071e+00 +2.9499758356935871e-02 +2.2105016899483665e+01 -5.1090416678567390e+03 -2.0355664221359722e+05 +1.7521023510854665e+07 
-5.9999999999999902e+00 -5.6474107462096967e-01 +7.7330184803272957e+00 +3.4526148490139977e-02 +2.1420947748758444e+01 -5.1883860300691822e+03 -1.9848017976418140e+05 +1.7772247068267435e+07 
-6.0999999999999899e+00 -5.6474135286346938e-01 +7.7330198865829765e+00 +4.0622912920032311e-02 +2.0872631223536363e+01 -5.2855445488299038e+03 -1.9415829564914716e+05 +1.8096214401984967e+07 
-6.1999999999999904e+00 -5.6474163387582244e-01 +7.7330166919958305e+00 +4.7724443979446876e-02 +2.0459117037925875e+01 -5.3994643797830850e+03 -1.9058810188642202e+05 +1.8488901219450857e+07 
-6.2999999999999901e+00 -5.6474191764342396e-01 +7.7330091073039764e+00 +5.5742951351388070e-02 +2.0176304530803847e+01 -5.5286842707913702e+03 -1.8774870834672617e+05 +1.8944446879602317e+07 
-6.3999999999999897e+00 -5.6474220415167065e-01 +7.7329973432593206e+00 +6.4590646749520447e-02 +2.0020092596509119e+01 -5.6717430039590263e+03 -1.8561922238446094e+05 +1.9456990896586526e+07 
-6.4999999999999902e+00 -5.6474249338588112e-01 +7.7329816106325060e+00 +7.4179738166117171e-02 +1.9986379537579520e+01 -5.8271792871401512e+03 -1.8417874800273171e+05 +2.0020672427954793e+07 
-6.5999999999999899e+00 -5.6474278533156697e-01 +7.7329621202103702e+00 +8.4422441945547627e-02 +2.0071063134137155e+01 -5.9935319823529717e+03 -1.8340638626386909e+05 +2.0629631359837476e+07 
-6.6999999999999904e+00 -5.6474307997410522e-01 +7.7329390827979312e+00 +9.5230966662357627e-02 +2.0270040586463171e+01 -6.1693397998416149e+03 -1.8328123495838206e+05 +2.1278006851258323e+07 
-6.7999999999999901e+00 -5.6474337729898694e-01 +7.7329127092197965e+00 +1.0651752989080143e-01 +2.0579208468766623e+01 -6.3531416142618182e+03 -1.8378238833814248e+05 +2.1959938832394209e+07 
-6.8999999999999897e+00 -5.6474367729168928e-01 +7.7328832103185965e+00 +1.1819434618673617e-01 +2.0994462774201622e+01 -6.5434762399318379e+03 -1.8488893738589657e+05 +2.2669566944336604e+07 
-6.9999999999999902e+00 -5.6474397993775238e-01 +7.7328507969599887e+00 +1.3017363233845067e-01 +2.1511698765870520e+01 -6.7388825251390117e+03 -1.8657996894751798e+05 +2.3401030973439626e+07 
-7.0999999999999899e+00 -5.6474428522269393e-01 +7.7328156800303782e+00 +1.4236760789869723e-01 +2.2126811045642086e+01 -6.9378993667977029e+03 -1.8883456614597319e+05 +2.4148470932700478e+07 
-7.1999999999999904e+00 -5.6474459313208125e-01 +7.7327780704385383e+00 +1.5468849318684316e-01 +2.2835693493294798e+01 -7.1390656696588121e+03 -1.9163180801143846e+05 +2.4906026861341573e+07 
-7.2999999999999901e+00 -5.6474490365154872e-01 +7.7327381791161693e+00 +1.6704851151215780e-01 +2.3634239270022878e+01 -7.3409203870639567e+03 -1.9495076955713687e+05 +2.5667839011787035e+07 
-7.3999999999999897e+00 -5.6474521676666689e-01 +7.7326962170177787e+00 +1.7935988658028801e-01 +2.4518340782487478e+01 -7.5420024732110560e+03 -1.9877052147110950e+05 +2.6428047630742095e+07 
-7.4999999999999902e+00 -5.6474553246318215e-01 +7.7326523951259967e+00 +1.9153484490733327e-01 +2.5483889568308427e+01 -7.7408509294201403e+03 -2.0307012957961610e+05 +2.7180793175697297e+07 
-7.5999999999999899e+00 -5.6474585072670547e-01 +7.7326069244479596e+00 +2.0348561491393974e-01 +2.6526776369304905e+01 -7.9360047842598287e+03 -2.0782865518624097e+05 +2.7920216216652442e+07 
-7.6999999999999904e+00 -5.6474617154302498e-01 +7.7325600160160413e+00 +2.1512443109198426e-01 +2.7642891115002808e+01 -8.1260031743834588e+03 -2.1302515500357703e+05 +2.8640457823084317e+07 
-7.7999999999999901e+00 -5.6474649489791962e-01 +7.7325118808888140e+00 +2.2636352411447716e-01 +2.8828122905613792e+01 -8.3093851518843439e+03 -2.1863868109865295e+05 +2.9335658635977693e+07 
-7.8999999999999897e+00 -5.6474682077719240e-01 +7.7324627301599973e+00 +2.3711513316734709e-01 +3.0078359728156361e+01 -8.4846899261030467e+03 -2.2464827917583424e+05 +2.9999960037225675e+07 
-7.9999999999999902e+00 -5.6474714916672608e-01 +7.7324127749398022e+00 +2.4729149761534666e-01 +3.1389489009299904e+01 -8.6504566985079327e+03 -2.3103299193427790e+05 +3.0627503338862672e+07 
-8.0999999999999908e+00 -5.6474748009311848e-01 +7.7323622600483244e+00 +2.5681764738047647e-01 +3.2755880300035606e+01 -8.8054198449056294e+03 -2.3776345534692999e+05 +3.1213163208050247e+07 
-8.1999999999999904e+00 -5.6474781375946737e-01 +7.7323115572344143e+00 +2.6566987420141658e-01 +3.4165751388371113e+01 -8.9490493807587845e+03 -2.4477548572572082e+05 +3.1754470467792686e+07 
-8.2999999999999901e+00 -5.6474815041656234e-01 +7.7322610683484445e+00 +2.7383738554471787e-01 +3.5605744594838583e+01 -9.0809885753991330e+03 -2.5199581104449427e+05 +3.2249550877335135e+07 
-8.3999999999999897e+00 -5.6474849031528329e-01 +7.7322111952491799e+00 +2.8130939625179474e-01 +3.7062501844671637e+01 -9.2008808002885489e+03 -2.5935115671320423e+05 +3.2696530542644579e+07 
-8.4999999999999893e+00 -5.6474883370673090e-01 +7.7321623397928434e+00 +2.8807514445064780e-01 +3.8522665011308469e+01 -9.3083698276118430e+03 -2.6676824754247384e+05 +3.3093537315643441e+07 
-8.5999999999999908e+00 -5.6474918084198877e-01 +7.7321149038466110e+00 +2.9412387333386397e-01 +3.9972875512364176e+01 -9.4030994925141367e+03 -2.7417380536031927e+05 +3.3438699211942114e+07 
-8.6999999999999904e+00 -5.6474953197233102e-01 +7.7320692892801448e+00 +2.9944484587208514e-01 +4.1399774559493451e+01 -9.4847139646376181e+03 -2.8149455047247605e+05 +3.3730145676511690e+07 
-8.7999999999999794e+00 -5.6474988734913112e-01 +7.7320258979645420e+00 +3.0402733694732437e-01 +4.2790003184821757e+01 -9.5528575991437647e+03 -2.8865720180374716e+05 +3.3966006876476921e+07 
-8.8999999999999808e+00 -5.6475024722394007e-01 +7.7319851317808510e+00 +3.0786064011912856e-01 +4.4130201990515829e+01 -9.6071750663255025e+03 -2.9558847544112243e+05 +3.4144414318410330e+07 
-8.9999999999999805e+00 -5.6475061184836717e-01 +7.7319473926129758e+00 +3.1093406253187622e-01 +4.5407011346038679e+01 -9.6473112510237352e+03 -3.0221508574197633e+05 +3.4263500358455703e+07 
-9.0999999999999801e+00 -5.6475098147417824e-01 +7.7319130823450308e+00 +3.1323692749128246e-01 +4.6607071473048222e+01 -9.6729113013370916e+03 -3.0846374586099002e+05 +3.4321398429788142e+07 
-9.1999999999999797e+00 -5.6475135635328844e-01 +7.7318826028737595e+00 +3.1475857600855739e-01 +4.7717022065782274e+01 -9.6836206568486850e+03 -3.1426116548537888e+05 +3.4316243176860102e+07 
-9.2999999999999794e+00 -5.6475173673775736e-01 +7.7318563560934193e+00 +3.1548836409497749e-01 +4.8723502748224938e+01 -9.6790849981330921e+03 -3.1953405354014970e+05 +3.4246170210124351e+07 
-9.3999999999999808e+00 -5.6475212287976218e-01 +7.7318347439106265e+00 +3.1541566851291630e-01 +4.9613152610480633e+01 -9.6589503506540077e+03 -3.2420911540973850e+05 +3.4109316589730553e+07 
-9.4999999999999805e+00 -5.6475251503163082e-01 +7.7318181682294105e+00 +3.1452988154416023e-01 +5.0372610666424386e+01 -9.6228629895026625e+03 -3.2821305565203167e+05 +3.3903820378225520e+07 
-9.5999999999999801e+00 -5.6475291344586265e-01 +7.7318070309614733e+00 +3.1282041622800100e-01 +5.0988515537974479e+01 -9.5704695330855011e+03 -3.3147257612134167e+05 +3.3627821071029767e+07 
-9.6999999999999797e+00 -5.6475331837510789e-01 +7.7318017340224863e+00 +3.1027670073052632e-01 +5.1447505568645603e+01 -9.5014168371554388e+03 -3.3391437664540421e+05 +3.3279459092666306e+07 
-9.7999999999999794e+00 -5.6475373007214236e-01 +7.7318026793361181e+00 +3.0688818592923933e-01 +5.1736218691573249e+01 -9.4153521398209396e+03 -3.3546515421220526e+05 +3.2856876487203110e+07 
-9.8999999999999808e+00 -5.6475414878992214e-01 +7.7318102688272976e+00 +3.0264434096395476e-01 +5.1841292627852361e+01 -9.3119229701865024e+03 -3.3605160412660160e+05 +3.2358216464117493e+07 
-9.9999999999999805e+00 -5.6475457478157987e-01 +7.7318249044262695e+00 +2.9753465346218838e-01 +5.1749364813257941e+01 -9.1907771520822753e+03 -3.3560041966091481e+05 +3.1781623413373493e+07 
-1.0100000000000000e+01 -5.6475500810225387e-01 +7.7318468305131711e+00 +2.9155579144487154e-01 +5.1451765996195569e+01 -9.0518011254652174e+03 -3.3406396761207352e+05 +3.1126467151260450e+07 
