# multipoles
# s[mm] polynom_b[n=0][T/m^n] polynom_b[n=1][T/m^n] polynom_b[n=2][T/m^n] polynom_b[n=3][T/m^n] polynom_b[n=4][T/m^n] polynom_b[n=5][T/m^n] polynom_b[n=6][T/m^n] 
+0.0000000000000000e+00 -5.9234867156641025e-01 +8.1180069820999528e+00 +1.1539541815956514e-01 -6.6587667889171342e+01 +2.3392403802149302e+03 +2.0307634978610525e+05 -3.1443781799451601e+07 
+1.0000000000000001e-01 -5.9234848565368747e-01 +8.1180415943310074e+00 +1.1847488271594751e-01 -6.7441534959336707e+01 +2.2813782629796056e+03 +2.0671154355671041e+05 -3.1174507672017597e+07 
+2.0000000000000001e-01 -5.9234829559066438e-01 +8.1180717753966771e+00 +1.2105866148490921e-01 -6.8182759598982074e+01 +2.2300695263655798e+03 +2.0973894216133462e+05 -3.0927664547981564e+07 
+2.9999999999999999e-01 -5.9234810216603162e-01 +8.1180978321515731e+00 +1.2319892004016804e-01 -6.8819114442710784e+01 +2.1844591750972986e+03 +2.1220339797464246e+05 -3.0699697631783571e+07 
+4.0000000000000002e-01 -5.9234790616857325e-01 +8.1181200714573620e+00 +1.2494782227057617e-01 -6.9358372305341476e+01 +2.1436922432052943e+03 +2.1414976429980321e+05 -3.0487052253875144e+07 
+5.0000000000000000e-01 -5.9234770838696504e-01 +8.1181388001730390e+00 +1.2635753032300742e-01 -6.9808305929600564e+01 +2.1069137916506711e+03 +2.1562289401197666e+05 -3.0286173853177216e+07 
+5.9999999999999998e-01 -5.9234750960992844e-01 +8.1181543251597414e+00 +1.2748020477749486e-01 -7.0176688096058754e+01 +2.0732689068997606e+03 +2.1666764009576853e+05 -3.0093507974847697e+07 
+6.9999999999999996e-01 -5.9234731062611945e-01 +8.1181669532814311e+00 +1.2836800552044242e-01 -7.0471291658076893e+01 +2.0419026857989609e+03 +2.1732885590923487e+05 -2.9905500203355987e+07 
+8.0000000000000004e-01 -5.9234711222422187e-01 +8.1181769914024891e+00 +1.2907309276558446e-01 -7.0699889460908068e+01 +2.0119602153688645e+03 +2.1765139467594377e+05 -2.9718596067861531e+07 
+9.0000000000000002e-01 -5.9234691519290628e-01 +8.1181847463875005e+00 +1.2964762513817515e-01 -7.0870254349327666e+01 +1.9825866062230787e+03 +2.1768010957789674e+05 -2.9529241188756589e+07 
+1.0000000000000000e+00 -5.9234672032085411e-01 +8.1181905251029001e+00 +1.3014376242592163e-01 -7.0990159210874481e+01 +1.9529269496455759e+03 +2.1745985399837035e+05 -2.9333881104325585e+07 
+1.1000000000000001e+00 -5.9234652839678359e-01 +8.1181946344106262e+00 +1.3061366236942126e-01 -7.1067376772349647e+01 +1.9221263678877133e+03 +2.1703548027728792e+05 -2.9128961480962191e+07 
+1.2000000000000000e+00 -5.9234634020928567e-01 +8.1181973811746495e+00 +1.3110948467790370e-01 -7.1109679820606729e+01 +1.8893299467964925e+03 +2.1645184109891590e+05 -2.8910927815125018e+07 
+1.3000000000000000e+00 -5.9234615654709810e-01 +8.1181990722568198e+00 +1.3168339317914574e-01 -7.1124841052761596e+01 +1.8536826899000155e+03 +2.1575378853296384e+05 -2.8676225205039453e+07 
+1.3999999999999999e+00 -5.9234597819890866e-01 +8.1182000145160735e+00 +1.3238754491016347e-01 -7.1120633074685401e+01 +1.8143297318959640e+03 +2.1498617409641531e+05 -2.8421299383650713e+07 
+1.5000000000000000e+00 -5.9234580595342035e-01 +8.1182005148092209e+00 +1.3327410675395787e-01 -7.1104828407801079e+01 +1.7704160144607347e+03 +2.1419384874498748e+05 -2.8142595153766271e+07 
+1.6000000000000001e+00 -5.9234564059933648e-01 +8.1182008799945784e+00 +1.3439524126948468e-01 -7.1085199602878305e+01 +1.7210865644664104e+03 +2.1342166356271872e+05 -2.7836557738219269e+07 
+1.7000000000000000e+00 -5.9234548292538458e-01 +8.1182014169209555e+00 +1.3580311450635227e-01 -7.1069518915165290e+01 +1.6654863391366678e+03 +2.1271446787025253e+05 -2.7499632027097620e+07 
+1.8000000000000000e+00 -5.9234533372036380e-01 +8.1182024324371618e+00 +1.3754989713509416e-01 -7.1065558582461691e+01 +1.6027602091677193e+03 +2.1211711083678016e+05 -2.7128262508430839e+07 
+1.8999999999999999e+00 -5.9234519377300576e-01 +8.1182042333875248e+00 +1.3968775898554961e-01 -7.1081090700080111e+01 +1.5320530605482249e+03 +2.1167444078153785e+05 -2.6718893752619728e+07 
+2.0000000000000000e+00 -5.9234506387215746e-01 +8.1182071266143918e+00 +1.4226887607649730e-01 -7.1123887274765124e+01 +1.4525096647657140e+03 +2.1143130542901577e+05 -2.6267969800575402e+07 
+2.1000000000000001e+00 -5.9234494462000575e-01 +8.1182113311572053e+00 +1.4533133460614589e-01 -7.1199504698013470e+01 +1.3635425391142915e+03 +2.1141948215850510e+05 -2.5773182830670487e+07 
+2.2000000000000002e+00 -5.9234483586483866e-01 +8.1182167168075683e+00 +1.4885695304483970e-01 -7.1304718281034326e+01 +1.2656274691201252e+03 +2.1161887989756651e+05 -2.5237150758291926e+07 
+2.2999999999999998e+00 -5.9234473726443237e-01 +8.1182230664903940e+00 +1.5281350717076961e-01 -7.1434126896466424e+01 +1.1595041336735326e+03 +2.1199653283588603e+05 -2.4663706263818800e+07 
+2.3999999999999999e+00 -5.9234464847655421e-01 +8.1182301631289580e+00 +1.5716876454706388e-01 -7.1582329375194490e+01 +1.0459123646199475e+03 +2.1251947497329774e+05 -2.4056682743987229e+07 
+2.5000000000000000e+00 -5.9234456915894929e-01 +8.1182377896458036e+00 +1.6189049765671687e-01 -7.1743924537583439e+01 +9.2559189675152641e+02 +2.1315474032206379e+05 -2.3419913119213771e+07 
+2.6000000000000001e+00 -5.9234449896931141e-01 +8.1182457289666026e+00 +1.6694647251548805e-01 -7.1913511311029765e+01 +7.9928258935230451e+02 +2.1386936361926139e+05 -2.2757230903067656e+07 
+2.7000000000000002e+00 -5.9234443756545041e-01 +8.1182537640126000e+00 +1.7230445544030801e-01 -7.2085688510689593e+01 +6.6772428952117377e+02 +2.1463037905158816e+05 -2.2072469526666585e+07 
+2.7999999999999998e+00 -5.9234438460499517e-01 +8.1182616777037957e+00 +1.7793221224804329e-01 -7.2255054927173092e+01 +5.3165685443714824e+02 +2.1540482075475977e+05 -2.1369462464800537e+07 
+2.8999999999999999e+00 -5.9234433974567713e-01 +8.1182692529558889e+00 +1.8379750385752247e-01 -7.2416209259166635e+01 +3.9182022992495985e+02 +2.1615972249144630e+05 -2.0652043595669542e+07 
+3.0000000000000000e+00 -5.9234430264513427e-01 +8.1182762726909452e+00 +1.8986809031818974e-01 -7.2563750401777838e+01 +2.4895437755016295e+02 +2.1686211927100143e+05 -1.9924046861173674e+07 
+3.1000000000000001e+00 -5.9234427296099734e-01 +8.1182825198229658e+00 +1.9611172808180338e-01 -7.2692277051260078e+01 +1.0379932190128686e+02 +2.1747904511782672e+05 -1.9189306480860244e+07 
+3.2000000000000002e+00 -5.9234425035090765e-01 +8.1182877772688400e+00 +2.0249617115828594e-01 -7.2796388004427513e+01 -4.2904865399083434e+01 +2.1797753477364729e+05 -1.8451656890788533e+07 
+3.2999999999999998e+00 -5.9234423447238649e-01 +8.1182918279435849e+00 +2.0898917016173030e-01 -7.2870682054619479e+01 -1.9041805270839836e+02 +2.1832462318739446e+05 -1.7714932789419327e+07 
+3.3999999999999999e+00 -5.9234422498306638e-01 +8.1182944547600489e+00 +2.1555847156473865e-01 -7.2909757943871185e+01 -3.3800003304169906e+02 +2.1848734513169405e+05 -1.6982969213599399e+07 
+3.5000000000000000e+00 -5.9234422154040178e-01 +8.1182954406320533e+00 +2.2217182202394992e-01 -7.2908214492937944e+01 -4.8491060371344258e+02 +2.1843273607941120e+05 -1.6259601166700901e+07 
+3.6000000000000001e+00 -5.9234422380191010e-01 +8.1182945684715389e+00 +2.2879695844692846e-01 -7.2860650501365370e+01 -6.3040938243314724e+02 +2.1812783156908074e+05 -1.5548664478779737e+07 
+3.7000000000000002e+00 -5.9234423142503700e-01 +8.1182916211915188e+00 +2.3540161997638631e-01 -7.2761664842167605e+01 -7.7375603024127111e+02 +2.1753966779648018e+05 -1.4853994757767009e+07 
+3.7999999999999998e+00 -5.9234424406716746e-01 +8.1182863816984376e+00 +2.4195353489428664e-01 -7.2605856234233272e+01 -9.1421000467524004e+02 +2.1663528026827006e+05 -1.4179428558623020e+07 
+3.8999999999999999e+00 -5.9234426138569696e-01 +8.1182786329059464e+00 +2.4842043370953784e-01 -7.2387823668044419e+01 -1.0510308109429202e+03 +2.1538170636829812e+05 -1.3528802180072656e+07 
+4.0000000000000000e+00 -5.9234428303797038e-01 +8.1182681577237279e+00 +2.5477003710748086e-01 -7.2102166048413721e+01 -1.1834777681707742e+03 +2.1374598319458833e+05 -1.2905952788029801e+07 
+4.0999999999999996e+00 -5.9234430872505228e-01 +8.1182548142877149e+00 +2.6097354387085886e-01 -7.1745500929342256e+01 -1.3109262916460627e+03 +2.1170741011483592e+05 -1.2313941577891707e+07 
+4.2000000000000002e+00 -5.9234433833781686e-01 +8.1182387574271875e+00 +2.6701610410942989e-01 -7.1322282632094854e+01 -1.4332039976995534e+03 +2.0929250382086230e+05 -1.1752845826172173e+07 
+4.2999999999999998e+00 -5.9234437181803146e-01 +8.1182202151694902e+00 +2.7288635631629593e-01 -7.0838868532749473e+01 -1.5502485759878587e+03 +2.0653915506868673e+05 -1.1222025399966892e+07 
+4.4000000000000004e+00 -5.9234440910764863e-01 +8.1181994155441579e+00 +2.7857294755307621e-01 -7.0301616095301043e+01 -1.6619978803554438e+03 +2.0348525500119259e+05 -1.0720839393325625e+07 
+4.5000000000000000e+00 -5.9234445014851200e-01 +8.1181765865910833e+00 +2.8406452285326750e-01 -6.9716883130165002e+01 -1.7683897240421554e+03 +2.0016869669638647e+05 -1.0248647116677212e+07 
+4.5999999999999996e+00 -5.9234449488253194e-01 +8.1181519563554918e+00 +2.8934973148941673e-01 -6.9091027636985004e+01 -1.8693619984078782e+03 +1.9662737421018395e+05 -9.8048075272077918e+06 
+4.7000000000000002e+00 -5.9234454325169450e-01 +8.1181257528908404e+00 +2.9441722819797561e-01 -6.8430407880895459e+01 -1.9648526928861829e+03 +1.9289918298258798e+05 -9.3886791485987753e+06 
+4.7999999999999998e+00 -5.9234459519794080e-01 +8.1180982042570076e+00 +2.9925567011031479e-01 -6.7741382362204831e+01 -2.0547998424915359e+03 +1.8902201970824739e+05 -8.9996203056738432e+06 
+4.9000000000000004e+00 -5.9234465066328179e-01 +8.1180695385273438e+00 +3.0385371858230875e-01 -6.7030310001491600e+01 -2.1391415571009074e+03 +1.8503378334649338e+05 -8.6369889977161884e+06 
+5.0000000000000000e+00 -5.9234470958974039e-01 +8.1180399837760362e+00 +3.0820003686907116e-01 -6.6303549792462334e+01 -2.2178159783683809e+03 +1.8097237314846730e+05 -8.3001431061587296e+06 
+5.0999999999999996e+00 -5.9234477191941171e-01 +8.1180097680935841e+00 +3.1228329351012768e-01 -6.5567461241353442e+01 -2.2907613483192367e+03 +1.7687569116133550e+05 -7.9884400528263319e+06 
+5.2000000000000002e+00 -5.9234483759439394e-01 +8.1179791195809692e+00 +3.1609216424568254e-01 -6.4828404196681007e+01 -2.3579160380245858e+03 +1.7278164122519395e+05 -7.7012366885514436e+06 
+5.2999999999999998e+00 -5.9234490655683336e-01 +8.1179482663435785e+00 +3.1961532765176892e-01 -6.4092738671834937e+01 -2.4192184690394843e+03 +1.6872812793502014e+05 -7.4378896567220259e+06 
+5.4000000000000004e+00 -5.9234497874893621e-01 +8.1179174365005480e+00 +3.2284146543939468e-01 -6.3366825143227629e+01 -2.4746071180344034e+03 +1.6475305841736376e+05 -7.1977553724584030e+06 
+5.5000000000000000e+00 -5.9234505411288230e-01 +8.1178868581836969e+00 +3.2575926699643193e-01 -6.2657024482540308e+01 -2.5240206010584961e+03 +1.6089434183968071e+05 -6.9801896294031413e+06 
+5.5999999999999996e+00 -5.9234513259104726e-01 +8.1178567595330335e+00 +3.2835742806968199e-01 -6.1969697854433342e+01 -2.5673976541273296e+03 +1.5718988886737882e+05 -6.7845476784573663e+06 
+5.7000000000000002e+00 -5.9234521412566021e-01 +8.1178273687009526e+00 +3.3062464733487590e-01 -6.1311206828168999e+01 -2.6046770577941525e+03 +1.5367761227295117e+05 -6.6101846147200391e+06 
+5.7999999999999998e+00 -5.9234529865916130e-01 +8.1177989138580564e+00 +3.3254963204593901e-01 -6.0687913551582334e+01 -2.6357977560760141e+03 +1.5039542795158891e+05 -6.4564547818827555e+06 
+5.9000000000000004e+00 -5.9234538613390619e-01 +8.1177716231766546e+00 +3.3412109256413169e-01 -6.0106180266311036e+01 -2.6606987398042111e+03 +1.4738125207116693e+05 -6.3227123614156824e+06 
+5.9999999999999902e+00 -5.9234547649246494e-01 +8.1177457248554106e+00 +3.3532774811811106e-01 -5.9572370021357159e+01 -2.6793191658392466e+03 +1.4467300512439545e+05 -6.2083107897975678e+06 
+6.0999999999999899e+00 -5.9234556974596730e-01 +8.1177214085888512e+00 +3.3616600876507202e-01 -5.9091581530497827e+01 -2.6917009495253824e+03 +1.4230031169508822e+05 -6.1124704108403483e+06 
+6.1999999999999904e+00 -5.9234566616572981e-01 +8.1176987112056995e+00 +3.3666251239287426e-01 -5.8664070413652787e+01 -2.6983050376911456e+03 +1.4026240708551736e+05 -6.0337652953184256e+06 
+6.2999999999999901e+00 -5.9234576608482548e-01 +8.1176776314725014e+00 +3.3685137810158861e-01 -5.8288928810033852e+01 -2.6996998152142583e+03 +1.3855158013985961e+05 -5.9705804566719141e+06 
+6.3999999999999897e+00 -5.9234586983626081e-01 +8.1176581681474040e+00 +3.3676672065648461e-01 -5.7965248528016446e+01 -2.6964535870736768e+03 +1.3716011793696781e+05 -5.9213012832068410e+06 
+6.4999999999999902e+00 -5.9234597775302145e-01 +8.1176403199736864e+00 +3.3644265845288196e-01 -5.7692120868180638e+01 -2.6891347194682230e+03 +1.3608030475079702e+05 -5.8843128866283009e+06 
+6.5999999999999899e+00 -5.9234609016820106e-01 +8.1176240856801734e+00 +3.3591330829034755e-01 -5.7468636628401313e+01 -2.6783115460882673e+03 +1.3530442208500541e+05 -5.8580005346023533e+06 
+6.6999999999999904e+00 -5.9234620741480803e-01 +8.1176094639851737e+00 +3.3521278661866138e-01 -5.7293886195390407e+01 -2.6645523892643650e+03 +1.3482474915015095e+05 -5.8407495539368819e+06 
+6.7999999999999901e+00 -5.9234632982588342e-01 +8.1175964535921974e+00 +3.3437520954969352e-01 -5.7166959436946968e+01 -2.6484255609046800e+03 +1.3463356230825491e+05 -5.8309453260283507e+06 
+6.8999999999999897e+00 -5.9234645773448202e-01 +8.1175850531858345e+00 +3.3343469463882286e-01 -5.7086945574016212e+01 -2.6304993970257342e+03 +1.3472313432172389e+05 -5.8269731203925135e+06 
+6.9999999999999902e+00 -5.9234659147365820e-01 +8.1175752614462873e+00 +3.3242535449002364e-01 -5.7052933581578799e+01 -2.6113421343118716e+03 +1.3508573663865507e+05 -5.8272186840203926e+06 
+7.0999999999999899e+00 -5.9234673137647276e-01 +8.1175670770238710e+00 +3.3138130929217890e-01 -5.7064011483691978e+01 -2.5915221480735149e+03 +1.3571363541832202e+05 -5.8300671122250482e+06 
+7.1999999999999904e+00 -5.9234687777597039e-01 +8.1175604985612413e+00 +3.3033667274017714e-01 -5.7119266937099795e+01 -2.5716076875521248e+03 +1.3659909476019163e+05 -5.8339040974871526e+06 
+7.2999999999999901e+00 -5.9234703100521979e-01 +8.1175555246814834e+00 +3.2932555720288437e-01 -5.7217786938462268e+01 -2.5521669702152822e+03 +1.3773437517545535e+05 -5.8371154945876161e+06 
+7.3999999999999897e+00 -5.9234719139723457e-01 +8.1175521539897986e+00 +3.2838207833585176e-01 -5.7358657830475828e+01 -2.5337682726247335e+03 +1.3911173351823792e+05 -5.8380868754378390e+06 
+7.4999999999999902e+00 -5.9234735928517346e-01 +8.1175503850739901e+00 +3.2754035045764573e-01 -5.7540965334999015e+01 -2.5169798399504198e+03 +1.4072342324544012e+05 -5.8352039668865725e+06 
+7.5999999999999899e+00 -5.9234753500201442e-01 +8.1175502164999358e+00 +3.2683448701339352e-01 -5.7763794392629407e+01 -2.5023698973232199e+03 +1.4256169342296672e+05 -5.8268525915048532e+06 
+7.6999999999999904e+00 -5.9234771888084292e-01 +8.1175516468182174e+00 +3.2629859864616917e-01 -5.8026229381071481e+01 -2.4905066087550940e+03 +1.4461879008600998e+05 -5.8114188717154954e+06 
+7.7999999999999901e+00 -5.9234791125476416e-01 +8.1175546745549454e+00 +3.2596679791305977e-01 -5.8327353823334903e+01 -2.4819581706781178e+03 +1.4688695448816658e+05 -5.7872887766311001e+06 
+7.8999999999999897e+00 -5.9234811245682462e-01 +8.1175592982202947e+00 +3.2587319654653946e-01 -5.8666250637472714e+01 -2.4772927598107158e+03 +1.4935842458007796e+05 -5.7528483671183502e+06 
+7.9999999999999902e+00 -5.9234832282010841e-01 +8.1175655162979670e+00 +3.2605190217649999e-01 -5.9042001850468630e+01 -2.4770784682589378e+03 +1.5202543357275083e+05 -5.7064840957396617e+06 
+8.0999999999999908e+00 -5.9234854241219415e-01 +8.1175733139380082e+00 +3.2652110302801712e-01 -5.9453554021955632e+01 -2.4816527800371664e+03 +1.5488044835581142e+05 -5.6472961283998275e+06 
+8.1999999999999904e+00 -5.9234877024247579e-01 +8.1175826187727065e+00 +3.2723654565519039e-01 -5.9899075390514028e+01 -2.4904495643512178e+03 +1.5791366363186386e+05 -5.5771810705869319e+06 
+8.2999999999999901e+00 -5.9234900505593613e-01 +8.1175933429593226e+00 +3.2813860591488564e-01 -6.0376480591431999e+01 -2.5026805735832868e+03 +1.6111390963006843e+05 -5.4987179060067758e+06 
+8.3999999999999897e+00 -5.9234924559756053e-01 +8.1176053986781387e+00 +3.2916765650388446e-01 -6.0883684875915897e+01 -2.5175575065502385e+03 +1.6447001966144791e+05 -5.4144858324958719e+06 
+8.4999999999999893e+00 -5.9234949061233277e-01 +8.1176186981335352e+00 +3.3026406664478297e-01 -6.1418604128933765e+01 -2.5342919999544247e+03 +1.6797083032411727e+05 -5.3270643255024636e+06 
+8.5999999999999908e+00 -5.9234973884519582e-01 +8.1176331535525392e+00 +3.3136820871271377e-01 -6.1979154844717179e+01 -2.5520957610224000e+03 +1.7160518141339411e+05 -5.2390324877641555e+06 
+8.6999999999999904e+00 -5.9234998904106939e-01 +8.1176486771861676e+00 +3.3242044860448605e-01 -6.2563254159298062e+01 -2.5701803749984488e+03 +1.7536191607636743e+05 -5.1529699918889832e+06 
+8.7999999999999794e+00 -5.9235023994488756e-01 +8.1176651813101941e+00 +3.3336115474707217e-01 -6.3168819870231466e+01 -2.5877574837259908e+03 +1.7922988091676804e+05 -5.0714562104045860e+06 
+8.8999999999999808e+00 -5.9235049030158693e-01 +8.1176825782308679e+00 +3.3413069250384070e-01 -6.3793770606446003e+01 -2.6040386774297322e+03 +1.8319792697709834e+05 -4.9970707327075778e+06 
+8.9999999999999805e+00 -5.9235073885599765e-01 +8.1177007802759142e+00 +3.3466942222484797e-01 -6.4436025562015601e+01 -2.6182354578450613e+03 +1.8725490817527150e+05 -4.9323935446321703e+06 
+9.0999999999999801e+00 -5.9235098435299971e-01 +8.1177196998036880e+00 +3.3491770700071649e-01 -6.5093504755364052e+01 -2.6295593847575587e+03 +1.9138968278190948e+05 -4.8800043289183592e+06 
+9.1999999999999797e+00 -5.9235122553744946e-01 +8.1177392491990901e+00 +3.3481590782048615e-01 -6.5764128931904864e+01 -2.6372219862779225e+03 +1.9559111290359814e+05 -4.8424828878414342e+06 
+9.2999999999999794e+00 -5.9235146115419890e-01 +8.1177593408787541e+00 +3.3430438191432604e-01 -6.6445819686544226e+01 -2.6404347253897608e+03 +1.9984806510667625e+05 -4.8224093070100918e+06 
+9.3999999999999808e+00 -5.9235168994801068e-01 +8.1177798872839659e+00 +3.3332348348272134e-01 -6.7136499270750861e+01 -2.6384090169088358e+03 +2.0414940932840007e+05 -4.8223638648761157e+06 
+9.4999999999999805e+00 -5.9235191066368131e-01 +8.1178008008907376e+00 +3.3181356778668236e-01 -6.7834090887883690e+01 -2.6303563013307707e+03 +2.0848402058884170e+05 -4.8449266941872537e+06 
+9.5999999999999801e+00 -5.9235212204597676e-01 +8.1178219942083594e+00 +3.2971498707474112e-01 -6.8536518641391808e+01 -2.6154879711555104e+03 +2.1284077864789931e+05 -4.8926781198026212e+06 
+9.6999999999999797e+00 -5.9235232283965578e-01 +8.1178433797716281e+00 +3.2696808965392871e-01 -6.9241707310771758e+01 -2.5930153530747261e+03 +2.1720856671227230e+05 -4.9681987439173087e+06 
+9.7999999999999794e+00 -5.9235251178941817e-01 +8.1178648701563745e+00 +3.2351322438126345e-01 -6.9947582809267900e+01 -2.5621497904208732e+03 +2.2157627409416810e+05 -5.0740690623729769e+06 
+9.8999999999999808e+00 -5.9235268763995630e-01 +8.1178863779602590e+00 +3.1929073650447454e-01 -7.0652071610846519e+01 -2.5221025691191217e+03 +2.2593279283253019e+05 -5.2128698028159849e+06 
+9.9999999999999805e+00 -5.9235284913596575e-01 +8.1179078158301952e+00 +3.1424096851520938e-01 -7.1353101532056272e+01 -2.4720849270438325e+03 +2.3026702212369160e+05 -5.3871819068497410e+06 
+1.0100000000000000e+01 -5.9235299549137099e-01 +8.1179291064853505e+00 +3.0832775403242557e-01 -7.2048569293242551e+01 -2.4116121974312127e+03 +2.3456672873072073e+05 -5.5984812915500179e+06 
