# multipoles
# s[mm] polynom_b[n=0][T/m^n] polynom_b[n=1][T/m^n] polynom_b[n=2][T/m^n] polynom_b[n=3][T/m^n] polynom_b[n=4][T/m^n] polynom_b[n=5][T/m^n] polynom_b[n=6][T/m^n] 
+0.0000000000000000e+00 -5.3689375771533554e-01 +7.3497358299812490e+00 -9.1200073779637192e-01 -7.2763267243349773e+01 +5.5367042897381853e+03 +1.8330830268748532e+05 -3.0120713459210709e+07 
+1.0000000000000001e-01 -5.3689373573339272e-01 +7.3497069754256881e+00 -9.0514983444629493e-01 -7.2436428850335673e+01 +5.4556589021363734e+03 +1.8173070197593563e+05 -2.9849987592686042e+07 
+2.0000000000000001e-01 -5.3689373005268670e-01 +7.3496742161563731e+00 -8.9839779848956403e-01 -7.2019487273511075e+01 +5.3814465693676584e+03 +1.7971221029899162e+05 -2.9623300973602831e+07 
+2.9999999999999999e-01 -5.3689373930361250e-01 +7.3496381209566817e+00 -8.9177414334987093e-01 -7.1523912097492556e+01 +5.3139496414889336e+03 +1.7730742679781796e+05 -2.9438342119484700e+07 
+4.0000000000000002e-01 -5.3689376211659223e-01 +7.3495992586151342e+00 -8.8530838044797822e-01 -7.0961173074791219e+01 +5.2530504242767511e+03 +1.7457095167547380e+05 -2.9292799319420151e+07 
+5.0000000000000000e-01 -5.3689379712195684e-01 +7.3495581979158908e+00 -8.7903002284125542e-01 -7.0342739855601309e+01 +5.1986312564254958e+03 +1.7155738462791740e+05 -2.9184361024696492e+07 
+5.9999999999999998e-01 -5.3689384295009068e-01 +7.3495155076464753e+00 -8.7296858324566295e-01 -6.9680082210853968e+01 +5.1505744642061609e+03 +1.6832132612255396e+05 -2.9110715609547898e+07 
+6.9999999999999996e-01 -5.3689389823144806e-01 +7.3494717565932177e+00 -8.6715357617053535e-01 -6.8984669875778579e+01 +5.1087624109964108e+03 +1.6491737641010652e+05 -2.9069551631831121e+07 
+8.0000000000000004e-01 -5.3689396159634328e-01 +7.3494275135471296e+00 -8.6161451371267450e-01 -6.8267972719310720e+01 +5.0730774137593198e+03 +1.6140013649187700e+05 -2.9058557425855763e+07 
+9.0000000000000002e-01 -5.3689403167518535e-01 +7.3493833472987520e+00 -8.5638090996196381e-01 -6.7541460593016893e+01 +5.0434018295454589e+03 +1.5782420722190550e+05 -2.9075421520207278e+07 
+1.0000000000000000e+00 -5.3689410709841801e-01 +7.3493398266417929e+00 -8.5148227569134372e-01 -6.6816603428855586e+01 +5.0196179581384249e+03 +1.5424418984468590e+05 -2.9117832184240576e+07 
+1.1000000000000001e+00 -5.3689418649640175e-01 +7.3492975203782080e+00 -8.4694812254176455e-01 -6.6104871365719788e+01 +5.0016081184886025e+03 +1.5071468664823985e+05 -2.9183477783254571e+07 
+1.2000000000000000e+00 -5.3689426849964994e-01 +7.3492569973107491e+00 -8.4280795734511116e-01 -6.5417734546061695e+01 +4.9892545435911406e+03 +1.4729029981294635e+05 -2.9270046284628324e+07 
+1.3000000000000000e+00 -5.3689435173855482e-01 +7.3492188262506248e+00 -8.3909129015700523e-01 -6.4766663314286063e+01 +4.9824395371849214e+03 +1.4402563248003583e+05 -2.9375226014649414e+07 
+1.3999999999999999e+00 -5.3689443484366728e-01 +7.3491835760150872e+00 -8.3582762210739414e-01 -6.4163128150052643e+01 +4.9810452390113533e+03 +1.4097528836161899e+05 -2.9496704530884989e+07 
+1.5000000000000000e+00 -5.3689451644554487e-01 +7.3491518154280691e+00 -8.3304645528176235e-01 -6.3618599665743524e+01 +4.9849538178606781e+03 +1.3819387164956966e+05 -2.9632169553097684e+07 
+1.6000000000000001e+00 -5.3689459517472482e-01 +7.3491241133206646e+00 -8.3077728932975836e-01 -6.3144548639733387e+01 +4.9940474094666724e+03 +1.3573598725399835e+05 -2.9779308676108062e+07 
+1.7000000000000000e+00 -5.3689466966179367e-01 +7.3491010385350357e+00 -8.2904961881005090e-01 -6.2752446090123399e+01 +5.0082080591490476e+03 +1.3365624110191732e+05 -2.9935809076727591e+07 
+1.8000000000000000e+00 -5.3689473853747383e-01 +7.3490831599208688e+00 -8.2789293367886529e-01 -6.2453763180035232e+01 +5.0273177407846770e+03 +1.3200923959793753e+05 -3.0099357628465999e+07 
+1.8999999999999999e+00 -5.3689480043240656e-01 +7.3490710463385058e+00 -8.2733672317300155e-01 -6.2259971307730197e+01 +5.0512584321856721e+03 +1.3084959013467382e+05 -3.0267641266178936e+07 
+2.0000000000000000e+00 -5.3689485397743253e-01 +7.3490652666616958e+00 -8.2741046679639940e-01 -6.2182542175603089e+01 +5.0799119379415788e+03 +1.3023190143309007e+05 -3.0438346125890214e+07 
+2.1000000000000001e+00 -5.3689489823258374e-01 +7.3490661801438568e+00 -8.2812680994522070e-01 -6.2228958489958892e+01 +5.1130600259029616e+03 +1.3019225021221931e+05 -3.0609274781896036e+07 
+2.2000000000000002e+00 -5.3689493388649645e-01 +7.3490733527218541e+00 -8.2943264454814025e-01 -6.2391736223112815e+01 +5.1500747118454683e+03 +1.3069771449267337e+05 -3.0778549798781749e+07 
+2.2999999999999998e+00 -5.3689496201395026e-01 +7.3490861626583817e+00 -8.3125882167261378e-01 -6.2659881983964866e+01 +5.1902237593610880e+03 +1.3169932279931614e+05 -3.0944341540732350e+07 
+2.3999999999999999e+00 -5.3689498368978850e-01 +7.3491039882214473e+00 -8.3353619332535644e-01 -6.3022402531988085e+01 +5.2327749422609459e+03 +1.3314810453273583e+05 -3.1104820402443334e+07 
+2.5000000000000000e+00 -5.3689499998874612e-01 +7.3491262076713149e+00 -8.3619561376976581e-01 -6.3468304404850883e+01 +5.2769960687306448e+03 +1.3499508783897414e+05 -3.1258156923010036e+07 
+2.6000000000000001e+00 -5.3689501198558187e-01 +7.3491521992636084e+00 -8.3916793655486266e-01 -6.3986594014005924e+01 +5.3221549235952998e+03 +1.3719130019497380e+05 -3.1402521505785611e+07 
+2.7000000000000002e+00 -5.3689502075502105e-01 +7.3491813412507065e+00 -8.4238401821592890e-01 -6.4566277694772950e+01 +5.3675193420352853e+03 +1.3968776873214121e+05 -3.1536084782372806e+07 
+2.7999999999999998e+00 -5.3689502737174621e-01 +7.3492130118714103e+00 -8.4577471772964974e-01 -6.5196361400222372e+01 +5.4123571856298804e+03 +1.4243551846479543e+05 -3.1657017461062368e+07 
+2.8999999999999999e+00 -5.3689503291043350e-01 +7.3492465893664356e+00 -8.4927089447962567e-01 -6.5865851159619410e+01 +5.4559363174104346e+03 +1.4538557496716207e+05 -3.1763490243700799e+07 
+3.0000000000000000e+00 -5.3689503844570763e-01 +7.3492814519628515e+00 -8.5280341068015297e-01 -6.6563752630333639e+01 +5.4975246328320545e+03 +1.4848896182013262e+05 -3.1853673936808798e+07 
+3.1000000000000001e+00 -5.3689504505214680e-01 +7.3493169778763541e+00 -8.5630313303619821e-01 -6.7279071175989998e+01 +5.5363901009487900e+03 +1.5169670109140742e+05 -3.1925739670644168e+07 
+3.2000000000000002e+00 -5.3689505380430369e-01 +7.3493525453147850e+00 -8.5970092825819733e-01 -6.8000811965354586e+01 +5.5718006695818358e+03 +1.5495981391552754e+05 -3.1977858425447039e+07 
+3.2999999999999998e+00 -5.3689506577664359e-01 +7.3493875324756059e+00 -8.6292767121805203e-01 -6.8717979894379880e+01 +5.6030244222701358e+03 +1.5822932004882334e+05 -3.2008201782359712e+07 
+3.3999999999999999e+00 -5.3689508204361402e-01 +7.3494213175414123e+00 -8.6591423636664222e-01 -6.9419579487645365e+01 +5.6293294163965356e+03 +1.6145623738511835e+05 -3.2014941157423258e+07 
+3.5000000000000000e+00 -5.3689510367958038e-01 +7.3494532786842344e+00 -8.6859150426839027e-01 -7.0094614996970350e+01 +5.6499837960733767e+03 +1.6459158248007623e+05 -3.1996248309879832e+07 
+3.6000000000000001e+00 -5.3689513175889614e-01 +7.3494827940591581e+00 -8.7089035815637494e-01 -7.0732090237091199e+01 +5.6642557414551102e+03 +1.6758636965135142e+05 -3.1950295139757581e+07 
+3.7000000000000002e+00 -5.3689516735572407e-01 +7.3495092418063921e+00 -8.7274169018635506e-01 -7.1321008652998358e+01 +5.6714135678435287e+03 +1.7039161141852432e+05 -3.1875254108387049e+07 
+3.7999999999999998e+00 -5.3689521154429132e-01 +7.3495320000541042e+00 -8.7407639124691017e-01 -7.1850373392904686e+01 +5.6707255449464219e+03 +1.7295831889829127e+05 -3.1769297413661882e+07 
+3.8999999999999999e+00 -5.3689526539869981e-01 +7.3495504469070747e+00 -8.7482536358196950e-01 -7.2309186998618529e+01 +5.6614601276734084e+03 +1.7523750008523365e+05 -3.1630598062482215e+07 
+4.0000000000000000e+00 -5.3689532999291667e-01 +7.3495639604649226e+00 -8.7491951009652558e-01 -7.2686451865345703e+01 +5.6428857490584969e+03 +1.7718016240939780e+05 -3.1457328878805168e+07 
+4.0999999999999996e+00 -5.3689540604778174e-01 +7.3495720980391903e+00 -8.7431304888472428e-01 -7.2974391988477748e+01 +5.6145774444131685e+03 +1.7875159178005846e+05 -3.1248741003129136e+07 
+4.2000000000000002e+00 -5.3689549300823836e-01 +7.3495750668980628e+00 -8.7304822878068800e-01 -7.3176796231856628e+01 +5.5772809473190628e+03 +1.7996777583003699e+05 -3.1008241205765009e+07 
+4.2999999999999998e+00 -5.3689559003127740e-01 +7.3495732217054464e+00 -8.7118806034155227e-01 -7.3300047710190341e+01 +5.5320209000508703e+03 +1.8085594425908590e+05 -3.0740234105039999e+07 
+4.4000000000000004e+00 -5.3689569627383260e-01 +7.3495669171229254e+00 -8.6879554869970399e-01 -7.3350529485247407e+01 +5.4798218499836876e+03 +1.8144332657542976e+05 -3.0449123891306438e+07 
+4.5000000000000000e+00 -5.3689581089289973e-01 +7.3495565078237099e+00 -8.6593370601968400e-01 -7.3334624977849188e+01 +5.4217084933067590e+03 +1.8175715450672276e+05 -3.0139315507598091e+07 
+4.5999999999999996e+00 -5.3689593304545813e-01 +7.3495423484845626e+00 -8.6266553477980568e-01 -7.3258717722718146e+01 +5.3587053570573753e+03 +1.8182466055030463e+05 -2.9815213135013863e+07 
+4.7000000000000002e+00 -5.3689606188857264e-01 +7.3495247937884214e+00 -8.5905404136185837e-01 -7.3129191459132088e+01 +5.2918370554818875e+03 +1.8167307854882686e+05 -2.9481221406450804e+07 
+4.7999999999999998e+00 -5.3689619657925625e-01 +7.3495041984271952e+00 -8.5516222710636869e-01 -7.2952430203530213e+01 +5.2221281248647956e+03 +1.8132964407476879e+05 -2.9141744634911411e+07 
+4.9000000000000004e+00 -5.3689633627461686e-01 +7.3494809170994397e+00 -8.5105309676263152e-01 -7.2734818179982511e+01 +5.1506031832573171e+03 +1.8082159404128042e+05 -2.8801187569819070e+07 
+5.0000000000000000e+00 -5.3689648013173563e-01 +7.3494553045124871e+00 -8.4678964680440805e-01 -7.2482739893997831e+01 +5.0782867102158516e+03 +1.8017616714961143e+05 -2.8463954355750524e+07 
+5.0999999999999996e+00 -5.3689662730780163e-01 +7.3494277153789902e+00 -8.4243487583961352e-01 -7.2202580014871586e+01 +5.0062032454645969e+03 +1.7942060317558204e+05 -2.8134449477555264e+07 
+5.2000000000000002e+00 -5.3689677695996019e-01 +7.3493985044269321e+00 -8.3805178033655214e-01 -7.1900723691854878e+01 +4.9353773114099731e+03 +1.7858214486147100e+05 -2.7817077403295971e+07 
+5.2999999999999998e+00 -5.3689692824543456e-01 +7.3493680263916401e+00 -8.3370335247180916e-01 -7.1583556298379179e+01 +4.8668333688400116e+03 +1.7768803638219656e+05 -2.7516242363946546e+07 
+5.4000000000000004e+00 -5.3689708032147310e-01 +7.3493366360138506e+00 -8.2945258363278140e-01 -7.1257463388588363e+01 +4.8015958858746362e+03 +1.7676552311963675e+05 -2.7236348687100239e+07 
+5.5000000000000000e+00 -5.3689723234533937e-01 +7.3493046880542421e+00 -8.2536246309239336e-01 -7.0928831118729249e+01 +4.7406893188072900e+03 +1.7584185411420660e+05 -2.6981800723137971e+07 
+5.5999999999999996e+00 -5.3689738347443550e-01 +7.3492725372778844e+00 -8.2149597552858500e-01 -7.0604045794340337e+01 +4.6851380609159487e+03 +1.7494427943847227e+05 -2.6757002589547899e+07 
+5.7000000000000002e+00 -5.3689753286610886e-01 +7.3492405384654047e+00 -8.1791610492834343e-01 -7.0289494197665249e+01 +4.6359665173959984e+03 +1.7410005209795819e+05 -2.6566358530526593e+07 
+5.7999999999999998e+00 -5.3689767967780011e-01 +7.3492090464090767e+00 -8.1468583042757370e-01 -6.9991563470418996e+01 +4.5941990316308102e+03 +1.7333642735194016e+05 -2.6414272579503093e+07 
+5.9000000000000004e+00 -5.3689782306698031e-01 +7.3491784159116156e+00 -8.1186813035580341e-01 -6.9716641081013520e+01 +4.5608599595676933e+03 +1.7268066252989045e+05 -2.6305148906911958e+07 
+5.9999999999999902e+00 -5.3689796219120334e-01 +7.3491490017910746e+00 -8.0952597850432328e-01 -6.9471115065559559e+01 +4.5369736035483666e+03 +1.7216001861176369e+05 -2.6243391512626335e+07 
+6.0999999999999899e+00 -5.3689809645115927e-01 +7.3491210883465481e+00 -8.0770499265937556e-01 -6.9259685630662361e+01 +4.5232342617977856e+03 +1.7179324524599750e+05 -2.6231828724501070e+07 
+6.1999999999999904e+00 -5.3689822608549598e-01 +7.3490947090771268e+00 -8.0638876361611023e-01 -6.9080913338490078e+01 +4.5191444096756668e+03 +1.7156790191825101e+05 -2.6267582549709931e+07 
+6.2999999999999901e+00 -5.3689835151343202e-01 +7.3490698416244316e+00 -8.0554700726526229e-01 -6.8931961167611789e+01 +4.5239369234301894e+03 +1.7146439972404967e+05 -2.6346480216810416e+07 
+6.3999999999999897e+00 -5.3689847315415473e-01 +7.3490464636371708e+00 -8.0514944532744892e-01 -6.8809992217660948e+01 +4.5368447967645807e+03 +1.7146315005086624e+05 -2.6464349505452722e+07 
+6.4999999999999902e+00 -5.3689859142686402e-01 +7.3490245527628009e+00 -8.0516579945344413e-01 -6.8712169468081441e+01 +4.5571010218607917e+03 +1.7154456316262684e+05 -2.6617018156766471e+07 
+6.5999999999999899e+00 -5.3689870675073448e-01 +7.3490040866464446e+00 -8.0556579566528907e-01 -6.8635655735256222e+01 +4.5839386716517802e+03 +1.7168904791832808e+05 -2.6800314260124255e+07 
+6.6999999999999904e+00 -5.3689881954496177e-01 +7.3489850429413206e+00 -8.0631915959926226e-01 -6.8577613984847844e+01 +4.6165908188087260e+03 +1.7187701358771871e+05 -2.7010065891895115e+07 
+6.7999999999999901e+00 -5.3689893022874424e-01 +7.3489673992961180e+00 -8.0739562148679422e-01 -6.8535206949390073e+01 +4.6542906222686015e+03 +1.7208886759764768e+05 -2.7242101502405856e+07 
+6.8999999999999897e+00 -5.3689903922119564e-01 +7.3489511333632667e+00 -8.0876491312980681e-01 -6.8505597365771905e+01 +4.6962712684720891e+03 +1.7230501687859348e+05 -2.7492249634690560e+07 
+6.9999999999999902e+00 -5.3689914694151075e-01 +7.3489362227964525e+00 -8.1039676918433901e-01 -6.8485947912958835e+01 +4.7417660045137764e+03 +1.7250586752799686e+05 -2.7756339100188322e+07 
+7.0999999999999899e+00 -5.3689925380883674e-01 +7.3489226452462724e+00 -8.1226092781065296e-01 -6.8473421061212349e+01 +4.7900081403915929e+03 +1.7267182385329340e+05 -2.8030198965555940e+07 
+7.1999999999999904e+00 -5.3689936024233353e-01 +7.3489103783727714e+00 -8.1432712774346216e-01 -6.8465179446294826e+01 +4.8402309993800354e+03 +1.7278329056889258e+05 -2.8309658329426613e+07 
+7.2999999999999901e+00 -5.3689946666116783e-01 +7.3488993998286745e+00 -8.1656511277829424e-01 -6.8458385378354194e+01 +4.8916680045223084e+03 +1.7282066992036480e+05 -2.8590546735124759e+07 
+7.3999999999999897e+00 -5.3689957348440853e-01 +7.3488896872719423e+00 -8.1894462936935664e-01 -6.8450201195450916e+01 +4.9435526203654426e+03 +1.7276436369341754e+05 -2.8868693860557657e+07 
+7.4999999999999902e+00 -5.3689968113123931e-01 +7.3488812183626440e+00 -8.2143542683989923e-01 -6.8437789183073676e+01 +4.9951183781547725e+03 +1.7259477277308970e+05 -2.9139929692619663e+07 
+7.5999999999999899e+00 -5.3689979002073018e-01 +7.3488739707546840e+00 -8.2400725618183068e-01 -6.8418311309175522e+01 +5.0455988341813372e+03 +1.7229229552238385e+05 -2.9400084278284211e+07 
+7.6999999999999904e+00 -5.3689990057200543e-01 +7.3488679221122979e+00 -8.2662987394422394e-01 -6.8388929714543266e+01 +5.0942276493073077e+03 +1.7183733065619913e+05 -2.9644988114220634e+07 
+7.7999999999999901e+00 -5.3690001320415981e-01 +7.3488630500960790e+00 -8.2927303956617715e-01 -6.8346806305533818e+01 +5.1402385436064787e+03 +1.7121027485430596e+05 -2.9870471947326899e+07 
+7.8999999999999897e+00 -5.3690012833632261e-01 +7.3488593323656000e+00 -8.3190651354780099e-01 -6.8289102814577603e+01 +5.1828652548068503e+03 +1.7039152307134858e+05 -3.0072366555851817e+07 
+7.9999999999999902e+00 -5.3690024638751932e-01 +7.3488567465708030e+00 -8.3450006732631854e-01 -6.8212980884600384e+01 +5.2213417116305518e+03 +1.6936146993274154e+05 -3.0246503501934592e+07 
+8.0999999999999908e+00 -5.3690036774126282e-01 +7.3488552374510459e+00 -8.3702914172575160e-01 -6.8115968496532489e+01 +5.2550688632881265e+03 +1.6810558470867356e+05 -3.0389664454508930e+07 
+8.1999999999999904e+00 -5.3690049267616713e-01 +7.3488546508239008e+00 -8.3948475916255982e-01 -6.7997263054382529e+01 +5.2839834461189157e+03 +1.6662902342379015e+05 -3.0501840432856523e+07 
+8.2999999999999901e+00 -5.3690062145178963e-01 +7.3488548142500747e+00 -8.4186051839813270e-01 -6.7856514157754034e+01 +5.3081305488557427e+03 +1.6494170323871027e+05 -3.0583707012053143e+07 
+8.3999999999999897e+00 -5.3690075432762652e-01 +7.3488555552870203e+00 -8.4415001158638037e-01 -6.7693371332944949e+01 +5.3275551078116896e+03 +1.6305354100050719e+05 -3.0635939006301448e+07 
+8.4999999999999893e+00 -5.3690089156324239e-01 +7.3488567014837036e+00 -8.4634683121120136e-01 -6.7507483877564923e+01 +5.3423020331306971e+03 +1.6097445233885324e+05 -3.0659211053117815e+07 
+8.5999999999999908e+00 -5.3690103341807804e-01 +7.3488580803840202e+00 -8.4844456796550727e-01 -6.7298500954778973e+01 +5.3524161752806667e+03 +1.5871435219351138e+05 -3.0654197475876965e+07 
+8.6999999999999904e+00 -5.3690118015166965e-01 +7.3488595195221489e+00 -8.5043680913644182e-01 -6.7066071474022536e+01 +5.3579422859670094e+03 +1.5628315418094507e+05 -3.0621572074763685e+07 
+8.7999999999999794e+00 -5.3690133202347257e-01 +7.3488608464306653e+00 -8.5231713793740183e-01 -6.6809844307476382e+01 +5.3589250122677731e+03 +1.5369077178526553e+05 -3.0562008120406803e+07 
+8.8999999999999808e+00 -5.3690148929287873e-01 +7.3488618886285542e+00 -8.5407914003298868e-01 -6.6529467959590903e+01 +5.3554090097486924e+03 +1.5094711650822856e+05 -3.0476178862482592e+07 
+8.9999999999999805e+00 -5.3690165221939268e-01 +7.3488624736299846e+00 -8.5571639283040579e-01 -6.6224590816125215e+01 +5.3474387494883549e+03 +1.4806209929066157e+05 -3.0364756642688051e+07 
+9.0999999999999801e+00 -5.3690182106237894e-01 +7.3488624289409330e+00 -8.5722247567792265e-01 -6.5894861058346933e+01 +5.3350587010356494e+03 +1.4504563005422676e+05 -3.0228413735777259e+07 
+9.1999999999999797e+00 -5.3690199608120037e-01 +7.3488615820595653e+00 -8.5859096315407624e-01 -6.5539926651908601e+01 +5.3183132102293866e+03 +1.4190761757882111e+05 -3.0067821785725597e+07 
+9.2999999999999794e+00 -5.3690217753528413e-01 +7.3488597604746495e+00 -8.5981542643172770e-01 -6.5159435324629570e+01 +5.2972465220190625e+03 +1.3865796944506493e+05 -2.9883651906398248e+07 
+9.3999999999999808e+00 -5.3690236568394600e-01 +7.3488567916691636e+00 -8.6088943500052029e-01 -6.4753034668415651e+01 +5.2719028114592502e+03 +1.3530659261579631e+05 -2.9676574825544626e+07 
+9.4999999999999805e+00 -5.3690256078649023e-01 +7.3488525031141432e+00 -8.6180655412335494e-01 -6.4320371948883846e+01 +5.2423261350007197e+03 +1.3186339230712567e+05 -2.9447260653514408e+07 
+9.5999999999999801e+00 -5.3690276310225116e-01 +7.3488467222691902e+00 -8.6256034971688622e-01 -6.3861094136128663e+01 +5.2085605253488420e+03 +1.2833827221171139e+05 -2.9196379342700381e+07 
+9.6999999999999797e+00 -5.3690297289047417e-01 +7.3488392765933188e+00 -8.6314437926182919e-01 -6.3374848217124374e+01 +5.1706498105953424e+03 +1.2474113630528297e+05 -2.8924599804144569e+07 
+9.7999999999999794e+00 -5.3690319041047840e-01 +7.3488299935283088e+00 -8.6355219870794064e-01 -6.2861280704827628e+01 +5.1286377552101558e+03 +1.2108188598645337e+05 -2.8632590608927995e+07 
+9.8999999999999808e+00 -5.3690341592144974e-01 +7.3488187005095771e+00 -8.6377736387207282e-01 -6.2320037968898994e+01 +5.0825680733767431e+03 +1.1737042203468173e+05 -2.8321020014708195e+07 
+9.9999999999999805e+00 -5.3690364968256321e-01 +7.3488052250078786e+00 -8.6381341668450051e-01 -6.1750766472323406e+01 +5.0324842135781528e+03 +1.1361664362305011e+05 -2.7990555149021629e+07 
+1.0100000000000000e+01 -5.3690389183253173e-01 +7.3487894842522286e+00 -8.6365678997679940e-01 -6.1154467398316548e+01 +4.9784813754970928e+03 +1.0983438369743826e+05 -2.7642069638562381e+07 
