# multipoles
# s[mm] polynom_b[n=0][T/m^n] polynom_b[n=1][T/m^n] polynom_b[n=2][T/m^n] polynom_b[n=3][T/m^n] polynom_b[n=4][T/m^n] polynom_b[n=5][T/m^n] polynom_b[n=6][T/m^n] 
+0.0000000000000000e+00 -5.9255113088369593e-01 +8.1128649340641648e+00 -3.6524771953880603e-01 -5.9930803544110283e+01 +3.2512811054002618e+03 +8.3796645491956893e+04 -2.3969468163704447e+07 
+1.0000000000000001e-01 -5.9255105723533508e-01 +8.1127780231751547e+00 -3.6773093156417874e-01 -5.8005019193364667e+01 +3.2913238810187217e+03 +7.4094022889756350e+04 -2.4135094693370223e+07 
+2.0000000000000001e-01 -5.9255097646812360e-01 +8.1126921841367103e+00 -3.7023056639651586e-01 -5.6105677836877895e+01 +3.3246956784982926e+03 +6.4543803047600042e+04 -2.4257543655270133e+07 
+2.9999999999999999e-01 -5.9255088938999989e-01 +8.1126078151572845e+00 -3.7272813553774087e-01 -5.4242012806805548e+01 +3.3515642248704421e+03 +5.5192740904938095e+04 -2.4338438551554676e+07 
+4.0000000000000002e-01 -5.9255079680894207e-01 +8.1125253144381198e+00 -3.7520514713242131e-01 -5.2423257156782434e+01 +3.3720971809802436e+03 +4.6087589583689201e+04 -2.4379402564224537e+07 
+5.0000000000000000e-01 -5.9255069953283923e-01 +8.1124450801924493e+00 -3.7764310991899924e-01 -5.0658644253043697e+01 +3.3864622244243442e+03 +3.7275103919212648e+04 -2.4382058973780647e+07 
+5.9999999999999998e-01 -5.9255059836963886e-01 +8.1123675106255035e+00 -3.8002353283270757e-01 -4.8957407188382916e+01 +3.3948270377166950e+03 +2.8802037029552328e+04 -2.4348031089069843e+07 
+6.9999999999999996e-01 -5.9255049412743555e-01 +8.1122930039467036e+00 -3.8232791843384123e-01 -4.7328779153360209e+01 +3.3973591894643864e+03 +2.0715142537661854e+04 -2.4278941698179580e+07 
+8.0000000000000004e-01 -5.9255038761414069e-01 +8.1122219583711281e+00 -3.8453776986070498e-01 -4.5781993473164249e+01 +3.3942262614286788e+03 +1.3061174745336961e+04 -2.4176413663720932e+07 
+9.0000000000000002e-01 -5.9255027963780116e-01 +8.1121547721040841e+00 -3.8663458928014005e-01 -4.4326283176127255e+01 +3.3855958264675992e+03 +5.8868861955890725e+03 -2.4042069833521321e+07 
+1.0000000000000000e+00 -5.9255017100652319e-01 +8.1120918433599627e+00 -3.8859987211514352e-01 -4.2970881550311042e+01 +3.3716353368936020e+03 -7.6096908861585678e+02 -2.3877532507982682e+07 
+1.1000000000000001e+00 -5.9255006252832410e-01 +8.1120335703474176e+00 -3.9041511444158244e-01 -4.1725021715868230e+01 +3.3525122636708174e+03 -6.8356380641938958e+03 -2.3684424095892839e+07 
+1.2000000000000000e+00 -5.9254995501139540e-01 +8.1119803512748661e+00 -3.9206180605669128e-01 -4.0597936794284884e+01 +3.3283939679324549e+03 -1.2290367676260448e+04 -2.3464366516460977e+07 
+1.3000000000000000e+00 -5.9254984926382404e-01 +8.1119325843528145e+00 -3.9352143648978549e-01 -3.9598859990727902e+01 +3.2994478181196996e+03 -1.7078404323915172e+04 -2.3218981760182496e+07 
+1.3999999999999999e+00 -5.9254974609383659e-01 +8.1118906677831397e+00 -3.9477548943038515e-01 -3.8737024274599875e+01 +3.2658410793634976e+03 -2.1152995749766331e+04 -2.2949891353570394e+07 
+1.5000000000000000e+00 -5.9254964630971074e-01 +8.1118549997722056e+00 -3.9580544355846820e-01 -3.8021662790425694e+01 +3.2277409368581525e+03 -2.4467388562586737e+04 -2.2658716490557928e+07 
+1.6000000000000001e+00 -5.9254955071970672e-01 +8.1118259785206952e+00 -3.9659277375430951e-01 -3.7462008550087148e+01 +3.1853145156657965e+03 -2.6974830070252461e+04 -2.2347078116625272e+07 
+1.7000000000000000e+00 -5.9254946013210175e-01 +8.1118040022274336e+00 -3.9711895378458967e-01 -3.7067294554777646e+01 +3.1387289326527575e+03 -2.8628567527389478e+04 -2.2016597181348603e+07 
+1.8000000000000000e+00 -5.9254937535537600e-01 +8.1117894690849450e+00 -3.9736544474431523e-01 -3.6846753686286888e+01 +3.0881510810932023e+03 -2.9381848724742362e+04 -2.1668893623912401e+07 
+1.8999999999999999e+00 -5.9254929719787697e-01 +8.1117827772869813e+00 -3.9731371094836804e-01 -3.6809618929503813e+01 +3.0337479293896804e+03 -2.9187920677421200e+04 -2.1305587785708841e+07 
+2.0000000000000000e+00 -5.9254922646816666e-01 +8.1117843250194177e+00 -3.9694520608238609e-01 -3.6965123110551964e+01 +2.9756862596595715e+03 -2.8000031158599963e+04 -2.0928299173423007e+07 
+2.1000000000000001e+00 -5.9254916380424028e-01 +8.1117943332679410e+00 -3.9625754025860699e-01 -3.7318173420309634e+01 +2.9143123199246743e+03 -2.5794186282167972e+04 -2.0539255921023473e+07 
+2.2000000000000002e+00 -5.9254910918388859e-01 +8.1118123472330534e+00 -3.9530907314768993e-01 -3.7857100219142772e+01 +2.8506296351847336e+03 -2.2633614965540382e+04 -2.0142855423975173e+07 
+2.2999999999999998e+00 -5.9254906242511229e-01 +8.1118377509974060e+00 -3.9417243743556013e-01 -3.8566262307840582e+01 +2.7857918651313280e+03 -1.8602445773382977e+04 -1.9743975658135157e+07 
+2.3999999999999999e+00 -5.9254902334600124e-01 +8.1118699286478400e+00 -3.9292026557579401e-01 -3.9430018622044152e+01 +2.7209526617264942e+03 -1.3784806480517991e+04 -1.9347494548359457e+07 
+2.5000000000000000e+00 -5.9254899176453346e-01 +8.1119082642746747e+00 -3.9162519358527820e-01 -4.0432728204610129e+01 +2.6572657466524497e+03 -8.2648242597834633e+03 -1.8958290349400099e+07 
+2.6000000000000001e+00 -5.9254896749871189e-01 +8.1119521419737186e+00 -3.9035985769061426e-01 -4.1558750276889718e+01 +2.5958848412329558e+03 -2.1266252303559695e+03 -1.8581241294787183e+07 
+2.7000000000000002e+00 -5.9254895036648680e-01 +8.1120009458445175e+00 -3.8919690055351086e-01 -4.2792444172261106e+01 +2.5379637834288583e+03 +4.5456651022938913e+03 -1.8221226148295481e+07 
+2.7999999999999998e+00 -5.9254894018580595e-01 +8.1120540599967299e+00 -3.8820896504021546e-01 -4.4118169528039139e+01 +2.4846564111177313e+03 +1.1667922989427812e+04 -1.7883123652975030e+07 
+2.8999999999999999e+00 -5.9254893677457710e-01 +8.1121108685373429e+00 -3.8746869897227559e-01 -4.5520285913610735e+01 +2.4371166517227907e+03 +1.9156024265270265e+04 -1.7571812953940868e+07 
+3.0000000000000000e+00 -5.9254893995065105e-01 +8.1121707555899345e+00 -3.8704875652412446e-01 -4.6983153382416972e+01 +2.3964985424221786e+03 +2.6925847543503449e+04 -1.7292173675999254e+07 
+3.1000000000000001e+00 -5.9254894953186354e-01 +8.1122331052775394e+00 -3.8702179342417997e-01 -4.8491131979299439e+01 +2.3639561420027535e+03 +3.4893271343771776e+04 -1.7049085512123238e+07 
+3.2000000000000002e+00 -5.9254896533596602e-01 +8.1122973017360049e+00 -3.8746047565162467e-01 -5.0028582124003179e+01 +2.3406436966606384e+03 +4.2974176328141999e+04 -1.6847429011677552e+07 
+3.2999999999999998e+00 -5.9254898718067317e-01 +8.1123627291053193e+00 -3.8843747296363113e-01 -5.1579864364585603e+01 +2.3277155113596486e+03 +5.1084443871226591e+04 -1.6692084953290096e+07 
+3.3999999999999999e+00 -5.9254901488365785e-01 +8.1124287715397863e+00 -3.9002545940541394e-01 -5.3129339656627685e+01 +2.3263259582100645e+03 +5.9139957632421923e+04 -1.6587934378241833e+07 
+3.5000000000000000e+00 -5.9254904826248700e-01 +8.1124948131995751e+00 -3.9229712171415793e-01 -5.4661369134941445e+01 +2.3376296398298341e+03 +6.7056602280524312e+04 -1.6539859378560094e+07 
+3.6000000000000001e+00 -5.9254908713472754e-01 +8.1125602382494222e+00 -3.9532514932077401e-01 -5.6160314056760726e+01 +2.3627811954540721e+03 +7.4750263103918289e+04 -1.6552742161842538e+07 
+3.7000000000000002e+00 -5.9254913131776443e-01 +8.1126244308776911e+00 -3.9918224247131084e-01 -5.7610536375374267e+01 +2.4029354521340242e+03 +8.2136829396212532e+04 -1.6631465759580819e+07 
+3.7999999999999998e+00 -5.9254918062900019e-01 +8.1126867752704790e+00 -4.0394110915501030e-01 -5.8996397968516106e+01 +2.4592473687760357e+03 +8.9132189924656966e+04 -1.6780913769085940e+07 
+3.8999999999999999e+00 -5.9254923488573641e-01 +8.1127466556335435e+00 -4.0967446852532108e-01 -6.0302261275051173e+01 +2.5328720962511647e+03 +9.5652236618475217e+04 -1.7005970623354275e+07 
+4.0000000000000000e+00 -5.9254929390510391e-01 +8.1128034561879172e+00 -4.1645504764826891e-01 -6.1512489144485002e+01 +2.6249649150501104e+03 +1.0161286368093034e+05 -1.7311521292776760e+07 
+4.0999999999999996e+00 -5.9254935756598548e-01 +8.1128566908243283e+00 -4.2432697969138006e-01 -6.2615092565006293e+01 +2.7361894273132716e+03 +1.0695061570103273e+05 -1.7700316737078734e+07 
+4.2000000000000002e+00 -5.9254942599182514e-01 +8.1129063325253625e+00 -4.3323070557261023e-01 -6.3611209634831710e+01 +2.8654525947489665e+03 +1.1167669482356594e+05 -1.8167567226231828e+07 
+4.2999999999999998e+00 -5.9254949936651280e-01 +8.1129524558845265e+00 -4.4308314246452307e-01 -6.4504934816550048e+01 +3.0112689675939355e+03 +1.1581920180554653e+05 -1.8706818041765328e+07 
+4.4000000000000004e+00 -5.9254957787379514e-01 +8.1129951354911736e+00 -4.5380120984583566e-01 -6.5300362402228743e+01 +3.1721531347220975e+03 +1.1940623632880156e+05 -1.9311614644737311e+07 
+4.5000000000000000e+00 -5.9254966169753787e-01 +8.1130344459259831e+00 -4.6530182676508103e-01 -6.6001586412770948e+01 +3.3466196748081820e+03 +1.2246589651838843e+05 -1.9975502451458607e+07 
+4.5999999999999996e+00 -5.9254975102152041e-01 +8.1130704617630869e+00 -4.7750190620038846e-01 -6.6612700636926675e+01 +3.5331830381471514e+03 +1.2502627908825564e+05 -2.0692026244210135e+07 
+4.7000000000000002e+00 -5.9254984602962091e-01 +8.1131032575657915e+00 -4.9031836307956622e-01 -6.7137798511586453e+01 +3.7303577119053662e+03 +1.2711547868993359e+05 -2.1454730993840773e+07 
+4.7999999999999998e+00 -5.9254994690559881e-01 +8.1131329078918935e+00 -5.0366811070907014e-01 -6.7580973269127469e+01 +3.9366581408240495e+03 +1.2876158873530373e+05 -2.2257161450184029e+07 
+4.9000000000000004e+00 -5.9255005383335491e-01 +8.1131594872889643e+00 -5.1746805844786969e-01 -6.7946317805787899e+01 +4.1505986898574583e+03 +1.2999270065970648e+05 -2.3092861985166665e+07 
+5.0000000000000000e+00 -5.9255016699666263e-01 +8.1131830702935321e+00 -5.3163511554786391e-01 -6.8237924640414974e+01 +4.3706937160125626e+03 +1.3083690364244032e+05 -2.3955376933057930e+07 
+5.0999999999999996e+00 -5.9255028657942987e-01 +8.1132037314349699e+00 -5.4608618744216986e-01 -6.8459886047247210e+01 +4.5954574933762506e+03 +1.3132228542906814e+05 -2.4838250221237555e+07 
+5.2000000000000002e+00 -5.9255041276547316e-01 +8.1132215452272831e+00 -5.6073817898013334e-01 -6.8616293794622706e+01 +4.8234042808613358e+03 +1.3147693076146941e+05 -2.5735025711502574e+07 
+5.2999999999999998e+00 -5.9255054573866772e-01 +8.1132365861785676e+00 -5.7550798966367889e-01 -6.8711239427935610e+01 +5.0530482270449547e+03 +1.3132892305491000e+05 -2.6639246735614233e+07 
+5.4000000000000004e+00 -5.9255068568289182e-01 +8.1132489287784413e+00 -5.9031251705235588e-01 -6.8748813909164127e+01 +5.2829034358496319e+03 +1.3090634230719008e+05 -2.7544456410817880e+07 
+5.5000000000000000e+00 -5.9255083278199072e-01 +8.1132586475047557e+00 -6.0506865718234049e-01 -6.8733107779700248e+01 +5.5114839722107263e+03 +1.3023726597830720e+05 -2.8444197663156569e+07 
+5.5999999999999996e+00 -5.9255098721993105e-01 +8.1132658168299514e+00 -6.1969330101533360e-01 -6.8668211382232499e+01 +5.7373038014835611e+03 +1.2934977037737069e+05 -2.9332012956120376e+07 
+5.7000000000000002e+00 -5.9255114918059548e-01 +8.1132705111981878e+00 -6.3410333685667153e-01 -6.8558214167540001e+01 +5.9588768254336574e+03 +1.2827192655813602e+05 -3.0201444437416282e+07 
+5.7999999999999998e+00 -5.9255131884790957e-01 +8.1132728050534553e+00 -6.4821564920141495e-01 -6.8407205514559209e+01 +6.1747168667589940e+03 +1.2703180510972622e+05 -3.1046033885744534e+07 
+5.9000000000000004e+00 -5.9255149640582150e-01 +8.1132727728145486e+00 -6.6194711854965349e-01 -6.8219274005400706e+01 +6.3833376646212928e+03 +1.2565747194564262e+05 -3.1859322683687612e+07 
+5.9999999999999902e+00 -5.9255168203828723e-01 +8.1132704888871778e+00 -6.7521462193994441e-01 -6.7998507633465735e+01 +6.5832528966878026e+03 +1.2417698930149789e+05 -3.2634851958084483e+07 
+6.0999999999999899e+00 -5.9255187584472180e-01 +8.1132660645657761e+00 -6.8794938112435555e-01 -6.7749077321566787e+01 +6.7732564798977810e+03 +1.2261647457904897e+05 -3.3367447119866855e+07 
+6.1999999999999904e+00 -5.9255207762388162e-01 +8.1132597479758370e+00 -7.0013476662319507e-01 -6.7475654980110420e+01 +6.9531397710894689e+03 +1.2099617469284448e+05 -3.4056430706997663e+07 
+6.2999999999999901e+00 -5.9255228710766528e-01 +8.1132518188296032e+00 -7.1176600349899055e-01 -6.7183063834128106e+01 +7.1229165010056704e+03 +1.1933522200113366e+05 -3.4702111966633603e+07 
+6.3999999999999897e+00 -5.9255250402804072e-01 +8.1132425568402855e+00 -7.2283831088049921e-01 -6.6876127146778259e+01 +7.2826003071076721e+03 +1.1765274920162300e+05 -3.5304799744791098e+07 
+6.4999999999999902e+00 -5.9255272811701309e-01 +8.1132322417089302e+00 -7.3334690467854913e-01 -6.6559667868479949e+01 +7.4322047813877371e+03 +1.1596788737890590e+05 -3.5864802705701284e+07 
+6.5999999999999899e+00 -5.9255295910660399e-01 +8.1132211531358163e+00 -7.4328700178987883e-01 -6.6238508937829351e+01 +7.5717435555067241e+03 +1.1429976767771220e+05 -3.6382429746987551e+07 
+6.6999999999999904e+00 -5.9255319672893203e-01 +8.1132095708176752e+00 -7.5265380880110289e-01 -6.5917473231759104e+01 +7.7012300819618886e+03 +1.1266752108728333e+05 -3.6857988949272886e+07 
+6.7999999999999901e+00 -5.9255344071613225e-01 +8.1131977744413888e+00 -7.6144253705221754e-01 -6.5601383348299805e+01 +7.8206779289413535e+03 +1.1109027710701179e+05 -3.7291789001506209e+07 
+6.8999999999999897e+00 -5.9255369080033293e-01 +8.1131860436918455e+00 -7.6964839009892050e-01 -6.5295061878367449e+01 +7.9301005349828201e+03 +1.0958716543517790e+05 -3.7684138012819186e+07 
+6.9999999999999902e+00 -5.9255394671378436e-01 +8.1131746582472282e+00 -7.7726656991298648e-01 -6.5003331241140742e+01 +8.0295113307948995e+03 +1.0817731493750591e+05 -3.8035344103323527e+07 
+7.0999999999999899e+00 -5.9255420818876470e-01 +8.1131638977836804e+00 -7.8429227447879057e-01 -6.4731013833372359e+01 +8.1189236973552170e+03 +1.0687985456449185e+05 -3.8345715215411164e+07 
+7.1999999999999904e+00 -5.9255447495761338e-01 +8.1131540419684267e+00 -7.9072069694393410e-01 -6.4482931818609558e+01 +8.1983509451278624e+03 +1.0571391209014486e+05 -3.8615558998895667e+07 
+7.2999999999999901e+00 -5.9255474675272923e-01 +8.1131453704617016e+00 -7.9654702969428870e-01 -6.4263907203721828e+01 +8.2678063952928769e+03 +1.0469861462306346e+05 -3.8845183210457377e+07 
+7.3999999999999897e+00 -5.9255502330651422e-01 +8.1131381629217305e+00 -8.0176645718935591e-01 -6.4078761972466751e+01 +8.3273032471279366e+03 +1.0385308934556891e+05 -3.9034895090551272e+07 
+7.4999999999999902e+00 -5.9255530435151171e-01 +8.1131326989991663e+00 -8.0637416386704619e-01 -6.3932317917177826e+01 +8.3768547217997202e+03 +1.0319646252925888e+05 -3.9185002028509118e+07 
+7.5999999999999899e+00 -5.9255558962021604e-01 +8.1131292583389829e+00 -8.1036532914913606e-01 -6.3829396725756091e+01 +8.4164739755353912e+03 +1.0274786012177487e+05 -3.9295811172385395e+07 
+7.6999999999999904e+00 -5.9255587884529848e-01 +8.1131281205818446e+00 -8.1373512537382442e-01 -6.3774819986089526e+01 +8.4461740601005913e+03 +1.0252640768834439e+05 -3.9367629238894790e+07 
+7.7999999999999901e+00 -5.9255617175941799e-01 +8.1131295653604827e+00 -8.1647872533499244e-01 -6.3773409108531709e+01 +8.4659680603126817e+03 +1.0255123003080384e+05 -3.9400763152708121e+07 
+7.8999999999999897e+00 -5.9255646809536933e-01 +8.1131338723028161e+00 -8.1859129335645597e-01 -6.3829985410040550e+01 +8.4758689338088025e+03 +1.0284145166647442e+05 -3.9395519306248866e+07 
+7.9999999999999902e+00 -5.9255676758595677e-01 +8.1131413209835639e+00 -8.2006799996513036e-01 -6.3949369477117244e+01 +8.4758897590864690e+03 +1.0341619458519037e+05 -3.9352204626693934e+07 
+8.0999999999999908e+00 -5.9255707009500136e-01 +8.1131520702599822e+00 -8.2091367493930101e-01 -6.4134128882210362e+01 +8.4661941192634622e+03 +1.0428452458509876e+05 -3.9271685876367472e+07 
+8.1999999999999904e+00 -5.9255737590600976e-01 +8.1131658919106577e+00 -8.2116165080680803e-01 -6.4379351976818867e+01 +8.4473801132795834e+03 +1.0542153685396344e+05 -3.9156412951738663e+07 
+8.2999999999999901e+00 -5.9255768538615883e-01 +8.1131824801529611e+00 -8.2085046330727407e-01 -6.4678574995965150e+01 +8.4201224173233149e+03 +1.0679516185345173e+05 -3.9009105559458420e+07 
+8.3999999999999897e+00 -5.9255799890247030e-01 +8.1132015292074193e+00 -8.2001865463199186e-01 -6.5025334314343922e+01 +8.3850958150526203e+03 +1.0837333079758985e+05 -3.8832483873879418e+07 
+8.4999999999999893e+00 -5.9255831682203941e-01 +8.1132227333022495e+00 -8.1870477097383543e-01 -6.5413166584526223e+01 +8.3429751532610808e+03 +1.1012397647725296e+05 -3.8629268333055273e+07 
+8.5999999999999908e+00 -5.9255863951174848e-01 +8.1132457866817145e+00 -8.1694736721146932e-01 -6.5835608972483413e+01 +8.2944354195418200e+03 +1.1201503459109171e+05 -3.8402179977635741e+07 
+8.6999999999999904e+00 -5.9255896733854119e-01 +8.1132703835860926e+00 -8.1478500419349720e-01 -6.6286198589638047e+01 +8.2401517052825911e+03 +1.1401444048338130e+05 -3.8153940313743271e+07 
+8.7999999999999794e+00 -5.9255930066921025e-01 +8.1132962182782471e+00 -8.1225624755039738e-01 -6.6758473247800282e+01 +8.1807991693770055e+03 +1.1609013347377013e+05 -3.7887271103098609e+07 
+8.8999999999999808e+00 -5.9255963987044358e-01 +8.1133229850193498e+00 -8.0939967412109914e-01 -6.7245970775680178e+01 +8.1170531688599649e+03 +1.1821005293839285e+05 -3.7604895009325974e+07 
+8.9999999999999805e+00 -5.9255998530897103e-01 +8.1133503780880929e+00 -8.0625386403414145e-01 -6.7742229560570919e+01 +8.0495891017111790e+03 +1.2034214140625142e+05 -3.7309534828876369e+07 
+9.0999999999999801e+00 -5.9256033735133296e-01 +8.1133780917684497e+00 -8.0285740756134438e-01 -6.8240788211149038e+01 +7.9790825409465115e+03 +1.2245434264297670e+05 -3.7003914142457329e+07 
+9.1999999999999797e+00 -5.9256069636400499e-01 +8.1134058203571264e+00 -7.9924890040411889e-01 -6.8735185758245748e+01 +7.9062091406110567e+03 +1.2451460276924353e+05 -3.6690756854143448e+07 
+9.2999999999999794e+00 -5.9256106271345954e-01 +8.1134332581595832e+00 -7.9546694706842114e-01 -6.9218961546988993e+01 +7.8316447011593018e+03 +1.2649086964164567e+05 -3.6372787505617686e+07 
+9.3999999999999808e+00 -5.9256143676598905e-01 +8.1134600994948300e+00 -7.9155016106103115e-01 -6.9685655387894855e+01 +7.7560651737115841e+03 +1.2835109376387790e+05 -3.6052731298553877e+07 
+9.4999999999999805e+00 -5.9256181888780290e-01 +8.1134860386914927e+00 -7.8753716300214471e-01 -7.0128807437941916e+01 +7.6801466205329825e+03 +1.3006322756865603e+05 -3.5733313897009805e+07 
+9.5999999999999801e+00 -5.9256220944510307e-01 +8.1135107700936491e+00 -7.8346658298135130e-01 -7.0541958347154264e+01 +7.6045652623551723e+03 +1.3159522620884122e+05 -3.5417261658552893e+07 
+9.6999999999999797e+00 -5.9256260880389100e-01 +8.1135339880516888e+00 -7.7937705849122552e-01 -7.0918649049811137e+01 +7.5299974380462618e+03 +1.3291504648305060e+05 -3.5107301440193929e+07 
+9.7999999999999794e+00 -5.9256301733018468e-01 +8.1135553869310488e+00 -7.7530723650259270e-01 -7.1252420957038311e+01 +7.4571196407719935e+03 +1.3399064778259755e+05 -3.4806160760980628e+07 
+9.8999999999999808e+00 -5.9256343538981682e-01 +8.1135746611103627e+00 -7.7129577308532615e-01 -7.1536815945836636e+01 +7.3866085119084155e+03 +1.3478999213825830e+05 -3.4516567776330754e+07 
+9.9999999999999805e+00 -5.9256386334841127e-01 +8.1135915050558864e+00 -7.6738132845367446e-01 -7.1765377647653168e+01 +7.3191407392160800e+03 +1.3528105096033582e+05 -3.4241250747769110e+07 
+1.0100000000000000e+01 -5.9256430133379479e-01 +8.1136057002537623e+00 -7.6359775607229519e-01 -7.1933614603329417e+01 +7.2552842286352397e+03 +1.3544241547106538e+05 -3.3982449218467280e+07 
