# field on trajectory
# s[mm] rx[mm] ry[mm] rz[mm] bx[T] by[T] bz[T]
0.0000000000000000e+00 +8.1649999999999991e+00 +0.0000000000000000e+00 +0.0000000000000000e+00 -3.1212421929534700e-02 -5.9321398698150218e-01 +6.0052427287864392e-03
1.0000000000000001e-01 +8.1649997165700778e+00 +0.0000000000000000e+00 +9.9999999999464462e-02 -3.1212275827871377e-02 -5.9321460425405370e-01 +6.0052792425685925e-03
2.0000000000000001e-01 +8.1649988662799213e+00 +0.0000000000000000e+00 +1.9999999999571560e-01 -3.1212119749899091e-02 -5.9321521563697766e-01 +6.0053123970220850e-03
3.0000000000000004e-01 +8.1649974491289452e+00 +0.0000000000000000e+00 +2.9999999998554011e-01 -3.1211955219196955e-02 -5.9321582154842933e-01 +6.0053421912841928e-03
4.0000000000000002e-01 +8.1649954651165721e+00 +0.0000000000000000e+00 +3.9999999996572472e-01 -3.1211783759351117e-02 -5.9321642240656447e-01 +6.0053686244903653e-03
5.0000000000000000e-01 +8.1649929142422266e+00 +0.0000000000000000e+00 +4.9999999993305605e-01 -3.1211606893952169e-02 -5.9321701862954390e-01 +6.0053916957744135e-03
5.9999999999999998e-01 +8.1649897965053384e+00 +0.0000000000000000e+00 +5.9999999988432073e-01 -3.1211426146592402e-02 -5.9321761063553613e-01 +6.0054114042687118e-03
6.9999999999999996e-01 +8.1649861119053426e+00 +0.0000000000000000e+00 +6.9999999981630545e-01 -3.1211243040863125e-02 -5.9321819884271820e-01 +6.0054277491043929e-03
7.9999999999999993e-01 +8.1649818604416780e+00 +0.0000000000000000e+00 +7.9999999972579683e-01 -3.1211059100352066e-02 -5.9321878366928060e-01 +6.0054407294115588e-03
8.9999999999999991e-01 +8.1649770421137848e+00 +0.0000000000000000e+00 +8.9999999960958155e-01 -3.1210875848640622e-02 -5.9321936553343024e-01 +6.0054503443194599e-03
9.9999999999999989e-01 +8.1649716569211073e+00 +0.0000000000000000e+00 +9.9999999946444618e-01 -3.1210694809301227e-02 -5.9321994485339113e-01 +6.0054565929567195e-03
1.0999999999999999e+00 +8.1649657048630910e+00 +0.0000000000000000e+00 +1.0999999992871774e+00 -3.1210517505894646e-02 -5.9322052204740927e-01 +6.0054594744515044e-03
1.2000000000000000e+00 +8.1649591859391872e+00 +0.0000000000000000e+00 +1.1999999990745618e+00 -3.1210345461967336e-02 -5.9322109753375429e-01 +6.0054589879317529e-03
1.3000000000000000e+00 +8.1649521001488434e+00 +0.0000000000000000e+00 +1.2999999988233857e+00 -3.1210180201048741e-02 -5.9322167173072315e-01 +6.0054551325253447e-03
1.4000000000000001e+00 +8.1649444474915125e+00 +0.0000000000000000e+00 +1.3999999985304359e+00 -3.1210023246648635e-02 -5.9322224505664189e-01 +6.0054479073603220e-03
1.5000000000000002e+00 +8.1649362279666473e+00 +0.0000000000000000e+00 +1.4999999981924990e+00 -3.1209876122254430e-02 -5.9322281792986886e-01 +6.0054373115650860e-03
1.6000000000000003e+00 +8.1649274415736990e+00 +0.0000000000000000e+00 +1.5999999978063615e+00 -3.1209740351328532e-02 -5.9322339076879815e-01 +6.0054233442685774e-03
1.7000000000000004e+00 +8.1649180883121222e+00 +0.0000000000000000e+00 +1.6999999973688100e+00 -3.1209617457305657e-02 -5.9322396399186184e-01 +6.0054060046004993e-03
1.8000000000000005e+00 +8.1649081681813680e+00 +0.0000000000000000e+00 +1.7999999968766311e+00 -3.1209508963590094e-02 -5.9322453801753228e-01 +6.0053852916915019e-03
1.9000000000000006e+00 +8.1648976811808893e+00 +0.0000000000000000e+00 +1.8999999963266114e+00 -3.1209416393553121e-02 -5.9322511326432559e-01 +6.0053612046733805e-03
2.0000000000000004e+00 +8.1648866273101355e+00 +0.0000000000000000e+00 +1.9999999957155372e+00 -3.1209341270530301e-02 -5.9322569015080528e-01 +6.0053337426792894e-03
2.1000000000000005e+00 +8.1648750065685576e+00 +0.0000000000000000e+00 +2.0999999950401951e+00 -3.1209284634418220e-02 -5.9322626900318420e-01 +6.0053029137333656e-03
2.2000000000000006e+00 +8.1648628189556014e+00 +0.0000000000000000e+00 +2.1999999942973716e+00 -3.1209245591485441e-02 -5.9322684977811035e-01 +6.0052687614186723e-03
2.3000000000000007e+00 +8.1648500644707127e+00 +0.0000000000000000e+00 +2.2999999934838531e+00 -3.1209222764601436e-02 -5.9322743233982722e-01 +6.0052313382079944e-03
2.4000000000000008e+00 +8.1648367431133337e+00 +0.0000000000000000e+00 +2.3999999925964266e+00 -3.1209214776643606e-02 -5.9322801655256163e-01 +6.0051906965742190e-03
2.5000000000000009e+00 +8.1648228548829085e+00 +0.0000000000000000e+00 +2.4999999916318778e+00 -3.1209220250500068e-02 -5.9322860228052099e-01 +6.0051468889903668e-03
2.6000000000000010e+00 +8.1648083997788774e+00 +0.0000000000000000e+00 +2.5999999905869937e+00 -3.1209237809072407e-02 -5.9322918938788716e-01 +6.0050999679295679e-03
2.7000000000000011e+00 +8.1647933778006792e+00 +0.0000000000000000e+00 +2.6999999894585605e+00 -3.1209266075278429e-02 -5.9322977773881302e-01 +6.0050499858650686e-03
2.8000000000000012e+00 +8.1647777889477542e+00 +0.0000000000000000e+00 +2.7999999882433650e+00 -3.1209303672054965e-02 -5.9323036719741729e-01 +6.0049969952702224e-03
2.9000000000000012e+00 +8.1647616332195376e+00 +0.0000000000000000e+00 +2.8999999869381932e+00 -3.1209349222360554e-02 -5.9323095762778077e-01 +6.0049410486184831e-03
3.0000000000000013e+00 +8.1647449106154664e+00 +0.0000000000000000e+00 +2.9999999855398318e+00 -3.1209401349178326e-02 -5.9323154889394070e-01 +6.0048821983834239e-03
3.1000000000000014e+00 +8.1647276211349755e+00 +0.0000000000000000e+00 +3.0999999840450672e+00 -3.1209458675518616e-02 -5.9323214085988663e-01 +6.0048204970386959e-03
3.2000000000000015e+00 +8.1647097647775002e+00 +0.0000000000000000e+00 +3.1999999824506857e+00 -3.1209519824421859e-02 -5.9323273338955707e-01 +6.0047559970580668e-03
3.3000000000000016e+00 +8.1646913415424756e+00 +0.0000000000000000e+00 +3.2999999807534737e+00 -3.1209583418961295e-02 -5.9323332634683279e-01 +6.0046887509153848e-03
3.4000000000000017e+00 +8.1646723514293349e+00 +0.0000000000000000e+00 +3.3999999789502180e+00 -3.1209648082245710e-02 -5.9323391959553384e-01 +6.0046188110845907e-03
3.5000000000000018e+00 +8.1646527944375116e+00 +0.0000000000000000e+00 +3.4999999770377044e+00 -3.1209712437422248e-02 -5.9323451299941499e-01 +6.0045462300397125e-03
3.6000000000000019e+00 +8.1646326705664407e+00 +0.0000000000000000e+00 +3.5999999750127194e+00 -3.1209775107679159e-02 -5.9323510642215982e-01 +6.0044710602548687e-03
3.7000000000000020e+00 +8.1646119798155539e+00 +0.0000000000000000e+00 +3.6999999728720496e+00 -3.1209834716248525e-02 -5.9323569972737833e-01 +6.0043933542042426e-03
3.8000000000000020e+00 +8.1645907221842862e+00 +0.0000000000000000e+00 +3.7999999706124812e+00 -3.1209889886409079e-02 -5.9323629277860035e-01 +6.0043131643621088e-03
3.9000000000000021e+00 +8.1645688976720709e+00 +0.0000000000000000e+00 +3.8999999682308006e+00 -3.1209939241488956e-02 -5.9323688543927222e-01 +6.0042305432028127e-03
4.0000000000000018e+00 +8.1645465062783433e+00 +0.0000000000000000e+00 +3.9999999657237941e+00 -3.1209981404868428e-02 -5.9323747757275147e-01 +6.0041455432007654e-03
4.1000000000000014e+00 +8.1645235480025384e+00 +0.0000000000000000e+00 +4.0999999630882478e+00 -3.1210015242509399e-02 -5.9323806923224143e-01 +6.0040582132235634e-03
4.2000000000000011e+00 +8.1645000228440896e+00 +0.0000000000000000e+00 +4.1999999603209481e+00 -3.1210040590517452e-02 -5.9323866123063929e-01 +6.0039685877107569e-03
4.3000000000000007e+00 +8.1644759308024337e+00 +0.0000000000000000e+00 +4.2999999574186818e+00 -3.1210057527524076e-02 -5.9323925457079763e-01 +6.0038766974935117e-03
4.4000000000000004e+00 +8.1644512718770041e+00 +0.0000000000000000e+00 +4.3999999543782344e+00 -3.1210066132152988e-02 -5.9323985025559822e-01 +6.0037825734012710e-03
4.5000000000000000e+00 +8.1644260460672324e+00 +0.0000000000000000e+00 +4.4999999511963935e+00 -3.1210066483019008e-02 -5.9324044928795583e-01 +6.0036862462616511e-03
4.5999999999999996e+00 +8.1644002533725466e+00 +0.0000000000000000e+00 +4.5999999478699438e+00 -3.1210058658726836e-02 -5.9324105267082050e-01 +6.0035877469003414e-03
4.6999999999999993e+00 +8.1643738937923711e+00 +0.0000000000000000e+00 +4.6999999443956728e+00 -3.1210042737869866e-02 -5.9324166140718182e-01 +6.0034871061409945e-03
4.7999999999999989e+00 +8.1643469673261233e+00 +0.0000000000000000e+00 +4.7999999407703662e+00 -3.1210018799029047e-02 -5.9324227650006922e-01 +6.0033843548051337e-03
4.8999999999999986e+00 +8.1643194739732188e+00 +0.0000000000000000e+00 +4.8999999369908096e+00 -3.1209986920771652e-02 -5.9324289895255999e-01 +6.0032795237120445e-03
4.9999999999999982e+00 +8.1642914137330624e+00 +0.0000000000000000e+00 +4.9999999330537905e+00 -3.1209947181650162e-02 -5.9324352976777617e-01 +6.0031726436786774e-03
5.0999999999999979e+00 +8.1642627866050521e+00 +0.0000000000000000e+00 +5.0999999289560947e+00 -3.1209899660201029e-02 -5.9324416994889217e-01 +6.0030637455195353e-03
5.1999999999999975e+00 +8.1642335925885767e+00 +0.0000000000000000e+00 +5.1999999246945077e+00 -3.1209844434943498e-02 -5.9324482049913652e-01 +6.0029528600465832e-03
5.2999999999999972e+00 +8.1642038316830163e+00 +0.0000000000000000e+00 +5.2999999202658161e+00 -3.1209781584378458e-02 -5.9324548242179365e-01 +6.0028400180691301e-03
5.3999999999999968e+00 +8.1641735038877385e+00 +0.0000000000000000e+00 +5.3999999156668066e+00 -3.1209711186987229e-02 -5.9324615672020831e-01 +6.0027252503937504e-03
5.4999999999999964e+00 +8.1641426092021003e+00 +0.0000000000000000e+00 +5.4999999108942648e+00 -3.1209633321230411e-02 -5.9324684439778841e-01 +6.0026085878241509e-03
5.5999999999999961e+00 +8.1641111476254444e+00 +0.0000000000000000e+00 +5.5999999059449763e+00 -3.1209548065546669e-02 -5.9324754645800781e-01 +6.0024900611610971e-03
5.6999999999999957e+00 +8.1640791191571012e+00 +0.0000000000000000e+00 +5.6999999008157287e+00 -3.1209455498351562e-02 -5.9324826390440899e-01 +6.0023697012022859e-03
5.7999999999999954e+00 +8.1640465237963866e+00 +0.0000000000000000e+00 +5.7999998955033067e+00 -3.1209355698036387e-02 -5.9324899774060702e-01 +6.0022475387422605e-03
5.8999999999999950e+00 +8.1640133615426009e+00 +0.0000000000000000e+00 +5.8999998900044970e+00 -3.1209248742966929e-02 -5.9324974897029159e-01 +6.0021236045723000e-03
5.9999999999999947e+00 +8.1639796323950264e+00 +0.0000000000000000e+00 +5.9999998843160860e+00 -3.1209134711482362e-02 -5.9325051859723033e-01 +6.0019979294803133e-03
6.0999999999999943e+00 +8.1639453363529295e+00 +0.0000000000000000e+00 +6.0999998784348595e+00 -3.1209013861505364e-02 -5.9325130714260010e-01 +6.0018705373701114e-03
6.1999999999999940e+00 +8.1639104734155570e+00 +0.0000000000000000e+00 +6.1999998723576031e+00 -3.1208887169388765e-02 -5.9325211319694171e-01 +6.0017414246212085e-03
6.2999999999999936e+00 +8.1638750435821397e+00 +0.0000000000000000e+00 +6.2999998660811034e+00 -3.1208755791098997e-02 -5.9325293486813235e-01 +6.0016105807340738e-03
6.3999999999999932e+00 +8.1638390468518942e+00 +0.0000000000000000e+00 +6.3999998596021461e+00 -3.1208620882606383e-02 -5.9325377026405535e-01 +6.0014779952114071e-03
6.4999999999999929e+00 +8.1638024832240248e+00 +0.0000000000000000e+00 +6.4999998529175178e+00 -3.1208483599885314e-02 -5.9325461749259956e-01 +6.0013436575582684e-03
6.5999999999999925e+00 +8.1637653526977214e+00 +0.0000000000000000e+00 +6.5999998460240041e+00 -3.1208345098914438e-02 -5.9325547466165951e-01 +6.0012075572822027e-03
6.6999999999999922e+00 +8.1637276552721669e+00 +0.0000000000000000e+00 +6.6999998389183908e+00 -3.1208206535676804e-02 -5.9325633987913462e-01 +6.0010696838933807e-03
6.7999999999999918e+00 +8.1636893909465353e+00 +0.0000000000000000e+00 +6.7999998315974635e+00 -3.1208069066160065e-02 -5.9325721125292841e-01 +6.0009300269047083e-03
6.8999999999999915e+00 +8.1636505597199971e+00 +0.0000000000000000e+00 +6.8999998240580087e+00 -3.1207933846356631e-02 -5.9325808689095061e-01 +6.0007885758319749e-03
6.9999999999999911e+00 +8.1636111615917155e+00 +0.0000000000000000e+00 +6.9999998162968122e+00 -3.1207802032263879e-02 -5.9325896490111463e-01 +6.0006453201939753e-03
7.0999999999999908e+00 +8.1635711965608539e+00 +0.0000000000000000e+00 +7.0999998083106597e+00 -3.1207674779884273e-02 -5.9325984339133742e-01 +6.0005002495126308e-03
7.1999999999999904e+00 +8.1635306646265722e+00 +0.0000000000000000e+00 +7.1999998000963368e+00 -3.1207553245225610e-02 -5.9326072046954137e-01 +6.0003533533131408e-03
7.2999999999999901e+00 +8.1634895657880353e+00 +0.0000000000000000e+00 +7.2999997916506301e+00 -3.1207438584301112e-02 -5.9326159424365121e-01 +6.0002046211240865e-03
7.3999999999999897e+00 +8.1634479000444102e+00 +0.0000000000000000e+00 +7.3999997829703252e+00 -3.1207331953129684e-02 -5.9326246282159578e-01 +6.0000540424775756e-03
7.4999999999999893e+00 +8.1634056673948674e+00 +0.0000000000000000e+00 +7.4999997740522071e+00 -3.1207234507736051e-02 -5.9326332431130746e-01 +5.9999016069093728e-03
7.5999999999999890e+00 +8.1633628678385861e+00 +0.0000000000000000e+00 +7.5999997648930631e+00 -3.1207147404150933e-02 -5.9326417682072152e-01 +5.9997473039590269e-03
7.6999999999999886e+00 +8.1633195013747528e+00 +0.0000000000000000e+00 +7.6999997554896780e+00 -3.1207071798411205e-02 -5.9326501845777602e-01 +5.9995911231699962e-03
7.7999999999999883e+00 +8.1632755680025646e+00 +0.0000000000000000e+00 +7.7999997458388375e+00 -3.1207008846560115e-02 -5.9326584733041132e-01 +5.9994330540897849e-03
7.8999999999999879e+00 +8.1632310677212310e+00 +0.0000000000000000e+00 +7.8999997359373282e+00 -3.1206959704647437e-02 -5.9326666154657104e-01 +5.9992730862700712e-03
7.9999999999999876e+00 +8.1631860005299757e+00 +0.0000000000000000e+00 +7.9999997257819349e+00 -3.1206925528729626e-02 -5.9326745921419977e-01 +5.9991112092668353e-03
8.0999999999999872e+00 +8.1631403664280366e+00 +0.0000000000000000e+00 +8.0999997153694441e+00 -3.1206906988195178e-02 -5.9326823893178782e-01 +5.9989474464749934e-03
8.1999999999999869e+00 +8.1630941654146714e+00 +0.0000000000000000e+00 +8.1999997046966406e+00 -3.1206902805720835e-02 -5.9326900125999094e-01 +5.9987819566310885e-03
8.2999999999999865e+00 +8.1630473974891533e+00 +0.0000000000000000e+00 +8.2999996937603111e+00 -3.1206911217298870e-02 -5.9326974724996528e-01 +5.9986149323057588e-03
8.3999999999999861e+00 +8.1630000626507702e+00 +0.0000000000000000e+00 +8.3999996825572421e+00 -3.1206930458919022e-02 -5.9327047795280985e-01 +5.9984465660681283e-03
8.4999999999999858e+00 +8.1629521608988256e+00 +0.0000000000000000e+00 +8.4999996710842183e+00 -3.1206958766568364e-02 -5.9327119441956300e-01 +5.9982770504857395e-03
8.5999999999999854e+00 +8.1629036922326375e+00 +0.0000000000000000e+00 +8.5999996593380263e+00 -3.1206994376231235e-02 -5.9327189770120192e-01 +5.9981065781245070e-03
8.6999999999999851e+00 +8.1628546566515343e+00 +0.0000000000000000e+00 +8.6999996473154511e+00 -3.1207035523889148e-02 -5.9327258884864087e-01 +5.9979353415486533e-03
8.7999999999999847e+00 +8.1628050541548571e+00 +0.0000000000000000e+00 +8.7999996350132772e+00 -3.1207080445520632e-02 -5.9327326891272847e-01 +5.9977635333206556e-03
8.8999999999999844e+00 +8.1627548847419575e+00 +0.0000000000000000e+00 +8.8999996224282931e+00 -3.1207127377101157e-02 -5.9327393894424585e-01 +5.9975913460011783e-03
8.9999999999999840e+00 +8.1627041484121960e+00 +0.0000000000000000e+00 +8.9999996095572818e+00 -3.1207174554603020e-02 -5.9327459999390564e-01 +5.9974189721490228e-03
9.0999999999999837e+00 +8.1626528451649438e+00 +0.0000000000000000e+00 +9.0999995963970317e+00 -3.1207220213995253e-02 -5.9327525311234786e-01 +5.9972466043210597e-03
9.1999999999999833e+00 +8.1626009749995774e+00 +0.0000000000000000e+00 +9.1999995829443275e+00 -3.1207262591243495e-02 -5.9327589935014102e-01 +5.9970744350721873e-03
9.2999999999999829e+00 +8.1625485379154803e+00 +0.0000000000000000e+00 +9.2999995691959541e+00 -3.1207299922309889e-02 -5.9327653975777739e-01 +5.9969026569552481e-03
9.3999999999999826e+00 +8.1624955339120433e+00 +0.0000000000000000e+00 +9.3999995551486979e+00 -3.1207330443153030e-02 -5.9327717538567293e-01 +5.9967314625209963e-03
9.4999999999999822e+00 +8.1624419629886606e+00 +0.0000000000000000e+00 +9.4999995407993438e+00 -3.1207352389727747e-02 -5.9327780728416402e-01 +5.9965610443180172e-03
9.5999999999999819e+00 +8.1623878251447302e+00 +0.0000000000000000e+00 +9.5999995261446784e+00 -3.1207363997985158e-02 -5.9327843650350676e-01 +5.9963915948926822e-03
9.6999999999999815e+00 +8.1623331203796514e+00 +0.0000000000000000e+00 +9.6999995111814865e+00 -3.1207363503872414e-02 -5.9327906409387354e-01 +5.9962233067890822e-03
9.7999999999999812e+00 +8.1622778486928276e+00 +0.0000000000000000e+00 +9.7999994959065546e+00 -3.1207349143332699e-02 -5.9327969110535261e-01 +5.9960563725489687e-03
9.8999999999999808e+00 +8.1622220100836600e+00 +0.0000000000000000e+00 +9.8999994803166675e+00 -3.1207319152305124e-02 -5.9328031858794539e-01 +5.9958909847116987e-03
9.9999999999999805e+00 +8.1621656045515518e+00 +0.0000000000000000e+00 +9.9999994644086119e+00 -3.1207271766724526e-02 -5.9328094759156391e-01 +5.9957273358141744e-03
1.0099999999999980e+01 +8.1621086320959026e+00 +0.0000000000000000e+00 +1.0099999448179172e+01 -3.1207205704447332e-02 -5.9328157896746558e-01 +5.9955655646930523e-03
1.0199999999999980e+01 +8.1620510927161103e+00 +0.0000000000000000e+00 +1.0199999431625136e+01 -3.1207121611047980e-02 -5.9328221277256932e-01 +5.9954055953901726e-03
1.0299999999999979e+01 +8.1619929864115726e+00 +0.0000000000000000e+00 +1.0299999414743287e+01 -3.1207020614004679e-02 -5.9328284886520222e-01 +5.9952472982511733e-03
1.0399999999999979e+01 +8.1619343131816837e+00 +0.0000000000000000e+00 +1.0399999397530411e+01 -3.1206903840754221e-02 -5.9328348710367684e-01 +5.9950905436255558e-03
1.0499999999999979e+01 +8.1618750730258345e+00 +0.0000000000000000e+00 +1.0499999379983295e+01 -3.1206772418690978e-02 -5.9328412734629166e-01 +5.9949352018667896e-03
1.0599999999999978e+01 +8.1618152659434156e+00 +0.0000000000000000e+00 +1.0599999362098725e+01 -3.1206627475165897e-02 -5.9328476945133124e-01 +5.9947811433324122e-03
1.0699999999999978e+01 +8.1617548919338159e+00 +0.0000000000000000e+00 +1.0699999343873484e+01 -3.1206470137485509e-02 -5.9328541327706497e-01 +5.9946282383841259e-03
1.0799999999999978e+01 +8.1616939509964226e+00 +0.0000000000000000e+00 +1.0799999325304359e+01 -3.1206301532910971e-02 -5.9328605868174888e-01 +5.9944763573878991e-03
1.0899999999999977e+01 +8.1616324431306193e+00 +0.0000000000000000e+00 +1.0899999306388136e+01 -3.1206122788656941e-02 -5.9328670552362428e-01 +5.9943253707140653e-03
1.0999999999999977e+01 +8.1615703683357914e+00 +0.0000000000000000e+00 +1.0999999287121598e+01 -3.1205935031890779e-02 -5.9328735366091856e-01 +5.9941751487374252e-03
1.1099999999999977e+01 +8.1615077266113207e+00 +0.0000000000000000e+00 +1.1099999267501534e+01 -3.1205739389731368e-02 -5.9328800295184481e-01 +5.9940255618373441e-03
1.1199999999999976e+01 +8.1614445179565891e+00 +0.0000000000000000e+00 +1.1199999247524728e+01 -3.1205536989248200e-02 -5.9328865325460189e-01 +5.9938764803978539e-03
1.1299999999999976e+01 +8.1613807423709765e+00 +0.0000000000000000e+00 +1.1299999227187966e+01 -3.1205328957460393e-02 -5.9328930442737415e-01 +5.9937277748077543e-03
1.1399999999999975e+01 +8.1613163998538631e+00 +0.0000000000000000e+00 +1.1399999206488033e+01 -3.1205116421335645e-02 -5.9328995632833248e-01 +5.9935793154607129e-03
1.1499999999999975e+01 +8.1612514904046272e+00 +0.0000000000000000e+00 +1.1499999185421714e+01 -3.1204900507789218e-02 -5.9329060881563278e-01 +5.9934309727553564e-03
1.1599999999999975e+01 +8.1611860140226486e+00 +0.0000000000000000e+00 +1.1599999163985794e+01 -3.1204682343683041e-02 -5.9329126174741831e-01 +5.9932826170953947e-03
1.1699999999999974e+01 +8.1611199707073059e+00 +0.0000000000000000e+00 +1.1699999142177061e+01 -3.1204463055824559e-02 -5.9329191498181599e-01 +5.9931341188896895e-03
1.1799999999999974e+01 +8.1610533604579771e+00 +0.0000000000000000e+00 +1.1799999119992298e+01 -3.1204243770965871e-02 -5.9329256837694022e-01 +5.9929853485523868e-03
