# trajectory
# s[mm] rx[mm] ry[mm] rz[mm] px[rad] py[rad] pz[rad]
0.0000000000000000e+00 +8.1529999999999987e+00 +0.0000000000000000e+00 +0.0000000000000000e+00 +0.0000000000000000e+00 +0.0000000000000000e+00 +1.0000000000000000e+00
-1.0000000000000001e-01 +8.1529997169360122e+00 +0.0000000000000000e+00 -9.9999999999465836e-02 +5.6612798653647464e-06 +0.0000000000000000e+00 +9.9999999998397493e-01
-2.0000000000000001e-01 +8.1529988677439977e+00 +0.0000000000000000e+00 -1.9999999999572665e-01 +1.1322560545119657e-05 +0.0000000000000000e+00 +9.9999999993589983e-01
-3.0000000000000004e-01 +8.1529974524238753e+00 +0.0000000000000000e+00 -2.9999999998557747e-01 +1.6983842016975184e-05 +0.0000000000000000e+00 +9.9999999985577459e-01
-4.0000000000000002e-01 +8.1529954709755685e+00 +0.0000000000000000e+00 -3.9999999996581326e-01 +2.2645124252193947e-05 +0.0000000000000000e+00 +9.9999999974359921e-01
-5.0000000000000000e-01 +8.1529929233990011e+00 +0.0000000000000000e+00 -4.9999999993322897e-01 +2.8306407215590712e-05 +0.0000000000000000e+00 +9.9999999959937369e-01
-5.9999999999999998e-01 +8.1529898096941018e+00 +0.0000000000000000e+00 -5.9999999988461961e-01 +3.3967690865532326e-05 +0.0000000000000000e+00 +9.9999999942309803e-01
-6.9999999999999996e-01 +8.1529861298608051e+00 +0.0000000000000000e+00 -6.9999999981678018e-01 +3.9628975153937634e-05 +0.0000000000000000e+00 +9.9999999921477223e-01
-7.9999999999999993e-01 +8.1529818838990504e+00 +0.0000000000000000e+00 -7.9999999972650571e-01 +4.5290260026277347e-05 +0.0000000000000000e+00 +9.9999999897439629e-01
-8.9999999999999991e-01 +8.1529770718087828e+00 +0.0000000000000000e+00 -8.9999999961059107e-01 +5.0951545421573873e-05 +0.0000000000000000e+00 +9.9999999870197009e-01
-9.9999999999999989e-01 +8.1529716935899508e+00 +0.0000000000000000e+00 -9.9999999946583129e-01 +5.6612831272401133e-05 +0.0000000000000000e+00 +9.9999999839749376e-01
-1.0999999999999999e+00 +8.1529657492425152e+00 +0.0000000000000000e+00 -1.0999999992890215e+00 +6.2274117504884329e-05 +0.0000000000000000e+00 +9.9999999806096729e-01
-1.2000000000000000e+00 +8.1529592387664405e+00 +0.0000000000000000e+00 -1.1999999990769565e+00 +6.7935404038699679e-05 +0.0000000000000000e+00 +9.9999999769239056e-01
-1.3000000000000000e+00 +8.1529521621617000e+00 +0.0000000000000000e+00 -1.2999999988264312e+00 +7.3596690787074127e-05 +0.0000000000000000e+00 +9.9999999729176370e-01
-1.4000000000000001e+00 +8.1529445194282779e+00 +0.0000000000000000e+00 -1.3999999985342408e+00 +7.9257977656785000e-05 +0.0000000000000000e+00 +9.9999999685908658e-01
-1.5000000000000002e+00 +8.1529363105661670e+00 +0.0000000000000000e+00 -1.4999999981971803e+00 +8.4919264548159642e-05 +0.0000000000000000e+00 +9.9999999639435933e-01
-1.6000000000000003e+00 +8.1529275355753708e+00 +0.0000000000000000e+00 -1.5999999978120445e+00 +9.0580551355075043e-05 +0.0000000000000000e+00 +9.9999999589758193e-01
-1.7000000000000004e+00 +8.1529181944559035e+00 +0.0000000000000000e+00 -1.6999999973756283e+00 +9.6241837964957354e-05 +0.0000000000000000e+00 +9.9999999536875439e-01
-1.8000000000000005e+00 +8.1529082872077900e+00 +0.0000000000000000e+00 -1.7999999968847269e+00 +1.0190312425878148e-04 +0.0000000000000000e+00 +9.9999999480787671e-01
-1.9000000000000006e+00 +8.1528978138310677e+00 +0.0000000000000000e+00 -1.8999999963361351e+00 +1.0756441011107051e-04 +0.0000000000000000e+00 +9.9999999421494890e-01
-2.0000000000000004e+00 +8.1528867743257880e+00 +0.0000000000000000e+00 -1.9999999957266481e+00 +1.1322569538989526e-04 +0.0000000000000000e+00 +9.9999999358997105e-01
-2.1000000000000005e+00 +8.1528751686920149e+00 +0.0000000000000000e+00 -2.0999999950530608e+00 +1.1888697995797508e-04 +0.0000000000000000e+00 +9.9999999293294306e-01
-2.2000000000000006e+00 +8.1528629969298247e+00 +0.0000000000000000e+00 -2.1999999943121682e+00 +1.2454826368479331e-04 +0.0000000000000000e+00 +9.9999999224386504e-01
-2.3000000000000007e+00 +8.1528502590393099e+00 +0.0000000000000000e+00 -2.2999999935007653e+00 +1.3020954645871294e-04 +0.0000000000000000e+00 +9.9999999152273700e-01
-2.4000000000000008e+00 +8.1528369550205682e+00 +0.0000000000000000e+00 -2.3999999926156472e+00 +1.3587082818807786e-04 +0.0000000000000000e+00 +9.9999999076955903e-01
-2.5000000000000009e+00 +8.1528230848737095e+00 +0.0000000000000000e+00 -2.4999999916536089e+00 +1.4153210880121276e-04 +0.0000000000000000e+00 +9.9999998998433104e-01
-2.6000000000000010e+00 +8.1528086485988478e+00 +0.0000000000000000e+00 -2.5999999906114453e+00 +1.4719338824642305e-04 +0.0000000000000000e+00 +9.9999998916705313e-01
-2.7000000000000011e+00 +8.1527936461961001e+00 +0.0000000000000000e+00 -2.6999999894859514e+00 +1.5285466649199466e-04 +0.0000000000000000e+00 +9.9999998831772541e-01
-2.8000000000000012e+00 +8.1527780776655892e+00 +0.0000000000000000e+00 -2.7999999882739224e+00 +1.5851594352619416e-04 +0.0000000000000000e+00 +9.9999998743634777e-01
-2.9000000000000012e+00 +8.1527619430074356e+00 +0.0000000000000000e+00 -2.8999999869721527e+00 +1.6417721935726851e-04 +0.0000000000000000e+00 +9.9999998652292021e-01
-3.0000000000000013e+00 +8.1527452422217568e+00 +0.0000000000000000e+00 -2.9999999855774377e+00 +1.6983849401344521e-04 +0.0000000000000000e+00 +9.9999998557744285e-01
-3.1000000000000014e+00 +8.1527279753086699e+00 +0.0000000000000000e+00 -3.0999999840865726e+00 +1.7549976754293217e-04 +0.0000000000000000e+00 +9.9999998459991568e-01
-3.2000000000000015e+00 +8.1527101422682833e+00 +0.0000000000000000e+00 -3.1999999824963523e+00 +1.8116104001391785e-04 +0.0000000000000000e+00 +9.9999998359033870e-01
-3.3000000000000016e+00 +8.1526917431007000e+00 +0.0000000000000000e+00 -3.2999999808035718e+00 +1.8682231151457112e-04 +0.0000000000000000e+00 +9.9999998254871181e-01
-3.4000000000000017e+00 +8.1526727778060106e+00 +0.0000000000000000e+00 -3.3999999790050262e+00 +1.9248358215304153e-04 +0.0000000000000000e+00 +9.9999998147503510e-01
-3.5000000000000018e+00 +8.1526532463842951e+00 +0.0000000000000000e+00 -3.4999999770975103e+00 +1.9814485205745924e-04 +0.0000000000000000e+00 +9.9999998036930859e-01
-3.6000000000000019e+00 +8.1526331488356192e+00 +0.0000000000000000e+00 -3.5999999750778193e+00 +2.0380612137593513e-04 +0.0000000000000000e+00 +9.9999997923153217e-01
-3.7000000000000020e+00 +8.1526124851600343e+00 +0.0000000000000000e+00 -3.6999999729427482e+00 +2.0946739027656106e-04 +0.0000000000000000e+00 +9.9999997806170593e-01
-3.8000000000000020e+00 +8.1525912553575726e+00 +0.0000000000000000e+00 -3.7999999706890919e+00 +2.1512865894740985e-04 +0.0000000000000000e+00 +9.9999997685982978e-01
-3.9000000000000021e+00 +8.1525694594282463e+00 +0.0000000000000000e+00 -3.8999999683136455e+00 +2.2078992759653554e-04 +0.0000000000000000e+00 +9.9999997562590359e-01
-4.0000000000000018e+00 +8.1525470973720466e+00 +0.0000000000000000e+00 -3.9999999658132039e+00 +2.2645119645197352e-04 +0.0000000000000000e+00 +9.9999997435992749e-01
-4.1000000000000014e+00 +8.1525241691889416e+00 +0.0000000000000000e+00 -4.0999999631845627e+00 +2.3211246576032685e-04 +0.0000000000000000e+00 +9.9999997306190125e-01
-4.2000000000000011e+00 +8.1525006748788726e+00 +0.0000000000000000e+00 -4.1999999604245160e+00 +2.3777373577121293e-04 +0.0000000000000000e+00 +9.9999997173182487e-01
-4.3000000000000007e+00 +8.1524766144417562e+00 +0.0000000000000000e+00 -4.2999999575298595e+00 +2.4343500672171053e-04 +0.0000000000000000e+00 +9.9999997036969834e-01
-4.4000000000000004e+00 +8.1524519878774893e+00 +0.0000000000000000e+00 -4.3999999544973880e+00 +2.4909627883494626e-04 +0.0000000000000000e+00 +9.9999996897552146e-01
-4.5000000000000000e+00 +8.1524267951859439e+00 +0.0000000000000000e+00 -4.4999999513238960e+00 +2.5475755232009546e-04 +0.0000000000000000e+00 +9.9999996754929421e-01
-4.5999999999999996e+00 +8.1524010363669728e+00 +0.0000000000000000e+00 -4.5999999480061788e+00 +2.6041882737238252e-04 +0.0000000000000000e+00 +9.9999996609101660e-01
-4.6999999999999993e+00 +8.1523747114204106e+00 +0.0000000000000000e+00 -4.6999999445410312e+00 +2.6608010417308192e-04 +0.0000000000000000e+00 +9.9999996460068841e-01
-4.7999999999999989e+00 +8.1523478203460744e+00 +0.0000000000000000e+00 -4.7999999409252485e+00 +2.7174138288951874e-04 +0.0000000000000000e+00 +9.9999996307830963e-01
-4.8999999999999986e+00 +8.1523203631437635e+00 +0.0000000000000000e+00 -4.8999999371556253e+00 +2.7740266367506960e-04 +0.0000000000000000e+00 +9.9999996152388027e-01
-4.9999999999999982e+00 +8.1522923398132647e+00 +0.0000000000000000e+00 -4.9999999332289562e+00 +2.8306394666916337e-04 +0.0000000000000000e+00 +9.9999995993740021e-01
-5.0999999999999979e+00 +8.1522637503543507e+00 +0.0000000000000000e+00 -5.0999999291420366e+00 +2.8872523199728210e-04 +0.0000000000000000e+00 +9.9999995831886934e-01
-5.1999999999999975e+00 +8.1522345947667834e+00 +0.0000000000000000e+00 -5.1999999248916620e+00 +2.9438651977096189e-04 +0.0000000000000000e+00 +9.9999995666828756e-01
-5.2999999999999972e+00 +8.1522048730503123e+00 +0.0000000000000000e+00 -5.2999999204746260e+00 +3.0004781008779378e-04 +0.0000000000000000e+00 +9.9999995498565486e-01
-5.3999999999999968e+00 +8.1521745852046781e+00 +0.0000000000000000e+00 -5.3999999158877241e+00 +3.0570910303142495e-04 +0.0000000000000000e+00 +9.9999995327097113e-01
-5.4999999999999964e+00 +8.1521437312296161e+00 +0.0000000000000000e+00 -5.4999999111277518e+00 +3.1137039867155941e-04 +0.0000000000000000e+00 +9.9999995152423626e-01
-5.5999999999999961e+00 +8.1521123111248528e+00 +0.0000000000000000e+00 -5.5999999061915036e+00 +3.1703169706395935e-04 +0.0000000000000000e+00 +9.9999994974545026e-01
-5.6999999999999957e+00 +8.1520803248901110e+00 +0.0000000000000000e+00 -5.6999999010757740e+00 +3.2269299825044603e-04 +0.0000000000000000e+00 +9.9999994793461311e-01
-5.7999999999999954e+00 +8.1520477725251084e+00 +0.0000000000000000e+00 -5.7999998957773578e+00 +3.2835430225890106e-04 +0.0000000000000000e+00 +9.9999994609172471e-01
-5.8999999999999950e+00 +8.1520146540295642e+00 +0.0000000000000000e+00 -5.8999998902930502e+00 +3.3401560910326750e-04 +0.0000000000000000e+00 +9.9999994421678495e-01
-5.9999999999999947e+00 +8.1519809694031942e+00 +0.0000000000000000e+00 -5.9999998846196458e+00 +3.3967691878355110e-04 +0.0000000000000000e+00 +9.9999994230979383e-01
-6.0999999999999943e+00 +8.1519467186457142e+00 +0.0000000000000000e+00 -6.0999998787539402e+00 +3.4533823128627159e-04 +0.0000000000000000e+00 +9.9999994037075135e-01
-6.1999999999999940e+00 +8.1519119017568435e+00 +0.0000000000000000e+00 -6.1999998726927279e+00 +3.5099954658941431e-04 +0.0000000000000000e+00 +9.9999993839965740e-01
-6.2999999999999936e+00 +8.1518765187363034e+00 +0.0000000000000000e+00 -6.2999998664328034e+00 +3.5666086466738084e-04 +0.0000000000000000e+00 +9.9999993639651197e-01
-6.3999999999999932e+00 +8.1518405695838183e+00 +0.0000000000000000e+00 -6.3999998599709622e+00 +3.6232218549143866e-04 +0.0000000000000000e+00 +9.9999993436131496e-01
-6.4999999999999929e+00 +8.1518040542991148e+00 +0.0000000000000000e+00 -6.4999998533039980e+00 +3.6798350902972034e-04 +0.0000000000000000e+00 +9.9999993229406636e-01
-6.5999999999999925e+00 +8.1517669728819229e+00 +0.0000000000000000e+00 -6.5999998464287071e+00 +3.7364483524722296e-04 +0.0000000000000000e+00 +9.9999993019476618e-01
-6.6999999999999922e+00 +8.1517293253319778e+00 +0.0000000000000000e+00 -6.6999998393418831e+00 +3.7930616410580738e-04 +0.0000000000000000e+00 +9.9999992806341442e-01
-6.7999999999999918e+00 +8.1516911116490149e+00 +0.0000000000000000e+00 -6.7999998320403217e+00 +3.8496749556419754e-04 +0.0000000000000000e+00 +9.9999992590001097e-01
-6.8999999999999915e+00 +8.1516523318327785e+00 +0.0000000000000000e+00 -6.8999998245208172e+00 +3.9062882957797962e-04 +0.0000000000000000e+00 +9.9999992370455593e-01
-6.9999999999999911e+00 +8.1516129858830144e+00 +0.0000000000000000e+00 -6.9999998167801643e+00 +3.9629016609960129e-04 +0.0000000000000000e+00 +9.9999992147704908e-01
-7.0999999999999908e+00 +8.1515730737994758e+00 +0.0000000000000000e+00 -7.0999998088151584e+00 +4.0195150507837084e-04 +0.0000000000000000e+00 +9.9999991921749054e-01
-7.1999999999999904e+00 +8.1515325955819193e+00 +0.0000000000000000e+00 -7.1999998006225940e+00 +4.0761284646045632e-04 +0.0000000000000000e+00 +9.9999991692588031e-01
-7.2999999999999901e+00 +8.1514915512301069e+00 +0.0000000000000000e+00 -7.2999997921992659e+00 +4.1327419018888454e-04 +0.0000000000000000e+00 +9.9999991460221827e-01
-7.3999999999999897e+00 +8.1514499407438059e+00 +0.0000000000000000e+00 -7.3999997835419693e+00 +4.1893553620354012e-04 +0.0000000000000000e+00 +9.9999991224650442e-01
-7.4999999999999893e+00 +8.1514077641227924e+00 +0.0000000000000000e+00 -7.4999997746474989e+00 +4.2459688444116463e-04 +0.0000000000000000e+00 +9.9999990985873877e-01
-7.5999999999999890e+00 +8.1513650213668463e+00 +0.0000000000000000e+00 -7.5999997655126492e+00 +4.3025823483535530e-04 +0.0000000000000000e+00 +9.9999990743892131e-01
-7.6999999999999886e+00 +8.1513217124757560e+00 +0.0000000000000000e+00 -7.6999997561342148e+00 +4.3591958731656420e-04 +0.0000000000000000e+00 +9.9999990498705205e-01
-7.7999999999999883e+00 +8.1512778374493156e+00 +0.0000000000000000e+00 -7.7999997465089912e+00 +4.4158094181209691e-04 +0.0000000000000000e+00 +9.9999990250313098e-01
-7.8999999999999879e+00 +8.1512333962873278e+00 +0.0000000000000000e+00 -7.8999997366337729e+00 +4.4724229824611155e-04 +0.0000000000000000e+00 +9.9999989998715810e-01
-7.9999999999999876e+00 +8.1511883889896044e+00 +0.0000000000000000e+00 -7.9999997265053544e+00 +4.5290365653961743e-04 +0.0000000000000000e+00 +9.9999989743913342e-01
-8.0999999999999872e+00 +8.1511428155559607e+00 +0.0000000000000000e+00 -8.0999997161205304e+00 +4.5856501661134497e-04 +0.0000000000000000e+00 +9.9999989485905694e-01
-8.1999999999999869e+00 +8.1510966759862242e+00 +0.0000000000000000e+00 -8.1999997054760971e+00 +4.6422637838732585e-04 +0.0000000000000000e+00 +9.9999989224692865e-01
-8.2999999999999865e+00 +8.1510499702802282e+00 +0.0000000000000000e+00 -8.2999996945688483e+00 +4.6988774181047367e-04 +0.0000000000000000e+00 +9.9999988960274855e-01
-8.3999999999999861e+00 +8.1510026984378090e+00 +0.0000000000000000e+00 -8.3999996833955795e+00 +4.7554910684145471e-04 +0.0000000000000000e+00 +9.9999988692651665e-01
-8.4999999999999858e+00 +8.1509548604588069e+00 +0.0000000000000000e+00 -8.4999996719530841e+00 +4.8121047345868782e-04 +0.0000000000000000e+00 +9.9999988421823294e-01
-8.5999999999999854e+00 +8.1509064563430638e+00 +0.0000000000000000e+00 -8.5999996602381579e+00 +4.8687184165834398e-04 +0.0000000000000000e+00 +9.9999988147789742e-01
-8.6999999999999851e+00 +8.1508574860904215e+00 +0.0000000000000000e+00 -8.6999996482475961e+00 +4.9253321145434597e-04 +0.0000000000000000e+00 +9.9999987870550999e-01
-8.7999999999999847e+00 +8.1508079497007184e+00 +0.0000000000000000e+00 -8.7999996359781925e+00 +4.9819458287836827e-04 +0.0000000000000000e+00 +9.9999987590107065e-01
-8.8999999999999844e+00 +8.1507578471737894e+00 +0.0000000000000000e+00 -8.8999996234267424e+00 +5.0385595597983652e-04 +0.0000000000000000e+00 +9.9999987306457927e-01
-8.9999999999999840e+00 +8.1507071785094638e+00 +0.0000000000000000e+00 -8.9999996105900397e+00 +5.0951733082592744e-04 +0.0000000000000000e+00 +9.9999987019603587e-01
-9.0999999999999837e+00 +8.1506559437075623e+00 +0.0000000000000000e+00 -9.0999995974648815e+00 +5.1517870750156832e-04 +0.0000000000000000e+00 +9.9999986729544033e-01
-9.1999999999999833e+00 +8.1506041427678984e+00 +0.0000000000000000e+00 -9.1999995840480597e+00 +5.2084008610943681e-04 +0.0000000000000000e+00 +9.9999986436279265e-01
-9.2999999999999829e+00 +8.1505517756902712e+00 +0.0000000000000000e+00 -9.2999995703363716e+00 +5.2650146676996054e-04 +0.0000000000000000e+00 +9.9999986139809260e-01
-9.3999999999999826e+00 +8.1504988424744713e+00 +0.0000000000000000e+00 -9.3999995563266108e+00 +5.3216284962131686e-04 +0.0000000000000000e+00 +9.9999985840134020e-01
-9.4999999999999822e+00 +8.1504453431202695e+00 +0.0000000000000000e+00 -9.4999995420155710e+00 +5.3782423481943235e-04 +0.0000000000000000e+00 +9.9999985537253522e-01
-9.5999999999999819e+00 +8.1503912776274241e+00 +0.0000000000000000e+00 -9.5999995274000494e+00 +5.4348562253798277e-04 +0.0000000000000000e+00 +9.9999985231167765e-01
-9.6999999999999815e+00 +8.1503366459956723e+00 +0.0000000000000000e+00 -9.6999995124768379e+00 +5.4914701296839236e-04 +0.0000000000000000e+00 +9.9999984921876717e-01
-9.7999999999999812e+00 +8.1502814482247334e+00 +0.0000000000000000e+00 -9.7999994972427338e+00 +5.5480840631983374e-04 +0.0000000000000000e+00 +9.9999984609380377e-01
-9.8999999999999808e+00 +8.1502256843143037e+00 +0.0000000000000000e+00 -9.8999994816945307e+00 +5.6046980281922740e-04 +0.0000000000000000e+00 +9.9999984293678723e-01
-9.9999999999999805e+00 +8.1501693542640563e+00 +0.0000000000000000e+00 -9.9999994658290223e+00 +5.6613120271124134e-04 +0.0000000000000000e+00 +9.9999983974771733e-01
-1.0099999999999980e+01 +8.1501124580736395e+00 +0.0000000000000000e+00 -1.0099999449643004e+01 +5.7179260625708447e-04 +0.0000000000000000e+00 +9.9999983652659385e-01
-1.0199999999999980e+01 +8.1500549957426749e+00 +0.0000000000000000e+00 -1.0199999433133272e+01 +5.7745401372123544e-04 +0.0000000000000000e+00 +9.9999983327341657e-01
-1.0299999999999979e+01 +8.1499969672707575e+00 +0.0000000000000000e+00 -1.0299999416296618e+01 +5.8311542535817212e-04 +0.0000000000000000e+00 +9.9999982998818537e-01
-1.0399999999999979e+01 +8.1499383726574575e+00 +0.0000000000000000e+00 -1.0399999399129840e+01 +5.8877684141116606e-04 +0.0000000000000000e+00 +9.9999982667089993e-01
-1.0499999999999979e+01 +8.1498792119023218e+00 +0.0000000000000000e+00 -1.0499999381629729e+01 +5.9443826211228346e-04 +0.0000000000000000e+00 +9.9999982332156012e-01
-1.0599999999999978e+01 +8.1498194850048726e+00 +0.0000000000000000e+00 -1.0599999363793083e+01 +6.0009968768238607e-04 +0.0000000000000000e+00 +9.9999981994016562e-01
-1.0699999999999978e+01 +8.1497591919646144e+00 +0.0000000000000000e+00 -1.0699999345616694e+01 +6.0576111833113224e-04 +0.0000000000000000e+00 +9.9999981652671632e-01
-1.0799999999999978e+01 +8.1496983327810302e+00 +0.0000000000000000e+00 -1.0799999327097359e+01 +6.1142255425697780e-04 +0.0000000000000000e+00 +9.9999981308121200e-01
-1.0899999999999977e+01 +8.1496369074535817e+00 +0.0000000000000000e+00 -1.0899999308231870e+01 +6.1708399564717716e-04 +0.0000000000000000e+00 +9.9999980960365242e-01
-1.0999999999999977e+01 +8.1495749159817130e+00 +0.0000000000000000e+00 -1.0999999289017021e+01 +6.2274544267778436e-04 +0.0000000000000000e+00 +9.9999980609403738e-01
-1.1099999999999977e+01 +8.1495123583648521e+00 +0.0000000000000000e+00 -1.1099999269449608e+01 +6.2840689551365420e-04 +0.0000000000000000e+00 +9.9999980255236676e-01
-1.1199999999999976e+01 +8.1494492346024110e+00 +0.0000000000000000e+00 -1.1199999249526426e+01 +6.3406835430844315e-04 +0.0000000000000000e+00 +9.9999979897864022e-01
-1.1299999999999976e+01 +8.1493855446937875e+00 +0.0000000000000000e+00 -1.1299999229244268e+01 +6.3972981920461074e-04 +0.0000000000000000e+00 +9.9999979537285766e-01
-1.1399999999999975e+01 +8.1493212886383635e+00 +0.0000000000000000e+00 -1.1399999208599930e+01 +6.4539129033342032e-04 +0.0000000000000000e+00 +9.9999979173501885e-01
-1.1499999999999975e+01 +8.1492564664355100e+00 +0.0000000000000000e+00 -1.1499999187590204e+01 +6.5105276781494081e-04 +0.0000000000000000e+00 +9.9999978806512368e-01
-1.1599999999999975e+01 +8.1491910780845860e+00 +0.0000000000000000e+00 -1.1599999166211886e+01 +6.5671425175804722e-04 +0.0000000000000000e+00 +9.9999978436317194e-01
-1.1699999999999974e+01 +8.1491251235849393e+00 +0.0000000000000000e+00 -1.1699999144461769e+01 +6.6237574226042249e-04 +0.0000000000000000e+00 +9.9999978062916339e-01
