# field on trajectory
# s[mm] rx[mm] ry[mm] rz[mm] bx[T] by[T] bz[T]
-0.0000000000000000e+00 +8.1530000000000094e+00 +0.0000000000000000e+00 -0.0000000000000000e+00 -3.0713036063031180e-02 -5.6473312960833466e-01 +5.6047500613387357e-03
-1.0000000000000001e-01 +8.1529997163925092e+00 +0.0000000000000000e+00 -9.9999999999463796e-02 -3.0712898544267432e-02 -5.6473346813744862e-01 +5.6047869464799505e-03
-2.0000000000000001e-01 +8.1529988655711296e+00 +0.0000000000000000e+00 -1.9999999999571000e-01 -3.0712747238892595e-02 -5.6473380729397360e-01 +5.6048267799999668e-03
-2.9999999999999999e-01 +8.1529974475415692e+00 +0.0000000000000000e+00 -2.9999999998552201e-01 -3.0712583947507841e-02 -5.6473414644790065e-01 +5.6048693904011092e-03
-4.0000000000000002e-01 +8.1529954622965306e+00 +0.0000000000000000e+00 -3.9999999996568197e-01 -3.0712410470720101e-02 -5.6473448496931922e-01 +5.6049146061863545e-03
-5.0000000000000000e-01 +8.1529929098396696e+00 +0.0000000000000000e+00 -4.9999999993297300e-01 -3.0712228609131968e-02 -5.6473482222823201e-01 +5.6049622558571053e-03
-5.9999999999999998e-01 +8.1529897901673394e+00 +0.0000000000000000e+00 -5.9999999988417696e-01 -3.0712040163349122e-02 -5.6473515759469795e-01 +5.6050121679142723e-03
-6.9999999999999996e-01 +8.1529861032831796e+00 +0.0000000000000000e+00 -6.9999999981607697e-01 -3.0711846933974194e-02 -5.6473549043871962e-01 +5.6050641708567947e-03
-8.0000000000000004e-01 +8.1529818491871993e+00 +0.0000000000000000e+00 -7.9999999972545699e-01 -3.0711650721611108e-02 -5.6473582013032730e-01 +5.6051180931821435e-03
-9.0000000000000002e-01 +8.1529770278793894e+00 +0.0000000000000000e+00 -8.9999999960909804e-01 -3.0711453326863411e-02 -5.6473614603955269e-01 +5.6051737633857112e-03
-1.0000000000000000e+00 +8.1529716393597500e+00 +0.0000000000000000e+00 -9.9999999946378304e-01 -3.0711256550334198e-02 -5.6473646753642859e-01 +5.6052310099604504e-03
-1.1000000000000001e+00 +8.1529656836210105e+00 +0.0000000000000000e+00 -1.0999999992862901e+00 -3.0711062192628917e-02 -5.6473678399104688e-01 +5.6052896613971101e-03
-1.2000000000000000e+00 +8.1529591606740706e+00 +0.0000000000000000e+00 -1.1999999990734200e+00 -3.0710872054344755e-02 -5.6473709477336032e-01 +5.6053495461818939e-03
-1.3000000000000000e+00 +8.1529520705153100e+00 +0.0000000000000000e+00 -1.2999999988219300e+00 -3.0710687936083978e-02 -5.6473739925343791e-01 +5.6054104927986776e-03
-1.3999999999999999e+00 +8.1529444131410909e+00 +0.0000000000000000e+00 -1.3999999985286200e+00 -3.0710511638447794e-02 -5.6473769680135266e-01 +5.6054723297275450e-03
-1.5000000000000000e+00 +8.1529361885550298e+00 +0.0000000000000000e+00 -1.4999999981902701e+00 -3.0710344962033235e-02 -5.6473798678712550e-01 +5.6055348854438516e-03
-1.6000000000000001e+00 +8.1529273967571498e+00 +0.0000000000000000e+00 -1.5999999978036501e+00 -3.0710189707437462e-02 -5.6473826858080978e-01 +5.6055979884187422e-03
-1.7000000000000000e+00 +8.1529180377474404e+00 +0.0000000000000000e+00 -1.6999999973655600e+00 -3.0710047675256178e-02 -5.6473854155246495e-01 +5.6056614671185336e-03
-1.8000000000000000e+00 +8.1529081115222706e+00 +0.0000000000000000e+00 -1.7999999968727800e+00 -3.0709920666084994e-02 -5.6473880507218477e-01 +5.6057251500046508e-03
-1.8999999999999999e+00 +8.1528976180852606e+00 +0.0000000000000000e+00 -1.8999999963220899e+00 -3.0709810480514695e-02 -5.6473905851001327e-01 +5.6057888655324239e-03
-2.0000000000000000e+00 +8.1528865574327902e+00 +0.0000000000000000e+00 -1.9999999957102601e+00 -3.0709718919137225e-02 -5.6473930123605742e-01 +5.6058524421518912e-03
-2.1000000000000001e+00 +8.1528749295721408e+00 +0.0000000000000000e+00 -2.0999999950340902e+00 -3.0709647215098050e-02 -5.6473953287504319e-01 +5.6059157540727846e-03
-2.2000000000000002e+00 +8.1528627344960096e+00 +0.0000000000000000e+00 -2.1999999942903599e+00 -3.0709594331789988e-02 -5.6473975407059473e-01 +5.6059788585691795e-03
-2.2999999999999998e+00 +8.1528499722080596e+00 +0.0000000000000000e+00 -2.2999999934758399e+00 -3.0709558665168477e-02 -5.6473996572094021e-01 +5.6060418586818660e-03
-2.3999999999999999e+00 +8.1528366427046404e+00 +0.0000000000000000e+00 -2.3999999925873299e+00 -3.0709538611200890e-02 -5.6474016872435651e-01 +5.6061048574542150e-03
-2.5000000000000000e+00 +8.1528227459894005e+00 +0.0000000000000000e+00 -2.4999999916215998e+00 -3.0709532565861473e-02 -5.6474036397905414e-01 +5.6061679579316069e-03
-2.6000000000000001e+00 +8.1528082820659602e+00 +0.0000000000000000e+00 -2.5999999905754398e+00 -3.0709538925135456e-02 -5.6474055238323362e-01 +5.6062312631625939e-03
-2.7000000000000002e+00 +8.1527932509234198e+00 +0.0000000000000000e+00 -2.6999999894456299e+00 -3.0709556085025930e-02 -5.6474073483519571e-01 +5.6062948762006159e-03
-2.7999999999999998e+00 +8.1527776525726896e+00 +0.0000000000000000e+00 -2.7999999882289601e+00 -3.0709582441539904e-02 -5.6474091223305911e-01 +5.6063589001017202e-03
-2.8999999999999999e+00 +8.1527614870065008e+00 +0.0000000000000000e+00 -2.8999999869222002e+00 -3.0709616390705786e-02 -5.6474108547506896e-01 +5.6064234379283005e-03
-3.0000000000000000e+00 +8.1527447542284808e+00 +0.0000000000000000e+00 -2.9999999855221300e+00 -3.0709656328562398e-02 -5.6474125545937048e-01 +5.6064885927473726e-03
-3.1000000000000001e+00 +8.1527274542386294e+00 +0.0000000000000000e+00 -3.0999999840255499e+00 -3.0709700651165968e-02 -5.6474142308412079e-01 +5.6065544676323163e-03
-3.2000000000000002e+00 +8.1527095870333106e+00 +0.0000000000000000e+00 -3.1999999824292300e+00 -3.0709747754591114e-02 -5.6474158924748608e-01 +5.6066211656634448e-03
-3.2999999999999998e+00 +8.1526911526198091e+00 +0.0000000000000000e+00 -3.2999999807299600e+00 -3.0709796034925820e-02 -5.6474175484752986e-01 +5.6066887899274441e-03
-3.3999999999999999e+00 +8.1526721509872004e+00 +0.0000000000000000e+00 -3.3999999789245101e+00 -3.0709843888284540e-02 -5.6474192078243557e-01 +5.6067574435202409e-03
-3.5000000000000000e+00 +8.1526525821464002e+00 +0.0000000000000000e+00 -3.4999999770096801e+00 -3.0709889710792519e-02 -5.6474208795019676e-01 +5.6068272295444399e-03
-3.6000000000000001e+00 +8.1526324460901396e+00 +0.0000000000000000e+00 -3.5999999749822500e+00 -3.0709931898603472e-02 -5.6474225724892435e-01 +5.6068982511130539e-03
-3.7000000000000002e+00 +8.1526117428220495e+00 +0.0000000000000000e+00 -3.6999999728389801e+00 -3.0709968847888458e-02 -5.6474242957662013e-01 +5.6069706113477825e-03
-3.7999999999999998e+00 +8.1525904723421299e+00 +0.0000000000000000e+00 -3.7999999705766800e+00 -3.0709998954842947e-02 -5.6474260583129077e-01 +5.6070444133807526e-03
-3.8999999999999999e+00 +8.1525686346503807e+00 +0.0000000000000000e+00 -3.8999999681921298e+00 -3.0710020615686267e-02 -5.6474278691091528e-01 +5.6071197603548024e-03
-4.0000000000000000e+00 +8.1525462297431694e+00 +0.0000000000000000e+00 -3.9999999656820902e+00 -3.0710032226664144e-02 -5.6474297371347271e-01 +5.6071967554243542e-03
-4.0999999999999996e+00 +8.1525232576241304e+00 +0.0000000000000000e+00 -4.0999999630433699e+00 -3.0710032493058315e-02 -5.6474316710553418e-01 +5.6072755028949029e-03
-4.2000000000000002e+00 +8.1524997182896204e+00 +0.0000000000000000e+00 -4.1999999602727298e+00 -3.0710021356221761e-02 -5.6474336782841650e-01 +5.6073561116394026e-03
-4.2999999999999998e+00 +8.1524756117469206e+00 +0.0000000000000000e+00 -4.2999999573669703e+00 -3.0709999066509647e-02 -5.6474357659204744e-01 +5.6074386916695491e-03
-4.4000000000000004e+00 +8.1524509379887604e+00 +0.0000000000000000e+00 -4.3999999543228601e+00 -3.0709965874271855e-02 -5.6474379410649000e-01 +5.6075233529966169e-03
-4.5000000000000000e+00 +8.1524256970187707e+00 +0.0000000000000000e+00 -4.4999999511372000e+00 -3.0709922029841262e-02 -5.6474402108175081e-01 +5.6076102056292002e-03
-4.5999999999999996e+00 +8.1523998888369498e+00 +0.0000000000000000e+00 -4.5999999478067499e+00 -3.0709867783538514e-02 -5.6474425822789232e-01 +5.6076993595740908e-03
-4.7000000000000002e+00 +8.1523735134396702e+00 +0.0000000000000000e+00 -4.6999999443283098e+00 -3.0709803385670763e-02 -5.6474450625503547e-01 +5.6077909248360173e-03
-4.7999999999999998e+00 +8.1523465708305594e+00 +0.0000000000000000e+00 -4.7999999406986600e+00 -3.0709729086525951e-02 -5.6474476587327771e-01 +5.6078850114165265e-03
-4.9000000000000004e+00 +8.1523190610096208e+00 +0.0000000000000000e+00 -4.8999999369145701e+00 -3.0709645136376116e-02 -5.6474503779277785e-01 +5.6079817293145737e-03
-5.0000000000000000e+00 +8.1522909839768491e+00 +0.0000000000000000e+00 -4.9999999329728402e+00 -3.0709551785474604e-02 -5.6474532272373212e-01 +5.6080811885259743e-03
-5.0999999999999996e+00 +8.1522623397286207e+00 +0.0000000000000000e+00 -5.0999999288702398e+00 -3.0709449284056330e-02 -5.6474562137640205e-01 +5.6081834990434377e-03
-5.2000000000000002e+00 +8.1522331282685592e+00 +0.0000000000000000e+00 -5.1999999246035600e+00 -3.0709337882332186e-02 -5.6474593446103349e-01 +5.6082887708554371e-03
-5.2999999999999998e+00 +8.1522033495966806e+00 +0.0000000000000000e+00 -5.2999999201695802e+00 -3.0709217830492085e-02 -5.6474626268794270e-01 +5.6083971139468001e-03
-5.4000000000000004e+00 +8.1521730037093203e+00 +0.0000000000000000e+00 -5.3999999155650800e+00 -3.0709089378703935e-02 -5.6474660676751776e-01 +5.6085086382984678e-03
-5.5000000000000000e+00 +8.1521420906137791e+00 +0.0000000000000000e+00 -5.4999999107868396e+00 -3.0708952777106269e-02 -5.6474696741010821e-01 +5.6086234538860590e-03
-5.5999999999999996e+00 +8.1521106102991308e+00 +0.0000000000000000e+00 -5.5999999058316599e+00 -3.0708808275819136e-02 -5.6474734532625270e-01 +5.6087416706819288e-03
-5.7000000000000002e+00 +8.1520785627762997e+00 +0.0000000000000000e+00 -5.6999999006963096e+00 -3.0708656124926240e-02 -5.6474774122637017e-01 +5.6088633986517257e-03
-5.7999999999999998e+00 +8.1520459480379905e+00 +0.0000000000000000e+00 -5.7999998953775700e+00 -3.0708496574490325e-02 -5.6474815582107329e-01 +5.6089887477573088e-03
-5.9000000000000004e+00 +8.1520127660915005e+00 +0.0000000000000000e+00 -5.8999998898722197e+00 -3.0708329874538361e-02 -5.6474858982091458e-01 +5.6091178279538785e-03
-5.9999999999999902e+00 +8.1519790169259103e+00 +0.0000000000000000e+00 -5.9999998841770603e+00 -3.0708156275073926e-02 -5.6474904393664405e-01 +5.6092507491923259e-03
-6.0999999999999899e+00 +8.1519447005521197e+00 +0.0000000000000000e+00 -6.0999998782888598e+00 -3.0707976094010499e-02 -5.6474951846591803e-01 +5.6093875608729752e-03
-6.1999999999999904e+00 +8.1519098169665103e+00 +0.0000000000000000e+00 -6.1999998722044003e+00 -3.0707789921040455e-02 -5.6475001205458741e-01 +5.6095280702200224e-03
-6.2999999999999901e+00 +8.1518743661654298e+00 +0.0000000000000000e+00 -6.2999998659204701e+00 -3.0707598413774444e-02 -5.6475052293546124e-01 +5.6096720239108772e-03
-6.3999999999999897e+00 +8.1518383481488907e+00 +0.0000000000000000e+00 -6.3999998594338496e+00 -3.0707402229787194e-02 -5.6475104934124976e-01 +5.6098191686192490e-03
-6.4999999999999902e+00 +8.1518017629241495e+00 +0.0000000000000000e+00 -6.4999998527413201e+00 -3.0707202026614880e-02 -5.6475158950453330e-01 +5.6099692510147231e-03
-6.5999999999999899e+00 +8.1517646104839496e+00 +0.0000000000000000e+00 -6.5999998458396698e+00 -3.0706998461762912e-02 -5.6475214165792820e-01 +5.6101220177643589e-03
-6.6999999999999904e+00 +8.1517268908319203e+00 +0.0000000000000000e+00 -6.6999998387256703e+00 -3.0706792192694263e-02 -5.6475270403388644e-01 +5.6102772155305356e-03
-6.7999999999999901e+00 +8.1516886039680703e+00 +0.0000000000000000e+00 -6.7999998313961196e+00 -3.0706583876834285e-02 -5.6475327486480487e-01 +5.6104345909719832e-03
-6.8999999999999897e+00 +8.1516497498923908e+00 +0.0000000000000000e+00 -6.8999998238477902e+00 -3.0706374171568053e-02 -5.6475385238299380e-01 +5.6105938907433563e-03
-6.9999999999999902e+00 +8.1516103286012402e+00 +0.0000000000000000e+00 -6.9999998160774597e+00 -3.0706163734240698e-02 -5.6475443482070276e-01 +5.6107548614953949e-03
-7.0999999999999899e+00 +8.1515703400982602e+00 +0.0000000000000000e+00 -7.0999998080819298e+00 -3.0705953222151659e-02 -5.6475502041003156e-01 +5.6109172498739176e-03
-7.1999999999999904e+00 +8.1515297843834595e+00 +0.0000000000000000e+00 -7.1999997998579603e+00 -3.0705743292558100e-02 -5.6475560738301223e-01 +5.6110808025205744e-03
-7.2999999999999901e+00 +8.1514886614531896e+00 +0.0000000000000000e+00 -7.2999997914023496e+00 -3.0705534602673678e-02 -5.6475619397160703e-01 +5.6112452660727003e-03
-7.3999999999999897e+00 +8.1514469713147300e+00 +0.0000000000000000e+00 -7.3999997827118804e+00 -3.0705327809661370e-02 -5.6475677840758998e-01 +5.6114103871620375e-03
-7.4999999999999902e+00 +8.1514047139571595e+00 +0.0000000000000000e+00 -7.4999997737833199e+00 -3.0705123570644317e-02 -5.6475735892277157e-01 +5.6115759124169056e-03
-7.5999999999999899e+00 +8.1513618893914099e+00 +0.0000000000000000e+00 -7.5999997646134698e+00 -3.0704922542688109e-02 -5.6475793374868366e-01 +5.6117415884589057e-03
-7.6999999999999904e+00 +8.1513184976138309e+00 +0.0000000000000000e+00 -7.6999997551991104e+00 -3.0704725382814636e-02 -5.6475850111686021e-01 +5.6119071619056705e-03
-7.7999999999999901e+00 +8.1512745386207808e+00 +0.0000000000000000e+00 -7.7999997455370096e+00 -3.0704532747994947e-02 -5.6475905925871950e-01 +5.6120723793695775e-03
-7.8999999999999897e+00 +8.1512300124159101e+00 +0.0000000000000000e+00 -7.8999997356239602e+00 -3.0704345295144972e-02 -5.6475960640550493e-01 +5.6122369874570454e-03
-7.9999999999999902e+00 +8.1511849189955701e+00 +0.0000000000000000e+00 -7.9999997254567399e+00 -3.0704163681130409e-02 -5.6476014078839543e-01 +5.6124007327695508e-03
-8.0999999999999908e+00 +8.1511392583670403e+00 +0.0000000000000000e+00 -8.0999997150321406e+00 -3.0703988432599742e-02 -5.6476066109477585e-01 +5.6125634399666674e-03
-8.1999999999999904e+00 +8.1510930305230396e+00 +0.0000000000000000e+00 -8.1999997043469399e+00 -3.0703819555557704e-02 -5.6476116783776564e-01 +5.6127252459679880e-03
-8.2999999999999901e+00 +8.1510462354672200e+00 +0.0000000000000000e+00 -8.2999996933979094e+00 -3.0703656925908152e-02 -5.6476166198690003e-01 +5.6128863657625054e-03
-8.3999999999999897e+00 +8.1509988731995708e+00 +0.0000000000000000e+00 -8.3999996821818605e+00 -3.0703500419634065e-02 -5.6476214451184104e-01 +5.6130470143449839e-03
-8.4999999999999893e+00 +8.1509509437164507e+00 +0.0000000000000000e+00 -8.4999996706955496e+00 -3.0703349912800292e-02 -5.6476261638238290e-01 +5.6132074067161619e-03
-8.5999999999999908e+00 +8.1509024470215099e+00 +0.0000000000000000e+00 -8.5999996589357703e+00 -3.0703205281551824e-02 -5.6476307856836971e-01 +5.6133677578820958e-03
-8.6999999999999904e+00 +8.1508533831147396e+00 +0.0000000000000000e+00 -8.6999996468993004e+00 -3.0703066402121174e-02 -5.6476353203978380e-01 +5.6135282828552379e-03
-8.7999999999999794e+00 +8.1508037519961398e+00 +0.0000000000000000e+00 -8.7999996345829192e+00 -3.0702933150829583e-02 -5.6476397776672238e-01 +5.6136891966543298e-03
-8.8999999999999808e+00 +8.1507535536620708e+00 +0.0000000000000000e+00 -8.8999996219834205e+00 -3.0702805404091427e-02 -5.6476441671942801e-01 +5.6138507143049287e-03
-8.9999999999999805e+00 +8.1507027881161793e+00 +0.0000000000000000e+00 -8.9999996090975891e+00 -3.0702683038412417e-02 -5.6476484986820830e-01 +5.6140130508387127e-03
-9.0999999999999801e+00 +8.1506514553584601e+00 +0.0000000000000000e+00 -9.0999995959221902e+00 -3.0702565930396955e-02 -5.6476527818352429e-01 +5.6141764212945793e-03
-9.1999999999999797e+00 +8.1505995553889097e+00 +0.0000000000000000e+00 -9.1999995824540193e+00 -3.0702453956749448e-02 -5.6476570263596571e-01 +5.6143410407185398e-03
-9.2999999999999794e+00 +8.1505470882038900e+00 +0.0000000000000000e+00 -9.2999995686898593e+00 -3.0702346994278571e-02 -5.6476612419628247e-01 +5.6145071241642235e-03
-9.3999999999999808e+00 +8.1504940538070496e+00 +0.0000000000000000e+00 -9.3999995546264898e+00 -3.0702244919895559e-02 -5.6476654383530445e-01 +5.6146748866922223e-03
-9.4999999999999805e+00 +8.1504404521983798e+00 +0.0000000000000000e+00 -9.4999995402606903e+00 -3.0702147610621521e-02 -5.6476696252402903e-01 +5.6148445433711327e-03
-9.5999999999999801e+00 +8.1503862833778804e+00 +0.0000000000000000e+00 -9.5999995255892507e+00 -3.0702054943588790e-02 -5.6476738123359749e-01 +5.6150163092775086e-03
-9.6999999999999797e+00 +8.1503315473419207e+00 +0.0000000000000000e+00 -9.6999995106089507e+00 -3.0701966796045102e-02 -5.6476780093532530e-01 +5.6151903994963196e-03
-9.7999999999999794e+00 +8.1502762440941297e+00 +0.0000000000000000e+00 -9.7999994953165697e+00 -3.0701883045352006e-02 -5.6476822260062332e-01 +5.6153670291203160e-03
-9.8999999999999808e+00 +8.1502203736345091e+00 +0.0000000000000000e+00 -9.8999994797088906e+00 -3.0701803568992082e-02 -5.6476864720108411e-01 +5.6155464132510730e-03
-9.9999999999999805e+00 +8.1501639359594300e+00 +0.0000000000000000e+00 -9.9999994637827001e+00 -3.0701728244571784e-02 -5.6476907570848600e-01 +5.6157287669992093e-03
-1.0100000000000000e+01 +8.1501069310761505e+00 +0.0000000000000000e+00 -1.0099999447534801e+01 -3.0701656981805547e-02 -5.6476950892416111e-01 +5.6159142262879741e-03
-1.0199999999999999e+01 +8.1500493589774106e+00 +0.0000000000000000e+00 -1.0199999430961901e+01 -3.0701589818436219e-02 -5.6476994696753680e-01 +5.6161026102603566e-03
-1.0300000000000001e+01 +8.1499912196668394e+00 +0.0000000000000000e+00 -1.0299999414060901e+01 -3.0701526824162800e-02 -5.6477038978739291e-01 +5.6162936588597815e-03
-1.0400000000000000e+01 +8.1499325131444493e+00 +0.0000000000000000e+00 -1.0399999396828500e+01 -3.0701468068642674e-02 -5.6477083733248168e-01 +5.6164871120283170e-03
-1.0500000000000000e+01 +8.1498732394065900e+00 +0.0000000000000000e+00 -1.0499999379261400e+01 -3.0701413621490196e-02 -5.6477128955152922e-01 +5.6166827097066238e-03
-1.0600000000000000e+01 +8.1498133984568994e+00 +0.0000000000000000e+00 -1.0599999361356600e+01 -3.0701363552270818e-02 -5.6477174639314576e-01 +5.6168801918330255e-03
-1.0699999999999999e+01 +8.1497529902953794e+00 +0.0000000000000000e+00 -1.0699999343110701e+01 -3.0701317930504197e-02 -5.6477220780591120e-01 +5.6170792983443229e-03
-1.0800000000000001e+01 +8.1496920149220404e+00 +0.0000000000000000e+00 -1.0799999324520600e+01 -3.0701276825661324e-02 -5.6477267373834417e-01 +5.6172797691754518e-03
-1.0900000000000000e+01 +8.1496304723332305e+00 +0.0000000000000000e+00 -1.0899999305583000e+01 -3.0701240307164614e-02 -5.6477314413892776e-01 +5.6174813442597116e-03
-1.1000000000000000e+01 +8.1495683625325892e+00 +0.0000000000000000e+00 -1.0999999286294800e+01 -3.0701208444382018e-02 -5.6477361895602529e-01 +5.6176837635278417e-03
-1.1100000000000000e+01 +8.1495056855201309e+00 +0.0000000000000000e+00 -1.1099999266652601e+01 -3.0701181306630201e-02 -5.6477409813796065e-01 +5.6178867669088505e-03
-1.1199999999999999e+01 +8.1494424412958306e+00 +0.0000000000000000e+00 -1.1199999246653300e+01 -3.0701158963171576e-02 -5.6477458163299044e-01 +5.6180900943296405e-03
-1.1300000000000001e+01 +8.1493786298560700e+00 +0.0000000000000000e+00 -1.1299999226293700e+01 -3.0701141483214490e-02 -5.6477506938932931e-01 +5.6182934857152735e-03
-1.1400000000000000e+01 +8.1493142512044905e+00 +0.0000000000000000e+00 -1.1399999205570500e+01 -3.0701128935907259e-02 -5.6477556135506313e-01 +5.6184966809880270e-03
-1.1500000000000000e+01 +8.1492493053447106e+00 +0.0000000000000000e+00 -1.1499999184480499e+01 -3.0701121390339890e-02 -5.6477605747820558e-01 +5.6186994200679383e-03
-1.1600000000000000e+01 +8.1491837922658306e+00 +0.0000000000000000e+00 -1.1599999163020600e+01 -3.0701118915548657e-02 -5.6477655770680812e-01 +5.6189014428738842e-03
-1.1699999999999999e+01 +8.1491177119787608e+00 +0.0000000000000000e+00 -1.1699999141187400e+01 -3.0701121580499695e-02 -5.6477706198867528e-01 +5.6191024893206595e-03
