# multipoles
# s[mm] polynom_b[n=0][T/m^n] polynom_b[n=1][T/m^n] polynom_b[n=2][T/m^n] polynom_b[n=3][T/m^n] polynom_b[n=4][T/m^n] polynom_b[n=5][T/m^n] polynom_b[n=6][T/m^n] 
+0.0000000000000000e+00 -5.3885951828873513e-01 +7.3617738923753482e+00 -6.2154881212989577e-01 -2.0782741850545460e+01 +2.9644232084163455e+03 -4.8533103514729490e+04 -1.3116328020922363e+07 
+1.0000000000000001e-01 -5.3885981228053381e-01 +7.3617908357519433e+00 -6.3391714038018621e-01 -2.0612673337352550e+01 +3.1355982219494863e+03 -4.9987195855744700e+04 -1.3725357187666012e+07 
+2.0000000000000001e-01 -5.3886010811195728e-01 +7.3618088351331279e+00 -6.4584080357019868e-01 -2.0476100178642454e+01 +3.3041811123692632e+03 -5.1298308097440386e+04 -1.4340085202026822e+07 
+3.0000000000000004e-01 -5.3886040684461323e-01 +7.3618279188468589e+00 -6.5728078784192734e-01 -2.0373864990997077e+01 +3.4693592989857207e+03 -5.2458510939249383e+04 -1.4956568366999241e+07 
+4.0000000000000002e-01 -5.3886070954008991e-01 +7.3618481152219362e+00 -6.6819808206878373e-01 -2.0306810438432393e+01 +3.6303202567731869e+03 -5.3459874639106543e+04 -1.5570863260744762e+07 
+5.0000000000000000e-01 -5.3886101726000257e-01 +7.3618694525751147e+00 -6.7855367185630022e-01 -2.0275778859278844e+01 +3.7862514032760155e+03 -5.4294471178414875e+04 -1.6179026202846257e+07 
+5.9999999999999998e-01 -5.3886133106595913e-01 +7.3618919592182683e+00 -6.8830854373931871e-01 -2.0281612471795636e+01 +3.9363401766375891e+03 -5.4954373072391543e+04 -1.6777113619984481e+07 
+6.9999999999999996e-01 -5.3886165201956771e-01 +7.3619156634624519e+00 -6.9742368420216738e-01 -2.0325153485651970e+01 +4.0797740153148957e+03 -5.5431652755966024e+04 -1.7361181945240159e+07 
+7.9999999999999993e-01 -5.3886198118244821e-01 +7.3619405936085807e+00 -7.0586007839197673e-01 -2.0407243834642362e+01 +4.2157403360315120e+03 -5.5718384119652532e+04 -1.7927287520713337e+07 
+8.9999999999999991e-01 -5.3886231961623476e-01 +7.3619667779514577e+00 -7.1357870981599780e-01 -2.0528725292386000e+01 +4.3434265271457298e+03 -5.5806641844422295e+04 -1.8471486563234087e+07 
+9.9999999999999989e-01 -5.3886266838256114e-01 +7.3619942447806475e+00 -7.2054056193162574e-01 -2.0690439483004052e+01 +4.4620199775000856e+03 -5.5688501389339966e+04 -1.8989835298670851e+07 
+1.0999999999999999e+00 -5.3886302854306756e-01 +7.3620230223803249e+00 -7.2670661742637177e-01 -2.0893227881844101e+01 +4.5707080634837075e+03 -5.5356038970216701e+04 -1.9478389902957994e+07 
+1.2000000000000000e+00 -5.3886340115940901e-01 +7.3620531390249688e+00 -7.3203785701604529e-01 -2.1137931691982683e+01 +4.6686781237409750e+03 -5.4801332276833316e+04 -1.9933206374588057e+07 
+1.3000000000000000e+00 -5.3886378729323814e-01 +7.3620846229824535e+00 -7.3649526201026239e-01 -2.1425391931516153e+01 +4.7551175120295611e+03 -5.4016459978111634e+04 -2.0350340797954854e+07 
+1.4000000000000001e+00 -5.3886418800623070e-01 +7.3621175025177159e+00 -7.4003981045238332e-01 -2.1756449521525365e+01 +4.8292135186343594e+03 -5.2993501262393365e+04 -2.0725848956385132e+07 
+1.5000000000000002e+00 -5.3886460436006578e-01 +7.3621518058827711e+00 -7.4263248046793173e-01 -2.2131945014118802e+01 +4.8901534390843262e+03 -5.1724537373595180e+04 -2.1055786671160966e+07 
+1.6000000000000003e+00 -5.3886503741640635e-01 +7.3621875613275769e+00 -7.4423425135363563e-01 -2.2552718895160702e+01 +4.9371245878353557e+03 -5.0201649884588245e+04 -2.1336209851715587e+07 
+1.7000000000000004e+00 -5.3886548823698466e-01 +7.3622247970884018e+00 -7.4480609440379630e-01 -2.3019611243181235e+01 +4.9693141294986399e+03 -4.8416922696900823e+04 -2.1563173702329412e+07 
+1.8000000000000005e+00 -5.3886595788348202e-01 +7.3622635414004591e+00 -7.4430898698465719e-01 -2.3533462096110767e+01 +4.9859093439826102e+03 -4.6362439911858033e+04 -2.1732733983112130e+07 
+1.9000000000000006e+00 -5.3886644741764045e-01 +7.3623038224842565e+00 -7.4270389896445588e-01 -2.4095111057752131e+01 +4.9860973693466149e+03 -4.4030288111464135e+04 -2.1840945785951965e+07 
+2.0000000000000004e+00 -5.3886695790118322e-01 +7.3623456685563555e+00 -7.3995180207255062e-01 -2.4705397588450460e+01 +4.9690653752132303e+03 -4.1412554728802250e+04 -2.1883864348579869e+07 
+2.1000000000000005e+00 -5.3886748999377077e-01 +7.3623890474351112e+00 -7.3603600461812690e-01 -2.5363550852850636e+01 +4.9343588048792853e+03 -3.8510486375731176e+04 -2.1859032149494670e+07 
+2.2000000000000006e+00 -5.3886804274220523e-01 +7.3624336852035581e+00 -7.3102898980133557e-01 -2.6062379384442803e+01 +4.8829474848545478e+03 -3.5362009894348848e+04 -2.1769881022880714e+07 
+2.3000000000000007e+00 -5.3886861478886905e-01 +7.3624792474655472e+00 -7.2502550008703370e-01 -2.6793091239339731e+01 +4.8161553480071307e+03 -3.2014236574183964e+04 -2.1621301041436538e+07 
+2.4000000000000008e+00 -5.3886920477613343e-01 +7.3625253998240749e+00 -7.1812027813937973e-01 -2.7546894423376916e+01 +4.7353063203563888e+03 -2.8514278079828178e+04 -2.1418182212920669e+07 
+2.5000000000000009e+00 -5.3886981134635126e-01 +7.3625718078849411e+00 -7.1040806878993767e-01 -2.8314997000173705e+01 +4.6417243643500533e+03 -2.4909245829518652e+04 -2.1165414701169599e+07 
+2.6000000000000010e+00 -5.3887043314184691e-01 +7.3626181372635084e+00 -7.0198361975239898e-01 -2.9088607269983857e+01 +4.5367334866705851e+03 -2.1246250009764477e+04 -2.0867888844438553e+07 
+2.7000000000000011e+00 -5.3887106880493341e-01 +7.3626640535721366e+00 -6.9294167953128061e-01 -2.9858933423078518e+01 +4.4216577027332969e+03 -1.7572401545562436e+04 -2.0530495000678111e+07 
+2.8000000000000012e+00 -5.3887171697787806e-01 +7.3627092224352886e+00 -6.8337700164348480e-01 -3.0617183964541042e+01 +4.2978211097192006e+03 -1.3934809685894852e+04 -2.0158123871242922e+07 
+2.9000000000000012e+00 -5.3887237630294516e-01 +7.3627533094846269e+00 -6.7338433921102026e-01 -3.1354567563456133e+01 +4.1665477892296649e+03 -1.0380582908440972e+04 -1.9755666054403450e+07 
+3.0000000000000013e+00 -5.3887304542232650e-01 +7.3627959803571352e+00 -6.6305845367497696e-01 -3.2062293013886858e+01 +4.0291619678550696e+03 -6.9568291113927344e+03 -1.9328012793185554e+07 
+3.1000000000000014e+00 -5.3887372297821690e-01 +7.3628369007008567e+00 -6.5249410554747211e-01 -3.2731569380468656e+01 +3.8869878452019207e+03 -3.7106548368091449e+03 -1.8880055166752748e+07 
+3.2000000000000015e+00 -5.3887440761275629e-01 +7.3628757361736437e+00 -6.4178606071921107e-01 -3.3353605966261050e+01 +3.7413497053248457e+03 -6.8916545037013145e+02 -1.8416684597596604e+07 
+3.3000000000000016e+00 -5.3887509796804511e-01 +7.3629121524449683e+00 -6.3102908965255067e-01 -3.3919612371930199e+01 +3.5935719086501349e+03 +2.0605352029842775e+03 -1.7942792830701750e+07 
+3.4000000000000017e+00 -5.3887579268614128e-01 +7.3629458151940996e+00 -6.2031796674766115e-01 -3.4420798423098091e+01 +3.4449788744981915e+03 +4.4913443252788775e+03 -1.7463271837130904e+07 
+3.5000000000000018e+00 -5.3887649040906505e-01 +7.3629763901152838e+00 -6.0974747071111657e-01 -3.4848374333359395e+01 +3.2968950919761796e+03 +6.5561611294648492e+03 -1.6983013872524455e+07 
+3.6000000000000019e+00 -5.3887718977878185e-01 +7.3630035429158696e+00 -5.9941238508179184e-01 -3.5193550641527835e+01 +3.1506451195103896e+03 +8.2078864447815249e+03 -1.6506911448641645e+07 
+3.7000000000000020e+00 -5.3887788943720982e-01 +7.3630269393203998e+00 -5.8940749902970169e-01 -3.5447538316491482e+01 +3.0075536113445655e+03 +9.3994232821687438e+03 -1.6039857486731613e+07 
+3.8000000000000020e+00 -5.3887858802619160e-01 +7.3630462450653411e+00 -5.7982760971389991e-01 -3.5601548632148003e+01 +2.8689453545646884e+03 +1.0083676171624076e+04 -1.5586745474335756e+07 
+3.9000000000000021e+00 -5.3887928418755604e-01 +7.3630611259031840e+00 -5.7076751447380214e-01 -3.5646793249761863e+01 +2.7361451174264812e+03 +1.0213551535451381e+04 -1.5152468730858402e+07 
+4.0000000000000018e+00 -5.3887997656303621e-01 +7.3630712476137292e+00 -5.6232202178630430e-01 -3.5574484563456330e+01 +2.6104778656148014e+03 +9.7419597279240879e+03 -1.4741921461086359e+07 
+4.1000000000000014e+00 -5.3888066400973900e-01 +7.3630763739387195e+00 -5.5456613915219077e-01 -3.5378334206246443e+01 +2.4929817279831045e+03 +8.6347726981706273e+03 -1.4358837023343265e+07 
+4.2000000000000011e+00 -5.3888134625496542e-01 +7.3630766582301561e+00 -5.4749709671821334e-01 -3.5062089919676303e+01 +2.3835907529728274e+03 +6.9100058790804142e+03 -1.4002536254638104e+07 
+4.3000000000000007e+00 -5.3888202324579493e-01 +7.3630723507905689e+00 -5.4109302647598256e-01 -3.4632021785148467e+01 +2.2819737196482947e+03 +4.5988026356151568e+03 -1.3671294413605770e+07 
+4.4000000000000004e+00 -5.3888269492930529e-01 +7.3630637019280467e+00 -5.3533206048247861e-01 -3.4094400055010482e+01 +2.1877994111676726e+03 +1.7323071859087804e+03 -1.3363386789466286e+07 
+4.5000000000000000e+00 -5.3888336125259595e-01 +7.3630509619514859e+00 -5.3019232847424358e-01 -3.3455495023494372e+01 +2.1007365753500567e+03 -1.6583361131706545e+03 -1.3077088532607766e+07 
+4.5999999999999996e+00 -5.3888402216274967e-01 +7.3630343811805412e+00 -5.2565196347514553e-01 -3.2721577293749071e+01 +2.0204540354892756e+03 -5.5419812888859697e+03 -1.2810675193271043e+07 
+4.6999999999999993e+00 -5.3888467760689618e-01 +7.3630142099323130e+00 -5.2168909214113723e-01 -3.1898917428423921e+01 +1.9466204979325685e+03 -9.8874826789233393e+03 -1.2562421783158079e+07 
+4.7999999999999989e+00 -5.3888532753216312e-01 +7.3629906985308029e+00 -5.1828184304343217e-01 -3.0993786202274389e+01 +1.8789047217644270e+03 -1.4663693538638317e+04 -1.2330603615421532e+07 
+4.8999999999999986e+00 -5.3888597188569276e-01 +7.3629640973025987e+00 -5.1540834304782146e-01 -3.0012454481914517e+01 +1.8169754432721411e+03 -1.9839466724782495e+04 -1.2113495929323744e+07 
+4.9999999999999982e+00 -5.3888661061464260e-01 +7.3629346565777061e+00 -5.1304671823413195e-01 -2.8961193259518534e+01 +1.7605013977557726e+03 -2.5383654488312524e+04 -1.1909374004291199e+07 
+5.0999999999999979e+00 -5.3888724366620089e-01 +7.3629026266908131e+00 -5.1117509127682981e-01 -2.7846273688302798e+01 +1.7091512682604118e+03 -3.1265108273343543e+04 -1.1716512914705582e+07 
+5.1999999999999975e+00 -5.3888787098757340e-01 +7.3628682579768050e+00 -5.0977158375815912e-01 -2.6673966951532915e+01 +1.6625937319779416e+03 -3.7452679483041982e+04 -1.1533187755877946e+07 
+5.2999999999999972e+00 -5.3888849252599214e-01 +7.3628318007805964e+00 -5.0881431486915896e-01 -2.5450544555001716e+01 +1.6204974366034621e+03 -4.3915217780255720e+04 -1.1357673536159538e+07 
+5.3999999999999968e+00 -5.3888910822868241e-01 +7.3627935054460973e+00 -5.0828140539887356e-01 -2.4182278008342799e+01 +1.5825310748107947e+03 -5.0621572928999056e+04 -1.1188245528291758e+07 
+5.4999999999999964e+00 -5.3888971804294616e-01 +7.3627536223200014e+00 -5.0815096825604833e-01 -2.2875438928751645e+01 +1.5483632116121819e+03 -5.7540594222152125e+04 -1.1023178468084458e+07 
+5.5999999999999961e+00 -5.3889032191608321e-01 +7.3627124017539023e+00 -5.0840111674238131e-01 -2.1536299120244234e+01 +1.5176624308566288e+03 -6.4641129972348754e+04 -1.0860747224045889e+07 
+5.6999999999999957e+00 -5.3889091979542436e-01 +7.3626700941055718e+00 -5.0900996228393847e-01 -2.0171130596923888e+01 +1.4900973048283481e+03 -7.1892027432738469e+04 -1.0699226686204787e+07 
+5.7999999999999954e+00 -5.3889151162833970e-01 +7.3626269497336985e+00 -5.0995561208047047e-01 -1.8786205443635087e+01 +1.4653363428851324e+03 -7.9262133565375392e+04 -1.0536891505975123e+07 
+5.8999999999999950e+00 -5.3889209736220922e-01 +7.3625832189988731e+00 -5.1121617366026140e-01 -1.7387795842234290e+01 +1.4430480828926095e+03 -8.6720294908259151e+04 -1.0372016543628668e+07 
+5.9999999999999947e+00 -5.3889267694448451e-01 +7.3625391522639543e+00 -5.1276974679377652e-01 -1.5982174078930989e+01 +1.4229009367731117e+03 -9.4235357567858591e+04 -1.0202876135548472e+07 
+6.0999999999999943e+00 -5.3889325043638248e-01 +7.3624949688531727e+00 -5.1459723773720878e-01 -1.4574922846799970e+01 +1.4046722681346516e+03 -1.0177926234337346e+05 -1.0028489375557121e+07 
+6.1999999999999940e+00 -5.3889381835820993e-01 +7.3624507763427323e+00 -5.1668900232862702e-01 -1.3169233826858974e+01 +1.3885373279065241e+03 -1.0933353391610019e+05 -9.8506846058313623e+06 
+6.2999999999999936e+00 -5.3889438134625167e-01 +7.3624066573852609e+00 -5.1903731772770445e-01 -1.1767791067593546e+01 +1.3747617245269594e+03 -1.1688139536973005e+05 -9.6719543635915071e+06 
+6.3999999999999932e+00 -5.3889494003680827e-01 +7.3623626946213445e+00 -5.2163445954741905e-01 -1.0373278361309122e+01 +1.3636110391664809e+03 -1.2440607075110698e+05 -9.4947910718643405e+06 
+6.4999999999999929e+00 -5.3889549506620726e-01 +7.3623189706850276e+00 -5.2447269944505825e-01 -8.9883794232968821e+00 +1.3553507775467735e+03 -1.3189078403526868e+05 -9.3216868008784503e+06 
+6.5999999999999925e+00 -5.3889604707079597e-01 +7.3622755681988927e+00 -5.2754430611440517e-01 -7.6157777275455940e+00 +1.3502463847829451e+03 -1.3931876011036572e+05 -9.1551333255669456e+06 
+6.6999999999999922e+00 -5.3889659668695944e-01 +7.3622325697769950e+00 -5.3084154328341193e-01 -6.2581566109745044e+00 +1.3485632120805615e+03 -1.4667322412068292e+05 -8.9976219819984157e+06 
+6.7999999999999918e+00 -5.3889714455109772e-01 +7.3621900580212953e+00 -5.3435667247992047e-01 -4.9181991718133453e+00 +1.3505665678312594e+03 -1.5393740202830639e+05 -8.8516439062191974e+06 
+6.8999999999999915e+00 -5.3889769129964105e-01 +7.3621481155210375e+00 -5.3808195098153466e-01 -3.5985882539614518e+00 +1.3565216761351830e+03 -1.6109452069480950e+05 -8.7196898290025666e+06 
+6.9999999999999911e+00 -5.3889823756906807e-01 +7.3621068248552319e+00 -5.4200962970666655e-01 -2.3020065200482591e+00 +1.3666936399743156e+03 -1.6812780743571330e+05 -8.6042499110976215e+06 
+7.0999999999999908e+00 -5.3889878399583824e-01 +7.3620662685919926e+00 -5.4613196127367181e-01 -1.0311364394257101e+00 +1.3813475917898470e+03 -1.7502049006105226e+05 -8.5078144534102958e+06 
+7.1999999999999904e+00 -5.3889933121648503e-01 +7.3620265292813611e+00 -5.5044118892796978e-01 +2.1133991868094959e-01 +1.4007484837597551e+03 -1.8175579805928117e+05 -8.4328728982047029e+06 
+7.2999999999999901e+00 -5.3889987986756549e-01 +7.3619876894635272e+00 -5.5492955240332409e-01 +1.4227406302876213e+00 +1.4251612004959941e+03 -1.8831696106038083e+05 -8.3819143726399476e+06 
+7.3999999999999897e+00 -5.3890043058566206e-01 +7.3619498316656502e+00 -5.5958928781007111e-01 +2.6003840323806129e+00 +1.4548505541597822e+03 -1.9468720956049225e+05 -8.3574276554967994e+06 
+7.4999999999999893e+00 -5.3890098400738962e-01 +7.3619130383983507e+00 -5.6441262662603098e-01 +3.7415887924824336e+00 +1.4900812668299268e+03 -2.0084977522600658e+05 -8.3619010997009911e+06 
+7.5999999999999890e+00 -5.3890154076939201e-01 +7.3618773921581759e+00 -5.6939179613902047e-01 +4.8436738539696620e+00 +1.5311179768966142e+03 -2.0678789060671034e+05 -8.3978226554675791e+06 
+7.6999999999999886e+00 -5.3890210150837625e-01 +7.3618429754260140e+00 -5.7451901552281159e-01 +5.9039584593216086e+00 +1.5782251691688434e+03 -2.1248478920167111e+05 -8.4676795528556295e+06 
+7.7999999999999883e+00 -5.3890266686104926e-01 +7.3618098706670123e+00 -5.7978650305976687e-01 +6.9197621709266635e+00 +1.6316673047977938e+03 -2.1792370561253003e+05 -8.5739588976368271e+06 
+7.8999999999999879e+00 -5.3890323746417590e-01 +7.3617781603293517e+00 -5.8518646956580711e-01 +7.8884048810976388e+00 +1.6917087032377460e+03 -2.2308787552536349e+05 -8.7191471305929348e+06 
+7.9999999999999876e+00 -5.3890381395456199e-01 +7.3617479268465642e+00 -5.9071111989468728e-01 +8.8072067470111453e+00 +1.7586135643432219e+03 -2.2796053531952348e+05 -8.9057301137365066e+06 
+8.0999999999999872e+00 -5.3890439680644264e-01 +7.3617192588927605e+00 -5.9635256454003149e-01 +9.6735219281762976e+00 +1.8325258384797669e+03 -2.3252551746617255e+05 -9.1353435948357433e+06 
+8.1999999999999869e+00 -5.3890498583476754e-01 +7.3616922491987005e+00 -6.0210400961043820e-01 +1.0485579426505540e+01 +1.9131274065953507e+03 -2.3677356563654516e+05 -9.4062872014526930e+06 
+8.2999999999999865e+00 -5.3890558068719008e-01 +7.3616669862662372e+00 -6.0795926443098158e-01 +1.1242014724444616e+01 +1.9999875060195163e+03 -2.4069830459351826e+05 -9.7160304949162006e+06 
+8.3999999999999861e+00 -5.3890618101137011e-01 +7.3616435585997930e+00 -6.1391213985301396e-01 +1.1941463369967199e+01 +2.0926754181771785e+03 -2.4429335982184223e+05 -1.0062043290778618e+07 
+8.4999999999999858e+00 -5.3890678645499857e-01 +7.3616220547110274e+00 -6.1995644309949716e-01 +1.2582560838406843e+01 +2.1907603572326943e+03 -2.4755235673035387e+05 -1.0441795094508789e+07 
+8.5999999999999854e+00 -5.3890739666580878e-01 +7.3616025631100213e+00 -6.2608597779792208e-01 +1.3163942792484074e+01 +2.2938114797533926e+03 -2.5046892216816600e+05 -1.0852755170640793e+07 
+8.6999999999999851e+00 -5.3890801129156796e-01 +7.3615851723172128e+00 -6.3229454439446553e-01 +1.3684244735493175e+01 +2.4013978896726608e+03 -2.5303668241936117e+05 -1.1292392559939198e+07 
+8.7999999999999847e+00 -5.3890862998003863e-01 +7.3615699708534796e+00 -6.3857594509266347e-01 +1.4142102308081688e+01 +2.5130887316007356e+03 -2.5524926494118042e+05 -1.1758176520888669e+07 
+8.8999999999999844e+00 -5.3890925237905218e-01 +7.3615570472440774e+00 -6.4492397488714681e-01 +1.4536151176166637e+01 +2.6284530221644418e+03 -2.5710029772666661e+05 -1.2247575731900586e+07 
+8.9999999999999840e+00 -5.3890987813645708e-01 +7.3615464900223708e+00 -6.5133242827142357e-01 +1.4865026925702338e+01 +2.7470597795259491e+03 -2.5858340869882677e+05 -1.2758058913948072e+07 
+9.0999999999999837e+00 -5.3891050690013986e-01 +7.3615383877220042e+00 -6.5779509606328834e-01 +1.5127365308010049e+01 +2.8684779595171422e+03 -2.5969222718211391e+05 -1.3287094517024018e+07 
+9.1999999999999833e+00 -5.3891113831801496e-01 +7.3615328288831234e+00 -6.6430576681082876e-01 +1.5321802040052793e+01 +2.9922764818283777e+03 -2.6042038269395736e+05 -1.3832150842570907e+07 
+9.2999999999999829e+00 -5.3891177203801777e-01 +7.3615299020532001e+00 -6.7085822845846232e-01 +1.5446972814561551e+01 +3.1180242684604709e+03 -2.6076150510209450e+05 -1.4390696245436214e+07 
+9.3999999999999826e+00 -5.3891240770813131e-01 +7.3615296957814991e+00 -6.7744626421831533e-01 +1.5501513441022245e+01 +3.2452901598316316e+03 -2.6070922537537452e+05 -1.4960198720728796e+07 
+9.4999999999999822e+00 -5.3891304497638437e-01 +7.3615322986246818e+00 -6.8406365298273253e-01 +1.5484059701052486e+01 +3.3736429220158157e+03 -2.6025717480823697e+05 -1.5538125934945712e+07 
+9.5999999999999819e+00 -5.3891368349080526e-01 +7.3615377991477375e+00 -6.9070417529963390e-01 +1.5393247324860987e+01 +3.5026513643485796e+03 -2.5939898488578395e+05 -1.6121945798388131e+07 
+9.6999999999999815e+00 -5.3891432289950114e-01 +7.3615462859147511e+00 -6.9736160364700039e-01 +1.5227712263276064e+01 +3.6318841530140949e+03 -2.5812828887333887e+05 -1.6709125572262641e+07 
+9.7999999999999812e+00 -5.3891496285058860e-01 +7.3615578475016727e+00 -7.0402971110560397e-01 +1.4986090316282652e+01 +3.7609099775880668e+03 -2.5643871966365355e+05 -1.7297132667041332e+07 
+9.8999999999999808e+00 -5.3891560299221353e-01 +7.3615725724879812e+00 -7.1070226817176241e-01 +1.4667017388699794e+01 +3.8892974860617614e+03 -2.5432391129318386e+05 -1.7883434321717225e+07 
+9.9999999999999805e+00 -5.3891624297258622e-01 +7.3615905494583478e+00 -7.1737303981300371e-01 +1.4269129457391072e+01 +4.0166152378542506e+03 -2.5177749872878077e+05 -1.8465497397313703e+07 
+1.0099999999999980e+01 -5.3891688254831349e-01 +7.3616118092801930e+00 -7.2403278345591915e-01 +1.3792399513581517e+01 +4.1424480616113551e+03 -2.4880029255916673e+05 -1.9040964120644581e+07 
