# multipoles
# s[mm] polynom_b[n=0][T/m^n] polynom_b[n=1][T/m^n] polynom_b[n=2][T/m^n] polynom_b[n=3][T/m^n] polynom_b[n=4][T/m^n] polynom_b[n=5][T/m^n] polynom_b[n=6][T/m^n] 
+0.0000000000000000e+00 -5.9238255151442876e-01 +8.1126020022767040e+00 -9.9190499561162648e-01 -4.8403323810780847e+01 +1.4036749288830622e+04 +1.0553892166978920e+05 -6.9366410058427885e+07 
+1.0000000000000001e-01 -5.9238246519585136e-01 +8.1125898251087083e+00 -9.9874261818258347e-01 -4.7874379386164534e+01 +1.4122497776810569e+04 +1.0197507450190962e+05 -6.9575422564202964e+07 
+2.0000000000000001e-01 -5.9238239571495721e-01 +8.1125762730830218e+00 -1.0049155377289549e+00 -4.7315132208573523e+01 +1.4200148377305180e+04 +9.8312303859462569e+04 -6.9759121560603142e+07 
+3.0000000000000004e-01 -5.9238234259918721e-01 +8.1125616009858330e+00 -1.0104316999137046e+00 -4.6732274132418155e+01 +1.4269718016598554e+04 +9.4584298450768794e+04 -6.9917346607526213e+07 
+4.0000000000000002e-01 -5.9238230537599923e-01 +8.1125460635937152e+00 -1.0152990482783046e+00 -4.6132496746142905e+01 +1.4331223575999169e+04 +9.0824745542090750e+04 -7.0049937039218202e+07 
+5.0000000000000000e-01 -5.9238228357282552e-01 +8.1125299156846751e+00 -1.0195255288167888e+00 -4.5522491695196273e+01 +1.4384681978554827e+04 +8.7067332824584897e+04 -7.0156732379279003e+07 
+5.9999999999999998e-01 -5.9238227671711496e-01 +8.1125134120252813e+00 -1.0231190855981558e+00 -4.4908950294893977e+01 +1.4430110109871550e+04 +8.3345746136718284e+04 -7.0237571973241121e+07 
+6.9999999999999996e-01 -5.9238228433633122e-01 +8.1124968073845647e+00 -1.0260876609280301e+00 -4.4298563963656285e+01 +1.4467524820877881e+04 +7.9693672059784018e+04 -7.0292295000216126e+07 
+7.9999999999999993e-01 -5.9238230595794383e-01 +8.1124803565242640e+00 -1.0284391959553831e+00 -4.3698023898040013e+01 +1.4496942937663567e+04 +7.6144795913285881e+04 -7.0320740518229142e+07 
+8.9999999999999991e-01 -5.9238234110939825e-01 +8.1124643142007891e+00 -1.0301816347496218e+00 -4.3114021150761552e+01 +1.4518381341090926e+04 +7.2732802269793377e+04 -7.0322747846652165e+07 
+9.9999999999999989e-01 -5.9238238931818543e-01 +8.1124489351711926e+00 -1.0313229158085175e+00 -4.2553246807618748e+01 +1.4531856807956528e+04 +6.9491375984226979e+04 -7.0298155819981202e+07 
+1.0999999999999999e+00 -5.9238245011180624e-01 +8.1124344741833436e+00 -1.0318709765826501e+00 -4.2022391684411801e+01 +1.4537386095570659e+04 +6.6454200390950617e+04 -7.0246803183630779e+07 
+1.2000000000000000e+00 -5.9238252301775340e-01 +8.1124211859868645e+00 -1.0318337552372703e+00 -4.1528146644415749e+01 +1.4534985976584265e+04 +6.3654959147953137e+04 -7.0168528767401338e+07 
+1.3000000000000000e+00 -5.9238260756355943e-01 +8.1124093253236929e+00 -1.0312191856824131e+00 -4.1077202331057997e+01 +1.4524673148313592e+04 +6.1127334690682503e+04 -7.0063171062637106e+07 
+1.4000000000000001e+00 -5.9238270327675258e-01 +8.1123991469343615e+00 -1.0300352017704655e+00 -4.0676249352432201e+01 +1.4506464304386604e+04 +5.8905009327536740e+04 -6.9930568540144771e+07 
+1.5000000000000002e+00 -5.9238280968491475e-01 +8.1123909055574384e+00 -1.0282897314631174e+00 -4.0331978242114374e+01 +1.4480376036413205e+04 +5.7021664927891594e+04 -6.9770559219789743e+07 
+1.6000000000000003e+00 -5.9238292631558354e-01 +8.1123848559244855e+00 -1.0259907082813451e+00 -4.0051079330925162e+01 +1.4446425043876834e+04 +5.5510982246556385e+04 -6.9582981645918950e+07 
+1.7000000000000004e+00 -5.9238305269640079e-01 +8.1123812527694525e+00 -1.0231460526451464e+00 -3.9840243011227678e+01 +1.4404627781342269e+04 +5.4406642419271244e+04 -6.9367673215825945e+07 
+1.8000000000000005e+00 -5.9238318835498416e-01 +8.1123803508184142e+00 -1.0197636889570327e+00 -3.9706159435377785e+01 +1.4355000789082034e+04 +5.3742325206689893e+04 -6.9124471767929405e+07 
+1.9000000000000006e+00 -5.9238333281898381e-01 +8.1123824047978488e+00 -1.0158515378981612e+00 -3.9655518748699066e+01 +1.4297560543926957e+04 +5.3551710332612078e+04 -6.8853214866287947e+07 
+2.0000000000000004e+00 -5.9238348561608856e-01 +8.1123876694304489e+00 -1.0114175147454385e+00 -3.9695010983235420e+01 +1.4232323421299672e+04 +5.3868476899528672e+04 -6.8553739603861168e+07 
+2.1000000000000005e+00 -5.9238364620112849e-01 +8.1123963067748175e+00 -1.0064784650309035e+00 -3.9828930061686506e+01 +1.4159460987550125e+04 +5.4713752276372259e+04 -6.8226555724731266e+07 
+2.2000000000000006e+00 -5.9238381373171034e-01 +8.1124081096138632e+00 -1.0010865111406901e+00 -4.0052009601814468e+01 +1.4079749438524997e+04 +5.6058525671503732e+04 -6.7874774000806615e+07 
+2.3000000000000007e+00 -5.9238398728967934e-01 +8.1124227787329524e+00 -9.9530248782424047e-01 -4.0356598360669388e+01 +1.3994112192494593e+04 +5.7861264670378820e+04 -6.7502133563031152e+07 
+2.4000000000000008e+00 -5.9238416595692001e-01 +8.1124400149205087e+00 -9.8918722406932669e-01 -4.0735045165944982e+01 +1.3903472550789049e+04 +6.0080437243771150e+04 -6.7112372964542806e+07 
+2.5000000000000009e+00 -5.9238434881527202e-01 +8.1124595189642825e+00 -9.8280155512379130e-01 -4.1179698817855801e+01 +1.3808753938631342e+04 +6.2674511199384797e+04 -6.6709231361804545e+07 
+2.6000000000000010e+00 -5.9238453494657295e-01 +8.1124809916604654e+00 -9.7620631532737989e-01 -4.1682908341430782e+01 +1.3710879754307100e+04 +6.5601955620385765e+04 -6.6296447754698269e+07 
+2.7000000000000011e+00 -5.9238472343264670e-01 +8.1125041337993142e+00 -9.6946234087318262e-01 -4.2237022574800505e+01 +1.3610773432662454e+04 +6.8821238477328690e+04 -6.5877761320012197e+07 
+2.8000000000000012e+00 -5.9238491335532006e-01 +8.1125286461863251e+00 -9.6263046681146447e-01 -4.2834390788742212e+01 +1.3509358379748286e+04 +7.2290830247418911e+04 -6.5456911075795494e+07 
+2.9000000000000012e+00 -5.9238510379636666e-01 +8.1125542296200130e+00 -9.5577153494113065e-01 -4.3467362022568615e+01 +1.3407558128268482e+04 +7.5969199991397982e+04 -6.5037636634783737e+07 
+3.0000000000000013e+00 -5.9238529383754979e-01 +8.1125805849142605e+00 -9.4894638733329273e-01 -4.4128285749574744e+01 +1.3306296209065624e+04 +7.9814819272052089e+04 -6.4623677579724237e+07 
+3.1000000000000014e+00 -5.9238548256063805e-01 +8.1126074128807684e+00 -9.4221586501770882e-01 -4.4809511355939506e+01 +1.3206496127986249e+04 +8.3786159083713224e+04 -6.4218773356305808e+07 
+3.2000000000000015e+00 -5.9238566904732648e-01 +8.1126344143458766e+00 -9.3564081769411866e-01 -4.5503388635641805e+01 +1.3109081549694334e+04 +8.7841692744782937e+04 -6.3826664144305103e+07 
+3.3000000000000016e+00 -5.9238585237932495e-01 +8.1126612901301147e+00 -9.2928209262324768e-01 -4.6202267190514164e+01 +1.3014976086606219e+04 +9.1939892401655889e+04 -6.3451089855098136e+07 
+3.4000000000000017e+00 -5.9238603163828696e-01 +8.1126877410702498e+00 -9.2320054355359860e-01 -4.6898497074119319e+01 +1.2925103467484034e+04 +9.6039232762286105e+04 -6.3095790928498693e+07 
+3.5000000000000018e+00 -5.9238620590584046e-01 +8.1127134680115436e+00 -9.1745702629857606e-01 -4.7584428550258913e+01 +1.2840387450760347e+04 +1.0009818965170831e+05 -6.2764507914198242e+07 
+3.6000000000000019e+00 -5.9238637426357343e-01 +8.1127381718006930e+00 -9.1211240144151751e-01 -4.8252411921773131e+01 +1.2761751879775189e+04 +1.0407523911653027e+05 -6.2460981743205056e+07 
+3.7000000000000020e+00 -5.9238653579303246e-01 +8.1127615532957957e+00 -9.0722753389683808e-01 -4.8894797772470497e+01 +1.2690120670851151e+04 +1.0792885867714620e+05 -6.2188953661130123e+07 
+3.8000000000000020e+00 -5.9238668957572793e-01 +8.1127833133687428e+00 -9.0286329189185388e-01 -4.9503937071491528e+01 +1.2626417793278428e+04 +1.1161752804536428e+05 -6.1952165131791778e+07 
+3.9000000000000021e+00 -5.9238683469315190e-01 +8.1128031528936884e+00 -8.9908054539726634e-01 -5.0072180830220596e+01 +1.2571567239852464e+04 +1.1509972709880330e+05 -6.1754357695236869e+07 
+4.0000000000000018e+00 -5.9238697022670650e-01 +8.1128207727607240e+00 -8.9594017493624178e-01 -5.0591880484305022e+01 +1.2526493196090380e+04 +1.1833393804796242e+05 -6.1599273779272869e+07 
+4.1000000000000014e+00 -5.9238709572456050e-01 +8.1128359712290905e+00 -8.9347980656297687e-01 -5.1057790945245941e+01 +1.2491807204799468e+04 +1.2129150401642689e+05 -6.1489467296145983e+07 
+4.2000000000000011e+00 -5.9238721261451144e-01 +8.1128489403588269e+00 -8.9164493520896948e-01 -5.1474399561423972e+01 +1.2466900088038670e+04 +1.2399602308078538e+05 -6.1422913033072740e+07 
+4.3000000000000007e+00 -5.9238732279747652e-01 +8.1128599718405479e+00 -8.9035824124357632e-01 -5.1848659705738207e+01 +1.2450864931557926e+04 +1.2648438046803976e+05 -6.1396485018460423e+07 
+4.4000000000000004e+00 -5.9238742817435930e-01 +8.1128693573492505e+00 -8.8954240673633367e-01 -5.2187524387489283e+01 +1.2442794857118799e+04 +1.2879345961423585e+05 -6.1407057471265681e+07 
+4.5000000000000000e+00 -5.9238753064615346e-01 +8.1128773885469538e+00 -8.8912010375375816e-01 -5.2497946349642312e+01 +1.2441782808102274e+04 +1.3096014277543241e+05 -6.1451503801477417e+07 
+4.5999999999999996e+00 -5.9238763211385992e-01 +8.1128843570867470e+00 -8.8901400436237743e-01 -5.2786878156856197e+01 +1.2446921738698693e+04 +1.3302131146185976e+05 -6.1526697510320231e+07 
+4.6999999999999993e+00 -5.9238773447849802e-01 +8.1128905546082244e+00 -8.8914677870630265e-01 -5.3061272098640664e+01 +1.2457304571742729e+04 +1.3501384597304574e+05 -6.1629511972619511e+07 
+4.7999999999999989e+00 -5.9238783964114994e-01 +8.1128962727270562e+00 -8.8944109029498686e-01 -5.3328079887198172e+01 +1.2472024119131944e+04 +1.3697462365134820e+05 -6.1756820088618584e+07 
+4.8999999999999986e+00 -5.9238794950292339e-01 +8.1129018030577402e+00 -8.8981960014468919e-01 -5.3594253305468698e+01 +1.2490173151766190e+04 +1.3894052261009644e+05 -6.1905494590248123e+07 
+4.9999999999999982e+00 -5.9238806596497884e-01 +8.1129074371871965e+00 -8.9020496407317984e-01 -5.3866743458780014e+01 +1.2510844357736256e+04 +1.4094841744222966e+05 -6.2072407871164732e+07 
+5.0999999999999979e+00 -5.9238819092850092e-01 +8.1129134666904879e+00 -8.9051983545315561e-01 -5.4152501258074778e+01 +1.2533130388056048e+04 +1.4303518210543974e+05 -6.2254432186561741e+07 
+5.1999999999999975e+00 -5.9238832629475180e-01 +8.1129201831244764e+00 -8.9068685967990702e-01 -5.4458477197303559e+01 +1.2556123756919018e+04 +1.4523768851391293e+05 -6.2448439192092642e+07 
+5.2999999999999972e+00 -5.9238847396501515e-01 +8.1129278780254488e+00 -8.9062868004962237e-01 -5.4791621326608549e+01 +1.2578916949653250e+04 +1.4759280651753180e+05 -6.2651300450345784e+07 
+5.3999999999999968e+00 -5.9238863584062429e-01 +8.1129368429100577e+00 -8.9026793538071280e-01 -5.5158883263244256e+01 +1.2600602383523417e+04 +1.5013740391041985e+05 -6.2859887259840690e+07 
+5.4999999999999964e+00 -5.9238881382299380e-01 +8.1129473692780625e+00 -8.8952725556056977e-01 -5.5567212302530457e+01 +1.2620272319605290e+04 +1.5290834717055107e+05 -6.3071070225909829e+07 
+5.5999999999999961e+00 -5.9238900981355502e-01 +8.1129597486059986e+00 -8.8832926932423617e-01 -5.6023557204172505e+01 +1.2637019010392016e+04 +1.5594250012950861e+05 -6.3281719965333596e+07 
+5.6999999999999957e+00 -5.9238922571383468e-01 +8.1129742723468485e+00 -8.8659659537191127e-01 -5.6534866218588590e+01 +1.2649934535737264e+04 +1.5927672424085787e+05 -6.3488706336126119e+07 
+5.7999999999999954e+00 -5.9238946342538190e-01 +8.1129912319351600e+00 -8.8425185074054258e-01 -5.7108087235544879e+01 +1.2658110958852021e+04 +1.6294787943722273e+05 -6.3688899175042048e+07 
+5.8999999999999950e+00 -5.9238972484984209e-01 +8.1130109187793220e+00 -8.8121764248802237e-01 -5.7750167542624816e+01 +1.2660640172994788e+04 +1.6699282267550463e+05 -6.3879167578366756e+07 
+5.9999999999999947e+00 -5.9239001188890328e-01 +8.1130336242631991e+00 -8.7741657327337863e-01 -5.8468053918149330e+01 +1.2656614002349983e+04 +1.7144840862690232e+05 -6.4056380370970890e+07 
+6.0999999999999943e+00 -5.9239032577649353e-01 +8.1130595565092243e+00 -8.7279774717328473e-01 -5.9266409914454741e+01 +1.2645388715920055e+04 +1.7633857416869368e+05 -6.4218112029017918e+07 
+6.1999999999999940e+00 -5.9239066505647231e-01 +8.1130885706006985e+00 -8.6741546506019274e-01 -6.0140131966102288e+01 +1.2627336373592600e+04 +1.8163156857649621e+05 -6.4364481040874749e+07 
+6.2999999999999936e+00 -5.9239102759511508e-01 +8.1131204281142626e+00 -8.6135011827207453e-01 -6.1081506326212775e+01 +1.2603071762204812e+04 +1.8728064869549792e+05 -6.4496166396809787e+07 
+6.3999999999999932e+00 -5.9239141125870154e-01 +8.1131548906531830e+00 -8.5468209844215359e-01 -6.2082819827275053e+01 +1.2573209670561728e+04 +1.9323907388132351e+05 -6.4613847052491494e+07 
+6.4999999999999929e+00 -5.9239181391341966e-01 +8.1131917198448740e+00 -8.4749180905371191e-01 -6.3136359816039274e+01 +1.2538365109385195e+04 +1.9946010564779214e+05 -6.4718202980405271e+07 
+6.5999999999999925e+00 -5.9239223342542935e-01 +8.1132306773455358e+00 -8.3985965820555530e-01 -6.4234414267973889e+01 +1.2499153173410357e+04 +2.0589700825882281e+05 -6.4809914506718159e+07 
+6.6999999999999922e+00 -5.9239266766086440e-01 +8.1132715248359215e+00 -8.3186605752744169e-01 -6.5369271662154233e+01 +1.2456189021853566e+04 +2.1250304799294088e+05 -6.4889662225829177e+07 
+6.7999999999999918e+00 -5.9239311448577636e-01 +8.1133140240295134e+00 -8.2359142956246267e-01 -6.6533221204669090e+01 +1.2410088013863244e+04 +2.1923149436993944e+05 -6.4958127625160143e+07 
+6.8999999999999915e+00 -5.9239357176617513e-01 +8.1133579366673398e+00 -8.1511620303726007e-01 -6.7718552673078761e+01 +1.2361465625978914e+04 +2.2603561923864088e+05 -6.5015992714363240e+07 
+6.9999999999999911e+00 -5.9239403736801866e-01 +8.1134030245269582e+00 -8.0652081377678431e-01 -6.8917556676022997e+01 +1.2310937462431777e+04 +2.3286869825876181e+05 -6.5063940051007539e+07 
+7.0999999999999908e+00 -5.9239450915721392e-01 +8.1134490494140081e+00 -7.9788570429577632e-01 -7.0122524372138315e+01 +1.2259119248436347e+04 +2.3968400915629097e+05 -6.5102652712944217e+07 
+7.1999999999999904e+00 -5.9239498499958387e-01 +8.1134957731706532e+00 -7.8929132882566511e-01 -7.1325747734543384e+01 +1.2206626929787748e+04 +2.4643483330328611e+05 -6.5132814780165911e+07 
+7.2999999999999901e+00 -5.9239546276092503e-01 +8.1135429576738627e+00 -7.8081814534515226e-01 -7.2519519482475147e+01 +1.2154076515977675e+04 +2.5307445525316711e+05 -6.5155110572124459e+07 
+7.3999999999999897e+00 -5.9239594030694098e-01 +8.1135903648371492e+00 -7.7254662417089981e-01 -7.3696133115567889e+01 +1.2102084244769543e+04 +2.5955616287884480e+05 -6.5170225433332242e+07 
+7.4999999999999893e+00 -5.9239641550328170e-01 +8.1136377566113893e+00 -7.6455724328242880e-01 -7.4847882937171079e+01 +1.2051266496110426e+04 +2.6583324750841554e+05 -6.5178845331154987e+07 
+7.5999999999999890e+00 -5.9239688621554187e-01 +8.1136848949873031e+00 -7.5693048806054331e-01 -7.5967064105364955e+01 +1.2002239781652217e+04 +2.7185900412778917e+05 -6.5181656786920026e+07 
+7.6999999999999886e+00 -5.9239735030922602e-01 +8.1137315419958362e+00 -7.4974685574979372e-01 -7.7045972657483318e+01 +1.1955620831496060e+04 +2.7758673156289372e+05 -6.5179347295442112e+07 
+7.7999999999999883e+00 -5.9239780564975608e-01 +8.1137774597063093e+00 -7.4308685518368534e-01 -7.8076905428337597e+01 +1.1912026591605238e+04 +2.8296973190920259e+05 -6.5172605315939702e+07 
+7.8999999999999879e+00 -5.9239825010252511e-01 +8.1138224102365850e+00 -7.3703099920842841e-01 -7.9052160334397527e+01 +1.1872074076096766e+04 +2.8796131214048946e+05 -6.5162119560090005e+07 
+7.9999999999999876e+00 -5.9239868153278252e-01 +8.1138661557408476e+00 -7.3165981945688763e-01 -7.9964036025651311e+01 +1.1836380645933623e+04 +2.9251478205892141e+05 -6.5148580310657360e+07 
+8.0999999999999872e+00 -5.9239909816364755e-01 +8.1139084639563741e+00 -7.2704103055395430e-01 -8.0805918313669878e+01 +1.1805500817892336e+04 +2.9659173086688184e+05 -6.5132846530121930e+07 
+8.1999999999999869e+00 -5.9239949967030792e-01 +8.1139491471356351e+00 -7.2318860987637767e-01 -8.1576420017338933e+01 +1.1779743582249383e+04 +3.0019273526027933e+05 -6.5116649018602572e+07 
+8.2999999999999865e+00 -5.9239988609661265e-01 +8.1139880345105340e+00 -7.2010248638429686e-01 -8.2275701225401576e+01 +1.1759359578371634e+04 +3.0332973744184669e+05 -6.5101998870117798e+07 
+8.3999999999999861e+00 -5.9240025748637559e-01 +8.1140249553159549e+00 -7.1778258965480846e-01 -8.2903922189017464e+01 +1.1744599447385039e+04 +3.0601468100209383e+05 -6.5090907210978888e+07 
+8.4999999999999858e+00 -5.9240061388337251e-01 +8.1140597387806004e+00 -7.1622884887848204e-01 -8.3461243012675311e+01 +1.1735713797076973e+04 +3.0825950900895527e+05 -6.5085384982828029e+07 
+8.5999999999999854e+00 -5.9240095533138581e-01 +8.1140922141346152e+00 -7.1544118773645804e-01 -8.3947823862158472e+01 +1.1732953104776674e+04 +3.1007616517145844e+05 -6.5087442479996726e+07 
+8.6999999999999851e+00 -5.9240128187411967e-01 +8.1141222105989907e+00 -7.1541953491592181e-01 -8.4363824679265591e+01 +1.1736567921498638e+04 +3.1147659226455743e+05 -6.5099090338084295e+07 
+8.7999999999999847e+00 -5.9240159355526256e-01 +8.1141495573986013e+00 -7.1616381605964208e-01 -8.4709405553033534e+01 +1.1746808714411844e+04 +3.1247273426934466e+05 -6.5122338770440295e+07 
+8.8999999999999844e+00 -5.9240189041847935e-01 +8.1141740837485514e+00 -7.1767395415995372e-01 -8.4984726315421781e+01 +1.1763925871929094e+04 +3.1307653401610092e+05 -6.5159197589692667e+07 
+8.9999999999999840e+00 -5.9240217250737104e-01 +8.1141956188647963e+00 -7.1994987486862505e-01 -8.5189946875824674e+01 +1.1788169806955411e+04 +3.1329993520817050e+05 -6.5211676705694623e+07 
+9.0999999999999837e+00 -5.9240243986554708e-01 +8.1142139919567953e+00 -7.2299149786377492e-01 -8.5325226987784418e+01 +1.1819790795819225e+04 +3.1315488101774175e+05 -6.5281785369251974e+07 
+9.1999999999999833e+00 -5.9240269253653632e-01 +8.1142290322303587e+00 -7.2679874649059240e-01 -8.5390726344715944e+01 +1.1859039149589446e+04 +3.1265331469913444e+05 -6.5371532955876015e+07 
+9.2999999999999829e+00 -5.9240293056386861e-01 +8.1142405688841350e+00 -7.3137153831462109e-01 -8.5386604483443222e+01 +1.1906165043717770e+04 +3.1180717903618049e+05 -6.5482928183626510e+07 
+9.3999999999999826e+00 -5.9240315399100096e-01 +8.1142484311166356e+00 -7.3670979421977800e-01 -8.5313020975912266e+01 +1.1961418687035877e+04 +3.1062841745015624e+05 -6.5617979905358516e+07 
+9.4999999999999822e+00 -5.9240336286139728e-01 +8.1142524481188634e+00 -7.4281342832288000e-01 -8.5170135234400249e+01 +1.2025050131577336e+04 +3.0912897291289672e+05 -6.5778696211402066e+07 
+9.5999999999999819e+00 -5.9240355721844684e-01 +8.1142524490738897e+00 -7.4968235716685416e-01 -8.4958106492519917e+01 +1.2097309439416533e+04 +3.0732078784686734e+05 -6.5967085203277372e+07 
+9.6999999999999815e+00 -5.9240373710550498e-01 +8.1142482631607713e+00 -7.5731649580033711e-01 -8.4677093927058081e+01 +1.2178446618052452e+04 +3.0521580484662065e+05 -6.6185154714910865e+07 
+9.7999999999999812e+00 -5.9240390256591080e-01 +8.1142397195531775e+00 -7.6571575442027917e-01 -8.4327256603705550e+01 +1.2268711547180608e+04 +3.0282596634729992e+05 -6.6434911938772410e+07 
+9.8999999999999808e+00 -5.9240405364294213e-01 +8.1142266474190361e+00 -7.7488004433514657e-01 -8.3908753497893656e+01 +1.2368354095849112e+04 +3.0016321483744035e+05 -6.6718363997050628e+07 
+9.9999999999999805e+00 -5.9240419037983261e-01 +8.1142088759168107e+00 -7.8480927488572105e-01 -8.3421743317619729e+01 +1.2477624062986413e+04 +2.9723949165917898e+05 -6.7037517659967847e+07 
+1.0099999999999980e+01 -5.9240431317726316e-01 +8.1141863315609370e+00 -7.9548439328087794e-01 -8.2867323134180069e+01 +1.2596486741153782e+04 +2.9406782360250910e+05 -6.7393150078387141e+07 
