# trajectory
# s[mm] rx[mm] ry[mm] rz[mm] px[rad] py[rad] pz[rad]
0.0000000000000000e+00 +8.1649999999999991e+00 +0.0000000000000000e+00 +0.0000000000000000e+00 +0.0000000000000000e+00 +0.0000000000000000e+00 +1.0000000000000000e+00
1.0000000000000001e-01 +8.1649997169707493e+00 +0.0000000000000000e+00 +9.9999999999465961e-02 -5.6605849230307211e-06 +0.0000000000000000e+00 +9.9999999998397893e-01
2.0000000000000001e-01 +8.1649988678830283e+00 +0.0000000000000000e+00 +1.9999999999572771e-01 -1.1321169453074691e-05 +0.0000000000000000e+00 +9.9999999993591560e-01
3.0000000000000004e-01 +8.1649974527368663e+00 +0.0000000000000000e+00 +2.9999999998558102e-01 -1.6981753744031497e-05 +0.0000000000000000e+00 +9.9999999985581001e-01
4.0000000000000002e-01 +8.1649954715322810e+00 +0.0000000000000000e+00 +3.9999999996582164e-01 -2.2642337945848407e-05 +0.0000000000000000e+00 +9.9999999974366227e-01
5.0000000000000000e-01 +8.1649929242692743e+00 +0.0000000000000000e+00 +4.9999999993324540e-01 -2.8302922204520364e-05 +0.0000000000000000e+00 +9.9999999959947228e-01
5.9999999999999998e-01 +8.1649898109478336e+00 +0.0000000000000000e+00 +5.9999999988464803e-01 -3.3963506662090002e-05 +0.0000000000000000e+00 +9.9999999942324014e-01
6.9999999999999996e-01 +8.1649861315679306e+00 +0.0000000000000000e+00 +6.9999999981682537e-01 -3.9624091456647687e-05 +0.0000000000000000e+00 +9.9999999921496574e-01
7.9999999999999993e-01 +8.1649818861295262e+00 +0.0000000000000000e+00 +7.9999999972657321e-01 -4.5284676722331569e-05 +0.0000000000000000e+00 +9.9999999897464908e-01
8.9999999999999991e-01 +8.1649770746325654e+00 +0.0000000000000000e+00 +8.9999999961068722e-01 -5.0945262589327663e-05 +0.0000000000000000e+00 +9.9999999870229017e-01
9.9999999999999989e-01 +8.1649716970769841e+00 +0.0000000000000000e+00 +9.9999999946596319e-01 -5.6605849183869914e-05 +0.0000000000000000e+00 +9.9999999839788900e-01
1.0999999999999999e+00 +8.1649657534627007e+00 +0.0000000000000000e+00 +1.0999999992891969e+00 -6.2266436628240348e-05 +0.0000000000000000e+00 +9.9999999806144546e-01
1.2000000000000000e+00 +8.1649592437896263e+00 +0.0000000000000000e+00 +1.1999999990771841e+00 -6.7927025040769156e-05 +0.0000000000000000e+00 +9.9999999769295966e-01
1.3000000000000000e+00 +8.1649521680576562e+00 +0.0000000000000000e+00 +1.2999999988267208e+00 -7.3587614535834870e-05 +0.0000000000000000e+00 +9.9999999729243150e-01
1.4000000000000001e+00 +8.1649445262666784e+00 +0.0000000000000000e+00 +1.3999999985346023e+00 -7.9248205223864511e-05 +0.0000000000000000e+00 +9.9999999685986096e-01
1.5000000000000002e+00 +8.1649363184165686e+00 +0.0000000000000000e+00 +1.4999999981976249e+00 -8.4908797211333780e-05 +0.0000000000000000e+00 +9.9999999639524806e-01
1.6000000000000003e+00 +8.1649275445071900e+00 +0.0000000000000000e+00 +1.5999999978125838e+00 -9.0569390600767259e-05 +0.0000000000000000e+00 +9.9999999589859268e-01
1.7000000000000004e+00 +8.1649182045383988e+00 +0.0000000000000000e+00 +1.6999999973762752e+00 -9.6229985490738632e-05 +0.0000000000000000e+00 +9.9999999536989492e-01
1.8000000000000005e+00 +8.1649082985100385e+00 +0.0000000000000000e+00 +1.7999999968854947e+00 -1.0189058197587090e-04 +0.0000000000000000e+00 +9.9999999480915458e-01
1.9000000000000006e+00 +8.1648978264219476e+00 +0.0000000000000000e+00 +1.8999999963370380e+00 -1.0755118014683666e-04 +0.0000000000000000e+00 +9.9999999421637176e-01
2.0000000000000004e+00 +8.1648867882739502e+00 +0.0000000000000000e+00 +1.9999999957277008e+00 -1.1321178009035838e-04 +0.0000000000000000e+00 +9.9999999359154634e-01
2.1000000000000005e+00 +8.1648751840658669e+00 +0.0000000000000000e+00 +2.0999999950542789e+00 -1.1887238188890282e-04 +0.0000000000000000e+00 +9.9999999293467834e-01
2.2000000000000006e+00 +8.1648630137975076e+00 +0.0000000000000000e+00 +2.1999999943135684e+00 -1.2453298561731677e-04 +0.0000000000000000e+00 +9.9999999224576763e-01
2.3000000000000007e+00 +8.1648502774686769e+00 +0.0000000000000000e+00 +2.2999999935023645e+00 -1.3019359133946258e-04 +0.0000000000000000e+00 +9.9999999152481422e-01
2.4000000000000008e+00 +8.1648369750791723e+00 +0.0000000000000000e+00 +2.3999999926174631e+00 -1.3585419910791229e-04 +0.0000000000000000e+00 +9.9999999077181811e-01
2.5000000000000009e+00 +8.1648231066287860e+00 +0.0000000000000000e+00 +2.4999999916556601e+00 -1.4151480896394748e-04 +0.0000000000000000e+00 +9.9999998998677919e-01
2.6000000000000010e+00 +8.1648086721173083e+00 +0.0000000000000000e+00 +2.5999999906137510e+00 -1.4717542093755921e-04 +0.0000000000000000e+00 +9.9999998916969746e-01
2.7000000000000011e+00 +8.1647936715445262e+00 +0.0000000000000000e+00 +2.6999999894885316e+00 -1.5283603504744783e-04 +0.0000000000000000e+00 +9.9999998832057291e-01
2.8000000000000012e+00 +8.1647781049102264e+00 +0.0000000000000000e+00 +2.7999999882767974e+00 -1.5849665130102285e-04 +0.0000000000000000e+00 +9.9999998743940544e-01
2.9000000000000012e+00 +8.1647619722141940e+00 +0.0000000000000000e+00 +2.8999999869753443e+00 -1.6415726969440272e-04 +0.0000000000000000e+00 +9.9999998652619504e-01
3.0000000000000013e+00 +8.1647452734562158e+00 +0.0000000000000000e+00 +2.9999999855809683e+00 -1.6981789021241464e-04 +0.0000000000000000e+00 +9.9999998558094172e-01
3.1000000000000014e+00 +8.1647280086360805e+00 +0.0000000000000000e+00 +3.0999999840904646e+00 -1.7547851282859428e-04 +0.0000000000000000e+00 +9.9999998460364536e-01
3.2000000000000015e+00 +8.1647101777535802e+00 +0.0000000000000000e+00 +3.1999999825006293e+00 -1.8113913750518557e-04 +0.0000000000000000e+00 +9.9999998359430597e-01
3.3000000000000016e+00 +8.1646917808085124e+00 +0.0000000000000000e+00 +3.2999999808082578e+00 -1.8679976419314038e-04 +0.0000000000000000e+00 +9.9999998255292355e-01
3.4000000000000017e+00 +8.1646728178006764e+00 +0.0000000000000000e+00 +3.3999999790101461e+00 -1.9246039283211816e-04 +0.0000000000000000e+00 +9.9999998147949809e-01
3.5000000000000018e+00 +8.1646532887298822e+00 +0.0000000000000000e+00 +3.4999999771030894e+00 -1.9812102335048568e-04 +0.0000000000000000e+00 +9.9999998037402948e-01
3.6000000000000019e+00 +8.1646331935959466e+00 +0.0000000000000000e+00 +3.5999999750838838e+00 -2.0378165566531663e-04 +0.0000000000000000e+00 +9.9999997923651784e-01
3.7000000000000020e+00 +8.1646125323986922e+00 +0.0000000000000000e+00 +3.6999999729493247e+00 -2.0944228968239120e-04 +0.0000000000000000e+00 +9.9999997806696306e-01
3.8000000000000020e+00 +8.1645913051379555e+00 +0.0000000000000000e+00 +3.7999999706962080e+00 -2.1510292529619565e-04 +0.0000000000000000e+00 +9.9999997686536513e-01
3.9000000000000021e+00 +8.1645695118135837e+00 +0.0000000000000000e+00 +3.8999999683213296e+00 -2.2076356238992197e-04 +0.0000000000000000e+00 +9.9999997563172405e-01
4.0000000000000018e+00 +8.1645471524254329e+00 +0.0000000000000000e+00 +3.9999999658214849e+00 -2.2642420083546732e-04 +0.0000000000000000e+00 +9.9999997436603993e-01
4.1000000000000014e+00 +8.1645242269733753e+00 +0.0000000000000000e+00 +4.0999999631934694e+00 -2.3208484049470966e-04 +0.0000000000000000e+00 +9.9999997306831268e-01
4.2000000000000011e+00 +8.1645007354572972e+00 +0.0000000000000000e+00 +4.1999999604340790e+00 -2.3774548123354486e-04 +0.0000000000000000e+00 +9.9999997173854227e-01
4.3000000000000007e+00 +8.1644766778770954e+00 +0.0000000000000000e+00 +4.2999999575401091e+00 -2.4340612293592413e-04 +0.0000000000000000e+00 +9.9999997037672883e-01
4.4000000000000004e+00 +8.1644520542326795e+00 +0.0000000000000000e+00 +4.3999999545083561e+00 -2.4906676550513041e-04 +0.0000000000000000e+00 +9.9999996898287224e-01
4.5000000000000000e+00 +8.1644268645239677e+00 +0.0000000000000000e+00 +4.4999999513356155e+00 -2.5472740886377861e-04 +0.0000000000000000e+00 +9.9999996755697262e-01
4.5999999999999996e+00 +8.1644011087508819e+00 +0.0000000000000000e+00 +4.5999999480186826e+00 -2.6038805295381604e-04 +0.0000000000000000e+00 +9.9999996609902997e-01
4.6999999999999993e+00 +8.1643747869133527e+00 +0.0000000000000000e+00 +4.6999999445543530e+00 -2.6604869773652254e-04 +0.0000000000000000e+00 +9.9999996460904417e-01
4.7999999999999989e+00 +8.1643478990113110e+00 +0.0000000000000000e+00 +4.7999999409394229e+00 -2.7170934319251095e-04 +0.0000000000000000e+00 +9.9999996308701533e-01
4.8999999999999986e+00 +8.1643204450446909e+00 +0.0000000000000000e+00 +4.8999999371706879e+00 -2.7736998932172753e-04 +0.0000000000000000e+00 +9.9999996153294335e-01
4.9999999999999982e+00 +8.1642924250134232e+00 +0.0000000000000000e+00 +4.9999999332449434e+00 -2.8303063614345218e-04 +0.0000000000000000e+00 +9.9999995994682833e-01
5.0999999999999979e+00 +8.1642638389174369e+00 +0.0000000000000000e+00 +5.0999999291589857e+00 -2.8869128369629903e-04 +0.0000000000000000e+00 +9.9999995832867017e-01
5.1999999999999975e+00 +8.1642346867566573e+00 +0.0000000000000000e+00 +5.1999999249096094e+00 -2.9435193203821678e-04 +0.0000000000000000e+00 +9.9999995667846875e-01
5.2999999999999972e+00 +8.1642049685310010e+00 +0.0000000000000000e+00 +5.2999999204936108e+00 -3.0001258124648915e-04 +0.0000000000000000e+00 +9.9999995499622418e-01
5.3999999999999968e+00 +8.1641746842403755e+00 +0.0000000000000000e+00 +5.3999999159077863e+00 -3.0567323141773541e-04 +0.0000000000000000e+00 +9.9999995328193636e-01
5.4999999999999964e+00 +8.1641438338846815e+00 +0.0000000000000000e+00 +5.4999999111489304e+00 -3.1133388266791088e-04 +0.0000000000000000e+00 +9.9999995153560528e-01
5.5999999999999961e+00 +8.1641124174638016e+00 +0.0000000000000000e+00 +5.5999999062138395e+00 -3.1699453513230741e-04 +0.0000000000000000e+00 +9.9999994975723083e-01
5.6999999999999957e+00 +8.1640804349776079e+00 +0.0000000000000000e+00 +5.6999999010993090e+00 -3.2265518896555390e-04 +0.0000000000000000e+00 +9.9999994794681291e-01
5.7999999999999954e+00 +8.1640478864259567e+00 +0.0000000000000000e+00 +5.7999998958021344e+00 -3.2831584434161700e-04 +0.0000000000000000e+00 +9.9999994610435150e-01
5.8999999999999950e+00 +8.1640147718086826e+00 +0.0000000000000000e+00 +5.8999998903191111e+00 -3.3397650145380159e-04 +0.0000000000000000e+00 +9.9999994422984650e-01
5.9999999999999947e+00 +8.1639810911256010e+00 +0.0000000000000000e+00 +5.9999998846470355e+00 -3.3963716051475139e-04 +0.0000000000000000e+00 +9.9999994232329781e-01
6.0999999999999943e+00 +8.1639468443765075e+00 +0.0000000000000000e+00 +6.0999998787827030e+00 -3.4529782175495775e-04 +0.0000000000000000e+00 +9.9999994038470519e-01
6.1999999999999940e+00 +8.1639120315611713e+00 +0.0000000000000000e+00 +6.1999998727229091e+00 -3.5095848540634897e-04 +0.0000000000000000e+00 +9.9999993841406865e-01
6.2999999999999936e+00 +8.1638766526793400e+00 +0.0000000000000000e+00 +6.2999998664644492e+00 -3.5661915168587894e-04 +0.0000000000000000e+00 +9.9999993641138807e-01
6.3999999999999932e+00 +8.1638407077307402e+00 +0.0000000000000000e+00 +6.3999998600041188e+00 -3.6227982079403508e-04 +0.0000000000000000e+00 +9.9999993437666335e-01
6.4999999999999929e+00 +8.1638041967150805e+00 +0.0000000000000000e+00 +6.4999998533387133e+00 -3.6794049291483783e-04 +0.0000000000000000e+00 +9.9999993230989437e-01
6.5999999999999925e+00 +8.1637671196320518e+00 +0.0000000000000000e+00 +6.5999998464650291e+00 -3.7360116821584034e-04 +0.0000000000000000e+00 +9.9999993021108091e-01
6.6999999999999922e+00 +8.1637294764813273e+00 +0.0000000000000000e+00 +6.6999998393798617e+00 -3.7926184684812812e-04 +0.0000000000000000e+00 +9.9999992808022298e-01
6.7999999999999918e+00 +8.1636912672625677e+00 +0.0000000000000000e+00 +6.7999998320800055e+00 -3.8492252894631849e-04 +0.0000000000000000e+00 +9.9999992591732045e-01
6.8999999999999915e+00 +8.1636524919754194e+00 +0.0000000000000000e+00 +6.8999998245622569e+00 -3.9058321462856038e-04 +0.0000000000000000e+00 +9.9999992372237312e-01
6.9999999999999911e+00 +8.1636131506195184e+00 +0.0000000000000000e+00 +6.9999998168234114e+00 -3.9624390399653362e-04 +0.0000000000000000e+00 +9.9999992149538097e-01
7.0999999999999908e+00 +8.1635732431944934e+00 +0.0000000000000000e+00 +7.0999998088602645e+00 -4.0190459713544864e-04 +0.0000000000000000e+00 +9.9999991923634390e-01
7.1999999999999904e+00 +8.1635327696999624e+00 +0.0000000000000000e+00 +7.1999998006696115e+00 -4.0756529411404603e-04 +0.0000000000000000e+00 +9.9999991694526180e-01
7.2999999999999901e+00 +8.1634917301355401e+00 +0.0000000000000000e+00 +7.2999997922482480e+00 -4.1322599498459583e-04 +0.0000000000000000e+00 +9.9999991462213467e-01
7.3999999999999897e+00 +8.1634501245008337e+00 +0.0000000000000000e+00 +7.3999997835929703e+00 -4.1888669978289725e-04 +0.0000000000000000e+00 +9.9999991226696228e-01
7.4999999999999893e+00 +8.1634079527954508e+00 +0.0000000000000000e+00 +7.4999997747005729e+00 -4.2454740852827794e-04 +0.0000000000000000e+00 +9.9999990987974463e-01
7.5999999999999890e+00 +8.1633652150189953e+00 +0.0000000000000000e+00 +7.5999997655678513e+00 -4.3020812122359351e-04 +0.0000000000000000e+00 +9.9999990746048162e-01
7.6999999999999886e+00 +8.1633219111710744e+00 +0.0000000000000000e+00 +7.6999997561916009e+00 -4.3586883785522699e-04 +0.0000000000000000e+00 +9.9999990500917324e-01
7.7999999999999883e+00 +8.1632780412512940e+00 +0.0000000000000000e+00 +7.7999997465686173e+00 -4.4152955839308819e-04 +0.0000000000000000e+00 +9.9999990252581950e-01
7.8999999999999879e+00 +8.1632336052592667e+00 +0.0000000000000000e+00 +7.8999997366956967e+00 -4.4719028279061301e-04 +0.0000000000000000e+00 +9.9999990001042016e-01
7.9999999999999876e+00 +8.1631886031946088e+00 +0.0000000000000000e+00 +7.9999997265696337e+00 -4.5285101098476295e-04 +0.0000000000000000e+00 +9.9999989746297535e-01
8.0999999999999872e+00 +8.1631430350569456e+00 +0.0000000000000000e+00 +8.0999997161872237e+00 -4.5851174289656462e-04 +0.0000000000000000e+00 +9.9999989488348495e-01
8.1999999999999869e+00 +8.1630969008459093e+00 +0.0000000000000000e+00 +8.1999997055452631e+00 -4.6417247843705137e-04 +0.0000000000000000e+00 +9.9999989227194896e-01
8.2999999999999865e+00 +8.1630502005611412e+00 +0.0000000000000000e+00 +8.2999996946405457e+00 -4.6983321751320538e-04 +0.0000000000000000e+00 +9.9999988962836739e-01
8.3999999999999861e+00 +8.1630029342022929e+00 +0.0000000000000000e+00 +8.3999996834698685e+00 -4.7549396002849735e-04 +0.0000000000000000e+00 +9.9999988695274022e-01
8.4999999999999858e+00 +8.1629551017690254e+00 +0.0000000000000000e+00 +8.4999996720300253e+00 -4.8115470588288640e-04 +0.0000000000000000e+00 +9.9999988424506747e-01
8.5999999999999854e+00 +8.1629067032610099e+00 +0.0000000000000000e+00 +8.5999996603178133e+00 -4.8681545497281949e-04 +0.0000000000000000e+00 +9.9999988150534902e-01
8.6999999999999851e+00 +8.1628577386779266e+00 +0.0000000000000000e+00 +8.6999996483300261e+00 -4.9247620719123102e-04 +0.0000000000000000e+00 +9.9999987873358498e-01
8.7999999999999847e+00 +8.1628082080194702e+00 +0.0000000000000000e+00 +8.7999996360634611e+00 -4.9813696242754254e-04 +0.0000000000000000e+00 +9.9999987592977524e-01
8.8999999999999844e+00 +8.1627581112853438e+00 +0.0000000000000000e+00 +8.8999996235149137e+00 -5.0379772056766245e-04 +0.0000000000000000e+00 +9.9999987309391991e-01
8.9999999999999840e+00 +8.1627074484752633e+00 +0.0000000000000000e+00 +8.9999996106811775e+00 -5.0945848149398538e-04 +0.0000000000000000e+00 +9.9999987022601899e-01
9.0999999999999837e+00 +8.1626562195889552e+00 +0.0000000000000000e+00 +9.0999995975590497e+00 -5.1511924508539184e-04 +0.0000000000000000e+00 +9.9999986732607249e-01
9.1999999999999833e+00 +8.1626044246261600e+00 +0.0000000000000000e+00 +9.1999995841453241e+00 -5.2078001121724803e-04 +0.0000000000000000e+00 +9.9999986439408040e-01
9.2999999999999829e+00 +8.1625520635866309e+00 +0.0000000000000000e+00 +9.2999995704367979e+00 -5.2644077976140506e-04 +0.0000000000000000e+00 +9.9999986143004271e-01
9.3999999999999826e+00 +8.1624991364701316e+00 +0.0000000000000000e+00 +9.3999995564302647e+00 -5.3210155058619870e-04 +0.0000000000000000e+00 +9.9999985843395955e-01
9.4999999999999822e+00 +8.1624456432764418e+00 +0.0000000000000000e+00 +9.4999995421225218e+00 -5.3776232355644900e-04 +0.0000000000000000e+00 +9.9999985540583092e-01
9.5999999999999819e+00 +8.1623915840053538e+00 +0.0000000000000000e+00 +9.5999995275103629e+00 -5.4342309853345973e-04 +0.0000000000000000e+00 +9.9999985234565680e-01
9.6999999999999815e+00 +8.1623369586566739e+00 +0.0000000000000000e+00 +9.6999995125905851e+00 -5.4908387537501793e-04 +0.0000000000000000e+00 +9.9999984925343721e-01
9.7999999999999812e+00 +8.1622817672302226e+00 +0.0000000000000000e+00 +9.7999994973599822e+00 -5.5474465393539349e-04 +0.0000000000000000e+00 +9.9999984612917225e-01
9.8999999999999808e+00 +8.1622260097258348e+00 +0.0000000000000000e+00 +9.8999994818153514e+00 -5.6040543406533872e-04 +0.0000000000000000e+00 +9.9999984297286204e-01
9.9999999999999805e+00 +8.1621696861433612e+00 +0.0000000000000000e+00 +9.9999994659534863e+00 -5.6606621561208770e-04 +0.0000000000000000e+00 +9.9999983978450657e-01
1.0099999999999980e+01 +8.1621127964826687e+00 +0.0000000000000000e+00 +1.0099999449771184e+01 -5.7172699842049748e-04 +0.0000000000000000e+00 +9.9999983656410596e-01
1.0199999999999980e+01 +8.1620553407436400e+00 +0.0000000000000000e+00 +1.0199999433265239e+01 -5.7738778234560373e-04 +0.0000000000000000e+00 +9.9999983331166020e-01
1.0299999999999979e+01 +8.1619973189261668e+00 +0.0000000000000000e+00 +1.0299999416432447e+01 -5.8304856726517772e-04 +0.0000000000000000e+00 +9.9999983002716930e-01
1.0399999999999979e+01 +8.1619387310301565e+00 +0.0000000000000000e+00 +1.0399999399269605e+01 -5.8870935308086845e-04 +0.0000000000000000e+00 +9.9999982671063348e-01
1.0499999999999979e+01 +8.1618795770555224e+00 +0.0000000000000000e+00 +1.0499999381773506e+01 -5.9437013971820368e-04 +0.0000000000000000e+00 +9.9999982336205262e-01
1.0599999999999978e+01 +8.1618198570021860e+00 +0.0000000000000000e+00 +1.0599999363940947e+01 -6.0003092712659087e-04 +0.0000000000000000e+00 +9.9999981998142673e-01
1.0699999999999978e+01 +8.1617595708700712e+00 +0.0000000000000000e+00 +1.0699999345768724e+01 -6.0569171527931776e-04 +0.0000000000000000e+00 +9.9999981656875592e-01
1.0799999999999978e+01 +8.1616987186591050e+00 +0.0000000000000000e+00 +1.0799999327253630e+01 -6.1135250417355361e-04 +0.0000000000000000e+00 +9.9999981312404007e-01
1.0899999999999977e+01 +8.1616373003692111e+00 +0.0000000000000000e+00 +1.0899999308392463e+01 -6.1701329383035027e-04 +0.0000000000000000e+00 +9.9999980964727919e-01
1.0999999999999977e+01 +8.1615753160003113e+00 +0.0000000000000000e+00 +1.0999999289182018e+01 -6.2267408429464281e-04 +0.0000000000000000e+00 +9.9999980613847328e-01
1.1099999999999977e+01 +8.1615127655523221e+00 +0.0000000000000000e+00 +1.1099999269619090e+01 -6.2833487563525075e-04 +0.0000000000000000e+00 +9.9999980259762222e-01
1.1199999999999976e+01 +8.1614496490251511e+00 +0.0000000000000000e+00 +1.1199999249700475e+01 -6.3399566794487925e-04 +0.0000000000000000e+00 +9.9999979902472602e-01
1.1299999999999976e+01 +8.1613859664186972e+00 +0.0000000000000000e+00 +1.1299999229422967e+01 -6.3965646134011981e-04 +0.0000000000000000e+00 +9.9999979541978457e-01
1.1399999999999975e+01 +8.1613217177328430e+00 +0.0000000000000000e+00 +1.1399999208783363e+01 -6.4531725596145154e-04 +0.0000000000000000e+00 +9.9999979178279763e-01
1.1499999999999975e+01 +8.1612569029674589e+00 +0.0000000000000000e+00 +1.1499999187778458e+01 -6.5097805197324252e-04 +0.0000000000000000e+00 +9.9999978811376522e-01
1.1599999999999975e+01 +8.1611915221223956e+00 +0.0000000000000000e+00 +1.1599999166405048e+01 -6.5663884956375048e-04 +0.0000000000000000e+00 +9.9999978441268711e-01
1.1699999999999974e+01 +8.1611255751974863e+00 +0.0000000000000000e+00 +1.1699999144659929e+01 -6.6229964894512440e-04 +0.0000000000000000e+00 +9.9999978067956319e-01
1.1799999999999974e+01 +8.1610590621925390e+00 +0.0000000000000000e+00 +1.1799999122539893e+01 -6.6796045035340539e-04 +0.0000000000000000e+00 +9.9999977691439323e-01
