# multipoles
# s[mm] polynom_b[n=0][T/m^n] polynom_b[n=1][T/m^n] polynom_b[n=2][T/m^n] polynom_b[n=3][T/m^n] polynom_b[n=4][T/m^n] polynom_b[n=5][T/m^n] polynom_b[n=6][T/m^n] 
+0.0000000000000000e+00 -5.9247990907304970e-01 +8.1126154052938180e+00 -9.8901653299844261e-01 -4.8655737827248643e+01 +1.4002087944375669e+04 +1.0740172296862150e+05 -6.9200940347640350e+07 
+1.0000000000000001e-01 -5.9247982246313113e-01 +8.1126034467461938e+00 -9.9590066488100959e-01 -4.8133118673017080e+01 +1.4088732363440391e+04 +1.0386932363604315e+05 -6.9413949656541824e+07 
+2.0000000000000001e-01 -5.9247975268686026e-01 +8.1125900967593942e+00 -1.0021206134123939e+00 -4.7579782168262923e+01 +1.4167270575730519e+04 +1.0023598459929324e+05 -6.9601561716964230e+07 
+2.9999999999999999e-01 -5.9247969927561162e-01 +8.1125756103665054e+00 -1.0076839148409458e+00 -4.7002423331486931e+01 +1.4237713309703257e+04 +9.6535400814614142e+04 -6.9763591640869409e+07 
+4.0000000000000002e-01 -5.9247966176088185e-01 +8.1125602425936343e+00 -1.0125981028847539e+00 -4.6407736988129365e+01 +1.4300071240983068e+04 +9.2801266200531696e+04 -6.9899854277655452e+07 
+5.0000000000000000e-01 -5.9247963967407280e-01 +8.1125442484677901e+00 -1.0168707122304959e+00 -4.5802418012305289e+01 +1.4354355063075751e+04 +8.9067275078516948e+04 -7.0010164562909201e+07 
+5.9999999999999998e-01 -5.9247963254664993e-01 +8.1125278830087773e+00 -1.0205092764797907e+00 -4.5193161076422172e+01 +1.4400575443890777e+04 +8.5367120677194529e+04 -7.0094337299690709e+07 
+6.9999999999999996e-01 -5.9247963991001318e-01 +8.1125114012305914e+00 -1.0235213299815333e+00 -4.4586660689006941e+01 +1.4438743064384031e+04 +8.1734495340206588e+04 -7.0152187353078946e+07 
+8.0000000000000004e-01 -5.9247966129561336e-01 +8.1124950581488680e+00 -1.0259144044777033e+00 -4.3989611428073438e+01 +1.4468868555350628e+04 +7.8203091934627373e+04 -7.0183529350130484e+07 
+9.0000000000000002e-01 -5.9247969623489971e-01 +8.1124791087675927e+00 -1.0276960314871950e+00 -4.3408707523688470e+01 +1.4490962541751205e+04 +7.4806601329114885e+04 -7.0188177891499877e+07 
+1.0000000000000000e+00 -5.9247974425932803e-01 +8.1124638080938034e+00 -1.0288737419033962e+00 -4.2850643323975930e+01 +1.4505035637046620e+04 +7.1578715222195984e+04 -7.0165947526222214e+07 
+1.1000000000000001e+00 -5.9247980490044017e-01 +8.1124494111273773e+00 -1.0294550634259689e+00 -4.2322112942354025e+01 +1.4511098397191156e+04 +6.8553123924993473e+04 -7.0116652543859199e+07 
+1.2000000000000000e+00 -5.9247987768963750e-01 +8.1124361728646566e+00 -1.0294475226997932e+00 -4.1829810413336368e+01 +1.4509161357758179e+04 +6.5763517411167413e+04 -7.0040107140519500e+07 
+1.3000000000000000e+00 -5.9247996215845500e-01 +8.1124243482979477e+00 -1.0288586446122137e+00 -4.1380429639209005e+01 +1.4499235024942922e+04 +6.3243584894233631e+04 -6.9936125389148250e+07 
+1.3999999999999999e+00 -5.9248005783843427e-01 +8.1124141924196760e+00 -1.0276959532429986e+00 -4.0980664534042944e+01 +1.4481329891291434e+04 +6.1027015740805728e+04 -6.9804521307105243e+07 
+1.5000000000000000e+00 -5.9248016426109029e-01 +8.1124059602129019e+00 -1.0259669691117368e+00 -4.0637208727936255e+01 +1.4455456388012026e+04 +5.9147497678221713e+04 -6.9645108643075749e+07 
+1.6000000000000001e+00 -5.9248028095799388e-01 +8.1123999066657078e+00 -1.0236792093955351e+00 -4.0356755996175117e+01 +1.4421624886171367e+04 +5.7638719334067791e+04 -6.9457700875174507e+07 
+1.7000000000000000e+00 -5.9248040746071595e-01 +8.1123962867563453e+00 -1.0208401913213865e+00 -4.0145999810919911e+01 +1.4379845761757726e+04 +5.6534367571936520e+04 -6.9242111522599131e+07 
+1.8000000000000000e+00 -5.9248054330092570e-01 +8.1123953554607144e+00 -1.0174574248222135e+00 -4.0011633581518375e+01 +1.4330129264870578e+04 +5.5868128965302756e+04 -6.8998153545319304e+07 
+1.8999999999999999e+00 -5.9248068801020148e-01 +8.1123973677572252e+00 -1.0135384228187481e+00 -3.9960350752568523e+01 +1.4272485701221203e+04 +5.5673690226897095e+04 -6.8725640174629971e+07 
+2.0000000000000000e+00 -5.9248084112024646e-01 +8.1124025786143967e+00 -1.0090906913550446e+00 -3.9998844499104649e+01 +1.4206925258575713e+04 +5.5984736612971195e+04 -6.8424384119878158e+07 
+2.1000000000000001e+00 -5.9248100208829424e-01 +8.1124111504793941e+00 -1.0041308269858913e+00 -4.0131416413083386e+01 +1.4133615902388161e+04 +5.6822428293492281e+04 -6.8094881484513596e+07 
+2.2000000000000002e+00 -5.9248117006837686e-01 +8.1124228770966660e+00 -9.9871135126421573e-01 -4.0352825661606715e+01 +1.4053340759735140e+04 +5.8157891481823171e+04 -6.7740273394906923e+07 
+2.2999999999999998e+00 -5.9248134413718856e-01 +8.1124374603572793e+00 -9.9289365484710435e-01 -4.0655450942671898e+01 +1.3967032705503074e+04 +5.9949755990334845e+04 -6.7364339804875538e+07 
+2.3999999999999999e+00 -5.9248152337148796e-01 +8.1124546021589161e+00 -9.8673912743782732e-01 -4.1031671138511555e+01 +1.3875624595699019e+04 +6.2156652704011336e+04 -6.6970860577909246e+07 
+2.5000000000000000e+00 -5.9248170684794443e-01 +8.1124740043962369e+00 -9.8030916212280828e-01 -4.1473865032552879e+01 +1.3780049347370566e+04 +6.4737211932000013e+04 -6.6563615857627869e+07 
+2.6000000000000001e+00 -5.9248189364323300e-01 +8.1124953689723860e+00 -9.7366515127639164e-01 -4.1974411627102974e+01 +1.3681239862906321e+04 +6.7650065188462613e+04 -6.6146385713814601e+07 
+2.7000000000000002e+00 -5.9248208283412629e-01 +8.1125183977908133e+00 -9.6686848919013413e-01 -4.2525689925558716e+01 +1.3580129076326562e+04 +7.0853844003179722e+04 -6.5722950352148570e+07 
+2.7999999999999998e+00 -5.9248227349719818e-01 +8.1125427927593048e+00 -9.5998057254129587e-01 -4.3120079041767703e+01 +1.3477649963212458e+04 +7.4307180511660481e+04 -6.5297090163647346e+07 
+2.8999999999999999e+00 -5.9248246470915367e-01 +8.1125682557895473e+00 -9.5306279968505958e-01 -4.3749958180026837e+01 +1.3374735527726991e+04 +7.7968707327392869e+04 -6.4872585663605466e+07 
+3.0000000000000000e+00 -5.9248265554661472e-01 +8.1125944887990915e+00 -9.4617656758189139e-01 -4.4407706702161235e+01 +1.3272318739441722e+04 +8.1797057955847064e+04 -6.4453217177169032e+07 
+3.1000000000000001e+00 -5.9248284508615356e-01 +8.1126211937124619e+00 -9.3938328277917571e-01 -4.5085704144304273e+01 +1.3171332747876761e+04 +8.5750866836462665e+04 -6.4042765876086265e+07 
+3.2000000000000002e+00 -5.9248303240440114e-01 +8.1126480724584535e+00 -9.3274434755257030e-01 -4.5776330153280895e+01 +1.3072710614277514e+04 +8.9788769026992668e+04 -6.3645012488393195e+07 
+3.2999999999999998e+00 -5.9248321657784087e-01 +8.1126748269732829e+00 -9.2632117107519851e-01 -4.6471964568406626e+01 +1.2977385525411906e+04 +9.3869400642754219e+04 -6.3263738319392331e+07 
+3.3999999999999999e+00 -5.9248339668307415e-01 +8.1127011591980178e+00 -9.2017516518176057e-01 -4.7164987344547306e+01 +1.2886290709257264e+04 +9.7951398390190472e+04 -6.2902724839875661e+07 
+3.5000000000000000e+00 -5.9248357179650957e-01 +8.1127267710863613e+00 -9.1436774327650039e-01 -4.7847778777370600e+01 +1.2800359416211630e+04 +1.0199340089000853e+05 -6.2565753599905811e+07 
+3.6000000000000001e+00 -5.9248374099464951e-01 +8.1127513645935565e+00 -9.0896032482119549e-01 -4.8512719185914641e+01 +1.2720525006584043e+04 +1.0595404682689199e+05 -6.2256606652751841e+07 
+3.7000000000000002e+00 -5.9248390335387446e-01 +8.1127746416914466e+00 -9.0401433266715581e-01 -4.9152189351494869e+01 +1.2647720894745727e+04 +1.0979197751056653e+05 -6.1979066273870699e+07 
+3.7999999999999998e+00 -5.9248405795056402e-01 +8.1127963043515585e+00 -8.9959119226224005e-01 -4.9758570004935578e+01 +1.2582880533334006e+04 +1.1346583382725422e+05 -6.1736914882909596e+07 
+3.8999999999999999e+00 -5.9248420386104261e-01 +8.1128160545663217e+00 -8.9575233582602487e-01 -5.0324242464412201e+01 +1.2526937497939223e+04 +1.1693426001342076e+05 -6.1533935459552601e+07 
+4.0000000000000000e+00 -5.9248434016163043e-01 +8.1128335943264744e+00 -8.9255919811142692e-01 -5.0841587976224247e+01 +1.2480825398346429e+04 +1.2015589979779244e+05 -6.1373911101682737e+07 
+4.0999999999999996e+00 -5.9248446639695762e-01 +8.1128487225497299e+00 -8.9004979549516305e-01 -5.1305380659876427e+01 +1.2445162495143053e+04 +1.2310220386055818e+05 -6.1259424982106909e+07 
+4.2000000000000002e+00 -5.9248458399791437e-01 +8.1128616300697765e+00 -8.8816932604044529e-01 -5.1720081932499319e+01 +1.2419334856727375e+04 +1.2579664909778094e+05 -6.1188432397616126e+07 
+4.2999999999999998e+00 -5.9248469487004418e-01 +8.1128726068807531e+00 -8.8684000186125478e-01 -5.2092608134557160e+01 +1.2402427944603878e+04 +1.2827594419261032e+05 -6.1157775676718406e+07 
+4.4000000000000004e+00 -5.9248480091902445e-01 +8.1128819429600298e+00 -8.8598403423937988e-01 -5.2429875211880542e+01 +1.2393527214242287e+04 +1.3057679585364742e+05 -6.1164297153551131e+07 
+4.5000000000000000e+00 -5.9248490405050036e-01 +8.1128899282743099e+00 -8.8552362752753622e-01 -5.2738798886003451e+01 +1.2391717995438208e+04 +1.3273590978943423e+05 -6.1204838590752169e+07 
+4.5999999999999996e+00 -5.9248500617016664e-01 +8.1128968527774674e+00 -8.8538098509288576e-01 -5.3026294623395380e+01 +1.2396085611891511e+04 +1.3478999061335248e+05 -6.1276241764550202e+07 
+4.7000000000000002e+00 -5.9248510918375896e-01 +8.1129030064113170e+00 -8.8547830906712677e-01 -5.3299277628805577e+01 +1.2405715370518164e+04 +1.3677574173542831e+05 -6.1375348400153995e+07 
+4.7999999999999998e+00 -5.9248521499703044e-01 +8.1129086791001903e+00 -8.8573779337867320e-01 -5.3564662729344924e+01 +1.2419692435386789e+04 +1.3872986479333931e+05 -6.1498999589601740e+07 
+4.9000000000000004e+00 -5.9248532551577870e-01 +8.1129141607510000e+00 -8.8608163057472233e-01 -5.3829364338412262e+01 +1.2437101950849157e+04 +1.4068905936249762e+05 -6.1644036357722543e+07 
+5.0000000000000000e+00 -5.9248544264585279e-01 +8.1129197412596650e+00 -8.8643200842638981e-01 -5.4100296708965601e+01 +1.2457028988243332e+04 +1.4269002458643515e+05 -6.1807299443770535e+07 
+5.0999999999999996e+00 -5.9248556829316401e-01 +8.1129257105010684e+00 -8.8671111084452237e-01 -5.4384373578251378e+01 +1.2478558551619441e+04 +1.4476945696073005e+05 -6.1985629294585206e+07 
+5.2000000000000002e+00 -5.9248570436363024e-01 +8.1129323583325217e+00 -8.8684111547176048e-01 -5.4688508334309873e+01 +1.2500775543325555e+04 +1.4696405147122114e+05 -6.2175865932741277e+07 
+5.2999999999999998e+00 -5.9248585276322185e-01 +8.1129399745969248e+00 -8.8674419764258483e-01 -5.5019614074908020e+01 +1.2522764831968148e+04 +1.4931050186322600e+05 -6.2374849261489920e+07 
+5.4000000000000004e+00 -5.9248601539801360e-01 +8.1129488491086015e+00 -8.8634252506827083e-01 -5.5384603209847015e+01 +1.2543611158609676e+04 +1.5184549834968461e+05 -6.2579418636948787e+07 
+5.5000000000000000e+00 -5.9248619417403658e-01 +8.1129592716699310e+00 -8.8555826059563836e-01 -5.5790387971341552e+01 +1.2562399181735598e+04 +1.5460573067539572e+05 -6.2786413064091794e+07 
+5.5999999999999996e+00 -5.9248639099751055e-01 +8.1129715320577240e+00 -8.8431356368488900e-01 -5.6243879996542098e+01 +1.2578213514641862e+04 +1.5762788561768018e+05 -6.2992671399247065e+07 
+5.7000000000000002e+00 -5.9248660777455742e-01 +8.1129859200299972e+00 -8.8253058504949611e-01 -5.6751990538029453e+01 +1.2590138618245483e+04 +1.6094864825756359e+05 -6.3195031826713555e+07 
+5.7999999999999998e+00 -5.9248684641148519e-01 +8.1130027253180934e+00 -8.8013147220025079e-01 -5.7321630252736149e+01 +1.2597258909296113e+04 +1.6460470081045662e+05 -6.3390332381422117e+07 
+5.9000000000000004e+00 -5.9248710881455913e-01 +8.1130222376318581e+00 -8.7703836463448726e-01 -5.7959709337132821e+01 +1.2598658669655611e+04 +1.6863272335075858e+05 -6.3575410520266160e+07 
+5.9999999999999902e+00 -5.9248739689025320e-01 +8.1130447466578079e+00 -8.7317339565981511e-01 -5.8673137506515332e+01 +1.2593422079450762e+04 +1.7306939382068662e+05 -6.3747103275165074e+07 
+6.0999999999999899e+00 -5.9248771187556171e-01 +8.1130704595194558e+00 -8.6848537115554325e-01 -5.9466556524043710e+01 +1.2580900698505951e+04 +1.7793854245869242e+05 -6.3902965852986805e+07 
+6.1999999999999904e+00 -5.9248805231132839e-01 +8.1130992331280005e+00 -8.6302900515684056e-01 -6.0334902038039864e+01 +1.2561474153038957e+04 +1.8320858595974059e+05 -6.4043149832335331e+07 
+6.2999999999999901e+00 -5.9248841605921987e-01 +8.1131308316160649e+00 -8.5688529172255135e-01 -6.1270515120649470e+01 +1.2535768097349315e+04 +1.8883301761034559e+05 -6.4168381414230019e+07 
+6.3999999999999897e+00 -5.9248880098087109e-01 +8.1131650191354758e+00 -8.5013522618309822e-01 -6.2265737221646525e+01 +1.2504408209757186e+04 +1.9476533207151241e+05 -6.4279386880849749e+07 
+6.4999999999999902e+00 -5.9248920493779345e-01 +8.1132015598626452e+00 -8.4285981225306983e-01 -6.3312910295055069e+01 +1.2468020320278931e+04 +2.0095902603599837e+05 -6.4376893181950346e+07 
+6.5999999999999899e+00 -5.9248962579156006e-01 +8.1132402180053482e+00 -8.3514006105653038e-01 -6.4404377014332496e+01 +1.2427230397106530e+04 +2.0736759952954197e+05 -6.4461627887374371e+07 
+6.6999999999999904e+00 -5.9249006140363569e-01 +8.1132807577985950e+00 -8.2705698787588477e-01 -6.5532480636801111e+01 +1.2382664488688562e+04 +2.1394455505045960e+05 -6.4534318914243482e+07 
+6.7999999999999901e+00 -5.9249050963543959e-01 +8.1133229435059224e+00 -8.1869161676200863e-01 -6.6689565015786059e+01 +1.2334948799343500e+04 +2.2064339755909258e+05 -6.4595694859826073e+07 
+6.8999999999999897e+00 -5.9249096834833381e-01 +8.1133665394198307e+00 -8.1012498067035987e-01 -6.7867974623039544e+01 +1.2284709703721081e+04 +2.2741763463297364e+05 -6.4646485094594628e+07 
+6.9999999999999902e+00 -5.9249143540369131e-01 +8.1134113098681215e+00 -8.0143811502431561e-01 -6.9060054719288019e+01 +1.2232573617867654e+04 +2.3422077739439011e+05 -6.4687419135195561e+07 
+7.0999999999999899e+00 -5.9249190866274126e-01 +8.1134570192110420e+00 -7.9271206661050153e-01 -7.0258151255557067e+01 +1.2179167167176365e+04 +2.4100633988342786e+05 -6.4719227434727184e+07 
+7.1999999999999904e+00 -5.9249238598667386e-01 +8.1135034318419539e+00 -7.8402789146995855e-01 -7.1454610889984551e+01 +1.2125117149562861e+04 +2.4772783914306518e+05 -6.4742641218000025e+07 
+7.2999999999999901e+00 -5.9249286523667655e-01 +8.1135503121918280e+00 -7.7546665085661348e-01 -7.2641781103086586e+01 +1.2071050458664886e+04 +2.5433879582022500e+05 -6.4758392112757102e+07 
+7.3999999999999897e+00 -5.9249334427376366e-01 +8.1135974247209095e+00 -7.6710941681156941e-01 -7.3812009963407831e+01 +1.2017594184823931e+04 +2.6079273282184801e+05 -6.4767212616580918e+07 
+7.4999999999999902e+00 -5.9249382095903680e-01 +8.1136445339414145e+00 -7.5903726979274777e-01 -7.4957646744427066e+01 +1.1965375573186902e+04 +2.6704317876293586e+05 -6.4769835904382743e+07 
+7.5999999999999899e+00 -5.9249429315334634e-01 +8.1136914043923429e+00 -7.5133130041710683e-01 -7.6071041224979439e+01 +1.1915022057189215e+04 +2.7304366398391110e+05 -6.4766995987264998e+07 
+7.6999999999999904e+00 -5.9249475871762924e-01 +8.1137378006593508e+00 -7.4407260421416299e-01 -7.7144544217421810e+01 +1.1867161158888259e+04 +2.7874772346113535e+05 -6.4759427237244010e+07 
+7.7999999999999901e+00 -5.9249521551267170e-01 +8.1137834873658914e+00 -7.3734229587136924e-01 -7.8170507334771301e+01 +1.1822420753359658e+04 +2.8410889551597845e+05 -6.4747865625364408e+07 
+7.8999999999999897e+00 -5.9249566139921106e-01 +8.1138282291828627e+00 -7.3122149000216796e-01 -7.9141283238607656e+01 +1.1781428711984574e+04 +2.8908072314777499e+05 -6.4733047050044291e+07 
+7.9999999999999902e+00 -5.9249609423790839e-01 +8.1138717908205269e+00 -7.2579131883487913e-01 -8.0049225413175705e+01 +1.1744813231765636e+04 +2.9361675270994339e+05 -6.4715708883078583e+07 
+8.0999999999999908e+00 -5.9249651224766930e-01 +8.1139139420631370e+00 -7.2111999228941337e-01 -8.0887763494523838e+01 +1.1713137513516298e+04 +2.9767876319088007e+05 -6.4696747415452771e+07 
+8.1999999999999904e+00 -5.9249691510185065e-01 +8.1139544950992768e+00 -7.1722147764949129e-01 -8.1655509049098811e+01 +1.1686709024393584e+04 +3.0126733668372355e+05 -6.4677884715062432e+07 
+8.2999999999999901e+00 -5.9249730284304980e-01 +8.1139932785465518e+00 -7.1409554711603596e-01 -8.2352609308319330e+01 +1.1665773949370605e+04 +3.0439437520028139e+05 -6.4661110013276204e+07 
+8.3999999999999897e+00 -5.9249767551384747e-01 +8.1140301210245269e+00 -7.1174197404822792e-01 -8.2979211659300560e+01 +1.1650578477649513e+04 +3.0707178216927074e+05 -6.4648412563315071e+07 
+8.4999999999999893e+00 -5.9249803315683891e-01 +8.1140648511463596e+00 -7.1016052917227857e-01 -8.3535463315099207e+01 +1.1641368726399964e+04 +3.0931146027234709e+05 -6.4641781259802736e+07 
+8.5999999999999908e+00 -5.9249837581450193e-01 +8.1140972975258308e+00 -7.0935098560683452e-01 -8.4021511544115029e+01 +1.1638390833465271e+04 +3.1112531286022963e+05 -6.4643205073963508e+07 
+8.6999999999999904e+00 -5.9249870352933975e-01 +8.1141272887740570e+00 -7.0931311207929326e-01 -8.4437503559654388e+01 +1.1641890828064983e+04 +3.1252524326495780e+05 -6.4654672438905679e+07 
+8.7999999999999794e+00 -5.9249901634380453e-01 +8.1141546534961879e+00 -7.1004667887085915e-01 -8.4783586442972847e+01 +1.1652114744821822e+04 +3.1352315443187137e+05 -6.4678171795553781e+07 
+8.8999999999999808e+00 -5.9249931430035863e-01 +8.1141792202936038e+00 -7.1155145284129029e-01 -8.5059907195493210e+01 +1.1669308524681381e+04 +3.1413094918515341e+05 -6.4715691112986766e+07 
+8.9999999999999805e+00 -5.9249959744135028e-01 +8.1142008177697402e+00 -7.1382720293831359e-01 -8.5266612923029953e+01 +1.1693718123268274e+04 +3.1436053136605863e+05 -6.4769218412954554e+07 
+9.0999999999999801e+00 -5.9249986580915093e-01 +8.1142192745167527e+00 -7.1687369309944882e-01 -8.5403850433824417e+01 +1.1725589372383700e+04 +3.1422380344997440e+05 -6.4840741103732027e+07 
+9.1999999999999797e+00 -5.9250011944606662e-01 +8.1142344191251308e+00 -7.2069068965958272e-01 -8.5471766545978312e+01 +1.1765168120950095e+04 +3.1373266842819483e+05 -6.4932246653491952e+07 
+9.2999999999999794e+00 -5.9250035839440640e-01 +8.1142460801814806e+00 -7.2527795662468286e-01 -8.5470507996012913e+01 +1.1812700143661958e+04 +3.1289902922010556e+05 -6.5045722150742143e+07 
+9.3999999999999808e+00 -5.9250058269639994e-01 +8.1142540862671986e+00 -7.3063525464233803e-01 -8.5400221418614890e+01 +1.1868431123969762e+04 +3.1173478859845770e+05 -6.5183154234532706e+07 
+9.4999999999999805e+00 -5.9250079239425313e-01 +8.1142582659557014e+00 -7.3676234461600920e-01 -8.5261053277159760e+01 +1.1932606717106240e+04 +3.1025184884026693e+05 -6.5346529379200719e+07 
+9.5999999999999801e+00 -5.9250098753013625e-01 +8.1142584478174200e+00 -7.4365898566882005e-01 -8.5053149985442573e+01 +1.2005472513333172e+04 +3.0846211236816162e+05 -6.5537833726778097e+07 
+9.6999999999999797e+00 -5.9250116814621223e-01 +8.1142544604179037e+00 -7.5132493568055259e-01 -8.4776657878807171e+01 +1.2087274051176086e+04 +3.0637748168003798e+05 -6.5759053158600748e+07 
+9.7999999999999794e+00 -5.9250133428454022e-01 +8.1142461323154489e+00 -7.5975995065926960e-01 -8.4431723134825461e+01 +1.2178256794924047e+04 +3.0400985884910519e+05 -6.6012173163222380e+07 
+9.8999999999999808e+00 -5.9250148598717500e-01 +8.1142332920575200e+00 -7.6896378487691341e-01 -8.4018491679855472e+01 +1.2278666146794607e+04 +3.0137114503833838e+05 -6.6299178919917777e+07 
+9.9999999999999805e+00 -5.9250162329617773e-01 +8.1142157681920395e+00 -7.7893618817906218e-01 -8.3537109463459075e+01 +1.2388747394465938e+04 +2.9847324196258007e+05 -6.6622055051629938e+07 
+1.0100000000000000e+01 -5.9250174661202337e-01 +8.1141934863592251e+00 -7.8965793658854244e-01 -8.2988654434914366e+01 +1.2508461837334355e+04 +2.9532910157846357e+05 -6.6981560044616088e+07 
