# field on trajectory
# s[mm] rx[mm] ry[mm] rz[mm] bx[T] by[T] bz[T]
-0.0000000000000000e+00 +8.1530000000000005e+00 +0.0000000000000000e+00 -0.0000000000000000e+00 -2.9536976529725055e-02 -5.6505848036780271e-01 +5.6623802065710171e-03
-1.0000000000000001e-01 +8.1529997163961507e+00 +0.0000000000000000e+00 -9.9999999999463796e-02 -2.9536900052064888e-02 -5.6505866754650569e-01 +5.6623077187745088e-03
-2.0000000000000001e-01 +8.1529988655856904e+00 +0.0000000000000000e+00 -1.9999999999571000e-01 -2.9536833857912222e-02 -5.6505886281902229e-01 +5.6622351259570059e-03
-2.9999999999999999e-01 +8.1529974475670297e+00 +0.0000000000000000e+00 -2.9999999998552201e-01 -2.9536777196186158e-02 -5.6505906618300206e-01 +5.6621625084274747e-03
-4.0000000000000002e-01 +8.1529954623438208e+00 +0.0000000000000000e+00 -3.9999999996568297e-01 -2.9536729315805123e-02 -5.6505927763607200e-01 +5.6620899464936095e-03
-5.0000000000000000e-01 +8.1529929099124292e+00 +0.0000000000000000e+00 -4.9999999993297400e-01 -2.9536689465693055e-02 -5.6505949717593040e-01 +5.6620175204631362e-03
-5.9999999999999998e-01 +8.1529897902728408e+00 +0.0000000000000000e+00 -5.9999999988417896e-01 -2.9536656894776244e-02 -5.6505972480025957e-01 +5.6619453106432878e-03
-6.9999999999999996e-01 +8.1529861034287006e+00 +0.0000000000000000e+00 -6.9999999981608096e-01 -2.9536630851984477e-02 -5.6505996050672158e-01 +5.6618733973411292e-03
-8.0000000000000004e-01 +8.1529818493763706e+00 +0.0000000000000000e+00 -7.9999999972546199e-01 -2.9536610586256694e-02 -5.6506020429304116e-01 +5.6618018608647503e-03
-9.0000000000000002e-01 +8.1529770281158598e+00 +0.0000000000000000e+00 -8.9999999960910604e-01 -2.9536595346537700e-02 -5.6506045615691647e-01 +5.6617307815227287e-03
-1.0000000000000000e+00 +8.1529716396507901e+00 +0.0000000000000000e+00 -9.9999999946379403e-01 -2.9536584381779415e-02 -5.6506071609601827e-01 +5.6616602396244694e-03
-1.1000000000000001e+00 +8.1529656839775306e+00 +0.0000000000000000e+00 -1.0999999992863101e+00 -2.9536576940946496e-02 -5.6506098410806915e-01 +5.6615903154813799e-03
-1.2000000000000000e+00 +8.1529591610960797e+00 +0.0000000000000000e+00 -1.1999999990734400e+00 -2.9536572273013064e-02 -5.6506126019075764e-01 +5.6615210894063539e-03
-1.3000000000000000e+00 +8.1529520710100805e+00 +0.0000000000000000e+00 -1.2999999988219599e+00 -2.9536569626963938e-02 -5.6506154434173328e-01 +5.6614526417140890e-03
-1.3999999999999999e+00 +8.1529444137122500e+00 +0.0000000000000000e+00 -1.3999999985286500e+00 -2.9536568251801697e-02 -5.6506183655871878e-01 +5.6613850527225699e-03
-1.5000000000000000e+00 +8.1529361892135093e+00 +0.0000000000000000e+00 -1.4999999981903001e+00 -2.9536567396536130e-02 -5.6506213683927975e-01 +5.6613184027511053e-03
-1.6000000000000001e+00 +8.1529273975065699e+00 +0.0000000000000000e+00 -1.5999999978037001e+00 -2.9536566310200119e-02 -5.6506244518110382e-01 +5.6612527721235113e-03
-1.7000000000000000e+00 +8.1529180385914497e+00 +0.0000000000000000e+00 -1.6999999973656199e+00 -2.9536564241840545e-02 -5.6506276158179958e-01 +5.6611882411664437e-03
-1.8000000000000000e+00 +8.1529081124681397e+00 +0.0000000000000000e+00 -1.7999999968728499e+00 -2.9536560440522414e-02 -5.6506308603895150e-01 +5.6611248902103022e-03
-1.8999999999999999e+00 +8.1528976191402798e+00 +0.0000000000000000e+00 -1.8999999963221601e+00 -2.9536554155328649e-02 -5.6506341855008857e-01 +5.6610627995892756e-03
-2.0000000000000000e+00 +8.1528865586042194e+00 +0.0000000000000000e+00 -1.9999999957103500e+00 -2.9536544635365564e-02 -5.6506375911276352e-01 +5.6610020496425150e-03
-2.1000000000000001e+00 +8.1528749308599799e+00 +0.0000000000000000e+00 -2.0999999950341901e+00 -2.9536531230512735e-02 -5.6506410753270653e-01 +5.6609426829763321e-03
-2.2000000000000002e+00 +8.1528627359111905e+00 +0.0000000000000000e+00 -2.1999999942904802e+00 -2.9536513693672956e-02 -5.6506446284854339e-01 +5.6608845912509472e-03
-2.2999999999999998e+00 +8.1528499737542006e+00 +0.0000000000000000e+00 -2.2999999934759798e+00 -2.9536491878500083e-02 -5.6506482390717305e-01 +5.6608276283902385e-03
-2.3999999999999999e+00 +8.1528366443890299e+00 +0.0000000000000000e+00 -2.3999999925874800e+00 -2.9536465638637009e-02 -5.6506518955544527e-01 +5.6607716483175257e-03
-2.5000000000000000e+00 +8.1528227478193003e+00 +0.0000000000000000e+00 -2.4999999916217801e+00 -2.9536434827713415e-02 -5.6506555864016061e-01 +5.6607165049553021e-03
-2.6000000000000001e+00 +8.1528082840413791e+00 +0.0000000000000000e+00 -2.5999999905756401e+00 -2.9536399299347892e-02 -5.6506593000815286e-01 +5.6606620522257987e-03
-2.7000000000000002e+00 +8.1527932530552807e+00 +0.0000000000000000e+00 -2.6999999894458502e+00 -2.9536358907141208e-02 -5.6506630250620427e-01 +5.6606081440498763e-03
-2.7999999999999998e+00 +8.1527776548646198e+00 +0.0000000000000000e+00 -2.7999999882291999e+00 -2.9536313504674117e-02 -5.6506667498104513e-01 +5.6605546343467617e-03
-2.8999999999999999e+00 +8.1527614894657692e+00 +0.0000000000000000e+00 -2.8999999869224702e+00 -2.9536262945509380e-02 -5.6506704627943716e-01 +5.6605013770346067e-03
-3.0000000000000000e+00 +8.1527447568587394e+00 +0.0000000000000000e+00 -2.9999999855224302e+00 -2.9536207083185134e-02 -5.6506741524808701e-01 +5.6604482260293881e-03
-3.1000000000000001e+00 +8.1527274570471508e+00 +0.0000000000000000e+00 -3.0999999840258798e+00 -2.9536145771212607e-02 -5.6506778073364794e-01 +5.6603950352446244e-03
-3.2000000000000002e+00 +8.1527095900273707e+00 +0.0000000000000000e+00 -3.1999999824295902e+00 -2.9536078863078227e-02 -5.6506814158280183e-01 +5.6603416585919684e-03
-3.2999999999999998e+00 +8.1526911557994008e+00 +0.0000000000000000e+00 -3.2999999807303602e+00 -2.9536006212236923e-02 -5.6506849664217307e-01 +5.6602879499800685e-03
-3.3999999999999999e+00 +8.1526721543668792e+00 +0.0000000000000000e+00 -3.3999999789249502e+00 -2.9535927672109857e-02 -5.6506884475833052e-01 +5.6602337633143221e-03
-3.5000000000000000e+00 +8.1526525857261696e+00 +0.0000000000000000e+00 -3.4999999770101602e+00 -2.9535843096086558e-02 -5.6506918477786794e-01 +5.6601789524974326e-03
-3.6000000000000001e+00 +8.1526324498772702e+00 +0.0000000000000000e+00 -3.5999999749827598e+00 -2.9535752337518217e-02 -5.6506951554732110e-01 +5.6601233714283087e-03
-3.7000000000000002e+00 +8.1526117468238208e+00 +0.0000000000000000e+00 -3.6999999728395401e+00 -2.9535655249715364e-02 -5.6506983591316573e-01 +5.6600668740017807e-03
-3.7999999999999998e+00 +8.1525904765621799e+00 +0.0000000000000000e+00 -3.7999999705772902e+00 -2.9535551685950102e-02 -5.6507014472190187e-01 +5.6600093141091915e-03
-3.8999999999999999e+00 +8.1525686390959908e+00 +0.0000000000000000e+00 -3.8999999681927799e+00 -2.9535441499447802e-02 -5.6507044081993973e-01 +5.6599505456369822e-03
-4.0000000000000000e+00 +8.1525462344179704e+00 +0.0000000000000000e+00 -3.9999999656827998e+00 -2.9535324543392305e-02 -5.6507072305373984e-01 +5.6598904224678497e-03
-4.0999999999999996e+00 +8.1525232625354001e+00 +0.0000000000000000e+00 -4.0999999630441302e+00 -2.9535200765728815e-02 -5.6507099064523403e-01 +5.6598288611948034e-03
-4.2000000000000002e+00 +8.1524997234482708e+00 +0.0000000000000000e+00 -4.1999999602735496e+00 -2.9535070493635959e-02 -5.6507124431886646e-01 +5.6597660292739601e-03
-4.2999999999999998e+00 +8.1524756171529607e+00 +0.0000000000000000e+00 -4.2999999573678496e+00 -2.9534934149108346e-02 -5.6507148517474204e-01 +5.6597021568787825e-03
-4.4000000000000004e+00 +8.1524509436494608e+00 +0.0000000000000000e+00 -4.3999999543238104e+00 -2.9534792154143251e-02 -5.6507171431295899e-01 +5.6596374741837022e-03
-4.5000000000000000e+00 +8.1524257029377605e+00 +0.0000000000000000e+00 -4.4999999511382098e+00 -2.9534644930743082e-02 -5.6507193283363877e-01 +5.6595722113645134e-03
-4.5999999999999996e+00 +8.1523998950215208e+00 +0.0000000000000000e+00 -4.5999999478078299e+00 -2.9534492900914908e-02 -5.6507214183689880e-01 +5.6595065985981944e-03
-4.7000000000000002e+00 +8.1523735198970808e+00 +0.0000000000000000e+00 -4.6999999443294600e+00 -2.9534336486675930e-02 -5.6507234242294313e-01 +5.6594408660638890e-03
-4.7999999999999998e+00 +8.1523465775644599e+00 +0.0000000000000000e+00 -4.7999999406998803e+00 -2.9534176110050013e-02 -5.6507253569197635e-01 +5.6593752439421567e-03
-4.9000000000000004e+00 +8.1523190680272801e+00 +0.0000000000000000e+00 -4.8999999369158704e+00 -2.9534012193068743e-02 -5.6507272274420883e-01 +5.6593099624150951e-03
-5.0000000000000000e+00 +8.1522909912819195e+00 +0.0000000000000000e+00 -4.9999999329742204e+00 -2.9533845157776857e-02 -5.6507290467994165e-01 +5.6592452516672949e-03
-5.0999999999999996e+00 +8.1522623473319999e+00 +0.0000000000000000e+00 -5.0999999288717000e+00 -2.9533675426227302e-02 -5.6507308259945788e-01 +5.6591813418848322e-03
-5.2000000000000002e+00 +8.1522331361738907e+00 +0.0000000000000000e+00 -5.1999999246051098e+00 -2.9533503420488216e-02 -5.6507325760313687e-01 +5.6591184632565064e-03
-5.2999999999999998e+00 +8.1522033578075899e+00 +0.0000000000000000e+00 -5.2999999201712198e+00 -2.9533329562639488e-02 -5.6507343079137229e-01 +5.6590568459731075e-03
-5.4000000000000004e+00 +8.1521730122331100e+00 +0.0000000000000000e+00 -5.3999999155668199e+00 -2.9533154274775208e-02 -5.6507360326460210e-01 +5.6589967202278144e-03
-5.5000000000000000e+00 +8.1521420994540694e+00 +0.0000000000000000e+00 -5.4999999107886799e+00 -2.9532977979003245e-02 -5.6507377612328469e-01 +5.6589383162160140e-03
-5.5999999999999996e+00 +8.1521106194668391e+00 +0.0000000000000000e+00 -5.5999999058335996e+00 -2.9532801097450691e-02 -5.6507395046798348e-01 +5.6588818641362826e-03
-5.7000000000000002e+00 +8.1520785722750606e+00 +0.0000000000000000e+00 -5.6999999006983604e+00 -2.9532624052258885e-02 -5.6507412739925733e-01 +5.6588275941893522e-03
-5.7999999999999998e+00 +8.1520459578750906e+00 +0.0000000000000000e+00 -5.7999998953797300e+00 -2.9532447265590480e-02 -5.6507430801777736e-01 +5.6587757365793630e-03
-5.9000000000000004e+00 +8.1520127762669308e+00 +0.0000000000000000e+00 -5.8999998898744996e+00 -2.9532271159625874e-02 -5.6507449342424276e-01 +5.6587265215131263e-03
-5.9999999999999902e+00 +8.1519790274505795e+00 +0.0000000000000000e+00 -5.9999998841794504e+00 -2.9532096156565796e-02 -5.6507468471941147e-01 +5.6586801792005157e-03
-6.0999999999999899e+00 +8.1519447114296799e+00 +0.0000000000000000e+00 -6.0999998782913698e+00 -2.9531922611548599e-02 -5.6507488273419781e-01 +5.6586368689890672e-03
-6.1999999999999904e+00 +8.1519098282005906e+00 +0.0000000000000000e+00 -6.1999998722070400e+00 -2.9531750611400426e-02 -5.6507508722010857e-01 +5.6585964667660738e-03
-6.2999999999999901e+00 +8.1518743777669407e+00 +0.0000000000000000e+00 -6.2999998659232403e+00 -2.9531580175862753e-02 -5.6507529765874642e-01 +5.6585587775497765e-03
-6.3999999999999897e+00 +8.1518383601214701e+00 +0.0000000000000000e+00 -6.3999998594367504e+00 -2.9531411324680564e-02 -5.6507551353182883e-01 +5.6585236063558132e-03
-6.4999999999999902e+00 +8.1518017752750893e+00 +0.0000000000000000e+00 -6.4999998527443603e+00 -2.9531244077590509e-02 -5.6507573432096370e-01 +5.6584907581948085e-03
-6.5999999999999899e+00 +8.1517646232205205e+00 +0.0000000000000000e+00 -6.5999998458428504e+00 -2.9531078454335807e-02 -5.6507595950793110e-01 +5.6584600380750437e-03
-6.6999999999999904e+00 +8.1517269039541098e+00 +0.0000000000000000e+00 -6.6999998387290001e+00 -2.9530914474657340e-02 -5.6507618857451625e-01 +5.6584312510006207e-03
-6.7999999999999901e+00 +8.1516886174867995e+00 +0.0000000000000000e+00 -6.7999998313996004e+00 -2.9530752158289250e-02 -5.6507642100242572e-01 +5.6584042019704279e-03
-6.8999999999999897e+00 +8.1516497638112906e+00 +0.0000000000000000e+00 -6.8999998238514202e+00 -2.9530591524972359e-02 -5.6507665627354153e-01 +5.6583786959805748e-03
-6.9999999999999902e+00 +8.1516103429239593e+00 +0.0000000000000000e+00 -6.9999998160812602e+00 -2.9530432594445270e-02 -5.6507689386975235e-01 +5.6583545380225189e-03
-7.0999999999999899e+00 +8.1515703548320708e+00 +0.0000000000000000e+00 -7.0999998080858804e+00 -2.9530275386441429e-02 -5.6507713327290043e-01 +5.6583315330823352e-03
-7.1999999999999904e+00 +8.1515297995356395e+00 +0.0000000000000000e+00 -7.1999997998620904e+00 -2.9530119920696651e-02 -5.6507737396492075e-01 +5.6583094861420132e-03
-7.2999999999999901e+00 +8.1514886770310095e+00 +0.0000000000000000e+00 -7.2999997914066501e+00 -2.9529966216947569e-02 -5.6507761542781487e-01 +5.6582882021789932e-03
-7.3999999999999897e+00 +8.1514469873182005e+00 +0.0000000000000000e+00 -7.3999997827163604e+00 -2.9529814294928784e-02 -5.6507785714359571e-01 +5.6582674861654567e-03
-7.4999999999999902e+00 +8.1514047304008308e+00 +0.0000000000000000e+00 -7.4999997737879900e+00 -2.9529664174372909e-02 -5.6507809859428881e-01 +5.6582471430681840e-03
-7.5999999999999899e+00 +8.1513619062752696e+00 +0.0000000000000000e+00 -7.5999997646183202e+00 -2.9529515875014966e-02 -5.6507833926201578e-01 +5.6582269778492345e-03
-7.6999999999999904e+00 +8.1513185149451601e+00 +0.0000000000000000e+00 -7.6999997552041499e+00 -2.9529369416586574e-02 -5.6507857862888566e-01 +5.6582067954646714e-03
-7.7999999999999901e+00 +8.1512745564032194e+00 +0.0000000000000000e+00 -7.7999997455422498e+00 -2.9529224818823401e-02 -5.6507881617713385e-01 +5.6581864008658344e-03
-7.8999999999999897e+00 +8.1512300306567305e+00 +0.0000000000000000e+00 -7.8999997356294100e+00 -2.9529082101454742e-02 -5.6507905138892678e-01 +5.6581655989971884e-03
-7.9999999999999902e+00 +8.1511849377056897e+00 +0.0000000000000000e+00 -7.9999997254624002e+00 -2.9528941284212570e-02 -5.6507928374653282e-01 +5.6581441947978839e-03
-8.0999999999999908e+00 +8.1511392775464593e+00 +0.0000000000000000e+00 -8.0999997150380096e+00 -2.9528802336479972e-02 -5.6507951307702642e-01 +5.6581220514533171e-03
-8.1999999999999904e+00 +8.1510930501790408e+00 +0.0000000000000000e+00 -8.1999997043530293e+00 -2.9528665026241897e-02 -5.6507974058641885e-01 +5.6580992651560488e-03
-8.2999999999999901e+00 +8.1510462556034309e+00 +0.0000000000000000e+00 -8.2999996934042404e+00 -2.9528529071146968e-02 -5.6507996782543657e-01 +5.6580759903556944e-03
-8.3999999999999897e+00 +8.1509988938232691e+00 +0.0000000000000000e+00 -8.3999996821884100e+00 -2.9528394188858678e-02 -5.6508019634475037e-01 +5.6580523815067882e-03
-8.4999999999999893e+00 +8.1509509648349194e+00 +0.0000000000000000e+00 -8.4999996707023406e+00 -2.9528260097060333e-02 -5.6508042769505562e-01 +5.6580285930698301e-03
-8.5999999999999908e+00 +8.1509024686420197e+00 +0.0000000000000000e+00 -8.5999996589427994e+00 -2.9528126513449698e-02 -5.6508066342696006e-01 +5.6580047795103325e-03
-8.6999999999999904e+00 +8.1508534052409196e+00 +0.0000000000000000e+00 -8.6999996469065692e+00 -2.9527993155745374e-02 -5.6508090509109399e-01 +5.6579810953001578e-03
-8.7999999999999794e+00 +8.1508037746316404e+00 +0.0000000000000000e+00 -8.7999996345904599e+00 -2.9527859741682930e-02 -5.6508115423802463e-01 +5.6579576949168427e-03
-8.8999999999999808e+00 +8.1507535768178094e+00 +0.0000000000000000e+00 -8.8999996219912205e+00 -2.9527725989015388e-02 -5.6508141241825538e-01 +5.6579347328437977e-03
-8.9999999999999805e+00 +8.1507028117957798e+00 +0.0000000000000000e+00 -8.9999996091056396e+00 -2.9527591615518222e-02 -5.6508168118230817e-01 +5.6579123635713434e-03
-9.0999999999999801e+00 +8.1506514795655693e+00 +0.0000000000000000e+00 -9.0999995959305195e+00 -2.9527456338985392e-02 -5.6508196208063799e-01 +5.6578907415960542e-03
-9.1999999999999797e+00 +8.1505995801308000e+00 +0.0000000000000000e+00 -9.1999995824626293e+00 -2.9527319877229913e-02 -5.6508225666363121e-01 +5.6578700214209420e-03
-9.2999999999999794e+00 +8.1505471134878498e+00 +0.0000000000000000e+00 -9.2999995686987500e+00 -2.9527181948088749e-02 -5.6508256648168920e-01 +5.6578503575564938e-03
-9.3999999999999808e+00 +8.1504940796366991e+00 +0.0000000000000000e+00 -9.3999995546356701e+00 -2.9527042269418984e-02 -5.6508289308514226e-01 +5.6578319045200252e-03
-9.4999999999999805e+00 +8.1504404785773694e+00 +0.0000000000000000e+00 -9.4999995402701707e+00 -2.9526900559099695e-02 -5.6508323802427529e-01 +5.6578148168361297e-03
-9.5999999999999801e+00 +8.1503863103171206e+00 +0.0000000000000000e+00 -9.5999995255990296e+00 -2.9526756535029685e-02 -5.6508360284927228e-01 +5.6577992490363278e-03
-9.6999999999999797e+00 +8.1503315748450404e+00 +0.0000000000000000e+00 -9.6999995106190298e+00 -2.9526609915138155e-02 -5.6508398911041002e-01 +5.6577853556612143e-03
-9.7999999999999794e+00 +8.1502762721684103e+00 +0.0000000000000000e+00 -9.7999994953269702e+00 -2.9526460417370590e-02 -5.6508439835777624e-01 +5.6577732912578343e-03
-9.8999999999999808e+00 +8.1502204022835905e+00 +0.0000000000000000e+00 -9.8999994797196091e+00 -2.9526307759701047e-02 -5.6508483214149330e-01 +5.6577632103821263e-03
-9.9999999999999805e+00 +8.1501639651905897e+00 +0.0000000000000000e+00 -9.9999994637937508e+00 -2.9526151660126735e-02 -5.6508529201160373e-01 +5.6577552675979781e-03
-1.0100000000000000e+01 +8.1501069608966592e+00 +0.0000000000000000e+00 -1.0099999447546200e+01 -2.9525991962343623e-02 -5.6508577903168644e-01 +5.6577495590689510e-03
-1.0199999999999999e+01 +8.1500493893909205e+00 +0.0000000000000000e+00 -1.0199999430973600e+01 -2.9525829012779170e-02 -5.6508629231996055e-01 +5.6577459473309355e-03
-1.0300000000000001e+01 +8.1499912506769796e+00 +0.0000000000000000e+00 -1.0299999414073000e+01 -2.9525663283518241e-02 -5.6508683050812580e-01 +5.6577442365140958e-03
-1.0400000000000000e+01 +8.1499325447584905e+00 +0.0000000000000000e+00 -1.0399999396840901e+01 -2.9525495246623897e-02 -5.6508739222784443e-01 +5.6577442307538537e-03
-1.0500000000000000e+01 +8.1498732716317992e+00 +0.0000000000000000e+00 -1.0499999379274200e+01 -2.9525325374139773e-02 -5.6508797611079697e-01 +5.6577457341915856e-03
-1.0600000000000000e+01 +8.1498134313005703e+00 +0.0000000000000000e+00 -1.0599999361369800e+01 -2.9525154138083529e-02 -5.6508858078857005e-01 +5.6577485509735747e-03
-1.0699999999999999e+01 +8.1497530237611500e+00 +0.0000000000000000e+00 -1.0699999343124301e+01 -2.9524982010452103e-02 -5.6508920489276682e-01 +5.6577524852522562e-03
-1.0800000000000001e+01 +8.1496920490171796e+00 +0.0000000000000000e+00 -1.0799999324534600e+01 -2.9524809463215257e-02 -5.6508984705489385e-01 +5.6577573411851706e-03
-1.0900000000000000e+01 +8.1496305070650106e+00 +0.0000000000000000e+00 -1.0899999305597399e+01 -2.9524636968320767e-02 -5.6509050590647347e-01 +5.6577629229362277e-03
-1.1000000000000000e+01 +8.1495683979046607e+00 +0.0000000000000000e+00 -1.0999999286309500e+01 -2.9524464997689386e-02 -5.6509118007895687e-01 +5.6577690346749200e-03
-1.1100000000000000e+01 +8.1495057215361193e+00 +0.0000000000000000e+00 -1.1099999266667700e+01 -2.9524294023215762e-02 -5.6509186820375290e-01 +5.6577754805767488e-03
-1.1199999999999999e+01 +8.1494424779630208e+00 +0.0000000000000000e+00 -1.1199999246668799e+01 -2.9524124516766261e-02 -5.6509256891219894e-01 +5.6577820648230090e-03
-1.1300000000000001e+01 +8.1493786671817396e+00 +0.0000000000000000e+00 -1.1299999226309600e+01 -2.9523956950182777e-02 -5.6509328083564336e-01 +5.6577885916017671e-03
-1.1400000000000000e+01 +8.1493142891922599e+00 +0.0000000000000000e+00 -1.1399999205586900e+01 -2.9523791795277719e-02 -5.6509400260536091e-01 +5.6577948651070960e-03
-1.1500000000000000e+01 +8.1492493440018698e+00 +0.0000000000000000e+00 -1.1499999184497300e+01 -2.9523629523831901e-02 -5.6509473285252398e-01 +5.6578006895389062e-03
-1.1600000000000000e+01 +8.1491838315996592e+00 +0.0000000000000000e+00 -1.1599999163037801e+01 -2.9523470607604203e-02 -5.6509547020839845e-01 +5.6578058691050233e-03
-1.1699999999999999e+01 +8.1491177519928897e+00 +0.0000000000000000e+00 -1.1699999141205099e+01 -2.9523315518316266e-02 -5.6509621330406146e-01 +5.6578102080184654e-03
