# field on trajectory
# s[mm] rx[mm] ry[mm] rz[mm] bx[T] by[T] bz[T]
0.0000000000000000e+00 +8.1649999999999991e+00 +0.0000000000000000e+00 +0.0000000000000000e+00 -3.2460125535548917e-02 -5.9265574586459024e-01 +5.8731937866588028e-03
-1.0000000000000001e-01 +8.1649997168369097e+00 +0.0000000000000000e+00 -9.9999999999465461e-02 -3.2459943076954809e-02 -5.9265566394528291e-01 +5.8731188636753579e-03
-2.0000000000000001e-01 +8.1649988673476930e+00 +0.0000000000000000e+00 -1.9999999999572365e-01 -3.2459760230058442e-02 -5.9265558613511415e-01 +5.8730469127547735e-03
-3.0000000000000004e-01 +8.1649974515324235e+00 +0.0000000000000000e+00 -2.9999999998556737e-01 -3.2459577482527591e-02 -5.9265551213341039e-01 +5.8729779905514331e-03
-4.0000000000000002e-01 +8.1649954693911724e+00 +0.0000000000000000e+00 -3.9999999996578933e-01 -3.2459395322030689e-02 -5.9265544163949635e-01 +5.8729121537217967e-03
-5.0000000000000000e-01 +8.1649929209240071e+00 +0.0000000000000000e+00 -4.9999999993318228e-01 -3.2459214236235823e-02 -5.9265537435269311e-01 +5.8728494589240050e-03
-5.9999999999999998e-01 +8.1649898061309916e+00 +0.0000000000000000e+00 -5.9999999988453900e-01 -3.2459034712809566e-02 -5.9265530997232274e-01 +5.8727899628174774e-03
-6.9999999999999996e-01 +8.1649861250121880e+00 +0.0000000000000000e+00 -6.9999999981665217e-01 -3.2458857239415904e-02 -5.9265524819770643e-01 +5.8727337220625189e-03
-7.9999999999999993e-01 +8.1649818775676550e+00 +0.0000000000000000e+00 -7.9999999972631464e-01 -3.2458682303715056e-02 -5.9265518872816614e-01 +5.8726807933199010e-03
-8.9999999999999991e-01 +8.1649770637974495e+00 +0.0000000000000000e+00 -8.9999999961031907e-01 -3.2458510393362477e-02 -5.9265513126302694e-01 +5.8726312332504907e-03
-9.9999999999999989e-01 +8.1649716837016264e+00 +0.0000000000000000e+00 -9.9999999946545826e-01 -3.2458341996007688e-02 -5.9265507550161567e-01 +5.8725850985148261e-03
-1.0999999999999999e+00 +8.1649657372802391e+00 +0.0000000000000000e+00 -1.0999999992885250e+00 -3.2458177599293182e-02 -5.9265502114326396e-01 +5.8725424457727370e-03
-1.2000000000000000e+00 +8.1649592245333409e+00 +0.0000000000000000e+00 -1.1999999990763119e+00 -3.2458017690853276e-02 -5.9265496788730754e-01 +5.8725033316829184e-03
-1.3000000000000000e+00 +8.1649521454609832e+00 +0.0000000000000000e+00 -1.2999999988256119e+00 -3.2457862758313104e-02 -5.9265491543308868e-01 +5.8724678129025674e-03
-1.4000000000000001e+00 +8.1649445000632142e+00 +0.0000000000000000e+00 -1.3999999985332177e+00 -3.2457713289287426e-02 -5.9265486347995588e-01 +5.8724359460869454e-03
-1.5000000000000002e+00 +8.1649362883400851e+00 +0.0000000000000000e+00 -1.4999999981959220e+00 -3.2457569771379563e-02 -5.9265481172726575e-01 +5.8724077878890097e-03
-1.6000000000000003e+00 +8.1649275102916459e+00 +0.0000000000000000e+00 -1.5999999978105177e+00 -3.2457432692180266e-02 -5.9265475987438276e-01 +5.8723833949589953e-03
-1.7000000000000004e+00 +8.1649181659179462e+00 +0.0000000000000000e+00 -1.6999999973737974e+00 -3.2457302539266625e-02 -5.9265470762068262e-01 +5.8723628239440197e-03
-1.8000000000000005e+00 +8.1649082552190357e+00 +0.0000000000000000e+00 -1.7999999968825540e+00 -3.2457179800200964e-02 -5.9265465466555001e-01 +5.8723461314876884e-03
-1.9000000000000006e+00 +8.1648977781949661e+00 +0.0000000000000000e+00 -1.8999999963335801e+00 -3.2457064962529765e-02 -5.9265460070838216e-01 +5.8723333742296876e-03
-2.0000000000000004e+00 +8.1648867348457888e+00 +0.0000000000000000e+00 -1.9999999957236687e+00 -3.2456958513782455e-02 -5.9265454544858831e-01 +5.8723246088053897e-03
-2.1000000000000005e+00 +8.1648751251715570e+00 +0.0000000000000000e+00 -2.0999999950496124e+00 -3.2456860685625637e-02 -5.9265448878225579e-01 +5.8723198753667097e-03
-2.2000000000000006e+00 +8.1648629491723259e+00 +0.0000000000000000e+00 -2.1999999943082038e+00 -3.2456770686335616e-02 -5.9265443139214080e-01 +5.8723191481473303e-03
-2.3000000000000007e+00 +8.1648502068481505e+00 +0.0000000000000000e+00 -2.2999999934962361e+00 -3.2456687468348039e-02 -5.9265437415767686e-01 +5.8723223849020609e-03
-2.4000000000000008e+00 +8.1648368981990860e+00 +0.0000000000000000e+00 -2.3999999926105016e+00 -3.2456609984106571e-02 -5.9265431795830781e-01 +5.8723295433862344e-03
-2.5000000000000009e+00 +8.1648230232251855e+00 +0.0000000000000000e+00 -2.4999999916477935e+00 -3.2456537186064685e-02 -5.9265426367349128e-01 +5.8723405813559800e-03
-2.6000000000000010e+00 +8.1648085819265024e+00 +0.0000000000000000e+00 -2.5999999906049043e+00 -3.2456468026687564e-02 -5.9265421218269687e-01 +5.8723554565684542e-03
-2.7000000000000011e+00 +8.1647935743030846e+00 +0.0000000000000000e+00 -2.6999999894786266e+00 -3.2456401458453861e-02 -5.9265416436540763e-01 +5.8723741267820862e-03
-2.8000000000000012e+00 +8.1647780003549801e+00 +0.0000000000000000e+00 -2.7999999882657538e+00 -3.2456336433857619e-02 -5.9265412110112115e-01 +5.8723965497568253e-03
-2.9000000000000012e+00 +8.1647618600822298e+00 +0.0000000000000000e+00 -2.8999999869630781e+00 -3.2456271905410027e-02 -5.9265408326934821e-01 +5.8724226832543944e-03
-3.0000000000000013e+00 +8.1647451534848692e+00 +0.0000000000000000e+00 -2.9999999855673924e+00 -3.2456206825641334e-02 -5.9265405174961538e-01 +5.8724524850385183e-03
-3.1000000000000014e+00 +8.1647278805629302e+00 +0.0000000000000000e+00 -3.0999999840754895e+00 -3.2456140147102588e-02 -5.9265402742146478e-01 +5.8724859128751880e-03
-3.2000000000000015e+00 +8.1647100413164360e+00 +0.0000000000000000e+00 -3.1999999824841621e+00 -3.2456070822367566e-02 -5.9265401116445393e-01 +5.8725229245328893e-03
-3.3000000000000016e+00 +8.1646916357454042e+00 +0.0000000000000000e+00 -3.2999999807902034e+00 -3.2455997804034527e-02 -5.9265400385815714e-01 +5.8725634777828618e-03
-3.4000000000000017e+00 +8.1646726638498404e+00 +0.0000000000000000e+00 -3.3999999789904058e+00 -3.2455920044728130e-02 -5.9265400638216514e-01 +5.8726075303993340e-03
-3.5000000000000018e+00 +8.1646531256297425e+00 +0.0000000000000000e+00 -3.4999999770815622e+00 -3.2455836497101202e-02 -5.9265401961608710e-01 +5.8726550401597801e-03
-3.6000000000000019e+00 +8.1646330210851001e+00 +0.0000000000000000e+00 -3.5999999750604648e+00 -3.2455746113836614e-02 -5.9265404443954950e-01 +5.8727059648451480e-03
-3.7000000000000020e+00 +8.1646123502158900e+00 +0.0000000000000000e+00 -3.6999999729239068e+00 -3.2455647847649052e-02 -5.9265408173219714e-01 +5.8727602622401214e-03
-3.8000000000000020e+00 +8.1645911130220750e+00 +0.0000000000000000e+00 -3.7999999706686811e+00 -3.2455540651286946e-02 -5.9265413237369424e-01 +5.8728178901333522e-03
-3.9000000000000021e+00 +8.1645693095036087e+00 +0.0000000000000000e+00 -3.8999999682915805e+00 -3.2455423477534225e-02 -5.9265419724372426e-01 +5.8728788063177224e-03
-4.0000000000000018e+00 +8.1645469396604309e+00 +0.0000000000000000e+00 -3.9999999657893972e+00 -3.2455295279212246e-02 -5.9265427722199115e-01 +5.8729429685905688e-03
-4.1000000000000014e+00 +8.1645240034924633e+00 +0.0000000000000000e+00 -4.0999999631589246e+00 -3.2455155392718392e-02 -5.9265437290787926e-01 +5.8730103343936938e-03
-4.2000000000000011e+00 +8.1645005009996172e+00 +0.0000000000000000e+00 -4.1999999603969549e+00 -3.2455004688623862e-02 -5.9265448377942109e-01 +5.8730808597325448e-03
-4.3000000000000007e+00 +8.1644764321817878e+00 +0.0000000000000000e+00 -4.2999999575002814e+00 -3.2454844421033718e-02 -5.9265460903428824e-01 +5.8731545002566384e-03
-4.4000000000000004e+00 +8.1644517970388542e+00 +0.0000000000000000e+00 -4.3999999544656960e+00 -3.2454675844044011e-02 -5.9265474787012717e-01 +5.8732312116199191e-03
-4.5000000000000000e+00 +8.1644265955706867e+00 +0.0000000000000000e+00 -4.4999999512899924e+00 -3.2454500211740712e-02 -5.9265489948455707e-01 +5.8733109494809371e-03
-4.5999999999999996e+00 +8.1644008277771398e+00 +0.0000000000000000e+00 -4.5999999479699625e+00 -3.2454318778198467e-02 -5.9265506307516624e-01 +5.8733936695030530e-03
-4.6999999999999993e+00 +8.1643744936580589e+00 +0.0000000000000000e+00 -4.6999999445023999e+00 -3.2454132797479558e-02 -5.9265523783951235e-01 +5.8734793273546191e-03
-4.7999999999999989e+00 +8.1643475932132770e+00 +0.0000000000000000e+00 -4.7999999408840965e+00 -3.2453943523632657e-02 -5.9265542297511753e-01 +5.8735678787091685e-03
-4.8999999999999986e+00 +8.1643201264426200e+00 +0.0000000000000000e+00 -4.8999999371118452e+00 -3.2453752210691716e-02 -5.9265561767946773e-01 +5.8736592792456022e-03
-4.9999999999999982e+00 +8.1642920933459013e+00 +0.0000000000000000e+00 -4.9999999331824387e+00 -3.2453560112674827e-02 -5.9265582115001103e-01 +5.8737534846483907e-03
-5.0999999999999979e+00 +8.1642634939229275e+00 +0.0000000000000000e+00 -5.0999999290926699e+00 -3.2453368483583059e-02 -5.9265603258415500e-01 +5.8738504506077463e-03
-5.1999999999999975e+00 +8.1642343281734977e+00 +0.0000000000000000e+00 -5.1999999248393314e+00 -3.2453178577399301e-02 -5.9265625117926346e-01 +5.8739501328198230e-03
-5.2999999999999972e+00 +8.1642045960974041e+00 +0.0000000000000000e+00 -5.2999999204192161e+00 -3.2452991648087112e-02 -5.9265647613265648e-01 +5.8740524869869051e-03
-5.3999999999999968e+00 +8.1641742976944318e+00 +0.0000000000000000e+00 -5.3999999158291159e+00 -3.2452808949589559e-02 -5.9265670664160652e-01 +5.8741574688175981e-03
-5.4999999999999964e+00 +8.1641434329643623e+00 +0.0000000000000000e+00 -5.4999999110658244e+00 -3.2452631735828123e-02 -5.9265694190333706e-01 +5.8742650340270096e-03
-5.5999999999999961e+00 +8.1641120019069717e+00 +0.0000000000000000e+00 -5.5999999061261336e+00 -3.2452461260701441e-02 -5.9265718111501964e-01 +5.8743751383369515e-03
-5.6999999999999957e+00 +8.1640800045220328e+00 +0.0000000000000000e+00 -5.6999999010068363e+00 -3.2452298778084261e-02 -5.9265742347377359e-01 +5.8744877374761239e-03
-5.7999999999999954e+00 +8.1640474408093162e+00 +0.0000000000000000e+00 -5.7999998957047252e+00 -3.2452145541826245e-02 -5.9265766817666143e-01 +5.8746027871802988e-03
-5.8999999999999950e+00 +8.1640143107685876e+00 +0.0000000000000000e+00 -5.8999998902165931e+00 -3.2452002805750765e-02 -5.9265791442068838e-01 +5.8747202431925251e-03
-5.9999999999999947e+00 +8.1639806143996125e+00 +0.0000000000000000e+00 -5.9999998845392328e+00 -3.2451871823653854e-02 -5.9265816140280025e-01 +5.8748400612633122e-03
-6.0999999999999943e+00 +8.1639463517021582e+00 +0.0000000000000000e+00 -6.0999998786694372e+00 -3.2451753492416906e-02 -5.9265840870432740e-01 +5.8749622191500974e-03
-6.1999999999999940e+00 +8.1639115226759866e+00 +0.0000000000000000e+00 -6.1999998726039980e+00 -3.2451647281351567e-02 -5.9265865744435264e-01 +5.8750867826093123e-03
-6.2999999999999936e+00 +8.1638761273208633e+00 +0.0000000000000000e+00 -6.2999998663397081e+00 -3.2451552302875504e-02 -5.9265890912640284e-01 +5.8752138393871438e-03
-6.3999999999999932e+00 +8.1638401656365467e+00 +0.0000000000000000e+00 -6.3999998598733603e+00 -3.2451467669403010e-02 -5.9265916525400431e-01 +5.8753434772180124e-03
-6.4999999999999929e+00 +8.1638036376227952e+00 +0.0000000000000000e+00 -6.4999998532017473e+00 -3.2451392493344972e-02 -5.9265942733068344e-01 +5.8754757838239517e-03
-6.5999999999999925e+00 +8.1637665432793582e+00 +0.0000000000000000e+00 -6.5999998463216620e+00 -3.2451325887108862e-02 -5.9265969685996756e-01 +5.8756108469140570e-03
-6.6999999999999922e+00 +8.1637288826059802e+00 +0.0000000000000000e+00 -6.6999998392298963e+00 -3.2451266963098656e-02 -5.9265997534538528e-01 +5.8757487541838899e-03
-6.7999999999999918e+00 +8.1636906556023945e+00 +0.0000000000000000e+00 -6.7999998319232438e+00 -3.2451214833714812e-02 -5.9266026429046603e-01 +5.8758895933148942e-03
-6.8999999999999915e+00 +8.1636518622683276e+00 +0.0000000000000000e+00 -6.8999998243984964e+00 -3.2451168611354261e-02 -5.9266056519874244e-01 +5.8760334519738396e-03
-6.9999999999999911e+00 +8.1636125026034918e+00 +0.0000000000000000e+00 -6.9999998166524460e+00 -3.2451127408410274e-02 -5.9266087957374880e-01 +5.8761804178122119e-03
-7.0999999999999908e+00 +8.1635725766075886e+00 +0.0000000000000000e+00 -7.0999998086818863e+00 -3.2451090337272462e-02 -5.9266120891902296e-01 +5.8763305784656529e-03
-7.1999999999999904e+00 +8.1635320842803054e+00 +0.0000000000000000e+00 -7.1999998004836092e+00 -3.2451056510326808e-02 -5.9266155473810589e-01 +5.8764840215533619e-03
-7.2999999999999901e+00 +8.1634910256213118e+00 +0.0000000000000000e+00 -7.2999997920544075e+00 -3.2451025039955499e-02 -5.9266191853454298e-01 +5.8766408346775335e-03
-7.3999999999999897e+00 +8.1634494006302614e+00 +0.0000000000000000e+00 -7.3999997833910740e+00 -3.2450995038536989e-02 -5.9266230181188373e-01 +5.8768011054227721e-03
-7.4999999999999893e+00 +8.1634072093067900e+00 +0.0000000000000000e+00 -7.4999997744904014e+00 -3.2450965618445890e-02 -5.9266270607368310e-01 +5.8769649213554929e-03
-7.5999999999999890e+00 +8.1633644516505104e+00 +0.0000000000000000e+00 -7.5999997653491818e+00 -3.2450935892052946e-02 -5.9266313282350080e-01 +5.8771323700233724e-03
-7.6999999999999886e+00 +8.1633211276610176e+00 +0.0000000000000000e+00 -7.6999997559642077e+00 -3.2450904971725050e-02 -5.9266358356490279e-01 +5.8773035389547406e-03
-7.7999999999999883e+00 +8.1632772373378817e+00 +0.0000000000000000e+00 -7.7999997463322712e+00 -3.2450871969825129e-02 -5.9266405980146142e-01 +5.8774785156580078e-03
-7.8999999999999879e+00 +8.1632327806806497e+00 +0.0000000000000000e+00 -7.8999997364501651e+00 -3.2450835998712145e-02 -5.9266456303675563e-01 +5.8776573876210920e-03
-7.9999999999999876e+00 +8.1631877576888421e+00 +0.0000000000000000e+00 -7.9999997263146820e+00 -3.2450796170741036e-02 -5.9266509477437168e-01 +5.8778402423108325e-03
-8.0999999999999872e+00 +8.1631421683619507e+00 +0.0000000000000000e+00 -8.0999997159226140e+00 -3.2450751769066935e-02 -5.9266565595872400e-01 +5.8780270982325550e-03
-8.1999999999999869e+00 +8.1630960126994427e+00 +0.0000000000000000e+00 -8.1999997052707538e+00 -3.2450702760077305e-02 -5.9266624529751377e-01 +5.8782176981166450e-03
-8.2999999999999865e+00 +8.1630492907007550e+00 +0.0000000000000000e+00 -8.2999996943558934e+00 -3.2450649281001304e-02 -5.9266686093931364e-01 +5.8784117157546735e-03
-8.3999999999999861e+00 +8.1630020023653014e+00 +0.0000000000000000e+00 -8.3999996831748263e+00 -3.2450591469107455e-02 -5.9266750103276244e-01 +5.8786088249428072e-03
-8.4999999999999858e+00 +8.1629541476924725e+00 +0.0000000000000000e+00 -8.4999996717243427e+00 -3.2450529461704812e-02 -5.9266816372656739e-01 +5.8788086994820531e-03
-8.5999999999999854e+00 +8.1629057266816361e+00 +0.0000000000000000e+00 -8.5999996600012363e+00 -3.2450463396144269e-02 -5.9266884716950685e-01 +5.8790110131785069e-03
-8.6999999999999851e+00 +8.1628567393321418e+00 +0.0000000000000000e+00 -8.6999996480023007e+00 -3.2450393409819742e-02 -5.9266954951043171e-01 +5.8792154398435914e-03
-8.7999999999999847e+00 +8.1628071856433184e+00 +0.0000000000000000e+00 -8.7999996357243262e+00 -3.2450319640169409e-02 -5.9267026889826779e-01 +5.8794216532942938e-03
-8.8999999999999844e+00 +8.1627570656144819e+00 +0.0000000000000000e+00 -8.8999996231641045e+00 -3.2450242224677010e-02 -5.9267100348201884e-01 +5.8796293273534229e-03
-8.9999999999999840e+00 +8.1627063792449306e+00 +0.0000000000000000e+00 -8.9999996103184294e+00 -3.2450161300872957e-02 -5.9267175141076756e-01 +5.8798381358498332e-03
-9.0999999999999837e+00 +8.1626551265339522e+00 +0.0000000000000000e+00 -9.0999995971840928e+00 -3.2450077006335717e-02 -5.9267251083367789e-01 +5.8800477526186820e-03
-9.1999999999999833e+00 +8.1626033074808237e+00 +0.0000000000000000e+00 -9.1999995837578865e+00 -3.2449989478692938e-02 -5.9267327989999841e-01 +5.8802578515016642e-03
-9.2999999999999829e+00 +8.1625509220848116e+00 +0.0000000000000000e+00 -9.2999995700366025e+00 -3.2449898855622723e-02 -5.9267405675906293e-01 +5.8804681063472598e-03
-9.3999999999999826e+00 +8.1624979703451750e+00 +0.0000000000000000e+00 -9.3999995560170344e+00 -3.2449805274854873e-02 -5.9267483956029343e-01 +5.8806781910109617e-03
-9.4999999999999822e+00 +8.1624444522611679e+00 +0.0000000000000000e+00 -9.4999995416959724e+00 -3.2449708874172124e-02 -5.9267562645320182e-01 +5.8808877793555476e-03
-9.5999999999999819e+00 +8.1623903678320406e+00 +0.0000000000000000e+00 -9.5999995270702101e+00 -3.2449609791411330e-02 -5.9267641558739326e-01 +5.8810965452512883e-03
-9.6999999999999815e+00 +8.1623357170570401e+00 +0.0000000000000000e+00 -9.6999995121365394e+00 -3.2449508164464839e-02 -5.9267720511256683e-01 +5.8813041625762142e-03
-9.7999999999999812e+00 +8.1622804999354130e+00 +0.0000000000000000e+00 -9.7999994968917523e+00 -3.2449404131281535e-02 -5.9267799317851844e-01 +5.8815103052163482e-03
-9.8999999999999808e+00 +8.1622247164664099e+00 +0.0000000000000000e+00 -9.8999994813326406e+00 -3.2449297829868232e-02 -5.9267877793514323e-01 +5.8817146470659448e-03
-9.9999999999999805e+00 +8.1621683666492828e+00 +0.0000000000000000e+00 -9.9999994654559963e+00 -3.2449189398290848e-02 -5.9267955753243717e-01 +5.8819168620277426e-03
-1.0099999999999980e+01 +8.1621114504832875e+00 +0.0000000000000000e+00 -1.0099999449258611e+01 -3.2449078990181422e-02 -5.9268033045144186e-01 +5.8821167114469072e-03
-1.0199999999999980e+01 +8.1620539679676885e+00 +0.0000000000000000e+00 -1.0199999432737279e+01 -3.2448966821213912e-02 -5.9268109649704559e-01 +5.8823143064170762e-03
-1.0299999999999979e+01 +8.1619959191017557e+00 +0.0000000000000000e+00 -1.0299999415888790e+01 -3.2448853122509488e-02 -5.9268185580505539e-01 +5.8825098454749576e-03
-1.0399999999999979e+01 +8.1619373038847645e+00 +0.0000000000000000e+00 -1.0399999398709936e+01 -3.2448738125117442e-02 -5.9268260851123256e-01 +5.8827035271637506e-03
-1.0499999999999979e+01 +8.1618781223159971e+00 +0.0000000000000000e+00 -1.0499999381197510e+01 -3.2448622060013199e-02 -5.9268335475128964e-01 +5.8828955500333149e-03
-1.0599999999999978e+01 +8.1618183743947430e+00 +0.0000000000000000e+00 -1.0599999363348305e+01 -3.2448505158096330e-02 -5.9268409466088934e-01 +5.8830861126403572e-03
-1.0699999999999978e+01 +8.1617580601202970e+00 +0.0000000000000000e+00 -1.0699999345159110e+01 -3.2448387650188495e-02 -5.9268482837564240e-01 +5.8832754135485854e-03
-1.0799999999999978e+01 +8.1616971794919593e+00 +0.0000000000000000e+00 -1.0799999326626720e+01 -3.2448269767031496e-02 -5.9268555603110684e-01 +5.8834636513289042e-03
-1.0899999999999977e+01 +8.1616357325090370e+00 +0.0000000000000000e+00 -1.0899999307747926e+01 -3.2448151739285253e-02 -5.9268627776278593e-01 +5.8836510245595629e-03
-1.0999999999999977e+01 +8.1615737191708426e+00 +0.0000000000000000e+00 -1.0999999288519520e+01 -3.2448033797525810e-02 -5.9268699370612676e-01 +5.8838377318263585e-03
-1.1099999999999977e+01 +8.1615111394766942e+00 +0.0000000000000000e+00 -1.1099999268938294e+01 -3.2447916172243324e-02 -5.9268770399651849e-01 +5.8840239717227764e-03
-1.1199999999999976e+01 +8.1614479934259148e+00 +0.0000000000000000e+00 -1.1199999249001040e+01 -3.2447799093840081e-02 -5.9268840876929119e-01 +5.8842099428501986e-03
-1.1299999999999976e+01 +8.1613842810178330e+00 +0.0000000000000000e+00 -1.1299999228704550e+01 -3.2447682792628413e-02 -5.9268910815971343e-01 +5.8843958438180447e-03
-1.1399999999999975e+01 +8.1613200022517827e+00 +0.0000000000000000e+00 -1.1399999208045616e+01 -3.2447567498828843e-02 -5.9268980230299206e-01 +5.8845818732439726e-03
-1.1499999999999975e+01 +8.1612551571271013e+00 +0.0000000000000000e+00 -1.1499999187021029e+01 -3.2447453442567956e-02 -5.9269049133426954e-01 +5.8847682297540381e-03
-1.1599999999999975e+01 +8.1611897456431350e+00 +0.0000000000000000e+00 -1.1599999165627581e+01 -3.2447340853876426e-02 -5.9269117538862248e-01 +5.8849551119828673e-03
-1.1699999999999974e+01 +8.1611237677992303e+00 +0.0000000000000000e+00 -1.1699999143862065e+01 -3.2447229962687049e-02 -5.9269185460106055e-01 +5.8851427185738379e-03
