# field on trajectory
# s[mm] rx[mm] ry[mm] rz[mm] bx[T] by[T] bz[T]
0.0000000000000000e+00 +8.1530000000000094e+00 +0.0000000000000000e+00 +0.0000000000000000e+00 -2.8115223480600783e-02 -5.3756638732713757e-01 +5.4083882854733117e-03
1.0000000000000001e-01 +8.1529997163925092e+00 +0.0000000000000000e+00 +9.9999999999463796e-02 -2.8115395257988209e-02 -5.3756604805187891e-01 +5.4083291710831536e-03
2.0000000000000001e-01 +8.1529988655711296e+00 +0.0000000000000000e+00 +1.9999999999571000e-01 -2.8115584396896588e-02 -5.3756571041822832e-01 +5.4082737898938854e-03
2.9999999999999999e-01 +8.1529974475415692e+00 +0.0000000000000000e+00 +2.9999999998552201e-01 -2.8115788729961115e-02 -5.3756537558025685e-01 +5.4082219785348603e-03
4.0000000000000002e-01 +8.1529954622965306e+00 +0.0000000000000000e+00 +3.9999999996568197e-01 -2.8116006089834358e-02 -5.3756504469212907e-01 +5.4081735736378304e-03
5.0000000000000000e-01 +8.1529929098396696e+00 +0.0000000000000000e+00 +4.9999999993297300e-01 -2.8116234309173437e-02 -5.3756471890792568e-01 +5.4081284118350547e-03
5.9999999999999998e-01 +8.1529897901673394e+00 +0.0000000000000000e+00 +5.9999999988417696e-01 -2.8116471220643778e-02 -5.3756439938177647e-01 +5.4080863297606167e-03
6.9999999999999996e-01 +8.1529861032831796e+00 +0.0000000000000000e+00 +6.9999999981607697e-01 -2.8116714656910048e-02 -5.3756408726775140e-01 +5.4080471640492525e-03
8.0000000000000004e-01 +8.1529818491871993e+00 +0.0000000000000000e+00 +7.9999999972545699e-01 -2.8116962450637023e-02 -5.3756378371993963e-01 +5.4080107513371101e-03
9.0000000000000002e-01 +8.1529770278793894e+00 +0.0000000000000000e+00 +8.9999999960909804e-01 -2.8117212434484718e-02 -5.3756348989242231e-01 +5.4079769282613984e-03
1.0000000000000000e+00 +8.1529716393597500e+00 +0.0000000000000000e+00 +9.9999999946378304e-01 -2.8117462441105075e-02 -5.3756320693926984e-01 +5.4079455314603288e-03
1.1000000000000001e+00 +8.1529656836210105e+00 +0.0000000000000000e+00 +1.0999999992862901e+00 -2.8117710303141381e-02 -5.3756293601459559e-01 +5.4079163975735952e-03
1.2000000000000000e+00 +8.1529591606740706e+00 +0.0000000000000000e+00 +1.1999999990734200e+00 -2.8117953853214913e-02 -5.3756267827236648e-01 +5.4078893632403691e-03
1.3000000000000000e+00 +8.1529520705153100e+00 +0.0000000000000000e+00 +1.2999999988219300e+00 -2.8118190923934330e-02 -5.3756243486664190e-01 +5.4078642651017167e-03
1.3999999999999999e+00 +8.1529444131410909e+00 +0.0000000000000000e+00 +1.3999999985286200e+00 -2.8118419347886649e-02 -5.3756220695146706e-01 +5.4078409397994333e-03
1.5000000000000000e+00 +8.1529361885550298e+00 +0.0000000000000000e+00 +1.4999999981902701e+00 -2.8118636957630980e-02 -5.3756199568081664e-01 +5.4078192239754175e-03
1.6000000000000001e+00 +8.1529273967571498e+00 +0.0000000000000000e+00 +1.5999999978036501e+00 -2.8118841585699338e-02 -5.3756180220867411e-01 +5.4077989542724225e-03
1.7000000000000000e+00 +8.1529180377474404e+00 +0.0000000000000000e+00 +1.6999999973655600e+00 -2.8119031064591963e-02 -5.3756162768900440e-01 +5.4077799673337311e-03
1.8000000000000000e+00 +8.1529081115222706e+00 +0.0000000000000000e+00 +1.7999999968727800e+00 -2.8119203226775216e-02 -5.3756147327577830e-01 +5.4077620998033496e-03
1.8999999999999999e+00 +8.1528976180852606e+00 +0.0000000000000000e+00 +1.8999999963220899e+00 -2.8119355904674032e-02 -5.3756134012289181e-01 +5.4077451883251136e-03
2.0000000000000000e+00 +8.1528865574327902e+00 +0.0000000000000000e+00 +1.9999999957102601e+00 -2.8119486930674134e-02 -5.3756122938427198e-01 +5.4077290695437250e-03
2.1000000000000001e+00 +8.1528749295721408e+00 +0.0000000000000000e+00 +2.0999999950340902e+00 -2.8119594746763257e-02 -5.3756114178517711e-01 +5.4077136226262481e-03
2.2000000000000002e+00 +8.1528627344960096e+00 +0.0000000000000000e+00 +2.1999999942903599e+00 -2.8119680233509650e-02 -5.3756107633670724e-01 +5.4076988968328006e-03
2.2999999999999998e+00 +8.1528499722080596e+00 +0.0000000000000000e+00 +2.2999999934758399e+00 -2.8119744881124849e-02 -5.3756103162131297e-01 +5.4076849839455824e-03
2.3999999999999999e+00 +8.1528366427046404e+00 +0.0000000000000000e+00 +2.3999999925873299e+00 -2.8119790179825126e-02 -5.3756100622149516e-01 +5.4076719757472115e-03
2.5000000000000000e+00 +8.1528227459894005e+00 +0.0000000000000000e+00 +2.4999999916215998e+00 -2.8119817619828149e-02 -5.3756099871969820e-01 +5.4076599640195218e-03
2.6000000000000001e+00 +8.1528082820659602e+00 +0.0000000000000000e+00 +2.5999999905754398e+00 -2.8119828691358300e-02 -5.3756100769836701e-01 +5.4076490405440417e-03
2.7000000000000002e+00 +8.1527932509234198e+00 +0.0000000000000000e+00 +2.6999999894456299e+00 -2.8119824884654528e-02 -5.3756103174005321e-01 +5.4076392971030094e-03
2.7999999999999998e+00 +8.1527776525726896e+00 +0.0000000000000000e+00 +2.7999999882289601e+00 -2.8119807689958635e-02 -5.3756106942714865e-01 +5.4076308254765119e-03
2.8999999999999999e+00 +8.1527614870065008e+00 +0.0000000000000000e+00 +2.8999999869222002e+00 -2.8119778597533188e-02 -5.3756111934218243e-01 +5.4076237174454523e-03
3.0000000000000000e+00 +8.1527447542284808e+00 +0.0000000000000000e+00 +2.9999999855221300e+00 -2.8119739097652592e-02 -5.3756118006760689e-01 +5.4076180647892498e-03
3.1000000000000001e+00 +8.1527274542386294e+00 +0.0000000000000000e+00 +3.0999999840255499e+00 -2.8119690680611032e-02 -5.3756125018590639e-01 +5.4076139592868508e-03
3.2000000000000002e+00 +8.1527095870333106e+00 +0.0000000000000000e+00 +3.1999999824292300e+00 -2.8119634836724926e-02 -5.3756132827959757e-01 +5.4076114927166571e-03
3.2999999999999998e+00 +8.1526911526198091e+00 +0.0000000000000000e+00 +3.2999999807299600e+00 -2.8119573056329505e-02 -5.3756141293112469e-01 +5.4076107568553130e-03
3.3999999999999999e+00 +8.1526721509872004e+00 +0.0000000000000000e+00 +3.3999999789245101e+00 -2.8119506829792609e-02 -5.3756150272307435e-01 +5.4076118434798542e-03
3.5000000000000000e+00 +8.1526525821464002e+00 +0.0000000000000000e+00 +3.4999999770096801e+00 -2.8119437647501352e-02 -5.3756159623788258e-01 +5.4076148443645599e-03
3.6000000000000001e+00 +8.1526324460901396e+00 +0.0000000000000000e+00 +3.5999999749822500e+00 -2.8119366999880206e-02 -5.3756169205812931e-01 +5.4076198512839173e-03
3.7000000000000002e+00 +8.1526117428220495e+00 +0.0000000000000000e+00 +3.6999999728389801e+00 -2.8119296377381871e-02 -5.3756178876632721e-01 +5.4076269560103278e-03
3.7999999999999998e+00 +8.1525904723421299e+00 +0.0000000000000000e+00 +3.7999999705766800e+00 -2.8119227270495390e-02 -5.3756188494502855e-01 +5.4076362503151119e-03
3.8999999999999999e+00 +8.1525686346503807e+00 +0.0000000000000000e+00 +3.8999999681921298e+00 -2.8119161169747060e-02 -5.3756197917680026e-01 +5.4076478259681609e-03
4.0000000000000000e+00 +8.1525462297431694e+00 +0.0000000000000000e+00 +3.9999999656820902e+00 -2.8119099565704200e-02 -5.3756207004425149e-01 +5.4076617747381185e-03
4.0999999999999996e+00 +8.1525232576241304e+00 +0.0000000000000000e+00 +4.0999999630433699e+00 -2.8119043658399862e-02 -5.3756215638474458e-01 +5.4076781584770708e-03
4.2000000000000002e+00 +8.1524997182896204e+00 +0.0000000000000000e+00 +4.1999999602727298e+00 -2.8118993485602799e-02 -5.3756223805486836e-01 +5.4076969193783244e-03
4.2999999999999998e+00 +8.1524756117469206e+00 +0.0000000000000000e+00 +4.2999999573669703e+00 -2.8118948794503110e-02 -5.3756231516594211e-01 +5.4077179697182547e-03
4.4000000000000004e+00 +8.1524509379887604e+00 +0.0000000000000000e+00 +4.3999999543228601e+00 -2.8118909332291539e-02 -5.3756238782941046e-01 +5.4077412217726330e-03
4.5000000000000000e+00 +8.1524256970187707e+00 +0.0000000000000000e+00 +4.4999999511372000e+00 -2.8118874846148882e-02 -5.3756245615665887e-01 +5.4077665878146143e-03
4.5999999999999996e+00 +8.1523998888369498e+00 +0.0000000000000000e+00 +4.5999999478067499e+00 -2.8118845083251062e-02 -5.3756252025912288e-01 +5.4077939801157708e-03
4.7000000000000002e+00 +8.1523735134396702e+00 +0.0000000000000000e+00 +4.6999999443283098e+00 -2.8118819790768409e-02 -5.3756258024828740e-01 +5.4078233109459998e-03
4.7999999999999998e+00 +8.1523465708305594e+00 +0.0000000000000000e+00 +4.7999999406986600e+00 -2.8118798715860840e-02 -5.3756263623560863e-01 +5.4078544925726365e-03
4.9000000000000004e+00 +8.1523190610096208e+00 +0.0000000000000000e+00 +4.8999999369145701e+00 -2.8118781605681358e-02 -5.3756268833259513e-01 +5.4078874372611831e-03
5.0000000000000000e+00 +8.1522909839768491e+00 +0.0000000000000000e+00 +4.9999999329728402e+00 -2.8118768207374124e-02 -5.3756273665078258e-01 +5.4079220572749746e-03
5.0999999999999996e+00 +8.1522623397286207e+00 +0.0000000000000000e+00 +5.0999999288702398e+00 -2.8118758268075087e-02 -5.3756278130176105e-01 +5.4079582648753656e-03
5.2000000000000002e+00 +8.1522331282685592e+00 +0.0000000000000000e+00 +5.1999999246035600e+00 -2.8118751534907234e-02 -5.3756282239709718e-01 +5.4079959723208337e-03
5.2999999999999998e+00 +8.1522033495966806e+00 +0.0000000000000000e+00 +5.2999999201695802e+00 -2.8118747754984054e-02 -5.3756286004841358e-01 +5.4080350918677168e-03
5.4000000000000004e+00 +8.1521730037093203e+00 +0.0000000000000000e+00 +5.3999999155650800e+00 -2.8118746675408986e-02 -5.3756289436739180e-01 +5.4080755357701496e-03
5.5000000000000000e+00 +8.1521420906137791e+00 +0.0000000000000000e+00 +5.4999999107868396e+00 -2.8118748043269075e-02 -5.3756292546566575e-01 +5.4081172162788729e-03
5.5999999999999996e+00 +8.1521106102991308e+00 +0.0000000000000000e+00 +5.5999999058316599e+00 -2.8118751605645656e-02 -5.3756295345503713e-01 +5.4081600456433714e-03
5.7000000000000002e+00 +8.1520785627762997e+00 +0.0000000000000000e+00 +5.6999999006963096e+00 -2.8118757109598123e-02 -5.3756297844718159e-01 +5.4082039361087490e-03
5.7999999999999998e+00 +8.1520459480379905e+00 +0.0000000000000000e+00 +5.7999998953775700e+00 -2.8118764302178897e-02 -5.3756300055394490e-01 +5.4082487999186990e-03
5.9000000000000004e+00 +8.1520127660915005e+00 +0.0000000000000000e+00 +5.8999998898722197e+00 -2.8118772930419953e-02 -5.3756301988710276e-01 +5.4082945493129312e-03
5.9999999999999902e+00 +8.1519790169259103e+00 +0.0000000000000000e+00 +5.9999998841770603e+00 -2.8118782741345071e-02 -5.3756303655860449e-01 +5.4083410965296000e-03
6.0999999999999899e+00 +8.1519447005521197e+00 +0.0000000000000000e+00 +6.0999998782888598e+00 -2.8118793516674595e-02 -5.3756305067586607e-01 +5.4083883802132013e-03
6.1999999999999904e+00 +8.1519098169665103e+00 +0.0000000000000000e+00 +6.1999998722044003e+00 -2.8118805177011968e-02 -5.3756306232879081e-01 +5.4084364446539100e-03
6.2999999999999901e+00 +8.1518743661654298e+00 +0.0000000000000000e+00 +6.2999998659204701e+00 -2.8118817677689718e-02 -5.3756307160285755e-01 +5.4084853605586916e-03
6.3999999999999897e+00 +8.1518383481488907e+00 +0.0000000000000000e+00 +6.3999998594338496e+00 -2.8118830974049248e-02 -5.3756307858349817e-01 +5.4085351986408641e-03
6.4999999999999902e+00 +8.1518017629241495e+00 +0.0000000000000000e+00 +6.4999998527413201e+00 -2.8118845021439857e-02 -5.3756308335607050e-01 +5.4085860296201162e-03
6.5999999999999899e+00 +8.1517646104839496e+00 +0.0000000000000000e+00 +6.5999998458396698e+00 -2.8118859775227691e-02 -5.3756308600601588e-01 +5.4086379242244877e-03
6.6999999999999904e+00 +8.1517268908319203e+00 +0.0000000000000000e+00 +6.6999998387256703e+00 -2.8118875190786236e-02 -5.3756308661867347e-01 +5.4086909531887162e-03
6.7999999999999901e+00 +8.1516886039680703e+00 +0.0000000000000000e+00 +6.7999998313961196e+00 -2.8118891223502484e-02 -5.3756308527938235e-01 +5.4087451872556584e-03
6.8999999999999897e+00 +8.1516497498923908e+00 +0.0000000000000000e+00 +6.8999998238477902e+00 -2.8118907828775887e-02 -5.3756308207345682e-01 +5.4088006971763107e-03
6.9999999999999902e+00 +8.1516103286012402e+00 +0.0000000000000000e+00 +6.9999998160774597e+00 -2.8118924962020290e-02 -5.3756307708621054e-01 +5.4088575537103905e-03
7.0999999999999899e+00 +8.1515703400982602e+00 +0.0000000000000000e+00 +7.0999998080819298e+00 -2.8118942578660017e-02 -5.3756307040287388e-01 +5.4089158276258006e-03
7.1999999999999904e+00 +8.1515297843834595e+00 +0.0000000000000000e+00 +7.1999997998579603e+00 -2.8118960634134646e-02 -5.3756306210867477e-01 +5.4089755896997759e-03
7.2999999999999901e+00 +8.1514886614531896e+00 +0.0000000000000000e+00 +7.2999997914023496e+00 -2.8118979083899442e-02 -5.3756305228883638e-01 +5.4090369107191718e-03
7.3999999999999897e+00 +8.1514469713147300e+00 +0.0000000000000000e+00 +7.3999997827118804e+00 -2.8118997883420052e-02 -5.3756304102846986e-01 +5.4090998614796616e-03
7.4999999999999902e+00 +8.1514047139571595e+00 +0.0000000000000000e+00 +7.4999997737833199e+00 -2.8119016988184389e-02 -5.3756302841278569e-01 +5.4091645127882721e-03
7.5999999999999899e+00 +8.1513618893914099e+00 +0.0000000000000000e+00 +7.5999997646134698e+00 -2.8119036353687378e-02 -5.3756301452679889e-01 +5.4092309354606015e-03
7.6999999999999904e+00 +8.1513184976138309e+00 +0.0000000000000000e+00 +7.6999997551991104e+00 -2.8119055935445666e-02 -5.3756299945559549e-01 +5.4092992003239295e-03
7.7999999999999901e+00 +8.1512745386207808e+00 +0.0000000000000000e+00 +7.7999997455370096e+00 -2.8119075688992311e-02 -5.3756298328422425e-01 +5.4093693782163903e-03
7.8999999999999897e+00 +8.1512300124159101e+00 +0.0000000000000000e+00 +7.8999997356239602e+00 -2.8119095569874415e-02 -5.3756296609764154e-01 +5.4094415399867247e-03
7.9999999999999902e+00 +8.1511849189955701e+00 +0.0000000000000000e+00 +7.9999997254567399e+00 -2.8119115533659238e-02 -5.3756294798081627e-01 +5.4095157564956926e-03
8.0999999999999908e+00 +8.1511392583670403e+00 +0.0000000000000000e+00 +8.0999997150321406e+00 -2.8119135554591355e-02 -5.3756292921801963e-01 +5.4095920734353372e-03
8.1999999999999904e+00 +8.1510930305230396e+00 +0.0000000000000000e+00 +8.1999997043469399e+00 -2.8119155681586266e-02 -5.3756291089128105e-01 +5.4096704357846524e-03
8.2999999999999901e+00 +8.1510462354672200e+00 +0.0000000000000000e+00 +8.2999996933979094e+00 -2.8119175982213231e-02 -5.3756289428193227e-01 +5.4097507633350415e-03
8.3999999999999897e+00 +8.1509988731995708e+00 +0.0000000000000000e+00 +8.3999996821818605e+00 -2.8119196524034374e-02 -5.3756288067128877e-01 +5.4098329758695222e-03
8.4999999999999893e+00 +8.1509509437164507e+00 +0.0000000000000000e+00 +8.4999996706955496e+00 -2.8119217374604290e-02 -5.3756287134064762e-01 +5.4099169931623716e-03
8.5999999999999908e+00 +8.1509024470215099e+00 +0.0000000000000000e+00 +8.5999996589357703e+00 -2.8119238601465368e-02 -5.3756286757120619e-01 +5.4100027349779905e-03
8.6999999999999904e+00 +8.1508533831147396e+00 +0.0000000000000000e+00 +8.6999996468993004e+00 -2.8119260272151732e-02 -5.3756287064414154e-01 +5.4100901210713996e-03
8.7999999999999794e+00 +8.1508037519961398e+00 +0.0000000000000000e+00 +8.7999996345829192e+00 -2.8119282454187391e-02 -5.3756288184058165e-01 +5.4101790711876419e-03
8.8999999999999808e+00 +8.1507535536620708e+00 +0.0000000000000000e+00 +8.8999996219834205e+00 -2.8119305215087396e-02 -5.3756290244163252e-01 +5.4102695050617343e-03
8.9999999999999805e+00 +8.1507027881161793e+00 +0.0000000000000000e+00 +8.9999996090975891e+00 -2.8119328622353019e-02 -5.3756293372829433e-01 +5.4103613424175134e-03
9.0999999999999801e+00 +8.1506514553584601e+00 +0.0000000000000000e+00 +9.0999995959221902e+00 -2.8119352743475837e-02 -5.3756297698154254e-01 +5.4104545029681431e-03
9.1999999999999797e+00 +8.1505995553889097e+00 +0.0000000000000000e+00 +9.1999995824540193e+00 -2.8119377645935816e-02 -5.3756303348229928e-01 +5.4105489064155106e-03
9.2999999999999794e+00 +8.1505470882038900e+00 +0.0000000000000000e+00 +9.2999995686898593e+00 -2.8119403397202414e-02 -5.3756310451145839e-01 +5.4106444724501867e-03
9.3999999999999808e+00 +8.1504940538070496e+00 +0.0000000000000000e+00 +9.3999995546264898e+00 -2.8119430064729913e-02 -5.3756319134980435e-01 +5.4107411207502598e-03
9.4999999999999805e+00 +8.1504404521983798e+00 +0.0000000000000000e+00 +9.4999995402606903e+00 -2.8119457715961312e-02 -5.3756329527809121e-01 +5.4108387709818550e-03
9.5999999999999801e+00 +8.1503862833778804e+00 +0.0000000000000000e+00 +9.5999995255892507e+00 -2.8119486418326584e-02 -5.3756341757701531e-01 +5.4109373427985242e-03
9.6999999999999797e+00 +8.1503315473419207e+00 +0.0000000000000000e+00 +9.6999995106089507e+00 -2.8119516239243646e-02 -5.3756355952723922e-01 +5.4110367558412049e-03
9.7999999999999794e+00 +8.1502762440941297e+00 +0.0000000000000000e+00 +9.7999994953165697e+00 -2.8119547246113787e-02 -5.3756372240931194e-01 +5.4111369297370707e-03
9.8999999999999808e+00 +8.1502203736345091e+00 +0.0000000000000000e+00 +9.8999994797088906e+00 -2.8119579506325522e-02 -5.3756390750374683e-01 +5.4112377841000238e-03
9.9999999999999805e+00 +8.1501639359594300e+00 +0.0000000000000000e+00 +9.9999994637827001e+00 -2.8119613087254240e-02 -5.3756411609102051e-01 +5.4113392385303867e-03
1.0100000000000000e+01 +8.1501069310761505e+00 +0.0000000000000000e+00 +1.0099999447534801e+01 -2.8119648061590147e-02 -5.3756434912956386e-01 +5.4114412248980857e-03
1.0199999999999999e+01 +8.1500493589774106e+00 +0.0000000000000000e+00 +1.0199999430961901e+01 -2.8119684523348971e-02 -5.3756460629028124e-01 +5.4115437242055683e-03
1.0300000000000001e+01 +8.1499912196668394e+00 +0.0000000000000000e+00 +1.0299999414060901e+01 -2.8119722571856888e-02 -5.3756488692218518e-01 +5.4116467297431071e-03
1.0400000000000000e+01 +8.1499325131444493e+00 +0.0000000000000000e+00 +1.0399999396828500e+01 -2.8119762306421242e-02 -5.3756519037443207e-01 +5.4117502348066792e-03
1.0500000000000000e+01 +8.1498732394065900e+00 +0.0000000000000000e+00 +1.0499999379261400e+01 -2.8119803826330055e-02 -5.3756551599632740e-01 +5.4118542326981513e-03
1.0600000000000000e+01 +8.1498133984568994e+00 +0.0000000000000000e+00 +1.0599999361356600e+01 -2.8119847230847289e-02 -5.3756586313724608e-01 +5.4119587167245908e-03
1.0699999999999999e+01 +8.1497529902953794e+00 +0.0000000000000000e+00 +1.0699999343110701e+01 -2.8119892619216630e-02 -5.3756623114671809e-01 +5.4120636801992753e-03
1.0800000000000001e+01 +8.1496920149220404e+00 +0.0000000000000000e+00 +1.0799999324520600e+01 -2.8119940090659636e-02 -5.3756661937440364e-01 +5.4121691164415713e-03
1.0900000000000000e+01 +8.1496304723332305e+00 +0.0000000000000000e+00 +1.0899999305583000e+01 -2.8119989744376610e-02 -5.3756702717012417e-01 +5.4122750187773827e-03
1.1000000000000000e+01 +8.1495683625325892e+00 +0.0000000000000000e+00 +1.0999999286294800e+01 -2.8120041679541932e-02 -5.3756745388378424e-01 +5.4123813805384774e-03
1.1100000000000000e+01 +8.1495056855201309e+00 +0.0000000000000000e+00 +1.1099999266652601e+01 -2.8120095995307827e-02 -5.3756789886545597e-01 +5.4124881950634819e-03
1.1199999999999999e+01 +8.1494424412958306e+00 +0.0000000000000000e+00 +1.1199999246653300e+01 -2.8120152790802443e-02 -5.3756836146535436e-01 +5.4125954556977739e-03
1.1300000000000001e+01 +8.1493786298560700e+00 +0.0000000000000000e+00 +1.1299999226293700e+01 -2.8120212165130862e-02 -5.3756884103386882e-01 +5.4127031557939225e-03
1.1400000000000000e+01 +8.1493142512044905e+00 +0.0000000000000000e+00 +1.1399999205570500e+01 -2.8120274217370261e-02 -5.3756933692148423e-01 +5.4128112887110074e-03
1.1500000000000000e+01 +8.1492493053447106e+00 +0.0000000000000000e+00 +1.1499999184480499e+01 -2.8120339046572407e-02 -5.3756984847883904e-01 +5.4129198478153505e-03
1.1600000000000000e+01 +8.1491837922658306e+00 +0.0000000000000000e+00 +1.1599999163020600e+01 -2.8120406751768780e-02 -5.3757037505683569e-01 +5.4130288264817921e-03
1.1699999999999999e+01 +8.1491177119787608e+00 +0.0000000000000000e+00 +1.1699999141187400e+01 -2.8120477431955913e-02 -5.3757091600637463e-01 +5.4131382180910665e-03
1.1800000000000001e+01 +8.1490510644762306e+00 +0.0000000000000000e+00 +1.1799999118977800e+01 -2.8120551186110541e-02 -5.3757147067865341e-01 +5.4132480160330194e-03
