# trajectory
# s[mm] rx[mm] ry[mm] rz[mm] px[rad] py[rad] pz[rad]
0.0000000000000000e+00 +8.1529999999999987e+00 +0.0000000000000000e+00 +0.0000000000000000e+00 +0.0000000000000000e+00 +0.0000000000000000e+00 +1.0000000000000000e+00
1.0000000000000001e-01 +8.1529997168951471e+00 +0.0000000000000000e+00 +9.9999999999465669e-02 -5.6620971532828443e-06 +0.0000000000000000e+00 +9.9999999998397038e-01
2.0000000000000001e-01 +8.1529988675805427e+00 +0.0000000000000000e+00 +1.9999999999572543e-01 -1.1324195074118045e-05 +0.0000000000000000e+00 +9.9999999993588140e-01
3.0000000000000004e-01 +8.1529974520561055e+00 +0.0000000000000000e+00 +2.9999999998557331e-01 -1.6986293794978640e-05 +0.0000000000000000e+00 +9.9999999985573296e-01
4.0000000000000002e-01 +8.1529954703217555e+00 +0.0000000000000000e+00 +3.9999999996580338e-01 -2.2648393341088681e-05 +0.0000000000000000e+00 +9.9999999974352516e-01
5.0000000000000000e-01 +8.1529929223774094e+00 +0.0000000000000000e+00 +4.9999999993320970e-01 -2.8310493730423219e-05 +0.0000000000000000e+00 +9.9999999959925800e-01
5.9999999999999998e-01 +8.1529898082229817e+00 +0.0000000000000000e+00 +5.9999999988458630e-01 -3.3972594973708308e-05 +0.0000000000000000e+00 +9.9999999942293138e-01
6.9999999999999996e-01 +8.1529861278583873e+00 +0.0000000000000000e+00 +6.9999999981672734e-01 -3.9634697074421006e-05 +0.0000000000000000e+00 +9.9999999921454541e-01
7.9999999999999993e-01 +8.1529818812835391e+00 +0.0000000000000000e+00 +7.9999999972642677e-01 -4.5296800028789433e-05 +0.0000000000000000e+00 +9.9999999897409997e-01
8.9999999999999991e-01 +8.1529770684983536e+00 +0.0000000000000000e+00 +8.9999999961047872e-01 -5.0958903825792775e-05 +0.0000000000000000e+00 +9.9999999870159506e-01
9.9999999999999989e-01 +8.1529716895027473e+00 +0.0000000000000000e+00 +9.9999999946567719e-01 -5.6621008447161358e-05 +0.0000000000000000e+00 +9.9999999839703069e-01
1.0999999999999999e+00 +8.1529657442966386e+00 +0.0000000000000000e+00 +1.0999999992888163e+00 -6.2283113867376709e-05 +0.0000000000000000e+00 +9.9999999806040685e-01
1.2000000000000000e+00 +8.1529592328799492e+00 +0.0000000000000000e+00 +1.1999999990766901e+00 -6.7945220053671656e-05 +0.0000000000000000e+00 +9.9999999769172354e-01
1.3000000000000000e+00 +8.1529521552526045e+00 +0.0000000000000000e+00 +1.2999999988260924e+00 -7.3607326966030370e-05 +0.0000000000000000e+00 +9.9999999729098066e-01
1.4000000000000001e+00 +8.1529445114145336e+00 +0.0000000000000000e+00 +1.3999999985338176e+00 -7.9269434557188535e-05 +0.0000000000000000e+00 +9.9999999685817831e-01
1.5000000000000002e+00 +8.1529363013656724e+00 +0.0000000000000000e+00 +1.4999999981966594e+00 -8.4931542772633429e-05 +0.0000000000000000e+00 +9.9999999639331649e-01
1.6000000000000003e+00 +8.1529275251059605e+00 +0.0000000000000000e+00 +1.5999999978114121e+00 -9.0593651550604069e-05 +0.0000000000000000e+00 +9.9999999589639510e-01
1.7000000000000004e+00 +8.1529181826353465e+00 +0.0000000000000000e+00 +1.6999999973748698e+00 -9.6255760822091355e-05 +0.0000000000000000e+00 +9.9999999536741424e-01
1.8000000000000005e+00 +8.1529082739537824e+00 +0.0000000000000000e+00 +1.7999999968838265e+00 -1.0191787051083823e-04 +0.0000000000000000e+00 +9.9999999480637380e-01
1.9000000000000006e+00 +8.1528977990612326e+00 +0.0000000000000000e+00 +1.8999999963350760e+00 -1.0757998053333983e-04 +0.0000000000000000e+00 +9.9999999421327390e-01
2.0000000000000004e+00 +8.1528867579576669e+00 +0.0000000000000000e+00 +1.9999999957254126e+00 -1.1324209079884373e-04 +0.0000000000000000e+00 +9.9999999358811442e-01
2.1000000000000005e+00 +8.1528751506430677e+00 +0.0000000000000000e+00 +2.0999999950516304e+00 -1.1890420121000071e-04 +0.0000000000000000e+00 +9.9999999293089548e-01
2.2000000000000006e+00 +8.1528629771174241e+00 +0.0000000000000000e+00 +2.1999999943105233e+00 -1.2456631167002188e-04 +0.0000000000000000e+00 +9.9999999224161695e-01
2.3000000000000007e+00 +8.1528502373807363e+00 +0.0000000000000000e+00 +2.2999999934988851e+00 -1.3022842208983552e-04 +0.0000000000000000e+00 +9.9999999152027896e-01
2.4000000000000008e+00 +8.1528369314330114e+00 +0.0000000000000000e+00 +2.3999999926135103e+00 -1.3589053238873778e-04 +0.0000000000000000e+00 +9.9999999076688151e-01
2.5000000000000009e+00 +8.1528230592742652e+00 +0.0000000000000000e+00 +2.4999999916511926e+00 -1.4155264249439252e-04 +0.0000000000000000e+00 +9.9999998998142459e-01
2.6000000000000010e+00 +8.1528086209045210e+00 +0.0000000000000000e+00 +2.5999999906087266e+00 -1.4721475234283127e-04 +0.0000000000000000e+00 +9.9999998916390820e-01
2.7000000000000011e+00 +8.1527936163238071e+00 +0.0000000000000000e+00 +2.6999999894829059e+00 -1.5287686187845313e-04 +0.0000000000000000e+00 +9.9999998831433234e-01
2.8000000000000012e+00 +8.1527780455321572e+00 +0.0000000000000000e+00 +2.7999999882705247e+00 -1.5853897105402463e-04 +0.0000000000000000e+00 +9.9999998743269713e-01
2.9000000000000012e+00 +8.1527619085296088e+00 +0.0000000000000000e+00 +2.8999999869683766e+00 -1.6420107983067963e-04 +0.0000000000000000e+00 +9.9999998651900246e-01
3.0000000000000013e+00 +8.1527452053162044e+00 +0.0000000000000000e+00 +2.9999999855732562e+00 -1.6986318817791913e-04 +0.0000000000000000e+00 +9.9999998557324843e-01
3.1000000000000014e+00 +8.1527279358919884e+00 +0.0000000000000000e+00 +3.0999999840819576e+00 -1.7552529607361110e-04 +0.0000000000000000e+00 +9.9999998459543493e-01
3.2000000000000015e+00 +8.1527101002570053e+00 +0.0000000000000000e+00 +3.1999999824912746e+00 -1.8118740350399039e-04 +0.0000000000000000e+00 +9.9999998358556208e-01
3.3000000000000016e+00 +8.1526916984113029e+00 +0.0000000000000000e+00 +3.2999999807980012e+00 -1.8684951046365838e-04 +0.0000000000000000e+00 +9.9999998254362987e-01
3.4000000000000017e+00 +8.1526727303549276e+00 +0.0000000000000000e+00 +3.3999999789989319e+00 -1.9251161695558281e-04 +0.0000000000000000e+00 +9.9999998146963831e-01
3.5000000000000018e+00 +8.1526531960879272e+00 +0.0000000000000000e+00 +3.4999999770908605e+00 -1.9817372299109766e-04 +0.0000000000000000e+00 +9.9999998036358739e-01
3.6000000000000019e+00 +8.1526330956103443e+00 +0.0000000000000000e+00 +3.5999999750705811e+00 -2.0383582858990272e-04 +0.0000000000000000e+00 +9.9999997922547712e-01
3.7000000000000020e+00 +8.1526124289222217e+00 +0.0000000000000000e+00 +3.6999999729348874e+00 -2.0949793378006345e-04 +0.0000000000000000e+00 +9.9999997805530749e-01
3.8000000000000020e+00 +8.1525911960236002e+00 +0.0000000000000000e+00 +3.7999999706805738e+00 -2.1516003859801060e-04 +0.0000000000000000e+00 +9.9999997685307851e-01
3.9000000000000021e+00 +8.1525693969145134e+00 +0.0000000000000000e+00 +3.8999999683044346e+00 -2.2082214308853998e-04 +0.0000000000000000e+00 +9.9999997561879017e-01
4.0000000000000018e+00 +8.1525470315949917e+00 +0.0000000000000000e+00 +3.9999999658032634e+00 -2.2648424730481207e-04 +0.0000000000000000e+00 +9.9999997435244248e-01
4.1000000000000014e+00 +8.1525241000650599e+00 +0.0000000000000000e+00 +4.0999999631738548e+00 -2.3214635130810576e-04 +0.0000000000000000e+00 +9.9999997305403532e-01
4.2000000000000011e+00 +8.1525006023247357e+00 +0.0000000000000000e+00 +4.1999999604130025e+00 -2.3780845516511220e-04 +0.0000000000000000e+00 +9.9999997172356880e-01
4.3000000000000007e+00 +8.1524765383740299e+00 +0.0000000000000000e+00 +4.2999999575175005e+00 -2.4347055894522889e-04 +0.0000000000000000e+00 +9.9999997036104293e-01
4.4000000000000004e+00 +8.1524519082129476e+00 +0.0000000000000000e+00 +4.3999999544841426e+00 -2.4913266272031379e-04 +0.0000000000000000e+00 +9.9999996896645760e-01
4.5000000000000000e+00 +8.1524267118414837e+00 +0.0000000000000000e+00 +4.4999999513097233e+00 -2.5479476656468545e-04 +0.0000000000000000e+00 +9.9999996753981280e-01
4.5999999999999996e+00 +8.1524009492596292e+00 +0.0000000000000000e+00 +4.5999999479910363e+00 -2.6045687055512316e-04 +0.0000000000000000e+00 +9.9999996608110853e-01
4.6999999999999993e+00 +8.1523746204673646e+00 +0.0000000000000000e+00 +4.6999999445248761e+00 -2.6611897477086708e-04 +0.0000000000000000e+00 +9.9999996459034479e-01
4.7999999999999989e+00 +8.1523477254646650e+00 +0.0000000000000000e+00 +4.7999999409080365e+00 -2.7178107929361835e-04 +0.0000000000000000e+00 +9.9999996306752159e-01
4.8999999999999986e+00 +8.1523202642514931e+00 +0.0000000000000000e+00 +4.8999999371373120e+00 -2.7744318420753930e-04 +0.0000000000000000e+00 +9.9999996151263881e-01
4.9999999999999982e+00 +8.1522922368278063e+00 +0.0000000000000000e+00 +4.9999999332094962e+00 -2.8310528959925367e-04 +0.0000000000000000e+00 +9.9999995992569646e-01
5.0999999999999979e+00 +8.1522636431935531e+00 +0.0000000000000000e+00 +5.0999999291213829e+00 -2.8876739555784667e-04 +0.0000000000000000e+00 +9.9999995830669453e-01
5.1999999999999975e+00 +8.1522344833486731e+00 +0.0000000000000000e+00 +5.1999999248697666e+00 -2.9442950217486525e-04 +0.0000000000000000e+00 +9.9999995665563290e-01
5.2999999999999972e+00 +8.1522047572930934e+00 +0.0000000000000000e+00 +5.2999999204514410e+00 -3.0009160954431834e-04 +0.0000000000000000e+00 +9.9999995497251160e-01
5.3999999999999968e+00 +8.1521744650267358e+00 +0.0000000000000000e+00 +5.3999999158632006e+00 -3.0575371776267701e-04 +0.0000000000000000e+00 +9.9999995325733060e-01
5.4999999999999964e+00 +8.1521436065495099e+00 +0.0000000000000000e+00 +5.4999999111018392e+00 -3.1141582692887477e-04 +0.0000000000000000e+00 +9.9999995151008980e-01
5.5999999999999961e+00 +8.1521121818613160e+00 +0.0000000000000000e+00 +5.5999999061641503e+00 -3.1707793714430766e-04 +0.0000000000000000e+00 +9.9999994973078921e-01
5.6999999999999957e+00 +8.1520801909620424e+00 +0.0000000000000000e+00 +5.6999999010469287e+00 -3.2274004851283472e-04 +0.0000000000000000e+00 +9.9999994791942881e-01
5.7999999999999954e+00 +8.1520476338515699e+00 +0.0000000000000000e+00 +5.7999998957469678e+00 -3.2840216114077807e-04 +0.0000000000000000e+00 +9.9999994607600839e-01
5.8999999999999950e+00 +8.1520145105297672e+00 +0.0000000000000000e+00 +5.8999998902610615e+00 -3.3406427513692330e-04 +0.0000000000000000e+00 +9.9999994420052807e-01
5.9999999999999947e+00 +8.1519808209964921e+00 +0.0000000000000000e+00 +5.9999998845860043e+00 -3.3972639061251975e-04 +0.0000000000000000e+00 +9.9999994229298772e-01
6.0999999999999943e+00 +8.1519465652515919e+00 +0.0000000000000000e+00 +6.0999998787185898e+00 -3.4538850768129042e-04 +0.0000000000000000e+00 +9.9999994035338724e-01
6.1999999999999940e+00 +8.1519117432948995e+00 +0.0000000000000000e+00 +6.1999998726556127e+00 -3.5105062645953854e-04 +0.0000000000000000e+00 +9.9999993838172652e-01
6.2999999999999936e+00 +8.1518763551262392e+00 +0.0000000000000000e+00 +6.2999998663938666e+00 -3.5671274706625404e-04 +0.0000000000000000e+00 +9.9999993637800555e-01
6.3999999999999932e+00 +8.1518404007454208e+00 +0.0000000000000000e+00 +6.3999998599301451e+00 -3.6237486962312335e-04 +0.0000000000000000e+00 +9.9999993434222434e-01
6.4999999999999929e+00 +8.1518038801522454e+00 +0.0000000000000000e+00 +6.4999998532612429e+00 -3.6803699425452905e-04 +0.0000000000000000e+00 +9.9999993227438266e-01
6.5999999999999925e+00 +8.1517667933464963e+00 +0.0000000000000000e+00 +6.5999998463839535e+00 -3.7369912108755005e-04 +0.0000000000000000e+00 +9.9999993017448052e-01
6.6999999999999922e+00 +8.1517291403279497e+00 +0.0000000000000000e+00 +6.6999998392950708e+00 -3.7936125025196156e-04 +0.0000000000000000e+00 +9.9999992804251780e-01
6.7999999999999918e+00 +8.1516909210963640e+00 +0.0000000000000000e+00 +6.7999998319913884e+00 -3.8502338188023497e-04 +0.0000000000000000e+00 +9.9999992587849440e-01
6.8999999999999915e+00 +8.1516521356514868e+00 +0.0000000000000000e+00 +6.8999998244697007e+00 -3.9068551610753783e-04 +0.0000000000000000e+00 +9.9999992368241031e-01
6.9999999999999911e+00 +8.1516127839930519e+00 +0.0000000000000000e+00 +6.9999998167268016e+00 -3.9634765307173381e-04 +0.0000000000000000e+00 +9.9999992145426531e-01
7.0999999999999908e+00 +8.1515728661207767e+00 +0.0000000000000000e+00 +7.0999998087594847e+00 -4.0200979291338268e-04 +0.0000000000000000e+00 +9.9999991919405939e-01
7.1999999999999904e+00 +8.1515323820343681e+00 +0.0000000000000000e+00 +7.1999998005645445e+00 -4.0767193577574023e-04 +0.0000000000000000e+00 +9.9999991690179235e-01
7.2999999999999901e+00 +8.1514913317335154e+00 +0.0000000000000000e+00 +7.2999997921387747e+00 -4.1333408180475824e-04 +0.0000000000000000e+00 +9.9999991457746418e-01
7.3999999999999897e+00 +8.1514497152178951e+00 +0.0000000000000000e+00 +7.3999997834789690e+00 -4.1899623114908440e-04 +0.0000000000000000e+00 +9.9999991222107476e-01
7.4999999999999893e+00 +8.1514075324871698e+00 +0.0000000000000000e+00 +7.4999997745819211e+00 -4.2465838396006222e-04 +0.0000000000000000e+00 +9.9999990983262388e-01
7.5999999999999890e+00 +8.1513647835409824e+00 +0.0000000000000000e+00 +7.5999997654444247e+00 -4.3032054039173113e-04 +0.0000000000000000e+00 +9.9999990741211142e-01
7.6999999999999886e+00 +8.1513214683789652e+00 +0.0000000000000000e+00 +7.6999997560632742e+00 -4.3598270060082617e-04 +0.0000000000000000e+00 +9.9999990495953728e-01
7.7999999999999883e+00 +8.1512775870007310e+00 +0.0000000000000000e+00 +7.7999997464352635e+00 -4.4164486474677813e-04 +0.0000000000000000e+00 +9.9999990247490134e-01
7.8999999999999879e+00 +8.1512331394058783e+00 +0.0000000000000000e+00 +7.8999997365571861e+00 -4.4730703299171334e-04 +0.0000000000000000e+00 +9.9999989995820349e-01
7.9999999999999876e+00 +8.1511881255939898e+00 +0.0000000000000000e+00 +7.9999997264258358e+00 -4.5296920550045368e-04 +0.0000000000000000e+00 +9.9999989740944351e-01
8.0999999999999872e+00 +8.1511425455646300e+00 +0.0000000000000000e+00 +8.0999997160380062e+00 -4.5863138243986459e-04 +0.0000000000000000e+00 +9.9999989482862128e-01
8.1999999999999869e+00 +8.1510963993173480e+00 +0.0000000000000000e+00 +8.1999997053904909e+00 -4.6429356397168273e-04 +0.0000000000000000e+00 +9.9999989221573671e-01
8.2999999999999865e+00 +8.1510496868516764e+00 +0.0000000000000000e+00 +8.2999996944800838e+00 -4.6995575024534418e-04 +0.0000000000000000e+00 +9.9999988957078956e-01
8.3999999999999861e+00 +8.1510024081671357e+00 +0.0000000000000000e+00 +8.3999996833035802e+00 -4.7561794139733228e-04 +0.0000000000000000e+00 +9.9999988689377972e-01
8.4999999999999858e+00 +8.1509545632632303e+00 +0.0000000000000000e+00 +8.4999996718577719e+00 -4.8128013755117759e-04 +0.0000000000000000e+00 +9.9999988418470709e-01
8.5999999999999854e+00 +8.1509061521394557e+00 +0.0000000000000000e+00 +8.5999996601394528e+00 -4.8694233881745779e-04 +0.0000000000000000e+00 +9.9999988144357155e-01
8.6999999999999851e+00 +8.1508571747952931e+00 +0.0000000000000000e+00 +8.6999996481454165e+00 -4.9260454529379775e-04 +0.0000000000000000e+00 +9.9999987867037288e-01
8.7999999999999847e+00 +8.1508076312302205e+00 +0.0000000000000000e+00 +8.7999996358724584e+00 -4.9826675706486948e-04 +0.0000000000000000e+00 +9.9999987586511097e-01
8.8999999999999844e+00 +8.1507575214437029e+00 +0.0000000000000000e+00 +8.8999996233173704e+00 -5.0392897420239210e-04 +0.0000000000000000e+00 +9.9999987302778570e-01
8.9999999999999840e+00 +8.1507068454352005e+00 +0.0000000000000000e+00 +8.9999996104769462e+00 -5.0959119676513153e-04 +0.0000000000000000e+00 +9.9999987015839698e-01
9.0999999999999837e+00 +8.1506556032041679e+00 +0.0000000000000000e+00 +9.0999995973479813e+00 -5.1525342479890083e-04 +0.0000000000000000e+00 +9.9999986725694467e-01
9.1999999999999833e+00 +8.1506037947500563e+00 +0.0000000000000000e+00 +9.1999995839272675e+00 -5.2091565833655990e-04 +0.0000000000000000e+00 +9.9999986432342858e-01
9.2999999999999829e+00 +8.1505514200723148e+00 +0.0000000000000000e+00 +9.2999995702115985e+00 -5.2657789739801557e-04 +0.0000000000000000e+00 +9.9999986135784869e-01
9.3999999999999826e+00 +8.1504984791703912e+00 +0.0000000000000000e+00 +9.3999995561977681e+00 -5.3224014199022146e-04 +0.0000000000000000e+00 +9.9999985836020489e-01
9.4999999999999822e+00 +8.1504449720437329e+00 +0.0000000000000000e+00 +9.4999995418825698e+00 -5.3790239210717793e-04 +0.0000000000000000e+00 +9.9999985533049707e-01
9.5999999999999819e+00 +8.1503908986917875e+00 +0.0000000000000000e+00 +9.5999995272627974e+00 -5.4356464772993215e-04 +0.0000000000000000e+00 +9.9999985226872523e-01
9.6999999999999815e+00 +8.1503362591140043e+00 +0.0000000000000000e+00 +9.6999995123352445e+00 -5.4922690882657779e-04 +0.0000000000000000e+00 +9.9999984917488927e-01
9.7999999999999812e+00 +8.1502810533098398e+00 +0.0000000000000000e+00 +9.7999994970967048e+00 -5.5488917535225532e-04 +0.0000000000000000e+00 +9.9999984604898906e-01
9.8999999999999808e+00 +8.1502252812787539e+00 +0.0000000000000000e+00 +9.8999994815439720e+00 -5.6055144724915162e-04 +0.0000000000000000e+00 +9.9999984289102450e-01
9.9999999999999805e+00 +8.1501689430202138e+00 +0.0000000000000000e+00 +9.9999994656738398e+00 -5.6621372444650006e-04 +0.0000000000000000e+00 +9.9999983970099560e-01
1.0099999999999980e+01 +8.1501120385336918e+00 +0.0000000000000000e+00 +1.0099999449483102e+01 -5.7187600686132143e-04 +0.0000000000000000e+00 +9.9999983647890234e-01
1.0199999999999980e+01 +8.1500545678186711e+00 +0.0000000000000000e+00 +1.0199999432968552e+01 -5.7753829440657361e-04 +0.0000000000000000e+00 +9.9999983322474462e-01
1.0299999999999979e+01 +8.1499965308746418e+00 +0.0000000000000000e+00 +1.0299999416126981e+01 -5.8320058699930168e-04 +0.0000000000000000e+00 +9.9999982993852243e-01
1.0399999999999979e+01 +8.1499379277011048e+00 +0.0000000000000000e+00 +1.0399999398955186e+01 -5.8886288456137825e-04 +0.0000000000000000e+00 +9.9999982662023579e-01
1.0499999999999979e+01 +8.1498787582975663e+00 +0.0000000000000000e+00 +1.0499999381449960e+01 -5.9452518701950334e-04 +0.0000000000000000e+00 +9.9999982326988457e-01
1.0599999999999978e+01 +8.1498190226635394e+00 +0.0000000000000000e+00 +1.0599999363608095e+01 -6.0018749430520361e-04 +0.0000000000000000e+00 +9.9999981988746878e-01
1.0699999999999978e+01 +8.1497587207985465e+00 +0.0000000000000000e+00 +1.0699999345426384e+01 -6.0584980635483240e-04 +0.0000000000000000e+00 +9.9999981647298841e-01
1.0799999999999978e+01 +8.1496978527021113e+00 +0.0000000000000000e+00 +1.0799999326901624e+01 -6.1151212310956912e-04 +0.0000000000000000e+00 +9.9999981302644336e-01
1.0899999999999977e+01 +8.1496364183737686e+00 +0.0000000000000000e+00 +1.0899999308030605e+01 -6.1717444451541900e-04 +0.0000000000000000e+00 +9.9999980954783363e-01
1.0999999999999977e+01 +8.1495744178130547e+00 +0.0000000000000000e+00 +1.0999999288810121e+01 -6.2283677052321238e-04 +0.0000000000000000e+00 +9.9999980603715910e-01
1.1099999999999977e+01 +8.1495118510195113e+00 +0.0000000000000000e+00 +1.1099999269236967e+01 -6.2849910108860464e-04 +0.0000000000000000e+00 +9.9999980249441978e-01
1.1199999999999976e+01 +8.1494487179926853e+00 +0.0000000000000000e+00 +1.1199999249307936e+01 -6.3416143617207562e-04 +0.0000000000000000e+00 +9.9999979891961555e-01
1.1299999999999976e+01 +8.1493850187321275e+00 +0.0000000000000000e+00 +1.1299999229019821e+01 -6.3982377573892923e-04 +0.0000000000000000e+00 +9.9999979531274641e-01
1.1399999999999975e+01 +8.1493207532373901e+00 +0.0000000000000000e+00 +1.1399999208369417e+01 -6.4548611975929289e-04 +0.0000000000000000e+00 +9.9999979167381225e-01
1.1499999999999975e+01 +8.1492559215080291e+00 +0.0000000000000000e+00 +1.1499999187353515e+01 -6.5114846820811707e-04 +0.0000000000000000e+00 +9.9999978800281308e-01
1.1599999999999975e+01 +8.1491905235436022e+00 +0.0000000000000000e+00 +1.1599999165968910e+01 -6.5681082106517524e-04 +0.0000000000000000e+00 +9.9999978429974878e-01
1.1699999999999974e+01 +8.1491245593436705e+00 +0.0000000000000000e+00 +1.1699999144212395e+01 -6.6247317831506281e-04 +0.0000000000000000e+00 +9.9999978056461936e-01
1.1799999999999974e+01 +8.1490580289077936e+00 +0.0000000000000000e+00 +1.1799999122080765e+01 -6.6813553994719702e-04 +0.0000000000000000e+00 +9.9999977679742469e-01
