# field on trajectory
# s[mm] rx[mm] ry[mm] rz[mm] bx[T] by[T] bz[T]
-0.0000000000000000e+00 +8.1530000000000094e+00 +0.0000000000000000e+00 -0.0000000000000000e+00 -3.1481992577476442e-02 -5.9245918840111877e-01 +5.9116629606008227e-03
-1.0000000000000001e-01 +8.1529997159377707e+00 +0.0000000000000000e+00 -1.0008006405070299e-01 -3.1481958886783158e-02 -5.9245895490059830e-01 +5.9117147111542295e-03
-2.0000000000000001e-01 +8.1529988637557800e+00 +0.0000000000000000e+00 -2.0016012809818201e-01 -3.1481935530360577e-02 -5.9245870078520935e-01 +5.9117669745372310e-03
-2.9999999999999999e-01 +8.1529974434524792e+00 +0.0000000000000000e+00 -3.0024019213920999e-01 -3.1481921949265024e-02 -5.9245842931146553e-01 +5.9118198183052851e-03
-4.0000000000000002e-01 +8.1529954550242092e+00 +0.0000000000000000e+00 -4.0032025617056399e-01 -3.1481917584547929e-02 -5.9245814373590022e-01 +5.9118733100139449e-03
-5.0000000000000000e-01 +8.1529928984782600e+00 +0.0000000000000000e+00 -5.0040032018901703e-01 -3.1481921877251358e-02 -5.9245784731496398e-01 +5.9119275172176385e-03
-5.9999999999999998e-01 +8.1529897738146193e+00 +0.0000000000000000e+00 -6.0048038419134497e-01 -3.1481934268417222e-02 -5.9245754330517097e-01 +5.9119825074710718e-03
-6.9999999999999996e-01 +8.1529860810223909e+00 +0.0000000000000000e+00 -7.0056044817432195e-01 -3.1481954199089786e-02 -5.9245723496313341e-01 +5.9120383483294266e-03
-8.0000000000000004e-01 +8.1529818201124709e+00 +0.0000000000000000e+00 -8.0064051213472498e-01 -3.1481981110302738e-02 -5.9245692554529572e-01 +5.9120951073454867e-03
-9.0000000000000002e-01 +8.1529769910812302e+00 +0.0000000000000000e+00 -9.0072057606932698e-01 -3.1482014443096000e-02 -5.9245661830823182e-01 +5.9121528520725639e-03
-1.0000000000000000e+00 +8.1529715939250291e+00 +0.0000000000000000e+00 -1.0008006399749001e+00 -3.1482053638510692e-02 -5.9245631650852859e-01 +5.9122116500631636e-03
-1.1000000000000001e+00 +8.1529656286511507e+00 +0.0000000000000000e+00 -1.1008807038482300e+00 -3.1482098137585436e-02 -5.9245602340269865e-01 +5.9122715688679573e-03
-1.2000000000000000e+00 +8.1529590952522994e+00 +0.0000000000000000e+00 -1.2009607676860801e+00 -3.1482147381368585e-02 -5.9245574224738984e-01 +5.9123326760377824e-03
-1.3000000000000000e+00 +8.1529519937357708e+00 +0.0000000000000000e+00 -1.3010408314852300e+00 -3.1482200810906733e-02 -5.9245547629914885e-01 +5.9123950391210883e-03
-1.3999999999999999e+00 +8.1529443240979198e+00 +0.0000000000000000e+00 -1.4011208952424601e+00 -3.1482257867256870e-02 -5.9245522881463109e-01 +5.9124587256659507e-03
-1.5000000000000000e+00 +8.1529360863350995e+00 +0.0000000000000000e+00 -1.5012009589545301e+00 -3.1482317991482850e-02 -5.9245500305051313e-01 +5.9125238032190419e-03
-1.6000000000000001e+00 +8.1529272804509691e+00 +0.0000000000000000e+00 -1.6012810226182299e+00 -3.1482380624653333e-02 -5.9245480226343494e-01 +5.9125903393248969e-03
-1.7000000000000000e+00 +8.1529179064491508e+00 +0.0000000000000000e+00 -1.7013610862303301e+00 -3.1482445207846085e-02 -5.9245462971006146e-01 +5.9126584015263941e-03
-1.8000000000000000e+00 +8.1529079643223703e+00 +0.0000000000000000e+00 -1.8014411497875999e+00 -3.1482511182153838e-02 -5.9245448864717210e-01 +5.9127280573655688e-03
-1.8999999999999999e+00 +8.1528974540779000e+00 +0.0000000000000000e+00 -1.9015212132868200e+00 -3.1482577988674466e-02 -5.9245438233145586e-01 +5.9127993743813357e-03
-2.0000000000000000e+00 +8.1528863757084800e+00 +0.0000000000000000e+00 -2.0016012767247702e+00 -3.1482645068524606e-02 -5.9245431401974513e-01 +5.9128724201117557e-03
-2.1000000000000001e+00 +8.1528747292177304e+00 +0.0000000000000000e+00 -2.1016813400982199e+00 -3.1482711853835742e-02 -5.9245428582882476e-01 +5.9129472434848729e-03
-2.2000000000000002e+00 +8.1528625146056601e+00 +0.0000000000000000e+00 -2.2017614034039301e+00 -3.1482777742459327e-02 -5.9245429552920947e-01 +5.9130238224872952e-03
-2.2999999999999998e+00 +8.1528497318759001e+00 +0.0000000000000000e+00 -2.3018414666387002e+00 -3.1482842124074074e-02 -5.9245433985571927e-01 +5.9131021182026533e-03
-2.3999999999999999e+00 +8.1528363810211903e+00 +0.0000000000000000e+00 -2.4019215297993002e+00 -3.1482904388361224e-02 -5.9245441554323564e-01 +5.9131820917173008e-03
-2.5000000000000000e+00 +8.1528224620451493e+00 +0.0000000000000000e+00 -2.5020015928824901e+00 -3.1482963924994188e-02 -5.9245451932652149e-01 +5.9132637041187886e-03
-2.6000000000000001e+00 +8.1528079749477893e+00 +0.0000000000000000e+00 -2.6020816558850601e+00 -3.1483020123644172e-02 -5.9245464794033376e-01 +5.9133469164973978e-03
-2.7000000000000002e+00 +8.1527929197291105e+00 +0.0000000000000000e+00 -2.7021617188037701e+00 -3.1483072373977711e-02 -5.9245479811938873e-01 +5.9134316899461413e-03
-2.7999999999999998e+00 +8.1527772963891003e+00 +0.0000000000000000e+00 -2.8022417816354102e+00 -3.1483120065655928e-02 -5.9245496659835861e-01 +5.9135179855610747e-03
-2.8999999999999999e+00 +8.1527611049277802e+00 +0.0000000000000000e+00 -2.9023218443767500e+00 -3.1483162588333766e-02 -5.9245515011186567e-01 +5.9136057644416000e-03
-3.0000000000000000e+00 +8.1527443453451305e+00 +0.0000000000000000e+00 -3.0024019070245598e+00 -3.1483199331659086e-02 -5.9245534539447930e-01 +5.9136949876907830e-03
-3.1000000000000001e+00 +8.1527270176411495e+00 +0.0000000000000000e+00 -3.1024819695756198e+00 -3.1483229685272035e-02 -5.9245554918070997e-01 +5.9137856164156533e-03
-3.2000000000000002e+00 +8.1527091218158603e+00 +0.0000000000000000e+00 -3.2025620320267101e+00 -3.1483253038804122e-02 -5.9245575820500518e-01 +5.9138776117275251e-03
-3.2999999999999998e+00 +8.1526906578692397e+00 +0.0000000000000000e+00 -3.3026420943745900e+00 -3.1483268781877474e-02 -5.9245596920174504e-01 +5.9139709347422933e-03
-3.3999999999999999e+00 +8.1526716258013003e+00 +0.0000000000000000e+00 -3.4027221566160502e+00 -3.1483276304104080e-02 -5.9245617890523716e-01 +5.9140655465807525e-03
-3.5000000000000000e+00 +8.1526520256120403e+00 +0.0000000000000000e+00 -3.5028022187478500e+00 -3.1483274995084916e-02 -5.9245638404971335e-01 +5.9141614083689032e-03
-3.6000000000000001e+00 +8.1526318572978198e+00 +0.0000000000000000e+00 -3.6028822807667802e+00 -3.1483264244410829e-02 -5.9245658136935253e-01 +5.9142584812385667e-03
-3.7000000000000002e+00 +8.1526111208659096e+00 +0.0000000000000000e+00 -3.7029623426696099e+00 -3.1483243441655324e-02 -5.9245676759816024e-01 +5.9143567263264746e-03
-3.7999999999999998e+00 +8.1525898163126804e+00 +0.0000000000000000e+00 -3.8030424044531101e+00 -3.1483211976383381e-02 -5.9245693947013900e-01 +5.9144561047763987e-03
-3.8999999999999999e+00 +8.1525679436344909e+00 +0.0000000000000000e+00 -3.9031224661140600e+00 -3.1483169238145765e-02 -5.9245709371919719e-01 +5.9145565777385728e-03
-4.0000000000000000e+00 +8.1525455028386205e+00 +0.0000000000000000e+00 -4.0032025276492398e+00 -3.1483114616481803e-02 -5.9245722707907789e-01 +5.9146581063692846e-03
-4.0999999999999996e+00 +8.1525224939177896e+00 +0.0000000000000000e+00 -4.1032825890554099e+00 -3.1483047773590123e-02 -5.9245733705185966e-01 +5.9147606596154827e-03
-4.2000000000000002e+00 +8.1524989168792708e+00 +0.0000000000000000e+00 -4.2033626503293604e+00 -3.1482969362601365e-02 -5.9245742393173173e-01 +5.9148642347096568e-03
-4.2999999999999998e+00 +8.1524747717157897e+00 +0.0000000000000000e+00 -4.3034427114678504e+00 -3.1482880261696281e-02 -5.9245748864716752e-01 +5.9149688353061355e-03
-4.4000000000000004e+00 +8.1524500584346207e+00 +0.0000000000000000e+00 -4.4035227724676700e+00 -3.1482781349046314e-02 -5.9245753212657015e-01 +5.9150744650543130e-03
-4.5000000000000000e+00 +8.1524247770285001e+00 +0.0000000000000000e+00 -4.5036028333255800e+00 -3.1482673502826304e-02 -5.9245755529850996e-01 +5.9151811276007549e-03
-4.5999999999999996e+00 +8.1523989275046898e+00 +0.0000000000000000e+00 -4.6036828940383696e+00 -3.1482557601201701e-02 -5.9245755909149578e-01 +5.9152888265864151e-03
-4.7000000000000002e+00 +8.1523725098559208e+00 +0.0000000000000000e+00 -4.7037629546028104e+00 -3.1482434522341479e-02 -5.9245754443421239e-01 +5.9153975656487355e-03
-4.7999999999999998e+00 +8.1523455240894709e+00 +0.0000000000000000e+00 -4.8038430150156701e+00 -3.1482305144405434e-02 -5.9245751225529197e-01 +5.9155073484188662e-03
-4.9000000000000004e+00 +8.1523179701980606e+00 +0.0000000000000000e+00 -4.9039230752737302e+00 -3.1482170345556795e-02 -5.9245746348355388e-01 +5.9156181785237688e-03
-5.0000000000000000e+00 +8.1522898481889605e+00 +0.0000000000000000e+00 -5.0040031353737602e+00 -3.1482031003949779e-02 -5.9245739904777039e-01 +5.9157300595834243e-03
-5.0999999999999996e+00 +8.1522611580549000e+00 +0.0000000000000000e+00 -5.1040831953125396e+00 -3.1481887997742160e-02 -5.9245731987691208e-01 +5.9158429952129539e-03
-5.2000000000000002e+00 +8.1522318997995207e+00 +0.0000000000000000e+00 -5.2041632550868497e+00 -3.1481742205084311e-02 -5.9245722689994207e-01 +5.9159569890201175e-03
-5.2999999999999998e+00 +8.1522020734228100e+00 +0.0000000000000000e+00 -5.3042433146934496e+00 -3.1481594504125507e-02 -5.9245712104593939e-01 +5.9160720446062142e-03
-5.4000000000000004e+00 +8.1521716789247893e+00 +0.0000000000000000e+00 -5.4043233741291203e+00 -3.1481445773012456e-02 -5.9245700324407502e-01 +5.9161881655654270e-03
-5.5000000000000000e+00 +8.1521407163090807e+00 +0.0000000000000000e+00 -5.5044034333906504e+00 -3.1481296889887718e-02 -5.9245687442358641e-01 +5.9163053554841796e-03
-5.5999999999999996e+00 +8.1521091855684098e+00 +0.0000000000000000e+00 -5.6044834924747899e+00 -3.1481148732896078e-02 -5.9245673551389855e-01 +5.9164236179420175e-03
-5.7000000000000002e+00 +8.1520770867064094e+00 +0.0000000000000000e+00 -5.7045635513783299e+00 -3.1481002180175133e-02 -5.9245658744445473e-01 +5.9165429565094293e-03
-5.7999999999999998e+00 +8.1520444197231008e+00 +0.0000000000000000e+00 -5.8046436100980499e+00 -3.1480858109861565e-02 -5.9245643114483482e-01 +5.9166633747487381e-03
-5.9000000000000004e+00 +8.1520111846184609e+00 +0.0000000000000000e+00 -5.9047236686307096e+00 -3.1480717400089724e-02 -5.9245626754473424e-01 +5.9167848762134469e-03
-5.9999999999999902e+00 +8.1519773813925003e+00 +0.0000000000000000e+00 -6.0048037269731003e+00 -3.1480580928980421e-02 -5.9245609757399276e-01 +5.9169074644471673e-03
-6.0999999999999899e+00 +8.1519430100452208e+00 +0.0000000000000000e+00 -6.1048837851219799e+00 -3.1480449458686360e-02 -5.9245592243507428e-01 +5.9170311352890444e-03
-6.1999999999999904e+00 +8.1519080705766100e+00 +0.0000000000000000e+00 -6.2049638430741396e+00 -3.1480323349561995e-02 -5.9245574427468417e-01 +5.9171558579114870e-03
-6.2999999999999901e+00 +8.1518725629866804e+00 +0.0000000000000000e+00 -6.3050439008263499e+00 -3.1480202875002222e-02 -5.9245556544387001e-01 +5.9172815957183426e-03
-6.3999999999999897e+00 +8.1518364872754301e+00 +0.0000000000000000e+00 -6.4051239583753699e+00 -3.1480088308404458e-02 -5.9245538829366617e-01 +5.9174083121163344e-03
-6.4999999999999902e+00 +8.1517998434428591e+00 +0.0000000000000000e+00 -6.5052040157180002e+00 -3.1479979923168817e-02 -5.9245521517509059e-01 +5.9175359705152244e-03
-6.5999999999999899e+00 +8.1517626314889604e+00 +0.0000000000000000e+00 -6.6052840728510001e+00 -3.1479877992698337e-02 -5.9245504843914498e-01 +5.9176645343279981e-03
-6.6999999999999904e+00 +8.1517248514137499e+00 +0.0000000000000000e+00 -6.7053641297711399e+00 -3.1479782790399223e-02 -5.9245489043681299e-01 +5.9177939669710321e-03
-6.7999999999999901e+00 +8.1516865032135701e+00 +0.0000000000000000e+00 -6.8054441864752100e+00 -3.1479694589682611e-02 -5.9245474351908789e-01 +5.9179242318645776e-03
-6.8999999999999897e+00 +8.1516475868957095e+00 +0.0000000000000000e+00 -6.9055242429599701e+00 -3.1479613663958468e-02 -5.9245461003685407e-01 +5.9180552924317014e-03
-6.9999999999999902e+00 +8.1516081024565192e+00 +0.0000000000000000e+00 -7.0056042992222096e+00 -3.1479540286645367e-02 -5.9245449234106262e-01 +5.9181871121003204e-03
-7.0999999999999899e+00 +8.1515680498960101e+00 +0.0000000000000000e+00 -7.1056843552586999e+00 -3.1479474731164248e-02 -5.9245439278261181e-01 +5.9183196543021194e-03
-7.1999999999999904e+00 +8.1515274292141804e+00 +0.0000000000000000e+00 -7.2057644110662000e+00 -3.1479417270940356e-02 -5.9245431371237578e-01 +5.9184528824730524e-03
-7.2999999999999901e+00 +8.1514862404073902e+00 +0.0000000000000000e+00 -7.3058444666415099e+00 -3.1479368179404936e-02 -5.9245425748123148e-01 +5.9185867600538193e-03
-7.3999999999999897e+00 +8.1514444834829192e+00 +0.0000000000000000e+00 -7.4059245219813796e+00 -3.1479327729989168e-02 -5.9245422643994117e-01 +5.9187212504888155e-03
-7.4999999999999902e+00 +8.1514021584334806e+00 +0.0000000000000000e+00 -7.5060045770826100e+00 -3.1479296196135494e-02 -5.9245422293935679e-01 +5.9188563172284450e-03
-7.5999999999999899e+00 +8.1513592652663593e+00 +0.0000000000000000e+00 -7.6060846319419504e+00 -3.1479273851285093e-02 -5.9245424933018209e-01 +5.9189919237268521e-03
-7.6999999999999904e+00 +8.1513158039779192e+00 +0.0000000000000000e+00 -7.7061646865561997e+00 -3.1479260968889235e-02 -5.9245430796317911e-01 +5.9191280334442258e-03
-7.7999999999999901e+00 +8.1512717745681602e+00 +0.0000000000000000e+00 -7.8062447409221098e+00 -3.1479257822403156e-02 -5.9245440118904802e-01 +5.9192646098457716e-03
-7.8999999999999897e+00 +8.1512271770334301e+00 +0.0000000000000000e+00 -7.9063247950364799e+00 -3.1479264685289429e-02 -5.9245453135848469e-01 +5.9194016164024746e-03
-7.9999999999999902e+00 +8.1511820113773901e+00 +0.0000000000000000e+00 -8.0064048488960609e+00 -3.1479281830962408e-02 -5.9245470082189911e-01 +5.9195390165904943e-03
-8.0999999999999908e+00 +8.1511362776036496e+00 +0.0000000000000000e+00 -8.1064849024976393e+00 -3.1479309298599240e-02 -5.9245491104423598e-01 +5.9196767744359238e-03
-8.1999999999999904e+00 +8.1510899757086008e+00 +0.0000000000000000e+00 -8.2065649558379903e+00 -3.1479346353466997e-02 -5.9245516056511460e-01 +5.9198148557645771e-03
-8.2999999999999901e+00 +8.1510431056885899e+00 +0.0000000000000000e+00 -8.3066450089139003e+00 -3.1479392101220749e-02 -5.9245544732085254e-01 +5.9199532267673318e-03
-8.3999999999999897e+00 +8.1509956675508892e+00 +0.0000000000000000e+00 -8.4067250617221205e+00 -3.1479445647506439e-02 -5.9245576924769039e-01 +5.9200918536274280e-03
-8.4999999999999893e+00 +8.1509476612882299e+00 +0.0000000000000000e+00 -8.5068051142594392e+00 -3.1479506097971705e-02 -5.9245612428199967e-01 +5.9202307025223852e-03
-8.5999999999999908e+00 +8.1508990869078808e+00 +0.0000000000000000e+00 -8.6068851665226305e+00 -3.1479572558253149e-02 -5.9245651036004654e-01 +5.9203697396213589e-03
-8.6999999999999904e+00 +8.1508499444025801e+00 +0.0000000000000000e+00 -8.7069652185084596e+00 -3.1479644133988911e-02 -5.9245692541822914e-01 +5.9205089310873657e-03
-8.7999999999999794e+00 +8.1508002337759500e+00 +0.0000000000000000e+00 -8.8070452702137203e+00 -3.1479719930807504e-02 -5.9245736739286958e-01 +5.9206482430749401e-03
-8.8999999999999808e+00 +8.1507499550316407e+00 +0.0000000000000000e+00 -8.9071253216351796e+00 -3.1479799054332382e-02 -5.9245783422030451e-01 +5.9207876417308389e-03
-8.9999999999999805e+00 +8.1506991081623692e+00 +0.0000000000000000e+00 -9.0072053727696098e+00 -3.1479880610186688e-02 -5.9245832383697217e-01 +5.9209270931947534e-03
-9.0999999999999801e+00 +8.1506476931717806e+00 +0.0000000000000000e+00 -9.1072854236137797e+00 -3.1479963703983545e-02 -5.9245883417923806e-01 +5.9210665635972513e-03
-9.1999999999999797e+00 +8.1505957100635005e+00 +0.0000000000000000e+00 -9.2073654741644795e+00 -3.1480047441330754e-02 -5.9245936318348125e-01 +5.9212060190605049e-03
-9.2999999999999794e+00 +8.1505431588302599e+00 +0.0000000000000000e+00 -9.3074455244184708e+00 -3.1480130927835512e-02 -5.9245990878618449e-01 +5.9213454256989723e-03
-9.3999999999999808e+00 +8.1504900394757005e+00 +0.0000000000000000e+00 -9.4075255743725297e+00 -3.1480213269094615e-02 -5.9246046892375670e-01 +5.9214847496173754e-03
-9.4999999999999805e+00 +8.1504363520034495e+00 +0.0000000000000000e+00 -9.5076056240234408e+00 -3.1480293570699314e-02 -5.9246104153262347e-01 +5.9216239569113947e-03
-9.5999999999999801e+00 +8.1503820964062506e+00 +0.0000000000000000e+00 -9.6076856733679694e+00 -3.1480370938239861e-02 -5.9246162454931373e-01 +5.9217630136683859e-03
-9.6999999999999797e+00 +8.1503272726913600e+00 +0.0000000000000000e+00 -9.7077657224029004e+00 -3.1480444477294305e-02 -5.9246221591025416e-01 +5.9219018859650117e-03
-9.7999999999999794e+00 +8.1502718808515109e+00 +0.0000000000000000e+00 -9.8078457711250007e+00 -3.1480513293441148e-02 -5.9246281355200692e-01 +5.9220405398695015e-03
-9.8999999999999808e+00 +8.1502159208903304e+00 +0.0000000000000000e+00 -9.9079258195310498e+00 -3.1480576492248044e-02 -5.9246341541106129e-01 +5.9221789414392809e-03
-9.9999999999999805e+00 +8.1501593928078400e+00 +0.0000000000000000e+00 -1.0008005867617801e+01 -3.1480633179388810e-02 -5.9246401942405202e-01 +5.9223170567233568e-03
-1.0100000000000000e+01 +8.1501022966040200e+00 +0.0000000000000000e+00 -1.0108085915382100e+01 -3.1480682732492341e-02 -5.9246462377014752e-01 +5.9224548551019118e-03
-1.0199999999999999e+01 +8.1500446322825209e+00 +0.0000000000000000e+00 -1.0208165962820599e+01 -3.1480725386220369e-02 -5.9246522739269547e-01 +5.9225923164835190e-03
-1.0300000000000001e+01 +8.1499863998360507e+00 +0.0000000000000000e+00 -1.0308246009930199e+01 -3.1480761543690616e-02 -5.9246582938522618e-01 +5.9227294228597358e-03
-1.0400000000000000e+01 +8.1499275992682705e+00 +0.0000000000000000e+00 -1.0408326056707599e+01 -3.1480791608081975e-02 -5.9246642884110789e-01 +5.9228661562363344e-03
-1.0500000000000000e+01 +8.1498682305791608e+00 +0.0000000000000000e+00 -1.0508406103149600e+01 -3.1480815982642470e-02 -5.9246702485366387e-01 +5.9230024986349243e-03
-1.0600000000000000e+01 +8.1498082937723701e+00 +0.0000000000000000e+00 -1.0608486149253000e+01 -3.1480835070687684e-02 -5.9246761651611002e-01 +5.9231384320927666e-03
-1.0699999999999999e+01 +8.1497477888406102e+00 +0.0000000000000000e+00 -1.0708566195014500e+01 -3.1480849275608715e-02 -5.9246820292167168e-01 +5.9232739386643890e-03
-1.0800000000000001e+01 +8.1496867157875403e+00 +0.0000000000000000e+00 -1.0808646240430900e+01 -3.1480859000864343e-02 -5.9246878316340457e-01 +5.9234090004201684e-03
-1.0900000000000000e+01 +8.1496250746131391e+00 +0.0000000000000000e+00 -1.0908726285499000e+01 -3.1480864649988977e-02 -5.9246935633431208e-01 +5.9235435994479703e-03
-1.1000000000000000e+01 +8.1495628653174208e+00 +0.0000000000000000e+00 -1.1008806330215601e+01 -3.1480866626592635e-02 -5.9246992152731159e-01 +5.9236777178532417e-03
-1.1100000000000000e+01 +8.1495000879040198e+00 +0.0000000000000000e+00 -1.1108886374577500e+01 -3.1480865334361050e-02 -5.9247047783520457e-01 +5.9238113377591186e-03
-1.1199999999999999e+01 +8.1494367423620098e+00 +0.0000000000000000e+00 -1.1208966418581401e+01 -3.1480861177065160e-02 -5.9247102435082222e-01 +5.9239444413083644e-03
-1.1300000000000001e+01 +8.1493728287059604e+00 +0.0000000000000000e+00 -1.1309046462224000e+01 -3.1480854558545344e-02 -5.9247156016669833e-01 +5.9240770106604142e-03
-1.1400000000000000e+01 +8.1493083469249505e+00 +0.0000000000000000e+00 -1.1409126505502300e+01 -3.1480845882735205e-02 -5.9247208437548060e-01 +5.9242090279960713e-03
-1.1500000000000000e+01 +8.1492432970226201e+00 +0.0000000000000000e+00 -1.1509206548412800e+01 -3.1480835553645795e-02 -5.9247259606960501e-01 +5.9243404755145437e-03
-1.1600000000000000e+01 +8.1491776789989707e+00 +0.0000000000000000e+00 -1.1609286590952600e+01 -3.1480823975375091e-02 -5.9247309434143991e-01 +5.9244713354353815e-03
-1.1699999999999999e+01 +8.1491114928576298e+00 +0.0000000000000000e+00 -1.1709366633118099e+01 -3.1480811552106545e-02 -5.9247357828322622e-01 +5.9246015899982905e-03
