# trajectory
# s[mm] rx[mm] ry[mm] rz[mm] px[rad] py[rad] pz[rad]
0.0000000000000000e+00 +8.1649999999999991e+00 +0.0000000000000000e+00 +0.0000000000000000e+00 +0.0000000000000000e+00 +0.0000000000000000e+00 +1.0000000000000000e+00
1.0000000000000001e-01 +8.1649997170469408e+00 +0.0000000000000000e+00 +9.9999999999466266e-02 -5.6590610618585694e-06 +0.0000000000000000e+00 +9.9999999998398748e-01
2.0000000000000001e-01 +8.1649988681878032e+00 +0.0000000000000000e+00 +1.9999999999573001e-01 -1.1318121601706741e-05 +0.0000000000000000e+00 +9.9999999993595001e-01
3.0000000000000004e-01 +8.1649974534226359e+00 +0.0000000000000000e+00 +2.9999999998558874e-01 -1.6977181684220230e-05 +0.0000000000000000e+00 +9.9999999985588761e-01
4.0000000000000002e-01 +8.1649954727514800e+00 +0.0000000000000000e+00 +3.9999999996584001e-01 -2.2636241372795372e-05 +0.0000000000000000e+00 +9.9999999974380027e-01
5.0000000000000000e-01 +8.1649929261743726e+00 +0.0000000000000000e+00 +4.9999999993328131e-01 -2.8295300729549288e-05 +0.0000000000000000e+00 +9.9999999959968799e-01
5.9999999999999998e-01 +8.1649898136913439e+00 +0.0000000000000000e+00 +5.9999999988471009e-01 -3.3954359815320023e-05 +0.0000000000000000e+00 +9.9999999942355078e-01
6.9999999999999996e-01 +8.1649861353024171e+00 +0.0000000000000000e+00 +6.9999999981692396e-01 -3.9613418689666672e-05 +0.0000000000000000e+00 +9.9999999921538862e-01
7.9999999999999993e-01 +8.1649818910076117e+00 +0.0000000000000000e+00 +7.9999999972672031e-01 -4.5272477410869494e-05 +0.0000000000000000e+00 +9.9999999897520153e-01
8.9999999999999991e-01 +8.1649770808069384e+00 +0.0000000000000000e+00 +8.9999999961089672e-01 -5.0931536035929962e-05 +0.0000000000000000e+00 +9.9999999870298950e-01
9.9999999999999989e-01 +8.1649717047004060e+00 +0.0000000000000000e+00 +9.9999999946625073e-01 -5.6590594620570818e-05 +0.0000000000000000e+00 +9.9999999839875253e-01
1.0999999999999999e+00 +8.1649657626880146e+00 +0.0000000000000000e+00 +1.0999999992895797e+00 -6.2249653219236101e-05 +0.0000000000000000e+00 +9.9999999806249051e-01
1.2000000000000000e+00 +8.1649592547697605e+00 +0.0000000000000000e+00 +1.1999999990776813e+00 -6.7908711885091146e-05 +0.0000000000000000e+00 +9.9999999769420356e-01
1.3000000000000000e+00 +8.1649521809456331e+00 +0.0000000000000000e+00 +1.2999999988273530e+00 -7.3567770670022586e-05 +0.0000000000000000e+00 +9.9999999729389166e-01
1.4000000000000001e+00 +8.1649445412156201e+00 +0.0000000000000000e+00 +1.3999999985353921e+00 -7.9226829624638251e-05 +0.0000000000000000e+00 +9.9999999686155483e-01
1.5000000000000002e+00 +8.1649363355797018e+00 +0.0000000000000000e+00 +1.4999999981985963e+00 -8.4885888798267133e-05 +0.0000000000000000e+00 +9.9999999639719306e-01
1.6000000000000003e+00 +8.1649275640378516e+00 +0.0000000000000000e+00 +1.5999999978137631e+00 -9.0544948238959310e-05 +0.0000000000000000e+00 +9.9999999590080624e-01
1.7000000000000004e+00 +8.1649182265900428e+00 +0.0000000000000000e+00 +1.6999999973776900e+00 -9.6204007993485772e-05 +0.0000000000000000e+00 +9.9999999537239448e-01
1.8000000000000005e+00 +8.1649083232362418e+00 +0.0000000000000000e+00 +1.7999999968871745e+00 -1.0186306810733833e-04 +0.0000000000000000e+00 +9.9999999481195778e-01
1.9000000000000006e+00 +8.1648978539764094e+00 +0.0000000000000000e+00 +1.8999999963390140e+00 -1.0752212862472940e-04 +0.0000000000000000e+00 +9.9999999421949604e-01
2.0000000000000004e+00 +8.1648868188105030e+00 +0.0000000000000000e+00 +1.9999999957300061e+00 -1.1318118958859185e-04 +0.0000000000000000e+00 +9.9999999359500924e-01
2.1000000000000005e+00 +8.1648752177384765e+00 +0.0000000000000000e+00 +2.0999999950569483e+00 -1.1884025104035351e-04 +0.0000000000000000e+00 +9.9999999293849740e-01
2.2000000000000006e+00 +8.1648630507602782e+00 +0.0000000000000000e+00 +2.1999999943166380e+00 -1.2449931301745882e-04 +0.0000000000000000e+00 +9.9999999224996050e-01
2.3000000000000007e+00 +8.1648503178758549e+00 +0.0000000000000000e+00 +2.2999999935058728e+00 -1.3015837555089072e-04 +0.0000000000000000e+00 +9.9999999152939856e-01
2.4000000000000008e+00 +8.1648370190851498e+00 +0.0000000000000000e+00 +2.3999999926214501e+00 -1.3581743866494515e-04 +0.0000000000000000e+00 +9.9999999077681156e-01
2.5000000000000009e+00 +8.1648231543881025e+00 +0.0000000000000000e+00 +2.4999999916601676e+00 -1.4147650237723110e-04 +0.0000000000000000e+00 +9.9999998999219952e-01
2.6000000000000010e+00 +8.1648087237846543e+00 +0.0000000000000000e+00 +2.5999999906188225e+00 -1.4713556669867045e-04 +0.0000000000000000e+00 +9.9999998917556243e-01
2.7000000000000011e+00 +8.1647937272747431e+00 +0.0000000000000000e+00 +2.6999999894942124e+00 -1.5279463163349788e-04 +0.0000000000000000e+00 +9.9999998832690018e-01
2.8000000000000012e+00 +8.1647781648583067e+00 +0.0000000000000000e+00 +2.7999999882831350e+00 -1.5845369717926080e-04 +0.0000000000000000e+00 +9.9999998744621277e-01
2.9000000000000012e+00 +8.1647620365352864e+00 +0.0000000000000000e+00 +2.8999999869823876e+00 -1.6411276332681926e-04 +0.0000000000000000e+00 +9.9999998653350031e-01
3.0000000000000013e+00 +8.1647453423056220e+00 +0.0000000000000000e+00 +2.9999999855887678e+00 -1.6977183006034583e-04 +0.0000000000000000e+00 +9.9999998558876269e-01
3.1000000000000014e+00 +8.1647280821692565e+00 +0.0000000000000000e+00 +3.0999999840990728e+00 -1.7543089735732551e-04 +0.0000000000000000e+00 +9.9999998461199990e-01
3.2000000000000015e+00 +8.1647102561261331e+00 +0.0000000000000000e+00 +3.1999999825101004e+00 -1.8108996518855565e-04 +0.0000000000000000e+00 +9.9999998360321196e-01
3.3000000000000016e+00 +8.1646918641762021e+00 +0.0000000000000000e+00 +3.2999999808186478e+00 -1.8674903351814580e-04 +0.0000000000000000e+00 +9.9999998256239897e-01
3.4000000000000017e+00 +8.1646729063194154e+00 +0.0000000000000000e+00 +3.3999999790215125e+00 -1.9240810230351763e-04 +0.0000000000000000e+00 +9.9999998148956082e-01
3.5000000000000018e+00 +8.1646533825557288e+00 +0.0000000000000000e+00 +3.4999999771154924e+00 -1.9806717149540486e-04 +0.0000000000000000e+00 +9.9999998038469751e-01
3.6000000000000019e+00 +8.1646332928851049e+00 +0.0000000000000000e+00 +3.5999999750973846e+00 -2.0372624103785306e-04 +0.0000000000000000e+00 +9.9999997924780903e-01
3.7000000000000020e+00 +8.1646126373075116e+00 +0.0000000000000000e+00 +3.6999999729639867e+00 -2.0938531086821960e-04 +0.0000000000000000e+00 +9.9999997807889540e-01
3.8000000000000020e+00 +8.1645914158229242e+00 +0.0000000000000000e+00 +3.7999999707120962e+00 -2.1504438091717355e-04 +0.0000000000000000e+00 +9.9999997687795672e-01
3.9000000000000021e+00 +8.1645696284313232e+00 +0.0000000000000000e+00 +3.8999999683385105e+00 -2.2070345110869547e-04 +0.0000000000000000e+00 +9.9999997564499288e-01
4.0000000000000018e+00 +8.1645472751326995e+00 +0.0000000000000000e+00 +3.9999999658400274e+00 -2.2636252136007742e-04 +0.0000000000000000e+00 +9.9999997438000399e-01
4.1000000000000014e+00 +8.1645243559270515e+00 +0.0000000000000000e+00 +4.0999999632134436e+00 -2.3202159158245989e-04 +0.0000000000000000e+00 +9.9999997308299005e-01
4.2000000000000011e+00 +8.1645008708143862e+00 +0.0000000000000000e+00 +4.1999999604555578e+00 -2.3768066168674109e-04 +0.0000000000000000e+00 +9.9999997175395106e-01
4.3000000000000007e+00 +8.1644768197947197e+00 +0.0000000000000000e+00 +4.2999999575631662e+00 -2.4333973158948606e-04 +0.0000000000000000e+00 +9.9999997039288702e-01
4.4000000000000004e+00 +8.1644522028680768e+00 +0.0000000000000000e+00 +4.3999999545330670e+00 -2.4899880121346418e-04 +0.0000000000000000e+00 +9.9999996899979793e-01
4.5000000000000000e+00 +8.1644270200344877e+00 +0.0000000000000000e+00 +4.4999999513620583e+00 -2.5465787048764923e-04 +0.0000000000000000e+00 +9.9999996757468390e-01
4.5999999999999996e+00 +8.1644012712939915e+00 +0.0000000000000000e+00 +4.5999999480469365e+00 -2.6031693934721960e-04 +0.0000000000000000e+00 +9.9999996611754494e-01
4.6999999999999993e+00 +8.1643749566466326e+00 +0.0000000000000000e+00 +4.6999999445844995e+00 -2.6597600773355860e-04 +0.0000000000000000e+00 +9.9999996462838103e-01
4.7999999999999989e+00 +8.1643480760924625e+00 +0.0000000000000000e+00 +4.7999999409715448e+00 -2.7163507559425443e-04 +0.0000000000000000e+00 +9.9999996310719219e-01
4.8999999999999986e+00 +8.1643206296315345e+00 +0.0000000000000000e+00 +4.8999999372048704e+00 -2.7729414288310062e-04 +0.0000000000000000e+00 +9.9999996155397841e-01
4.9999999999999982e+00 +8.1642926172639072e+00 +0.0000000000000000e+00 +4.9999999332812735e+00 -2.8295320956009623e-04 +0.0000000000000000e+00 +9.9999995996873980e-01
5.0999999999999979e+00 +8.1642640389896446e+00 +0.0000000000000000e+00 +5.0999999291975513e+00 -2.8861227559144598e-04 +0.0000000000000000e+00 +9.9999995835147637e-01
5.1999999999999975e+00 +8.1642348948088124e+00 +0.0000000000000000e+00 +5.1999999249505011e+00 -2.9427134094956061e-04 +0.0000000000000000e+00 +9.9999995670218811e-01
5.2999999999999972e+00 +8.1642051847214780e+00 +0.0000000000000000e+00 +5.2999999205369210e+00 -2.9993040561305720e-04 +0.0000000000000000e+00 +9.9999995502087502e-01
5.3999999999999968e+00 +8.1641749087277127e+00 +0.0000000000000000e+00 +5.3999999159536083e+00 -3.0558946956675938e-04 +0.0000000000000000e+00 +9.9999995330753710e-01
5.4999999999999964e+00 +8.1641440668275891e+00 +0.0000000000000000e+00 +5.4999999111973610e+00 -3.1124853280169770e-04 +0.0000000000000000e+00 +9.9999995156217436e-01
5.5999999999999961e+00 +8.1641126590211766e+00 +0.0000000000000000e+00 +5.5999999062649763e+00 -3.1690759531510988e-04 +0.0000000000000000e+00 +9.9999994978478690e-01
5.6999999999999957e+00 +8.1640806853085497e+00 +0.0000000000000000e+00 +5.6999999011532516e+00 -3.2256665711044124e-04 +0.0000000000000000e+00 +9.9999994797537461e-01
5.7999999999999954e+00 +8.1640481456897778e+00 +0.0000000000000000e+00 +5.7999998958589840e+00 -3.2822571819734493e-04 +0.0000000000000000e+00 +9.9999994613393761e-01
5.8999999999999950e+00 +8.1640150401649318e+00 +0.0000000000000000e+00 +5.8999998903789717e+00 -3.3388477859168245e-04 +0.0000000000000000e+00 +9.9999994426047589e-01
5.9999999999999947e+00 +8.1639813687340812e+00 +0.0000000000000000e+00 +5.9999998847100118e+00 -3.3954383831552392e-04 +0.0000000000000000e+00 +9.9999994235498946e-01
6.0999999999999943e+00 +8.1639471313972898e+00 +0.0000000000000000e+00 +6.0999998788489016e+00 -3.4520289739716116e-04 +0.0000000000000000e+00 +9.9999994041747819e-01
6.1999999999999940e+00 +8.1639123281546215e+00 +0.0000000000000000e+00 +6.1999998727924392e+00 -3.5086195587124864e-04 +0.0000000000000000e+00 +9.9999993844794222e-01
6.2999999999999936e+00 +8.1638769590061351e+00 +0.0000000000000000e+00 +6.2999998665374219e+00 -3.5652101377894386e-04 +0.0000000000000000e+00 +9.9999993644638152e-01
6.3999999999999932e+00 +8.1638410239518837e+00 +0.0000000000000000e+00 +6.3999998600806478e+00 -3.6218007116792038e-04 +0.0000000000000000e+00 +9.9999993441279600e-01
6.4999999999999929e+00 +8.1638045229919172e+00 +0.0000000000000000e+00 +6.4999998534189141e+00 -3.6783912809236811e-04 +0.0000000000000000e+00 +9.9999993234718576e-01
6.5999999999999925e+00 +8.1637674561262781e+00 +0.0000000000000000e+00 +6.5999998465490179e+00 -3.7349818461299324e-04 +0.0000000000000000e+00 +9.9999993024955069e-01
6.6999999999999922e+00 +8.1637298233550055e+00 +0.0000000000000000e+00 +6.6999998394677567e+00 -3.7915724079701875e-04 +0.0000000000000000e+00 +9.9999992811989091e-01
6.7999999999999918e+00 +8.1636916246781279e+00 +0.0000000000000000e+00 +6.7999998321719284e+00 -3.8481629671818438e-04 +0.0000000000000000e+00 +9.9999992595820630e-01
6.8999999999999915e+00 +8.1636528600956684e+00 +0.0000000000000000e+00 +6.8999998246583303e+00 -3.9047535245674694e-04 +0.0000000000000000e+00 +9.9999992376449676e-01
6.9999999999999911e+00 +8.1636135296076393e+00 +0.0000000000000000e+00 +6.9999998169237605e+00 -3.9613440809948050e-04 +0.0000000000000000e+00 +9.9999992153876238e-01
7.0999999999999908e+00 +8.1635736332140478e+00 +0.0000000000000000e+00 +7.0999998089650154e+00 -4.0179346373967660e-04 +0.0000000000000000e+00 +9.9999991928100307e-01
7.1999999999999904e+00 +8.1635331709148886e+00 +0.0000000000000000e+00 +7.1999998007788930e+00 -4.0745251947714439e-04 +0.0000000000000000e+00 +9.9999991699121882e-01
7.2999999999999901e+00 +8.1634921427101457e+00 +0.0000000000000000e+00 +7.2999997923621915e+00 -4.1311157541821104e-04 +0.0000000000000000e+00 +9.9999991466940952e-01
7.3999999999999897e+00 +8.1634505485997941e+00 +0.0000000000000000e+00 +7.3999997837117073e+00 -4.1877063167572172e-04 +0.0000000000000000e+00 +9.9999991231557517e-01
7.4999999999999893e+00 +8.1634083885837967e+00 +0.0000000000000000e+00 +7.4999997748242384e+00 -4.2442968836904003e-04 +0.0000000000000000e+00 +9.9999990992971577e-01
7.5999999999999890e+00 +8.1633656626621018e+00 +0.0000000000000000e+00 +7.5999997656965830e+00 -4.3008874562404820e-04 +0.0000000000000000e+00 +9.9999990751183121e-01
7.6999999999999886e+00 +8.1633223708346492e+00 +0.0000000000000000e+00 +7.6999997563255373e+00 -4.3574780357314721e-04 +0.0000000000000000e+00 +9.9999990506192138e-01
7.7999999999999883e+00 +8.1632785131013605e+00 +0.0000000000000000e+00 +7.7999997467078996e+00 -4.4140686235525712e-04 +0.0000000000000000e+00 +9.9999990257998628e-01
7.8999999999999879e+00 +8.1632340894621453e+00 +0.0000000000000000e+00 +7.8999997368404671e+00 -4.4706592211581737e-04 +0.0000000000000000e+00 +9.9999990006602579e-01
7.9999999999999876e+00 +8.1631890999168988e+00 +0.0000000000000000e+00 +7.9999997267200369e+00 -4.5272498300678686e-04 +0.0000000000000000e+00 +9.9999989752003982e-01
8.0999999999999872e+00 +8.1631435444655001e+00 +0.0000000000000000e+00 +8.0999997163434063e+00 -4.5838404518599936e-04 +0.0000000000000000e+00 +9.9999989494202823e-01
8.1999999999999869e+00 +8.1630974231078124e+00 +0.0000000000000000e+00 +8.1999997057073735e+00 -4.6404310881006770e-04 +0.0000000000000000e+00 +9.9999989233199094e-01
8.2999999999999865e+00 +8.1630507358436848e+00 +0.0000000000000000e+00 +8.2999996948087365e+00 -4.6970217402728765e-04 +0.0000000000000000e+00 +9.9999988968992792e-01
8.3999999999999861e+00 +8.1630034826729503e+00 +0.0000000000000000e+00 +8.3999996836442925e+00 -4.7536124097699188e-04 +0.0000000000000000e+00 +9.9999988701583908e-01
8.4999999999999858e+00 +8.1629556635954277e+00 +0.0000000000000000e+00 +8.4999996722108371e+00 -4.8102030978954913e-04 +0.0000000000000000e+00 +9.9999988430972431e-01
8.5999999999999854e+00 +8.1629072786109251e+00 +0.0000000000000000e+00 +8.5999996605051692e+00 -4.8667938058636327e-04 +0.0000000000000000e+00 +9.9999988157158348e-01
8.6999999999999851e+00 +8.1628583277192401e+00 +0.0000000000000000e+00 +8.6999996485240860e+00 -4.9233845347987219e-04 +0.0000000000000000e+00 +9.9999987880141650e-01
8.7999999999999847e+00 +8.1628088109201560e+00 +0.0000000000000000e+00 +8.7999996362643849e+00 -4.9799752857354693e-04 +0.0000000000000000e+00 +9.9999987599922335e-01
8.8999999999999844e+00 +8.1627587282134488e+00 +0.0000000000000000e+00 +8.8999996237228629e+00 -5.0365660596189069e-04 +0.0000000000000000e+00 +9.9999987316500383e-01
8.9999999999999840e+00 +8.1627080795988842e+00 +0.0000000000000000e+00 +8.9999996108963174e+00 -5.0931568573043748e-04 +0.0000000000000000e+00 +9.9999987029875792e-01
9.0999999999999837e+00 +8.1626568650762206e+00 +0.0000000000000000e+00 +9.0999995977815473e+00 -5.1497476795575147e-04 +0.0000000000000000e+00 +9.9999986740048563e-01
9.1999999999999833e+00 +8.1626050846452092e+00 +0.0000000000000000e+00 +9.1999995843753481e+00 -5.2063385270542553e-04 +0.0000000000000000e+00 +9.9999986447018674e-01
9.2999999999999829e+00 +8.1625527383055942e+00 +0.0000000000000000e+00 +9.2999995706745171e+00 -5.2629294003808007e-04 +0.0000000000000000e+00 +9.9999986150786124e-01
9.3999999999999826e+00 +8.1624998260571147e+00 +0.0000000000000000e+00 +9.3999995566758532e+00 -5.3195203000336202e-04 +0.0000000000000000e+00 +9.9999985851350903e-01
9.4999999999999822e+00 +8.1624463478995040e+00 +0.0000000000000000e+00 +9.4999995423761519e+00 -5.3761112264194371e-04 +0.0000000000000000e+00 +9.9999985548713011e-01
9.5999999999999819e+00 +8.1623923038324957e+00 +0.0000000000000000e+00 +9.5999995277722121e+00 -5.4327021798552112e-04 +0.0000000000000000e+00 +9.9999985242872436e-01
9.6999999999999815e+00 +8.1623376938558163e+00 +0.0000000000000000e+00 +9.6999995128608294e+00 -5.4892931605681329e-04 +0.0000000000000000e+00 +9.9999984933829178e-01
9.7999999999999812e+00 +8.1622825179691922e+00 +0.0000000000000000e+00 +9.7999994976388027e+00 -5.5458841686956053e-04 +0.0000000000000000e+00 +9.9999984621583227e-01
9.8999999999999808e+00 +8.1622267761723499e+00 +0.0000000000000000e+00 +9.8999994821029293e+00 -5.6024752042852313e-04 +0.0000000000000000e+00 +9.9999984306134582e-01
9.9999999999999805e+00 +8.1621704684650140e+00 +0.0000000000000000e+00 +9.9999994662500047e+00 -5.6590662672948019e-04 +0.0000000000000000e+00 +9.9999983987483232e-01
1.0099999999999980e+01 +8.1621135948469128e+00 +0.0000000000000000e+00 +1.0099999450076828e+01 -5.7156573576006735e-04 +0.0000000000000000e+00 +9.9999983665629177e-01
1.0199999999999980e+01 +8.1620561553177726e+00 +0.0000000000000000e+00 +1.0199999433580196e+01 -5.7722484750900730e-04 +0.0000000000000000e+00 +9.9999983340572407e-01
1.0299999999999979e+01 +8.1619981498773218e+00 +0.0000000000000000e+00 +1.0299999416756906e+01 -5.8288396197534202e-04 +0.0000000000000000e+00 +9.9999983012312921e-01
1.0399999999999979e+01 +8.1619395785252866e+00 +0.0000000000000000e+00 +1.0399999399603754e+01 -5.8854307916927256e-04 +0.0000000000000000e+00 +9.9999982680850719e-01
1.0499999999999979e+01 +8.1618804412613954e+00 +0.0000000000000000e+00 +1.0499999382117538e+01 -5.9420219911216019e-04 +0.0000000000000000e+00 +9.9999982346185790e-01
1.0599999999999978e+01 +8.1618207380853711e+00 +0.0000000000000000e+00 +1.0599999364295057e+01 -5.9986132183652719e-04 +0.0000000000000000e+00 +9.9999982008318133e-01
1.0699999999999978e+01 +8.1617604689969330e+00 +0.0000000000000000e+00 +1.0699999346133106e+01 -6.0552044738605780e-04 +0.0000000000000000e+00 +9.9999981667247728e-01
1.0799999999999978e+01 +8.1616996339957968e+00 +0.0000000000000000e+00 +1.0799999327628484e+01 -6.1117957581559908e-04 +0.0000000000000000e+00 +9.9999981322974585e-01
1.0899999999999977e+01 +8.1616382330816712e+00 +0.0000000000000000e+00 +1.0899999308777987e+01 -6.1683870719116216e-04 +0.0000000000000000e+00 +9.9999980975498681e-01
1.0999999999999977e+01 +8.1615762662542579e+00 +0.0000000000000000e+00 +1.0999999289578414e+01 -6.2249784158992314e-04 +0.0000000000000000e+00 +9.9999980624820006e-01
1.1099999999999977e+01 +8.1615137335132495e+00 +0.0000000000000000e+00 +1.1099999270026560e+01 -6.2815697910022412e-04 +0.0000000000000000e+00 +9.9999980270938560e-01
1.1199999999999976e+01 +8.1614506348583298e+00 +0.0000000000000000e+00 +1.1199999250119223e+01 -6.3381611982157426e-04 +0.0000000000000000e+00 +9.9999979913854320e-01
1.1299999999999976e+01 +8.1613869702891737e+00 +0.0000000000000000e+00 +1.1299999229853201e+01 -6.3947526386465075e-04 +0.0000000000000000e+00 +9.9999979553567275e-01
1.1399999999999975e+01 +8.1613227398054420e+00 +0.0000000000000000e+00 +1.1399999209225291e+01 -6.4513441135130036e-04 +0.0000000000000000e+00 +9.9999979190077415e-01
1.1499999999999975e+01 +8.1612579434067847e+00 +0.0000000000000000e+00 +1.1499999188232289e+01 -6.5079356241454017e-04 +0.0000000000000000e+00 +9.9999978823384728e-01
1.1599999999999975e+01 +8.1611925810928359e+00 +0.0000000000000000e+00 +1.1599999166870994e+01 -6.5645271719855887e-04 +0.0000000000000000e+00 +9.9999978453489191e-01
1.1699999999999974e+01 +8.1611266528632154e+00 +0.0000000000000000e+00 +1.1699999145138200e+01 -6.6211187585871808e-04 +0.0000000000000000e+00 +9.9999978080390794e-01
1.1799999999999974e+01 +8.1610601587175289e+00 +0.0000000000000000e+00 +1.1799999123030707e+01 -6.6777103856155353e-04 +0.0000000000000000e+00 +9.9999977704089527e-01
