# field on trajectory
# s[mm] rx[mm] ry[mm] rz[mm] bx[T] by[T] bz[T]
-0.0000000000000000e+00 +8.1530000000000005e+00 +0.0000000000000000e+00 -0.0000000000000000e+00 -2.9331742828576573e-02 -5.6471201590658393e-01 +5.6374007459795367e-03
-1.0000000000000001e-01 +8.1529997163961507e+00 +0.0000000000000000e+00 -9.9999999999463796e-02 -2.9331481619825184e-02 -5.6471199613694734e-01 +5.6373919532410740e-03
-2.0000000000000001e-01 +8.1529988655856904e+00 +0.0000000000000000e+00 -1.9999999999571000e-01 -2.9331219472262096e-02 -5.6471199073585232e-01 +5.6373854198497036e-03
-2.9999999999999999e-01 +8.1529974475670297e+00 +0.0000000000000000e+00 -2.9999999998552201e-01 -2.9330956773886838e-02 -5.6471199883501533e-01 +5.6373812336833985e-03
-4.0000000000000002e-01 +8.1529954623438208e+00 +0.0000000000000000e+00 -3.9999999996568297e-01 -2.9330693912699268e-02 -5.6471201956609152e-01 +5.6373794826194337e-03
-5.0000000000000000e-01 +8.1529929099124292e+00 +0.0000000000000000e+00 -4.9999999993297400e-01 -2.9330431276703740e-02 -5.6471205206077413e-01 +5.6373802545353468e-03
-5.9999999999999998e-01 +8.1529897902728408e+00 +0.0000000000000000e+00 -5.9999999988417896e-01 -2.9330169253903523e-02 -5.6471209545071588e-01 +5.6373836373080737e-03
-6.9999999999999996e-01 +8.1529861034287006e+00 +0.0000000000000000e+00 -6.9999999981608096e-01 -2.9329908232299640e-02 -5.6471214886753107e-01 +5.6373897188139411e-03
-8.0000000000000004e-01 +8.1529818493763706e+00 +0.0000000000000000e+00 -7.9999999972546199e-01 -2.9329648599894450e-02 -5.6471221144288664e-01 +5.6373985869294947e-03
-9.0000000000000002e-01 +8.1529770281158598e+00 +0.0000000000000000e+00 -8.9999999960910604e-01 -2.9329390744685963e-02 -5.6471228230841941e-01 +5.6374103295306474e-03
-1.0000000000000000e+00 +8.1529716396507901e+00 +0.0000000000000000e+00 -9.9999999946379403e-01 -2.9329135054666798e-02 -5.6471236059574159e-01 +5.6374250344926680e-03
-1.1000000000000001e+00 +8.1529656839775306e+00 +0.0000000000000000e+00 -1.0999999992863101e+00 -2.9328881917827659e-02 -5.6471244543652965e-01 +5.6374427896910134e-03
-1.2000000000000000e+00 +8.1529591610960797e+00 +0.0000000000000000e+00 -1.1999999990734400e+00 -2.9328631722151742e-02 -5.6471253596244220e-01 +5.6374636830004675e-03
-1.3000000000000000e+00 +8.1529520710100805e+00 +0.0000000000000000e+00 -1.2999999988219599e+00 -2.9328384855613600e-02 -5.6471263130512639e-01 +5.6374878022951280e-03
-1.3999999999999999e+00 +8.1529444137122500e+00 +0.0000000000000000e+00 -1.3999999985286500e+00 -2.9328141706184259e-02 -5.6471273059633287e-01 +5.6375152354495393e-03
-1.5000000000000000e+00 +8.1529361892135093e+00 +0.0000000000000000e+00 -1.4999999981903001e+00 -2.9327902661817881e-02 -5.6471283296769648e-01 +5.6375460703364001e-03
-1.6000000000000001e+00 +8.1529273975065699e+00 +0.0000000000000000e+00 -1.5999999978037001e+00 -2.9327668110465964e-02 -5.6471293755101937e-01 +5.6375803948293937e-03
-1.7000000000000000e+00 +8.1529180385914497e+00 +0.0000000000000000e+00 -1.6999999973656199e+00 -2.9327438440065627e-02 -5.6471304347808060e-01 +5.6376182968011857e-03
-1.8000000000000000e+00 +8.1529081124681397e+00 +0.0000000000000000e+00 -1.7999999968728499e+00 -2.9327214038541546e-02 -5.6471314988069476e-01 +5.6376598641239813e-03
-1.8999999999999999e+00 +8.1528976191402798e+00 +0.0000000000000000e+00 -1.8999999963221601e+00 -2.9326995293803421e-02 -5.6471325589068988e-01 +5.6377051846692432e-03
-2.0000000000000000e+00 +8.1528865586042194e+00 +0.0000000000000000e+00 -1.9999999957103500e+00 -2.9326782593749427e-02 -5.6471336063999411e-01 +5.6377543463085053e-03
-2.1000000000000001e+00 +8.1528749308599799e+00 +0.0000000000000000e+00 -2.0999999950341901e+00 -2.9326576241609059e-02 -5.6471346337843953e-01 +5.6378073780080327e-03
-2.2000000000000002e+00 +8.1528627359111905e+00 +0.0000000000000000e+00 -2.1999999942904802e+00 -2.9326376201992140e-02 -5.6471356382740223e-01 +5.6378640731158686e-03
-2.2999999999999998e+00 +8.1528499737542006e+00 +0.0000000000000000e+00 -2.2999999934759798e+00 -2.9326182354855929e-02 -5.6471366182620930e-01 +5.6379241660773471e-03
-2.3999999999999999e+00 +8.1528366443890299e+00 +0.0000000000000000e+00 -2.3999999925874800e+00 -2.9325994580153714e-02 -5.6471375721416428e-01 +5.6379873913390850e-03
-2.5000000000000000e+00 +8.1528227478193003e+00 +0.0000000000000000e+00 -2.4999999916217801e+00 -2.9325812757835457e-02 -5.6471384983054806e-01 +5.6380534833491936e-03
-2.6000000000000001e+00 +8.1528082840413791e+00 +0.0000000000000000e+00 -2.5999999905756401e+00 -2.9325636767852891e-02 -5.6471393951469884e-01 +5.6381221765583129e-03
-2.7000000000000002e+00 +8.1527932530552807e+00 +0.0000000000000000e+00 -2.6999999894458502e+00 -2.9325466490155511e-02 -5.6471402610592913e-01 +5.6381932054189732e-03
-2.7999999999999998e+00 +8.1527776548646198e+00 +0.0000000000000000e+00 -2.7999999882291999e+00 -2.9325301804691187e-02 -5.6471410944352252e-01 +5.6382663043857851e-03
-2.8999999999999999e+00 +8.1527614894657692e+00 +0.0000000000000000e+00 -2.8999999869224702e+00 -2.9325142591411311e-02 -5.6471418936681717e-01 +5.6383412079164894e-03
-3.0000000000000000e+00 +8.1527447568587394e+00 +0.0000000000000000e+00 -2.9999999855224302e+00 -2.9324988730266743e-02 -5.6471426571511985e-01 +5.6384176504713085e-03
-3.1000000000000001e+00 +8.1527274570471508e+00 +0.0000000000000000e+00 -3.0999999840258798e+00 -2.9324840101208432e-02 -5.6471433832770579e-01 +5.6384953665131431e-03
-3.2000000000000002e+00 +8.1527095900273707e+00 +0.0000000000000000e+00 -3.1999999824295902e+00 -2.9324696584192563e-02 -5.6471440704389952e-01 +5.6385740905086235e-03
-3.2999999999999998e+00 +8.1526911557994008e+00 +0.0000000000000000e+00 -3.2999999807303602e+00 -2.9324558059176511e-02 -5.6471447170299016e-01 +5.6386535569274455e-03
-3.3999999999999999e+00 +8.1526721543668792e+00 +0.0000000000000000e+00 -3.3999999789249502e+00 -2.9324424406119484e-02 -5.6471453214423029e-01 +5.6387335002425929e-03
-3.5000000000000000e+00 +8.1526525857261696e+00 +0.0000000000000000e+00 -3.4999999770101602e+00 -2.9324295504987594e-02 -5.6471458820691833e-01 +5.6388136549313586e-03
-3.6000000000000001e+00 +8.1526324498772702e+00 +0.0000000000000000e+00 -3.5999999749827598e+00 -2.9324171235749919e-02 -5.6471463973031322e-01 +5.6388937554747200e-03
-3.7000000000000002e+00 +8.1526117468238208e+00 +0.0000000000000000e+00 -3.6999999728395401e+00 -2.9324051478379038e-02 -5.6471468655363277e-01 +5.6389735363575159e-03
-3.7999999999999998e+00 +8.1525904765621799e+00 +0.0000000000000000e+00 -3.7999999705772902e+00 -2.9323936112856188e-02 -5.6471472851613591e-01 +5.6390527320695051e-03
-3.8999999999999999e+00 +8.1525686390959908e+00 +0.0000000000000000e+00 -3.8999999681927799e+00 -2.9323825019165729e-02 -5.6471476545700994e-01 +5.6391310771044326e-03
-4.0000000000000000e+00 +8.1525462344179704e+00 +0.0000000000000000e+00 -3.9999999656827998e+00 -2.9323718077303360e-02 -5.6471479721550910e-01 +5.6392083059616455e-03
-4.0999999999999996e+00 +8.1525232625354001e+00 +0.0000000000000000e+00 -4.0999999630441302e+00 -2.9323615162242030e-02 -5.6471482386691207e-01 +5.6392842233958362e-03
-4.2000000000000002e+00 +8.1524997234482708e+00 +0.0000000000000000e+00 -4.1999999602735496e+00 -2.9323516128873649e-02 -5.6471484643115710e-01 +5.6393589151711235e-03
-4.2999999999999998e+00 +8.1524756171529607e+00 +0.0000000000000000e+00 -4.2999999573678496e+00 -2.9323420827087329e-02 -5.6471486616435340e-01 +5.6394325373012050e-03
-4.4000000000000004e+00 +8.1524509436494608e+00 +0.0000000000000000e+00 -4.3999999543238104e+00 -2.9323329106792615e-02 -5.6471488432256656e-01 +5.6395052457961668e-03
-4.5000000000000000e+00 +8.1524257029377605e+00 +0.0000000000000000e+00 -4.4999999511382098e+00 -2.9323240817922265e-02 -5.6471490216184783e-01 +5.6395771966624543e-03
-4.5999999999999996e+00 +8.1523998950215208e+00 +0.0000000000000000e+00 -4.5999999478078299e+00 -2.9323155810431972e-02 -5.6471492093820264e-01 +5.6396485459023100e-03
-4.7000000000000002e+00 +8.1523735198970808e+00 +0.0000000000000000e+00 -4.6999999443294600e+00 -2.9323073934306325e-02 -5.6471494190767690e-01 +5.6397194495143308e-03
-4.7999999999999998e+00 +8.1523465775644599e+00 +0.0000000000000000e+00 -4.7999999406998803e+00 -2.9322995039555454e-02 -5.6471496632626883e-01 +5.6397900634923065e-03
-4.9000000000000004e+00 +8.1523190680272801e+00 +0.0000000000000000e+00 -4.8999999369158704e+00 -2.9322918976216330e-02 -5.6471499544992998e-01 +5.6398605438249339e-03
-5.0000000000000000e+00 +8.1522909912819195e+00 +0.0000000000000000e+00 -4.9999999329742204e+00 -2.9322845594358684e-02 -5.6471503053464833e-01 +5.6399310464963822e-03
-5.0999999999999996e+00 +8.1522623473319999e+00 +0.0000000000000000e+00 -5.0999999288717000e+00 -2.9322774744080106e-02 -5.6471507283633338e-01 +5.6400017274848497e-03
-5.2000000000000002e+00 +8.1522331361738907e+00 +0.0000000000000000e+00 -5.1999999246051098e+00 -2.9322706275513536e-02 -5.6471512361092968e-01 +5.6400727427634093e-03
-5.2999999999999998e+00 +8.1522033578075899e+00 +0.0000000000000000e+00 -5.2999999201712198e+00 -2.9322640038823910e-02 -5.6471518411433075e-01 +5.6401442482988656e-03
-5.4000000000000004e+00 +8.1521730122331100e+00 +0.0000000000000000e+00 -5.3999999155668199e+00 -2.9322575884211027e-02 -5.6471525560240521e-01 +5.6402164000517339e-03
-5.5000000000000000e+00 +8.1521420994540694e+00 +0.0000000000000000e+00 -5.4999999107886799e+00 -2.9322513661909261e-02 -5.6471533933096973e-01 +5.6402893539756749e-03
-5.5999999999999996e+00 +8.1521106194668391e+00 +0.0000000000000000e+00 -5.5999999058335996e+00 -2.9322453222193498e-02 -5.6471543655587031e-01 +5.6403632660180425e-03
-5.7000000000000002e+00 +8.1520785722750606e+00 +0.0000000000000000e+00 -5.6999999006983604e+00 -2.9322394415374247e-02 -5.6471554853287043e-01 +5.6404382921184538e-03
-5.7999999999999998e+00 +8.1520459578750906e+00 +0.0000000000000000e+00 -5.7999998953797300e+00 -2.9322337091805147e-02 -5.6471567651776200e-01 +5.6405145882096374e-03
-5.9000000000000004e+00 +8.1520127762669308e+00 +0.0000000000000000e+00 -5.8999998898744996e+00 -2.9322281101879587e-02 -5.6471582176627977e-01 +5.6405923102162787e-03
-5.9999999999999902e+00 +8.1519790274505795e+00 +0.0000000000000000e+00 -5.9999998841794504e+00 -2.9322226296033548e-02 -5.6471598553412872e-01 +5.6406716140550098e-03
-6.0999999999999899e+00 +8.1519447114296799e+00 +0.0000000000000000e+00 -6.0999998782913698e+00 -2.9322172468770818e-02 -5.6471616854476503e-01 +5.6407526231690708e-03
-6.1999999999999904e+00 +8.1519098282005906e+00 +0.0000000000000000e+00 -6.1999998722070400e+00 -2.9322119190714941e-02 -5.6471636939291658e-01 +5.6408353311368344e-03
-6.2999999999999901e+00 +8.1518743777669407e+00 +0.0000000000000000e+00 -6.2999998659232403e+00 -2.9322065976475520e-02 -5.6471658614106324e-01 +5.6409196990696991e-03
-6.3999999999999897e+00 +8.1518383601214701e+00 +0.0000000000000000e+00 -6.3999998594367504e+00 -2.9322012340621418e-02 -5.6471681685177655e-01 +5.6410056880791979e-03
-6.4999999999999902e+00 +8.1518017752750893e+00 +0.0000000000000000e+00 -6.4999998527443603e+00 -2.9321957797666262e-02 -5.6471705958749452e-01 +5.6410932592747430e-03
-6.5999999999999899e+00 +8.1517646232205205e+00 +0.0000000000000000e+00 -6.5999998458428504e+00 -2.9321901862081362e-02 -5.6471731241080336e-01 +5.6411823737665063e-03
-6.6999999999999904e+00 +8.1517269039541098e+00 +0.0000000000000000e+00 -6.6999998387290001e+00 -2.9321844048284341e-02 -5.6471757338426987e-01 +5.6412729926637525e-03
-6.7999999999999901e+00 +8.1516886174867995e+00 +0.0000000000000000e+00 -6.7999998313996004e+00 -2.9321783870632182e-02 -5.6471784057035690e-01 +5.6413650770739988e-03
-6.8999999999999897e+00 +8.1516497638112906e+00 +0.0000000000000000e+00 -6.8999998238514202e+00 -2.9321720843432719e-02 -5.6471811203167754e-01 +5.6414585881056261e-03
-6.9999999999999902e+00 +8.1516103429239593e+00 +0.0000000000000000e+00 -6.9999998160812602e+00 -2.9321654480933192e-02 -5.6471838583082723e-01 +5.6415534868661929e-03
-7.0999999999999899e+00 +8.1515703548320708e+00 +0.0000000000000000e+00 -7.0999998080858804e+00 -2.9321584297314861e-02 -5.6471866003032745e-01 +5.6416497344619031e-03
-7.1999999999999904e+00 +8.1515297995356395e+00 +0.0000000000000000e+00 -7.1999997998620904e+00 -2.9321509806698395e-02 -5.6471893269276763e-01 +5.6417472919990568e-03
-7.2999999999999901e+00 +8.1514886770310095e+00 +0.0000000000000000e+00 -7.2999997914066501e+00 -2.9321430523140003e-02 -5.6471920188077729e-01 +5.6418461205837997e-03
-7.3999999999999897e+00 +8.1514469873182005e+00 +0.0000000000000000e+00 -7.3999997827163604e+00 -2.9321345960626126e-02 -5.6471946565696973e-01 +5.6419461813215803e-03
-7.4999999999999902e+00 +8.1514047304008308e+00 +0.0000000000000000e+00 -7.4999997737879900e+00 -2.9321255633071159e-02 -5.6471972208394428e-01 +5.6420474353171936e-03
-7.5999999999999899e+00 +8.1513619062752696e+00 +0.0000000000000000e+00 -7.5999997646183202e+00 -2.9321159054319621e-02 -5.6471996922436984e-01 +5.6421498436756545e-03
-7.6999999999999904e+00 +8.1513185149451601e+00 +0.0000000000000000e+00 -7.6999997552041499e+00 -2.9321055738137907e-02 -5.6472020514087362e-01 +5.6422533675010928e-03
-7.7999999999999901e+00 +8.1512745564032194e+00 +0.0000000000000000e+00 -7.7999997455422498e+00 -2.9320945198219556e-02 -5.6472042789618193e-01 +5.6423579678982145e-03
-7.8999999999999897e+00 +8.1512300306567305e+00 +0.0000000000000000e+00 -7.8999997356294100e+00 -2.9320826948172236e-02 -5.6472063555292418e-01 +5.6424636059703324e-03
-7.9999999999999902e+00 +8.1511849377056897e+00 +0.0000000000000000e+00 -7.9999997254624002e+00 -2.9320700501524685e-02 -5.6472082617380281e-01 +5.6425702428211100e-03
-8.0999999999999908e+00 +8.1511392775464593e+00 +0.0000000000000000e+00 -8.0999997150380096e+00 -2.9320565505680907e-02 -5.6472099850050395e-01 +5.6426778444370511e-03
-8.1999999999999904e+00 +8.1510930501790408e+00 +0.0000000000000000e+00 -8.1999997043530293e+00 -2.9320422143836927e-02 -5.6472115399048384e-01 +5.6427863963388189e-03
-8.2999999999999901e+00 +8.1510462556034309e+00 +0.0000000000000000e+00 -8.2999996934042404e+00 -2.9320270733180834e-02 -5.6472129478016742e-01 +5.6428958889393633e-03
-8.3999999999999897e+00 +8.1509988938232691e+00 +0.0000000000000000e+00 -8.3999996821884100e+00 -2.9320111590943367e-02 -5.6472142300596984e-01 +5.6430063126620151e-03
-8.4999999999999893e+00 +8.1509509648349194e+00 +0.0000000000000000e+00 -8.4999996707023406e+00 -2.9319945034404066e-02 -5.6472154080438253e-01 +5.6431176579416964e-03
-8.5999999999999908e+00 +8.1509024686420197e+00 +0.0000000000000000e+00 -8.5999996589427994e+00 -2.9319771380886980e-02 -5.6472165031186072e-01 +5.6432299152241053e-03
-8.6999999999999904e+00 +8.1508534052409196e+00 +0.0000000000000000e+00 -8.6999996469065692e+00 -2.9319590947768315e-02 -5.6472175366493593e-01 +5.6433430749672272e-03
-8.7999999999999794e+00 +8.1508037746316404e+00 +0.0000000000000000e+00 -8.7999996345904599e+00 -2.9319404052473665e-02 -5.6472185300013333e-01 +5.6434571276408147e-03
-8.8999999999999808e+00 +8.1507535768178094e+00 +0.0000000000000000e+00 -8.8999996219912205e+00 -2.9319211012479661e-02 -5.6472195045397144e-01 +5.6435720637267404e-03
-8.9999999999999805e+00 +8.1507028117957798e+00 +0.0000000000000000e+00 -8.9999996091056396e+00 -2.9319012145320240e-02 -5.6472204816304816e-01 +5.6436878737202026e-03
-9.0999999999999801e+00 +8.1506514795655693e+00 +0.0000000000000000e+00 -9.0999995959305195e+00 -2.9318807768583754e-02 -5.6472214826395528e-01 +5.6438045481292101e-03
-9.1999999999999797e+00 +8.1505995801308000e+00 +0.0000000000000000e+00 -9.1999995824626293e+00 -2.9318598199914628e-02 -5.6472225289328071e-01 +5.6439220774749449e-03
-9.2999999999999794e+00 +8.1505471134878498e+00 +0.0000000000000000e+00 -9.2999995686987500e+00 -2.9318383757019697e-02 -5.6472236418769217e-01 +5.6440404522929439e-03
-9.3999999999999808e+00 +8.1504940796366991e+00 +0.0000000000000000e+00 -9.3999995546356701e+00 -2.9318164757665299e-02 -5.6472248428385485e-01 +5.6441596631326219e-03
-9.4999999999999805e+00 +8.1504404785773694e+00 +0.0000000000000000e+00 -9.4999995402701707e+00 -2.9317941519680410e-02 -5.6472261531845858e-01 +5.6442797005578672e-03
-9.5999999999999801e+00 +8.1503863103171206e+00 +0.0000000000000000e+00 -9.5999995255990296e+00 -2.9317714360955389e-02 -5.6472275942816341e-01 +5.6444005551468642e-03
-9.6999999999999797e+00 +8.1503315748450404e+00 +0.0000000000000000e+00 -9.6999995106190298e+00 -2.9317483599454301e-02 -5.6472291874979574e-01 +5.6445222174943913e-03
-9.7999999999999794e+00 +8.1502762721684103e+00 +0.0000000000000000e+00 -9.7999994953269702e+00 -2.9317249553201374e-02 -5.6472309542006949e-01 +5.6446446782093583e-03
-9.8999999999999808e+00 +8.1502204022835905e+00 +0.0000000000000000e+00 -9.8999994797196091e+00 -2.9317012540294837e-02 -5.6472329157580969e-01 +5.6447679279174063e-03
-9.9999999999999805e+00 +8.1501639651905897e+00 +0.0000000000000000e+00 -9.9999994637937508e+00 -2.9316772878902570e-02 -5.6472350935384152e-01 +5.6448919572601314e-03
-1.0100000000000000e+01 +8.1501069608966592e+00 +0.0000000000000000e+00 -1.0099999447546200e+01 -2.9316531011795603e-02 -5.6472375042979905e-01 +5.6450167427152002e-03
-1.0199999999999999e+01 +8.1500493893909205e+00 +0.0000000000000000e+00 -1.0199999430973600e+01 -2.9316287879943247e-02 -5.6472401463478417e-01 +5.6451422040471426e-03
-1.0300000000000001e+01 +8.1499912506769796e+00 +0.0000000000000000e+00 -1.0299999414073000e+01 -2.9316044548851613e-02 -5.6472430133860541e-01 +5.6452682468262280e-03
-1.0400000000000000e+01 +8.1499325447584905e+00 +0.0000000000000000e+00 -1.0399999396840901e+01 -2.9315802084025826e-02 -5.6472460991106388e-01 +5.6453947766068879e-03
-1.0500000000000000e+01 +8.1498732716317992e+00 +0.0000000000000000e+00 -1.0499999379274200e+01 -2.9315561550972990e-02 -5.6472493972201177e-01 +5.6455216989278571e-03
-1.0600000000000000e+01 +8.1498134313005703e+00 +0.0000000000000000e+00 -1.0599999361369800e+01 -2.9315324015195779e-02 -5.6472529014123818e-01 +5.6456489193105700e-03
-1.0699999999999999e+01 +8.1497530237611500e+00 +0.0000000000000000e+00 -1.0699999343124301e+01 -2.9315090542198406e-02 -5.6472566053858197e-01 +5.6457763432598649e-03
-1.0800000000000001e+01 +8.1496920490171796e+00 +0.0000000000000000e+00 -1.0799999324534600e+01 -2.9314862197480304e-02 -5.6472605028381850e-01 +5.6459038762623915e-03
-1.0900000000000000e+01 +8.1496305070650106e+00 +0.0000000000000000e+00 -1.0899999305597399e+01 -2.9314640046542044e-02 -5.6472645874677208e-01 +5.6460314237873118e-03
-1.1000000000000000e+01 +8.1495683979046607e+00 +0.0000000000000000e+00 -1.0999999286309500e+01 -2.9314425154880502e-02 -5.6472688529723114e-01 +5.6461588912849834e-03
-1.1100000000000000e+01 +8.1495057215361193e+00 +0.0000000000000000e+00 -1.1099999266667700e+01 -2.9314218587990250e-02 -5.6472732930497715e-01 +5.6462861841868155e-03
-1.1199999999999999e+01 +8.1494424779630208e+00 +0.0000000000000000e+00 -1.1199999246668799e+01 -2.9314021411361794e-02 -5.6472779013975460e-01 +5.6464132079045246e-03
-1.1300000000000001e+01 +8.1493786671817396e+00 +0.0000000000000000e+00 -1.1299999226309600e+01 -2.9313834690485950e-02 -5.6472826717135571e-01 +5.6465398678305504e-03
-1.1400000000000000e+01 +8.1493142891922599e+00 +0.0000000000000000e+00 -1.1399999205586900e+01 -2.9313659490849062e-02 -5.6472875976953696e-01 +5.6466660693367454e-03
-1.1500000000000000e+01 +8.1492493440018698e+00 +0.0000000000000000e+00 -1.1499999184497300e+01 -2.9313496877931298e-02 -5.6472926730398898e-01 +5.6467917177736599e-03
-1.1600000000000000e+01 +8.1491838315996592e+00 +0.0000000000000000e+00 -1.1599999163037801e+01 -2.9313347917217084e-02 -5.6472978914453331e-01 +5.6469167184720727e-03
-1.1699999999999999e+01 +8.1491177519928897e+00 +0.0000000000000000e+00 -1.1699999141205099e+01 -2.9313213674179689e-02 -5.6473032466084272e-01 +5.6470409767397081e-03
