# field on trajectory
# s[mm] rx[mm] ry[mm] rz[mm] bx[T] by[T] bz[T]
0.0000000000000000e+00 +8.1649999999999991e+00 +0.0000000000000000e+00 +0.0000000000000000e+00 -3.1049576979786074e-02 -5.9261179108193396e-01 +5.8971356581916171e-03
1.0000000000000001e-01 +8.1649997168578548e+00 +0.0000000000000000e+00 +9.9999999999465544e-02 -3.1049652541411156e-02 -5.9261205627813407e-01 +5.8971829862105212e-03
2.0000000000000001e-01 +8.1649988674312546e+00 +0.0000000000000000e+00 +1.9999999999572429e-01 -3.1049735083499175e-02 -5.9261230049839275e-01 +5.8972336065299729e-03
3.0000000000000004e-01 +8.1649974517199677e+00 +0.0000000000000000e+00 +2.9999999998556948e-01 -3.1049824349804293e-02 -5.9261252599433778e-01 +5.8972873544347890e-03
4.0000000000000002e-01 +8.1649954697237757e+00 +0.0000000000000000e+00 +3.9999999996579433e-01 -3.1049920084080730e-02 -5.9261273501759992e-01 +5.8973440652090548e-03
5.0000000000000000e-01 +8.1649929214424795e+00 +0.0000000000000000e+00 +4.9999999993319200e-01 -3.1050022030082242e-02 -5.9261292981981273e-01 +5.8974035741360840e-03
5.9999999999999998e-01 +8.1649898068758944e+00 +0.0000000000000000e+00 +5.9999999988455577e-01 -3.1050129931561594e-02 -5.9261311265260952e-01 +5.8974657164983842e-03
6.9999999999999996e-01 +8.1649861260238445e+00 +0.0000000000000000e+00 +6.9999999981667882e-01 -3.1050243532270032e-02 -5.9261328576762062e-01 +5.8975303275776219e-03
7.9999999999999993e-01 +8.1649818788861648e+00 +0.0000000000000000e+00 +7.9999999972635427e-01 -3.1050362575956746e-02 -5.9261345141647426e-01 +5.8975972426545779e-03
8.9999999999999991e-01 +8.1649770654626952e+00 +0.0000000000000000e+00 +8.9999999961037547e-01 -3.1050486806368356e-02 -5.9261361185079175e-01 +5.8976662970091206e-03
9.9999999999999989e-01 +8.1649716857532848e+00 +0.0000000000000000e+00 +9.9999999946553553e-01 -3.1050615967248327e-02 -5.9261376932218701e-01 +5.8977373259201582e-03
1.0999999999999999e+00 +8.1649657397577808e+00 +0.0000000000000000e+00 +1.0999999992886276e+00 -3.1050749802336561e-02 -5.9261392608226438e-01 +5.8978101646656022e-03
1.2000000000000000e+00 +8.1649592274760359e+00 +0.0000000000000000e+00 +1.1999999990764449e+00 -3.1050888055368688e-02 -5.9261408438261687e-01 +5.8978846485223365e-03
1.3000000000000000e+00 +8.1649521489078971e+00 +0.0000000000000000e+00 +1.2999999988257807e+00 -3.1051030470075708e-02 -5.9261424647482441e-01 +5.8979606127661736e-03
1.4000000000000001e+00 +8.1649445040532100e+00 +0.0000000000000000e+00 +1.3999999985334279e+00 -3.1051176790183366e-02 -5.9261441461045050e-01 +5.8980378926718193e-03
1.5000000000000002e+00 +8.1649362929118130e+00 +0.0000000000000000e+00 +1.4999999981961800e+00 -3.1051326759411624e-02 -5.9261459104104275e-01 +5.8981163235128399e-03
1.6000000000000003e+00 +8.1649275154835390e+00 +0.0000000000000000e+00 +1.5999999978108301e+00 -3.1051480121474167e-02 -5.9261477801812856e-01 +5.8981957405616061e-03
1.7000000000000004e+00 +8.1649181717682087e+00 +0.0000000000000000e+00 +1.6999999973741715e+00 -3.1051636620077851e-02 -5.9261497779321493e-01 +5.8982759790892859e-03
1.8000000000000005e+00 +8.1649082617656319e+00 +0.0000000000000000e+00 +1.7999999968829972e+00 -3.1051795998922202e-02 -5.9261519261778650e-01 +5.8983568743657825e-03
1.9000000000000006e+00 +8.1648977854756026e+00 +0.0000000000000000e+00 +1.8999999963341003e+00 -3.1051958001698795e-02 -5.9261542474330109e-01 +5.8984382616597032e-03
2.0000000000000004e+00 +8.1648867428979006e+00 +0.0000000000000000e+00 +1.9999999957242740e+00 -3.1052122372090860e-02 -5.9261567642119195e-01 +5.8985199762383277e-03
2.1000000000000005e+00 +8.1648751340322843e+00 +0.0000000000000000e+00 +2.0999999950503114e+00 -3.1052288750933701e-02 -5.9261594940920181e-01 +5.8986018931941955e-03
2.2000000000000006e+00 +8.1648629588784942e+00 +0.0000000000000000e+00 +2.1999999943090058e+00 -3.1052456367699193e-02 -5.9261624349041331e-01 +5.8986840469255914e-03
2.3000000000000007e+00 +8.1648502174362498e+00 +0.0000000000000000e+00 +2.2999999934971505e+00 -3.1052624349015467e-02 -5.9261655795424661e-01 +5.8987665116576960e-03
2.4000000000000008e+00 +8.1648369097052491e+00 +0.0000000000000000e+00 +2.3999999926115385e+00 -3.1052791821506383e-02 -5.9261689209012591e-01 +5.8988493616162581e-03
2.5000000000000009e+00 +8.1648230356851759e+00 +0.0000000000000000e+00 +2.4999999916489628e+00 -3.1052957911791659e-02 -5.9261724518747971e-01 +5.8989326710277411e-03
2.6000000000000010e+00 +8.1648085953756908e+00 +0.0000000000000000e+00 +2.5999999906062166e+00 -3.1053121746486927e-02 -5.9261761653574418e-01 +5.8990165141195204e-03
2.7000000000000011e+00 +8.1647935887764422e+00 +0.0000000000000000e+00 +2.6999999894800930e+00 -3.1053282452203883e-02 -5.9261800542436383e-01 +5.8991009651200238e-03
2.8000000000000012e+00 +8.1647780158870571e+00 +0.0000000000000000e+00 +2.7999999882673849e+00 -3.1053439155550294e-02 -5.9261841114279368e-01 +5.8991860982589009e-03
2.9000000000000012e+00 +8.1647618767071481e+00 +0.0000000000000000e+00 +2.8999999869648856e+00 -3.1053590983130208e-02 -5.9261883298050111e-01 +5.8992719877672033e-03
3.0000000000000013e+00 +8.1647451712363139e+00 +0.0000000000000000e+00 +2.9999999855693882e+00 -3.1053737061543969e-02 -5.9261927022696814e-01 +5.8993587078775426e-03
3.1000000000000014e+00 +8.1647278994741370e+00 +0.0000000000000000e+00 +3.0999999840776855e+00 -3.1053876517388352e-02 -5.9261972217169245e-01 +5.8994463328242508e-03
3.2000000000000015e+00 +8.1647100614201857e+00 +0.0000000000000000e+00 +3.1999999824865712e+00 -3.1054008477256659e-02 -5.9262018810419048e-01 +5.8995349368435616e-03
3.3000000000000016e+00 +8.1646916570740160e+00 +0.0000000000000000e+00 +3.2999999807928377e+00 -3.1054132067738799e-02 -5.9262066731399687e-01 +5.8996245941737614e-03
3.4000000000000017e+00 +8.1646726864351695e+00 +0.0000000000000000e+00 +3.3999999789932782e+00 -3.1054246415421403e-02 -5.9262115909066915e-01 +5.8997153790553685e-03
3.5000000000000018e+00 +8.1646531495031773e+00 +0.0000000000000000e+00 +3.4999999770846859e+00 -3.1054350646887940e-02 -5.9262166272378813e-01 +5.8998073657312855e-03
3.6000000000000019e+00 +8.1646330462775598e+00 +0.0000000000000000e+00 +3.5999999750638541e+00 -3.1054443888718784e-02 -5.9262217750295931e-01 +5.8999006284469807e-03
3.7000000000000020e+00 +8.1646123767578249e+00 +0.0000000000000000e+00 +3.6999999729275750e+00 -3.1054525267491317e-02 -5.9262270271781614e-01 +5.8999952414506415e-03
3.8000000000000020e+00 +8.1645911409434717e+00 +0.0000000000000000e+00 +3.7999999706726424e+00 -3.1054593909780066e-02 -5.9262323765802016e-01 +5.9000912789933481e-03
3.9000000000000021e+00 +8.1645693388339904e+00 +0.0000000000000000e+00 +3.8999999682958491e+00 -3.1054648942156756e-02 -5.9262378161326423e-01 +5.9001888153292379e-03
4.0000000000000018e+00 +8.1645469704288605e+00 +0.0000000000000000e+00 +3.9999999657939878e+00 -3.1054689491190456e-02 -5.9262433387327351e-01 +5.9002879247156683e-03
4.1000000000000014e+00 +8.1645240357275561e+00 +0.0000000000000000e+00 +4.0999999631638513e+00 -3.1054715065414469e-02 -5.9262489378454819e-01 +5.9003886832797170e-03
4.2000000000000011e+00 +8.1645005347295427e+00 +0.0000000000000000e+00 +4.1999999604022333e+00 -3.1054726701229454e-02 -5.9262546092057578e-01 +5.9004911746163751e-03
4.3000000000000007e+00 +8.1644764674342802e+00 +0.0000000000000000e+00 +4.2999999575059258e+00 -3.1054725817004386e-02 -5.9262603491159949e-01 +5.9005954841879977e-03
4.4000000000000004e+00 +8.1644518338412198e+00 +0.0000000000000000e+00 +4.3999999544717223e+00 -3.1054713831109349e-02 -5.9262661538787431e-01 +5.9007016974577213e-03
4.5000000000000000e+00 +8.1644266339498071e+00 +0.0000000000000000e+00 +4.4999999512964157e+00 -3.1054692161915927e-02 -5.9262720197966923e-01 +5.9008098998894658e-03
4.5999999999999996e+00 +8.1644008677594826e+00 +0.0000000000000000e+00 +4.5999999479767997e+00 -3.1054662227797441e-02 -5.9262779431726731e-01 +5.9009201769479342e-03
4.6999999999999993e+00 +8.1643745352696815e+00 +0.0000000000000000e+00 +4.6999999445096661e+00 -3.1054625447129298e-02 -5.9262839203096496e-01 +5.9010326140985980e-03
4.7999999999999989e+00 +8.1643476364798335e+00 +0.0000000000000000e+00 +4.7999999408918077e+00 -3.1054583238289201e-02 -5.9262899475107300e-01 +5.9011472968076972e-03
4.8999999999999986e+00 +8.1643201713893649e+00 +0.0000000000000000e+00 +4.8999999371200182e+00 -3.1054537019657477e-02 -5.9262960210791793e-01 +5.9012643105422211e-03
4.9999999999999982e+00 +8.1642921399976949e+00 +0.0000000000000000e+00 +4.9999999331910896e+00 -3.1054488209617374e-02 -5.9263021373184044e-01 +5.9013837407699277e-03
5.0999999999999979e+00 +8.1642635423042389e+00 +0.0000000000000000e+00 +5.0999999291018154e+00 -3.1054438226555327e-02 -5.9263082925319599e-01 +5.9015056729593146e-03
5.1999999999999975e+00 +8.1642343783084108e+00 +0.0000000000000000e+00 +5.1999999248489885e+00 -3.1054388488861218e-02 -5.9263144830235748e-01 +5.9016301925796212e-03
5.2999999999999972e+00 +8.1642046480096209e+00 +0.0000000000000000e+00 +5.2999999204294017e+00 -3.1054340414928730e-02 -5.9263207050971267e-01 +5.9017573851008294e-03
5.3999999999999968e+00 +8.1641743514072740e+00 +0.0000000000000000e+00 +5.3999999158398477e+00 -3.1054295423155548e-02 -5.9263269550566566e-01 +5.9018873359936398e-03
5.4999999999999964e+00 +8.1641434885007751e+00 +0.0000000000000000e+00 +5.4999999110771194e+00 -3.1054254931943696e-02 -5.9263332292063808e-01 +5.9020201307294949e-03
5.5999999999999961e+00 +8.1641120592895255e+00 +0.0000000000000000e+00 +5.5999999061380095e+00 -3.1054220359699829e-02 -5.9263395238506766e-01 +5.9021558547805372e-03
5.6999999999999957e+00 +8.1640800637729249e+00 +0.0000000000000000e+00 +5.6999999010193108e+00 -3.1054193124835462e-02 -5.9263458352941023e-01 +5.9022945936196385e-03
5.7999999999999954e+00 +8.1640475019503693e+00 +0.0000000000000000e+00 +5.7999998957178152e+00 -3.1054174645767266e-02 -5.9263521598413949e-01 +5.9024364327203618e-03
5.8999999999999950e+00 +8.1640143738212583e+00 +0.0000000000000000e+00 +5.8999998902303163e+00 -3.1054166340917393e-02 -5.9263584937974612e-01 +5.9025814575569858e-03
5.9999999999999947e+00 +8.1639806793849861e+00 +0.0000000000000000e+00 +5.9999998845536071e+00 -3.1054169628713699e-02 -5.9263648334674068e-01 +5.9027297536044798e-03
6.0999999999999943e+00 +8.1639464186409469e+00 +0.0000000000000000e+00 +6.0999998786844802e+00 -3.1054185678988339e-02 -5.9263711761712246e-01 +5.9028813671562841e-03
6.1999999999999940e+00 +8.1639115915885387e+00 +0.0000000000000000e+00 +6.1999998726197285e+00 -3.1054214667174278e-02 -5.9263775232876603e-01 +5.9030361877769836e-03
6.2999999999999936e+00 +8.1638761982271539e+00 +0.0000000000000000e+00 +6.2999998663561447e+00 -3.1054256520121375e-02 -5.9263838772095434e-01 +5.9031940658488971e-03
6.3999999999999932e+00 +8.1638402385561868e+00 +0.0000000000000000e+00 +6.3999998598905217e+00 -3.1054311164701812e-02 -5.9263902403289825e-01 +5.9033548517544842e-03
6.4999999999999929e+00 +8.1638037125750298e+00 +0.0000000000000000e+00 +6.4999998532196512e+00 -3.1054378527811049e-02 -5.9263966150373137e-01 +5.9035183958763369e-03
6.5999999999999925e+00 +8.1637666202830772e+00 +0.0000000000000000e+00 +6.5999998463403271e+00 -3.1054458536368703e-02 -5.9264030037250781e-01 +5.9036845485971453e-03
6.6999999999999922e+00 +8.1637289616797180e+00 +0.0000000000000000e+00 +6.6999998392493412e+00 -3.1054551117319380e-02 -5.9264094087819896e-01 +5.9038531602996569e-03
6.7999999999999918e+00 +8.1636907367643410e+00 +0.0000000000000000e+00 +6.7999998319434862e+00 -3.1054656197633645e-02 -5.9264158325968963e-01 +5.9040240813666850e-03
6.8999999999999915e+00 +8.1636519455363334e+00 +0.0000000000000000e+00 +6.8999998244195559e+00 -3.1054773704308789e-02 -5.9264222775577569e-01 +5.9041971621810498e-03
6.9999999999999911e+00 +8.1636125879950825e+00 +0.0000000000000000e+00 +6.9999998166743422e+00 -3.1054903564369823e-02 -5.9264287460516019e-01 +5.9043722531255723e-03
7.0999999999999908e+00 +8.1635726641399700e+00 +0.0000000000000000e+00 +7.0999998087046370e+00 -3.1055045704870349e-02 -5.9264352404645082e-01 +5.9045492045830435e-03
7.1999999999999904e+00 +8.1635321739703759e+00 +0.0000000000000000e+00 +7.1999998005072339e+00 -3.1055200052893354e-02 -5.9264417631815536e-01 +5.9047278669361949e-03
7.2999999999999901e+00 +8.1634911174856803e+00 +0.0000000000000000e+00 +7.2999997920789257e+00 -3.1055366535552208e-02 -5.9264483165868032e-01 +5.9049080905676805e-03
7.3999999999999897e+00 +8.1634494946852563e+00 +0.0000000000000000e+00 +7.3999997834165043e+00 -3.1055545079991483e-02 -5.9264549030632596e-01 +5.9050897258600462e-03
7.4999999999999893e+00 +8.1634073055684766e+00 +0.0000000000000000e+00 +7.4999997745167626e+00 -3.1055735613387852e-02 -5.9264615249928454e-01 +5.9052726231957004e-03
7.5999999999999890e+00 +8.1633645501347107e+00 +0.0000000000000000e+00 +7.5999997653764932e+00 -3.1055938062951007e-02 -5.9264681847563527e-01 +5.9054566329569047e-03
7.6999999999999886e+00 +8.1633212283833227e+00 +0.0000000000000000e+00 +7.6999997559924882e+00 -3.1056152355924471e-02 -5.9264748847334325e-01 +5.9056416055257221e-03
7.7999999999999883e+00 +8.1632773403136731e+00 +0.0000000000000000e+00 +7.7999997463615411e+00 -3.1056378419586590e-02 -5.9264816273025434e-01 +5.9058273912840241e-03
7.8999999999999879e+00 +8.1632328859251189e+00 +0.0000000000000000e+00 +7.8999997364804440e+00 -3.1056616181251325e-02 -5.9264884148409358e-01 +5.9060138406134329e-03
7.9999999999999876e+00 +8.1631878652170133e+00 +0.0000000000000000e+00 +7.9999997263459894e+00 -3.1056865568269185e-02 -5.9264952497246037e-01 +5.9062008038953239e-03
8.0999999999999872e+00 +8.1631422781887064e+00 +0.0000000000000000e+00 +8.0999997159549704e+00 -3.1057126302383383e-02 -5.9265021337203738e-01 +5.9063881574198032e-03
8.1999999999999869e+00 +8.1630961248395391e+00 +0.0000000000000000e+00 +8.1999997053041778e+00 -3.1057397282768535e-02 -5.9265090661630115e-01 +5.9065758811123557e-03
8.2999999999999865e+00 +8.1630494051688522e+00 +0.0000000000000000e+00 +8.2999996943904062e+00 -3.1057677202930917e-02 -5.9265160457804023e-01 +5.9067639808040411e-03
8.3999999999999861e+00 +8.1630021191759798e+00 +0.0000000000000000e+00 +8.3999996832104458e+00 -3.1057964756350316e-02 -5.9265230713017192e-01 +5.9069524623215986e-03
8.4999999999999858e+00 +8.1629542668602522e+00 +0.0000000000000000e+00 +8.4999996717610902e+00 -3.1058258636478920e-02 -5.9265301414574445e-01 +5.9071413314872988e-03
8.5999999999999854e+00 +8.1629058482209942e+00 +0.0000000000000000e+00 +8.5999996600391331e+00 -3.1058557536740295e-02 -5.9265372549794482e-01 +5.9073305941188059e-03
8.6999999999999851e+00 +8.1628568632575291e+00 +0.0000000000000000e+00 +8.6999996480413664e+00 -3.1058860150528240e-02 -5.9265444106009968e-01 +5.9075202560290290e-03
8.7999999999999847e+00 +8.1628073119691749e+00 +0.0000000000000000e+00 +8.7999996357645820e+00 -3.1059165171205830e-02 -5.9265516070568292e-01 +5.9077103230259932e-03
8.8999999999999844e+00 +8.1627571943552439e+00 +0.0000000000000000e+00 +8.8999996232055718e+00 -3.1059471292104228e-02 -5.9265588430831939e-01 +5.9079008009126858e-03
8.9999999999999840e+00 +8.1627065104150471e+00 +0.0000000000000000e+00 +8.9999996103611277e+00 -3.1059777206521724e-02 -5.9265661174178796e-01 +5.9080916954869231e-03
9.0999999999999837e+00 +8.1626552601478917e+00 +0.0000000000000000e+00 +9.0999995972280434e+00 -3.1060081607722577e-02 -5.9265734288002891e-01 +5.9082830125412045e-03
9.1999999999999833e+00 +8.1626034435530794e+00 +0.0000000000000000e+00 +9.1999995838031108e+00 -3.1060383188936006e-02 -5.9265807759714573e-01 +5.9084747578625691e-03
9.2999999999999829e+00 +8.1625510606299105e+00 +0.0000000000000000e+00 +9.2999995700831235e+00 -3.1060680643355133e-02 -5.9265881576741153e-01 +5.9086669372324652e-03
9.3999999999999826e+00 +8.1624981113776816e+00 +0.0000000000000000e+00 +9.3999995560648717e+00 -3.1060972664135857e-02 -5.9265955726527275e-01 +5.9088595564265895e-03
9.4999999999999822e+00 +8.1624445957956855e+00 +0.0000000000000000e+00 +9.4999995417451490e+00 -3.1061257944395848e-02 -5.9266030196535413e-01 +5.9090526212147668e-03
9.5999999999999819e+00 +8.1623905138832118e+00 +0.0000000000000000e+00 +9.5999995271207474e+00 -3.1061535177213429e-02 -5.9266104974246336e-01 +5.9092461373607928e-03
9.6999999999999815e+00 +8.1623358656395482e+00 +0.0000000000000000e+00 +9.6999995121884606e+00 -3.1061803055626582e-02 -5.9266180047159456e-01 +5.9094401106223023e-03
9.7999999999999812e+00 +8.1622806510639805e+00 +0.0000000000000000e+00 +9.7999994969450785e+00 -3.1062060272631812e-02 -5.9266255402793533e-01 +5.9096345467506235e-03
9.8999999999999808e+00 +8.1622248701557876e+00 +0.0000000000000000e+00 +9.8999994813873951e+00 -3.1062305521183126e-02 -5.9266331028686814e-01 +5.9098294514906419e-03
9.9999999999999805e+00 +8.1621685229142500e+00 +0.0000000000000000e+00 +9.9999994655122020e+00 -3.1062537494190964e-02 -5.9266406912397718e-01 +5.9100248305806492e-03
1.0099999999999980e+01 +8.1621116093386448e+00 +0.0000000000000000e+00 +1.0099999449316291e+01 -3.1062755156931986e-02 -5.9266483030938177e-01 +5.9102207026713567e-03
1.0199999999999980e+01 +8.1620541294282472e+00 +0.0000000000000000e+00 +1.0199999432796456e+01 -3.1062958564314382e-02 -5.9266559319061618e-01 +5.9104171380900414e-03
1.0299999999999979e+01 +8.1619960831823288e+00 +0.0000000000000000e+00 +1.0299999415949488e+01 -3.1063148043664536e-02 -5.9266635700946280e-01 +5.9106142200933080e-03
1.0399999999999979e+01 +8.1619374706001615e+00 +0.0000000000000000e+00 +1.0399999398772179e+01 -3.1063323922311561e-02 -5.9266712100759500e-01 +5.9108120319493222e-03
1.0499999999999979e+01 +8.1618782916810169e+00 +0.0000000000000000e+00 +1.0499999381261322e+01 -3.1063486527587492e-02 -5.9266788442657659e-01 +5.9110106569380989e-03
1.0599999999999978e+01 +8.1618185464241684e+00 +0.0000000000000000e+00 +1.0599999363413708e+01 -3.1063636186827434e-02 -5.9266864650785689e-01 +5.9112101783518273e-03
1.0699999999999978e+01 +8.1617582348288895e+00 +0.0000000000000000e+00 +1.0699999345226130e+01 -3.1063773227369574e-02 -5.9266940649276778e-01 +5.9114106794951561e-03
1.0799999999999978e+01 +8.1616973568944555e+00 +0.0000000000000000e+00 +1.0799999326695380e+01 -3.1063897976555482e-02 -5.9267016362252090e-01 +5.9116122436854981e-03
1.0899999999999977e+01 +8.1616359126201470e+00 +0.0000000000000000e+00 +1.0899999307818250e+01 -3.1064010761730172e-02 -5.9267091713820430e-01 +5.9118149542533444e-03
1.0999999999999977e+01 +8.1615739020052445e+00 +0.0000000000000000e+00 +1.0999999288591534e+01 -3.1064111910242241e-02 -5.9267166628077905e-01 +5.9120188945425423e-03
1.1099999999999977e+01 +8.1615113250490339e+00 +0.0000000000000000e+00 +1.1099999269012020e+01 -3.1064201749444027e-02 -5.9267241029107653e-01 +5.9122241479106271e-03
1.1199999999999976e+01 +8.1614481817508064e+00 +0.0000000000000000e+00 +1.1199999249076503e+01 -3.1064280606691710e-02 -5.9267314840979402e-01 +5.9124307977291022e-03
1.1299999999999976e+01 +8.1613844721098587e+00 +0.0000000000000000e+00 +1.1299999228781775e+01 -3.1064348809345579e-02 -5.9267387987749354e-01 +5.9126389273837440e-03
1.1399999999999975e+01 +8.1613201961254944e+00 +0.0000000000000000e+00 +1.1399999208124630e+01 -3.1064406684769987e-02 -5.9267460393459681e-01 +5.9128486202749174e-03
1.1499999999999975e+01 +8.1612553537970225e+00 +0.0000000000000000e+00 +1.1499999187101857e+01 -3.1064454560333642e-02 -5.9267531982138288e-01 +5.9130599598178615e-03
1.1599999999999975e+01 +8.1611899451237626e+00 +0.0000000000000000e+00 +1.1599999165710248e+01 -3.1064492763409682e-02 -5.9267602677798448e-01 +5.9132730294430020e-03
1.1699999999999974e+01 +8.1611239701050398e+00 +0.0000000000000000e+00 +1.1699999143946597e+01 -3.1064521621375848e-02 -5.9267672404438598e-01 +5.9134879125962436e-03
1.1799999999999974e+01 +8.1610574287401914e+00 +0.0000000000000000e+00 +1.1799999121807694e+01 -3.1064541461614584e-02 -5.9267741086041836e-01 +5.9137046927392771e-03
