# multipoles
# s[mm] polynom_b[n=0][T/m^n] polynom_b[n=1][T/m^n] polynom_b[n=2][T/m^n] polynom_b[n=3][T/m^n] polynom_b[n=4][T/m^n] polynom_b[n=5][T/m^n] polynom_b[n=6][T/m^n] 
+0.0000000000000000e+00 -5.9275591224794466e-01 +8.1212662297861673e+00 +2.2995964514945488e-01 +8.8176628094302636e+00 -2.5118400552999783e+03 -1.6876912046215247e+05 -1.5654163394727330e+06 
+1.0000000000000001e-01 -5.9275600225161806e-01 +8.1213012252585450e+00 +2.3035581199045599e-01 +8.0677396461484072e+00 -2.5002917441842246e+03 -1.6502343661337529e+05 -1.6248251379739656e+06 
+2.0000000000000001e-01 -5.9275609381814520e-01 +8.1213344282971409e+00 +2.3055074231017847e-01 +7.3355989037186564e+00 -2.4875838682393764e+03 -1.6132548329255282e+05 -1.6826974828987999e+06 
+2.9999999999999999e-01 -5.9275618626612048e-01 +8.1213658941523352e+00 +2.3054436984675938e-01 +6.6220201548937894e+00 -2.4736543842423557e+03 -1.5768397136671431e+05 -1.7399839403837163e+06 
+4.0000000000000002e-01 -5.9275627891412419e-01 +8.1213956780750749e+00 +2.3033663211272715e-01 +5.9277829758076912e+00 -2.4584413203123145e+03 -1.5410761179703646e+05 -1.7976347410153172e+06 
+5.0000000000000000e-01 -5.9275637108078594e-01 +8.1214238353197938e+00 +2.2992746603254838e-01 +5.2536668496041630e+00 -2.4418826985196183e+03 -1.5060511502481197e+05 -1.8566001295089140e+06 
+5.9999999999999998e-01 -5.9275646208468691e-01 +8.1214504211393965e+00 +2.2931680670096496e-01 +4.6004513316709605e+00 -2.4239165083763965e+03 -1.4718519197694075e+05 -1.9178305024608152e+06 
+6.9999999999999996e-01 -5.9275655124437954e-01 +8.1214754907868283e+00 +2.2850458910264063e-01 +3.9689160049050338e+00 -2.4044807355094285e+03 -1.4385655380289967e+05 -1.9822762785140055e+06 
+8.0000000000000004e-01 -5.9275663787846589e-01 +8.1214990995212002e+00 +2.2749074768041272e-01 +3.3598402789244122e+00 -2.3835133591404951e+03 -1.4062791061479802e+05 -2.0508878970209891e+06 
+9.0000000000000002e-01 -5.9275672130553381e-01 +8.1215213025973583e+00 +2.2627521888525845e-01 +2.7740037192872857e+00 -2.3609523987302691e+03 -1.3750797347435949e+05 -2.1246155979167782e+06 
+1.0000000000000000e+00 -5.9275680084410798e-01 +8.1215421552741063e+00 +2.2485793495306478e-01 +2.2121858009479460e+00 -2.3367357915999451e+03 -1.3450545292413409e+05 -2.2044100187102905e+06 
+1.1000000000000001e+00 -5.9275687581276626e-01 +8.1215617128066206e+00 +2.2323882740963885e-01 +1.6751661312904542e+00 -2.3108014625609776e+03 -1.3162906026910245e+05 -2.2912218502375539e+06 
+1.2000000000000000e+00 -5.9275694553008107e-01 +8.1215800304524439e+00 +2.2141783080272148e-01 +1.1637242663825507e+00 -2.2830873949970783e+03 -1.2888750648001820e+05 -2.3860015003049108e+06 
+1.3000000000000000e+00 -5.9275700931456532e-01 +8.1215971634719875e+00 +2.1939487556092166e-01 +6.7863971965596692e-01 -2.2535314914408259e+03 -1.2628950229164390e+05 -2.4896997649907446e+06 
+1.3999999999999999e+00 -5.9275706648481863e-01 +8.1216131671187668e+00 +2.1716989179836785e-01 +2.2069222536088404e-01 -2.2220716484940026e+03 -1.2384375966240793e+05 -2.6032674666160084e+06 
+1.5000000000000000e+00 -5.9275711635928130e-01 +8.1216280966513885e+00 +2.1474280828005049e-01 -2.0933860178105110e-01 -2.1886457384493528e+03 -1.2155898980940213e+05 -2.7276555356341335e+06 
+1.6000000000000001e+00 -5.9275715825655417e-01 +8.1216420073226665e+00 +2.1211355459583159e-01 -6.1067293823712210e-01 -2.1531916452940914e+03 -1.1944390513281967e+05 -2.8638148531021895e+06 
+1.7000000000000000e+00 -5.9275719149516104e-01 +8.1216549543877203e+00 +2.0928205737183730e-01 -9.8253100487145917e-01 -2.1156471928974311e+03 -1.1750721768818329e+05 -3.0126965920555010e+06 
+1.8000000000000000e+00 -5.9275721539360726e-01 +8.1216669930983478e+00 +2.0624824128845742e-01 -1.3241328841697584e+00 -2.0759501709190154e+03 -1.1575764028187814e+05 -3.1752520766740190e+06 
+1.8999999999999999e+00 -5.9275722927038743e-01 +8.1216781787078638e+00 +2.0301203201804938e-01 -1.6346986790061060e+00 -2.0340383805840086e+03 -1.1420388548955045e+05 -3.3524325898380517e+06 
+2.0000000000000000e+00 -5.9275723244404233e-01 +8.1216885664651688e+00 +1.9957335345009061e-01 -1.9134483131011264e+00 -1.9898495903741550e+03 -1.1285466687564738e+05 -3.5451895612539211e+06 
+2.1000000000000001e+00 -5.9275722457749369e-01 +8.1216982170779044e+00 +1.9593674322763482e-01 -2.1601914904106647e+00 -1.9433616387832508e+03 -1.1171427662641893e+05 -3.7541713408231591e+06 
+2.2000000000000002e+00 -5.9275720671532850e-01 +8.1217072166948689e+00 +1.9212568684151748e-01 -2.3770944913271927e+00 -1.8947162224127323e+03 -1.1076975528839527e+05 -3.9788160209818371e+06 
+2.2999999999999998e+00 -5.9275718024853674e-01 +8.1217156587293218e+00 +1.8816851514247671e-01 -2.5669125392558465e+00 -1.8440966742051232e+03 -1.1000393540396208e+05 -4.2182603466967111e+06 
+2.3999999999999999e+00 -5.9275714656808953e-01 +8.1217236365922147e+00 +1.8409356035145216e-01 -2.7324008205731123e+00 -1.7916863509677214e+03 -1.0939964966502441e+05 -4.4716409598441245e+06 
+2.5000000000000000e+00 -5.9275710706495099e-01 +8.1217312436958196e+00 +1.7992915693609438e-01 -2.8763146169235982e+00 -1.7376686509878687e+03 -1.0893973008305354e+05 -4.7380943065003296e+06 
+2.6000000000000001e+00 -5.9275706313013854e-01 +8.1217385734458336e+00 +1.7570363868132052e-01 -3.0014090826731517e+00 -1.6822269601525306e+03 -1.0860700927833057e+05 -5.0167568920146767e+06 
+2.7000000000000002e+00 -5.9275701615463194e-01 +8.1217457192512352e+00 +1.7144533801156431e-01 -3.1104395270652674e+00 -1.6255446359950715e+03 -1.0838431886123003e+05 -5.3067653659832180e+06 
+2.7999999999999998e+00 -5.9275696752941864e-01 +8.1217527745125135e+00 +1.6718259221709683e-01 -3.2061610918926764e+00 -1.5678051314144573e+03 -1.0825449126561638e+05 -5.6072559177483767e+06 
+2.8999999999999999e+00 -5.9275691864552471e-01 +8.1217598326310103e+00 +1.6294373567215856e-01 -3.2913290201972858e+00 -1.5091918424521650e+03 -1.0820035821338711e+05 -5.9173650137378862e+06 
+3.0000000000000000e+00 -5.9275687089396778e-01 +8.1217669870065645e+00 +1.5875710512765978e-01 -3.3686986023958903e+00 -1.4498882076021828e+03 -1.0820475099218686e+05 -6.2362289287699405e+06 
+3.1000000000000001e+00 -5.9275682566576127e-01 +8.1217743310358017e+00 +1.5465104036264804e-01 -3.4410251374017418e+00 -1.3900777228458958e+03 -1.0825050066859295e+05 -6.5629836681369152e+06 
+3.2000000000000002e+00 -5.9275678435194135e-01 +8.1217819581082704e+00 +1.5065387698700416e-01 -3.5110638046921880e+00 -1.3299438096898759e+03 -1.0832043888840184e+05 -6.8967655809289096e+06 
+3.2999999999999998e+00 -5.9275674834359748e-01 +8.1217899616193545e+00 +1.4679396015445917e-01 -3.5815700825076746e+00 -1.2696700637538590e+03 -1.0839739533954380e+05 -7.2367102125847023e+06 
+3.3999999999999999e+00 -5.9275671903173366e-01 +8.1217984349515380e+00 +1.4309962832189954e-01 -3.6552991824285499e+00 -1.2094399577970930e+03 -1.0846420111384580e+05 -7.5819536848345902e+06 
+3.5000000000000000e+00 -5.9275669780747797e-01 +8.1218074714913211e+00 +1.3959922778076270e-01 -3.7350065591154102e+00 -1.1494371111055866e+03 -1.0850368569275488e+05 -7.9316314339942168e+06 
+3.6000000000000001e+00 -5.9275668606190701e-01 +8.1218171646165658e+00 +1.3632110194421151e-01 -3.8234475455609198e+00 -1.0898450889418680e+03 -1.0849867909645566e+05 -8.2848791552144978e+06 
+3.7000000000000002e+00 -5.9275668518612012e-01 +8.1218276077068676e+00 +1.3329360077605529e-01 -3.9233776735814971e+00 -1.0308475796021023e+03 -1.0843200995621328e+05 -8.6408319699791297e+06 
+3.7999999999999998e+00 -5.9275669657125052e-01 +8.1218388941344468e+00 +1.3054507111008135e-01 -4.0375523997968310e+00 -9.7262821483949597e+02 -1.0828650716263457e+05 -8.9986252648179233e+06 
+3.8999999999999999e+00 -5.9275672160841764e-01 +8.1218511172696726e+00 +1.2810386460143150e-01 -4.1687272873518442e+00 -9.1537071232047310e+02 -1.0804499875904850e+05 -9.3573940394283719e+06 
+4.0000000000000000e+00 -5.9275676168883840e-01 +8.1218643704773577e+00 +1.2599833522707374e-01 -4.3196578881680932e+00 -8.5925884160345834e+02 -1.0769031268898971e+05 -9.7162730350461453e+06 
+4.0999999999999996e+00 -5.9275681780565781e-01 +8.1218787195769444e+00 +1.2424793234088428e-01 -4.4922312116586411e+00 -8.0445674423145931e+02 -1.0721112823521812e+05 -1.0074387140131185e+07 
+4.2000000000000002e+00 -5.9275688935225312e-01 +8.1218941092548054e+00 +1.2283614930200486e-01 -4.6846094823256621e+00 -7.5105183729739713e+02 -1.0662016461984994e+05 -1.0430772660695549e+07 
+4.2999999999999998e+00 -5.9275697532016780e-01 +8.1219104511277020e+00 +1.2173743418148258e-01 -4.8939589234819980e+00 -6.9911339772113968e+02 -1.0593632725869112e+05 -1.0784429581922742e+07 
+4.4000000000000004e+00 -5.9275707470091155e-01 +8.1219276568194090e+00 +1.2092623440768427e-01 -5.1174458416987454e+00 -6.4871069238954408e+02 -1.0517852137475087e+05 -1.1134357919749733e+07 
+4.5000000000000000e+00 -5.9275718648597397e-01 +8.1219456379575696e+00 +1.2037699476005932e-01 -5.3522365339813325e+00 -5.9991293679105127e+02 -1.0436565254254226e+05 -1.1479557924968988e+07 
+4.5999999999999996e+00 -5.9275730966679030e-01 +8.1219643061724760e+00 +1.2006415645299272e-01 -5.5954972549526323e+00 -5.5278927733164676e+02 -1.0351662686553814e+05 -1.1819030167907035e+07 
+4.7000000000000002e+00 -5.9275744323486035e-01 +8.1219835731045400e+00 +1.1996216122754237e-01 -5.8443944097088556e+00 -5.0740887043875392e+02 -1.0265034992433523e+05 -1.2151775156803401e+07 
+4.7999999999999998e+00 -5.9275758618164176e-01 +8.1220033503974385e+00 +1.2004544895247629e-01 -6.0960943386348170e+00 -4.6384083644652350e+02 -1.0178572806147164e+05 -1.2476793558170062e+07 
+4.9000000000000004e+00 -5.9275773749852567e-01 +8.1220235496956406e+00 +1.2028845450934184e-01 -6.3477632682516036e+00 -4.2215419943797031e+02 -1.0094166860240888e+05 -1.2793086485216536e+07 
+5.0000000000000000e+00 -5.9275789617697983e-01 +8.1220440826567959e+00 +1.2066561433017353e-01 -6.5965676285078354e+00 -3.8241801015017620e+02 -1.0013707812845250e+05 -1.3099654915732615e+07 
+5.0999999999999996e+00 -5.9275806120837149e-01 +8.1220648609425616e+00 +1.2115135979668240e-01 -6.8396737824674858e+00 -3.4470122604056445e+02 -9.9390864046889532e+04 -1.3395500246478407e+07 
+5.2000000000000002e+00 -5.9275823158410645e-01 +8.1220857962187338e+00 +1.2172011928985246e-01 -7.0742480416595450e+00 -3.0907274506249854e+02 -9.8721934466576145e+04 -1.3679624147606878e+07 
+5.2999999999999998e+00 -5.9275840629557019e-01 +8.1221068001608305e+00 +1.2234632137943857e-01 -7.2974568001374198e+00 -2.7560146476854004e+02 -9.8149197499243324e+04 -1.3951028281771842e+07 
+5.4000000000000004e+00 -5.9275858433409923e-01 +8.1221277844513438e+00 +1.2300438939257842e-01 -7.5064664425864942e+00 -2.4435618947198373e+02 -9.7691561812975327e+04 -1.4208714720964463e+07 
+5.5000000000000000e+00 -5.9275876469099942e-01 +8.1221486607830879e+00 +1.2366874490731321e-01 -7.6984434495122080e+00 -2.1540568174891499e+02 -9.7367936003863506e+04 -1.4451685736809660e+07 
+5.5999999999999996e+00 -5.9275894635761128e-01 +8.1221693408523628e+00 +1.2431380694076846e-01 -7.8705541735322857e+00 -1.8881865955352683e+02 -9.7197229954269278e+04 -1.4678943783098508e+07 
+5.7000000000000002e+00 -5.9275912832518463e-01 +8.1221897363674564e+00 +1.2491398955607169e-01 -8.0199650784551135e+00 -1.6466374246583956e+02 -9.7198353464964239e+04 -1.4889491771049852e+07 
+5.7999999999999998e+00 -5.9275930958501044e-01 +8.1222097590429367e+00 +1.2544370465741275e-01 -8.1438425751255679e+00 -1.4300951044980084e+02 -9.7390217195801888e+04 -1.5082332774788059e+07 
+5.9000000000000004e+00 -5.9275948912834164e-01 +8.1222293206041911e+00 +1.2587736244682896e-01 -8.2393531347882494e+00 -1.2392450858836244e+02 -9.7791732056613910e+04 -1.5256470018300319e+07 
+5.9999999999999902e+00 -5.9275966594637097e-01 +8.1222483327823944e+00 +1.2618936515837573e-01 -8.3036631447662597e+00 -1.0747713033888618e+02 -9.8421809979309633e+04 -1.5410907418184737e+07 
+6.0999999999999899e+00 -5.9275983931464993e-01 +8.1222667021125314e+00 +1.2636305735635894e-01 -8.3343490760146555e+00 -9.3773564271579957e+01 -9.9295316436769062e+04 -1.5544597747444149e+07 
+6.1999999999999904e+00 -5.9276000965479214e-01 +8.1222843254433030e+00 +1.2641890893146662e-01 -8.3309694409309891e+00 -8.3077025176357921e+01 -1.0040979665166383e+05 -1.5656339640042780e+07 
+6.2999999999999901e+00 -5.9276017767698097e-01 +8.1223011000529795e+00 +1.2638698509579299e-01 -8.2936695798038755e+00 -7.5690623881588309e+01 -1.0175813658317803e+05 -1.5744908568224827e+07 
+6.3999999999999897e+00 -5.9276034409149092e-01 +8.1223169232141235e+00 +1.2629735281917109e-01 -8.2225947224438674e+00 -7.1917509274117251e+01 -1.0333322287213571e+05 -1.5809079823752832e+07 
+6.4999999999999902e+00 -5.9276050960841098e-01 +8.1223316922017119e+00 +1.2618007684162597e-01 -8.1178902239815667e+00 -7.2060800718171251e+01 -1.0512794145438240e+05 -1.5847628822580464e+07 
+6.5999999999999899e+00 -5.9276067493798523e-01 +8.1223453042795466e+00 +1.2606522537092682e-01 -7.9797011908073197e+00 -7.6423694200825892e+01 -1.0713517966736821e+05 -1.5859330606069865e+07 
+6.6999999999999904e+00 -5.9276084079039848e-01 +8.1223576567082034e+00 +1.2598286422278249e-01 -7.8081727066769853e+00 -8.5309344082144932e+01 -1.0934782495678420e+05 -1.5842960423692401e+07 
+6.7999999999999901e+00 -5.9276100787569885e-01 +8.1223686467457696e+00 +1.2596306015716102e-01 -7.6034498482752815e+00 -9.9020940534188966e+01 -1.1175876481547527e+05 -1.5797293325601440e+07 
+6.8999999999999897e+00 -5.9276117690407304e-01 +8.1223781716415235e+00 +1.2603588045540864e-01 -7.3656775262665457e+00 -1.1786168827784489e+02 -1.1436088764220149e+05 -1.5721104303523434e+07 
+6.9999999999999902e+00 -5.9276134858566953e-01 +8.1223861286441768e+00 +1.2623139494396116e-01 -7.0950007061930673e+00 -1.4213485844038993e+02 -1.1714708151377960e+05 -1.5613168007004907e+07 
+7.0999999999999899e+00 -5.9276152363050194e-01 +8.1223924149895694e+00 +1.2657966909970716e-01 -6.7915640794737362e+00 -1.7214364324618055e+02 -1.2011023602825722e+05 -1.5472259474321036e+07 
+7.1999999999999904e+00 -5.9276170274864215e-01 +8.1223969279166628e+00 +1.2711077191115611e-01 -6.4555125083039453e+00 -2.0819132082385067e+02 -1.2324323977792251e+05 -1.5297153307369543e+07 
+7.2999999999999901e+00 -5.9276188665019214e-01 +8.1223995646533709e+00 +1.2785477488500516e-01 -6.0869906426629372e+00 -2.5058122544939604e+02 -1.2653898250109506e+05 -1.5086623845200138e+07 
+7.3999999999999897e+00 -5.9276207604516895e-01 +8.1224002224205769e+00 +1.2884174539409032e-01 -5.6861430164242819e+00 -2.9961662611721238e+02 -1.2999035458938629e+05 -1.4839445727241572e+07 
+7.4999999999999902e+00 -5.9276227164357076e-01 +8.1223987984345030e+00 +1.3010175540769756e-01 -5.2531141329397304e+00 -3.5560089300309306e+02 -1.3359024654973252e+05 -1.4554393102933720e+07 
+7.5999999999999899e+00 -5.9276247415541861e-01 +8.1223951899021909e+00 +1.3166487510056679e-01 -4.7880483490526116e+00 -4.1883737504534776e+02 -1.3733154964319232e+05 -1.4230240214259377e+07 
+7.6999999999999904e+00 -5.9276268429065693e-01 +8.1223892940276397e+00 +1.3356117590175395e-01 -4.2910900340055411e+00 -4.8962945960438481e+02 -1.4120715502008100e+05 -1.3865761112022437e+07 
+7.7999999999999901e+00 -5.9276290275932575e-01 +8.1223810080042629e+00 +1.3582073329070493e-01 -3.7623833822401140e+00 -5.6828062500833039e+02 -1.4520995472423924e+05 -1.3459729406447841e+07 
+7.8999999999999897e+00 -5.9276313027127636e-01 +8.1223702290205519e+00 +1.3847361727229052e-01 -3.2020725441873847e+00 -6.5509426056896211e+02 -1.4933284104119265e+05 -1.3010919121586384e+07 
+7.9999999999999902e+00 -5.9276336753642578e-01 +8.1223568542546190e+00 +1.4154990212516247e-01 -2.6103015007344124e+00 -7.5037384978317129e+02 -1.5356870713980339e+05 -1.2518103833749034e+07 
+8.0999999999999908e+00 -5.9276361503572295e-01 +8.1223408243278588e+00 +1.4506471704241067e-01 -1.9877870809999381e+00 -8.5418695068425507e+02 -1.5790843677395949e+05 -1.1981136299541499e+07 
+8.1999999999999904e+00 -5.9276387233586980e-01 +8.1223222569164992e+00 +1.4897126582628858e-01 -1.3376647582540189e+00 -9.6563021648669610e+02 -1.6233370412002745e+05 -1.1404279485940512e+07 
+8.2999999999999901e+00 -5.9276413877546941e-01 +8.1223013148708532e+00 +1.5320672473072000e-01 -6.6370463507578881e-01 -1.0835503856177040e+03 -1.6682360091895933e+05 -1.0792926031675745e+07 
+8.3999999999999897e+00 -5.9276441369310695e-01 +8.1222781610611818e+00 +1.5770827142217994e-01 +3.0322562494153219e-02 -1.2067942189892542e+03 -1.7135721502131055e+05 -1.0152468503792891e+07 
+8.4999999999999893e+00 -5.9276469642748331e-01 +8.1222529583635232e+00 +1.6241309054800887e-01 +7.4064589532198710e-01 -1.3342086069798850e+03 -1.7591363282912647e+05 -9.4882988794436529e+06 
+8.5999999999999908e+00 -5.9276498631724794e-01 +8.1222258696676537e+00 +1.6725836685058901e-01 +1.4634939832999732e+00 -1.4646404328933595e+03 -1.8047193797591573e+05 -8.8058092101073191e+06 
+8.6999999999999904e+00 -5.9276528270117468e-01 +8.1221970578767451e+00 +1.7218129353909450e-01 +2.1950949879028454e+00 -1.5969367392718918e+03 -1.8501121114238707e+05 -8.1103908141775290e+06 
+8.7999999999999794e+00 -5.9276558491801301e-01 +8.1221666859043609e+00 +1.7711906356837598e-01 +2.9316767422109047e+00 -1.7299445546477345e+03 -1.8951053093298757e+05 -7.4074351180410124e+06 
+8.8999999999999808e+00 -5.9276589230657428e-01 +8.1221349166831320e+00 +1.8200888114701508e-01 +3.6694664627949964e+00 -1.8625111169529885e+03 -1.9394897209442663e+05 -6.7023325845221598e+06 
+8.9999999999999805e+00 -5.9276620420572301e-01 +8.1221019131516208e+00 +1.8678794928636067e-01 +4.4046911380292029e+00 -1.9934836346141915e+03 -1.9830560778026789e+05 -6.0004738536106348e+06 
+9.0999999999999801e+00 -5.9276651995434992e-01 +8.1220678382687357e+00 +1.9139347754307542e-01 +5.1335771134654227e+00 -2.1217094344514544e+03 -2.0255950715947995e+05 -5.3072490379260136e+06 
+9.1999999999999797e+00 -5.9276683889136850e-01 +8.1220328550049565e+00 +1.9576268140059977e-01 +5.8523503470338110e+00 -2.2460359471365459e+03 -2.0668973689114946e+05 -4.6280478011238687e+06 
+9.2999999999999794e+00 -5.9276716035579557e-01 +8.1219971263447466e+00 +1.9983278158832096e-01 +6.5572363295195917e+00 -2.3653106990698743e+03 -2.1067536062223825e+05 -3.9682593807372944e+06 
+9.3999999999999808e+00 -5.9276748368665999e-01 +8.1219608152883502e+00 +2.0354100285754242e-01 +7.2444600303297957e+00 -2.4783812812984734e+03 -2.1449543868279501e+05 -3.3332727603584840e+06 
+9.4999999999999805e+00 -5.9276780822304009e-01 +8.1219240848559018e+00 +2.0682457643955640e-01 +7.9102457882998705e+00 -2.5840954045738813e+03 -2.1812902745501729e+05 -2.7284763856741227e+06 
+9.5999999999999801e+00 -5.9276813330399936e-01 +8.1218870980723388e+00 +2.0962073760954883e-01 +8.5508177312941065e+00 -2.6813008451694664e+03 -2.2155518176841058e+05 -2.1592584415561240e+06 
+9.6999999999999797e+00 -5.9276845826881519e-01 +8.1218500179920401e+00 +2.1186673005755499e-01 +9.1623990845538525e+00 -2.7688455352933652e+03 -2.2475295093453015e+05 -1.6310064038627953e+06 
+9.7999999999999794e+00 -5.9276878245664599e-01 +8.1218130076759216e+00 +2.1349979979004713e-01 +9.7412128046864694e+00 -2.8455774381928727e+03 -2.2770138235220627e+05 -1.1491076596418710e+06 
+9.8999999999999808e+00 -5.9276910520680637e-01 +8.1217762302061391e+00 +2.1445720076012989e-01 +1.0283481170736984e+01 -2.9103446626331520e+03 -2.3037951915755798e+05 -7.1894893968289113e+05 
+9.9999999999999805e+00 -5.9276942585864167e-01 +8.1217398486799226e+00 +2.1467619383310602e-01 +1.0785425991399958e+01 -2.9619954348580804e+03 -2.3276640153034017e+05 -3.4591648236703797e+05 
+1.0100000000000000e+01 -5.9276974393170812e-01 +8.1217039922737975e+00 +2.1411450087974523e-01 +1.1244549270105054e+01 -2.9997215116296820e+03 -2.3484880805725665e+05 -3.3933407320096383e+04 
