# multipoles
# s[mm] polynom_b[n=0][T/m^n] polynom_b[n=1][T/m^n] polynom_b[n=2][T/m^n] polynom_b[n=3][T/m^n] polynom_b[n=4][T/m^n] polynom_b[n=5][T/m^n] polynom_b[n=6][T/m^n] 
+0.0000000000000000e+00 -5.9241254799044196e-01 +8.1139261454060598e+00 -2.4069979878211592e-01 -4.1272806656399027e+01 -3.4158969546215189e+03 -9.1385239371812040e+03 +1.3889411285382938e+07 
-1.0000000000000001e-01 -5.9241240004524998e-01 +8.1139192481982310e+00 -2.4851238600192005e-01 -4.0731869011097793e+01 -3.2535156590535885e+03 -1.2510063615709791e+04 +1.3148869333741486e+07 
-2.0000000000000001e-01 -5.9241224639364298e-01 +8.1139083462480297e+00 -2.5794416079618976e-01 -4.0091710065783062e+01 -3.0604172426663713e+03 -1.6384980578312148e+04 +1.2262356462911444e+07 
-3.0000000000000004e-01 -5.9241208738454276e-01 +8.1138937309298012e+00 -2.6886710902853811e-01 -3.9361480298292093e+01 -2.8393741543520014e+03 -2.0713044071927008e+04 +1.1243334872454956e+07 
-4.0000000000000002e-01 -5.9241192336688464e-01 +8.1138756936242213e+00 -2.8115321443188901e-01 -3.8550330388420299e+01 -2.5931588882336559e+03 -2.5444022063735014e+04 +1.0105266990583919e+07 
-5.0000000000000000e-01 -5.9241175468955420e-01 +8.1138545257113552e+00 -2.9467446627937055e-01 -3.7667410997083479e+01 -2.3245438387769691e+03 -3.0527682589948115e+04 +8.8616147867134064e+06 
-5.9999999999999998e-01 -5.9241158170143082e-01 +8.1138305185774566e+00 -3.0930285430468540e-01 -3.6721872949713557e+01 -2.0363013942002501e+03 -3.5913792735435032e+04 +7.5258402070646761e+06 
-6.9999999999999996e-01 -5.9241140475141174e-01 +8.1138039636078325e+00 -3.2491036545171348e-01 -3.5722867020544832e+01 -1.7312040001169632e+03 -4.1552119904798899e+04 +6.1114054802802661e+06 
-7.9999999999999993e-01 -5.9241122418837300e-01 +8.1137751521903141e+00 -3.4136898911530944e-01 -3.4679544024073095e+01 -1.4120240564877533e+03 -4.7392431332973145e+04 +4.6317726190882893e+06 
-8.9999999999999991e-01 -5.9241104036118597e-01 +8.1137443757159886e+00 -3.5855071461573429e-01 -3.3601054825969783e+01 -1.0815339676217300e+03 -5.3384494043876039e+04 +3.1004036608005925e+06 
-9.9999999999999989e-01 -5.9241085361873214e-01 +8.1137119255717352e+00 -3.7632752986873858e-01 -3.2496550123166152e+01 -7.4250616416508058e+02 -5.9478076142754588e+04 +1.5307607632041893e+06 
-1.0999999999999999e+00 -5.9241066430987888e-01 +8.1136780931496215e+00 -3.9457142376870225e-01 -3.1375180691589406e+01 -3.9771306058301144e+02 -6.5622945458812144e+04 -6.3693991825068719e+04 
-1.2000000000000000e+00 -5.9241047278351633e-01 +8.1136431698379301e+00 -4.1315438241276053e-01 -3.0246097137342652e+01 -4.9927120949484198e+01 -7.1768870951004836e+04 -1.6694983019355431e+06 
-1.3000000000000000e+00 -5.9241027938854196e-01 +8.1136074470256538e+00 -4.3194839014580655e-01 -2.9118449985146647e+01 +2.9807915511360716e+02 -7.7865622318522204e+04 -3.2731896966711469e+06 
-1.4000000000000001e+00 -5.9241008447383359e-01 +8.1135712160969593e+00 -4.5082543360005622e-01 -2.8001389549696025e+01 +6.4353331412907005e+02 -8.3862970664494031e+04 -4.8613059394534389e+06 
-1.5000000000000002e+00 -5.9240988838833308e-01 +8.1135347684379919e+00 -4.6965749102949705e-01 -2.6904066080762775e+01 +9.8366274704992088e+02 -8.9710687807071925e+04 -6.4203840727477940e+06 
-1.6000000000000003e+00 -5.9240969148095246e-01 +8.1134983954294526e+00 -4.8831654412270309e-01 -2.5835629568764936e+01 +1.3156949122809151e+03 -9.5358547339237586e+04 -7.9369614747843388e+06 
-1.7000000000000004e+00 -5.9240949410064236e-01 +8.1134623884497969e+00 -5.0667456893997631e-01 -2.4805229811663594e+01 +1.6368571634311536e+03 -1.0075632433190582e+05 -9.3975750428977832e+06 
-1.8000000000000005e+00 -5.9240929659637076e-01 +8.1134270388760878e+00 -5.2460353926188075e-01 -2.3822016433957774e+01 +1.9443768159031424e+03 -1.0585379523400085e+05 -1.0788761516629186e+07 
-1.9000000000000006e+00 -5.9240909931711483e-01 +8.1133926380745311e+00 -5.4197542764688778e-01 -2.2895138607202959e+01 +2.2354811691045938e+03 -1.1060073951678388e+05 -1.2097057591007739e+07 
-2.0000000000000004e+00 -5.9240890261190671e-01 +8.1133594774140221e+00 -5.5866219917210125e-01 -2.2033745419787095e+01 +2.5073973838727261e+03 -1.1494693759274234e+05 -1.3308999325130407e+07 
-2.1000000000000005e+00 -5.9240870682605873e-01 +8.1133278178152981e+00 -5.7455750945179229e-01 -2.1245416790134218e+01 +2.7579368194624531e+03 -1.1885199650269079e+05 -1.4414093814965786e+07 
-2.2000000000000006e+00 -5.9240851228421965e-01 +8.1132978090322965e+00 -5.8964220673456602e-01 -2.0531810032835480e+01 +2.9872436591190030e+03 -1.2231311649839455e+05 -1.5413684571511576e+07 
-2.3000000000000007e+00 -5.9240831930431259e-01 +8.1132695756472515e+00 -6.0391906843384069e-01 -1.9893188605908652e+01 +3.1960448831890544e+03 -1.2533647862415321e+05 -1.6312065117738103e+07 
-2.4000000000000008e+00 -5.9240812820432009e-01 +8.1132432422447014e+00 -6.1739086475976257e-01 -1.9329816052427638e+01 +3.3850673406520855e+03 -1.2792826337255222e+05 -1.7113528364477128e+07 
-2.5000000000000009e+00 -5.9240793930221891e-01 +8.1132189334077189e+00 -6.3006036745926819e-01 -1.8841955927403305e+01 +3.5550379181374055e+03 -1.3009465102548014e+05 -1.7822367422347631e+07 
-2.6000000000000010e+00 -5.9240775291601577e-01 +8.1131967737059778e+00 -6.4193034577058039e-01 -1.8429871463087707e+01 +3.7066834642309605e+03 -1.3184182355516969e+05 -1.8442875242077526e+07 
-2.7000000000000011e+00 -5.9240756936369998e-01 +8.1131768877149497e+00 -6.5300357146999477e-01 -1.8093826139901651e+01 +3.8407308823943013e+03 -1.3317596127246224e+05 -1.8979345050604746e+07 
-2.8000000000000012e+00 -5.9240738896331835e-01 +8.1131593999999865e+00 -6.6328281002734046e-01 -1.7834083203974124e+01 +3.9579069638486781e+03 -1.3410324569670483e+05 -1.9436069554676924e+07 
-2.9000000000000012e+00 -5.9240721203290669e-01 +8.1131444351239441e+00 -6.7277083019851402e-01 -1.7650905953220178e+01 +4.0589385787155884e+03 -1.3462985769870933e+05 -1.9817341875145212e+07 
-3.0000000000000013e+00 -5.9240703889053781e-01 +8.1131321176410065e+00 -6.8147039671686860e-01 -1.7544557536753079e+01 +4.1445525252549451e+03 -1.3476197874200178e+05 -2.0127454795569278e+07 
-3.1000000000000014e+00 -5.9240686985428248e-01 +8.1131225721038422e+00 -6.8938427608353081e-01 -1.7515301173502738e+01 +4.2154756488924904e+03 -1.3450578957557585e+05 -2.0370701351945058e+07 
-3.2000000000000015e+00 -5.9240670524223127e-01 +8.1131159230583929e+00 -6.9651523348687494e-01 -1.7563400043852919e+01 +4.2724347807691720e+03 -1.3386747074696628e+05 -2.0551374533149723e+07 
-3.3000000000000016e+00 -5.9240654537251392e-01 +8.1131122950445569e+00 -7.0286603127911285e-01 -1.7689117285490127e+01 +4.3161567116870019e+03 -1.3285320269524306e+05 -2.0673767160893805e+07 
-3.4000000000000017e+00 -5.9240639056324196e-01 +8.1131118125979018e+00 -7.0843943487117200e-01 -1.7892716072959796e+01 +4.3473683000660949e+03 -1.3146916520566354e+05 -2.0742172394290995e+07 
-3.5000000000000018e+00 -5.9240624113260421e-01 +8.1131146002473162e+00 -7.1323820271596050e-01 -1.8174459569123183e+01 +4.3667962899861423e+03 -1.2972153764019911e+05 -2.0760882883502055e+07 
-3.6000000000000019e+00 -5.9240609739873751e-01 +8.1131207825161180e+00 -7.1726510088415640e-01 -1.8534610964432591e+01 +4.3751675813465299e+03 -1.2761649868698241e+05 -2.0734192038552742e+07 
-3.7000000000000020e+00 -5.9240595967985055e-01 +8.1131304839173364e+00 -7.2052288852574375e-01 -1.8973433344502485e+01 +4.3732089564771013e+03 -1.2516022712273222e+05 -2.0666392731694091e+07 
-3.8000000000000020e+00 -5.9240582829415966e-01 +8.1131438289606983e+00 -7.2301432574664803e-01 -1.9491189913009627e+01 +4.3616472311808056e+03 -1.2235890046362998e+05 -2.0561778022847164e+07 
-3.9000000000000021e+00 -5.9240570355989453e-01 +8.1131609421518718e+00 -7.2474217347022230e-01 -2.0088143982956087e+01 +4.3412092536746841e+03 -1.1921869497544153e+05 -2.0424641154429965e+07 
-4.0000000000000018e+00 -5.9240558579530422e-01 +8.1131819479830547e+00 -7.2570919216827168e-01 -2.0764558723810204e+01 +4.3126218779717847e+03 -1.1574578710859476e+05 -2.0259275419554815e+07 
-4.1000000000000014e+00 -5.9240547549748068e-01 +8.1132068844725431e+00 -7.2592465424309383e-01 -2.1519063627786768e+01 +4.2766242171032636e+03 -1.1195296361700058e+05 -2.0069828699566536e+07 
-4.2000000000000011e+00 -5.9240537387510506e-01 +8.1132354474438664e+00 -7.2542207070169606e-01 -2.2343511882234196e+01 +4.2339698006277522e+03 -1.0788072200134314e+05 -1.9859735562927123e+07 
-4.3000000000000007e+00 -5.9240528231386280e-01 +8.1132672480198629e+00 -7.2424055925241015e-01 -2.3228001475964941e+01 +4.1854065642486830e+03 -1.0357679978310244e+05 -1.9632216530400224e+07 
-4.4000000000000004e+00 -5.9240520219938442e-01 +8.1133018973244742e+00 -7.2241924500118315e-01 -2.4162630533217648e+01 +4.1316825787820944e+03 -9.9088933506627334e+04 -1.9390492749359597e+07 
-4.5000000000000000e+00 -5.9240513491727764e-01 +8.1133390064867630e+00 -7.1999725531541081e-01 -2.5137497415462807e+01 +4.0735459430792334e+03 -9.4464858204944583e+04 -1.9137785455009628e+07 
-4.5999999999999996e+00 -5.9240508185309537e-01 +8.1133781866309391e+00 -7.1701372325552237e-01 -2.6142700446119065e+01 +4.0117448463709297e+03 -8.9752308990005724e+04 -1.8877316261124022e+07 
-4.6999999999999993e+00 -5.9240504439234154e-01 +8.1134190488891917e+00 -7.1350778793161207e-01 -2.7168338287466195e+01 +3.9470275803511227e+03 -8.4999018838213335e+04 -1.8612307229914874e+07 
-4.7999999999999989e+00 -5.9240502392048666e-01 +8.1134612043884715e+00 -7.0951859177310628e-01 -2.8204509545229353e+01 +3.8801424827053538e+03 -8.0252720945265668e+04 -1.8345980592866302e+07 
-4.8999999999999986e+00 -5.9240502182294275e-01 +8.1135042642618220e+00 -7.0508528354908817e-01 -2.9241313114854716e+01 +3.8118379904252984e+03 -7.5561146657901467e+04 -1.8081558990682770e+07 
-4.9999999999999982e+00 -5.9240503948505763e-01 +8.1135478396411589e+00 -7.0024701963501823e-01 -3.0268847961637118e+01 +3.7428626706640093e+03 -7.0972026788756848e+04 -1.7822265641354267e+07 
-5.0999999999999979e+00 -5.9240507829215383e-01 +8.1135915416659792e+00 -6.9504295848457120e-01 -3.1277213386179689e+01 +3.6739651064581608e+03 -6.6533090051842970e+04 -1.7571323768494356e+07 
-5.1999999999999975e+00 -5.9240513962947050e-01 +8.1136349814731616e+00 -6.8951226791826548e-01 -3.2256508717675288e+01 +3.6058940384491248e+03 -6.2292064873770352e+04 -1.7331957287476681e+07 
-5.2999999999999972e+00 -5.9240522488217606e-01 +8.1136777702042835e+00 -6.8369412377547267e-01 -3.3196833541378616e+01 +3.5393983376365677e+03 -5.8296678045480039e+04 -1.7107390668375619e+07 
-5.3999999999999968e+00 -5.9240533543540286e-01 +8.1137195190067342e+00 -6.7762770492960167e-01 -3.4088287724915226e+01 +3.4752269065286964e+03 -5.4594654578988309e+04 -1.6900848456611063e+07 
-5.4999999999999964e+00 -5.9240547267419164e-01 +8.1137598390251178e+00 -6.7135220106891536e-01 -3.4920971174439067e+01 +3.4141288326662097e+03 -5.1233719125878408e+04 -1.6715556017628081e+07 
-5.5999999999999961e+00 -5.9240563798352186e-01 +8.1137983414158299e+00 -6.6490680801752666e-01 -3.5684984252531962e+01 +3.3568532902121146e+03 -4.8261593571806487e+04 -1.6554739042296212e+07 
-5.6999999999999957e+00 -5.9240583274829195e-01 +8.1138346373328165e+00 -6.5833073052730395e-01 -3.6370427381555423e+01 +3.3041495978607113e+03 -4.5725999290239990e+04 -1.6421623837254772e+07 
-5.7999999999999954e+00 -5.9240605835334614e-01 +8.1138683379374079e+00 -6.5166317872340573e-01 -3.6967401311226496e+01 +3.2567671482208111e+03 -4.3674655649312168e+04 -1.6319436979726428e+07 
-5.8999999999999950e+00 -5.9240631618342143e-01 +8.1138990543923164e+00 -6.4494337449696049e-01 -3.7466006965248120e+01 +3.2154555263229599e+03 -4.2155280860025792e+04 -1.6251405873497328e+07 
-5.9999999999999947e+00 -5.9240660762317876e-01 +8.1139263978697347e+00 -6.3821054797738908e-01 -3.7856345664835267e+01 +3.1809644443485345e+03 -4.1215590735094287e+04 -1.6220758445273560e+07 
-6.0999999999999943e+00 -5.9240693333748984e-01 +8.1139500555784920e+00 -6.3150138577689607e-01 -3.8130880594924292e+01 +3.1538194493644146e+03 -4.0891062467456133e+04 -1.6229502854276046e+07 
-6.1999999999999940e+00 -5.9240729113087909e-01 +8.1139699768239044e+00 -6.2484261888446335e-01 -3.8290843762395710e+01 +3.1336883443569295e+03 -4.1170901224282956e+04 -1.6274987055965032e+07 
-6.2999999999999936e+00 -5.9240767809749706e-01 +8.1139861661066668e+00 -6.1825843305025530e-01 -3.8339497805093060e+01 +3.1200323993795273e+03 -4.2033382302577753e+04 -1.6353441211747406e+07 
-6.3999999999999932e+00 -5.9240809133154904e-01 +8.1139986279348033e+00 -6.1177300469534834e-01 -3.8280105220351807e+01 +3.1123126972930045e+03 -4.3456782747293262e+04 -1.6461094571824741e+07 
-6.4999999999999929e+00 -5.9240852792718790e-01 +8.1140073668376118e+00 -6.0541051503102483e-01 -3.8115928748585233e+01 +3.1099904052508937e+03 -4.5419379127080887e+04 -1.6594176778026801e+07 
-6.5999999999999925e+00 -5.9240898497860794e-01 +8.1140123873522985e+00 -5.9919513715179351e-01 -3.7850230942759865e+01 +3.1125265220609044e+03 -4.7899450145123781e+04 -1.6748916643049845e+07 
-6.6999999999999922e+00 -5.9240945957995828e-01 +8.1140136940321632e+00 -5.9315104724711509e-01 -3.7486274409730306e+01 +3.1193820933893217e+03 -5.0875275219444084e+04 -1.6921543179896951e+07 
-6.7999999999999918e+00 -5.9240994882542553e-01 +8.1140112914437807e+00 -5.8730241482999024e-01 -3.7027321708288795e+01 +3.1300180322585175e+03 -5.4325135123910586e+04 -1.7108284765961297e+07 
-6.8999999999999915e+00 -5.9241044980916668e-01 +8.1140051841692351e+00 -5.8167340975691395e-01 -3.6476635377915123e+01 +3.1438952425209764e+03 -5.8227311915978520e+04 -1.7305369704812579e+07 
-6.9999999999999911e+00 -5.9241095962536150e-01 +8.1139953768071944e+00 -5.7628819650331264e-01 -3.5837477992470362e+01 +3.1604745153904796e+03 -6.2560088552544781e+04 -1.7509025746236149e+07 
-7.0999999999999908e+00 -5.9241147536817684e-01 +8.1139818739701539e+00 -5.7117093858414414e-01 -3.5113112021856573e+01 +3.1792166144572006e+03 -6.7301749854043199e+04 -1.7715480496598084e+07 
-7.1999999999999904e+00 -5.9241199413180234e-01 +8.1139646802873493e+00 -5.6634579313716160e-01 -3.4306799910577077e+01 +3.1995821661302261e+03 -7.2430582052539787e+04 -1.7920960877848405e+07 
-7.2999999999999901e+00 -5.9241251301038877e-01 +8.1139438004073217e+00 -5.6183691943833103e-01 -3.3421804149790646e+01 +3.2210318283710535e+03 -7.7924872374018145e+04 -1.8121693952200204e+07 
-7.3999999999999897e+00 -5.9241302909814120e-01 +8.1139192389941375e+00 -5.5766846715642693e-01 -3.2461387135037477e+01 +3.2430260668736896e+03 -8.3762909951663474e+04 -1.8313905853795711e+07 
-7.4999999999999893e+00 -5.9241353948921904e-01 +8.1138910007300638e+00 -5.5386458763442536e-01 -3.1428811239424707e+01 +3.2650253598310642e+03 -8.9922985398633173e+04 -1.8493822738157555e+07 
-7.5999999999999890e+00 -5.9241404127783692e-01 +8.1138590903167458e+00 -5.5044942291946009e-01 -3.0327338807382556e+01 +3.2864900031616789e+03 -9.6383390960894656e+04 -1.8657669892583579e+07 
-7.6999999999999886e+00 -5.9241453155816659e-01 +8.1138235124733047e+00 -5.4744711657163936e-01 -2.9160232106851314e+01 +3.3068803069449614e+03 -1.0312242075921176e+05 -1.8801672648585577e+07 
-7.7999999999999883e+00 -5.9241500742441411e-01 +8.1137842719415154e+00 -5.4488180417729837e-01 -2.7930753459577009e+01 +3.3256564135271060e+03 -1.1011837008045254e+05 -1.8922055510576431e+07 
-7.8999999999999879e+00 -5.9241546597079398e-01 +8.1137413734784722e+00 -5.4277761713360551e-01 -2.6642164986699353e+01 +3.3422783774811260e+03 -1.1734953696828627e+05 -1.9015042560052846e+07 
-7.9999999999999876e+00 -5.9241590429150426e-01 +8.1136948218656872e+00 -5.4115868496133668e-01 -2.5297728861098438e+01 +3.3562062059453665e+03 -1.2479422061641836e+05 -1.9076857625501353e+07 
-8.0999999999999872e+00 -5.9241632012271705e-01 +8.1136446883534745e+00 -5.4003471974815698e-01 -2.3901258047557114e+01 +3.3669373163441933e+03 -1.3242985130784454e+05 -1.9104405796453003e+07 
-8.1999999999999869e+00 -5.9241671376067673e-01 +8.1135913549650081e+00 -5.3936280871359987e-01 -2.2460134709824580e+01 +3.3741810158422581e+03 -1.4022364963893133e+05 -1.9097524291100573e+07 
-8.2999999999999865e+00 -5.9241708613982491e-01 +8.1135352928340190e+00 -5.3908827964102202e-01 -2.0982970086888184e+01 +3.3777193836699912e+03 -1.4813864032223387e+05 -1.9056856016132638e+07 
-8.3999999999999861e+00 -5.9241743819468162e-01 +8.1134769730800329e+00 -5.3915645540757984e-01 -1.9478375266546848e+01 +3.3773344493016380e+03 -1.5613784797672805e+05 -1.8983043744564578e+07 
-8.4999999999999858e+00 -5.9241777085986369e-01 +8.1134168667984223e+00 -5.3951265229156242e-01 -1.7954960901824229e+01 +3.3728081627434444e+03 -1.6418429866410187e+05 -1.8876729988674365e+07 
-8.5999999999999854e+00 -5.9241808507007110e-01 +8.1133554450599714e+00 -5.4010218084284112e-01 -1.6421337236607044e+01 +3.3639224094682818e+03 -1.7224101961503015e+05 -1.8738557068703759e+07 
-8.6999999999999851e+00 -5.9241838176011818e-01 +8.1132931789160256e+00 -5.4087034269323242e-01 -1.4886114239132803e+01 +3.3504589496727190e+03 -1.8027103849422288e+05 -1.8569166819360700e+07 
-8.7999999999999847e+00 -5.9241866186488212e-01 +8.1132305393960920e+00 -5.4176243723586015e-01 -1.3357901569558395e+01 +3.3321995527538365e+03 -1.8823738347490088e+05 -1.8369201254262999e+07 
-8.8999999999999844e+00 -5.9241892631939108e-01 +8.1131679975019058e+00 -5.4272375068423762e-01 -1.1845308395446150e+01 +3.3089257853047056e+03 -1.9610308433428683e+05 -1.8139301542342663e+07 
-8.9999999999999840e+00 -5.9241917605873728e-01 +8.1131060242111399e+00 -5.4369956696105937e-01 -1.0356943527732451e+01 +3.2804192219416459e+03 -2.0383117157223399e+05 -1.7880109023283496e+07 
-9.0999999999999837e+00 -5.9241941201814585e-01 +8.1130450904780496e+00 -5.4463515949852748e-01 -8.9014154411742599e+00 +3.2464612898825621e+03 -2.1138467628501295e+05 -1.7592264468064953e+07 
-9.1999999999999833e+00 -5.9241963513292917e-01 +8.1129856672278162e+00 -5.4547579711480709e-01 -7.4873321227966398e+00 +3.2068333850703493e+03 -2.1872663099295195e+05 -1.7276408643834669e+07 
-9.2999999999999829e+00 -5.9241984633854683e-01 +8.1129282253608128e+00 -5.4616673636006352e-01 -6.1233012220485081e+00 +3.1613167225402772e+03 -2.2582006868726228e+05 -1.6933181589390229e+07 
-9.3999999999999826e+00 -5.9242004657052283e-01 +8.1128732357499604e+00 -5.4665323203026717e-01 -4.8179299623050058e+00 +3.1096925412014007e+03 -2.3262802337138777e+05 -1.6563223605125513e+07 
-9.4999999999999822e+00 -5.9242023676456523e-01 +8.1128211692348611e+00 -5.4688052348984173e-01 -3.5798249992905942e+00 +3.0517418488907101e+03 -2.3911353078890464e+05 -1.6167174049604662e+07 
-9.5999999999999819e+00 -5.9242041785645305e-01 +8.1127724966302690e+00 -5.4679384749645266e-01 -2.4175926681120647e+00 +2.9872456610906079e+03 -2.4523962697877974e+05 -1.5745672465066312e+07 
-9.6999999999999815e+00 -5.9242059078212050e-01 +8.1127276887217405e+00 -5.4633842830435086e-01 -1.3398388754289408e+00 +2.9159848157507313e+03 -2.5096934883499864e+05 -1.5299357701716591e+07 
-9.7999999999999812e+00 -5.9242075647759607e-01 +8.1126872162578128e+00 -5.4545948599180094e-01 -3.5516887856089041e-01 +2.8377401371941037e+03 -2.5626573536722994e+05 -1.4828868714446960e+07 
-9.8999999999999808e+00 -5.9242091587908252e-01 +8.1126515499608534e+00 -5.4410222606627534e-01 +5.2781237821974369e-01 +2.7522922343272571e+03 -2.6109182568309578e+05 -1.4334843588652872e+07 
-9.9999999999999805e+00 -5.9242106992288823e-01 +8.1126211605215772e+00 -5.4221184869785111e-01 +1.3005003080862310e+00 +2.6594216677177665e+03 -2.6541065909290191e+05 -1.3817920317548035e+07 
-1.0099999999999980e+01 -5.9242121954564275e-01 +8.1125963890064270e+00 -5.3975743104912410e-01 +1.9560732340257234e+00 +2.5591930988058630e+03 -2.6919084071741858e+05 -1.3279603721488371e+07 
