# field on trajectory
# s[mm] rx[mm] ry[mm] rz[mm] bx[T] by[T] bz[T]
0.0000000000000000e+00 +8.1649999999999991e+00 +0.0000000000000000e+00 +0.0000000000000000e+00 -3.1451101134972535e-02 -5.9267427577660470e-01 +5.9327834197560646e-03
1.0000000000000001e-01 +8.1649997168280368e+00 +0.0000000000000000e+00 +9.9999999999465433e-02 -3.1451119537318370e-02 -5.9267431557406702e-01 +5.9327099981611045e-03
2.0000000000000001e-01 +8.1649988673121250e+00 +0.0000000000000000e+00 +1.9999999999572338e-01 -3.1451132919555286e-02 -5.9267436107938354e-01 +5.9326367427283309e-03
3.0000000000000004e-01 +8.1649974514522192e+00 +0.0000000000000000e+00 +2.9999999998556642e-01 -3.1451142213995406e-02 -5.9267441195612991e-01 +5.9325638366411592e-03
4.0000000000000002e-01 +8.1649954692482716e+00 +0.0000000000000000e+00 +3.9999999996578711e-01 -3.1451148352946393e-02 -5.9267446786786993e-01 +5.9324914630833406e-03
5.0000000000000000e-01 +8.1649929207002270e+00 +0.0000000000000000e+00 +4.9999999993317801e-01 -3.1451152268712305e-02 -5.9267452847815583e-01 +5.9324198052392516e-03
5.9999999999999998e-01 +8.1649898058080304e+00 +0.0000000000000000e+00 +5.9999999988453157e-01 -3.1451154893594499e-02 -5.9267459345053009e-01 +5.9323490462941516e-03
6.9999999999999996e-01 +8.1649861245716178e+00 +0.0000000000000000e+00 +6.9999999981664041e-01 -3.1451157159892329e-02 -5.9267466244852429e-01 +5.9322793694344522e-03
7.9999999999999993e-01 +8.1649818769909235e+00 +0.0000000000000000e+00 +7.9999999972629698e-01 -3.1451159999904152e-02 -5.9267473513566127e-01 +5.9322109578480026e-03
8.9999999999999991e-01 +8.1649770630658800e+00 +0.0000000000000000e+00 +8.9999999961029398e-01 -3.1451164345927984e-02 -5.9267481117545584e-01 +5.9321439947243445e-03
9.9999999999999989e-01 +8.1649716827964127e+00 +0.0000000000000000e+00 +9.9999999946542384e-01 -3.1451171130262495e-02 -5.9267489023141373e-01 +5.9320786632549843e-03
1.0999999999999999e+00 +8.1649657361824470e+00 +0.0000000000000000e+00 +1.0999999992884790e+00 -3.1451181285207762e-02 -5.9267497196703522e-01 +5.9320151466336754e-03
1.2000000000000000e+00 +8.1649592232239065e+00 +0.0000000000000000e+00 +1.1999999990762522e+00 -3.1451195743066145e-02 -5.9267505604581250e-01 +5.9319536280566737e-03
1.3000000000000000e+00 +8.1649521439207096e+00 +0.0000000000000000e+00 +1.2999999988255360e+00 -3.1451215436143029e-02 -5.9267514213123251e-01 +5.9318942907230100e-03
1.4000000000000001e+00 +8.1649444982727744e+00 +0.0000000000000000e+00 +1.3999999985331226e+00 -3.1451241296747798e-02 -5.9267522988677790e-01 +5.9318373178347747e-03
1.5000000000000002e+00 +8.1649362862800174e+00 +0.0000000000000000e+00 +1.4999999981958048e+00 -3.1451274257194579e-02 -5.9267531897592496e-01 +5.9317828925973641e-03
1.6000000000000003e+00 +8.1649275079423536e+00 +0.0000000000000000e+00 +1.5999999978103749e+00 -3.1451315249803109e-02 -5.9267540906214811e-01 +5.9317311982197739e-03
1.7000000000000004e+00 +8.1649181632596974e+00 +0.0000000000000000e+00 +1.6999999973736257e+00 -3.1451365206899562e-02 -5.9267549980891743e-01 +5.9316824179148596e-03
1.8000000000000005e+00 +8.1649082522319620e+00 +0.0000000000000000e+00 +1.7999999968823497e+00 -3.1451425060817384e-02 -5.9267559087970134e-01 +5.9316367348995949e-03
1.9000000000000006e+00 +8.1648977748590603e+00 +0.0000000000000000e+00 +1.8999999963333394e+00 -3.1451495743898120e-02 -5.9267568193796571e-01 +5.9315943323953648e-03
2.0000000000000004e+00 +8.1648867311409070e+00 +0.0000000000000000e+00 +1.9999999957233872e+00 -3.1451578188492306e-02 -5.9267577264717664e-01 +5.9315553936282175e-03
2.1000000000000005e+00 +8.1648751210774151e+00 +0.0000000000000000e+00 +2.0999999950492856e+00 -3.1451672944936053e-02 -5.9267586276523065e-01 +5.9315200382552636e-03
2.2000000000000006e+00 +8.1648629446684993e+00 +0.0000000000000000e+00 +2.1999999943078272e+00 -3.1451779035471701e-02 -5.9267595242775717e-01 +5.9314881316410734e-03
2.3000000000000007e+00 +8.1648502019140743e+00 +0.0000000000000000e+00 +2.2999999934958044e+00 -3.1451895100306645e-02 -5.9267604186481659e-01 +5.9314594755754957e-03
2.4000000000000008e+00 +8.1648368928140549e+00 +0.0000000000000000e+00 +2.3999999926100100e+00 -3.1452019779634015e-02 -5.9267613130646890e-01 +5.9314338718465393e-03
2.5000000000000009e+00 +8.1648230173683558e+00 +0.0000000000000000e+00 +2.4999999916472362e+00 -3.1452151713630867e-02 -5.9267622098277495e-01 +5.9314111222399067e-03
2.6000000000000010e+00 +8.1648085755768918e+00 +0.0000000000000000e+00 +2.5999999906042759e+00 -3.1452289542456352e-02 -5.9267631112379549e-01 +5.9313910285384826e-03
2.7000000000000011e+00 +8.1647935674395757e+00 +0.0000000000000000e+00 +2.6999999894779214e+00 -3.1452431906249863e-02 -5.9267640195959215e-01 +5.9313733925218763e-03
2.8000000000000012e+00 +8.1647779929563242e+00 +0.0000000000000000e+00 +2.7999999882649651e+00 -3.1452577445129290e-02 -5.9267649372022879e-01 +5.9313580159659042e-03
2.9000000000000012e+00 +8.1647618521270484e+00 +0.0000000000000000e+00 +2.8999999869621997e+00 -3.1452724799189140e-02 -5.9267658663577105e-01 +5.9313447006421275e-03
3.0000000000000013e+00 +8.1647451449516595e+00 +0.0000000000000000e+00 +2.9999999855664177e+00 -3.1452872608498758e-02 -5.9267668093628689e-01 +5.9313332483173428e-03
3.1000000000000014e+00 +8.1647278714300686e+00 +0.0000000000000000e+00 +3.0999999840744112e+00 -3.1453019513100464e-02 -5.9267677685184694e-01 +5.9313234607531115e-03
3.2000000000000015e+00 +8.1647100315621852e+00 +0.0000000000000000e+00 +3.1999999824829732e+00 -3.1453164153007793e-02 -5.9267687461252561e-01 +5.9313151397052634e-03
3.3000000000000016e+00 +8.1646916253479151e+00 +0.0000000000000000e+00 +3.2999999807888960e+00 -3.1453305168203625e-02 -5.9267697444840184e-01 +5.9313080869234187e-03
3.4000000000000017e+00 +8.1646726527871643e+00 +0.0000000000000000e+00 +3.3999999789889719e+00 -3.1453441198638410e-02 -5.9267707658955759e-01 +5.9313021041504819e-03
3.5000000000000018e+00 +8.1646531138798348e+00 +0.0000000000000000e+00 +3.4999999770799937e+00 -3.1453570884228330e-02 -5.9267718126608060e-01 +5.9312969931221773e-03
3.6000000000000019e+00 +8.1646330086258292e+00 +0.0000000000000000e+00 +3.5999999750587537e+00 -3.1453692864853486e-02 -5.9267728870806435e-01 +5.9312925555665428e-03
3.7000000000000020e+00 +8.1646123370250443e+00 +0.0000000000000000e+00 +3.6999999729220447e+00 -3.1453805780356059e-02 -5.9267739914560691e-01 +5.9312885932034575e-03
3.8000000000000020e+00 +8.1645910990773753e+00 +0.0000000000000000e+00 +3.7999999706666587e+00 -3.1453908270538573e-02 -5.9267751280881387e-01 +5.9312849077441483e-03
3.9000000000000021e+00 +8.1645692947827140e+00 +0.0000000000000000e+00 +3.8999999682893889e+00 -3.1453998975161955e-02 -5.9267762992779671e-01 +5.9312813008906918e-03
4.0000000000000018e+00 +8.1645469241409483e+00 +0.0000000000000000e+00 +3.9999999657870271e+00 -3.1454076533943859e-02 -5.9267775073267459e-01 +5.9312775743355509e-03
4.1000000000000014e+00 +8.1645239871519646e+00 +0.0000000000000000e+00 +4.0999999631563657e+00 -3.1454139917617613e-02 -5.9267787541586048e-01 +5.9312735926578090e-03
4.2000000000000011e+00 +8.1645004838156456e+00 +0.0000000000000000e+00 +4.1999999603941980e+00 -3.1454189421145494e-02 -5.9267800401892168e-01 +5.9312694720182772e-03
4.3000000000000007e+00 +8.1644764141318671e+00 +0.0000000000000000e+00 +4.2999999574973158e+00 -3.1454225670590981e-02 -5.9267813654573509e-01 +5.9312653914780685e-03
4.4000000000000004e+00 +8.1644517781005046e+00 +0.0000000000000000e+00 +4.3999999544625119e+00 -3.1454249292068387e-02 -5.9267827300020492e-01 +5.9312615301034093e-03
4.5000000000000000e+00 +8.1644265757214267e+00 +0.0000000000000000e+00 +4.4999999512865783e+00 -3.1454260911746759e-02 -5.9267841338626215e-01 +5.9312580669660621e-03
4.5999999999999996e+00 +8.1644008069945020e+00 +0.0000000000000000e+00 +4.5999999479663085e+00 -3.1454261155853758e-02 -5.9267855770786704e-01 +5.9312551811437856e-03
4.6999999999999993e+00 +8.1643744719195936e+00 +0.0000000000000000e+00 +4.6999999444984937e+00 -3.1454250650679340e-02 -5.9267870596901129e-01 +5.9312530517207553e-03
4.7999999999999989e+00 +8.1643475704965596e+00 +0.0000000000000000e+00 +4.7999999408799274e+00 -3.1454230022579750e-02 -5.9267885817371779e-01 +5.9312518577880136e-03
4.8999999999999986e+00 +8.1643201027252541e+00 +0.0000000000000000e+00 +4.8999999371074017e+00 -3.1454199897981171e-02 -5.9267901432604397e-01 +5.9312517784439129e-03
4.9999999999999982e+00 +8.1642920686055316e+00 +0.0000000000000000e+00 +4.9999999331777083e+00 -3.1454160903383668e-02 -5.9267917443008145e-01 +5.9312529927945373e-03
5.0999999999999979e+00 +8.1642634681372375e+00 +0.0000000000000000e+00 +5.0999999290876410e+00 -3.1454113665364943e-02 -5.9267933848995880e-01 +5.9312556799541536e-03
5.1999999999999975e+00 +8.1642343013202172e+00 +0.0000000000000000e+00 +5.1999999248339908e+00 -3.1454058810584183e-02 -5.9267950650984191e-01 +5.9312600190456546e-03
5.2999999999999972e+00 +8.1642045681543109e+00 +0.0000000000000000e+00 +5.2999999204135513e+00 -3.1453996965785873e-02 -5.9267967849393610e-01 +5.9312661892009840e-03
5.3999999999999968e+00 +8.1641742686393570e+00 +0.0000000000000000e+00 +5.3999999158231144e+00 -3.1453928757803604e-02 -5.9267985444648807e-01 +5.9312743695615934e-03
5.4999999999999964e+00 +8.1641434027751867e+00 +0.0000000000000000e+00 +5.4999999110594731e+00 -3.1453854813563921e-02 -5.9268003437178585e-01 +5.9312847392788580e-03
5.5999999999999961e+00 +8.1641119705616276e+00 +0.0000000000000000e+00 +5.5999999061194190e+00 -3.1453775760090105e-02 -5.9268021827416151e-01 +5.9312974775145395e-03
5.6999999999999957e+00 +8.1640799719985075e+00 +0.0000000000000000e+00 +5.6999999009997451e+00 -3.1453692224506002e-02 -5.9268040615799189e-01 +5.9313127634412011e-03
5.7999999999999954e+00 +8.1640474070856470e+00 +0.0000000000000000e+00 +5.7999998956972432e+00 -3.1453604834039882e-02 -5.9268059802770046e-01 +5.9313307762426676e-03
5.8999999999999950e+00 +8.1640142758228631e+00 +0.0000000000000000e+00 +5.8999998902087061e+00 -3.1453514216028156e-02 -5.9268079388775863e-01 +5.9313516951144491e-03
5.9999999999999947e+00 +8.1639805782099693e+00 +0.0000000000000000e+00 +5.9999998845309266e+00 -3.1453420997919333e-02 -5.9268099374268723e-01 +5.9313756992641865e-03
6.0999999999999943e+00 +8.1639463142467772e+00 +0.0000000000000000e+00 +6.0999998786606966e+00 -3.1453325860927694e-02 -5.9268119751231096e-01 +5.9314029242960361e-03
6.1999999999999940e+00 +8.1639114839330933e+00 +0.0000000000000000e+00 +6.1999998725948089e+00 -3.1453229700927551e-02 -5.9268140477749787e-01 +5.9314333313567596e-03
6.2999999999999936e+00 +8.1638760872687186e+00 +0.0000000000000000e+00 +6.2999998663300554e+00 -3.1453133467397837e-02 -5.9268161503436201e-01 +5.9314668379744978e-03
6.3999999999999932e+00 +8.1638401242534560e+00 +0.0000000000000000e+00 +6.3999998598632288e+00 -3.1453038109753292e-02 -5.9268182777900336e-01 +5.9315033616734979e-03
6.4999999999999929e+00 +8.1638035948871011e+00 +0.0000000000000000e+00 +6.4999998531911221e+00 -3.1452944577341151e-02 -5.9268204250750656e-01 +5.9315428199738836e-03
6.5999999999999925e+00 +8.1637664991694514e+00 +0.0000000000000000e+00 +6.5999998463105269e+00 -3.1452853819437410e-02 -5.9268225871594016e-01 +5.9315851303913952e-03
6.6999999999999922e+00 +8.1637288371003010e+00 +0.0000000000000000e+00 +6.6999998392182354e+00 -3.1452766785243377e-02 -5.9268247590035517e-01 +5.9316302104371645e-03
6.7999999999999918e+00 +8.1636906086794436e+00 +0.0000000000000000e+00 +6.7999998319110411e+00 -3.1452684423882132e-02 -5.9268269355678349e-01 +5.9316779776174408e-03
6.8999999999999915e+00 +8.1636518139066734e+00 +0.0000000000000000e+00 +6.8999998243857350e+00 -3.1452607684394916e-02 -5.9268291118123750e-01 +5.9317283494333805e-03
6.9999999999999911e+00 +8.1636124527817824e+00 +0.0000000000000000e+00 +6.9999998166391100e+00 -3.1452537515737698e-02 -5.9268312826970793e-01 +5.9317812433807822e-03
7.0999999999999908e+00 +8.1635725253045646e+00 +0.0000000000000000e+00 +7.0999998086679588e+00 -3.1452474866777512e-02 -5.9268334431816327e-01 +5.9318365769498432e-03
7.1999999999999904e+00 +8.1635320314748157e+00 +0.0000000000000000e+00 +7.1999998004690733e+00 -3.1452420686288972e-02 -5.9268355882254831e-01 +5.9318942676249205e-03
7.2999999999999901e+00 +8.1634909712923314e+00 +0.0000000000000000e+00 +7.2999997920392463e+00 -3.1452375922950762e-02 -5.9268377127878302e-01 +5.9319542328842862e-03
7.3999999999999897e+00 +8.1634493447569110e+00 +0.0000000000000000e+00 +7.3999997833752698e+00 -3.1452341525342022e-02 -5.9268398118276122e-01 +5.9320163901998802e-03
7.4999999999999893e+00 +8.1634071518683538e+00 +0.0000000000000000e+00 +7.4999997744739364e+00 -3.1452318441938833e-02 -5.9268418803034928e-01 +5.9320806570370664e-03
7.5999999999999890e+00 +8.1633643926264643e+00 +0.0000000000000000e+00 +7.5999997653320381e+00 -3.1452307621110696e-02 -5.9268439131738504e-01 +5.9321469508543893e-03
7.6999999999999886e+00 +8.1633210670310508e+00 +0.0000000000000000e+00 +7.6999997559463678e+00 -3.1452310011116938e-02 -5.9268459053967693e-01 +5.9322151891033296e-03
7.7999999999999883e+00 +8.1632771750819231e+00 +0.0000000000000000e+00 +7.7999997463137181e+00 -3.1452326560103230e-02 -5.9268478519300183e-01 +5.9322852892280597e-03
7.8999999999999879e+00 +8.1632327167788965e+00 +0.0000000000000000e+00 +7.8999997364308800e+00 -3.1452358216097959e-02 -5.9268497477310511e-01 +5.9323571686651991e-03
7.9999999999999876e+00 +8.1631876921217916e+00 +0.0000000000000000e+00 +7.9999997262946474e+00 -3.1452405927008750e-02 -5.9268515877569761e-01 +5.9324307448435677e-03
8.0999999999999872e+00 +8.1631421011104344e+00 +0.0000000000000000e+00 +8.0999997159018111e+00 -3.1452470197907645e-02 -5.9268533701143833e-01 +5.9325059497469194e-03
8.1999999999999869e+00 +8.1630959437446542e+00 +0.0000000000000000e+00 +8.1999997052491640e+00 -3.1452549762941262e-02 -5.9268551055088259e-01 +5.9325827736073974e-03
8.2999999999999865e+00 +8.1630492200242877e+00 +0.0000000000000000e+00 +8.2999996943334988e+00 -3.1452642913579451e-02 -5.9268568077952111e-01 +5.9326612212238696e-03
8.3999999999999861e+00 +8.1630019299491750e+00 +0.0000000000000000e+00 +8.3999996831516093e+00 -3.1452747941351236e-02 -5.9268584908278976e-01 +5.9327412973999346e-03
8.4999999999999858e+00 +8.1629540735191544e+00 +0.0000000000000000e+00 +8.4999996717002855e+00 -3.1452863137847051e-02 -5.9268601684606925e-01 +5.9328230069440767e-03
8.5999999999999854e+00 +8.1629056507340696e+00 +0.0000000000000000e+00 +8.5999996599763211e+00 -3.1452986794720812e-02 -5.9268618545468044e-01 +5.9329063546698134e-03
8.6999999999999851e+00 +8.1628566615937590e+00 +0.0000000000000000e+00 +8.6999996479765080e+00 -3.1453117203692170e-02 -5.9268635629388666e-01 +5.9329913453958450e-03
8.7999999999999847e+00 +8.1628071060980609e+00 +0.0000000000000000e+00 +8.7999996356976382e+00 -3.1453252656548664e-02 -5.9268653074888888e-01 +5.9330779839462250e-03
8.8999999999999844e+00 +8.1627569842468102e+00 +0.0000000000000000e+00 +8.8999996231365035e+00 -3.1453391445147895e-02 -5.9268671020482500e-01 +5.9331662751504859e-03
8.9999999999999840e+00 +8.1627062960398380e+00 +0.0000000000000000e+00 +8.9999996102898976e+00 -3.1453531861419699e-02 -5.9268689604676861e-01 +5.9332562238438129e-03
9.0999999999999837e+00 +8.1626550414769667e+00 +0.0000000000000000e+00 +9.0999995971546124e+00 -3.1453672197368346e-02 -5.9268708965972683e-01 +5.9333478348671878e-03
9.1999999999999833e+00 +8.1626032205580135e+00 +0.0000000000000000e+00 +9.1999995837274398e+00 -3.1453810745074702e-02 -5.9268729242863782e-01 +5.9334411130675486e-03
9.2999999999999829e+00 +8.1625508332827863e+00 +0.0000000000000000e+00 +9.2999995700051716e+00 -3.1453945796698406e-02 -5.9268750573837170e-01 +5.9335360632979247e-03
9.3999999999999826e+00 +8.1624978796510828e+00 +0.0000000000000000e+00 +9.3999995559846017e+00 -3.1454075644480065e-02 -5.9268773097372462e-01 +5.9336326904176158e-03
9.4999999999999822e+00 +8.1624443596626897e+00 +0.0000000000000000e+00 +9.4999995416625218e+00 -3.1454198580743463e-02 -5.9268796951942215e-01 +5.9337309992923233e-03
9.5999999999999819e+00 +8.1623902733173797e+00 +0.0000000000000000e+00 +9.5999995270357239e+00 -3.1454312897897650e-02 -5.9268822276011279e-01 +5.9338309947943096e-03
9.6999999999999815e+00 +8.1623356206149129e+00 +0.0000000000000000e+00 +9.6999995121009999e+00 -3.1454416888439217e-02 -5.9268849208036944e-01 +5.9339326818025505e-03
9.7999999999999812e+00 +8.1622804015550336e+00 +0.0000000000000000e+00 +9.7999994968551416e+00 -3.1454508844954432e-02 -5.9268877886468641e-01 +5.9340360652028884e-03
9.8999999999999808e+00 +8.1622246161374701e+00 +0.0000000000000000e+00 +9.8999994812949428e+00 -3.1454587060121497e-02 -5.9268908449747804e-01 +5.9341411498881908e-03
9.9999999999999805e+00 +8.1621682643619309e+00 +0.0000000000000000e+00 +9.9999994654171953e+00 -3.1454649826712554e-02 -5.9268941036307610e-01 +5.9342479407584843e-03
1.0099999999999980e+01 +8.1621113462281070e+00 +0.0000000000000000e+00 +1.0099999449218691e+01 -3.1454695994666555e-02 -5.9268975746073771e-01 +5.9343564225001312e-03
1.0199999999999980e+01 +8.1620538617356679e+00 +0.0000000000000000e+00 +1.0199999432696222e+01 -3.1454726642285075e-02 -5.9269012524967102e-01 +5.9344664989134481e-03
1.0299999999999979e+01 +8.1619958108842656e+00 +0.0000000000000000e+00 +1.0299999415846580e+01 -3.1454743404910605e-02 -5.9269051280407758e-01 +5.9345780535618193e-03
1.0399999999999979e+01 +8.1619371936735305e+00 +0.0000000000000000e+00 +1.0399999398666559e+01 -3.1454747917823350e-02 -5.9269091919816708e-01 +5.9346909699908674e-03
1.0499999999999979e+01 +8.1618780101030755e+00 +0.0000000000000000e+00 +1.0499999381152948e+01 -3.1454741816239383e-02 -5.9269134350615804e-01 +5.9348051317280005e-03
1.0599999999999978e+01 +8.1618182601724989e+00 +0.0000000000000000e+00 +1.0599999363302542e+01 -3.1454726735308969e-02 -5.9269178480227580e-01 +5.9349204222819635e-03
1.0699999999999978e+01 +8.1617579438813799e+00 +0.0000000000000000e+00 +1.0699999345112133e+01 -3.1454704310114719e-02 -5.9269224216075567e-01 +5.9350367251423735e-03
1.0799999999999978e+01 +8.1616970612292832e+00 +0.0000000000000000e+00 +1.0799999326578511e+01 -3.1454676175669855e-02 -5.9269271465584361e-01 +5.9351539237792687e-03
1.0899999999999977e+01 +8.1616356122157594e+00 +0.0000000000000000e+00 +1.0899999307698470e+01 -3.1454643966916468e-02 -5.9269320136179404e-01 +5.9352719016426648e-03
1.0999999999999977e+01 +8.1615735968403467e+00 +0.0000000000000000e+00 +1.0999999288468802e+01 -3.1454609318723632e-02 -5.9269370135287425e-01 +5.9353905421620935e-03
1.1099999999999977e+01 +8.1615110151025689e+00 +0.0000000000000000e+00 +1.1099999268886297e+01 -3.1454573865885765e-02 -5.9269421370336173e-01 +5.9355097287461514e-03
1.1199999999999976e+01 +8.1614478670019377e+00 +0.0000000000000000e+00 +1.1199999248947748e+01 -3.1454539243120735e-02 -5.9269473748754731e-01 +5.9356293447820462e-03
1.1299999999999976e+01 +8.1613841525379556e+00 +0.0000000000000000e+00 +1.1299999228649947e+01 -3.1454507085068160e-02 -5.9269527177973369e-01 +5.9357492736351507e-03
1.1399999999999975e+01 +8.1613198717101127e+00 +0.0000000000000000e+00 +1.1399999207989687e+01 -3.1454479026287577e-02 -5.9269581565423790e-01 +5.9358693986485377e-03
1.1499999999999975e+01 +8.1612550245178941e+00 +0.0000000000000000e+00 +1.1499999186963759e+01 -3.1454456701256711e-02 -5.9269636818539073e-01 +5.9359896031425429e-03
1.1599999999999975e+01 +8.1611896109607720e+00 +0.0000000000000000e+00 +1.1599999165568956e+01 -3.1454441744369635e-02 -5.9269692844753752e-01 +5.9361097704142994e-03
1.1699999999999974e+01 +8.1611236310382136e+00 +0.0000000000000000e+00 +1.1699999143802069e+01 -3.1454435789935072e-02 -5.9269749551503892e-01 +5.9362297837372915e-03
1.1799999999999974e+01 +8.1610570847496788e+00 +0.0000000000000000e+00 +1.1799999121659891e+01 -3.1454440472174494e-02 -5.9269806846227213e-01 +5.9363495263609076e-03
