# field on trajectory
# s[mm] rx[mm] ry[mm] rz[mm] bx[T] by[T] bz[T]
0.0000000000000000e+00 +8.1530000000000005e+00 +0.0000000000000000e+00 +0.0000000000000000e+00 -3.1481992577476442e-02 -5.9245918840111877e-01 +5.9116629606008244e-03
1.0000000000000001e-01 +8.1529997163961507e+00 +0.0000000000000000e+00 +9.9999999999463796e-02 -3.1482036944737737e-02 -5.9245939860238506e-01 +5.9116117078924779e-03
2.0000000000000001e-01 +8.1529988655856904e+00 +0.0000000000000000e+00 +1.9999999999571000e-01 -3.1482091686547899e-02 -5.9245958609815463e-01 +5.9115609024715191e-03
2.9999999999999999e-01 +8.1529974475670297e+00 +0.0000000000000000e+00 +2.9999999998552201e-01 -3.1482156301665287e-02 -5.9245975201616774e-01 +5.9115105470639714e-03
4.0000000000000002e-01 +8.1529954623438208e+00 +0.0000000000000000e+00 +3.9999999996568297e-01 -3.1482230288840063e-02 -5.9245989748412131e-01 +5.9114606443958244e-03
5.0000000000000000e-01 +8.1529929099124292e+00 +0.0000000000000000e+00 +4.9999999993297400e-01 -3.1482313146820554e-02 -5.9246002362976780e-01 +5.9114111971941899e-03
5.9999999999999998e-01 +8.1529897902728408e+00 +0.0000000000000000e+00 +5.9999999988417896e-01 -3.1482404374349557e-02 -5.9246013158082866e-01 +5.9113622081865156e-03
6.9999999999999996e-01 +8.1529861034287006e+00 +0.0000000000000000e+00 +6.9999999981608096e-01 -3.1482503470165291e-02 -5.9246022246499030e-01 +5.9113136801007089e-03
8.0000000000000004e-01 +8.1529818493763706e+00 +0.0000000000000000e+00 +7.9999999972546199e-01 -3.1482609933007201e-02 -5.9246029740999462e-01 +5.9112656156661680e-03
9.0000000000000002e-01 +8.1529770281158598e+00 +0.0000000000000000e+00 +8.9999999960910604e-01 -3.1482723261612174e-02 -5.9246035754354842e-01 +5.9112180176129929e-03
1.0000000000000000e+00 +8.1529716396507901e+00 +0.0000000000000000e+00 +9.9999999946379403e-01 -3.1482842954715519e-02 -5.9246040399332267e-01 +5.9111708886721024e-03
1.1000000000000001e+00 +8.1529656839775306e+00 +0.0000000000000000e+00 +1.0999999992863101e+00 -3.1482968511056815e-02 -5.9246043788704050e-01 +5.9111242315762749e-03
1.2000000000000000e+00 +8.1529591610960797e+00 +0.0000000000000000e+00 +1.1999999990734400e+00 -3.1483099429376007e-02 -5.9246046035238797e-01 +5.9110780490593557e-03
1.3000000000000000e+00 +8.1529520710100805e+00 +0.0000000000000000e+00 +1.2999999988219599e+00 -3.1483235208414555e-02 -5.9246047251701317e-01 +5.9110323438563740e-03
1.3999999999999999e+00 +8.1529444137122500e+00 +0.0000000000000000e+00 +1.3999999985286500e+00 -3.1483375346922679e-02 -5.9246047550864411e-01 +5.9109871187048892e-03
1.5000000000000000e+00 +8.1529361892135093e+00 +0.0000000000000000e+00 +1.4999999981903001e+00 -3.1483519343647737e-02 -5.9246047045485073e-01 +5.9109423763426721e-03
1.6000000000000001e+00 +8.1529273975065699e+00 +0.0000000000000000e+00 +1.5999999978037001e+00 -3.1483666697351025e-02 -5.9246045848333984e-01 +5.9108981195108721e-03
1.7000000000000000e+00 +8.1529180385914497e+00 +0.0000000000000000e+00 +1.6999999973656199e+00 -3.1483816906797697e-02 -5.9246044072174897e-01 +5.9108543509520063e-03
1.8000000000000000e+00 +8.1529081124681397e+00 +0.0000000000000000e+00 +1.7999999968728499e+00 -3.1483969470760972e-02 -5.9246041829770169e-01 +5.9108110734106952e-03
1.8999999999999999e+00 +8.1528976191402798e+00 +0.0000000000000000e+00 +1.8999999963221601e+00 -3.1484123888021527e-02 -5.9246039233878101e-01 +5.9107682896334798e-03
2.0000000000000000e+00 +8.1528865586042194e+00 +0.0000000000000000e+00 +1.9999999957103500e+00 -3.1484279657373222e-02 -5.9246036397261448e-01 +5.9107260023698446e-03
2.1000000000000001e+00 +8.1528749308599799e+00 +0.0000000000000000e+00 +2.0999999950341901e+00 -3.1484436297197889e-02 -5.9246033441210910e-01 +5.9106842293415451e-03
2.2000000000000002e+00 +8.1528627359111905e+00 +0.0000000000000000e+00 +2.1999999942904802e+00 -3.1484593404200484e-02 -5.9246030521142978e-01 +5.9106430481519461e-03
2.2999999999999998e+00 +8.1528499737542006e+00 +0.0000000000000000e+00 +2.2999999934759798e+00 -3.1484750594676834e-02 -5.9246027801013346e-01 +5.9106025513747306e-03
2.3999999999999999e+00 +8.1528366443890299e+00 +0.0000000000000000e+00 +2.3999999925874800e+00 -3.1484907484930595e-02 -5.9246025444776296e-01 +5.9105628315823623e-03
2.5000000000000000e+00 +8.1528227478193003e+00 +0.0000000000000000e+00 +2.4999999916217801e+00 -3.1485063691273837e-02 -5.9246023616384791e-01 +5.9105239813458388e-03
2.6000000000000001e+00 +8.1528082840413791e+00 +0.0000000000000000e+00 +2.5999999905756401e+00 -3.1485218830032309e-02 -5.9246022479799598e-01 +5.9104860932353660e-03
2.7000000000000002e+00 +8.1527932530552807e+00 +0.0000000000000000e+00 +2.6999999894458502e+00 -3.1485372517541181e-02 -5.9246022198980774e-01 +5.9104492598191687e-03
2.7999999999999998e+00 +8.1527776548646198e+00 +0.0000000000000000e+00 +2.7999999882291999e+00 -3.1485524370145707e-02 -5.9246022937887788e-01 +5.9104135736632616e-03
2.8999999999999999e+00 +8.1527614894657692e+00 +0.0000000000000000e+00 +2.8999999869224702e+00 -3.1485674004206349e-02 -5.9246024860488633e-01 +5.9103791273320948e-03
3.0000000000000000e+00 +8.1527447568587394e+00 +0.0000000000000000e+00 +2.9999999855224302e+00 -3.1485821036094742e-02 -5.9246028130751238e-01 +5.9103460133873940e-03
3.1000000000000001e+00 +8.1527274570471508e+00 +0.0000000000000000e+00 +3.0999999840258798e+00 -3.1485965082194096e-02 -5.9246032912643687e-01 +5.9103143243879122e-03
3.2000000000000002e+00 +8.1527095900273707e+00 +0.0000000000000000e+00 +3.1999999824295902e+00 -3.1486105758904551e-02 -5.9246039370143400e-01 +5.9102841528900826e-03
3.2999999999999998e+00 +8.1526911557994008e+00 +0.0000000000000000e+00 +3.2999999807303602e+00 -3.1486242682638957e-02 -5.9246047667228252e-01 +5.9102555914468599e-03
3.3999999999999999e+00 +8.1526721543668792e+00 +0.0000000000000000e+00 +3.3999999789249502e+00 -3.1486375469823427e-02 -5.9246057967877164e-01 +5.9102287326074626e-03
3.5000000000000000e+00 +8.1526525857261696e+00 +0.0000000000000000e+00 +3.4999999770101602e+00 -3.1486503736902566e-02 -5.9246070436078901e-01 +5.9102036689180435e-03
3.6000000000000001e+00 +8.1526324498772702e+00 +0.0000000000000000e+00 +3.5999999749827598e+00 -3.1486627100335354e-02 -5.9246085235823653e-01 +5.9101804929205153e-03
3.7000000000000002e+00 +8.1526117468238208e+00 +0.0000000000000000e+00 +3.6999999728395401e+00 -3.1486745176595637e-02 -5.9246102531103140e-01 +5.9101592971522923e-03
3.7999999999999998e+00 +8.1525904765621799e+00 +0.0000000000000000e+00 +3.7999999705772902e+00 -3.1486857582177417e-02 -5.9246122485919761e-01 +5.9101401741469741e-03
3.8999999999999999e+00 +8.1525686390959908e+00 +0.0000000000000000e+00 +3.8999999681927799e+00 -3.1486963933589018e-02 -5.9246145264275019e-01 +5.9101232164328514e-03
4.0000000000000000e+00 +8.1525462344179704e+00 +0.0000000000000000e+00 +3.9999999656827998e+00 -3.1487063847361670e-02 -5.9246171030184580e-01 +5.9101085165341929e-03
4.0999999999999996e+00 +8.1525232625354001e+00 +0.0000000000000000e+00 +4.0999999630441302e+00 -3.1487157050131838e-02 -5.9246199891020201e-01 +5.9100961405224315e-03
4.2000000000000002e+00 +8.1524997234482708e+00 +0.0000000000000000e+00 +4.1999999602735496e+00 -3.1487243708917173e-02 -5.9246231727612486e-01 +5.9100860486805858e-03
4.2999999999999998e+00 +8.1524756171529607e+00 +0.0000000000000000e+00 +4.2999999573678496e+00 -3.1487324100811315e-02 -5.9246266364155087e-01 +5.9100781748460673e-03
4.4000000000000004e+00 +8.1524509436494608e+00 +0.0000000000000000e+00 +4.3999999543238104e+00 -3.1487398502882208e-02 -5.9246303624835495e-01 +5.9100724528572297e-03
4.5000000000000000e+00 +8.1524257029377605e+00 +0.0000000000000000e+00 +4.4999999511382098e+00 -3.1487467192171804e-02 -5.9246343333837503e-01 +5.9100688165538125e-03
4.5999999999999996e+00 +8.1523998950215208e+00 +0.0000000000000000e+00 +4.5999999478078299e+00 -3.1487530445692496e-02 -5.9246385315338135e-01 +5.9100671997767947e-03
4.7000000000000002e+00 +8.1523735198970808e+00 +0.0000000000000000e+00 +4.6999999443294600e+00 -3.1487588540430093e-02 -5.9246429393516220e-01 +5.9100675363694408e-03
4.7999999999999998e+00 +8.1523465775644599e+00 +0.0000000000000000e+00 +4.7999999406998803e+00 -3.1487641753336980e-02 -5.9246475392543074e-01 +5.9100697601765549e-03
4.9000000000000004e+00 +8.1523190680272801e+00 +0.0000000000000000e+00 +4.8999999369158704e+00 -3.1487690361330256e-02 -5.9246523136582396e-01 +5.9100738050446031e-03
5.0000000000000000e+00 +8.1522909912819195e+00 +0.0000000000000000e+00 +4.9999999329742204e+00 -3.1487734641294639e-02 -5.9246572449798762e-01 +5.9100796048228042e-03
5.0999999999999996e+00 +8.1522623473319999e+00 +0.0000000000000000e+00 +5.0999999288717000e+00 -3.1487774870074071e-02 -5.9246623156345446e-01 +5.9100870933620278e-03
5.2000000000000002e+00 +8.1522331361738907e+00 +0.0000000000000000e+00 +5.1999999246051098e+00 -3.1487811324476256e-02 -5.9246675080376121e-01 +5.9100962045161862e-03
5.2999999999999998e+00 +8.1522033578075899e+00 +0.0000000000000000e+00 +5.2999999201712198e+00 -3.1487844281265893e-02 -5.9246728046035591e-01 +5.9101068721414554e-03
5.4000000000000004e+00 +8.1521730122331100e+00 +0.0000000000000000e+00 +5.3999999155668199e+00 -3.1487874017164394e-02 -5.9246781877462396e-01 +5.9101190300967178e-03
5.5000000000000000e+00 +8.1521420994540694e+00 +0.0000000000000000e+00 +5.4999999107886799e+00 -3.1487900808846378e-02 -5.9246836398785729e-01 +5.9101326122434324e-03
5.5999999999999996e+00 +8.1521106194668391e+00 +0.0000000000000000e+00 +5.5999999058335996e+00 -3.1487924932942446e-02 -5.9246891434133886e-01 +5.9101475524466693e-03
5.7000000000000002e+00 +8.1520785722750606e+00 +0.0000000000000000e+00 +5.6999999006983604e+00 -3.1487946666030955e-02 -5.9246946807622169e-01 +5.9101637845740502e-03
5.7999999999999998e+00 +8.1520459578750906e+00 +0.0000000000000000e+00 +5.7999998953797300e+00 -3.1487966284642489e-02 -5.9247002343364563e-01 +5.9101812424971175e-03
5.9000000000000004e+00 +8.1520127762669308e+00 +0.0000000000000000e+00 +5.8999998898744996e+00 -3.1487984065253063e-02 -5.9247057865464348e-01 +5.9101998600905618e-03
5.9999999999999902e+00 +8.1519790274505795e+00 +0.0000000000000000e+00 +5.9999998841794504e+00 -3.1488000284283918e-02 -5.9247113198016910e-01 +5.9102195712326718e-03
6.0999999999999899e+00 +8.1519447114296799e+00 +0.0000000000000000e+00 +6.0999998782913698e+00 -3.1488015243647062e-02 -5.9247168196257749e-01 +5.9102403194758986e-03
6.1999999999999904e+00 +8.1519098282005906e+00 +0.0000000000000000e+00 +6.1999998722070400e+00 -3.1488029347414702e-02 -5.9247222840029390e-01 +5.9102620870601875e-03
6.2999999999999901e+00 +8.1518743777669407e+00 +0.0000000000000000e+00 +6.2999998659232403e+00 -3.1488043025196574e-02 -5.9247277140322030e-01 +5.9102848658997183e-03
6.3999999999999897e+00 +8.1518383601214701e+00 +0.0000000000000000e+00 +6.3999998594367504e+00 -3.1488056706603401e-02 -5.9247331108138135e-01 +5.9103086479137968e-03
6.4999999999999902e+00 +8.1518017752750893e+00 +0.0000000000000000e+00 +6.4999998527443603e+00 -3.1488070821234497e-02 -5.9247384754468890e-01 +5.9103334250245601e-03
6.5999999999999899e+00 +8.1517646232205205e+00 +0.0000000000000000e+00 +6.5999998458428504e+00 -3.1488085798693985e-02 -5.9247438090323989e-01 +5.9103591891601862e-03
6.6999999999999904e+00 +8.1517269039541098e+00 +0.0000000000000000e+00 +6.6999998387290001e+00 -3.1488102068581686e-02 -5.9247491126714091e-01 +5.9103859322532024e-03
6.7999999999999901e+00 +8.1516886174867995e+00 +0.0000000000000000e+00 +6.7999998313996004e+00 -3.1488120060488560e-02 -5.9247543874642050e-01 +5.9104136462397204e-03
6.8999999999999897e+00 +8.1516497638112906e+00 +0.0000000000000000e+00 +6.8999998238514202e+00 -3.1488140204011417e-02 -5.9247596345129827e-01 +5.9104423230623348e-03
6.9999999999999902e+00 +8.1516103429239593e+00 +0.0000000000000000e+00 +6.9999998160812602e+00 -3.1488162928743721e-02 -5.9247648549200860e-01 +5.9104719546684325e-03
7.0999999999999899e+00 +8.1515703548320708e+00 +0.0000000000000000e+00 +7.0999998080858804e+00 -3.1488188664272748e-02 -5.9247700497874423e-01 +5.9105025330097394e-03
7.1999999999999904e+00 +8.1515297995356395e+00 +0.0000000000000000e+00 +7.1999997998620904e+00 -3.1488217840187835e-02 -5.9247752202180459e-01 +5.9105340500439961e-03
7.2999999999999901e+00 +8.1514886770310095e+00 +0.0000000000000000e+00 +7.2999997914066501e+00 -3.1488250886079171e-02 -5.9247803673156940e-01 +5.9105664977347882e-03
7.3999999999999897e+00 +8.1514469873182005e+00 +0.0000000000000000e+00 +7.3999997827163604e+00 -3.1488288231534912e-02 -5.9247854921844101e-01 +5.9105998680510953e-03
7.4999999999999902e+00 +8.1514047304008308e+00 +0.0000000000000000e+00 +7.4999997737879900e+00 -3.1488330306141593e-02 -5.9247905959284652e-01 +5.9106341529674465e-03
7.5999999999999899e+00 +8.1513619062752696e+00 +0.0000000000000000e+00 +7.5999997646183202e+00 -3.1488377539489097e-02 -5.9247956796532675e-01 +5.9106693444649638e-03
7.6999999999999904e+00 +8.1513185149451601e+00 +0.0000000000000000e+00 +7.6999997552041499e+00 -3.1488430361164811e-02 -5.9248007444642281e-01 +5.9107054345303054e-03
7.7999999999999901e+00 +8.1512745564032194e+00 +0.0000000000000000e+00 +7.7999997455422498e+00 -3.1488489200761756e-02 -5.9248057914682339e-01 +5.9107424151573417e-03
7.8999999999999897e+00 +8.1512300306567305e+00 +0.0000000000000000e+00 +7.8999997356294100e+00 -3.1488554487867873e-02 -5.9248108217715967e-01 +5.9107802783451525e-03
7.9999999999999902e+00 +8.1511849377056897e+00 +0.0000000000000000e+00 +7.9999997254624002e+00 -3.1488626652075899e-02 -5.9248158364818704e-01 +5.9108190161000279e-03
8.0999999999999908e+00 +8.1511392775464593e+00 +0.0000000000000000e+00 +8.0999997150380096e+00 -3.1488705983650257e-02 -5.9248208358857102e-01 +5.9108586040409316e-03
8.1999999999999904e+00 +8.1510930501790408e+00 +0.0000000000000000e+00 +8.1999997043530293e+00 -3.1488792215548733e-02 -5.9248258169824430e-01 +5.9108989522104870e-03
8.2999999999999901e+00 +8.1510462556034309e+00 +0.0000000000000000e+00 +8.2999996934042404e+00 -3.1488884941466073e-02 -5.9248307759492824e-01 +5.9109399542498697e-03
8.3999999999999897e+00 +8.1509988938232691e+00 +0.0000000000000000e+00 +8.3999996821884100e+00 -3.1488983755175268e-02 -5.9248357089627779e-01 +5.9109815037916178e-03
8.4999999999999893e+00 +8.1509509648349194e+00 +0.0000000000000000e+00 +8.4999996707023406e+00 -3.1489088250534744e-02 -5.9248406121996933e-01 +5.9110234944602363e-03
8.5999999999999908e+00 +8.1509024686420197e+00 +0.0000000000000000e+00 +8.5999996589427994e+00 -3.1489198021484775e-02 -5.9248454818358054e-01 +5.9110658198706749e-03
8.6999999999999904e+00 +8.1508534052409196e+00 +0.0000000000000000e+00 +8.6999996469065692e+00 -3.1489312662056276e-02 -5.9248503140470843e-01 +5.9111083736292265e-03
8.7999999999999794e+00 +8.1508037746316404e+00 +0.0000000000000000e+00 +8.7999996345904599e+00 -3.1489431766368758e-02 -5.9248551050087828e-01 +5.9111510493323090e-03
8.8999999999999808e+00 +8.1507535768178094e+00 +0.0000000000000000e+00 +8.8999996219912205e+00 -3.1489554928632854e-02 -5.9248598508954231e-01 +5.9111937405661764e-03
8.9999999999999805e+00 +8.1507028117957798e+00 +0.0000000000000000e+00 +8.9999996091056396e+00 -3.1489681743157694e-02 -5.9248645478816864e-01 +5.9112363409074961e-03
9.0999999999999801e+00 +8.1506514795655693e+00 +0.0000000000000000e+00 +9.0999995959305195e+00 -3.1489811804348719e-02 -5.9248691921414931e-01 +5.9112787439221433e-03
9.1999999999999797e+00 +8.1505995801308000e+00 +0.0000000000000000e+00 +9.1999995824626293e+00 -3.1489944706710328e-02 -5.9248737798480022e-01 +5.9113208431648976e-03
9.2999999999999794e+00 +8.1505471134878498e+00 +0.0000000000000000e+00 +9.2999995686987500e+00 -3.1490080044853194e-02 -5.9248783071744793e-01 +5.9113625321800343e-03
9.3999999999999808e+00 +8.1504940796366991e+00 +0.0000000000000000e+00 +9.3999995546356701e+00 -3.1490217413492075e-02 -5.9248827702934115e-01 +5.9114037045001127e-03
9.4999999999999805e+00 +8.1504404785773694e+00 +0.0000000000000000e+00 +9.4999995402701707e+00 -3.1490356407450022e-02 -5.9248871653767543e-01 +5.9114442536459715e-03
9.5999999999999801e+00 +8.1503863103171206e+00 +0.0000000000000000e+00 +9.5999995255990296e+00 -3.1490496621657885e-02 -5.9248914885953741e-01 +5.9114840731258082e-03
9.6999999999999797e+00 +8.1503315748450404e+00 +0.0000000000000000e+00 +9.6999995106190298e+00 -3.1490637651167781e-02 -5.9248957361210686e-01 +5.9115230564370114e-03
9.7999999999999794e+00 +8.1502762721684103e+00 +0.0000000000000000e+00 +9.7999994953269702e+00 -3.1490779091140127e-02 -5.9248999041236194e-01 +5.9115610970627962e-03
9.8999999999999808e+00 +8.1502204022835905e+00 +0.0000000000000000e+00 +9.8999994797196091e+00 -3.1490920536858646e-02 -5.9249039887731247e-01 +5.9115980884743473e-03
9.9999999999999805e+00 +8.1501639651905897e+00 +0.0000000000000000e+00 +9.9999994637937508e+00 -3.1491061583726797e-02 -5.9249079862388254e-01 +5.9116339241292700e-03
1.0100000000000000e+01 +8.1501069608966592e+00 +0.0000000000000000e+00 +1.0099999447546200e+01 -3.1491201813577140e-02 -5.9249118959513269e-01 +5.9116685324632030e-03
1.0199999999999999e+01 +8.1500493893909205e+00 +0.0000000000000000e+00 +1.0199999430973600e+01 -3.1491340753544157e-02 -5.9249157303927780e-01 +5.9117019818760866e-03
1.0300000000000001e+01 +8.1499912506769796e+00 +0.0000000000000000e+00 +1.0299999414073000e+01 -3.1491477917012602e-02 -5.9249195053069459e-01 +5.9117343757615131e-03
1.0400000000000000e+01 +8.1499325447584905e+00 +0.0000000000000000e+00 +1.0399999396840901e+01 -3.1491612817297475e-02 -5.9249232364378024e-01 +5.9117658175160933e-03
1.0500000000000000e+01 +8.1498732716317992e+00 +0.0000000000000000e+00 +1.0499999379274200e+01 -3.1491744967645140e-02 -5.9249269395301374e-01 +5.9117964105402073e-03
1.0600000000000000e+01 +8.1498134313005703e+00 +0.0000000000000000e+00 +1.0599999361369800e+01 -3.1491873881224736e-02 -5.9249306303283700e-01 +5.9118262582368714e-03
1.0699999999999999e+01 +8.1497530237611500e+00 +0.0000000000000000e+00 +1.0699999343124301e+01 -3.1491999071132322e-02 -5.9249343245777497e-01 +5.9118554640130707e-03
1.0800000000000001e+01 +8.1496920490171796e+00 +0.0000000000000000e+00 +1.0799999324534600e+01 -3.1492120050382412e-02 -5.9249380380231753e-01 +5.9118841312786573e-03
1.0900000000000000e+01 +8.1496305070650106e+00 +0.0000000000000000e+00 +1.0899999305597399e+01 -3.1492236331912025e-02 -5.9249417864103826e-01 +5.9119123634476731e-03
1.1000000000000000e+01 +8.1495683979046607e+00 +0.0000000000000000e+00 +1.0999999286309500e+01 -3.1492347428573757e-02 -5.9249455854850752e-01 +5.9119402639375360e-03
1.1100000000000000e+01 +8.1495057215361193e+00 +0.0000000000000000e+00 +1.1099999266667700e+01 -3.1492452853135247e-02 -5.9249494509932121e-01 +5.9119679361694655e-03
1.1199999999999999e+01 +8.1494424779630208e+00 +0.0000000000000000e+00 +1.1199999246668799e+01 -3.1492552118275327e-02 -5.9249533986807290e-01 +5.9119954835682798e-03
1.1300000000000001e+01 +8.1493786671817396e+00 +0.0000000000000000e+00 +1.1299999226309600e+01 -3.1492644736586563e-02 -5.9249574442944253e-01 +5.9120230095634175e-03
1.1400000000000000e+01 +8.1493142891922599e+00 +0.0000000000000000e+00 +1.1399999205586900e+01 -3.1492730220568407e-02 -5.9249616035810970e-01 +5.9120506175881372e-03
1.1500000000000000e+01 +8.1492493440018698e+00 +0.0000000000000000e+00 +1.1499999184497300e+01 -3.1492808082623322e-02 -5.9249658922872339e-01 +5.9120784110793159e-03
1.1600000000000000e+01 +8.1491838315996592e+00 +0.0000000000000000e+00 +1.1599999163037801e+01 -3.1492877835065693e-02 -5.9249703261611042e-01 +5.9121064934796932e-03
1.1699999999999999e+01 +8.1491177519928897e+00 +0.0000000000000000e+00 +1.1699999141205099e+01 -3.1492938990103872e-02 -5.9249749209498037e-01 +5.9121349682349344e-03
1.1800000000000001e+01 +8.1490511051779304e+00 +0.0000000000000000e+00 +1.1799999118996000e+01 -3.1492991059850539e-02 -5.9249796924016218e-01 +5.9121639387961647e-03
