# field on trajectory
# s[mm] rx[mm] ry[mm] rz[mm] bx[T] by[T] bz[T]
0.0000000000000000e+00 +7.9199999999999999e+00 +0.0000000000000000e+00 +0.0000000000000000e+00 -3.0897405476441306e-02 -5.9468974632848581e-01 +5.9184135936741610e-03
-1.0000000000000001e-01 +7.9199997168304765e+00 +0.0000000000000000e+00 -9.9999999999465433e-02 -3.0897385193040350e-02 -5.9469000839504227e-01 +5.9185029705527770e-03
-2.0000000000000001e-01 +7.9199988673217412e+00 +0.0000000000000000e+00 -1.9999999999572349e-01 -3.0897384301024601e-02 -5.9469026996930086e-01 +5.9185920787933463e-03
-3.0000000000000004e-01 +7.9199974514735443e+00 +0.0000000000000000e+00 -2.9999999998556670e-01 -3.0897401456341997e-02 -5.9469053125147431e-01 +5.9186809778700236e-03
-4.0000000000000002e-01 +7.9199954692856371e+00 +0.0000000000000000e+00 -3.9999999996578772e-01 -3.0897435314934534e-02 -5.9469079244175926e-01 +5.9187697272578511e-03
-5.0000000000000000e-01 +7.9199929207577711e+00 +0.0000000000000000e+00 -4.9999999993317912e-01 -3.0897484532738224e-02 -5.9469105374033993e-01 +5.9188583864326350e-03
-5.9999999999999998e-01 +7.9199898058896974e+00 +0.0000000000000000e+00 -5.9999999988453345e-01 -3.0897547765682928e-02 -5.9469131534738962e-01 +5.9189470148707799e-03
-6.9999999999999996e-01 +7.9199861246811674e+00 +0.0000000000000000e+00 -6.9999999981664329e-01 -3.0897623669692190e-02 -5.9469157746307488e-01 +5.9190356720491598e-03
-7.9999999999999993e-01 +7.9199818771319306e+00 +0.0000000000000000e+00 -7.9999999972630131e-01 -3.0897710900683190e-02 -5.9469184028755817e-01 +5.9191244174449584e-03
-8.9999999999999991e-01 +7.9199770632417374e+00 +0.0000000000000000e+00 -8.9999999961029997e-01 -3.0897808114566546e-02 -5.9469210402100148e-01 +5.9192133105355361e-03
-9.9999999999999989e-01 +7.9199716830103366e+00 +0.0000000000000000e+00 -9.9999999946543183e-01 -3.0897913967246261e-02 -5.9469236886356858e-01 +5.9193024107982812e-03
-1.0999999999999999e+00 +7.9199657364374767e+00 +0.0000000000000000e+00 -1.0999999992884895e+00 -3.0898027114619489e-02 -5.9469263501542824e-01 +5.9193917777104581e-03
-1.2000000000000000e+00 +7.9199592235229037e+00 +0.0000000000000000e+00 -1.1999999990762655e+00 -3.0898146212576517e-02 -5.9469290267675734e-01 +5.9194814707490681e-03
-1.3000000000000000e+00 +7.9199521442663636e+00 +0.0000000000000000e+00 -1.2999999988255526e+00 -3.0898269917000561e-02 -5.9469317204774419e-01 +5.9195715493907059e-03
-1.4000000000000001e+00 +7.9199444986675989e+00 +0.0000000000000000e+00 -1.3999999985331431e+00 -3.0898396883767682e-02 -5.9469344332859109e-01 +5.9196620731114145e-03
-1.5000000000000002e+00 +7.9199362867263527e+00 +0.0000000000000000e+00 -1.4999999981958294e+00 -3.0898525768746667e-02 -5.9469371671951810e-01 +5.9197531013865309e-03
-1.6000000000000003e+00 +7.9199275084423642e+00 +0.0000000000000000e+00 -1.5999999978104045e+00 -3.0898655227798822e-02 -5.9469399242076493e-01 +5.9198446936905517e-03
-1.7000000000000004e+00 +7.9199181638153711e+00 +0.0000000000000000e+00 -1.6999999973736606e+00 -3.0898783916777948e-02 -5.9469427063259472e-01 +5.9199369094969827e-03
-1.8000000000000005e+00 +7.9199082528451097e+00 +0.0000000000000000e+00 -1.7999999968823903e+00 -3.0898910491530172e-02 -5.9469455155529727e-01 +5.9200298082781946e-03
-1.9000000000000006e+00 +7.9198977755313118e+00 +0.0000000000000000e+00 -1.8999999963333862e+00 -3.0899033607893790e-02 -5.9469483538919166e-01 +5.9201234495052796e-03
-2.0000000000000004e+00 +7.9198867318737074e+00 +0.0000000000000000e+00 -1.9999999957234407e+00 -3.0899151921699185e-02 -5.9469512233462929e-01 +5.9202178926479011e-03
-2.1000000000000005e+00 +7.9198751218720238e+00 +0.0000000000000000e+00 -2.0999999950493464e+00 -3.0899264300743405e-02 -5.9469541240971113e-01 +5.9203131930545896e-03
-2.2000000000000006e+00 +7.9198629455259857e+00 +0.0000000000000000e+00 -2.1999999943078956e+00 -3.0899370460716516e-02 -5.9469570490342349e-01 +5.9204093895941570e-03
-2.3000000000000007e+00 +7.9198502028353142e+00 +0.0000000000000000e+00 -2.2999999934958812e+00 -3.0899470329281729e-02 -5.9469599892248104e-01 +5.9205065170147616e-03
-2.4000000000000008e+00 +7.9198368937997303e+00 +0.0000000000000000e+00 -2.3999999926100957e+00 -3.0899563834101852e-02 -5.9469629357361042e-01 +5.9206046100634914e-03
-2.5000000000000009e+00 +7.9198230184189535e+00 +0.0000000000000000e+00 -2.4999999916473312e+00 -3.0899650902839932e-02 -5.9469658796354952e-01 +5.9207037034863077e-03
-2.6000000000000010e+00 +7.9198085766927040e+00 +0.0000000000000000e+00 -2.5999999906043803e+00 -3.0899731463159941e-02 -5.9469688119904773e-01 +5.9208038320280000e-03
-2.7000000000000011e+00 +7.9197935686207037e+00 +0.0000000000000000e+00 -2.6999999894780355e+00 -3.0899805442727482e-02 -5.9469717238686504e-01 +5.9209050304321166e-03
-2.8000000000000012e+00 +7.9197779942026756e+00 +0.0000000000000000e+00 -2.7999999882650894e+00 -3.0899872769210416e-02 -5.9469746063377271e-01 +5.9210073334409370e-03
-2.9000000000000012e+00 +7.9197618534383452e+00 +0.0000000000000000e+00 -2.8999999869623343e+00 -3.0899933370279558e-02 -5.9469774504655248e-01 +5.9211107757953969e-03
-3.0000000000000013e+00 +7.9197451463274424e+00 +0.0000000000000000e+00 -2.9999999855665629e+00 -3.0899987173609370e-02 -5.9469802473199618e-01 +5.9212153922350522e-03
-3.1000000000000014e+00 +7.9197278728697018e+00 +0.0000000000000000e+00 -3.0999999840745676e+00 -3.0900034106878606e-02 -5.9469829879690550e-01 +5.9213212174980190e-03
-3.2000000000000015e+00 +7.9197100330648631e+00 +0.0000000000000000e+00 -3.1999999824831407e+00 -3.0900074097771013e-02 -5.9469856634809237e-01 +5.9214282863209256e-03
-3.3000000000000016e+00 +7.9196916269126714e+00 +0.0000000000000000e+00 -3.2999999807890750e+00 -3.0900107073975971e-02 -5.9469882649237837e-01 +5.9215366334388515e-03
-3.4000000000000017e+00 +7.9196726544128806e+00 +0.0000000000000000e+00 -3.3999999789891624e+00 -3.0900132963189178e-02 -5.9469907833659341e-01 +5.9216462935852846e-03
-3.5000000000000018e+00 +7.9196531155652510e+00 +0.0000000000000000e+00 -3.4999999770801957e+00 -3.0900151693113387e-02 -5.9469932098757750e-01 +5.9217573014920715e-03
-3.6000000000000019e+00 +7.9196330103695525e+00 +0.0000000000000000e+00 -3.5999999750589677e+00 -3.0900163191458968e-02 -5.9469955355217874e-01 +5.9218696918893520e-03
-3.7000000000000020e+00 +7.9196123388255639e+00 +0.0000000000000000e+00 -3.6999999729222703e+00 -3.0900167385944689e-02 -5.9469977513725458e-01 +5.9219834995055225e-03
-3.8000000000000020e+00 +7.9195911009330748e+00 +0.0000000000000000e+00 -3.7999999706668963e+00 -3.0900164204298308e-02 -5.9469998484967002e-01 +5.9220987590671639e-03
-3.9000000000000021e+00 +7.9195692966918871e+00 +0.0000000000000000e+00 -3.8999999682896380e+00 -3.0900153574257301e-02 -5.9470018179629802e-01 +5.9222155052990116e-03
-4.0000000000000018e+00 +7.9195469261018134e+00 +0.0000000000000000e+00 -3.9999999657872878e+00 -3.0900135423569491e-02 -5.9470036508401980e-01 +5.9223337729238847e-03
-4.1000000000000014e+00 +7.9195239891626796e+00 +0.0000000000000000e+00 -4.0999999631566384e+00 -3.0900109721486130e-02 -5.9470053433582259e-01 +5.9224535733525601e-03
-4.2000000000000011e+00 +7.9195004858743259e+00 +0.0000000000000000e+00 -4.1999999603944822e+00 -3.0900076603235571e-02 -5.9470069123908786e-01 +5.9225748247542561e-03
-4.3000000000000007e+00 +7.9194764162366029e+00 +0.0000000000000000e+00 -4.2999999574976115e+00 -3.0900036245539188e-02 -5.9470083799728035e-01 +5.9226974219884921e-03
-4.4000000000000004e+00 +7.9194517802493714e+00 +0.0000000000000000e+00 -4.3999999544628183e+00 -3.0899988825117838e-02 -5.9470097681384493e-01 +5.9228212599155370e-03
-4.5000000000000000e+00 +7.9194265779125006e+00 +0.0000000000000000e+00 -4.4999999512868953e+00 -3.0899934518691802e-02 -5.9470110989220426e-01 +5.9229462333965288e-03
-4.5999999999999996e+00 +7.9194008092258636e+00 +0.0000000000000000e+00 -4.5999999479666354e+00 -3.0899873502980717e-02 -5.9470123943575803e-01 +5.9230722372935795e-03
-4.6999999999999993e+00 +7.9193744741893379e+00 +0.0000000000000000e+00 -4.6999999444988312e+00 -3.0899805954703471e-02 -5.9470136764787962e-01 +5.9231991664698714e-03
-4.7999999999999989e+00 +7.9193475728028018e+00 +0.0000000000000000e+00 -4.7999999408802747e+00 -3.0899732050578152e-02 -5.9470149673191641e-01 +5.9233269157897839e-03
-4.8999999999999986e+00 +7.9193201050661335e+00 +0.0000000000000000e+00 -4.8999999371077578e+00 -3.0899651967321952e-02 -5.9470162889118738e-01 +5.9234553801189894e-03
-4.9999999999999982e+00 +7.9192920709792078e+00 +0.0000000000000000e+00 -4.9999999331780742e+00 -3.0899565881651075e-02 -5.9470176632897964e-01 +5.9235844543245614e-03
-5.0999999999999979e+00 +7.9192634705418943e+00 +0.0000000000000000e+00 -5.0999999290880158e+00 -3.0899473970280714e-02 -5.9470191124854976e-01 +5.9237140332750850e-03
-5.1999999999999975e+00 +7.9192343037540560e+00 +0.0000000000000000e+00 -5.1999999248343745e+00 -3.0899376409924885e-02 -5.9470206585311924e-01 +5.9238440118407707e-03
-5.2999999999999972e+00 +7.9192045706155465e+00 +0.0000000000000000e+00 -5.2999999204139430e+00 -3.0899273377296449e-02 -5.9470223234587472e-01 +5.9239742848935543e-03
-5.3999999999999968e+00 +7.9191742711262076e+00 +0.0000000000000000e+00 -5.3999999158235141e+00 -3.0899165049106989e-02 -5.9470241292996562e-01 +5.9241047473072121e-03
-5.4999999999999964e+00 +7.9191434052858680e+00 +0.0000000000000000e+00 -5.4999999110598798e+00 -3.0899051602066657e-02 -5.9470260980850109e-01 +5.9242352939574546e-03
-5.5999999999999961e+00 +7.9191119730943420e+00 +0.0000000000000000e+00 -5.5999999061198329e+00 -3.0898933212884252e-02 -5.9470282518455131e-01 +5.9243658197220628e-03
-5.6999999999999957e+00 +7.9190799745514244e+00 +0.0000000000000000e+00 -5.6999999010001652e+00 -3.0898810058267008e-02 -5.9470306126114214e-01 +5.9244962194809668e-03
-5.7999999999999954e+00 +7.9190474096568915e+00 +0.0000000000000000e+00 -5.7999998956976695e+00 -3.0898682314920569e-02 -5.9470332024125661e-01 +5.9246263881163747e-03
-5.8999999999999950e+00 +7.9190142784104971e+00 +0.0000000000000000e+00 -5.8999998902091386e+00 -3.0898550159548958e-02 -5.9470360432783154e-01 +5.9247562205128768e-03
-5.9999999999999947e+00 +7.9189805808119722e+00 +0.0000000000000000e+00 -5.9999998845313645e+00 -3.0898413768854365e-02 -5.9470391572375525e-01 +5.9248856115575463e-03
-6.0999999999999943e+00 +7.9189463168610210e+00 +0.0000000000000000e+00 -6.0999998786611389e+00 -3.0898273448194721e-02 -5.9470425597553311e-01 +5.9250144862356760e-03
-6.1999999999999940e+00 +7.9189114865573211e+00 +0.0000000000000000e+00 -6.1999998725952548e+00 -3.0898130017562590e-02 -5.9470462400429513e-01 +5.9251428899209629e-03
-6.2999999999999936e+00 +7.9188760899005226e+00 +0.0000000000000000e+00 -6.2999998663305039e+00 -3.0897984425620320e-02 -5.9470501807483966e-01 +5.9252708980936002e-03
-6.3999999999999932e+00 +7.9188401268902515e+00 +0.0000000000000000e+00 -6.3999998598636791e+00 -3.0897837621043367e-02 -5.9470543645197715e-01 +5.9253985862455808e-03
-6.4999999999999929e+00 +7.9188035975261108e+00 +0.0000000000000000e+00 -6.4999998531915733e+00 -3.0897690552520791e-02 -5.9470587740053249e-01 +5.9255260298811552e-03
-6.5999999999999925e+00 +7.9187665018076823e+00 +0.0000000000000000e+00 -6.5999998463109781e+00 -3.0897544168755727e-02 -5.9470633918534554e-01 +5.9256533045172798e-03
-6.6999999999999922e+00 +7.9187288397345270e+00 +0.0000000000000000e+00 -6.6999998392186857e+00 -3.0897399418465893e-02 -5.9470682007127074e-01 +5.9257804856840471e-03
-6.7999999999999918e+00 +7.9186906113061886e+00 +0.0000000000000000e+00 -6.7999998319114878e+00 -3.0897257250384138e-02 -5.9470731832317958e-01 +5.9259076489251638e-03
-6.8999999999999915e+00 +7.9186518165221935e+00 +0.0000000000000000e+00 -6.8999998243861773e+00 -3.0897118613258875e-02 -5.9470783220596068e-01 +5.9260348697983741e-03
-6.9999999999999911e+00 +7.9186124553820543e+00 +0.0000000000000000e+00 -6.9999998166395470e+00 -3.0896984455854634e-02 -5.9470835998452021e-01 +5.9261622238759261e-03
-7.0999999999999908e+00 +7.9185725278852699e+00 +0.0000000000000000e+00 -7.0999998086683878e+00 -3.0896855726952527e-02 -5.9470889992378406e-01 +5.9262897867450081e-03
-7.1999999999999904e+00 +7.9185320340313270e+00 +0.0000000000000000e+00 -7.1999998004694925e+00 -3.0896733375350795e-02 -5.9470945028869759e-01 +5.9264176340082094e-03
-7.2999999999999901e+00 +7.9184909738197025e+00 +0.0000000000000000e+00 -7.2999997920396540e+00 -3.0896618349865228e-02 -5.9471000934422580e-01 +5.9265458412839549e-03
-7.3999999999999897e+00 +7.9184493472498660e+00 +0.0000000000000000e+00 -7.3999997833756632e+00 -3.0896511599329754e-02 -5.9471057535535643e-01 +5.9266744842069660e-03
-7.4999999999999893e+00 +7.9184071543212804e+00 +0.0000000000000000e+00 -7.4999997744743130e+00 -3.0896414072596915e-02 -5.9471114658709923e-01 +5.9268036384287036e-03
-7.5999999999999890e+00 +7.9183643950334028e+00 +0.0000000000000000e+00 -7.5999997653323952e+00 -3.0896326718538304e-02 -5.9471172130448635e-01 +5.9269333796178152e-03
-7.6999999999999886e+00 +7.9183210693856871e+00 +0.0000000000000000e+00 -7.6999997559467026e+00 -3.0896250486045156e-02 -5.9471229777257495e-01 +5.9270637834605878e-03
-7.7999999999999883e+00 +7.9182771773775862e+00 +0.0000000000000000e+00 -7.7999997463140263e+00 -3.0896186324028779e-02 -5.9471287425644570e-01 +5.9271949256613950e-03
-7.8999999999999879e+00 +7.9182327190085529e+00 +0.0000000000000000e+00 -7.8999997364311589e+00 -3.0896135181421116e-02 -5.9471344902120693e-01 +5.9273268819431410e-03
-7.9999999999999876e+00 +7.9181876942780409e+00 +0.0000000000000000e+00 -7.9999997262948925e+00 -3.0896098007175164e-02 -5.9471402033199194e-01 +5.9274597280477154e-03
-8.0999999999999872e+00 +7.9181421031855077e+00 +0.0000000000000000e+00 -8.0999997159020189e+00 -3.0896075453519887e-02 -5.9471458678778344e-01 +5.9275935206730039e-03
-8.1999999999999869e+00 +7.9180959457304150e+00 +0.0000000000000000e+00 -8.1999997052493310e+00 -3.0896066985693450e-02 -5.9471514832289407e-01 +5.9277282402674632e-03
-8.2999999999999865e+00 +7.9180492219122298e+00 +0.0000000000000000e+00 -8.2999996943336214e+00 -3.0896071772148974e-02 -5.9471570520549943e-01 +5.9278638481943761e-03
-8.3999999999999861e+00 +7.9180019317304238e+00 +0.0000000000000000e+00 -8.3999996831516803e+00 -3.0896088981298673e-02 -5.9471625770381287e-01 +5.9280003057910029e-03
-8.4999999999999858e+00 +7.9179540751844719e+00 +0.0000000000000000e+00 -8.4999996717003015e+00 -3.0896117781512428e-02 -5.9471680608608679e-01 +5.9281375743676576e-03
-8.5999999999999854e+00 +7.9179056522738538e+00 +0.0000000000000000e+00 -8.5999996599762749e+00 -3.0896157341116493e-02 -5.9471735062061348e-01 +5.9282756152067703e-03
-8.6999999999999851e+00 +7.9178566629980516e+00 +0.0000000000000000e+00 -8.6999996479763944e+00 -3.0896206828392038e-02 -5.9471789157572674e-01 +5.9284143895619694e-03
-8.7999999999999847e+00 +7.9178071073565519e+00 +0.0000000000000000e+00 -8.7999996356974517e+00 -3.0896265411573819e-02 -5.9471842921980167e-01 +5.9285538586571433e-03
-8.8999999999999844e+00 +7.9177569853488450e+00 +0.0000000000000000e+00 -8.8999996231362388e+00 -3.0896332258848750e-02 -5.9471896382125766e-01 +5.9286939836855216e-03
-8.9999999999999840e+00 +7.9177062969744227e+00 +0.0000000000000000e+00 -8.9999996102895476e+00 -3.0896406538354602e-02 -5.9471949564855775e-01 +5.9288347258087499e-03
-9.0999999999999837e+00 +7.9176550422327798e+00 +0.0000000000000000e+00 -9.0999995971541701e+00 -3.0896487418178534e-02 -5.9472002497021037e-01 +5.9289760461559452e-03
-9.1999999999999833e+00 +7.9176032211234144e+00 +0.0000000000000000e+00 -9.1999995837268980e+00 -3.0896574066355792e-02 -5.9472055205477148e-01 +5.9291179058227911e-03
-9.2999999999999829e+00 +7.9175508336458265e+00 +0.0000000000000000e+00 -9.2999995700045250e+00 -3.0896665650868300e-02 -5.9472107717084333e-01 +5.9292602658705890e-03
-9.3999999999999826e+00 +7.9174978797995168e+00 +0.0000000000000000e+00 -9.3999995559838414e+00 -3.0896761339643253e-02 -5.9472160058707746e-01 +5.9294030873253464e-03
-9.4999999999999822e+00 +7.9174443595839890e+00 +0.0000000000000000e+00 -9.4999995416616390e+00 -3.0896860300551783e-02 -5.9472212257217572e-01 +5.9295463311768359e-03
-9.5999999999999819e+00 +7.9173902729987482e+00 +0.0000000000000000e+00 -9.5999995270347114e+00 -3.0896961701407568e-02 -5.9472264339488989e-01 +5.9296899583776777e-03
-9.6999999999999815e+00 +7.9173356200432998e+00 +0.0000000000000000e+00 -9.6999995120998488e+00 -3.0897064709965463e-02 -5.9472316332402497e-01 +5.9298339298424103e-03
-9.7999999999999812e+00 +7.9172804007171500e+00 +0.0000000000000000e+00 -9.7999994968538449e+00 -3.0897168493920091e-02 -5.9472368262843767e-01 +5.9299782064465515e-03
-9.8999999999999808e+00 +7.9172246150198058e+00 +0.0000000000000000e+00 -9.8999994812934897e+00 -3.0897272220904496e-02 -5.9472420157704042e-01 +5.9301227490256882e-03
-9.9999999999999805e+00 +7.9171682629507751e+00 +0.0000000000000000e+00 -9.9999994654155770e+00 -3.0897375058488771e-02 -5.9472472043879931e-01 +5.9302675183745294e-03
-1.0099999999999980e+01 +7.9171113445095660e+00 +0.0000000000000000e+00 -1.0099999449216897e+01 -3.0897476302133648e-02 -5.9472523952439760e-01 +5.9304124593626819e-03
-1.0199999999999980e+01 +7.9170538596956854e+00 +0.0000000000000000e+00 -1.0199999432694243e+01 -3.0897575759104942e-02 -5.9472575931115890e-01 +5.9305574533026293e-03
-1.0299999999999979e+01 +7.9169958085086405e+00 +0.0000000000000000e+00 -1.0299999415844406e+01 -3.0897673364678913e-02 -5.9472628031795904e-01 +5.9307023656346818e-03
-1.0399999999999979e+01 +7.9169371909479365e+00 +0.0000000000000000e+00 -1.0399999398664178e+01 -3.0897769054195331e-02 -5.9472680306354542e-01 +5.9308470618162218e-03
-1.0499999999999979e+01 +7.9168780070130778e+00 +0.0000000000000000e+00 -1.0499999381150353e+01 -3.0897862763059329e-02 -5.9472732806653561e-01 +5.9309914073222723e-03
-1.0599999999999978e+01 +7.9168182567035661e+00 +0.0000000000000000e+00 -1.0599999363299720e+01 -3.0897954426743108e-02 -5.9472785584541288e-01 +5.9311352676460118e-03
-1.0699999999999978e+01 +7.9167579400189005e+00 +0.0000000000000000e+00 -1.0699999345109072e+01 -3.0898043980787729e-02 -5.9472838691852281e-01 +5.9312785082993400e-03
-1.0799999999999978e+01 +7.9166970569585775e+00 +0.0000000000000000e+00 -1.0799999326575202e+01 -3.0898131360804878e-02 -5.9472892180406989e-01 +5.9314209948134041e-03
-1.0899999999999977e+01 +7.9166356075220889e+00 +0.0000000000000000e+00 -1.0899999307694900e+01 -3.0898216502478617e-02 -5.9472946102011526e-01 +5.9315625927391534e-03
-1.0999999999999977e+01 +7.9165735917089242e+00 +0.0000000000000000e+00 -1.0999999288464959e+01 -3.0898299341567181e-02 -5.9473000508457174e-01 +5.9317031676478765e-03
-1.1099999999999977e+01 +7.9165110095185662e+00 +0.0000000000000000e+00 -1.1099999268882170e+01 -3.0898379813904701e-02 -5.9473055451520151e-01 +5.9318425851317474e-03
-1.1199999999999976e+01 +7.9164478609504947e+00 +0.0000000000000000e+00 -1.1199999248943326e+01 -3.0898457855403006e-02 -5.9473110982961286e-01 +5.9319807108043701e-03
-1.1299999999999976e+01 +7.9163841460041819e+00 +0.0000000000000000e+00 -1.1299999228645218e+01 -3.0898533402053369e-02 -5.9473167154525575e-01 +5.9321174103013196e-03
-1.1399999999999975e+01 +7.9163198646790951e+00 +0.0000000000000000e+00 -1.1399999207984639e+01 -3.0898606389928269e-02 -5.9473224017941928e-01 +5.9322525492806833e-03
-1.1499999999999975e+01 +7.9162550169746950e+00 +0.0000000000000000e+00 -1.1499999186958378e+01 -3.0898676755183211e-02 -5.9473281624922847e-01 +5.9323859934236186e-03
-1.1599999999999975e+01 +7.9161896028904346e+00 +0.0000000000000000e+00 -1.1599999165563231e+01 -3.0898744434058410e-02 -5.9473340027164134e-01 +5.9325176084348832e-03
-1.1699999999999974e+01 +7.9161236224257605e+00 +0.0000000000000000e+00 -1.1699999143795987e+01 -3.0898809362880607e-02 -5.9473399276344330e-01 +5.9326472600433793e-03
