# trajectory
# s[mm] rx[mm] ry[mm] rz[mm] px[rad] py[rad] pz[rad]
0.0000000000000000e+00 +8.1649999999999991e+00 +0.0000000000000000e+00 +0.0000000000000000e+00 +0.0000000000000000e+00 +0.0000000000000000e+00 +1.0000000000000000e+00
1.0000000000000001e-01 +8.1649997170660189e+00 +0.0000000000000000e+00 +9.9999999999466321e-02 -5.6586798716999635e-06 +0.0000000000000000e+00 +9.9999999998398970e-01
2.0000000000000001e-01 +8.1649988682639751e+00 +0.0000000000000000e+00 +1.9999999999573059e-01 -1.1317361246267714e-05 +0.0000000000000000e+00 +9.9999999993595867e-01
3.0000000000000004e-01 +8.1649974535937186e+00 +0.0000000000000000e+00 +2.9999999998559074e-01 -1.6976044125755551e-05 +0.0000000000000000e+00 +9.9999999985590693e-01
4.0000000000000002e-01 +8.1649954730550984e+00 +0.0000000000000000e+00 +3.9999999996584468e-01 -2.2634728516144096e-05 +0.0000000000000000e+00 +9.9999999974383447e-01
5.0000000000000000e-01 +8.1649929266479635e+00 +0.0000000000000000e+00 +4.9999999993329031e-01 -2.8293414427342383e-05 +0.0000000000000000e+00 +9.9999999959974128e-01
5.9999999999999998e-01 +8.1649898143721611e+00 +0.0000000000000000e+00 +5.9999999988472563e-01 -3.3952101873187975e-05 +0.0000000000000000e+00 +9.9999999942362727e-01
6.9999999999999996e-01 +8.1649861362275367e+00 +0.0000000000000000e+00 +6.9999999981694849e-01 -3.9610790871447062e-05 +0.0000000000000000e+00 +9.9999999921549254e-01
7.9999999999999993e-01 +8.1649818922139339e+00 +0.0000000000000000e+00 +7.9999999972675684e-01 -4.5269481443814560e-05 +0.0000000000000000e+00 +9.9999999897533698e-01
8.9999999999999991e-01 +8.1649770823311947e+00 +0.0000000000000000e+00 +8.9999999961094856e-01 -5.0928173615914177e-05 +0.0000000000000000e+00 +9.9999999870316048e-01
9.9999999999999989e-01 +8.1649717065791574e+00 +0.0000000000000000e+00 +9.9999999946632157e-01 -5.6586867417298515e-05 +0.0000000000000000e+00 +9.9999999839896314e-01
1.0999999999999999e+00 +8.1649657649576568e+00 +0.0000000000000000e+00 +1.0999999992896738e+00 -6.2245562881449131e-05 +0.0000000000000000e+00 +9.9999999806274487e-01
1.2000000000000000e+00 +8.1649592574665242e+00 +0.0000000000000000e+00 +1.1999999990778032e+00 -6.7904260045776612e-05 +0.0000000000000000e+00 +9.9999999769450565e-01
1.3000000000000000e+00 +8.1649521841055890e+00 +0.0000000000000000e+00 +1.2999999988275075e+00 -7.3562958951620664e-05 +0.0000000000000000e+00 +9.9999999729424549e-01
1.4000000000000001e+00 +8.1649445448746736e+00 +0.0000000000000000e+00 +1.3999999985355849e+00 -7.9221659644250117e-05 +0.0000000000000000e+00 +9.9999999686196428e-01
1.5000000000000002e+00 +8.1649363397735986e+00 +0.0000000000000000e+00 +1.4999999981988330e+00 -8.4880362172863030e-05 +0.0000000000000000e+00 +9.9999999639766202e-01
1.6000000000000003e+00 +8.1649275688021756e+00 +0.0000000000000000e+00 +1.5999999978140500e+00 -9.0539066590586718e-05 +0.0000000000000000e+00 +9.9999999590133870e-01
1.7000000000000004e+00 +8.1649182319602147e+00 +0.0000000000000000e+00 +1.6999999973780335e+00 -9.6197772954477768e-05 +0.0000000000000000e+00 +9.9999999537299422e-01
1.8000000000000005e+00 +8.1649083292475169e+00 +0.0000000000000000e+00 +1.7999999968875815e+00 -1.0185648132552210e-04 +0.0000000000000000e+00 +9.9999999481262858e-01
1.9000000000000006e+00 +8.1648978606638796e+00 +0.0000000000000000e+00 +1.8999999963394918e+00 -1.0751519176863502e-04 +0.0000000000000000e+00 +9.9999999422024177e-01
2.0000000000000004e+00 +8.1648868262090915e+00 +0.0000000000000000e+00 +1.9999999957305623e+00 -1.1317390435266117e-04 +0.0000000000000000e+00 +9.9999999359583369e-01
2.1000000000000005e+00 +8.1648752258829358e+00 +0.0000000000000000e+00 +2.0999999950575909e+00 -1.1883261915058164e-04 +0.0000000000000000e+00 +9.9999999293940434e-01
2.2000000000000006e+00 +8.1648630596851852e+00 +0.0000000000000000e+00 +2.1999999943173756e+00 -1.2449133624179118e-04 +0.0000000000000000e+00 +9.9999999225095360e-01
2.3000000000000007e+00 +8.1648503276156070e+00 +0.0000000000000000e+00 +2.2999999935067144e+00 -1.3015005571437535e-04 +0.0000000000000000e+00 +9.9999999153048147e-01
2.4000000000000008e+00 +8.1648370296739596e+00 +0.0000000000000000e+00 +2.3999999926224045e+00 -1.3580877766531754e-04 +0.0000000000000000e+00 +9.9999999077798796e-01
2.5000000000000009e+00 +8.1648231658599890e+00 +0.0000000000000000e+00 +2.4999999916612445e+00 -1.4146750220049879e-04 +0.0000000000000000e+00 +9.9999998999347295e-01
2.6000000000000010e+00 +8.1648087361734305e+00 +0.0000000000000000e+00 +2.5999999906200317e+00 -1.4712622943469770e-04 +0.0000000000000000e+00 +9.9999998917693633e-01
2.7000000000000011e+00 +8.1647937406140088e+00 +0.0000000000000000e+00 +2.6999999894955642e+00 -1.5278495949159034e-04 +0.0000000000000000e+00 +9.9999998832837811e-01
2.8000000000000012e+00 +8.1647781791814342e+00 +0.0000000000000000e+00 +2.7999999882846400e+00 -1.5844369250375012e-04 +0.0000000000000000e+00 +9.9999998744779817e-01
2.9000000000000012e+00 +8.1647620518754049e+00 +0.0000000000000000e+00 +2.8999999869840565e+00 -1.6410242861264758e-04 +0.0000000000000000e+00 +9.9999998653519651e-01
3.0000000000000013e+00 +8.1647453586956029e+00 +0.0000000000000000e+00 +2.9999999855906117e+00 -1.6976116796865026e-04 +0.0000000000000000e+00 +9.9999998559057290e-01
3.1000000000000014e+00 +8.1647280996416978e+00 +0.0000000000000000e+00 +3.0999999841011037e+00 -1.7541991073102253e-04 +0.0000000000000000e+00 +9.9999998461392747e-01
3.2000000000000015e+00 +8.1647102747133378e+00 +0.0000000000000000e+00 +3.1999999825123298e+00 -1.8107865706792540e-04 +0.0000000000000000e+00 +9.9999998360525999e-01
3.3000000000000016e+00 +8.1646918839101588e+00 +0.0000000000000000e+00 +3.2999999808210880e+00 -1.8673740715641622e-04 +0.0000000000000000e+00 +9.9999998256457034e-01
3.4000000000000017e+00 +8.1646729272317753e+00 +0.0000000000000000e+00 +3.3999999790241762e+00 -1.9239616118244858e-04 +0.0000000000000000e+00 +9.9999998149185854e-01
3.5000000000000018e+00 +8.1646534046777841e+00 +0.0000000000000000e+00 +3.4999999771183923e+00 -1.9805491934087201e-04 +0.0000000000000000e+00 +9.9999998038712434e-01
3.6000000000000019e+00 +8.1646333162477625e+00 +0.0000000000000000e+00 +3.5999999751005336e+00 -2.0371368183543174e-04 +0.0000000000000000e+00 +9.9999997925036777e-01
3.7000000000000020e+00 +8.1646126619412662e+00 +0.0000000000000000e+00 +3.6999999729673982e+00 -2.0937244887876840e-04 +0.0000000000000000e+00 +9.9999997808158869e-01
3.8000000000000020e+00 +8.1645914417578282e+00 +0.0000000000000000e+00 +3.7999999707157839e+00 -2.1503122069241781e-04 +0.0000000000000000e+00 +9.9999997688078690e-01
3.9000000000000021e+00 +8.1645696556969618e+00 +0.0000000000000000e+00 +3.8999999683424882e+00 -2.2068999750681065e-04 +0.0000000000000000e+00 +9.9999997564796228e-01
4.0000000000000018e+00 +8.1645473037581535e+00 +0.0000000000000000e+00 +3.9999999658443088e+00 -2.2634877956127211e-04 +0.0000000000000000e+00 +9.9999997438311472e-01
4.1000000000000014e+00 +8.1645243859408669e+00 +0.0000000000000000e+00 +4.0999999632180435e+00 -2.3200756710308392e-04 +0.0000000000000000e+00 +9.9999997308624411e-01
4.2000000000000011e+00 +8.1645009022445425e+00 +0.0000000000000000e+00 +4.1999999604604898e+00 -2.3766636037716925e-04 +0.0000000000000000e+00 +9.9999997175735023e-01
4.3000000000000007e+00 +8.1644768526685940e+00 +0.0000000000000000e+00 +4.2999999575684456e+00 -2.4332515961577789e-04 +0.0000000000000000e+00 +9.9999997039643296e-01
4.4000000000000004e+00 +8.1644522372124140e+00 +0.0000000000000000e+00 +4.3999999545387087e+00 -2.4898396503754883e-04 +0.0000000000000000e+00 +9.9999996900349220e-01
4.5000000000000000e+00 +8.1644270558753735e+00 +0.0000000000000000e+00 +4.4999999513680766e+00 -2.5464277684751028e-04 +0.0000000000000000e+00 +9.9999996757852772e-01
4.5999999999999996e+00 +8.1644013086568243e+00 +0.0000000000000000e+00 +4.5999999480533464e+00 -2.6030159523708017e-04 +0.0000000000000000e+00 +9.9999996612153930e-01
4.6999999999999993e+00 +8.1643749955561002e+00 +0.0000000000000000e+00 +4.6999999445913163e+00 -2.6596042038406624e-04 +0.0000000000000000e+00 +9.9999996463252683e-01
4.7999999999999989e+00 +8.1643481165725174e+00 +0.0000000000000000e+00 +4.7999999409787844e+00 -2.7161925245266632e-04 +0.0000000000000000e+00 +9.9999996311149020e-01
4.8999999999999986e+00 +8.1643206717053740e+00 +0.0000000000000000e+00 +4.8999999372125469e+00 -2.7727809159346865e-04 +0.0000000000000000e+00 +9.9999996155842930e-01
4.9999999999999982e+00 +8.1642926609539579e+00 +0.0000000000000000e+00 +4.9999999332894021e+00 -2.8293693794345220e-04 +0.0000000000000000e+00 +9.9999995997334390e-01
5.0999999999999979e+00 +8.1642640843175407e+00 +0.0000000000000000e+00 +5.0999999292061480e+00 -2.8859579162598698e-04 +0.0000000000000000e+00 +9.9999995835623379e-01
5.1999999999999975e+00 +8.1642349417953834e+00 +0.0000000000000000e+00 +5.1999999249595819e+00 -2.9425465275083443e-04 +0.0000000000000000e+00 +9.9999995670709885e-01
5.2999999999999972e+00 +8.1642052333867383e+00 +0.0000000000000000e+00 +5.2999999205465009e+00 -2.9991352141414771e-04 +0.0000000000000000e+00 +9.9999995502593897e-01
5.3999999999999968e+00 +8.1641749590908468e+00 +0.0000000000000000e+00 +5.3999999159637024e+00 -3.0557239769847208e-04 +0.0000000000000000e+00 +9.9999995331275393e-01
5.4999999999999964e+00 +8.1641441189069432e+00 +0.0000000000000000e+00 +5.4999999112079845e+00 -3.1123128167274538e-04 +0.0000000000000000e+00 +9.9999995156754362e-01
5.5999999999999961e+00 +8.1641127128342550e+00 +0.0000000000000000e+00 +5.5999999062761443e+00 -3.1689017339229841e-04 +0.0000000000000000e+00 +9.9999994979030793e-01
5.6999999999999957e+00 +8.1640807408720057e+00 +0.0000000000000000e+00 +5.6999999011649791e+00 -3.2254907289885535e-04 +0.0000000000000000e+00 +9.9999994798104663e-01
5.7999999999999954e+00 +8.1640482030194157e+00 +0.0000000000000000e+00 +5.7999998958712862e+00 -3.2820798022053415e-04 +0.0000000000000000e+00 +9.9999994613975962e-01
5.8999999999999950e+00 +8.1640150992757015e+00 +0.0000000000000000e+00 +5.8999998903918636e+00 -3.3386689537184719e-04 +0.0000000000000000e+00 +9.9999994426644678e-01
5.9999999999999947e+00 +8.1639814296400797e+00 +0.0000000000000000e+00 +5.9999998847235085e+00 -3.3952581835370162e-04 +0.0000000000000000e+00 +9.9999994236110790e-01
6.0999999999999943e+00 +8.1639471941117687e+00 +0.0000000000000000e+00 +6.0999998788630183e+00 -3.4518474915381869e-04 +0.0000000000000000e+00 +9.9999994042374296e-01
6.1999999999999940e+00 +8.1639123926899888e+00 +0.0000000000000000e+00 +6.1999998728071901e+00 -3.5084368775134176e-04 +0.0000000000000000e+00 +9.9999993845435176e-01
6.2999999999999936e+00 +8.1638770253739601e+00 +0.0000000000000000e+00 +6.2999998665528212e+00 -3.5650263412144375e-04 +0.0000000000000000e+00 +9.9999993645293417e-01
6.3999999999999932e+00 +8.1638410921629063e+00 +0.0000000000000000e+00 +6.3999998600967096e+00 -3.6216158823574565e-04 +0.0000000000000000e+00 +9.9999993441949009e-01
6.4999999999999929e+00 +8.1638045930560548e+00 +0.0000000000000000e+00 +6.4999998534356518e+00 -3.6782055006231626e-04 +0.0000000000000000e+00 +9.9999993235401941e-01
6.5999999999999925e+00 +8.1637675280526381e+00 +0.0000000000000000e+00 +6.5999998465664458e+00 -3.7347951956567176e-04 +0.0000000000000000e+00 +9.9999993025652201e-01
6.6999999999999922e+00 +8.1637298971518888e+00 +0.0000000000000000e+00 +6.6999998394858888e+00 -3.7913849670677554e-04 +0.0000000000000000e+00 +9.9999992812699778e-01
6.7999999999999918e+00 +8.1636917003530449e+00 +0.0000000000000000e+00 +6.7999998321907782e+00 -3.8479748144303760e-04 +0.0000000000000000e+00 +9.9999992596544662e-01
6.8999999999999915e+00 +8.1636529376553497e+00 +0.0000000000000000e+00 +6.8999998246779111e+00 -3.9045647372831441e-04 +0.0000000000000000e+00 +9.9999992377186842e-01
6.9999999999999911e+00 +8.1636136090580500e+00 +0.0000000000000000e+00 +6.9999998169440847e+00 -3.9611547351290835e-04 +0.0000000000000000e+00 +9.9999992154626305e-01
7.0999999999999908e+00 +8.1635737145603997e+00 +0.0000000000000000e+00 +7.0999998089860963e+00 -4.0177448074356738e-04 +0.0000000000000000e+00 +9.9999991928863041e-01
7.1999999999999904e+00 +8.1635332541616563e+00 +0.0000000000000000e+00 +7.1999998008007431e+00 -4.0743349536348451e-04 +0.0000000000000000e+00 +9.9999991699897040e-01
7.2999999999999901e+00 +8.1634922278610826e+00 +0.0000000000000000e+00 +7.2999997923848223e+00 -4.1309251731229749e-04 +0.0000000000000000e+00 +9.9999991467728289e-01
7.3999999999999897e+00 +8.1634506356579504e+00 +0.0000000000000000e+00 +7.3999997837351321e+00 -4.1875154652608825e-04 +0.0000000000000000e+00 +9.9999991232356777e-01
7.4999999999999893e+00 +8.1634084775515365e+00 +0.0000000000000000e+00 +7.4999997748484688e+00 -4.2441058293738246e-04 +0.0000000000000000e+00 +9.9999990993782495e-01
7.5999999999999890e+00 +8.1633657535411253e+00 +0.0000000000000000e+00 +7.5999997657216296e+00 -4.3006962647514904e-04 +0.0000000000000000e+00 +9.9999990752005441e-01
7.6999999999999886e+00 +8.1633224636260060e+00 +0.0000000000000000e+00 +7.6999997563514118e+00 -4.3572867706479965e-04 +0.0000000000000000e+00 +9.9999990507025593e-01
7.7999999999999883e+00 +8.1632786078054789e+00 +0.0000000000000000e+00 +7.7999997467346134e+00 -4.4138773462818815e-04 +0.0000000000000000e+00 +9.9999990258842952e-01
7.8999999999999879e+00 +8.1632341860788511e+00 +0.0000000000000000e+00 +7.8999997368680308e+00 -4.4704679908361009e-04 +0.0000000000000000e+00 +9.9999990007457518e-01
7.9999999999999876e+00 +8.1631891984454352e+00 +0.0000000000000000e+00 +7.9999997267484613e+00 -4.5270587034580218e-04 +0.0000000000000000e+00 +9.9999989752869267e-01
8.0999999999999872e+00 +8.1631436449045580e+00 +0.0000000000000000e+00 +8.0999997163727020e+00 -4.5836494832647345e-04 +0.0000000000000000e+00 +9.9999989495078201e-01
8.1999999999999869e+00 +8.1630975254555498e+00 +0.0000000000000000e+00 +8.1999997057375502e+00 -4.6402403294015429e-04 +0.0000000000000000e+00 +9.9999989234084308e-01
8.2999999999999865e+00 +8.1630508400977515e+00 +0.0000000000000000e+00 +8.2999996948398032e+00 -4.6968312411004639e-04 +0.0000000000000000e+00 +9.9999988969887588e-01
8.3999999999999861e+00 +8.1630035888305112e+00 +0.0000000000000000e+00 +8.3999996836762580e+00 -4.7534222176855476e-04 +0.0000000000000000e+00 +9.9999988702488019e-01
8.4999999999999858e+00 +8.1629557716531842e+00 +0.0000000000000000e+00 +8.4999996722437121e+00 -4.8100132585728858e-04 +0.0000000000000000e+00 +9.9999988431885600e-01
8.5999999999999854e+00 +8.1629073885651273e+00 +0.0000000000000000e+00 +8.5999996605389626e+00 -4.8666043632706148e-04 +0.0000000000000000e+00 +9.9999988158080333e-01
8.6999999999999851e+00 +8.1628584395657064e+00 +0.0000000000000000e+00 +8.6999996485588049e+00 -4.9231955313789233e-04 +0.0000000000000000e+00 +9.9999987881072194e-01
8.7999999999999847e+00 +8.1628089246542892e+00 +0.0000000000000000e+00 +8.7999996363000381e+00 -4.9797867625900555e-04 +0.0000000000000000e+00 +9.9999987600861184e-01
8.8999999999999844e+00 +8.1627588438302450e+00 +0.0000000000000000e+00 +8.8999996237594594e+00 -5.0363780566883213e-04 +0.0000000000000000e+00 +9.9999987317447281e-01
8.9999999999999840e+00 +8.1627081970929467e+00 +0.0000000000000000e+00 +8.9999996109338660e+00 -5.0929694135500980e-04 +0.0000000000000000e+00 +9.9999987030830484e-01
9.0999999999999837e+00 +8.1626569844417656e+00 +0.0000000000000000e+00 +9.0999995978200534e+00 -5.1495608331438415e-04 +0.0000000000000000e+00 +9.9999986741010782e-01
9.1999999999999833e+00 +8.1626052058760745e+00 +0.0000000000000000e+00 +9.1999995844148206e+00 -5.2061523155300896e-04 +0.0000000000000000e+00 +9.9999986447988165e-01
9.2999999999999829e+00 +8.1625528613952447e+00 +0.0000000000000000e+00 +9.2999995707149630e+00 -5.2627438608614685e-04 +0.0000000000000000e+00 +9.9999986151762621e-01
9.3999999999999826e+00 +8.1624999509986456e+00 +0.0000000000000000e+00 +9.3999995567172778e+00 -5.3193354693827034e-04 +0.0000000000000000e+00 +9.9999985852334139e-01
9.4999999999999822e+00 +8.1624464746856447e+00 +0.0000000000000000e+00 +9.4999995424185624e+00 -5.3759271414306222e-04 +0.0000000000000000e+00 +9.9999985549702697e-01
9.5999999999999819e+00 +8.1623924324556043e+00 +0.0000000000000000e+00 +9.5999995278156156e+00 -5.4325188774341645e-04 +0.0000000000000000e+00 +9.9999985243868295e-01
9.6999999999999815e+00 +8.1623378243078815e+00 +0.0000000000000000e+00 +9.6999995129052330e+00 -5.4891106779143882e-04 +0.0000000000000000e+00 +9.9999984934830910e-01
9.7999999999999812e+00 +8.1622826502418295e+00 +0.0000000000000000e+00 +9.7999994976842100e+00 -5.5457025434844779e-04 +0.0000000000000000e+00 +9.9999984622590532e-01
9.8999999999999808e+00 +8.1622269102567930e+00 +0.0000000000000000e+00 +9.8999994821493456e+00 -5.6022944748497549e-04 +0.0000000000000000e+00 +9.9999984307147138e-01
9.9999999999999805e+00 +8.1621706043521112e+00 +0.0000000000000000e+00 +9.9999994662974370e+00 -5.6588864728076801e-04 +0.0000000000000000e+00 +9.9999983988500718e-01
1.0099999999999980e+01 +8.1621137325271125e+00 +0.0000000000000000e+00 +1.0099999450125280e+01 -5.7154785382415054e-04 +0.0000000000000000e+00 +9.9999983666651260e-01
1.0199999999999980e+01 +8.1620562947811184e+00 +0.0000000000000000e+00 +1.0199999433629671e+01 -5.7720706720502848e-04 +0.0000000000000000e+00 +9.9999983341598742e-01
1.0299999999999979e+01 +8.1619982911134414e+00 +0.0000000000000000e+00 +1.0299999416807410e+01 -5.8286628750788840e-04 +0.0000000000000000e+00 +9.9999983013343152e-01
1.0399999999999979e+01 +8.1619397215233835e+00 +0.0000000000000000e+00 +1.0399999399655290e+01 -5.8852551481116061e-04 +0.0000000000000000e+00 +9.9999982681884469e-01
1.0499999999999979e+01 +8.1618805860102430e+00 +0.0000000000000000e+00 +1.0499999382170110e+01 -5.9418474918721844e-04 +0.0000000000000000e+00 +9.9999982347222682e-01
1.0599999999999978e+01 +8.1618208845733076e+00 +0.0000000000000000e+00 +1.0599999364348667e+01 -5.9984399070237709e-04 +0.0000000000000000e+00 +9.9999982009357768e-01
1.0699999999999978e+01 +8.1617606172118613e+00 +0.0000000000000000e+00 +1.0699999346187758e+01 -6.0550323941689296e-04 +0.0000000000000000e+00 +9.9999981668289717e-01
1.0799999999999978e+01 +8.1616997839251813e+00 +0.0000000000000000e+00 +1.0799999327684178e+01 -6.1116249538496260e-04 +0.0000000000000000e+00 +9.9999981324018516e-01
1.0899999999999977e+01 +8.1616383847125409e+00 +0.0000000000000000e+00 +1.0899999308834726e+01 -6.1682175865472165e-04 +0.0000000000000000e+00 +9.9999980976544145e-01
1.0999999999999977e+01 +8.1615764195732066e+00 +0.0000000000000000e+00 +1.0999999289636198e+01 -6.2248102926824379e-04 +0.0000000000000000e+00 +9.9999980625866580e-01
1.1099999999999977e+01 +8.1615138885064411e+00 +0.0000000000000000e+00 +1.1099999270085391e+01 -6.2814030726153979e-04 +0.0000000000000000e+00 +9.9999980271985822e-01
1.1199999999999976e+01 +8.1614507915115073e+00 +0.0000000000000000e+00 +1.1199999250179102e+01 -6.3379959266455653e-04 +0.0000000000000000e+00 +9.9999979914901849e-01
1.1299999999999976e+01 +8.1613871285876609e+00 +0.0000000000000000e+00 +1.1299999229914128e+01 -6.3945888550117562e-04 +0.0000000000000000e+00 +9.9999979554614649e-01
1.1399999999999975e+01 +8.1613228997341594e+00 +0.0000000000000000e+00 +1.1399999209287264e+01 -6.4511818578921255e-04 +0.0000000000000000e+00 +9.9999979191124200e-01
1.1499999999999975e+01 +8.1612581049502548e+00 +0.0000000000000000e+00 +1.1499999188295309e+01 -6.5077749354041552e-04 +0.0000000000000000e+00 +9.9999978824430502e-01
1.1599999999999975e+01 +8.1611927442352012e+00 +0.0000000000000000e+00 +1.1599999166935058e+01 -6.5643680876046413e-04 +0.0000000000000000e+00 +9.9999978454533534e-01
1.1699999999999974e+01 +8.1611268175882525e+00 +0.0000000000000000e+00 +1.1699999145203309e+01 -6.6209613144896839e-04 +0.0000000000000000e+00 +9.9999978081433283e-01
1.1799999999999974e+01 +8.1610603250086626e+00 +0.0000000000000000e+00 +1.1799999123096857e+01 -6.6775546159946733e-04 +0.0000000000000000e+00 +9.9999977705129739e-01
