# multipoles
# s[mm] polynom_b[n=0][T/m^n] polynom_b[n=1][T/m^n] polynom_b[n=2][T/m^n] polynom_b[n=3][T/m^n] polynom_b[n=4][T/m^n] polynom_b[n=5][T/m^n] polynom_b[n=6][T/m^n] 
+0.0000000000000000e+00 -5.3628717442908236e-01 +7.3487991556887575e+00 -2.3469254815685281e-01 -3.1677403586919851e+01 -4.2482118762916862e+03 +4.8727694162351458e+04 +1.3925762232037133e+07 
+1.0000000000000001e-01 -5.3628700488623471e-01 +7.3488044017473539e+00 -2.3510169838205766e-01 -3.1546381251910113e+01 -4.2843550000599716e+03 +4.7435940834275738e+04 +1.4157026150498349e+07 
+2.0000000000000001e-01 -5.3628684993522724e-01 +7.3488091987361566e+00 -2.3499587200170752e-01 -3.1393365421811019e+01 -4.3255344586497649e+03 +4.6053067466972898e+04 +1.4398981029146057e+07 
+3.0000000000000004e-01 -5.3628670920467314e-01 +7.3488135819943601e+00 -2.3444171619141393e-01 -3.1220365053276616e+01 -4.3707725927371084e+03 +4.4587900072720418e+04 +1.4647966419653645e+07 
+4.0000000000000002e-01 -5.3628658232320348e-01 +7.3488175868535413e+00 -2.3350587641381360e-01 -3.1029388897955428e+01 -4.4190917742244646e+03 +4.3049263576358797e+04 +1.4900322018002721e+07 
+5.0000000000000000e-01 -5.3628646891942056e-01 +7.3488212486470337e+00 -2.3225500156731604e-01 -3.0822445798171874e+01 -4.4695143121360279e+03 +4.1445983587072369e+04 +1.5152387225925194e+07 
+5.9999999999999998e-01 -5.3628636862196188e-01 +7.3488246027075785e+00 -2.3075573595246068e-01 -3.0601544583471263e+01 -4.5210626057239097e+03 +3.9786885691044132e+04 +1.5400501881863285e+07 
+6.9999999999999996e-01 -5.3628628105943332e-01 +7.3488276843606508e+00 -2.2907472834902962e-01 -3.0368693910616429e+01 -4.5727589663457438e+03 +3.8080794603776507e+04 +1.5641005397363840e+07 
+7.9999999999999993e-01 -5.3628620586046172e-01 +7.3488305289346885e+00 -2.2727862439653929e-01 -3.0125902530824519e+01 -4.6236257688821743e+03 +3.6336535633105319e+04 +1.5870237496060651e+07 
+8.9999999999999991e-01 -5.3628614265365049e-01 +7.3488331717583746e+00 -2.2543407295649368e-01 -2.9875179226475836e+01 -4.6726853255101150e+03 +3.4562934347510745e+04 +1.6084537598618180e+07 
+9.9999999999999989e-01 -5.3628609106762637e-01 +7.3488356481625985e+00 -2.2360771997565920e-01 -2.9618532865027838e+01 -4.7189600032862418e+03 +3.2768816864136526e+04 +1.6280245384919250e+07 
+1.0999999999999999e+00 -5.3628605073100577e-01 +7.3488379934723795e+00 -2.2186621250057476e-01 -2.9357972151318712e+01 -4.7614721479440050e+03 +3.0963008373537643e+04 +1.6453700431649452e+07 
+1.2000000000000000e+00 -5.3628602127240899e-01 +7.3488402430223676e+00 -2.2027619688344693e-01 -2.9095506091306227e+01 -4.7992441211723017e+03 +2.9154335853575885e+04 +1.6601242398564594e+07 
+1.3000000000000000e+00 -5.3628600232045076e-01 +7.3488424321471797e+00 -2.1890432049492531e-01 -2.8833143700848151e+01 -4.8312982580921371e+03 +2.7351626344846838e+04 +1.6719210798630232e+07 
+1.4000000000000001e+00 -5.3628599350375461e-01 +7.3488445961835502e+00 -2.1781722926553940e-01 -2.8572894070260340e+01 -4.8566569246117942e+03 +2.5563707319720892e+04 +1.6803945300539646e+07 
+1.5000000000000002e+00 -5.3628599445094594e-01 +7.3488467704697733e+00 -2.1708156873349163e-01 -2.8316766351567487e+01 -4.8743424907302515e+03 +2.3799406607084009e+04 +1.6851785583290931e+07 
+1.6000000000000003e+00 -5.3628600479062138e-01 +7.3488489903558714e+00 -2.1676398814457770e-01 -2.8066770037189123e+01 -4.8833772536431852e+03 +2.2067553961917849e+04 +1.6859070972747318e+07 
+1.7000000000000004e+00 -5.3628602415144799e-01 +7.3488512911890105e+00 -2.1693112756536195e-01 -2.7824914556788336e+01 -4.8827836834673599e+03 +2.0376978760969367e+04 +1.6822141613054954e+07 
+1.8000000000000005e+00 -5.3628605216202641e-01 +7.3488537083260841e+00 -2.1764963543114776e-01 -2.7593209619022868e+01 -4.8715840891125299e+03 +1.8736511921187470e+04 +1.6737336876971859e+07 
+1.9000000000000006e+00 -5.3628608845100256e-01 +7.3488562771285970e+00 -2.1898615422906698e-01 -2.7373665081918084e+01 -4.8488008873228300e+03 +1.7154985188732309e+04 +1.6600996633652382e+07 
+2.0000000000000004e+00 -5.3628613264700242e-01 +7.3488590329670087e+00 -2.2100732878884261e-01 -2.7168291059969430e+01 -4.8134564499468470e+03 +1.5641231693660782e+04 +1.6409460540226750e+07 
+2.1000000000000005e+00 -5.3628618446430054e-01 +7.3488619926393444e+00 -2.2375641223829690e-01 -2.6978493471109552e+01 -4.7649337932536509e+03 +1.4201499201092989e+04 +1.6160522050516553e+07 
+2.2000000000000006e+00 -5.3628624395926783e-01 +7.3488650945748013e+00 -2.2718290293728757e-01 -2.6803260733396144e+01 -4.7040652866956034e+03 +1.2831868834531146e+04 +1.5857817577147383e+07 
+2.3000000000000007e+00 -5.3628631127368764e-01 +7.3488682565859449e+00 -2.3121280727939975e-01 -2.6640976595810571e+01 -4.6320473940526654e+03 +1.1525924486897184e+04 +1.5506451381077087e+07 
+2.4000000000000008e+00 -5.3628638654933403e-01 +7.3488713964821804e+00 -2.3577213230349880e-01 -2.6490024733555938e+01 -4.5500765667516780e+03 +1.0277249663190923e+04 +1.5111527660365568e+07 
+2.5000000000000009e+00 -5.3628646992801976e-01 +7.3488744320675163e+00 -2.4078688037846366e-01 -2.6348788683157188e+01 -4.4593493442208310e+03 +9.0794270977211836e+03 +1.4678151028375268e+07 
+2.6000000000000010e+00 -5.3628656155147414e-01 +7.3488772811455778e+00 -2.4618306339465476e-01 -2.6215651999312531e+01 -4.3610620900335507e+03 +7.9260396975978447e+03 +1.4211425273455817e+07 
+2.7000000000000011e+00 -5.3628666156151128e-01 +7.3488798615157434e+00 -2.5188668216465981e-01 -2.6088998131217995e+01 -4.2564113793336646e+03 +6.8106698037703973e+03 +1.3716455189161196e+07 
+2.8000000000000012e+00 -5.3628677009986558e-01 +7.3488820909715722e+00 -2.5782374730697166e-01 -2.5967210382356036e+01 -4.1465936041427585e+03 +5.7268989660450052e+03 +1.3198344706473067e+07 
+2.9000000000000012e+00 -5.3628688730829421e-01 +7.3488838873055355e+00 -2.6392026594804213e-01 -2.5848672049833208e+01 -4.0328052243434431e+03 +4.6683087606825748e+03 +1.2662198078470292e+07 
+3.0000000000000013e+00 -5.3628701332856632e-01 +7.3488851683001615e+00 -2.7010224305513636e-01 -2.5731766169260357e+01 -3.9162427459897817e+03 +3.6284793198833677e+03 +1.2113119789535047e+07 
+3.1000000000000014e+00 -5.3628714830240276e-01 +7.3488858517351829e+00 -2.7629568930776666e-01 -2.5614875719740844e+01 -3.7981025678599358e+03 +2.6009905176409570e+03 +1.1556213813481878e+07 
+3.2000000000000015e+00 -5.3628729237154649e-01 +7.3488858553813596e+00 -2.8242661204584352e-01 -2.5496383445675679e+01 -3.6795811562147960e+03 +1.5794209359094100e+03 +1.0996584453508204e+07 
+3.3000000000000016e+00 -5.3628744567772690e-01 +7.3488850970046373e+00 -2.8842101940868636e-01 -2.5374671977310602e+01 -3.5618749684953214e+03 +5.5734856815719070e+02 +1.0439335983749904e+07 
+3.4000000000000017e+00 -5.3628760836264999e-01 +7.3488834943633394e+00 -2.9420492202615367e-01 -2.5248123757767797e+01 -3.4461804164209866e+03 -4.7164957582189191e+02 +9.8895724614646770e+06 
+3.5000000000000018e+00 -5.3628778056803039e-01 +7.3488809652069538e+00 -2.9970432871889863e-01 -2.5115120998780174e+01 -3.3336939524146942e+03 -1.5139977539283441e+03 +9.3523981515062973e+06 
+3.6000000000000019e+00 -5.3628796243556109e-01 +7.3488774272751511e+00 -3.0484525057268835e-01 -2.4974045656198626e+01 -3.2256119885451822e+03 -2.5761216144541918e+03 +8.8329171295239944e+06 
+3.7000000000000020e+00 -5.3628815410693687e-01 +7.3488727983019535e+00 -3.0955369744872230e-01 -2.4823279553307920e+01 -3.1231309664931227e+03 -3.6644474841994652e+03 +8.3362336243806742e+06 
+3.8000000000000020e+00 -5.3628835572381783e-01 +7.3488669960088115e+00 -3.1375568252563973e-01 -2.4661204181170600e+01 -3.0274472737786641e+03 -4.7854035071332428e+03 +7.8674516282708077e+06 
+3.9000000000000021e+00 -5.3628856742787190e-01 +7.3488599381096780e+00 -3.1737721808130515e-01 -2.4486200842211851e+01 -2.9397573126676316e+03 -5.9454188280322642e+03 +7.4316751910499390e+06 
+4.0000000000000018e+00 -5.3628878936074820e-01 +7.3488515423052148e+00 -3.2034431713801526e-01 -2.4296650490408645e+01 -2.8612574850162864e+03 -7.1509245004355098e+03 +7.0340083936115112e+06 
+4.1000000000000014e+00 -5.3628902147429480e-01 +7.3488417290997612e+00 -3.2259921645955114e-01 -2.4091018411865122e+01 -2.7929378536763970e+03 -8.4081109996936939e+03 +6.6787868354113959e+06 
+4.2000000000000011e+00 -5.3628926296051316e-01 +7.3488304306342833e+00 -3.2414921729372898e-01 -2.3868003818183755e+01 -2.7349593318897632e+03 -9.7228142776992063e+03 +6.3672585559567567e+06 
+4.3000000000000007e+00 -5.3628951282125470e-01 +7.3488175820511676e+00 -3.2501793319293870e-01 -2.3626338051653040e+01 -2.6872747105431044e+03 -1.1100937850545783e+04 +6.0998970195303075e+06 
+4.4000000000000004e+00 -5.3628977005830492e-01 +7.3488031184990810e+00 -3.2522898608494799e-01 -2.3364752558073928e+01 -2.6498366197403143e+03 -1.2548384855040449e+04 +5.8771749175724853e+06 
+4.5000000000000000e+00 -5.3629003367349815e-01 +7.3487869751347006e+00 -3.2480598978632580e-01 -2.3081978932996996e+01 -2.6225978575490321e+03 -1.4071057814692147e+04 +5.6995657742038351e+06 
+4.5999999999999996e+00 -5.3629030266861999e-01 +7.3487690871112976e+00 -3.2377256470801630e-01 -2.2776748589273758e+01 -2.6055110913589233e+03 -1.5674860551480524e+04 +5.5675424726939527e+06 
+4.6999999999999993e+00 -5.3629057604544172e-01 +7.3487493895941247e+00 -3.2215233128502446e-01 -2.2447793181109070e+01 -2.5985290001083022e+03 -1.7365695806051845e+04 +5.4815779796775263e+06 
+4.7999999999999989e+00 -5.3629085280572508e-01 +7.3487278177456883e+00 -3.1996891069155270e-01 -2.2093844199226773e+01 -2.6016042512440672e+03 -1.9149467518364087e+04 +5.4421452101027379e+06 
+4.8999999999999986e+00 -5.3629113195122313e-01 +7.3487043067392337e+00 -3.1724592463296936e-01 -2.1713633333373323e+01 -2.6146895042762899e+03 -2.1032078796011250e+04 +5.4497170415633712e+06 
+4.9999999999999982e+00 -5.3629141248365009e-01 +7.3486787917518130e+00 -3.1400699826420519e-01 -2.1305892270283834e+01 -2.6377373635595736e+03 -2.3019433102805444e+04 +5.5047661145814322e+06 
+5.0999999999999979e+00 -5.3629169340472937e-01 +7.3486512079673387e+00 -3.1027575513652467e-01 -2.0869352783332449e+01 -2.6707004642348934e+03 -2.5117433727380852e+04 +5.6077652107720776e+06 
+5.1999999999999975e+00 -5.3629197371615500e-01 +7.3486214905730751e+00 -3.0607582130526589e-01 -2.0402746625263763e+01 -2.7135314024633808e+03 -2.7331984425226441e+04 +5.7591869453966245e+06 
+5.2999999999999972e+00 -5.3629225241960288e-01 +7.3485895747671837e+00 -3.0143082440465585e-01 -1.9904805731328427e+01 -2.7661827484518558e+03 -2.9668988280094516e+04 +5.9595038172465758e+06 
+5.3999999999999968e+00 -5.3629252851672127e-01 +7.3485553957531335e+00 -2.9636439445400020e-01 -1.9374262061110709e+01 -2.8286070331448600e+03 -3.2134348613134902e+04 +6.2091881493393127e+06 
+5.4999999999999964e+00 -5.3629280100916921e-01 +7.3485188887372930e+00 -2.9090015908072597e-01 -1.8809847526839878e+01 -2.9007568387701876e+03 -3.4733969406336444e+04 +6.5087125187566495e+06 
+5.5999999999999961e+00 -5.3629306889854889e-01 +7.3484799889440220e+00 -2.8506175252393851e-01 -1.8210294404327861e+01 -2.9825846258744368e+03 -3.7473752992254973e+04 +6.8585489306286173e+06 
+5.6999999999999957e+00 -5.3629333118648459e-01 +7.3484386315969328e+00 -2.7887280453880625e-01 -1.7574334813263736e+01 -3.0740429494957739e+03 -4.0359602993700180e+04 +7.2591698585682893e+06 
+5.7999999999999954e+00 -5.3629358687452688e-01 +7.3483947519298169e+00 -2.7235695381046504e-01 -1.6900701007384544e+01 -3.1750841985020570e+03 -4.3397422732652980e+04 +7.7110469913552059e+06 
+5.8999999999999950e+00 -5.3629383496426031e-01 +7.3483482851879485e+00 -2.6553783316391760e-01 -1.6188125415126002e+01 -3.2856608811599153e+03 -4.6593114974012969e+04 +8.2146526007521115e+06 
+5.9999999999999947e+00 -5.3629407445720056e-01 +7.3482991666252913e+00 -2.5843908335678584e-01 -1.5435340547507334e+01 -3.4057253595364132e+03 -4.9952582478309785e+04 +8.7704582718091123e+06 
+6.0999999999999943e+00 -5.3629430460284877e-01 +7.3482474038675942e+00 -2.5108826500192188e-01 -1.4642284043999320e+01 -3.5350438046904346e+03 -5.3476460379117372e+04 +9.3778685023457129e+06 
+6.1999999999999940e+00 -5.3629452564902647e-01 +7.3481933158241102e+00 -2.4353077493041161e-01 -1.3814253907912986e+01 -3.6726040397137840e+03 -5.7141503995232400e+04 +1.0031880931051534e+07 
+6.2999999999999936e+00 -5.3629473809490424e-01 +7.3481373047841076e+00 -2.3581704317085211e-01 -1.2958023381587871e+01 -3.8171899291786585e+03 -6.0917797755895102e+04 +1.0726351608233197e+07 
+6.3999999999999932e+00 -5.3629494243970777e-01 +7.3480797730467726e+00 -2.2799749621303225e-01 -1.2080366088389590e+01 -3.9675853837174059e+03 -6.4775423569644074e+04 +1.1455136755879462e+07 
+6.4999999999999929e+00 -5.3629513918271343e-01 +7.3480211229122006e+00 -2.2012255719524446e-01 -1.1188055782740500e+01 -4.1225743602769508e+03 -6.8684462252979050e+04 +1.2212092780117055e+07 
+6.5999999999999925e+00 -5.3629532882327524e-01 +7.3479617566858959e+00 -2.1224264338118778e-01 -1.0287866484506148e+01 -4.2809409022712871e+03 -7.2614992735926484e+04 +1.2991076440532956e+07 
+6.6999999999999922e+00 -5.3629551186079516e-01 +7.3479020766759389e+00 -2.0440816922765456e-01 -9.3865723955449614e+00 -4.4414690890664970e+03 -7.6537092546271495e+04 +1.3785944633394621e+07 
+6.7999999999999918e+00 -5.3629568879476919e-01 +7.3478424851942270e+00 -1.9666954079405480e-01 -8.4909479612629646e+00 -4.6029431363060876e+03 -8.0420837382469821e+04 +1.4590554850701621e+07 
+6.8999999999999915e+00 -5.3629586012474939e-01 +7.3477833845594924e+00 -1.8907716194104160e-01 -7.6077679291639102e+00 -4.7641472729601337e+03 -8.4236300852048575e+04 +1.5398764584689103e+07 
+6.9999999999999911e+00 -5.3629602635037543e-01 +7.3477251770901928e+00 -1.8168142868100759e-01 -6.7438071848979115e+00 -4.9238658581260916e+03 -8.7953555298223393e+04 +1.6204431907524589e+07 
+7.0999999999999908e+00 -5.3629618797135736e-01 +7.3476682651123273e+00 -1.7453273271377950e-01 -5.9058409638033451e+00 -5.0808833050332059e+03 -9.1542670618762088e+04 +1.7001415087697327e+07 
+7.1999999999999904e+00 -5.3629634548749539e-01 +7.3476130509538811e+00 -1.6768145859344871e-01 -5.1006446942490644e+00 -5.2339841362514935e+03 -9.4973715157981045e+04 +1.7783572855030078e+07 
+7.2999999999999901e+00 -5.3629649939866786e-01 +7.3475599369481941e+00 -1.6117798576353426e-01 -4.3349941094656881e+00 -5.3819529444936870e+03 -9.8216755016362396e+04 +1.8544764216491837e+07 
+7.3999999999999897e+00 -5.3629665020483430e-01 +7.3475093254335029e+00 -1.5507268766786092e-01 -3.6156652380469425e+00 -5.5235744092086734e+03 -1.0124185409231296e+05 +1.9278848531172916e+07 
+7.4999999999999893e+00 -5.3629679840605438e-01 +7.3474616187530373e+00 -1.4941593041864207e-01 -2.9494344070807221e+00 -5.6576333190825144e+03 -1.0401907406316113e+05 +1.9979685614094038e+07 
+7.5999999999999890e+00 -5.3629694450248555e-01 +7.3474172192536402e+00 -1.4425807228728216e-01 -2.3430782109067243e+00 -5.7829145823727740e+03 -1.0651847453822530e+05 +2.0641135782870706e+07 
+7.6999999999999886e+00 -5.3629708899434170e-01 +7.3473765292864561e+00 -1.3964946974870196e-01 -1.8033735372386570e+00 -5.8982031112356080e+03 -1.0871011288808945e+05 +2.1257059310629051e+07 
+7.7999999999999883e+00 -5.3629723238199534e-01 +7.3473399512075019e+00 -1.3564046438680602e-01 -1.3370975867625836e+00 -6.0022840698545451e+03 -1.1056404412141879e+05 +2.1821317602471501e+07 
+7.8999999999999879e+00 -5.3629737516586995e-01 +7.3473078873781299e+00 -1.3228139698691235e-01 -9.5102789840711410e-01 -6.0939426024055210e+03 -1.1205032070086731e+05 +2.2327771889738370e+07 
+7.9999999999999876e+00 -5.3629751784650936e-01 +7.3472807401683733e+00 -1.2962259820793029e-01 -6.5194244595600692e-01 -6.1719640177807387e+03 -1.1313899202822192e+05 +2.2770284129012998e+07 
+8.0999999999999872e+00 -5.3629766081644092e-01 +7.3472588200749920e+00 -1.2770304467531554e-01 -4.4509819602819300e-01 -6.2354126093350524e+03 -1.1380695059444144e+05 +2.3144135272589810e+07 
+8.1999999999999869e+00 -5.3629780402324734e-01 +7.3472420434184906e+00 -1.2651292276058956e-01 -3.2904506263681377e-01 -6.2845192762735805e+03 -1.1406174312074162e+05 +2.3450497626000959e+07 
+8.2999999999999865e+00 -5.3629794730020186e-01 +7.3472302210369831e+00 -1.2602927179191309e-01 -3.0049924823057572e-01 -6.3198215898428780e+03 -1.1391940806070574e+05 +2.3692082400175374e+07 
+8.3999999999999861e+00 -5.3629809048055055e-01 +7.3472231637682661e+00 -1.2622913300101668e-01 -3.5617689705405409e-01 -6.3418570878291030e+03 -1.1339598448389689e+05 +2.3871600657409329e+07 
+8.4999999999999858e+00 -5.3629823339749616e-01 +7.3472206824509083e+00 -1.2708955223121357e-01 -4.9279409640303140e-01 -6.3511632233848022e+03 -1.1250751208465936e+05 +2.3991763064542793e+07 
+8.5999999999999854e+00 -5.3629837588424900e-01 +7.3472225879194957e+00 -1.2858757340006782e-01 -7.0706674987062179e-01 -6.3482774889129214e+03 -1.1127003190003693e+05 +2.4055280481718976e+07 
+8.6999999999999851e+00 -5.3629851777394788e-01 +7.3472286910142941e+00 -1.3070024756899964e-01 -9.9571084958350264e-01 -6.3337372480083241e+03 -1.0969958475073456e+05 +2.4064863172782701e+07 
+8.7999999999999847e+00 -5.3629865889974437e-01 +7.3472388025638988e+00 -1.3340462370260386e-01 -1.3554419733002199e+00 -6.3080799044102050e+03 -1.0781221415827233e+05 +2.4023221593615446e+07 
+8.8999999999999844e+00 -5.3629879909472655e-01 +7.3472527334060738e+00 -1.3667775693772061e-01 -1.7829758855956892e+00 -6.2718427522705106e+03 -1.0562396287105748e+05 +2.3933065697491635e+07 
+8.9999999999999840e+00 -5.3629893819196273e-01 +7.3472702943731800e+00 -1.4049670376734907e-01 -2.2750281028579225e+00 -6.2255630611980487e+03 -1.0315087542400544e+05 +2.3797105322148047e+07 
+9.0999999999999837e+00 -5.3629907602448390e-01 +7.3472912962967181e+00 -1.4483852368963229e-01 -2.8283140412071206e+00 -6.1697780525503649e+03 -1.0040899724025548e+05 +2.3618050099301711e+07 
+9.1999999999999833e+00 -5.3629921242527878e-01 +7.3473155500060088e+00 -1.4968028036301628e-01 -3.4395489612818912e+00 -6.1050248706783022e+03 -9.7414374999646156e+04 +2.3398609297992364e+07 
+9.2999999999999829e+00 -5.3629934722732364e-01 +7.3473428663305027e+00 -1.5499903711084362e-01 -4.1054480348577709e+00 -6.0318406739306402e+03 -9.4183056252931405e+04 +2.3141492272143655e+07 
+9.3999999999999826e+00 -5.3629948026353158e-01 +7.3473730560987773e+00 -1.6077186361577869e-01 -4.8227263185197060e+00 -5.9507625054310301e+03 -9.0731089578390238e+04 +2.2849407841095582e+07 
+9.4999999999999822e+00 -5.3629961136677418e-01 +7.3474059301347836e+00 -1.6697583375877689e-01 -5.5880986370366896e+00 -5.8623273310809745e+03 -8.7074525270583617e+04 +2.2525064462509163e+07 
+9.5999999999999819e+00 -5.3629974036989569e-01 +7.3474412992629468e+00 -1.7358802190482428e-01 -6.3982797320167508e+00 -5.7670721206158969e+03 -8.3229414486335358e+04 +2.2171170644257195e+07 
+9.6999999999999815e+00 -5.3629986710570099e-01 +7.3474789743095608e+00 -1.8058550659159581e-01 -7.2499842928476212e+00 -5.6655337656593838e+03 -7.9211809095083692e+04 +2.1790434524357662e+07 
+9.7999999999999812e+00 -5.3629999140693574e-01 +7.3475187660921568e+00 -1.8794537138287776e-01 -8.1399266596857345e+00 -5.5582490724911540e+03 -7.5037763367095846e+04 +2.1385563860034991e+07 
+9.8999999999999808e+00 -5.3630011310631431e-01 +7.3475604854294243e+00 -1.9564470205149725e-01 -9.0648210943444703e+00 -5.4457548108732099e+03 -7.0723332455981188e+04 +2.0959266246886667e+07 
+9.9999999999999805e+00 -5.3630023203648458e-01 +7.3476039431411264e+00 -2.0366059097927727e-01 -1.0021381777557243e+01 -5.3285876312066948e+03 -6.6284572363922576e+04 +2.0514248731708385e+07 
+1.0099999999999980e+01 -5.3630034818965022e-01 +7.3476489383964569e+00 -2.1196720225844246e-01 -1.1006021313138531e+01 -5.2072802367492650e+03 -6.1738372715186895e+04 +2.0053060075582057e+07 
