# multipoles
# s[mm] polynom_b[n=0][T/m^n] polynom_b[n=1][T/m^n] polynom_b[n=2][T/m^n] polynom_b[n=3][T/m^n] polynom_b[n=4][T/m^n] polynom_b[n=5][T/m^n] polynom_b[n=6][T/m^n] 
-0.0000000000000000e+00 -5.9244426162998554e-01 +8.1107139734347378e+00 -5.3341535112929173e-01 -2.3814001658065695e+01 +3.7763884810170180e+03 -1.6003155152761519e+04 -2.4531882860969402e+07 
-1.0000000000000001e-01 -5.9244437656650817e-01 +8.1107045313903114e+00 -5.4210180809317610e-01 -2.3405065907537388e+01 +3.9413316490087914e+03 -1.8194618960892531e+04 -2.5301856505468823e+07 
-2.0000000000000001e-01 -5.9244449587350922e-01 +8.1106940385220962e+00 -5.4980029766014726e-01 -2.2980896018933620e+01 +4.0911731084483386e+03 -2.0431090949680689e+04 -2.6010866217094395e+07 
-2.9999999999999999e-01 -5.9244461953460792e-01 +8.1106823328636040e+00 -5.5655163765524696e-01 -2.2539636356316471e+01 +4.2264055027358900e+03 -2.2718955716906836e+04 -2.6660522213049177e+07 
-4.0000000000000002e-01 -5.9244474753357512e-01 +8.1106692524431452e+00 -5.6239664060293326e-01 -2.2079431154251832e+01 +4.3475213776843475e+03 -2.5064598510693213e+04 -2.7252434256712049e+07 
-5.0000000000000000e-01 -5.9244487985403427e-01 +8.1106546352846394e+00 -5.6737612551518857e-01 -2.1598424516086812e+01 +4.4550133959418808e+03 -2.7474405327886576e+04 -2.7788212652216658e+07 
-5.9999999999999998e-01 -5.9244501647970949e-01 +8.1106383194087979e+00 -5.7153090562226438e-01 -2.1094760454116841e+01 +4.5493741066189205e+03 -2.9954762666567232e+04 -2.8269467155449647e+07 
-6.9999999999999996e-01 -5.9244515739421766e-01 +8.1106201428318769e+00 -5.7490179931347707e-01 -2.0566582852446739e+01 +4.6310961518864424e+03 -3.2512057739270713e+04 -2.8697807956518900e+07 
-8.0000000000000004e-01 -5.9244530258123063e-01 +8.1105999435700618e+00 -5.7752962156981524e-01 -2.0012035592877787e+01 +4.7006721073828776e+03 -3.5152677771453920e+04 -2.9074844925824359e+07 
-9.0000000000000002e-01 -5.9244545202439525e-01 +8.1105775596361021e+00 -5.7945518927193329e-01 -1.9429262440184747e+01 +4.7585945774200836e+03 -3.7883010698304519e+04 -2.9402188056054078e+07 
-1.0000000000000000e+00 -5.9244560570734339e-01 +8.1105528290416959e+00 -5.8071932028726470e-01 -1.8816407137113643e+01 +4.8053561819173265e+03 -4.0709444556396622e+04 -2.9681447410215523e+07 
-1.1000000000000001e+00 -5.9244576361375789e-01 +8.1105255897943440e+00 -5.8136283259631660e-01 -1.8171613277466722e+01 +4.8414495352117665e+03 -4.3638368321767077e+04 -2.9914233007632334e+07 
-1.2000000000000000e+00 -5.9244592572717403e-01 +8.1104956799077996e+00 -5.8142654330534671e-01 -1.7493024634517226e+01 +4.8673672319210036e+03 -4.6676169948473049e+04 -3.0102154772592172e+07 
-1.3000000000000000e+00 -5.9244609203120391e-01 +8.1104629373853232e+00 -5.8095127320141859e-01 -1.6778784648682766e+01 +4.8836019287174759e+03 -4.9829239402273022e+04 -3.0246822908860002e+07 
-1.3999999999999999e+00 -5.9244626250947874e-01 +8.1104272002411566e+00 -5.7997784001491126e-01 -1.6027037072364749e+01 +4.8906462205709586e+03 -5.3103964876723796e+04 -3.0349847322831720e+07 
-1.5000000000000000e+00 -5.9244643714551048e-01 +8.1103883064802460e+00 -5.7854706682094503e-01 -1.5235925360875976e+01 +4.8889927921303715e+03 -5.6506736385960074e+04 -3.0412838324517421e+07 
-1.6000000000000001e+00 -5.9244661592289161e-01 +8.1103460941126553e+00 -5.7669976986166538e-01 -1.4403593092598724e+01 +4.8791341961263524e+03 -6.0043943323775697e+04 -3.0437405595693264e+07 
-1.7000000000000000e+00 -5.9244679882512008e-01 +8.1103004011548467e+00 -5.7447677527121044e-01 -1.3528183999904568e+01 +4.8615631638712202e+03 -6.3721974310923535e+04 -3.0425159652257539e+07 
-1.8000000000000000e+00 -5.9244698583577360e-01 +8.1102510656151150e+00 -5.7191890146219304e-01 -1.2607841563212261e+01 +4.8367722729305633e+03 -6.7547219504731009e+04 -3.0377710268413104e+07 
-1.8999999999999999e+00 -5.9244717693828652e-01 +8.1101979255089436e+00 -5.6906697613708079e-01 -1.1640709431038712e+01 +4.8052542708053261e+03 -7.1526068238284613e+04 -3.0296668016613260e+07 
-2.0000000000000000e+00 -5.9244737211618337e-01 +8.1101408188580688e+00 -5.6596182064188383e-01 -1.0624931390946234e+01 +4.7675017716249595e+03 -7.5664909207881021e+04 -3.0183642811686054e+07 
-2.1000000000000001e+00 -5.9244757137779436e-01 +8.1100796918134410e+00 -5.6263955464182724e-01 -9.5601300646979084e+00 +4.7239875379198011e+03 -7.9964642561801884e+04 -3.0040330278321426e+07 
-2.2000000000000002e+00 -5.9244777483258415e-01 +8.1100149237503043e+00 -5.5911876434886754e-01 -8.4519264831999728e+00 +4.6751211822562491e+03 -8.4403664300418372e+04 -2.9868824713803243e+07 
-2.2999999999999998e+00 -5.9244798261552778e-01 +8.1099470025228992e+00 -5.5541397435306206e-01 -7.3074612213195529e+00 +4.6213007246143998e+03 -8.8954612298120308e+04 -2.9671334819131505e+07 
-2.3999999999999999e+00 -5.9244819486163414e-01 +8.1098764159884347e+00 -5.5153971342366015e-01 -6.1338749426995545e+00 +4.5629242723218958e+03 -9.3590123865072135e+04 -2.9450069730579153e+07 
-2.5000000000000000e+00 -5.9244841170589835e-01 +8.1098036520053114e+00 -5.4751050596443374e-01 -4.9383083604316811e+00 +4.5003898593783524e+03 -9.8282835942462683e+04 -2.9207238259352040e+07 
-2.6000000000000001e+00 -5.9244863328334219e-01 +8.1097291984313156e+00 -5.4334087369238093e-01 -3.7279021679184550e+00 +4.4340954730801550e+03 -1.0300538553324285e+05 -2.8945049002584238e+07 
-2.7000000000000002e+00 -5.9244885972912020e-01 +8.1096535431224641e+00 -5.3904533887522388e-01 -2.5097970258113595e+00 +4.3644391283416844e+03 -1.0773040973161013e+05 -2.8665710730637275e+07 
-2.7999999999999998e+00 -5.9244909117824074e-01 +8.1095771739384208e+00 -5.3463842140821527e-01 -1.2911337173903721e+00 +4.2918188051984007e+03 -1.1243054480275162e+05 -2.8371432070481952e+07 
-2.8999999999999999e+00 -5.9244932776586634e-01 +8.1095005787323871e+00 -5.3013464196286009e-01 -7.9052852956905270e-02 +4.2166325091391745e+03 -1.1707842791762527e+05 -2.8064421792952128e+07 
-3.0000000000000000e+00 -5.9244956962715356e-01 +8.1094242453689844e+00 -5.2554851391436086e-01 +1.1193046177895565e+00 +4.1392781272728043e+03 -1.2164669417459244e+05 -2.7746888153098945e+07 
-3.1000000000000001e+00 -5.9244981689726384e-01 +8.1093486617028461e+00 -5.2089455543256036e-01 +2.2967979939957064e+00 +4.0601536510223409e+03 -1.2610797993018657e+05 -2.7421039931665458e+07 
-3.2000000000000002e+00 -5.9245006971146519e-01 +8.1092743155906142e+00 -5.1618727777786311e-01 +3.4462865035435688e+00 +3.9796569566471339e+03 -1.3043492100724905e+05 -2.7089085395133041e+07 
-3.2999999999999998e+00 -5.9245032820497900e-01 +8.1092016948922971e+00 -5.1144119053411108e-01 +4.5606292525030083e+00 +3.8981859137796564e+03 -1.3460015235954180e+05 -2.6753232837447759e+07 
-3.3999999999999999e+00 -5.9245059251318055e-01 +8.1091312874646864e+00 -5.0667080434537815e-01 +5.6326854031895310e+00 +3.8161384241137662e+03 -1.3857630907773436e+05 -2.6415690728021435e+07 
-3.5000000000000000e+00 -5.9245086277138059e-01 +8.1090635811677956e+00 -5.0189062049352196e-01 +6.6553139994221961e+00 +3.7339122421000429e+03 -1.4233602539135786e+05 -2.6078666905609172e+07 
-3.6000000000000001e+00 -5.9245113911502034e-01 +8.1089990638599119e+00 -4.9711514444399807e-01 +7.6213741011795433e+00 +3.6519052166211518e+03 -1.4585193542355901e+05 -2.5744369689138398e+07 
-3.7000000000000002e+00 -5.9245142167956000e-01 +8.1089382233989635e+00 -4.9235887313461146e-01 +8.5237247418057844e+00 +3.5705150656925071e+03 -1.4909667293031543e+05 -2.5415006844757780e+07 
-3.7999999999999998e+00 -5.9245171060050383e-01 +8.1088815476424152e+00 -4.8763630494386828e-01 +9.3552249256301483e+00 +3.4901395549879066e+03 -1.5204287126691805e+05 -2.5092786405657999e+07 
-3.8999999999999999e+00 -5.9245200601343473e-01 +8.1088295244536699e+00 -4.8296193265168791e-01 +1.0108733452699186e+01 +3.4111763741730265e+03 -1.5466316238726489e+05 -2.4779916113965940e+07 
-4.0000000000000000e+00 -5.9245230805403581e-01 +8.1087826416865578e+00 -4.7835024486796257e-01 +1.0777109353572214e+01 +3.3340231625000438e+03 -1.5693017932223721e+05 -2.4478603531084165e+07 
-4.0999999999999996e+00 -5.9245261689328532e-01 +8.1087412612712946e+00 -4.7381166655799362e-01 +1.1355458098853619e+01 +3.2590067589303585e+03 -1.5882652065635534e+05 -2.4190644039113581e+07 
-4.2000000000000002e+00 -5.9245293283782174e-01 +8.1087052392002832e+00 -4.6933774209647933e-01 +1.1847943809066823e+01 +3.1861257023863386e+03 -1.6037541552987465e+05 -2.3915990855921872e+07 
-4.2999999999999998e+00 -5.9245325622665046e-01 +8.1086743043337322e+00 -4.6491463638711206e-01 +1.2261013955036786e+01 +3.1152850930094824e+03 -1.6161044270634689e+05 -2.3654087185853750e+07 
-4.4000000000000004e+00 -5.9245358739889620e-01 +8.1086481855297361e+00 -4.6052851477425416e-01 +1.2601116013201851e+01 +3.0463900400982839e+03 -1.6256518100299127e+05 -2.3404376264678404e+07 
-4.5000000000000000e+00 -5.9245392669357666e-01 +8.1086266116491394e+00 -4.5616554500383166e-01 +1.2874697309474762e+01 +2.9793456927041734e+03 -1.6327320832239356e+05 -2.3166301487361226e+07 
-4.5999999999999996e+00 -5.9245427444972809e-01 +8.1086093115428390e+00 -4.5181189652815795e-01 +1.3088205389649055e+01 +2.9140572293988080e+03 -1.6376810383278641e+05 -2.2939306366793044e+07 
-4.7000000000000002e+00 -5.9245463100634843e-01 +8.1085960140655118e+00 -4.4745374716293851e-01 +1.3248087616214935e+01 +2.8504299836835335e+03 -1.6408344562061492e+05 -2.2722835128361568e+07 
-4.7999999999999998e+00 -5.9245499670241164e-01 +8.1085864480682641e+00 -4.4307727065955466e-01 +1.3360791375751530e+01 +2.7883692062981577e+03 -1.6425281189045182e+05 -2.2516331572367858e+07 
-4.9000000000000004e+00 -5.9245537187687480e-01 +8.1085803423970120e+00 -4.3866864703049857e-01 +1.3432764136990759e+01 +2.7277802640237110e+03 -1.6430978134600341e+05 -2.2319240026721761e+07 
-5.0000000000000000e+00 -5.9245575686865426e-01 +8.1085774258996910e+00 -4.3421406048794897e-01 +1.3470453219551837e+01 +2.6685685920325855e+03 -1.6428793179233346e+05 -2.2131005098651927e+07 
-5.0999999999999996e+00 -5.9245615201669877e-01 +8.1085774274189113e+00 -4.2969969526141816e-01 +1.3480306012198721e+01 +2.6106396219021344e+03 -1.6422084143244362e+05 -2.1951071349602617e+07 
-5.2000000000000002e+00 -5.9245655765983829e-01 +8.1085800757970574e+00 -4.2511174312013439e-01 +1.3468769829899072e+01 +2.5538989217429607e+03 -1.6414208806806168e+05 -2.1778883955674980e+07 
-5.2999999999999998e+00 -5.9245697413690479e-01 +8.1085850998707585e+00 -4.2043639877794386e-01 +1.3442292055275113e+01 +2.4982521045248009e+03 -1.6408524986226522e+05 -2.1613888256549519e+07 
-5.4000000000000004e+00 -5.9245740178675277e-01 +8.1085922284753824e+00 -4.1565985766134195e-01 +1.3407320019095707e+01 +2.4436047893647415e+03 -1.6408390470685661e+05 -2.1455529584067646e+07 
-5.5000000000000000e+00 -5.9245784094805576e-01 +8.1086011904413571e+00 -4.1076832650244116e-01 +1.3370301096339285e+01 +2.3898628010414686e+03 -1.6417163075401064e+05 -2.1303254203991100e+07 
-5.5999999999999996e+00 -5.9245829195965660e-01 +8.1086117145999825e+00 -4.0574800903706576e-01 +1.3337682532870479e+01 +2.3369318956990037e+03 -1.6438200540141418e+05 -2.1156508003235973e+07 
-5.7000000000000002e+00 -5.9245875516015534e-01 +8.1086235297783453e+00 -4.0058511648033074e-01 +1.3315911600652825e+01 +2.2847179604971971e+03 -1.6474860623693548e+05 -2.1014737443017453e+07 
-5.7999999999999998e+00 -5.9245923088823038e-01 +8.1086363647956290e+00 -3.9526586847134909e-01 +1.3311435697810342e+01 +2.2331270317443195e+03 -1.6530501160566445e+05 -2.0877389642848969e+07 
-5.9000000000000004e+00 -5.9245971948244713e-01 +8.1086499484746000e+00 -3.8977648349784505e-01 +1.3330701995235870e+01 +2.1820651114614730e+03 -1.6608479851700785e+05 -2.0743911504022393e+07 
-5.9999999999999902e+00 -5.9246022128143638e-01 +8.1086640096285123e+00 -3.8410318975752467e-01 +1.3380157841245966e+01 +2.1314383726951824e+03 -1.6712154514353655e+05 -2.0613750689868674e+07 
-6.0999999999999899e+00 -5.9246073629539264e-01 +8.1086783216146259e+00 -3.7823698303569014e-01 +1.3464541922491367e+01 +2.0810893339757495e+03 -1.6843903534823918e+05 -2.0485922970160950e+07 
-6.1999999999999904e+00 -5.9246126323423653e-01 +8.1086928182460962e+00 -3.7218786587190639e-01 +1.3582219337466279e+01 +2.0306370461229708e+03 -1.7002339752878895e+05 -2.0357929574857008e+07 
-6.2999999999999901e+00 -5.9246180048596830e-01 +8.1087074692037611e+00 -3.6597052803885444e-01 +1.3730068006717520e+01 +1.9796512550682403e+03 -1.7185167405419605e+05 -2.0226942191231523e+07 
-6.3999999999999897e+00 -5.9246234643859130e-01 +8.1087222441723767e+00 -3.5959965315576653e-01 +1.3904965997384156e+01 +1.9277015896516052e+03 -1.7390090872239554e+05 -2.0090131976606343e+07 
-6.4999999999999902e+00 -5.9246289948003295e-01 +8.1087371128499033e+00 -3.5308992493325420e-01 +1.4103791310355547e+01 +1.8743576788118462e+03 -1.7614814572218226e+05 -1.9944670106146578e+07 
-6.5999999999999899e+00 -5.9246345799833711e-01 +8.1087520449397239e+00 -3.4645602506507994e-01 +1.4323422068125048e+01 +1.8191891111647958e+03 -1.7857043060542634e+05 -1.9787727582230367e+07 
-6.6999999999999904e+00 -5.9246402038148205e-01 +8.1087670101571003e+00 -3.3971263027579462e-01 +1.4560736379790065e+01 +1.7617653826960129e+03 -1.8114480964676267e+05 -1.9616474998109024e+07 
-6.7999999999999901e+00 -5.9246458501747823e-01 +8.1087819782220247e+00 -3.3287441478333285e-01 +1.4812612539034756e+01 +1.7016559384351831e+03 -1.8384833095673475e+05 -1.9428082720572960e+07 
-6.8999999999999897e+00 -5.9246515029431723e-01 +8.1087969188683360e+00 -3.2595605241919157e-01 +1.5075928789688749e+01 +1.6384302154549403e+03 -1.8665804319928496e+05 -1.9219721106736485e+07 
-6.9999999999999902e+00 -5.9246571460006037e-01 +8.1088118018377831e+00 -3.1897220975804935e-01 +1.5347563479666267e+01 +1.5716575125418133e+03 -1.8955099642010828e+05 -1.8988559883023474e+07 
-7.0999999999999899e+00 -5.9246627632269810e-01 +8.1088265968849313e+00 -3.1193755210610774e-01 +1.5624394975709205e+01 +1.5009071003988445e+03 -1.9250424171618882e+05 -1.8731768661091864e+07 
-7.1999999999999904e+00 -5.9246683385023913e-01 +8.1088412737722138e+00 -3.0486674358781995e-01 +1.5903301775265529e+01 +1.4257482297186816e+03 -1.9549483177550705e+05 -1.8446516997843102e+07 
-7.2999999999999901e+00 -5.9246738557075573e-01 +8.1088558022710462e+00 -2.9777444130665748e-01 +1.6181162517580308e+01 +1.3457500139590215e+03 -1.9849982106830104e+05 -1.8129973817649160e+07 
-7.3999999999999897e+00 -5.9246792987223351e-01 +8.1088701521719067e+00 -2.9067529890571420e-01 +1.6454855689059109e+01 +1.2604814983816661e+03 -2.0149626411340793e+05 -1.7779307749693014e+07 
-7.4999999999999902e+00 -5.9246846514279861e-01 +8.1088842932721104e+00 -2.8358396835638294e-01 +1.6721259995248353e+01 +1.1695116964575709e+03 -2.0446121768292820e+05 -1.7391687305455834e+07 
-7.5999999999999899e+00 -5.9246898977040852e-01 +8.1088981953792167e+00 -2.7651509670933855e-01 +1.6977254274390255e+01 +1.0724095227999255e+03 -2.0737174032683225e+05 -1.6964280549860936e+07 
-7.6999999999999904e+00 -5.9246950214317162e-01 +8.1089118283171651e+00 -2.6948332481058224e-01 +1.7219717323894496e+01 +9.6874377884087164e+02 -2.1020489137221663e+05 -1.6494255059161544e+07 
-7.7999999999999901e+00 -5.9247000064916799e-01 +8.1089251619213218e+00 -2.6250329284741597e-01 +1.7445528067389898e+01 +8.5808324534238125e+02 -2.1293773194936136e+05 -1.5978778328163825e+07 
-7.8999999999999897e+00 -5.9247048367644140e-01 +8.1089381660387758e+00 -2.5558963533681189e-01 +1.7651565565022004e+01 +7.3999659703473981e+02 -2.1554732509183642e+05 -1.5415017391944205e+07 
-7.9999999999999902e+00 -5.9247094961311364e-01 +8.1089508105309456e+00 -2.4875698055827208e-01 +1.7834708932231294e+01 +6.1405238744020539e+02 -2.1801073500465837e+05 -1.4800138722359695e+07 
-8.0999999999999908e+00 -5.9247139736915344e-01 +8.1089630668813264e+00 -2.4202042565691154e-01 +1.7992508192053673e+01 +4.8008093529097147e+02 -2.2030848920790816e+05 -1.4132835491298774e+07 
-8.1999999999999904e+00 -5.9247182794117448e-01 +8.1089749631403958e+00 -2.3539756514406004e-01 +1.8123904710366286e+01 +3.3893587882450993e+02 -2.2242938950207413e+05 -1.3417776343897674e+07 
-8.2999999999999901e+00 -5.9247224284686051e-01 +8.1089865539415360e+00 -2.2890696295630270e-01 +1.8227872690099286e+01 +1.9172546999921315e+02 -2.2436293541675896e+05 -1.2661111774504129e+07 
-8.3999999999999897e+00 -5.9247264360398966e-01 +8.1089978939183531e+00 -2.2256717396999676e-01 +1.8303385948576114e+01 +3.9557770868085633e+01 -2.2609862332392071e+05 -1.1868991341079850e+07 
-8.4999999999999893e+00 -5.9247303173035060e-01 +8.1090090376986002e+00 -2.1639675493154259e-01 +1.8349418076588123e+01 -1.1645913124761594e+02 -2.2762594727832597e+05 -1.1047564718035560e+07 
-8.5999999999999908e+00 -5.9247340874371890e-01 +8.1090200399046672e+00 -2.1041425626858443e-01 +1.8364942387534679e+01 -2.7521728496775978e+02 -2.2893439861617427e+05 -1.0202980908287136e+07 
-8.6999999999999904e+00 -5.9247377616191688e-01 +8.1090309551618525e+00 -2.0463822605534890e-01 +1.8348931691231751e+01 -4.3560879472110202e+02 -2.3001346469034746e+05 -9.3413886425353512e+06 
-8.7999999999999794e+00 -5.9247413550281469e-01 +8.1090418380862310e+00 -1.9908720494211235e-01 +1.8300358606958049e+01 -5.9652592470982256e+02 -2.3085263058231832e+05 -8.4689358644187916e+06 
-8.8999999999999808e+00 -5.9247448828432370e-01 +8.1090527432926685e+00 -1.9377973254115344e-01 +1.8218195330200771e+01 -7.5686096917204134e+02 -2.3144137774103537e+05 -7.5917703672640948e+06 
-8.9999999999999805e+00 -5.9247483602431905e-01 +8.1090637253904259e+00 -1.8873434438279926e-01 +1.8101413736926276e+01 -9.1550631723263791e+02 -2.3176918453843080e+05 -6.7160394720641971e+06 
-9.0999999999999801e+00 -5.9247518024075063e-01 +8.1090748389847711e+00 -1.8396956969344597e-01 +1.7948985333917271e+01 -1.0713544949546608e+03 -2.3182552596376798e+05 -5.8478898241830915e+06 
-9.1999999999999797e+00 -5.9247552245159507e-01 +8.1090861386759840e+00 -1.7950393408997867e-01 +1.7759881266419427e+01 -1.2232981106994953e+03 -2.3159987361814114e+05 -4.9934676655133199e+06 
-9.2999999999999794e+00 -5.9247586417486864e-01 +8.1090976790622324e+00 -1.7535596091383279e-01 +1.7533072211667609e+01 -1.3702298347351652e+03 -2.3108169503542088e+05 -4.1589189179434539e+06 
-9.3999999999999808e+00 -5.9247620692860614e-01 +8.1091095147311876e+00 -1.7154416365339265e-01 +1.7267528622405219e+01 -1.5110425397527047e+03 -2.3026045510037389e+05 -3.3503885231811744e+06 
-9.4999999999999805e+00 -5.9247655223084827e-01 +8.1091217002766705e+00 -1.6808705761819753e-01 +1.6962220221711053e+01 -1.6446290826709908e+03 -2.2912561304992251e+05 -2.5740214747711797e+06 
-9.5999999999999801e+00 -5.9247690159972277e-01 +8.1091342902721379e+00 -1.6500314705497079e-01 +1.6616116763829162e+01 -1.7698825464018732e+03 -2.2766662687944842e+05 -1.8359616734338955e+06 
-9.6999999999999797e+00 -5.9247725655336525e-01 +8.1091473392970208e+00 -1.6231093833798130e-01 +1.6228187239491920e+01 -1.8856959915795039e+03 -2.2587294863889771e+05 -1.1423531035667236e+06 
-9.7999999999999794e+00 -5.9247761860994774e-01 +8.1091609019205819e+00 -1.6002892467109994e-01 +1.5797400350912442e+01 -1.9909627504862012e+03 -2.2373402721815489e+05 -4.9933842763342534e+05 
-9.8999999999999808e+00 -5.9247798928764350e-01 +8.1091750327087428e+00 -1.5817560295762789e-01 +1.5322724281899092e+01 -2.0845761003652151e+03 -2.2123930692215322e+05 +8.6939445450321640e+04 
-9.9999999999999805e+00 -5.9247837010475002e-01 +8.1091897862207993e+00 -1.5676945656575084e-01 +1.4803126838195835e+01 -2.1654295967003854e+03 -2.1837822879617402e+05 +6.1033891918793379e+05 
-1.0100000000000000e+01 -5.9247876229663143e-01 +8.1092052045882017e+00 -1.5581764185043898e-01 +1.4238001358256597e+01 -2.2327634404512396e+03 -2.1514473901066981e+05 +1.0664148876588598e+06 
