# multipoles
# s[mm] polynom_b[n=0][T/m^n] polynom_b[n=1][T/m^n] polynom_b[n=2][T/m^n] polynom_b[n=3][T/m^n] polynom_b[n=4][T/m^n] polynom_b[n=5][T/m^n] polynom_b[n=6][T/m^n] 
+0.0000000000000000e+00 -5.6620034134339126e-01 +7.7330310892158565e+00 -3.1422644069658240e-01 +1.5991404058538155e+01 +1.8476871764099126e+03 -2.4445031942626432e+05 -1.6734355170706816e+07 
+1.0000000000000001e-01 -5.6620037509308441e-01 +7.7330233745411716e+00 -3.0782190926989300e-01 +1.6160242642562128e+01 +1.7253842826660612e+03 -2.4557114940156555e+05 -1.6210314210730445e+07 
+2.0000000000000001e-01 -5.6620039805510491e-01 +7.7330185383803451e+00 -3.0202347745992664e-01 +1.6261579472949684e+01 +1.6079539337228584e+03 -2.4632713863362983e+05 -1.5697917686835263e+07 
+3.0000000000000004e-01 -5.6620041080615335e-01 +7.7330163855959348e+00 -2.9683653584018083e-01 +1.6299548410373262e+01 +1.4959870171795903e+03 -2.4674051461176819e+05 -1.5200493147276873e+07 
+4.0000000000000002e-01 -5.6620041392293396e-01 +7.7330167210586467e+00 -2.9226647493871305e-01 +1.6278283102849993e+01 +1.3900744244389257e+03 -2.4683350364799183e+05 -1.4721368174727799e+07 
+5.0000000000000000e-01 -5.6620040798217930e-01 +7.7330193496374715e+00 -2.8831868207123934e-01 +1.6201917276779952e+01 +1.2908069872448332e+03 -2.4662833259624694e+05 -1.4263870073777802e+07 
+5.9999999999999998e-01 -5.6620039356060503e-01 +7.7330240762094027e+00 -2.8499854635389416e-01 +1.6074584461418308e+01 +1.1987755730455499e+03 -2.4614722726598312e+05 -1.3831326327454001e+07 
+6.9999999999999996e-01 -5.6620037123495381e-01 +7.7330307056569474e+00 -2.8231145413764724e-01 +1.5900418018515028e+01 +1.1145710004922316e+03 -2.4541241249133873e+05 -1.3427064198500440e+07 
+7.9999999999999993e-01 -5.6620034158196275e-01 +7.7330390428627798e+00 -2.8026279254586794e-01 +1.5683551315148726e+01 +1.0387841051365249e+03 -2.4444611317004444e+05 -1.3054411038660794e+07 
+8.9999999999999991e-01 -5.6620030517837705e-01 +7.7330488927133434e+00 -2.7885794738650949e-01 +1.5428117603951241e+01 +9.7200569675719305e+02 -2.4327055354230574e+05 -1.2716694077775886e+07 
+9.9999999999999989e-01 -5.6620026260094170e-01 +7.7330600600965846e+00 -2.7810230480063725e-01 +1.5138250069792994e+01 +9.1482659485320175e+02 -2.4190795740687638e+05 -1.2417240603132531e+07 
+1.0999999999999999e+00 -5.6620021442640411e-01 +7.7330723499083343e+00 -2.7800125056751757e-01 +1.4818081640779507e+01 +8.6783761251921601e+02 -2.4038054701420976e+05 -1.2159377873762621e+07 
+1.2000000000000000e+00 -5.6620016123150063e-01 +7.7330855670424787e+00 -2.7856017155014862e-01 +1.4471745268345545e+01 +8.3162958270228307e+02 -2.3871054468484168e+05 -1.1946433243833328e+07 
+1.3000000000000000e+00 -5.6620010359296491e-01 +7.7330995164029757e+00 -2.7978445510199512e-01 +1.4103373564485844e+01 +8.0679335079074770e+02 -2.3692017067281305e+05 -1.1781734136420485e+07 
+1.4000000000000001e+00 -5.6620004208755970e-01 +7.7331140028863166e+00 -2.8167948454999908e-01 +1.3717099303065631e+01 +7.9391968388598127e+02 -2.3503164604509316e+05 -1.1668607598364286e+07 
+1.5000000000000002e+00 -5.6619997729200489e-01 +7.7331288314012863e+00 -2.8425064839096298e-01 +1.3317054832079849e+01 +7.9359944766155013e+02 -2.3306718924475080e+05 -1.1610381147802757e+07 
+1.6000000000000003e+00 -5.6619990978301016e-01 +7.7331438068519951e+00 -2.8750333631073888e-01 +1.2907372567765048e+01 +8.0642353082592615e+02 -2.3104901895793900e+05 -1.1610382413914710e+07 
+1.7000000000000004e+00 -5.6619984013730762e-01 +7.7331587341496846e+00 -2.9144293482518507e-01 +1.2492184628924292e+01 +8.3298276105157663e+02 -2.2899935194114258e+05 -1.1671938734393876e+07 
+1.8000000000000005e+00 -5.6619976893160362e-01 +7.7331734182073557e+00 -2.9607483315660077e-01 +1.2075622995663482e+01 +8.7386801569407532e+02 -2.2694040394326914e+05 -1.1798377679203222e+07 
+1.9000000000000006e+00 -5.6619969674257620e-01 +7.7331876639383079e+00 -3.0140442397456413e-01 +1.1661819528152069e+01 +9.2967023854051274e+02 -2.2489438976018687e+05 -1.1993027136343744e+07 
+2.0000000000000004e+00 -5.6619962414692848e-01 +7.7332012762561346e+00 -3.0743709596481761e-01 +1.1254905975670839e+01 +1.0009802927342143e+03 -2.2288352331082529e+05 -1.2259214597533006e+07 
+2.1000000000000005e+00 -5.6619955179658565e-01 +7.7332140857512952e+00 -3.1416408379318889e-01 +1.0858466928835307e+01 +1.0880635535770057e+03 -2.2092660392631235e+05 -1.2598746167830007e+07 
+2.2000000000000006e+00 -5.6619948064728376e-01 +7.7332260212707009e+00 -3.2151993574766724e-01 +1.0474039130125032e+01 +1.1898823242499016e+03 -2.1902929551860204e+05 -1.3007346837669978e+07 
+2.3000000000000007e+00 -5.6619941173137367e-01 +7.7332370351096840e+00 -3.2942501550181047e-01 +1.0102682491961868e+01 +1.3050728975489992e+03 -2.1719410698908565e+05 -1.3479222728426557e+07 
+2.4000000000000008e+00 -5.6619934608120126e-01 +7.7332470795622044e+00 -3.3779968724134368e-01 +9.7454569351886597e+00 +1.4322715730337152e+03 -2.1542354719968649e+05 -1.4008579986859798e+07 
+2.5000000000000009e+00 -5.6619928472913983e-01 +7.7332561069221235e+00 -3.4656431090914636e-01 +9.4034223552021334e+00 +1.5701145635888861e+03 -2.1372012479008947e+05 -1.4589624333624678e+07 
+2.6000000000000010e+00 -5.6619922870751183e-01 +7.7332640694708124e+00 -3.5563925251751671e-01 +9.0776389758811753e+00 +1.7172381929493174e+03 -2.1208635020769155e+05 -1.5216562006138852e+07 
+2.7000000000000011e+00 -5.6619917904865380e-01 +7.7332709194867455e+00 -3.6494487581276203e-01 +8.7691670769681682e+00 +1.8722787356443475e+03 -2.1052473414094542e+05 -1.5883598992657345e+07 
+2.8000000000000012e+00 -5.6619913678489742e-01 +7.7332766092418970e+00 -3.7440154458961916e-01 +8.4790671145267975e+00 +2.0338724621032143e+03 -2.0903778826792515e+05 -1.6584941250927281e+07 
+2.9000000000000012e+00 -5.6619910294856635e-01 +7.7332810910004781e+00 -3.8392962305317990e-01 +8.2083997374435675e+00 +2.2006556429318175e+03 -2.0762802527543507e+05 -1.7314794720523469e+07 
+3.0000000000000013e+00 -5.6619907857197604e-01 +7.7332843170167269e+00 -3.9344947594705348e-01 +7.9582258667457424e+00 +2.3712645526520796e+03 -2.0629795937536802e+05 -1.8067365344946980e+07 
+3.1000000000000014e+00 -5.6619906468745218e-01 +7.7332862395398969e+00 -4.0288146652828571e-01 +7.7296065453961678e+00 +2.5443354320768885e+03 -2.0505010540684784e+05 -1.8836858893347204e+07 
+3.2000000000000015e+00 -5.6619906232729666e-01 +7.7332868108035671e+00 -4.1214595958643707e-01 +7.5236032709503462e+00 +2.7185045396491664e+03 -2.0388698082924591e+05 -1.9617481191609751e+07 
+3.3000000000000016e+00 -5.6619907252380575e-01 +7.7332859830385035e+00 -4.2116332060625161e-01 +7.3412775884675003e+00 +2.8924081402777533e+03 -2.0281110326153002e+05 -2.0403438078368060e+07 
+3.4000000000000017e+00 -5.6619909630926069e-01 +7.7332837084592470e+00 -4.2985391615723290e-01 +7.1836915253577684e+00 +3.0646825125116879e+03 -2.0182499312886657e+05 -2.1188935442270152e+07 
+3.5000000000000018e+00 -5.6619913471599448e-01 +7.7332799392674465e+00 -4.3813810570178791e-01 +7.0519074584055117e+00 +3.2339637897575935e+03 -2.0093117278881380e+05 -2.1968178455052730e+07 
+3.6000000000000019e+00 -5.6619918877624620e-01 +7.7332746276603901e+00 -4.4593625950326271e-01 +6.9469878862835968e+00 +3.3988882998132631e+03 -2.0013216526507228e+05 -2.2735373187238541e+07 
+3.7000000000000020e+00 -5.6619925952231054e-01 +7.7332677258132687e+00 -4.5316874033455812e-01 +6.8699959519903810e+00 +3.5580922187137448e+03 -1.9943049729697470e+05 -2.3484724963265520e+07 
+3.8000000000000020e+00 -5.6619934798645744e-01 +7.7332591858924067e+00 -4.5975591348901862e-01 +6.8219950527206255e+00 +3.7102117619650739e+03 -1.9882869705433553e+05 -2.4210439275340863e+07 
+3.9000000000000021e+00 -5.6619945520094772e-01 +7.7332489600497949e+00 -4.6561814413837355e-01 +6.8040489957341102e+00 +3.8538831284632320e+03 -1.9832929503366203e+05 -2.4906721500193734e+07 
+4.0000000000000018e+00 -5.6619958219804412e-01 +7.7332370004176223e+00 -4.7067579677033866e-01 +6.8172221705838751e+00 +3.9877424951938356e+03 -1.9793482509020460e+05 -2.5567776889369212e+07 
+4.1000000000000014e+00 -5.6619972964688814e-01 +7.7332233077471439e+00 -4.7486751232526081e-01 +6.8617015301061830e+00 +4.1106659758605329e+03 -1.9764470541771298e+05 -2.6188696135826394e+07 
+4.2000000000000011e+00 -5.6619989676374416e-01 +7.7332080738652333e+00 -4.7820640691312061e-01 +6.9342729753993817e+00 +4.2225141749927670e+03 -1.9744666613882736e+05 -2.6768200179336026e+07 
+4.3000000000000007e+00 -5.6620008240144493e-01 +7.7331915375523286e+00 -4.8072456869478375e-01 +7.0308994300745766e+00 +4.3234001521453074e+03 -1.9732571649986334e+05 -2.7305939925501458e+07 
+4.4000000000000004e+00 -5.6620028541282685e-01 +7.7331739375956179e+00 -4.8245408583581156e-01 +7.1475437074978014e+00 +4.4134369713400638e+03 -1.9726686535082394e+05 -2.7801566305582777e+07 
+4.5000000000000000e+00 -5.6620050465077110e-01 +7.7331555127872367e+00 -4.8342704291226513e-01 +7.2801685737871447e+00 +4.4927376421711842e+03 -1.9725512153621850e+05 -2.8254730019240074e+07 
+4.5999999999999996e+00 -5.6620073896817424e-01 +7.7331365019198754e+00 -4.8367552391940594e-01 +7.4247368726460792e+00 +4.5614151716939959e+03 -1.9727549460768091e+05 -2.8665081766613487e+07 
+4.6999999999999993e+00 -5.6620098721795031e-01 +7.7331171437920361e+00 -4.8323161201247161e-01 +7.5772113943381090e+00 +4.6195825626500200e+03 -1.9731299412673956e+05 -2.9032272250343796e+07 
+4.7999999999999989e+00 -5.6620124825305929e-01 +7.7330976772125881e+00 -4.8212738628328666e-01 +7.7335547365127884e+00 +4.6673527509134001e+03 -1.9735262883920743e+05 -2.9355951870657280e+07 
+4.8999999999999986e+00 -5.6620152092645615e-01 +7.7330783409883104e+00 -4.8039492827689306e-01 +7.8897296760280700e+00 +4.7048387342440074e+03 -1.9737940885505176e+05 -2.9635771353640120e+07 
+4.9999999999999982e+00 -5.6620180409116472e-01 +7.7330593739384232e+00 -4.7806631260627319e-01 +8.0416987644215201e+00 +4.7321533887885817e+03 -1.9737834335477176e+05 -2.9871380860489789e+07 
+5.0999999999999979e+00 -5.6620209660020426e-01 +7.7330410148874567e+00 -4.7517361647763773e-01 +8.1854245174089755e+00 +4.7494096572558528e+03 -1.9733444163939808e+05 -3.0062430904913034e+07 
+5.1999999999999975e+00 -5.6620239730666888e-01 +7.7330235026692353e+00 -4.7174890976429501e-01 +8.3168693303688777e+00 +4.7567203565663240e+03 -1.9723271272295603e+05 -3.0208571425065272e+07 
+5.2999999999999972e+00 -5.6620270506363490e-01 +7.7330070761194918e+00 -4.6782426633821722e-01 +8.4319956836366892e+00 +4.7541983940923537e+03 -1.9705816650534686e+05 -3.0309452815479983e+07 
+5.3999999999999968e+00 -5.6620301872424283e-01 +7.7329919740891908e+00 -4.6343175457859909e-01 +8.5267657679661113e+00 +4.7419565904663659e+03 -1.9679581162419359e+05 -3.0364725090737171e+07 
+5.4999999999999964e+00 -5.6620333714168869e-01 +7.7329784354338882e+00 -4.5860343810948428e-01 +8.5971418034502882e+00 +4.7201076933490986e+03 -1.9643065734171472e+05 -3.0374037951119192e+07 
+5.5999999999999961e+00 -5.6620365916916759e-01 +7.7329666990213566e+00 -4.5337138311186154e-01 +8.6390858154022503e+00 +4.6887645177460727e+03 -1.9594771223110441e+05 -3.0337041452641770e+07 
+5.6999999999999957e+00 -5.6620398365993041e-01 +7.7329570037263506e+00 -4.4776765114286748e-01 +8.6485598024181414e+00 +4.6480398086422119e+03 -1.9533198519760568e+05 -3.0253385350703549e+07 
+5.7999999999999954e+00 -5.6620430946728117e-01 +7.7329495884375001e+00 -4.4182429964665260e-01 +8.6215255307655028e+00 +4.5980462511912147e+03 -1.9456848427245181e+05 -3.0122719148721445e+07 
+5.8999999999999950e+00 -5.6620463544455302e-01 +7.7329446920531604e+00 -4.3557338535915335e-01 +8.5539446799341672e+00 +4.5388965406512680e+03 -1.9364221752379139e+05 -2.9944692445487145e+07 
+5.9999999999999947e+00 -5.6620496044512869e-01 +7.7329425534803899e+00 -4.2904696125973352e-01 +8.4417788537201179e+00 +4.4707033179808614e+03 -1.9253819305721810e+05 -2.9718954607289370e+07 
+6.0999999999999943e+00 -5.6620528341522502e-01 +7.7329433310435247e+00 -4.2228529827250127e-01 +8.2825016397963260e+00 +4.3937949931224784e+03 -1.9124835812144520e+05 -2.9446204466107924e+07 
+6.1999999999999940e+00 -5.6620560366199724e-01 +7.7329468755588122e+00 -4.1535979622463903e-01 +8.0792836361162568e+00 +4.3093328111489436e+03 -1.8979098554474043e+05 -2.9131209411870498e+07 
+6.2999999999999936e+00 -5.6620592058012476e-01 +7.7329529645775414e+00 -4.0834925611762452e-01 +7.8366324157024305e+00 +4.2186799255784408e+03 -1.8819057234085572e+05 -2.8779727160165522e+07 
+6.3999999999999932e+00 -5.6620623356425759e-01 +7.7329613756647895e+00 -4.0133248141899996e-01 +7.5590551593061015e+00 +4.1231995357325977e+03 -1.8647161345739488e+05 -2.8397515638638202e+07 
+6.4999999999999929e+00 -5.6620654200901432e-01 +7.7329718864106312e+00 -3.9438827976658208e-01 +7.2510583040491179e+00 +4.0242549254075197e+03 -1.8465859962374272e+05 -2.7990333187964819e+07 
+6.5999999999999925e+00 -5.6620684530897669e-01 +7.7329842744181461e+00 -3.8759546236892867e-01 +6.9171479031171037e+00 +3.9232094457385492e+03 -1.8277601949227907e+05 -2.7563938466891598e+07 
+6.6999999999999922e+00 -5.6620714285865592e-01 +7.7329983173108090e+00 -3.8103284839452439e-01 +6.5618294028952171e+00 +3.8214265995730957e+03 -1.8084835831595765e+05 -2.7124090856044047e+07 
+6.7999999999999918e+00 -5.6620743405254714e-01 +7.7330137927355516e+00 -3.7477925944798107e-01 +6.1896075613706643e+00 +3.7202699439418643e+03 -1.7890009751133798e+05 -2.6676550013141427e+07 
+6.8999999999999915e+00 -5.6620771828507466e-01 +7.7330304783557420e+00 -3.6891352399513039e-01 +5.8049866259177403e+00 +3.6211031600529332e+03 -1.7695571560888877e+05 -2.6227076169467751e+07 
+6.9999999999999911e+00 -5.6620799495064578e-01 +7.7330481518559848e+00 -3.6351447264449122e-01 +5.4124702276409025e+00 +3.5252899769221735e+03 -1.7503968775739655e+05 -2.5781429802114010e+07 
+7.0999999999999908e+00 -5.6620826344357877e-01 +7.7330665909432135e+00 -3.5866094631245493e-01 +5.0165613222276306e+00 +3.4341943194082446e+03 -1.7317648529453960e+05 -2.5345372318254936e+07 
+7.1999999999999904e+00 -5.6620852315815540e-01 +7.7330855733488830e+00 -3.5443178955447496e-01 +4.6217621222586347e+00 +3.3491801835040396e+03 -1.7139057535883982e+05 -2.4924665468623519e+07 
+7.2999999999999901e+00 -5.6620877348862619e-01 +7.7331048768245170e+00 -3.5090585003618752e-01 +4.2325742413477467e+00 +3.2716116246577317e+03 -1.6970642176818836e+05 -2.4525071286237847e+07 
+7.3999999999999897e+00 -5.6620901382913358e-01 +7.7331242791472858e+00 -3.4816198772668727e-01 +3.8534985213058479e+00 +3.2028529332907933e+03 -1.6814848399734861e+05 -2.4152352926424120e+07 
+7.4999999999999893e+00 -5.6620924357381075e-01 +7.7331435581159473e+00 -3.4627906310146533e-01 +3.4890351464267111e+00 +3.1442684120977256e+03 -1.6674121782708910e+05 -2.3812273608876217e+07 
+7.5999999999999890e+00 -5.6620946211670931e-01 +7.7331624915589057e+00 -3.4533594614258950e-01 +3.1436834032810888e+00 +3.0972225465202368e+03 -1.6550907395041161e+05 -2.3510597426882461e+07 
+7.6999999999999886e+00 -5.6620966885181001e-01 +7.7331808573257810e+00 -3.4541151394987690e-01 +2.8219419397074552e+00 +3.0630799548040172e+03 -1.6447649951317321e+05 -2.3253089100766171e+07 
+7.7999999999999883e+00 -5.6620986317303457e-01 +7.7331984332957706e+00 -3.4658465013002232e-01 +2.5283084969750589e+00 +3.0432053813938287e+03 -1.6366793649964637e+05 -2.3045513957567386e+07 
+7.8999999999999879e+00 -5.6621004447425471e-01 +7.7332149973697328e+00 -3.4893424396559453e-01 +2.2672801613744875e+00 +3.0389636825582875e+03 -1.6310782325842002e+05 -2.2893637866632946e+07 
+7.9999999999999876e+00 -5.6621021214925571e-01 +7.7332303274820973e+00 -3.5253919365835196e-01 +2.0433530080001345e+00 +3.0517198822645228e+03 -1.6282059237751242e+05 -2.2803227489775214e+07 
+8.0999999999999872e+00 -5.6621036593518304e-01 +7.7332442388896769e+00 -3.5744979748444750e-01 +1.8602173414932972e+00 +3.0824206666415967e+03 -1.6282532503370353e+05 -2.2778467874005158e+07 
+8.1999999999999869e+00 -5.6621050696632502e-01 +7.7332566920853072e+00 -3.6360059852190002e-01 +1.7181660220249235e+00 +3.1303164282497164e+03 -1.6311742733241027e+05 -2.2817187822856352e+07 
+8.2999999999999865e+00 -5.6621063673278571e-01 +7.7332676829158338e+00 -3.7089676112411996e-01 +1.6165953399363326e+00 +3.1942265525075450e+03 -1.6368575968184814e+05 -2.2915618586892035e+07 
+8.3999999999999861e+00 -5.6621075672466525e-01 +7.7332772071909313e+00 -3.7924344779001978e-01 +1.5549025353107042e+00 +3.2729703637020734e+03 -1.6451918713784736e+05 -2.3069991086781632e+07 
+8.4999999999999858e+00 -5.6621086843209245e-01 +7.7332852606932807e+00 -3.8854581635594732e-01 +1.5324855411895328e+00 +3.3653670773975082e+03 -1.6560657819391065e+05 -2.3276535685787167e+07 
+8.5999999999999854e+00 -5.6621097334520121e-01 +7.7332918391644343e+00 -3.9870902230958660e-01 +1.5487433815977081e+00 +3.4702358378388121e+03 -1.6693680702423924e+05 -2.3531482348745070e+07 
+8.6999999999999851e+00 -5.6621107295413842e-01 +7.7332969383228418e+00 -4.0963821823664892e-01 +1.6030756447392533e+00 +3.5863957112677922e+03 -1.6849875042097896e+05 -2.3831060622755554e+07 
+8.7999999999999847e+00 -5.6621116874904265e-01 +7.7333005538408388e+00 -4.2123855489586065e-01 +1.6948831548026513e+00 +3.7126656953719298e+03 -1.7028129167292622e+05 -2.4171499653045006e+07 
+8.8999999999999844e+00 -5.6621126222010854e-01 +7.7333026813567809e+00 -4.3341517546055586e-01 +1.8235676218316856e+00 +3.8478646248108848e+03 -1.7227331855227894e+05 -2.4549027773811273e+07 
+8.9999999999999840e+00 -5.6621135485750917e-01 +7.7333033164726954e+00 -4.4607322309693997e-01 +1.9885316742804040e+00 +3.9908112994588460e+03 -1.7446372337079290e+05 -2.4959873076214246e+07 
+9.0999999999999837e+00 -5.6621144815144486e-01 +7.7333024547499498e+00 -4.5911783625056202e-01 +2.1891790279523753e+00 +4.1403244044825196e+03 -1.7684140407979890e+05 -2.5400263054919649e+07 
+9.1999999999999833e+00 -5.6621154359211490e-01 +7.7333000917065773e+00 -4.7245415133140928e-01 +2.4249145234031717e+00 +4.2952225539152050e+03 -1.7939526436478435e+05 -2.5866424795013711e+07 
+9.2999999999999829e+00 -5.6621164266975954e-01 +7.7332962228231992e+00 -4.8598729757112635e-01 +2.6951439698664807e+00 +4.4543241964501367e+03 -1.8211421276329740e+05 -2.6354584535598889e+07 
+9.3999999999999826e+00 -5.6621174687461262e-01 +7.7332908435368743e+00 -4.9962240318059487e-01 +2.9992743054155007e+00 +4.6164477309387339e+03 -1.8498716353742121e+05 -2.6860968214327674e+07 
+9.4999999999999822e+00 -5.6621185769694737e-01 +7.7332839492355951e+00 -5.1326458910292128e-01 +3.3367137733525967e+00 +4.7804113821367864e+03 -1.8800303773319928e+05 -2.7381800861301716e+07 
+9.5999999999999819e+00 -5.6621197662702372e-01 +7.7332755352697378e+00 -5.2681897622423912e-01 +3.7068715689041905e+00 +4.9450333459029816e+03 -1.9115076105912332e+05 -2.7913307313740522e+07 
+9.6999999999999815e+00 -5.6621210515515330e-01 +7.7332655969388693e+00 -5.4019067616093319e-01 +4.1091582260810178e+00 +5.1091316026772756e+03 -1.9441926612443020e+05 -2.8451711297390148e+07 
+9.7999999999999812e+00 -5.6621224477163123e-01 +7.7332541294951600e+00 -5.5328480106490163e-01 +4.5429855166106892e+00 +5.2715241133706222e+03 -1.9779749184423994e+05 -2.8993236384622566e+07 
+9.8999999999999808e+00 -5.6621239696679304e-01 +7.7332411281407030e+00 -5.6600645545538864e-01 +5.0077665194118328e+00 +5.4310286570534390e+03 -2.0127438380506297e+05 -2.9534105204496223e+07 
+9.9999999999999805e+00 -5.6621256323100855e-01 +7.7332265880330668e+00 -5.7826073675214296e-01 +5.5029154469496282e+00 +5.5864628356363373e+03 -2.0483889323315941e+05 -3.0070539450501159e+07 
+1.0099999999999980e+01 -5.6621274480751382e-01 +7.7332105295610027e+00 -5.8996416790807227e-01 +6.0272631388047033e+00 +5.7367588130914155e+03 -2.0847812048128032e+05 -3.0598988073512122e+07 
