# multipoles
# s[mm] polynom_b[n=0][T/m^n] polynom_b[n=1][T/m^n] polynom_b[n=2][T/m^n] polynom_b[n=3][T/m^n] polynom_b[n=4][T/m^n] polynom_b[n=5][T/m^n] polynom_b[n=6][T/m^n] 
+0.0000000000000000e+00 -5.3645012830358507e-01 +7.3487944327806671e+00 -1.0996683452943221e-01 +3.1655838616243315e+01 -2.7905320770208009e+03 -4.0194516414816777e+05 +1.4816646418070285e+07 
-1.0000000000000001e-01 -5.3645011094575323e-01 +7.3487604572405765e+00 -1.1052909993560781e-01 +3.2291346223357394e+01 -2.8125594142926475e+03 -4.0467658604900812e+05 +1.4971889510569932e+07 
-2.0000000000000001e-01 -5.3645008797254901e-01 +7.3487266055804570e+00 -1.1130908010562865e-01 +3.2876134748625397e+01 -2.8329622093222051e+03 -4.0703689480728551e+05 +1.5118493625197114e+07 
-3.0000000000000004e-01 -5.3645006085313263e-01 +7.3486931781035674e+00 -1.1227268188534481e-01 +3.3408553302581559e+01 -2.8518158328506365e+03 -4.0903158610020857e+05 +1.5256256673110109e+07 
-4.0000000000000002e-01 -5.3645003105665157e-01 +7.3486604751084004e+00 -1.1338581377701107e-01 +3.3886951158598713e+01 -2.8691956218474597e+03 -4.1066615654720750e+05 +1.5384976391987570e+07 
-5.0000000000000000e-01 -5.3645000005226284e-01 +7.3486287968959587e+00 -1.1461438228765188e-01 +3.4309677511625303e+01 -2.8851769533904899e+03 -4.1194610223188216e+05 +1.5504450709374227e+07 
-5.9999999999999998e-01 -5.3644996930914035e-01 +7.3485984437661731e+00 -1.1592429207222996e-01 +3.4675081591512892e+01 -2.8998352353735672e+03 -4.1287691939616879e+05 +1.5614477683331391e+07 
-6.9999999999999996e-01 -5.3644994029647808e-01 +7.3485697160183783e+00 -1.1728144541789332e-01 +3.4981512627402843e+01 -2.9132459169081462e+03 -4.1346410417864152e+05 +1.5714855553886527e+07 
-7.9999999999999993e-01 -5.3644991448345480e-01 +7.3485429139490144e+00 -1.1865174693862759e-01 +3.5227319899256656e+01 -2.9254843987646045e+03 -4.1371315288541600e+05 +1.5805382319300871e+07 
-8.9999999999999991e-01 -5.3644989333928350e-01 +7.3485183378569250e+00 -1.2000109745549516e-01 +3.5410852597781755e+01 -2.9366261481652236e+03 -4.1362956121681241e+05 +1.5885856278278312e+07 
-9.9999999999999989e-01 -5.3644987833319036e-01 +7.3484962880354852e+00 -1.2129539708065856e-01 +3.5530460009798176e+01 -2.9467466386078954e+03 -4.1321882523771864e+05 +1.5956075742133385e+07 
-1.0999999999999999e+00 -5.3644987093440322e-01 +7.3484770647815099e+00 -1.2250054667874032e-01 +3.5584491281900441e+01 -2.9559213200126983e+03 -4.1248644007032592e+05 +1.6015838887427609e+07 
-1.2000000000000000e+00 -5.3644987261218602e-01 +7.3484609683802180e+00 -1.2358244413664432e-01 +3.5571295824606374e+01 -2.9642256888031193e+03 -4.1143790216372727e+05 +1.6064944090088231e+07 
-1.3000000000000000e+00 -5.3644988483580858e-01 +7.3484482991238691e+00 -1.2450698741908009e-01 +3.5489222771871638e+01 -2.9717352324371241e+03 -4.1007870616507984e+05 +1.6103189668753637e+07 
-1.4000000000000001e+00 -5.3644990907455281e-01 +7.3484393572934446e+00 -1.2524007553351785e-01 +3.5336621502847024e+01 -2.9785254022286113e+03 -4.0841434792524244e+05 +1.6130373735490492e+07 
-1.5000000000000002e+00 -5.3644994679774050e-01 +7.3484344431725068e+00 -1.2574760378409877e-01 +3.5111841218232122e+01 -2.9846717093160596e+03 -4.0645032199537056e+05 +1.6146294666159375e+07 
-1.6000000000000003e+00 -5.3644999947470773e-01 +7.3484338570362180e+00 -1.2599546786888183e-01 +3.4813231269179589e+01 -2.9902496430478554e+03 -4.0419212356431497e+05 +1.6150750706415419e+07 
-1.7000000000000004e+00 -5.3645006857480959e-01 +7.3484378991602606e+00 -1.2594956359384421e-01 +3.4439140871857987e+01 -2.9953346743360489e+03 -4.0164524674689723e+05 +1.6143539982706238e+07 
-1.8000000000000005e+00 -5.3645015556741560e-01 +7.3484468698103003e+00 -1.2557578753289120e-01 +3.3987919406258882e+01 -3.0000022421735202e+03 -3.9881518629573705e+05 +1.6124460436588084e+07 
-1.9000000000000006e+00 -5.3645026192195044e-01 +7.3484610692512025e+00 -1.2484003169584920e-01 +3.3457916150143866e+01 -3.0043278572676277e+03 -3.9570743607603398e+05 +1.6093310326222735e+07 
-2.0000000000000004e+00 -5.3645038910782661e-01 +7.3484807977408408e+00 -1.2370819339238126e-01 +3.2847480431083724e+01 -3.0083869054009747e+03 -3.9232748988556809e+05 +1.6049887267678674e+07 
-2.1000000000000005e+00 -5.3645053804300258e-01 +7.3485062114070621e+00 -1.2216418853243080e-01 +3.2156870820086887e+01 -3.0121693082580277e+03 -3.8868641343242512e+05 +1.5993952278783092e+07 
-2.2000000000000006e+00 -5.3645070744060763e-01 +7.3485368824700670e+00 -1.2026188592305374e-01 +3.1394218640857972e+01 -3.0153526366359811e+03 -3.8481859154612210e+05 +1.5925213342020402e+07 
-2.3000000000000007e+00 -5.3645089546295965e-01 +7.3485722353104768e+00 -1.1807208748224143e-01 +3.0569681617337213e+01 -3.0175442950553347e+03 -3.8076448920033348e+05 +1.5843391031761304e+07 
-2.4000000000000008e+00 -5.3645110027233067e-01 +7.3486116943134725e+00 -1.1566560052741022e-01 +2.9693417407052447e+01 -3.0183515927349877e+03 -3.7656457119236857e+05 +1.5748205489538740e+07 
-2.5000000000000009e+00 -5.3645132003097373e-01 +7.3486546838700431e+00 -1.1311323382568050e-01 +2.8775583559313386e+01 -3.0173818212743822e+03 -3.7225930189685879e+05 +1.5639376799625801e+07 
-2.6000000000000010e+00 -5.3645155290114444e-01 +7.3487006283749183e+00 -1.1048579494420935e-01 +2.7826337623511968e+01 -3.0142423040957055e+03 -3.6788914602793555e+05 +1.5516625219609033e+07 
-2.7000000000000011e+00 -5.3645179704504287e-01 +7.3487489522343177e+00 -1.0785409736589815e-01 +2.6855836899712820e+01 -3.0085402657899544e+03 -3.6349456712815550e+05 +1.5379670573866805e+07 
-2.8000000000000012e+00 -5.3645205062486045e-01 +7.3487990798613891e+00 -1.0528895395481039e-01 +2.5874238611838294e+01 -2.9998829574462407e+03 -3.5911602868369222e+05 +1.5228232847696202e+07 
-2.9000000000000012e+00 -5.3645231180273634e-01 +7.3488504356756801e+00 -1.0286118235855823e-01 +2.4891699925446499e+01 -2.9878775578818386e+03 -3.5479399424335884e+05 +1.5062031731047045e+07 
-3.0000000000000013e+00 -5.3645257874080188e-01 +7.3489024441082726e+00 -1.0064159968297380e-01 +2.3918377817940772e+01 -2.9721312706584472e+03 -3.5056892671562964e+05 +1.4880787064852377e+07 
-3.1000000000000014e+00 -5.3645284960112061e-01 +7.3489545296004595e+00 -9.8701029207499708e-02 +2.2964429129238873e+01 -2.9522512061130801e+03 -3.4648128870211804e+05 +1.4684218308844693e+07 
-3.2000000000000015e+00 -5.3645312254572464e-01 +7.3490061166062990e+00 -9.7110295768229854e-02 +2.2040010501997294e+01 -2.9278444652259832e+03 -3.4257154219252017e+05 +1.4472044924193099e+07 
-3.3000000000000016e+00 -5.3645339573660755e-01 +7.3490566295890298e+00 -9.5940226476175117e-02 +2.1155278501908317e+01 -2.8985181314507295e+03 -3.3888014930478926e+05 +1.4243986354288438e+07 
-3.4000000000000017e+00 -5.3645366733568234e-01 +7.3491054930276851e+00 -9.5261655820654698e-02 +2.0320389437962490e+01 -2.8638791732975760e+03 -3.3544757128643390e+05 +1.3999761555099351e+07 
-3.5000000000000018e+00 -5.3645393550485598e-01 +7.3491521314110582e+00 -9.5145415910153686e-02 +1.9545499551790016e+01 -2.8235346330477446e+03 -3.3231426965149044e+05 +1.3739089902815674e+07 
-3.6000000000000019e+00 -5.3645419840593866e-01 +7.3491959692467352e+00 -9.5662348004313655e-02 +1.8840764771728402e+01 -2.7770914073608151e+03 -3.2952070479755010e+05 +1.3461690148622448e+07 
-3.7000000000000020e+00 -5.3645445420070004e-01 +7.3492364310555178e+00 -9.6883294387903801e-02 +1.8216340889373019e+01 -2.7241564104745557e+03 -3.2710733707357594e+05 +1.3167281218722481e+07 
-3.8000000000000020e+00 -5.3645470105083237e-01 +7.3492729413752951e+00 -9.8879104022395053e-02 +1.7682383458177068e+01 -2.6643364573834933e+03 -3.2511462623387261e+05 +1.2855581630054854e+07 
-3.9000000000000021e+00 -5.3645493711797143e-01 +7.3493049247574191e+00 -1.0172062874913078e-01 +1.7249047915468132e+01 -2.5972383458870208e+03 -3.2358303218128090e+05 +1.2526309908317203e+07 
-4.0000000000000018e+00 -5.3645516056368103e-01 +7.3493318057778758e+00 -1.0547872508337507e-01 +1.6926489276887846e+01 -2.5224688247157105e+03 -3.2255301324137714e+05 +1.2179184442819776e+07 
-4.1000000000000014e+00 -5.3645537004911648e-01 +7.3493531623744213e+00 -1.1019906173739970e-01 +1.6721914621053685e+01 -2.4398334053471376e+03 -3.2205238986605388e+05 +1.1814355391651589e+07 
-4.2000000000000011e+00 -5.3645556624092172e-01 +7.3493691966379711e+00 -1.1582976661513408e-01 +1.6630240435624838e+01 -2.3498707739009169e+03 -3.2205583542236843e+05 +1.1433445910990167e+07 
-4.3000000000000007e+00 -5.3645575030884307e-01 +7.3493802694905206e+00 -1.2229540613957815e-01 +1.6643184751958092e+01 -2.2532865783296870e+03 -3.2252409253992001e+05 +1.1038379514002800e+07 
-4.4000000000000004e+00 -5.3645592342268200e-01 +7.3493867418474608e+00 -1.2952054046775660e-01 +1.6752465712843051e+01 -2.1507865774379561e+03 -3.2341790427778382e+05 +1.0631080221165819e+07 
-4.5000000000000000e+00 -5.3645608675223377e-01 +7.3493889746145724e+00 -1.3742973100908010e-01 +1.6949801671752869e+01 -2.0430764996475070e+03 -3.2469801469881285e+05 +1.0213471890726086e+07 
-4.5999999999999996e+00 -5.3645624146733961e-01 +7.3493873286843003e+00 -1.4594753421667120e-01 +1.7226911267135872e+01 -1.9308621567141693e+03 -3.2632516921406303e+05 +9.7874787468731236e+06 
-4.6999999999999993e+00 -5.3645638873787282e-01 +7.3493821649443580e+00 -1.5499850332566101e-01 +1.7575513181601050e+01 -1.8148494112665221e+03 -3.2826011319856998e+05 +9.3550252277016118e+06 
-4.7999999999999989e+00 -5.3645652973373170e-01 +7.3493738442629057e+00 -1.6450718911174786e-01 +1.7987326550288007e+01 -1.6957441629914117e+03 -3.3046359429557138e+05 +8.9180359212713689e+06 
-4.8999999999999986e+00 -5.3645666562487082e-01 +7.3493627275021218e+00 -1.7439813663509832e-01 +1.8454070571417720e+01 -1.5742524051284051e+03 -3.3289636017520895e+05 +8.4784358196419403e+06 
-4.9999999999999982e+00 -5.3645679758126585e-01 +7.3493491755029607e+00 -1.8459588886301523e-01 +1.8967464931775808e+01 -1.4510801608680083e+03 -3.3551916094367509e+05 +8.0381500304408856e+06 
-5.0999999999999979e+00 -5.3645692677294321e-01 +7.3493335490984339e+00 -1.9502498409523225e-01 +1.9519229404605753e+01 -1.3269335240204759e+03 -3.3829274676523847e+05 +7.5991039483802067e+06 
-5.1999999999999975e+00 -5.3645705436995250e-01 +7.3493162091039110e+00 -2.0560995832588258e-01 +2.0101084147575683e+01 -1.2025186193294066e+03 -3.4117786963359435e+05 +7.1632230790225994e+06 
-5.2999999999999972e+00 -5.3645718154241606e-01 +7.3492975163157439e+00 -2.1627534018304256e-01 +2.0704749702091700e+01 -1.0785416956925753e+03 -3.4413528324904619e+05 +6.7324334780798992e+06 
-5.3999999999999968e+00 -5.3645730946050574e-01 +7.3492778315177123e+00 -2.2694565333008548e-01 +2.1321946819764996e+01 -9.5570907674641637e+02 -3.4712574205057527e+05 +6.3086615012532920e+06 
-5.4999999999999964e+00 -5.3645743929441714e-01 +7.3492575154725674e+00 -2.3754541991617625e-01 +2.1944396691674573e+01 -8.3472709735127967e+02 -3.5011000249234587e+05 +5.8938335105373897e+06 
-5.5999999999999961e+00 -5.3645757221443768e-01 +7.3492369289229771e+00 -2.4799915223612717e-01 +2.2563820909356014e+01 -7.1630226058220205e+02 -3.5304882278627931e+05 +5.4898766177602345e+06 
-5.6999999999999957e+00 -5.3645770939087345e-01 +7.3492164325976539e+00 -2.5823136169315636e-01 +2.3171941282852167e+01 -6.0114106730140918e+02 -3.5590296182901372e+05 +5.0987178717289912e+06 
-5.7999999999999954e+00 -5.3645785199413243e-01 +7.3491963871983357e+00 -2.6816654893289654e-01 +2.3760480206523095e+01 -4.8995019873665649e+02 -3.5863318129072490e+05 +4.7222851140969498e+06 
-5.8999999999999950e+00 -5.3645800119464848e-01 +7.3491771534088270e+00 -2.7772921295049086e-01 +2.4321160388597946e+01 -3.8343634673781384e+02 -3.6120024401714985e+05 +4.3625061807907149e+06 
-5.9999999999999947e+00 -5.3645815816293585e-01 +7.3491590918897192e+00 -2.8684384449798100e-01 +2.4845704993103066e+01 -2.8230633805020614e+02 -3.6356491483377421e+05 +4.0213094905114942e+06 
-6.0999999999999943e+00 -5.3645832391869075e-01 +7.3491424982147526e+00 -2.9544594970225246e-01 +2.5327411790352610e+01 -1.8716071943875554e+02 -3.6569608854932705e+05 +3.7003431816624412e+06 
-6.1999999999999940e+00 -5.3645849886482899e-01 +7.3491274042781738e+00 -3.0351433264563799e-01 +2.5766149208674506e+01 -9.8202009340839197e+01 -3.6759681872149953e+05 +3.4002839081024434e+06 
-6.2999999999999936e+00 -5.3645868324658530e-01 +7.3491137750683810e+00 -3.1103843993254099e-01 +2.6163500983101059e+01 -1.5540302814982153e+01 -3.6927913188692922e+05 +3.1216050697630807e+06 
-6.3999999999999932e+00 -5.3645887730920105e-01 +7.3491015755688016e+00 -3.1800771840341491e-01 +2.6521050918372119e+01 +6.0714318085914122e+01 -3.7075505476961297e+05 +2.8647799859106508e+06 
-6.4999999999999929e+00 -5.3645908129792874e-01 +7.3490907707625226e+00 -3.2441161406984032e-01 +2.6840382762015494e+01 +1.3045176612505867e+02 -3.7203661358740827e+05 +2.6302819749925314e+06 
-6.5999999999999925e+00 -5.3645929545796989e-01 +7.3490813256241543e+00 -3.3023958008563309e-01 +2.7123080410619572e+01 +1.9356209595605040e+02 -3.7313583517682296e+05 +2.4185836719625159e+06 
-6.6999999999999922e+00 -5.3645952003455100e-01 +7.3490732051258911e+00 -3.3548106753472579e-01 +2.7370727758664362e+01 +2.4993533611353621e+02 -3.7406474617299944e+05 +2.2301578049538066e+06 
-6.7999999999999918e+00 -5.3645975527286915e-01 +7.3490663742361182e+00 -3.4012553152930308e-01 +2.7584908721785034e+01 +2.9946159818483022e+02 -3.7483537310535304e+05 +2.0654766951119085e+06 
-6.8999999999999915e+00 -5.3646000141811001e-01 +7.3490607979178790e+00 -3.4416243020705045e-01 +2.7767207279366545e+01 +3.4203106513685321e+02 -3.7545974263966811e+05 +1.9250122938535563e+06 
-6.9999999999999911e+00 -5.3646025871547542e-01 +7.3490564411333548e+00 -3.4758121999755204e-01 +2.7919207352679088e+01 +3.7753389481768846e+02 -3.7594988089250296e+05 +1.8092366586375467e+06 
-7.0999999999999908e+00 -5.3646052741011607e-01 +7.3490532688359558e+00 -3.5037136489938220e-01 +2.8042493020561306e+01 +4.0586040220891277e+02 -3.7631781464275683e+05 +1.7186210694269892e+06 
-7.1999999999999904e+00 -5.3646080774717575e-01 +7.3490512459783242e+00 -3.5252233064124405e-01 +2.8138648292768035e+01 +4.2690094449609637e+02 -3.7657557003869821e+05 +1.6536365879195286e+06 
-7.2999999999999901e+00 -5.3646109997181224e-01 +7.3490503375121783e+00 -3.5402358245761995e-01 +2.8209257103087090e+01 +4.4054588325228644e+02 -3.7673517252334749e+05 +1.6147542245911395e+06 
-7.3999999999999897e+00 -5.3646140432913925e-01 +7.3490505083756386e+00 -3.5486459179184815e-01 +2.8255903684233104e+01 +4.4668570785113116e+02 -3.7680864902610262e+05 +1.6024443633133250e+06 
-7.4999999999999893e+00 -5.3646172106427847e-01 +7.3490517235102555e+00 -3.5503483024493565e-01 +2.8280172077773774e+01 +4.4521092234380768e+02 -3.7680802514144994e+05 +1.6171772939811747e+06 
-7.5999999999999890e+00 -5.3646205042231010e-01 +7.3490539478538572e+00 -3.5452377565618759e-01 +2.8283646308906942e+01 +4.3601216247955836e+02 -3.7674532604194281e+05 +1.6594226527200313e+06 
-7.6999999999999886e+00 -5.3646239264831330e-01 +7.3490571463342533e+00 -3.5332090722437581e-01 +2.8267910611005561e+01 +4.1898010397613820e+02 -3.7663257790510863e+05 +1.7296498541727576e+06 
-7.7999999999999883e+00 -5.3646274798735860e-01 +7.3490612838828282e+00 -3.5141570610754486e-01 +2.8234548988770623e+01 +3.9400546999653216e+02 -3.7648180525735696e+05 +1.8283280694912449e+06 
-7.8999999999999879e+00 -5.3646311668448277e-01 +7.3490663254199742e+00 -3.4879765942038599e-01 +2.8185145661332580e+01 +3.6097911372890411e+02 -3.7630503360552737e+05 +1.9559258142759758e+06 
-7.9999999999999876e+00 -5.3646349898470091e-01 +7.3490722358641367e+00 -3.4545625723479029e-01 +2.8121284775683463e+01 +3.1979195054255649e+02 -3.7611428771565261e+05 +2.1129113010011301e+06 
-8.0999999999999872e+00 -5.3646389487831780e-01 +7.3490789766402447e+00 -3.4140167758309714e-01 +2.8044289546186260e+01 +2.7060852945678033e+02 -3.7591832735840179e+05 +2.2986840737487217e+06 
-8.1999999999999869e+00 -5.3646430335302364e-01 +7.3490864967284617e+00 -3.3672435925103245e-01 +2.7954618622807207e+01 +2.1465391114947269e+02 -3.7571369930817548e+05 +2.5084303190735294e+06 
-8.2999999999999865e+00 -5.3646472314986737e-01 +7.3490947423935777e+00 -3.3153419725440597e-01 +2.7852554136887242e+01 +1.5340940737628904e+02 -3.7549404228858126e+05 +2.7362996150921788e+06 
-8.3999999999999861e+00 -5.3646515300984898e-01 +7.3491036599339052e+00 -3.2594109077304217e-01 +2.7738377394909101e+01 +8.8356386307130506e+01 -3.7525299045767623e+05 +2.9764412988957674e+06 
-8.4999999999999858e+00 -5.3646559167402774e-01 +7.3491131956745939e+00 -3.2005493021154274e-01 +2.7612369084302529e+01 +2.0976032007550796e+01 -3.7498417477728467e+05 +3.2230056073610210e+06 
-8.5999999999999854e+00 -5.3646603788344427e-01 +7.3491232959742661e+00 -3.1398560658644609e-01 +2.7474809086658610e+01 -4.7250483998460169e+01 -3.7468122194768366e+05 +3.4701428823228963e+06 
-8.6999999999999851e+00 -5.3646649037913885e-01 +7.3491339072188202e+00 -3.0784300893280786e-01 +2.7325976655461844e+01 -1.1484204882386845e+02 -3.7433775542962248e+05 +3.7120037768925792e+06 
-8.7999999999999847e+00 -5.3646694790217087e-01 +7.3491449758294980e+00 -3.0173702218606441e-01 +2.7166150204544579e+01 -1.8031765070431155e+02 -3.7394739427958435e+05 +3.9427394643215127e+06 
-8.8999999999999844e+00 -5.3646740919359648e-01 +7.3491564482628302e+00 -2.9577752986687350e-01 +2.6995607297444835e+01 -2.4219632740197926e+02 -3.7350375305235642e+05 +4.1565013907240345e+06 
-8.9999999999999840e+00 -5.3646787299447929e-01 +7.3491682710073789e+00 -2.9007441204071005e-01 +2.6814624762690688e+01 -2.9899721053368273e+02 -3.7300044252720074e+05 +4.3474414998900816e+06 
-9.0999999999999837e+00 -5.3646833804590266e-01 +7.3491803905878221e+00 -2.8473754524919270e-01 +2.6623478574748908e+01 -3.4923951757879718e+02 -3.7243106900808174e+05 +4.5097121698964210e+06 
-9.1999999999999833e+00 -5.3646880308891742e-01 +7.3491927535638153e+00 -2.7987680688851718e-01 +2.6422443882294434e+01 -3.9144248218807132e+02 -3.7178923448252701e+05 +4.6374659160098154e+06 
-9.2999999999999829e+00 -5.3646926686463536e-01 +7.3492053065355316e+00 -2.7560206531725184e-01 +2.6211794880595324e+01 -4.2412553227502070e+02 -3.7106853596628289e+05 +4.7248562124882545e+06 
-9.3999999999999826e+00 -5.3646972811412985e-01 +7.3492179961396875e+00 -2.7202319125287150e-01 +2.5991804903461343e+01 -4.4580807951155953e+02 -3.7026256596867577e+05 +4.7660365056596855e+06 
-9.4999999999999822e+00 -5.3647018557850801e-01 +7.3492307690528218e+00 -2.6925004881870712e-01 +2.5762746353743449e+01 -4.5500968883927953e+02 -3.6936491216296336e+05 +4.7551610178153412e+06 
-9.5999999999999819e+00 -5.3647063799886419e-01 +7.3492435719930569e+00 -2.6739250174395163e-01 +2.5524890646356440e+01 -4.5024996107309437e+02 -3.6836915703734831e+05 +4.6863841908859117e+06 
-9.6999999999999815e+00 -5.3647108411631239e-01 +7.3492563517142520e+00 -2.6656040827335642e-01 +2.5278508387358666e+01 -4.3004863231379426e+02 -3.6726887895854720e+05 +4.5538611624484444e+06 
-9.7999999999999812e+00 -5.3647152267197118e-01 +7.3492690550199322e+00 -2.6686362438684064e-01 +2.5023868983267821e+01 -3.9292550914095074e+02 -3.6605764993623982e+05 +4.3517474514396582e+06 
-9.8999999999999808e+00 -5.3647195240696266e-01 +7.3492816287528875e+00 -2.6841200238717988e-01 +2.4761240938894247e+01 -3.3740050239659217e+02 -3.6472903735017404e+05 +4.0741991333929729e+06 
-9.9999999999999805e+00 -5.3647237206242782e-01 +7.3492940197989904e+00 -2.7131538995317167e-01 +2.4490891818992239e+01 -2.6199363289344922e+02 -3.6327660394677491e+05 +3.7153728252008148e+06 
-1.0099999999999980e+01 -5.3647278093405359e-01 +7.3493061709022776e+00 -2.7563286685833754e-01 +2.4213694053783268e+01 -1.6597021801865787e+02 -3.6169986081306136e+05 +3.2724387144181733e+06 
