# field on trajectory
# s[mm] rx[mm] ry[mm] rz[mm] bx[T] by[T] bz[T]
-0.0000000000000000e+00 +8.1530000000000094e+00 +0.0000000000000000e+00 -0.0000000000000000e+00 -3.0638807391875023e-02 -5.9325238014828585e-01 +6.0550483206949553e-03
-1.0000000000000001e-01 +8.1529997159377707e+00 +0.0000000000000000e+00 -1.0008006405070299e-01 -3.0638910668036975e-02 -5.9325227234919098e-01 +6.0550691949499118e-03
-2.0000000000000001e-01 +8.1529988637557800e+00 +0.0000000000000000e+00 -2.0016012809818201e-01 -3.0639004200596977e-02 -5.9325216396910418e-01 +6.0550920871520822e-03
-2.9999999999999999e-01 +8.1529974434524792e+00 +0.0000000000000000e+00 -3.0024019213920999e-01 -3.0639088307413128e-02 -5.9325205493003275e-01 +6.0551167291028381e-03
-4.0000000000000002e-01 +8.1529954550242092e+00 +0.0000000000000000e+00 -4.0032025617056399e-01 -3.0639163306345883e-02 -5.9325194515400292e-01 +6.0551428526035385e-03
-5.0000000000000000e-01 +8.1529928984782600e+00 +0.0000000000000000e+00 -5.0040032018901703e-01 -3.0639229515252449e-02 -5.9325183456295061e-01 +6.0551701894546615e-03
-5.9999999999999998e-01 +8.1529897738146193e+00 +0.0000000000000000e+00 -6.0048038419134497e-01 -3.0639287251995096e-02 -5.9325172307886920e-01 +6.0551984714575340e-03
-6.9999999999999996e-01 +8.1529860810223909e+00 +0.0000000000000000e+00 -7.0056044817432195e-01 -3.0639336834442969e-02 -5.9325161062383580e-01 +6.0552274304148772e-03
-8.0000000000000004e-01 +8.1529818201124709e+00 +0.0000000000000000e+00 -8.0064051213472498e-01 -3.0639378580457712e-02 -5.9325149711974456e-01 +6.0552567981282269e-03
-9.0000000000000002e-01 +8.1529769910812302e+00 +0.0000000000000000e+00 -9.0072057606932698e-01 -3.0639412807909792e-02 -5.9325138248859899e-01 +6.0552863064012325e-03
-1.0000000000000000e+00 +8.1529715939250291e+00 +0.0000000000000000e+00 -1.0008006399749001e+00 -3.0639439834672311e-02 -5.9325126665239436e-01 +6.0553156870386355e-03
-1.1000000000000001e+00 +8.1529656286511507e+00 +0.0000000000000000e+00 -1.1008807038482300e+00 -3.0639459978616258e-02 -5.9325114953302371e-01 +6.0553446718455556e-03
-1.2000000000000000e+00 +8.1529590952522994e+00 +0.0000000000000000e+00 -1.2009607676860801e+00 -3.0639473557622064e-02 -5.9325103105248633e-01 +6.0553729926298662e-03
-1.3000000000000000e+00 +8.1529519937357708e+00 +0.0000000000000000e+00 -1.3010408314852300e+00 -3.0639480889566834e-02 -5.9325091113264672e-01 +6.0554003811999317e-03
-1.3999999999999999e+00 +8.1529443240979198e+00 +0.0000000000000000e+00 -1.4011208952424601e+00 -3.0639482292335846e-02 -5.9325078969544198e-01 +6.0554265693669729e-03
-1.5000000000000000e+00 +8.1529360863350995e+00 +0.0000000000000000e+00 -1.5012009589545301e+00 -3.0639478083817971e-02 -5.9325066666278914e-01 +6.0554512889443796e-03
-1.6000000000000001e+00 +8.1529272804509691e+00 +0.0000000000000000e+00 -1.6012810226182299e+00 -3.0639468581902533e-02 -5.9325054195652671e-01 +6.0554742717472739e-03
-1.7000000000000000e+00 +8.1529179064491508e+00 +0.0000000000000000e+00 -1.7013610862303301e+00 -3.0639454104482745e-02 -5.9325041549846858e-01 +6.0554952495933531e-03
-1.8000000000000000e+00 +8.1529079643223703e+00 +0.0000000000000000e+00 -1.8014411497875999e+00 -3.0639434969460803e-02 -5.9325028721049444e-01 +6.0555139543040292e-03
-1.8999999999999999e+00 +8.1528974540779000e+00 +0.0000000000000000e+00 -1.9015212132868200e+00 -3.0639411494736736e-02 -5.9325015701433848e-01 +6.0555301177024831e-03
-2.0000000000000000e+00 +8.1528863757084800e+00 +0.0000000000000000e+00 -2.0016012767247702e+00 -3.0639383998221838e-02 -5.9325002483182598e-01 +6.0555434716166624e-03
-2.1000000000000001e+00 +8.1528747292177304e+00 +0.0000000000000000e+00 -2.1016813400982199e+00 -3.0639352881031093e-02 -5.9324989082025936e-01 +6.0555538326185999e-03
-2.2000000000000002e+00 +8.1528625146056601e+00 +0.0000000000000000e+00 -2.2017614034039301e+00 -3.0639318861505012e-02 -5.9324975603518193e-01 +6.0555613403679414e-03
-2.2999999999999998e+00 +8.1528497318759001e+00 +0.0000000000000000e+00 -2.3018414666387002e+00 -3.0639282733566284e-02 -5.9324962174614271e-01 +6.0555662115092217e-03
-2.3999999999999999e+00 +8.1528363810211903e+00 +0.0000000000000000e+00 -2.4019215297993002e+00 -3.0639245291136413e-02 -5.9324948922278620e-01 +6.0555686626872808e-03
-2.5000000000000000e+00 +8.1528224620451493e+00 +0.0000000000000000e+00 -2.5020015928824901e+00 -3.0639207328124946e-02 -5.9324935973468029e-01 +6.0555689105451583e-03
-2.6000000000000001e+00 +8.1528079749477893e+00 +0.0000000000000000e+00 -2.6020816558850601e+00 -3.0639169638435104e-02 -5.9324923455143563e-01 +6.0555671717250703e-03
-2.7000000000000002e+00 +8.1527929197291105e+00 +0.0000000000000000e+00 -2.7021617188037701e+00 -3.0639133015961127e-02 -5.9324911494267862e-01 +6.0555636628678395e-03
-2.7999999999999998e+00 +8.1527772963891003e+00 +0.0000000000000000e+00 -2.8022417816354102e+00 -3.0639098254587400e-02 -5.9324900217805365e-01 +6.0555586006126542e-03
-2.8999999999999999e+00 +8.1527611049277802e+00 +0.0000000000000000e+00 -2.9023218443767500e+00 -3.0639066148187476e-02 -5.9324889752722654e-01 +6.0555522015967953e-03
-3.0000000000000000e+00 +8.1527443453451305e+00 +0.0000000000000000e+00 -3.0024019070245598e+00 -3.0639037490623137e-02 -5.9324880225988630e-01 +6.0555446824553886e-03
-3.1000000000000001e+00 +8.1527270176411495e+00 +0.0000000000000000e+00 -3.1024819695756198e+00 -3.0639013075743439e-02 -5.9324871764574860e-01 +6.0555362598211570e-03
-3.2000000000000002e+00 +8.1527091218158603e+00 +0.0000000000000000e+00 -3.2025620320267101e+00 -3.0638993697383803e-02 -5.9324864495455665e-01 +6.0555271503241505e-03
-3.2999999999999998e+00 +8.1526906578692397e+00 +0.0000000000000000e+00 -3.3026420943745900e+00 -3.0638980149365024e-02 -5.9324858545608594e-01 +6.0555175705914949e-03
-3.3999999999999999e+00 +8.1526716258013003e+00 +0.0000000000000000e+00 -3.4027221566160502e+00 -3.0638973225492340e-02 -5.9324854042014408e-01 +6.0555077372471478e-03
-3.5000000000000000e+00 +8.1526520256120403e+00 +0.0000000000000000e+00 -3.5028022187478500e+00 -3.0638973719554541e-02 -5.9324851111657695e-01 +6.0554978669116249e-03
-3.6000000000000001e+00 +8.1526318572978198e+00 +0.0000000000000000e+00 -3.6028822807667802e+00 -3.0638982425324524e-02 -5.9324849881529684e-01 +6.0554881762020681e-03
-3.7000000000000002e+00 +8.1526111208659096e+00 +0.0000000000000000e+00 -3.7029623426696099e+00 -3.0639000136552026e-02 -5.9324850478616953e-01 +6.0554788817307470e-03
-3.7999999999999998e+00 +8.1525898163126804e+00 +0.0000000000000000e+00 -3.8030424044531101e+00 -3.0639027646972222e-02 -5.9324853029919278e-01 +6.0554702001066486e-03
-3.8999999999999999e+00 +8.1525679436344909e+00 +0.0000000000000000e+00 -3.9031224661140600e+00 -3.0639065750300072e-02 -5.9324857662441122e-01 +6.0554623479343213e-03
-4.0000000000000000e+00 +8.1525455028386205e+00 +0.0000000000000000e+00 -4.0032025276492398e+00 -3.0639115240216983e-02 -5.9324864503181962e-01 +6.0554555418113522e-03
-4.0999999999999996e+00 +8.1525224939177896e+00 +0.0000000000000000e+00 -4.1032825890554099e+00 -3.0639176660697438e-02 -5.9324873646920517e-01 +6.0554499545622262e-03
-4.2000000000000002e+00 +8.1524989168792708e+00 +0.0000000000000000e+00 -4.2033626503293604e+00 -3.0639249648256595e-02 -5.9324885071265765e-01 +6.0554455999381725e-03
-4.2999999999999998e+00 +8.1524747717157897e+00 +0.0000000000000000e+00 -4.3034427114678504e+00 -3.0639333633345690e-02 -5.9324898727229514e-01 +6.0554424555681443e-03
-4.4000000000000004e+00 +8.1524500584346207e+00 +0.0000000000000000e+00 -4.4035227724676700e+00 -3.0639428046426821e-02 -5.9324914565809583e-01 +6.0554404990822673e-03
-4.5000000000000000e+00 +8.1524247770285001e+00 +0.0000000000000000e+00 -4.5036028333255800e+00 -3.0639532317987224e-02 -5.9324932538013186e-01 +6.0554397081145281e-03
-4.5999999999999996e+00 +8.1523989275046898e+00 +0.0000000000000000e+00 -4.6036828940383696e+00 -3.0639645878527730e-02 -5.9324952594833202e-01 +6.0554400603004708e-03
-4.7000000000000002e+00 +8.1523725098559208e+00 +0.0000000000000000e+00 -4.7037629546028104e+00 -3.0639768158577121e-02 -5.9324974687271348e-01 +6.0554415332798855e-03
-4.7999999999999998e+00 +8.1523455240894709e+00 +0.0000000000000000e+00 -4.8038430150156701e+00 -3.0639898588680638e-02 -5.9324998766314740e-01 +6.0554441046945257e-03
-4.9000000000000004e+00 +8.1523179701980606e+00 +0.0000000000000000e+00 -4.9039230752737302e+00 -3.0640036599414257e-02 -5.9325024782959046e-01 +6.0554477521907804e-03
-5.0000000000000000e+00 +8.1522898481889605e+00 +0.0000000000000000e+00 -5.0040031353737602e+00 -3.0640181621373115e-02 -5.9325052688184676e-01 +6.0554524534173837e-03
-5.0999999999999996e+00 +8.1522611580549000e+00 +0.0000000000000000e+00 -5.1040831953125396e+00 -3.0640333085186017e-02 -5.9325082432980458e-01 +6.0554581860281119e-03
-5.2000000000000002e+00 +8.1522318997995207e+00 +0.0000000000000000e+00 -5.2041632550868497e+00 -3.0640490421505309e-02 -5.9325113968322329e-01 +6.0554649276797793e-03
-5.2999999999999998e+00 +8.1522020734228100e+00 +0.0000000000000000e+00 -5.3042433146934496e+00 -3.0640653061014905e-02 -5.9325147245185517e-01 +6.0554726560337101e-03
-5.4000000000000004e+00 +8.1521716789247893e+00 +0.0000000000000000e+00 -5.4043233741291203e+00 -3.0640820434429974e-02 -5.9325182214540828e-01 +6.0554813487555797e-03
-5.5000000000000000e+00 +8.1521407163090807e+00 +0.0000000000000000e+00 -5.5044034333906504e+00 -3.0640991972496760e-02 -5.9325218827351900e-01 +6.0554909835153518e-03
-5.5999999999999996e+00 +8.1521091855684098e+00 +0.0000000000000000e+00 -5.6044834924747899e+00 -3.0641167106000511e-02 -5.9325257034586598e-01 +6.0555015379886714e-03
-5.7000000000000002e+00 +8.1520770867064094e+00 +0.0000000000000000e+00 -5.7045635513783299e+00 -3.0641345265757066e-02 -5.9325296787199311e-01 +6.0555129898552211e-03
-5.7999999999999998e+00 +8.1520444197231008e+00 +0.0000000000000000e+00 -5.8046436100980499e+00 -3.0641525882620750e-02 -5.9325338036142272e-01 +6.0555253168001581e-03
-5.9000000000000004e+00 +8.1520111846184609e+00 +0.0000000000000000e+00 -5.9047236686307096e+00 -3.0641708387484281e-02 -5.9325380732362676e-01 +6.0555384965139862e-03
-5.9999999999999902e+00 +8.1519773813925003e+00 +0.0000000000000000e+00 -6.0048037269731003e+00 -3.0641892211273367e-02 -5.9325424826799844e-01 +6.0555525066905199e-03
-6.0999999999999899e+00 +8.1519430100452208e+00 +0.0000000000000000e+00 -6.1048837851219799e+00 -3.0642076716149765e-02 -5.9325470244289369e-01 +6.0555673016220272e-03
-6.1999999999999904e+00 +8.1519080705766100e+00 +0.0000000000000000e+00 -6.2049638430741396e+00 -3.0642261025897372e-02 -5.9325516819239210e-01 +6.0555827545008354e-03
-6.2999999999999901e+00 +8.1518725629866804e+00 +0.0000000000000000e+00 -6.3050439008263499e+00 -3.0642444212681405e-02 -5.9325564366488748e-01 +6.0555987209605861e-03
-6.3999999999999897e+00 +8.1518364872754301e+00 +0.0000000000000000e+00 -6.4051239583753699e+00 -3.0642625348638288e-02 -5.9325612700880337e-01 +6.0556150566279162e-03
-6.4999999999999902e+00 +8.1517998434428591e+00 +0.0000000000000000e+00 -6.5052040157180002e+00 -3.0642803505874207e-02 -5.9325661637259486e-01 +6.0556316171221378e-03
-6.5999999999999899e+00 +8.1517626314889604e+00 +0.0000000000000000e+00 -6.6052840728510001e+00 -3.0642977756463647e-02 -5.9325710990474823e-01 +6.0556482580549032e-03
-6.6999999999999904e+00 +8.1517248514137499e+00 +0.0000000000000000e+00 -6.7053641297711399e+00 -3.0643147172447965e-02 -5.9325760575378539e-01 +6.0556648350299164e-03
-6.7999999999999901e+00 +8.1516865032135701e+00 +0.0000000000000000e+00 -6.8054441864752100e+00 -3.0643310825835549e-02 -5.9325810206829221e-01 +6.0556812036429127e-03
-6.8999999999999897e+00 +8.1516475868957095e+00 +0.0000000000000000e+00 -6.9055242429599701e+00 -3.0643467788593920e-02 -5.9325859699680372e-01 +6.0556972194800961e-03
-6.9999999999999902e+00 +8.1516081024565192e+00 +0.0000000000000000e+00 -7.0056042992222096e+00 -3.0643617132657997e-02 -5.9325908868798172e-01 +6.0557127381197038e-03
-7.0999999999999899e+00 +8.1515680498960101e+00 +0.0000000000000000e+00 -7.1056843552586999e+00 -3.0643757929922161e-02 -5.9325957529049933e-01 +6.0557276151304296e-03
-7.1999999999999904e+00 +8.1515274292141804e+00 +0.0000000000000000e+00 -7.2057644110662000e+00 -3.0643889252240476e-02 -5.9326005495307088e-01 +6.0557417060714321e-03
-7.2999999999999901e+00 +8.1514862404073902e+00 +0.0000000000000000e+00 -7.3058444666415099e+00 -3.0644010171426820e-02 -5.9326052582448385e-01 +6.0557548664923206e-03
-7.3999999999999897e+00 +8.1514444834829192e+00 +0.0000000000000000e+00 -7.4059245219813796e+00 -3.0644119759247010e-02 -5.9326098605348143e-01 +6.0557669519316062e-03
-7.4999999999999902e+00 +8.1514021584334806e+00 +0.0000000000000000e+00 -7.5060045770826100e+00 -3.0644217087428673e-02 -5.9326143378897211e-01 +6.0557778179185558e-03
-7.5999999999999899e+00 +8.1513592652663593e+00 +0.0000000000000000e+00 -7.6060846319419504e+00 -3.0644301227646862e-02 -5.9326186717979268e-01 +6.0557873199703878e-03
-7.6999999999999904e+00 +8.1513158039779192e+00 +0.0000000000000000e+00 -7.7061646865561997e+00 -3.0644371251533926e-02 -5.9326228437491957e-01 +6.0557953135941325e-03
-7.7999999999999901e+00 +8.1512717745681602e+00 +0.0000000000000000e+00 -7.8062447409221098e+00 -3.0644426230671647e-02 -5.9326268352334954e-01 +6.0558016542850901e-03
-7.8999999999999897e+00 +8.1512271770334301e+00 +0.0000000000000000e+00 -7.9063247950364799e+00 -3.0644465236592991e-02 -5.9326306277416141e-01 +6.0558061975271036e-03
-7.9999999999999902e+00 +8.1511820113773901e+00 +0.0000000000000000e+00 -8.0064048488960609e+00 -3.0644487340876322e-02 -5.9326342027659584e-01 +6.0558087988008659e-03
-8.0999999999999908e+00 +8.1511362776036496e+00 +0.0000000000000000e+00 -8.1064849024976393e+00 -3.0644492076340468e-02 -5.9326375494488948e-01 +6.0558093572608569e-03
-8.1999999999999904e+00 +8.1510899757086008e+00 +0.0000000000000000e+00 -8.2065649558379903e+00 -3.0644480499855270e-02 -5.9326406822066524e-01 +6.0558079163925060e-03
-8.2999999999999901e+00 +8.1510431056885899e+00 +0.0000000000000000e+00 -8.3066450089139003e+00 -3.0644453982643469e-02 -5.9326436206678002e-01 +6.0558045494569744e-03
-8.3999999999999897e+00 +8.1509956675508892e+00 +0.0000000000000000e+00 -8.4067250617221205e+00 -3.0644413895968722e-02 -5.9326463844602240e-01 +6.0557993297253952e-03
-8.4999999999999893e+00 +8.1509476612882299e+00 +0.0000000000000000e+00 -8.5068051142594392e+00 -3.0644361611148582e-02 -5.9326489932131832e-01 +6.0557923304814226e-03
-8.5999999999999908e+00 +8.1508990869078808e+00 +0.0000000000000000e+00 -8.6068851665226305e+00 -3.0644298499543029e-02 -5.9326514665549512e-01 +6.0557836250191609e-03
-8.6999999999999904e+00 +8.1508499444025801e+00 +0.0000000000000000e+00 -8.7069652185084596e+00 -3.0644225932569085e-02 -5.9326538241151916e-01 +6.0557732866460302e-03
-8.7999999999999794e+00 +8.1508002337759500e+00 +0.0000000000000000e+00 -8.8070452702137203e+00 -3.0644145281691057e-02 -5.9326560855228794e-01 +6.0557613886810038e-03
-8.8999999999999808e+00 +8.1507499550316407e+00 +0.0000000000000000e+00 -8.9071253216351796e+00 -3.0644057918426958e-02 -5.9326582704072006e-01 +6.0557480044559171e-03
-8.9999999999999805e+00 +8.1506991081623692e+00 +0.0000000000000000e+00 -9.0072053727696098e+00 -3.0643965214355008e-02 -5.9326603983984472e-01 +6.0557332073168206e-03
-9.0999999999999801e+00 +8.1506476931717806e+00 +0.0000000000000000e+00 -9.1072854236137797e+00 -3.0643868541105412e-02 -5.9326624891262247e-01 +6.0557170706224848e-03
-9.1999999999999797e+00 +8.1505957100635005e+00 +0.0000000000000000e+00 -9.2073654741644795e+00 -3.0643769270366900e-02 -5.9326645622203711e-01 +6.0556996677457514e-03
-9.2999999999999794e+00 +8.1505431588302599e+00 +0.0000000000000000e+00 -9.3074455244184708e+00 -3.0643668773893115e-02 -5.9326666373118242e-01 +6.0556810720748446e-03
-9.3999999999999808e+00 +8.1504900394757005e+00 +0.0000000000000000e+00 -9.4075255743725297e+00 -3.0643568423494479e-02 -5.9326687340308581e-01 +6.0556613570119091e-03
-9.4999999999999805e+00 +8.1504363520034495e+00 +0.0000000000000000e+00 -9.5076056240234408e+00 -3.0643469591044678e-02 -5.9326708720079835e-01 +6.0556405959743473e-03
-9.5999999999999801e+00 +8.1503820964062506e+00 +0.0000000000000000e+00 -9.6076856733679694e+00 -3.0643373648487071e-02 -5.9326730708748254e-01 +6.0556188623961307e-03
-9.6999999999999797e+00 +8.1503272726913600e+00 +0.0000000000000000e+00 -9.7077657224029004e+00 -3.0643281967824919e-02 -5.9326753502620511e-01 +6.0555962297260315e-03
-9.7999999999999794e+00 +8.1502718808515109e+00 +0.0000000000000000e+00 -9.8078457711250007e+00 -3.0643195921135992e-02 -5.9326777298017641e-01 +6.0555727714305049e-03
-9.8999999999999808e+00 +8.1502159208903304e+00 +0.0000000000000000e+00 -9.9079258195310498e+00 -3.0643116880562725e-02 -5.9326802291254088e-01 +6.0555485609919092e-03
-9.9999999999999805e+00 +8.1501593928078400e+00 +0.0000000000000000e+00 -1.0008005867617801e+01 -3.0643046218189047e-02 -5.9326828678629273e-01 +6.0555236719111215e-03
-1.0100000000000000e+01 +8.1501022966040200e+00 +0.0000000000000000e+00 -1.0108085915382100e+01 -3.0642984983575556e-02 -5.9326856606146250e-01 +6.0554981801288366e-03
-1.0199999999999999e+01 +8.1500446322825209e+00 +0.0000000000000000e+00 -1.0208165962820599e+01 -3.0642933209734716e-02 -5.9326886061299955e-01 +6.0554721692246067e-03
-1.0300000000000001e+01 +8.1499863998360507e+00 +0.0000000000000000e+00 -1.0308246009930199e+01 -3.0642890729906141e-02 -5.9326917000443746e-01 +6.0554457242676107e-03
-1.0400000000000000e+01 +8.1499275992682705e+00 +0.0000000000000000e+00 -1.0408326056707599e+01 -3.0642857377281184e-02 -5.9326949379914229e-01 +6.0554189303126610e-03
-1.0500000000000000e+01 +8.1498682305791608e+00 +0.0000000000000000e+00 -1.0508406103149600e+01 -3.0642832985008205e-02 -5.9326983156043211e-01 +6.0553918724010848e-03
-1.0600000000000000e+01 +8.1498082937723701e+00 +0.0000000000000000e+00 -1.0608486149253000e+01 -3.0642817386187980e-02 -5.9327018285151334e-01 +6.0553646355597131e-03
-1.0699999999999999e+01 +8.1497477888406102e+00 +0.0000000000000000e+00 -1.0708566195014500e+01 -3.0642810413878948e-02 -5.9327054723559747e-01 +6.0553373048017759e-03
-1.0800000000000001e+01 +8.1496867157875403e+00 +0.0000000000000000e+00 -1.0808646240430900e+01 -3.0642811901086173e-02 -5.9327092427572237e-01 +6.0553099651246426e-03
-1.0900000000000000e+01 +8.1496250746131391e+00 +0.0000000000000000e+00 -1.0908726285499000e+01 -3.0642821680766600e-02 -5.9327131353486762e-01 +6.0552827015107136e-03
-1.1000000000000000e+01 +8.1495628653174208e+00 +0.0000000000000000e+00 -1.1008806330215601e+01 -3.0642839585826098e-02 -5.9327171457592309e-01 +6.0552555989267232e-03
-1.1100000000000000e+01 +8.1495000879040198e+00 +0.0000000000000000e+00 -1.1108886374577500e+01 -3.0642865449116555e-02 -5.9327212696165665e-01 +6.0552287423230608e-03
-1.1199999999999999e+01 +8.1494367423620098e+00 +0.0000000000000000e+00 -1.1208966418581401e+01 -3.0642899103442780e-02 -5.9327255025486170e-01 +6.0552022166349487e-03
-1.1300000000000001e+01 +8.1493728287059604e+00 +0.0000000000000000e+00 -1.1309046462224000e+01 -3.0642940381543297e-02 -5.9327298401802697e-01 +6.0551761067786690e-03
-1.1400000000000000e+01 +8.1493083469249505e+00 +0.0000000000000000e+00 -1.1409126505502300e+01 -3.0642989116111810e-02 -5.9327342781375103e-01 +6.0551504976555119e-03
-1.1500000000000000e+01 +8.1492432970226201e+00 +0.0000000000000000e+00 -1.1509206548412800e+01 -3.0643045139778082e-02 -5.9327388120441349e-01 +6.0551254741480140e-03
-1.1600000000000000e+01 +8.1491776789989707e+00 +0.0000000000000000e+00 -1.1609286590952600e+01 -3.0643108285114764e-02 -5.9327434375232035e-01 +6.0551011211211168e-03
-1.1699999999999999e+01 +8.1491114928576298e+00 +0.0000000000000000e+00 -1.1709366633118099e+01 -3.0643178384632860e-02 -5.9327481501964452e-01 +6.0550775234211925e-03
