# field on trajectory
# s[mm] rx[mm] ry[mm] rz[mm] bx[T] by[T] bz[T]
0.0000000000000000e+00 +7.9199999999999999e+00 +0.0000000000000000e+00 +0.0000000000000000e+00 -3.0723524357147217e-02 -5.6623489357939571e-01 +5.6106629370735895e-03
1.0000000000000001e-01 +7.9199997170783858e+00 +0.0000000000000000e+00 +9.9999999999466377e-02 -3.0723637819185870e-02 -5.6623502352333743e-01 +5.6106396006135387e-03
2.0000000000000001e-01 +7.9199988683134572e+00 +0.0000000000000000e+00 +1.9999999999573095e-01 -3.0723745998862649e-02 -5.6623514846331324e-01 +5.6106187552981274e-03
3.0000000000000004e-01 +7.9199974537050890e+00 +0.0000000000000000e+00 +2.9999999998559196e-01 -3.0723849110709467e-02 -5.6623526871407404e-01 +5.6106002738522216e-03
4.0000000000000002e-01 +7.9199954732531621e+00 +0.0000000000000000e+00 +3.9999999996584762e-01 -3.0723947369252696e-02 -5.6623538459034717e-01 +5.6105840289992692e-03
5.0000000000000000e-01 +7.9199929269575602e+00 +0.0000000000000000e+00 +4.9999999993329614e-01 -3.0724040989014531e-02 -5.6623549640683768e-01 +5.6105698934617162e-03
5.9999999999999998e-01 +7.9199898148181713e+00 +0.0000000000000000e+00 +5.9999999988473562e-01 -3.0724130184514496e-02 -5.6623560447823251e-01 +5.6105577399614606e-03
6.9999999999999996e-01 +7.9199861368348872e+00 +0.0000000000000000e+00 +6.9999999981696437e-01 -3.0724215170270821e-02 -5.6623570911920085e-01 +5.6105474412202717e-03
7.9999999999999993e-01 +7.9199818930076038e+00 +0.0000000000000000e+00 +7.9999999972678060e-01 -3.0724296160801884e-02 -5.6623581064439765e-01 +5.6105388699602358e-03
8.9999999999999991e-01 +7.9199770833362200e+00 +0.0000000000000000e+00 +8.9999999961098243e-01 -3.0724373370627646e-02 -5.6623590936846613e-01 +5.6105318989041909e-03
9.9999999999999989e-01 +7.9199717078206371e+00 +0.0000000000000000e+00 +9.9999999946636819e-01 -3.0724447014271083e-02 -5.6623600560603959e-01 +5.6105264007761469e-03
1.0999999999999999e+00 +7.9199657664607592e+00 +0.0000000000000000e+00 +1.0999999992897360e+00 -3.0724517306259580e-02 -5.6623609967174393e-01 +5.6105222483017417e-03
1.2000000000000000e+00 +7.9199592592564922e+00 +0.0000000000000000e+00 +1.1999999990778840e+00 -3.0724584461126404e-02 -5.6623619188019991e-01 +5.6105193142086604e-03
1.3000000000000000e+00 +7.9199521862077447e+00 +0.0000000000000000e+00 +1.2999999988276105e+00 -3.0724648693412106e-02 -5.6623628254602532e-01 +5.6105174712270719e-03
1.4000000000000001e+00 +7.9199445473144259e+00 +0.0000000000000000e+00 +1.3999999985357137e+00 -3.0724710217665960e-02 -5.6623637198383825e-01 +5.6105165920900726e-03
1.5000000000000002e+00 +7.9199363425764462e+00 +0.0000000000000000e+00 +1.4999999981989915e+00 -3.0724769248447390e-02 -5.6623646050825838e-01 +5.6105165495341077e-03
1.6000000000000003e+00 +7.9199275719937186e+00 +0.0000000000000000e+00 +1.5999999978142425e+00 -3.0724826000327374e-02 -5.6623654843390991e-01 +5.6105172162994208e-03
1.7000000000000004e+00 +7.9199182355661542e+00 +0.0000000000000000e+00 +1.6999999973782647e+00 -3.0724880687889897e-02 -5.6623663607542329e-01 +5.6105184651304724e-03
1.8000000000000005e+00 +7.9199083332936659e+00 +0.0000000000000000e+00 +1.7999999968878562e+00 -3.0724933525733390e-02 -5.6623672374743850e-01 +5.6105201687763895e-03
1.9000000000000006e+00 +7.9198978651761669e+00 +0.0000000000000000e+00 +1.8999999963398153e+00 -3.0724984728472154e-02 -5.6623681176460661e-01 +5.6105221999913930e-03
2.0000000000000004e+00 +7.9198868312135700e+00 +0.0000000000000000e+00 +1.9999999957309402e+00 -3.0725034510737746e-02 -5.6623690044159281e-01 +5.6105244315352307e-03
2.1000000000000005e+00 +7.9198752314057854e+00 +0.0000000000000000e+00 +2.0999999950580293e+00 -3.0725083078775139e-02 -5.6623699001054872e-01 +5.6105267920021134e-03
2.2000000000000006e+00 +7.9198630657527254e+00 +0.0000000000000000e+00 +2.1999999943178801e+00 -3.0725130605220714e-02 -5.6623708037352338e-01 +5.6105294333046087e-03
2.3000000000000007e+00 +7.9198503342542992e+00 +0.0000000000000000e+00 +2.2999999935072912e+00 -3.0725177254305201e-02 -5.6623717135004503e-01 +5.6105325631847060e-03
2.4000000000000008e+00 +7.9198370369104172e+00 +0.0000000000000000e+00 +2.3999999926230609e+00 -3.0725223190256046e-02 -5.6623726275964992e-01 +5.6105363893845231e-03
2.5000000000000009e+00 +7.9198231737209879e+00 +0.0000000000000000e+00 +2.4999999916619875e+00 -3.0725268577296187e-02 -5.6623735442188383e-01 +5.6105411196460510e-03
2.6000000000000010e+00 +7.9198087446859198e+00 +0.0000000000000000e+00 +2.5999999906208688e+00 -3.0725313579642879e-02 -5.6623744615630234e-01 +5.6105469617108647e-03
2.7000000000000011e+00 +7.9197937498051223e+00 +0.0000000000000000e+00 +2.6999999894965030e+00 -3.0725358361506475e-02 -5.6623753778247132e-01 +5.6105541233198502e-03
2.8000000000000012e+00 +7.9197781890785039e+00 +0.0000000000000000e+00 +2.7999999882856885e+00 -3.0725403087089220e-02 -5.6623762911996933e-01 +5.6105628122129266e-03
2.9000000000000012e+00 +7.9197620625059741e+00 +0.0000000000000000e+00 +2.8999999869852235e+00 -3.0725447920584046e-02 -5.6623771998838646e-01 +5.6105732361287630e-03
3.0000000000000013e+00 +7.9197453700874423e+00 +0.0000000000000000e+00 +2.9999999855919057e+00 -3.0725493026173414e-02 -5.6623781020732655e-01 +5.6105856028045072e-03
3.1000000000000014e+00 +7.9197281118228195e+00 +0.0000000000000000e+00 +3.0999999841025336e+00 -3.0725538568028045e-02 -5.6623789959640825e-01 +5.6106001199755073e-03
3.2000000000000015e+00 +7.9197102877120171e+00 +0.0000000000000000e+00 +3.1999999825139054e+00 -3.0725584710305787e-02 -5.6623798797526470e-01 +5.6106169953750260e-03
3.3000000000000016e+00 +7.9196918977549462e+00 +0.0000000000000000e+00 +3.2999999808228195e+00 -3.0725631617150351e-02 -5.6623807516354507e-01 +5.6106364367339741e-03
3.4000000000000017e+00 +7.9196729419515215e+00 +0.0000000000000000e+00 +3.3999999790260738e+00 -3.0725679452690148e-02 -5.6623816098091539e-01 +5.6106586517806235e-03
3.5000000000000018e+00 +7.9196534203016569e+00 +0.0000000000000000e+00 +3.4999999771204662e+00 -3.0725728381037060e-02 -5.6623824524705935e-01 +5.6106838482403330e-03
3.6000000000000019e+00 +7.9196333328052697e+00 +0.0000000000000000e+00 +3.5999999751027953e+00 -3.0725778566285292e-02 -5.6623832778167948e-01 +5.6107122338352683e-03
3.7000000000000020e+00 +7.9196126794622774e+00 +0.0000000000000000e+00 +3.6999999729698589e+00 -3.0725830172510092e-02 -5.6623840840449757e-01 +5.6107440162841285e-03
3.8000000000000020e+00 +7.9195914602726001e+00 +0.0000000000000000e+00 +3.7999999707184555e+00 -3.0725883363766610e-02 -5.6623848693525536e-01 +5.6107794033018630e-03
3.9000000000000021e+00 +7.9195696752361604e+00 +0.0000000000000000e+00 +3.8999999683453832e+00 -3.0725938304088658e-02 -5.6623856319371602e-01 +5.6108186025993967e-03
4.0000000000000018e+00 +7.9195473243528829e+00 +0.0000000000000000e+00 +3.9999999658474397e+00 -3.0725995157487557e-02 -5.6623863699966459e-01 +5.6108618218833504e-03
4.1000000000000014e+00 +7.9195244076226947e+00 +0.0000000000000000e+00 +4.0999999632214239e+00 -3.0726053978039927e-02 -5.6623870817686806e-01 +5.6109092243853314e-03
4.2000000000000011e+00 +7.9195009250455248e+00 +0.0000000000000000e+00 +4.1999999604641332e+00 -3.0726114380161717e-02 -5.6623877656494592e-01 +5.6109607954510036e-03
4.3000000000000007e+00 +7.9194768766213057e+00 +0.0000000000000000e+00 +4.2999999575723660e+00 -3.0726175868355403e-02 -5.6623884200749075e-01 +5.6110164759527285e-03
4.4000000000000004e+00 +7.9194522623499735e+00 +0.0000000000000000e+00 +4.3999999545429205e+00 -3.0726237947123536e-02 -5.6623890434810742e-01 +5.6110762067601502e-03
4.5000000000000000e+00 +7.9194270822314659e+00 +0.0000000000000000e+00 +4.4999999513725948e+00 -3.0726300120969018e-02 -5.6623896343041258e-01 +5.6111399287400755e-03
4.5999999999999996e+00 +7.9194013362657252e+00 +0.0000000000000000e+00 +4.5999999480581879e+00 -3.0726361894395465e-02 -5.6623901909803620e-01 +5.6112075827563423e-03
4.6999999999999993e+00 +7.9193750244526964e+00 +0.0000000000000000e+00 +4.6999999445964971e+00 -3.0726422771907503e-02 -5.6623907119462014e-01 +5.6112791096696911e-03
4.7999999999999989e+00 +7.9193481467923279e+00 +0.0000000000000000e+00 +4.7999999409843204e+00 -3.0726482258011105e-02 -5.6623911956382045e-01 +5.6113544503376411e-03
4.8999999999999986e+00 +7.9193207032845727e+00 +0.0000000000000000e+00 +4.8999999372184559e+00 -3.0726539857213873e-02 -5.6623916404930430e-01 +5.6114335456143513e-03
4.9999999999999982e+00 +7.9192926939293873e+00 +0.0000000000000000e+00 +4.9999999332957028e+00 -3.0726595074025427e-02 -5.6623920449475429e-01 +5.6115163363505121e-03
5.0999999999999979e+00 +7.9192641187267316e+00 +0.0000000000000000e+00 +5.0999999292128582e+00 -3.0726647412957667e-02 -5.6623924074386411e-01 +5.6116027633931970e-03
5.1999999999999975e+00 +7.9192349776765711e+00 +0.0000000000000000e+00 +5.1999999249667210e+00 -3.0726696378525133e-02 -5.6623927264034268e-01 +5.6116927675857490e-03
5.2999999999999972e+00 +7.9192052707788747e+00 +0.0000000000000000e+00 +5.2999999205540886e+00 -3.0726741475245303e-02 -5.6623930002791134e-01 +5.6117862897676453e-03
5.3999999999999968e+00 +7.9191749980336157e+00 +0.0000000000000000e+00 +5.3999999159717600e+00 -3.0726782207638911e-02 -5.6623932275030520e-01 +5.6118832707743689e-03
5.4999999999999964e+00 +7.9191441594407719e+00 +0.0000000000000000e+00 +5.4999999112165323e+00 -3.0726818080230315e-02 -5.6623934065127368e-01 +5.6119836514372879e-03
5.5999999999999961e+00 +7.9191127550003273e+00 +0.0000000000000000e+00 +5.5999999062852046e+00 -3.0726848597547776e-02 -5.6623935357458000e-01 +5.6120873725835204e-03
5.6999999999999957e+00 +7.9190807847122695e+00 +0.0000000000000000e+00 +5.6999999011745741e+00 -3.0726873264123780e-02 -5.6623936136400077e-01 +5.6121943750358054e-03
5.7999999999999954e+00 +7.9190482485765923e+00 +0.0000000000000000e+00 +5.7999998958814398e+00 -3.0726891584495389e-02 -5.6623936386332763e-01 +5.6123045996123817e-03
5.8999999999999950e+00 +7.9190151465932939e+00 +0.0000000000000000e+00 +5.8999998904025999e+00 -3.0726903063204559e-02 -5.6623936091636640e-01 +5.6124179871268600e-03
5.9999999999999947e+00 +7.9189814787623787e+00 +0.0000000000000000e+00 +5.9999998847348524e+00 -3.0726907204798433e-02 -5.6623935236693668e-01 +5.6125344783880806e-03
6.0999999999999943e+00 +7.9189472450838556e+00 +0.0000000000000000e+00 +6.0999998788749954e+00 -3.0726903816141869e-02 -5.6623933816222893e-01 +5.6126539895052542e-03
6.1999999999999940e+00 +7.9189124455577398e+00 +0.0000000000000000e+00 +6.1999998728198271e+00 -3.0726893913355303e-02 -5.6623931866285582e-01 +5.6127763378075275e-03
6.2999999999999936e+00 +7.9188770801840525e+00 +0.0000000000000000e+00 +6.2999998665661456e+00 -3.0726878814870986e-02 -5.6623929433276177e-01 +5.6129013159360351e-03
6.3999999999999932e+00 +7.9188411489628194e+00 +0.0000000000000000e+00 +6.3999998601107491e+00 -3.0726859839117982e-02 -5.6623926563586269e-01 +5.6130287165402750e-03
6.4999999999999929e+00 +7.9188046518940691e+00 +0.0000000000000000e+00 +6.4999998534504355e+00 -3.0726838304522035e-02 -5.6623923303604140e-01 +5.6131583322784947e-03
6.5999999999999925e+00 +7.9187675889778362e+00 +0.0000000000000000e+00 +6.5999998465820031e+00 -3.0726815529505624e-02 -5.6623919699714986e-01 +5.6132899558180944e-03
6.6999999999999922e+00 +7.9187299602141579e+00 +0.0000000000000000e+00 +6.6999998395022500e+00 -3.0726792832487779e-02 -5.6623915798300573e-01 +5.6134233798360248e-03
6.7999999999999918e+00 +7.9186917656030742e+00 +0.0000000000000000e+00 +6.7999998322079751e+00 -3.0726771531884113e-02 -5.6623911645738967e-01 +5.6135583970191721e-03
6.8999999999999915e+00 +7.9186530051446278e+00 +0.0000000000000000e+00 +6.8999998246959757e+00 -3.0726752946106745e-02 -5.6623907288404662e-01 +5.6136948000647773e-03
6.9999999999999911e+00 +7.9186136788388630e+00 +0.0000000000000000e+00 +6.9999998169630500e+00 -3.0726738393564216e-02 -5.6623902772668155e-01 +5.6138323816808007e-03
7.0999999999999908e+00 +7.9185737866858261e+00 +0.0000000000000000e+00 +7.0999998090059968e+00 -3.0726729192661440e-02 -5.6623898144895934e-01 +5.6139709345863513e-03
7.1999999999999904e+00 +7.9185333286855650e+00 +0.0000000000000000e+00 +7.1999998008216144e+00 -3.0726726661799646e-02 -5.6623893451450247e-01 +5.6141102515120580e-03
7.2999999999999901e+00 +7.9184923048381277e+00 +0.0000000000000000e+00 +7.2999997924066999e+00 -3.0726732119376352e-02 -5.6623888738689077e-01 +5.6142501252004848e-03
7.3999999999999897e+00 +7.9184507151435630e+00 +0.0000000000000000e+00 +7.3999997837580525e+00 -3.0726746883785232e-02 -5.6623884052965767e-01 +5.6143903484065115e-03
7.4999999999999893e+00 +7.9184085596019189e+00 +0.0000000000000000e+00 +7.4999997748724700e+00 -3.0726772273416112e-02 -5.6623879440629099e-01 +5.6145307138977443e-03
7.5999999999999890e+00 +7.9183658382132425e+00 +0.0000000000000000e+00 +7.5999997657467508e+00 -3.0726809606654866e-02 -5.6623874948022923e-01 +5.6146710144549007e-03
7.6999999999999886e+00 +7.9183225509775799e+00 +0.0000000000000000e+00 +7.6999997563776930e+00 -3.0726860201883414e-02 -5.6623870621486172e-01 +5.6148110428722135e-03
7.7999999999999883e+00 +7.9182786978949764e+00 +0.0000000000000000e+00 +7.7999997467620945e+00 -3.0726925377479581e-02 -5.6623866507352616e-01 +5.6149505919578279e-03
7.8999999999999879e+00 +7.9182342789654738e+00 +0.0000000000000000e+00 +7.8999997368967545e+00 -3.0727006451817102e-02 -5.6623862651950707e-01 +5.6150894545341969e-03
7.9999999999999876e+00 +7.9181892941891121e+00 +0.0000000000000000e+00 +7.9999997267784702e+00 -3.0727104743265510e-02 -5.6623859101603424e-01 +5.6152274234384687e-03
8.0999999999999872e+00 +7.9181437435659285e+00 +0.0000000000000000e+00 +8.0999997164040405e+00 -3.0727221126964674e-02 -5.6623855912194965e-01 +5.6153643370194413e-03
8.1999999999999869e+00 +7.9180976270959560e+00 +0.0000000000000000e+00 +8.1999997057702618e+00 -3.0727354705143942e-02 -5.6623853177871497e-01 +5.6155002156228883e-03
8.2999999999999865e+00 +7.9180509447792229e+00 +0.0000000000000000e+00 +8.2999996948739341e+00 -3.0727504136823219e-02 -5.6623851002341363e-01 +5.6156351250905238e-03
8.3999999999999861e+00 +7.9180036966157532e+00 +0.0000000000000000e+00 +8.3999996837118545e+00 -3.0727668081048910e-02 -5.6623849489307898e-01 +5.6157691312610485e-03
8.4999999999999858e+00 +7.9179558826055629e+00 +0.0000000000000000e+00 +8.4999996722808220e+00 -3.0727845196894803e-02 -5.6623848742469496e-01 +5.6159022999699611e-03
8.5999999999999854e+00 +7.9179075027486610e+00 +0.0000000000000000e+00 +8.5999996605776357e+00 -3.0728034143462927e-02 -5.6623848865519433e-01 +5.6160346970493893e-03
8.6999999999999851e+00 +7.9178585570450482e+00 +0.0000000000000000e+00 +8.6999996485990927e+00 -3.0728233579884433e-02 -5.6623849962145656e-01 +5.6161663883279346e-03
8.7999999999999847e+00 +7.9178090454947139e+00 +0.0000000000000000e+00 +8.7999996363419903e+00 -3.0728442165320419e-02 -5.6623852136030828e-01 +5.6162974396304771e-03
8.8999999999999844e+00 +7.9177589680976386e+00 +0.0000000000000000e+00 +8.8999996238031276e+00 -3.0728658558962826e-02 -5.6623855490852015e-01 +5.6164279167780235e-03
8.9999999999999840e+00 +7.9177083248537903e+00 +0.0000000000000000e+00 +8.9999996109793035e+00 -3.0728881420035332e-02 -5.6623860130280734e-01 +5.6165578855875264e-03
9.0999999999999837e+00 +7.9176571157631246e+00 +0.0000000000000000e+00 +9.0999995978673152e+00 -3.0729109407794202e-02 -5.6623866157982761e-01 +5.6166874118717229e-03
9.1999999999999833e+00 +7.9176053408255820e+00 +0.0000000000000000e+00 +9.1999995844639599e+00 -3.0729341181529066e-02 -5.6623873677617942e-01 +5.6168165614389441e-03
9.2999999999999829e+00 +7.9175530000410896e+00 +0.0000000000000000e+00 +9.2999995707660368e+00 -3.0729575400563987e-02 -5.6623882792840241e-01 +5.6169454000929734e-03
9.3999999999999826e+00 +7.9175000934095578e+00 +0.0000000000000000e+00 +9.3999995567703447e+00 -3.0729810724258119e-02 -5.6623893607297349e-01 +5.6170739936328411e-03
9.4999999999999822e+00 +7.9174466209308800e+00 +0.0000000000000000e+00 +9.4999995424736809e+00 -3.0730045812006737e-02 -5.6623906224630882e-01 +5.6172024078526804e-03
9.5999999999999819e+00 +7.9173925826049310e+00 +0.0000000000000000e+00 +9.5999995278728427e+00 -3.0730279323242043e-02 -5.6623920748476053e-01 +5.6173307085415547e-03
9.6999999999999815e+00 +7.9173379784315685e+00 +0.0000000000000000e+00 +9.6999995129646290e+00 -3.0730509917434042e-02 -5.6623937282461545e-01 +5.6174589614832625e-03
9.7999999999999812e+00 +7.9172828084106284e+00 +0.0000000000000000e+00 +9.7999994977458389e+00 -3.0730736254091420e-02 -5.6623955930209480e-01 +5.6175872324561978e-03
9.8999999999999808e+00 +7.9172270725419258e+00 +0.0000000000000000e+00 +9.8999994822132695e+00 -3.0730956992762456e-02 -5.6623976795335307e-01 +5.6177155872331594e-03
9.9999999999999805e+00 +7.9171707708252539e+00 +0.0000000000000000e+00 +9.9999994663637182e+00 -3.0731170793035840e-02 -5.6623999981447526e-01 +5.6178440915811839e-03
1.0099999999999980e+01 +7.9171139032603834e+00 +0.0000000000000000e+00 +1.0099999450193984e+01 -3.0731376603350253e-02 -5.6624025556285584e-01 +5.6179728011615778e-03
1.0199999999999980e+01 +7.9170564698470596e+00 +0.0000000000000000e+00 +1.0199999433700864e+01 -3.0731574527424657e-02 -5.6624053444136646e-01 +5.6181017312278980e-03
1.0299999999999979e+01 +7.9169984705850069e+00 +0.0000000000000000e+00 +1.0299999416881157e+01 -3.0731764957796958e-02 -5.6624083533433356e-01 +5.6182308869223499e-03
1.0399999999999979e+01 +7.9169399054739262e+00 +0.0000000000000000e+00 +1.0399999399731660e+01 -3.0731948287002171e-02 -5.6624115712618694e-01 +5.6183602733751621e-03
1.0499999999999979e+01 +7.9168807745134977e+00 +0.0000000000000000e+00 +1.0499999382249174e+01 -3.0732124907572090e-02 -5.6624149870146334e-01 +5.6184898957042919e-03
1.0599999999999978e+01 +7.9168210777033812e+00 +0.0000000000000000e+00 +1.0599999364430493e+01 -3.0732295212035125e-02 -5.6624185894481061e-01 +5.6186197590151286e-03
1.0699999999999978e+01 +7.9167608150432196e+00 +0.0000000000000000e+00 +1.0699999346272417e+01 -3.0732459592915935e-02 -5.6624223674098939e-01 +5.6187498684001740e-03
1.0799999999999978e+01 +7.9166999865326373e+00 +0.0000000000000000e+00 +1.0799999327771744e+01 -3.0732618442735209e-02 -5.6624263097487559e-01 +5.6188802289387592e-03
1.0899999999999977e+01 +7.9166385921712425e+00 +0.0000000000000000e+00 +1.0899999308925270e+01 -3.0732772154009387e-02 -5.6624304053146535e-01 +5.6190108456967312e-03
1.0999999999999977e+01 +7.9165766319586286e+00 +0.0000000000000000e+00 +1.0999999289729795e+01 -3.0732921119250429e-02 -5.6624346429587669e-01 +5.6191417237261600e-03
1.1099999999999977e+01 +7.9165141058943735e+00 +0.0000000000000000e+00 +1.1099999270182115e+01 -3.0733065730965480e-02 -5.6624390115335232e-01 +5.6192728680650311e-03
1.1199999999999976e+01 +7.9164510139780422e+00 +0.0000000000000000e+00 +1.1199999250279030e+01 -3.0733206381656681e-02 -5.6624434998926332e-01 +5.6194042837369451e-03
1.1299999999999976e+01 +7.9163873562091887e+00 +0.0000000000000000e+00 +1.1299999230017336e+01 -3.0733343463820839e-02 -5.6624480968911206e-01 +5.6195359757508214e-03
1.1399999999999975e+01 +7.9163231325873564e+00 +0.0000000000000000e+00 +1.1399999209393833e+01 -3.0733477369949174e-02 -5.6624527913853484e-01 +5.6196679491005872e-03
1.1499999999999975e+01 +7.9162583431120774e+00 +0.0000000000000000e+00 +1.1499999188405317e+01 -3.0733608492527074e-02 -5.6624575722330550e-01 +5.6198002087648876e-03
1.1599999999999975e+01 +7.9161929877828765e+00 +0.0000000000000000e+00 +1.1599999167048585e+01 -3.0733737224033806e-02 -5.6624624282933744e-01 +5.6199327597067777e-03
1.1699999999999974e+01 +7.9161270665992713e+00 +0.0000000000000000e+00 +1.1699999145320437e+01 -3.0733863956942224e-02 -5.6624673484268773e-01 +5.6200656068734218e-03
1.1799999999999974e+01 +7.9160605795607717e+00 +0.0000000000000000e+00 +1.1799999123217669e+01 -3.0733989083718525e-02 -5.6624723214955941e-01 +5.6201987551957946e-03
