# field on trajectory
# s[mm] rx[mm] ry[mm] rz[mm] bx[T] by[T] bz[T]
0.0000000000000000e+00 +8.1649999999999991e+00 +0.0000000000000000e+00 +0.0000000000000000e+00 -2.8147904754331977e-02 -5.3692607890425526e-01 +5.3632147674073927e-03
-1.0000000000000001e-01 +8.1649997168707298e+00 +0.0000000000000000e+00 -9.9999999999465586e-02 -2.8147892216428369e-02 -5.3692651195572216e-01 +5.3632229738741471e-03
-2.0000000000000001e-01 +8.1649988674826126e+00 +0.0000000000000000e+00 -1.9999999999572468e-01 -2.8147885716701598e-02 -5.3692696095062631e-01 +5.3632313851105715e-03
-3.0000000000000004e-01 +8.1649974518351751e+00 +0.0000000000000000e+00 -2.9999999998557081e-01 -2.8147884754496439e-02 -5.3692742462647214e-01 +5.3632401343238672e-03
-4.0000000000000002e-01 +8.1649954699279270e+00 +0.0000000000000000e+00 -3.9999999996579738e-01 -2.8147888829163734e-02 -5.3692790172075755e-01 +5.3632493547191729e-03
-5.0000000000000000e-01 +8.1649929217603656e+00 +0.0000000000000000e+00 -4.9999999993319799e-01 -2.8147897440060760e-02 -5.3692839097097367e-01 +5.3632591794999527e-03
-5.9999999999999998e-01 +8.1649898073319758e+00 +0.0000000000000000e+00 -5.9999999988456609e-01 -2.8147910086551438e-02 -5.3692889111460074e-01 +5.3632697418683649e-03
-6.9999999999999996e-01 +8.1649861266422317e+00 +0.0000000000000000e+00 -6.9999999981669514e-01 -2.8147926268006794e-02 -5.3692940088911068e-01 +5.3632811750256616e-03
-7.9999999999999993e-01 +8.1649818796905933e+00 +0.0000000000000000e+00 -7.9999999972637859e-01 -2.8147945483805177e-02 -5.3692991903196263e-01 +5.3632936121725339e-03
-8.9999999999999991e-01 +8.1649770664765153e+00 +0.0000000000000000e+00 -8.9999999961040977e-01 -2.8147967233332582e-02 -5.3693044428060321e-01 +5.3633071865095217e-03
-9.9999999999999989e-01 +8.1649716869994453e+00 +0.0000000000000000e+00 -9.9999999946558227e-01 -2.8147991015983042e-02 -5.3693097537246481e-01 +5.3633220312373688e-03
-1.0999999999999999e+00 +8.1649657412588219e+00 +0.0000000000000000e+00 -1.0999999992886895e+00 -2.8148016331158848e-02 -5.3693151104496450e-01 +5.3633382795574090e-03
-1.2000000000000000e+00 +8.1649592292540820e+00 +0.0000000000000000e+00 -1.1999999990765249e+00 -2.8148042678270955e-02 -5.3693205003550248e-01 +5.3633560646719506e-03
-1.3000000000000000e+00 +8.1649521509846554e+00 +0.0000000000000000e+00 -1.2999999988258817e+00 -2.8148069556739232e-02 -5.3693259108146107e-01 +5.3633755197846399e-03
-1.4000000000000001e+00 +8.1649445064499737e+00 +0.0000000000000000e+00 -1.3999999985335536e+00 -2.8148096465992829e-02 -5.3693313292020350e-01 +5.3633967781008506e-03
-1.5000000000000002e+00 +8.1649362956494649e+00 +0.0000000000000000e+00 -1.4999999981963337e+00 -2.8148122905470467e-02 -5.3693367428907157e-01 +5.3634199728280580e-03
-1.6000000000000003e+00 +8.1649275185825587e+00 +0.0000000000000000e+00 -1.5999999978110155e+00 -2.8148148374620787e-02 -5.3693421392538632e-01 +5.3634452371762115e-03
-1.7000000000000004e+00 +8.1649181752486868e+00 +0.0000000000000000e+00 -1.6999999973743924e+00 -2.8148172372902614e-02 -5.3693475056644491e-01 +5.3634727043581189e-03
-1.8000000000000005e+00 +8.1649082656472824e+00 +0.0000000000000000e+00 -1.7999999968832578e+00 -2.8148194399785335e-02 -5.3693528294951998e-01 +5.3635025075898278e-03
-1.9000000000000006e+00 +8.1648977897777861e+00 +0.0000000000000000e+00 -1.8999999963344050e+00 -2.8148213954749202e-02 -5.3693580981185940e-01 +5.3635347800909897e-03
-2.0000000000000004e+00 +8.1648867476396418e+00 +0.0000000000000000e+00 -1.9999999957246273e+00 -2.8148230537285594e-02 -5.3693632989068318e-01 +5.3635696550852529e-03
-2.1000000000000005e+00 +8.1648751392323007e+00 +0.0000000000000000e+00 -2.0999999950507182e+00 -2.8148243674248060e-02 -5.3693684225018845e-01 +5.3636072373897730e-03
-2.2000000000000006e+00 +8.1648629645552244e+00 +0.0000000000000000e+00 -2.1999999943094708e+00 -2.8148253001896596e-02 -5.3693734726257469e-01 +5.3636475181817181e-03
-2.3000000000000007e+00 +8.1648502236078784e+00 +0.0000000000000000e+00 -2.2999999934976785e+00 -2.8148258183831407e-02 -5.3693784562704827e-01 +5.3636904602287361e-03
-2.4000000000000008e+00 +8.1648369163897403e+00 +0.0000000000000000e+00 -2.3999999926121345e+00 -2.8148258883638224e-02 -5.3693833804282287e-01 +5.3637360262994496e-03
-2.5000000000000009e+00 +8.1648230429002897e+00 +0.0000000000000000e+00 -2.4999999916496325e+00 -2.8148254764885760e-02 -5.3693882520912017e-01 +5.3637841791633655e-03
-2.6000000000000010e+00 +8.1648086031390132e+00 +0.0000000000000000e+00 -2.5999999906069653e+00 -2.8148245491123474e-02 -5.3693930782517529e-01 +5.3638348815908208e-03
-2.7000000000000011e+00 +8.1647935971054011e+00 +0.0000000000000000e+00 -2.6999999894809266e+00 -2.8148230725879114e-02 -5.3693978659023722e-01 +5.3638880963528830e-03
-2.8000000000000012e+00 +8.1647780247989505e+00 +0.0000000000000000e+00 -2.7999999882683095e+00 -2.8148210132656316e-02 -5.3694026220357260e-01 +5.3639437862212959e-03
-2.9000000000000012e+00 +8.1647618862191589e+00 +0.0000000000000000e+00 -2.8999999869659070e+00 -2.8148183374932315e-02 -5.3694073536446729e-01 +5.3640019139683899e-03
-3.0000000000000013e+00 +8.1647451813655287e+00 +0.0000000000000000e+00 -2.9999999855705126e+00 -2.8148150116155450e-02 -5.3694120677223056e-01 +5.3640624423670199e-03
-3.1000000000000014e+00 +8.1647279102375645e+00 +0.0000000000000000e+00 -3.0999999840789196e+00 -2.8148110019742871e-02 -5.3694167712619612e-01 +5.3641253341904704e-03
-3.2000000000000015e+00 +8.1647100728347688e+00 +0.0000000000000000e+00 -3.1999999824879213e+00 -2.8148062749078134e-02 -5.3694214712572563e-01 +5.3641905522124004e-03
-3.3000000000000016e+00 +8.1646916691566460e+00 +0.0000000000000000e+00 -3.2999999807943108e+00 -2.8148007967508767e-02 -5.3694261747021066e-01 +5.3642580592067543e-03
-3.4000000000000017e+00 +8.1646726992027023e+00 +0.0000000000000000e+00 -3.3999999789948814e+00 -2.8147945338343989e-02 -5.3694308885907693e-01 +5.3643278179476951e-03
-3.5000000000000018e+00 +8.1646531629724404e+00 +0.0000000000000000e+00 -3.4999999770864263e+00 -2.8147874524852203e-02 -5.3694356199178428e-01 +5.3643997912095247e-03
-3.6000000000000019e+00 +8.1646330604653610e+00 +0.0000000000000000e+00 -3.5999999750657388e+00 -2.8147795190258756e-02 -5.3694403756783182e-01 +5.3644739417666107e-03
-3.7000000000000020e+00 +8.1646123916809650e+00 +0.0000000000000000e+00 -3.6999999729296120e+00 -2.8147706997743414e-02 -5.3694451628675854e-01 +5.3645502323933008e-03
-3.8000000000000020e+00 +8.1645911566187461e+00 +0.0000000000000000e+00 -3.7999999706748389e+00 -2.8147609610438100e-02 -5.3694499884814784e-01 +5.3646286258638700e-03
-3.9000000000000021e+00 +8.1645693552781982e+00 +0.0000000000000000e+00 -3.8999999682982129e+00 -2.8147502691424447e-02 -5.3694548595162894e-01 +5.3647090849524232e-03
-4.0000000000000018e+00 +8.1645469876588059e+00 +0.0000000000000000e+00 -3.9999999657965275e+00 -2.8147385903731406e-02 -5.3694597829687929e-01 +5.3647915724328232e-03
-4.1000000000000014e+00 +8.1645240537600525e+00 +0.0000000000000000e+00 -4.0999999631665753e+00 -2.8147259069930132e-02 -5.3694647649854121e-01 +5.3648760429887109e-03
-4.2000000000000011e+00 +8.1645005535814121e+00 +0.0000000000000000e+00 -4.1999999604051501e+00 -2.8147122650948445e-02 -5.3694698083094528e-01 +5.3649624189442448e-03
-4.3000000000000007e+00 +8.1644764871223554e+00 +0.0000000000000000e+00 -4.2999999575090442e+00 -2.8146977267321262e-02 -5.3694749148333909e-01 +5.3650506145349712e-03
-4.4000000000000004e+00 +8.1644518543823423e+00 +0.0000000000000000e+00 -4.3999999544750512e+00 -2.8146823539601011e-02 -5.3694800864496994e-01 +5.3651405439979439e-03
-4.5000000000000000e+00 +8.1644266553608293e+00 +0.0000000000000000e+00 -4.4999999512999640e+00 -2.8146662088359638e-02 -5.3694853250508368e-01 +5.3652321215717580e-03
-4.5999999999999996e+00 +8.1644008900572640e+00 +0.0000000000000000e+00 -4.5999999479805762e+00 -2.8146493534190676e-02 -5.3694906325292269e-01 +5.3653252614965941e-03
-4.6999999999999993e+00 +8.1643745584710885e+00 +0.0000000000000000e+00 -4.6999999445136806e+00 -2.8146318497711313e-02 -5.3694960107772749e-01 +5.3654198780142617e-03
-4.7999999999999989e+00 +8.1643476606017362e+00 +0.0000000000000000e+00 -4.7999999408960701e+00 -2.8146137599564375e-02 -5.3695014616873415e-01 +5.3655158853682184e-03
-4.8999999999999986e+00 +8.1643201964486316e+00 +0.0000000000000000e+00 -4.8999999371245382e+00 -2.8145951460420458e-02 -5.3695069871517487e-01 +5.3656131978036389e-03
-4.9999999999999982e+00 +8.1642921660111938e+00 +0.0000000000000000e+00 -4.9999999331958778e+00 -2.8145760700979891e-02 -5.3695125890627593e-01 +5.3657117295674182e-03
-5.0999999999999979e+00 +8.1642635692888348e+00 +0.0000000000000000e+00 -5.0999999291068816e+00 -2.8145565941974836e-02 -5.3695182693125798e-01 +5.3658113949082370e-03
-5.1999999999999975e+00 +8.1642344062809542e+00 +0.0000000000000000e+00 -5.1999999248543425e+00 -2.8145367804171335e-02 -5.3695240297933533e-01 +5.3659121080765898e-03
-5.2999999999999972e+00 +8.1642046769869463e+00 +0.0000000000000000e+00 -5.2999999204350541e+00 -2.8145166908371298e-02 -5.3695298723971463e-01 +5.3660137833248227e-03
-5.3999999999999968e+00 +8.1641743814061947e+00 +0.0000000000000000e+00 -5.3999999158458092e+00 -2.8144963875414635e-02 -5.3695357990159454e-01 +5.3661163349071712e-03
-5.4999999999999964e+00 +8.1641435195380758e+00 +0.0000000000000000e+00 -5.4999999110834006e+00 -2.8144759326181240e-02 -5.3695418115416438e-01 +5.3662196770798056e-03
-5.5999999999999961e+00 +8.1641120913819574e+00 +0.0000000000000000e+00 -5.5999999061446220e+00 -2.8144553881593055e-02 -5.3695479118660494e-01 +5.3663237241008610e-03
-5.6999999999999957e+00 +8.1640800969371963e+00 +0.0000000000000000e+00 -5.6999999010262661e+00 -2.8144348162616125e-02 -5.3695541018808579e-01 +5.3664283902304794e-03
-5.7999999999999954e+00 +8.1640475362031406e+00 +0.0000000000000000e+00 -5.7999998957251249e+00 -2.8144142790262647e-02 -5.3695603834776640e-01 +5.3665335897308481e-03
-5.8999999999999950e+00 +8.1640144091791296e+00 +0.0000000000000000e+00 -5.8999998902379929e+00 -2.8143938385593009e-02 -5.3695667585479356e-01 +5.3666392368662361e-03
-5.9999999999999947e+00 +8.1639807158644917e+00 +0.0000000000000000e+00 -5.9999998845616620e+00 -2.8143735569717859e-02 -5.3695732289830289e-01 +5.3667452459030445e-03
-6.0999999999999943e+00 +8.1639464562585449e+00 +0.0000000000000000e+00 -6.0999998786929250e+00 -2.8143534913422804e-02 -5.3695797949579127e-01 +5.3668515600419119e-03
-6.1999999999999940e+00 +8.1639116303605981e+00 +0.0000000000000000e+00 -6.1999998726285757e+00 -2.8143336786023730e-02 -5.3695864497824508e-01 +5.3669582382114027e-03
-6.2999999999999936e+00 +8.1638762381699514e+00 +0.0000000000000000e+00 -6.2999998663654058e+00 -2.8143141506475153e-02 -5.3695931850501954e-01 +5.3670653682661440e-03
-6.3999999999999932e+00 +8.1638402796858962e+00 +0.0000000000000000e+00 -6.3999998599002090e+00 -2.8142949393744666e-02 -5.3695999923546334e-01 +5.3671730380534539e-03
-6.4999999999999929e+00 +8.1638037549077147e+00 +0.0000000000000000e+00 -6.4999998532297782e+00 -2.8142760766813255e-02 -5.3696068632891980e-01 +5.3672813354130157e-03
-6.5999999999999925e+00 +8.1637666638346822e+00 +0.0000000000000000e+00 -6.5999998463509062e+00 -2.8142575944675605e-02 -5.3696137894472484e-01 +5.3673903481765584e-03
-6.6999999999999922e+00 +8.1637290064660721e+00 +0.0000000000000000e+00 -6.6999998392603857e+00 -2.8142395246340352e-02 -5.3696207624220804e-01 +5.3675001641675093e-03
-6.7999999999999918e+00 +8.1636907828011491e+00 +0.0000000000000000e+00 -6.7999998319550086e+00 -2.8142218990830446e-02 -5.3696277738069131e-01 +5.3676108712006803e-03
-6.8999999999999915e+00 +8.1636519928391742e+00 +0.0000000000000000e+00 -6.8999998244315686e+00 -2.8142047497183402e-02 -5.3696348151948958e-01 +5.3677225570819206e-03
-6.9999999999999911e+00 +8.1636126365794084e+00 +0.0000000000000000e+00 -6.9999998166868584e+00 -2.8141881084451630e-02 -5.3696418781790933e-01 +5.3678353096078008e-03
-7.0999999999999908e+00 +8.1635727140211056e+00 +0.0000000000000000e+00 -7.0999998087176710e+00 -2.8141720071702719e-02 -5.3696489543524850e-01 +5.3679492165652721e-03
-7.1999999999999904e+00 +8.1635322251635234e+00 +0.0000000000000000e+00 -7.1999998005207990e+00 -2.8141564778019681e-02 -5.3696560353079692e-01 +5.3680643657313416e-03
-7.2999999999999901e+00 +8.1634911700059138e+00 +0.0000000000000000e+00 -7.2999997920930353e+00 -2.8141415522501368e-02 -5.3696631126383476e-01 +5.3681808448727379e-03
-7.3999999999999897e+00 +8.1634495485475345e+00 +0.0000000000000000e+00 -7.3999997834311726e+00 -2.8141272624262692e-02 -5.3696701779363343e-01 +5.3682987417455847e-03
-7.4999999999999893e+00 +8.1634073607876392e+00 +0.0000000000000000e+00 -7.4999997745320028e+00 -2.8141136402434892e-02 -5.3696772227945411e-01 +5.3684181440950699e-03
-7.5999999999999890e+00 +8.1633646067254872e+00 +0.0000000000000000e+00 -7.5999997653923197e+00 -2.8141007176165890e-02 -5.3696842388054788e-01 +5.3685391396551038e-03
-7.6999999999999886e+00 +8.1633212863603415e+00 +0.0000000000000000e+00 -7.6999997560089151e+00 -2.8140885264620583e-02 -5.3696912175615530e-01 +5.3686618161480010e-03
-7.7999999999999883e+00 +8.1632773996914665e+00 +0.0000000000000000e+00 -7.7999997463785826e+00 -2.8140770986981093e-02 -5.3696981506550623e-01 +5.3687862612841510e-03
-7.8999999999999879e+00 +8.1632329467181322e+00 +0.0000000000000000e+00 -7.8999997364981143e+00 -2.8140664662447117e-02 -5.3697050296781956e-01 +5.3689125627616741e-03
-7.9999999999999876e+00 +8.1631879274396137e+00 +0.0000000000000000e+00 -7.9999997263643028e+00 -2.8140566610236187e-02 -5.3697118462230176e-01 +5.3690408082661002e-03
-8.0999999999999872e+00 +8.1631423418551954e+00 +0.0000000000000000e+00 -8.0999997159739419e+00 -2.8140477068031015e-02 -5.3697185949220594e-01 +5.3691710452073065e-03
-8.1999999999999869e+00 +8.1630961899641665e+00 +0.0000000000000000e+00 -8.1999997053238225e+00 -2.8140395947303120e-02 -5.3697252825701369e-01 +5.3693031599362463e-03
-8.2999999999999865e+00 +8.1630494717658220e+00 +0.0000000000000000e+00 -8.2999996944107384e+00 -2.8140323077946366e-02 -5.3697319190026249e-01 +5.3694369985452699e-03
-8.3999999999999861e+00 +8.1630021872594654e+00 +0.0000000000000000e+00 -8.3999996832314814e+00 -2.8140258289826456e-02 -5.3697385140548215e-01 +5.3695724071334151e-03
-8.4999999999999858e+00 +8.1629543364444004e+00 +0.0000000000000000e+00 -8.4999996717828452e+00 -2.8140201412779814e-02 -5.3697450775619482e-01 +5.3697092318066835e-03
-8.5999999999999854e+00 +8.1629059193199378e+00 +0.0000000000000000e+00 -8.5999996600616218e+00 -2.8140152276612509e-02 -5.3697516193591488e-01 +5.3698473186783108e-03
-8.6999999999999851e+00 +8.1628569358853884e+00 +0.0000000000000000e+00 -8.6999996480646029e+00 -2.8140110711099210e-02 -5.3697581492814894e-01 +5.3699865138690413e-03
-8.7999999999999847e+00 +8.1628073861400665e+00 +0.0000000000000000e+00 -8.7999996357885824e+00 -2.8140076545982062e-02 -5.3697646771639573e-01 +5.3701266635074281e-03
-8.8999999999999844e+00 +8.1627572700832829e+00 +0.0000000000000000e+00 -8.8999996232303520e+00 -2.8140049610969588e-02 -5.3697712128414521e-01 +5.3702676137300683e-03
-8.9999999999999840e+00 +8.1627065877143519e+00 +0.0000000000000000e+00 -8.9999996103867055e+00 -2.8140029735735622e-02 -5.3697777661487978e-01 +5.3704092106819212e-03
-9.0999999999999837e+00 +8.1626553390325824e+00 +0.0000000000000000e+00 -9.0999995972544347e+00 -2.8140016749918201e-02 -5.3697843469207163e-01 +5.3705513005165564e-03
-9.1999999999999833e+00 +8.1626035240372818e+00 +0.0000000000000000e+00 -9.1999995838303317e+00 -2.8140010483118521e-02 -5.3697909649918618e-01 +5.3706937293964479e-03
-9.2999999999999829e+00 +8.1625511427277555e+00 +0.0000000000000000e+00 -9.2999995701111899e+00 -2.8140010764899779e-02 -5.3697976301967787e-01 +5.3708363434932412e-03
-9.3999999999999826e+00 +8.1624981951033000e+00 +0.0000000000000000e+00 -9.3999995560938014e+00 -2.8140017424786161e-02 -5.3698043523699346e-01 +5.3709789889880349e-03
-9.4999999999999822e+00 +8.1624446811632101e+00 +0.0000000000000000e+00 -9.4999995417749581e+00 -2.8140030292261684e-02 -5.3698111413456950e-01 +5.3711215120716520e-03
-9.5999999999999819e+00 +8.1623906009067699e+00 +0.0000000000000000e+00 -9.5999995271514535e+00 -2.8140049196769181e-02 -5.3698180069583357e-01 +5.3712637589449306e-03
-9.6999999999999815e+00 +8.1623359543332565e+00 +0.0000000000000000e+00 -9.6999995122200779e+00 -2.8140073967709130e-02 -5.3698249590420288e-01 +5.3714055758189820e-03
-9.7999999999999812e+00 +8.1622807414419398e+00 +0.0000000000000000e+00 -9.7999994969776267e+00 -2.8140104434438644e-02 -5.3698320074308492e-01 +5.3715468089154846e-03
-9.8999999999999808e+00 +8.1622249622320773e+00 +0.0000000000000000e+00 -9.8999994814208900e+00 -2.8140140426270326e-02 -5.3698391619587793e-01 +5.3716873044669551e-03
-9.9999999999999805e+00 +8.1621686167029175e+00 +0.0000000000000000e+00 -9.9999994655466615e+00 -2.8140181772471233e-02 -5.3698464324596840e-01 +5.3718269087170180e-03
-1.0099999999999980e+01 +8.1621117048536931e+00 +0.0000000000000000e+00 -1.0099999449351733e+01 -2.8140228304075095e-02 -5.3698538262642337e-01 +5.3719655079580240e-03
-1.0199999999999980e+01 +8.1620542266836278e+00 +0.0000000000000000e+00 -1.0199999432832898e+01 -2.8140279859334948e-02 -5.3698613406904849e-01 +5.3721031486408822e-03
-1.0299999999999979e+01 +8.1619961821919311e+00 +0.0000000000000000e+00 -1.0299999415986948e+01 -2.8140336278305950e-02 -5.3698689705533631e-01 +5.3722399172532673e-03
-1.0399999999999979e+01 +8.1619375713778002e+00 +0.0000000000000000e+00 -1.0399999398810674e+01 -2.8140397401035248e-02 -5.3698767106678547e-01 +5.3723759002796759e-03
-1.0499999999999979e+01 +8.1618783942404196e+00 +0.0000000000000000e+00 -1.0499999381300871e+01 -2.8140463067561856e-02 -5.3698845558490194e-01 +5.3725111842013729e-03
-1.0599999999999978e+01 +8.1618186507789652e+00 +0.0000000000000000e+00 -1.0599999363454330e+01 -2.8140533117916589e-02 -5.3698925009119813e-01 +5.3726458554962621e-03
-1.0699999999999978e+01 +8.1617583409926002e+00 +0.0000000000000000e+00 -1.0699999345267843e+01 -2.8140607392121975e-02 -5.3699005406719402e-01 +5.3727800006388177e-03
-1.0799999999999978e+01 +8.1616974648804792e+00 +0.0000000000000000e+00 -1.0799999326738202e+01 -2.8140685730192176e-02 -5.3699086699441578e-01 +5.3729137060999884e-03
-1.0899999999999977e+01 +8.1616360224417459e+00 +0.0000000000000000e+00 -1.0899999307862201e+01 -2.8140767972132903e-02 -5.3699168835439837e-01 +5.3730470583471125e-03
-1.0999999999999977e+01 +8.1615740136755370e+00 +0.0000000000000000e+00 -1.0999999288636630e+01 -2.8140853957941355e-02 -5.3699251762868405e-01 +5.3731801438438075e-03
-1.1099999999999977e+01 +8.1615114385809786e+00 +0.0000000000000000e+00 -1.1099999269058282e+01 -2.8140943527606103e-02 -5.3699335429882311e-01 +5.3733130490499076e-03
-1.1199999999999976e+01 +8.1614482971571931e+00 +0.0000000000000000e+00 -1.1199999249123950e+01 -2.8141036521107027e-02 -5.3699419784637414e-01 +5.3734458604213480e-03
-1.1299999999999976e+01 +8.1613845894032906e+00 +0.0000000000000000e+00 -1.1299999228830425e+01 -2.8141132778415272e-02 -5.3699504775290385e-01 +5.3735786644100864e-03
-1.1399999999999975e+01 +8.1613203153183775e+00 +0.0000000000000000e+00 -1.1399999208174499e+01 -2.8141232139493110e-02 -5.3699590349998838e-01 +5.3737115474640105e-03
-1.1499999999999975e+01 +8.1612554749015533e+00 +0.0000000000000000e+00 -1.1499999187152966e+01 -2.8141334444293863e-02 -5.3699676456921208e-01 +5.3738445960268503e-03
-1.1599999999999975e+01 +8.1611900681519121e+00 +0.0000000000000000e+00 -1.1599999165762615e+01 -2.8141439532761901e-02 -5.3699763044216819e-01 +5.3739778965380671e-03
-1.1699999999999974e+01 +8.1611240950685424e+00 +0.0000000000000000e+00 -1.1699999144000239e+01 -2.8141547244832480e-02 -5.3699850060046028e-01 +5.3741115354327944e-03
