# multipoles
# s[mm] polynom_b[n=0][T/m^n] polynom_b[n=1][T/m^n] polynom_b[n=2][T/m^n] polynom_b[n=3][T/m^n] polynom_b[n=4][T/m^n] polynom_b[n=5][T/m^n] polynom_b[n=6][T/m^n] 
+0.0000000000000000e+00 -5.6508758460753361e-01 +7.7361111605437083e+00 -9.4259529640664608e-01 -9.2400272258286932e+01 +8.3511173794115384e+03 +3.3240392605598224e+05 -4.3920148872822590e+07 
+1.0000000000000001e-01 -5.6508714489042977e-01 +7.7360873027090209e+00 -9.3665622613191368e-01 -9.1709860942601125e+01 +8.2180767186123230e+03 +3.2817573022044852e+05 -4.3299652382802725e+07 
+2.0000000000000001e-01 -5.6508670385555648e-01 +7.7360630415243952e+00 -9.3129853391018946e-01 -9.0977976462844367e+01 +8.0960920323766004e+03 +3.2361938991403324e+05 -4.2725691976412922e+07 
+2.9999999999999999e-01 -5.6508626211008239e-01 +7.7360385815495709e+00 -9.2648717224574317e-01 -9.0212139530777776e+01 +7.9844630746942985e+03 +3.1878284099314793e+05 -4.2195051180769384e+07 
+4.0000000000000002e-01 -5.6508582026123477e-01 +7.7360141273379508e+00 -9.2218708983669606e-01 -8.9419870692272241e+01 +7.8824895355897524e+03 +3.1371401835716993e+05 -4.1704513232234649e+07 
+5.0000000000000000e-01 -5.6508537891612309e-01 +7.7359898834524330e+00 -9.1836323876711445e-01 -8.8608690786747829e+01 +7.7894711646820024e+03 +3.0846085860711004e+05 -4.1250861632935770e+07 
+5.9999999999999998e-01 -5.6508493868193932e-01 +7.7359660544559175e+00 -9.1498056932027449e-01 -8.7786120682876572e+01 +7.7047076876724432e+03 +3.0307129855011893e+05 -4.0830879795437299e+07 
+6.9999999999999996e-01 -5.6508450016594158e-01 +7.7359428449108645e+00 -9.1200403367854477e-01 -8.6959681236286812e+01 +7.6274988641694854e+03 +2.9759327486545092e+05 -4.0441351284075961e+07 
+8.0000000000000004e-01 -5.6508406397523947e-01 +7.7359204593897175e+00 -9.0939858222095937e-01 -8.6136893622457066e+01 +7.5571444254175995e+03 +2.9207472612646112e+05 -4.0079059543559670e+07 
+9.0000000000000002e-01 -5.6508363071704437e-01 +7.7358991024546571e+00 -9.0712916681761990e-01 -8.5325278711973439e+01 +7.4929441321573013e+03 +2.8656358906663768e+05 -3.9740788161287703e+07 
+1.0000000000000000e+00 -5.6508320099860476e-01 +7.7358789786798123e+00 -9.0516073500998750e-01 -8.4532357745870513e+01 +7.4341976679129439e+03 +2.8110780259364756e+05 -3.9423320373811297e+07 
+1.1000000000000001e+00 -5.6508277542705398e-01 +7.7358602926371001e+00 -9.0345823805662906e-01 -8.3765651900976934e+01 +7.3802047866507501e+03 +2.7575530519422627e+05 -3.9123439754574552e+07 
+1.2000000000000000e+00 -5.6508235460969802e-01 +7.7358432488950308e+00 -9.0198662042894406e-01 -8.3032682255001205e+01 +7.3302651202110237e+03 +2.7055403472969012e+05 -3.8837929318483889e+07 
+1.3000000000000000e+00 -5.6508193915372962e-01 +7.7358280520300564e+00 -9.0071082655443535e-01 -8.2340970120407391e+01 +7.2836783003230903e+03 +2.6555193039344513e+05 -3.8563572088297963e+07 
+1.3999999999999999e+00 -5.6508152966643266e-01 +7.7358149066124282e+00 -8.9959579980299320e-01 -8.1698036624666727e+01 +7.2397439419104157e+03 +2.6079693024183187e+05 -3.8297151023615435e+07 
+1.5000000000000000e+00 -5.6508112675512423e-01 +7.7358040172187543e+00 -8.9860648003607557e-01 -8.1111403080260899e+01 +7.1977615969477501e+03 +2.5633697336984103e+05 -3.8035448801636413e+07 
+1.6000000000000001e+00 -5.6508073102707024e-01 +7.7357955884215777e+00 -8.9770780574878295e-01 -8.0588590674974242e+01 +7.1570307929297451e+03 +2.5221999807592007e+05 -3.7775247999697715e+07 
+1.7000000000000000e+00 -5.6508034308958766e-01 +7.7357898247941836e+00 -8.9686470960658238e-01 -8.0137120602667054e+01 +7.1168509518497931e+03 +2.4849394261223156e+05 -3.7513330717548952e+07 
+1.8000000000000000e+00 -5.6507996355009282e-01 +7.7357869309103897e+00 -8.9604212195430333e-01 -7.9764514069898510e+01 +7.0765214516818742e+03 +2.4520674524974500e+05 -3.7246478858789615e+07 
+1.8999999999999999e+00 -5.6507959301591848e-01 +7.7357871113408168e+00 -8.9520496979407849e-01 -7.9478292166901824e+01 +7.0353416145155252e+03 +2.4240634347873440e+05 -3.6971474097293258e+07 
+2.0000000000000000e+00 -5.6507923209453548e-01 +7.7357905706587120e+00 -8.9431817650422973e-01 -7.9285976049590374e+01 +6.9926106942433962e+03 +2.4014067510547087e+05 -3.6685097799383260e+07 
+2.1000000000000001e+00 -5.6507888129541450e-01 +7.7357974225594122e+00 -8.9335244743735953e-01 -7.9192421107921376e+01 +6.9477777008611820e+03 +2.3844231535982157e+05 -3.6384957848883808e+07 
+2.2000000000000002e+00 -5.6507854074659003e-01 +7.7358074357910809e+00 -8.9230051291463874e-01 -7.9192415017623802e+01 +6.9008516046855148e+03 +2.3728587788770456e+05 -3.6071730859611295e+07 
+2.2999999999999998e+00 -5.6507821048328655e-01 +7.7358202972374306e+00 -8.9116033928179506e-01 -7.9278367953505935e+01 +6.8519720848140505e+03 +2.3663230155452911e+05 -3.5746804666742064e+07 
+2.3999999999999999e+00 -5.6507789054080781e-01 +7.7358356937841117e+00 -8.8992989301056025e-01 -7.9442690165280425e+01 +6.8012788202958609e+03 +2.3644252576771463e+05 -3.5411567103436053e+07 
+2.5000000000000000e+00 -5.6507758095435356e-01 +7.7358533123061308e+00 -8.8860714265728813e-01 -7.9677791596289055e+01 +6.7489115228327664e+03 +2.3667748821614363e+05 -3.5067406139935739e+07 
+2.6000000000000001e+00 -5.6507728175915173e-01 +7.7358728396851451e+00 -8.8719005588636823e-01 -7.9976082392802908e+01 +6.6950098835740937e+03 +2.3729812786958355e+05 -3.4715709644752964e+07 
+2.7000000000000002e+00 -5.6507699299042125e-01 +7.7358939627945649e+00 -8.8567660109136548e-01 -8.0329972473152424e+01 +6.6397135998203967e+03 +2.3826538248228980e+05 -3.4357865494656160e+07 
+2.7999999999999998e+00 -5.6507671468334320e-01 +7.7359163685042223e+00 -8.8406475018415531e-01 -8.0731871656076848e+01 +6.5831624284818654e+03 +2.3954018933226092e+05 -3.3995261834929153e+07 
+2.8999999999999999e+00 -5.6507644687310266e-01 +7.7359397436827972e+00 -8.8235247453142840e-01 -8.1174189750142631e+01 +6.5254961105329148e+03 +2.4108348580260636e+05 -3.3629286719649561e+07 
+3.0000000000000000e+00 -5.6507618959486938e-01 +7.7359637751924799e+00 -8.8053774582997968e-01 -8.1649336383092702e+01 +6.4668543823911523e+03 +2.4285620835748178e+05 -3.3261328154676042e+07 
+3.1000000000000001e+00 -5.6507594288376595e-01 +7.7359881498926040e+00 -8.7861854110860682e-01 -8.2149721114104437e+01 +6.4073770732999919e+03 +2.4481929321758149e+05 -3.2892774565131415e+07 
+3.2000000000000002e+00 -5.6507570677491425e-01 +7.7360125546386493e+00 -8.7659283629317331e-01 -8.2667753405257415e+01 +6.3472039811596287e+03 +2.4693367620815753e+05 -3.2525014199124340e+07 
+3.2999999999999998e+00 -5.6507548130339691e-01 +7.7360366762775215e+00 -8.7445861168314243e-01 -8.3195842489786287e+01 +6.2864749803911063e+03 +2.4916029202403806e+05 -3.2159435652759928e+07 
+3.3999999999999999e+00 -5.6507526650426187e-01 +7.7360602016567475e+00 -8.7221385011793895e-01 -8.3726397624095526e+01 +6.2253299754187137e+03 +2.5146007564527931e+05 -3.1797427613271084e+07 
+3.5000000000000000e+00 -5.6507506241254746e-01 +7.7360828176158210e+00 -8.6985653526446260e-01 -8.4251827862366028e+01 +6.1639088814047900e+03 +2.5379396113075715e+05 -3.1440378806242805e+07 
+3.6000000000000001e+00 -5.6507486906326143e-01 +7.7361042109866291e+00 -8.6738465604926829e-01 -8.4764542051473498e+01 +6.1023516944778057e+03 +2.5612288153435601e+05 -3.1089678290492270e+07 
+3.7000000000000002e+00 -5.6507468649130665e-01 +7.7361240685985866e+00 -8.6479620350391306e-01 -8.5256948982689053e+01 +6.0407984428036489e+03 +2.5840776980660635e+05 -3.0746715254236758e+07 
+3.7999999999999998e+00 -5.6507451473161474e-01 +7.7361420772723628e+00 -8.6208917372719784e-01 -8.5721457219196381e+01 +5.9793892322785341e+03 +2.6060955783206702e+05 -3.0412879203362551e+07 
+3.8999999999999999e+00 -5.6507435381911386e-01 +7.7361579238225469e+00 -8.5926156232780537e-01 -8.6150475166853795e+01 +5.9182641483372636e+03 +2.6268917682913411e+05 -3.0089559514494073e+07 
+4.0000000000000000e+00 -5.6507420378854012e-01 +7.7361712950631345e+00 -8.5631137553761261e-01 -8.6536411241646931e+01 +5.8575634541237623e+03 +2.6460755839707085e+05 -2.9778146339502372e+07 
+4.0999999999999996e+00 -5.6507406451563091e-01 +7.7361819448275995e+00 -8.5324279499507216e-01 -8.6873155624111860e+01 +5.7974640204485313e+03 +2.6633234180050349e+05 -2.9479892836019222e+07 
+4.2000000000000002e+00 -5.6507393530165406e-01 +7.7361898658442714e+00 -8.5008352739778414e-01 -8.7159780163215217e+01 +5.7383003648291970e+03 +2.6785384027280408e+05 -2.9195658177866850e+07 
+4.2999999999999998e+00 -5.6507381531840672e-01 +7.7361951040791439e+00 -8.4686686811767287e-01 -8.7396487954968194e+01 +5.6804482456430778e+03 +2.6916712771944626e+05 -2.8926233851344191e+07 
+4.4000000000000004e+00 -5.6507370373755716e-01 +7.7361977055014961e+00 -8.4362611476394045e-01 -8.7583482189885146e+01 +5.6242834683830279e+03 +2.7026727847115218e+05 -2.8672411570982590e+07 
+4.5000000000000000e+00 -5.6507359973085614e-01 +7.7361977160905138e+00 -8.4039456861435791e-01 -8.7720966337751648e+01 +5.5701819081696040e+03 +2.7114936832636752e+05 -2.8434983371924628e+07 
+4.5999999999999996e+00 -5.6507350246996291e-01 +7.7361951818283847e+00 -8.3720552898121559e-01 -8.7809143961603766e+01 +5.5185194121004779e+03 +2.7180847350118379e+05 -2.8214741171598997e+07 
+4.7000000000000002e+00 -5.6507341112661191e-01 +7.7361901487145834e+00 -8.3409229977370514e-01 -8.7848219109128294e+01 +5.4696719145423504e+03 +2.7223967282368121e+05 -2.8012477290628713e+07 
+4.7999999999999998e+00 -5.6507332487241801e-01 +7.7361826627467254e+00 -8.3108818656526040e-01 -8.7838395784552503e+01 +5.4240153894411769e+03 +2.7243804473528644e+05 -2.7828984247284800e+07 
+4.9000000000000004e+00 -5.6507324287911798e-01 +7.7361727699396514e+00 -8.2822649366645240e-01 -8.7779878471182485e+01 +5.3819257905706509e+03 +2.7239867022964306e+05 -2.7665054462568127e+07 
+5.0000000000000000e+00 -5.6507316431830423e-01 +7.7361605163160716e+00 -8.2554053003878902e-01 -8.7672871881489428e+01 +5.3437791660638450e+03 +2.7211663144759263e+05 -2.7521480808854718e+07 
+5.0999999999999996e+00 -5.6507308836168502e-01 +7.7361459479083212e+00 -8.2306360504591924e-01 -8.7517580998336101e+01 +5.3099515815048217e+03 +2.7158701188077533e+05 -2.7399056254617322e+07 
+5.2000000000000002e+00 -5.6507301418087275e-01 +7.7361291107595944e+00 -8.2082902925889978e-01 -8.7314211114217201e+01 +5.2808191265130508e+03 +2.7080489659548661e+05 -2.7298573870696645e+07 
+5.2999999999999998e+00 -5.6507294094748628e-01 +7.7361100509245286e+00 -8.1887011723000636e-01 -8.7062967841850494e+01 +5.2567579798391371e+03 +2.6976537227365072e+05 -2.7220827174303453e+07 
+5.4000000000000004e+00 -5.6507286783314015e-01 +7.7360888144729820e+00 -8.1722018431269206e-01 -8.6764057230078166e+01 +5.2381443392211895e+03 +2.6846352788023424e+05 -2.7166609765577525e+07 
+5.5000000000000000e+00 -5.6507279400942179e-01 +7.7360654474851831e+00 -8.1591254632596766e-01 -8.6417685616125667e+01 +5.2253544213007472e+03 +2.6689445378669875e+05 -2.7136715347496636e+07 
+5.5999999999999996e+00 -5.6507271864797826e-01 +7.7360399960507902e+00 -8.1498052355352169e-01 -8.6024059605798939e+01 +5.2187645386539853e+03 +2.6505324166193756e+05 -2.7131938089796621e+07 
+5.7000000000000002e+00 -5.6507264092036191e-01 +7.7360125062808951e+00 -8.1445743726435949e-01 -8.5583386405353977e+01 +5.2187510266516247e+03 +2.6293498634133197e+05 -2.7153072266286112e+07 
+5.7999999999999998e+00 -5.6507255999815309e-01 +7.7359830242941072e+00 -8.1437661023863428e-01 -8.5095873439356126e+01 +5.2256902634603184e+03 +2.6053478366159252e+05 -2.7200912372590713e+07 
+5.9000000000000004e+00 -5.6507247505291547e-01 +7.7359515962274346e+00 -8.1477136816578233e-01 -8.4561728647271906e+01 +5.2399586920574466e+03 +2.5784773211464784e+05 -2.7276253219000299e+07 
+5.9999999999999902e+00 -5.6507238525623538e-01 +7.7359182682327781e+00 -8.1567503576258737e-01 -8.3981160288863535e+01 +5.2619327623887239e+03 +2.5486893139798747e+05 -2.7379889710103244e+07 
+6.0999999999999899e+00 -5.6507229006274073e-01 +7.7358831217151520e+00 -8.1710434686388300e-01 -8.3355154378005366e+01 +5.2917865903052843e+03 +2.5159852460148343e+05 -2.7512064336686932e+07 
+6.1999999999999904e+00 -5.6507218991651786e-01 +7.7358463651015574e+00 -8.1901856999687017e-01 -8.2687665489356306e+01 +5.3289968269349638e+03 +2.4805664718388941e+05 -2.7671171658016723e+07 
+6.2999999999999901e+00 -5.6507208547785825e-01 +7.7358082354519526e+00 -8.2136453235362095e-01 -8.1983353586136445e+01 +5.3728901576149701e+03 +2.4426834445302637e+05 -2.7855224238268450e+07 
+6.3999999999999897e+00 -5.6507197740713211e-01 +7.7357689698115513e+00 -8.2408905369107055e-01 -8.1246878249117984e+01 +5.4227931433290723e+03 +2.4025865991623656e+05 -2.8062234100858595e+07 
+6.4999999999999902e+00 -5.6507186636471507e-01 +7.7357288052047535e+00 -8.2713895426187245e-01 -8.0482898511415542e+01 +5.4780323588655829e+03 +2.3605263436720523e+05 -2.8290213350214813e+07 
+6.5999999999999899e+00 -5.6507175301104084e-01 +7.7356879786533996e+00 -8.3046104874230098e-01 -7.9696073370951524e+01 +5.5379342850523662e+03 +2.3167530881931409e+05 -2.8537173681981847e+07 
+6.6999999999999904e+00 -5.6507163800657290e-01 +7.7356467271505780e+00 -8.3400215007562017e-01 -7.8891061051314665e+01 +5.6018253802976878e+03 +2.2715172029876924e+05 -2.8801126718173943e+07 
+6.7999999999999901e+00 -5.6507152201184740e-01 +7.7356052876837991e+00 -8.3770906771695786e-01 -7.8072519667058330e+01 +5.6690320507449615e+03 +2.2250690568911177e+05 -2.9080083876287680e+07 
+6.8999999999999897e+00 -5.6507140568737380e-01 +7.7355638972203176e+00 -8.4152860547252850e-01 -7.7245106798364631e+01 +5.7388806026108177e+03 +2.1776589928429821e+05 -2.9372056123442426e+07 
+6.9999999999999902e+00 -5.6507128969377252e-01 +7.7355227927092258e+00 -8.4540756584698296e-01 -7.6413479565070531e+01 +5.8106973302330262e+03 +2.1295373326817431e+05 -2.9675054412147913e+07 
+7.0999999999999899e+00 -5.6507117469169221e-01 +7.7354822110868211e+00 -8.4929274654449716e-01 -7.5582294759752727e+01 +5.8838084512521864e+03 +2.0809543842844246e+05 -2.9987089376000974e+07 
+7.1999999999999904e+00 -5.6507106134184037e-01 +7.7354423892631887e+00 -8.5313094002145351e-01 -7.4756208492205303e+01 +5.9575400941103753e+03 +2.0321604221714757e+05 -3.0306171259279795e+07 
+7.2999999999999901e+00 -5.6507095030497512e-01 +7.7354035641369361e+00 -8.5686893804211461e-01 -7.3939876588397908e+01 +6.0312183875293158e+03 +1.9834057098453498e+05 -3.0630310351139557e+07 
+7.3999999999999897e+00 -5.6507084224186310e-01 +7.7353659725820973e+00 -8.6045352293019717e-01 -7.3137954240087595e+01 +6.1041692925558273e+03 +1.9349404805162840e+05 -3.0957516182597205e+07 
+7.4999999999999902e+00 -5.6507073781340822e-01 +7.7353298514524180e+00 -8.6383147653072678e-01 -7.2355096096771206e+01 +6.1757187787108678e+03 +1.8870149415919353e+05 -3.1285798381179396e+07 
+7.5999999999999899e+00 -5.6507063768046994e-01 +7.7352954375841998e+00 -8.6694957426964137e-01 -7.1595956391299353e+01 +6.2451927041156914e+03 +1.8398792833711518e+05 -3.1613166080751900e+07 
+7.6999999999999904e+00 -5.6507054250404931e-01 +7.7352629677901241e+00 -8.6975458687154517e-01 -7.0865188729871889e+01 +6.3119168523323069e+03 +1.7937836660917421e+05 -3.1937628109748360e+07 
+7.7999999999999901e+00 -5.6507045294518221e-01 +7.7352326788611698e+00 -8.7219328016717712e-01 -7.0167446161938784e+01 +6.3752169312552887e+03 +1.7489782245542968e+05 -3.2257192991526727e+07 
+7.8999999999999897e+00 -5.6507036966498825e-01 +7.7352048075615691e+00 -8.7421241514194015e-01 -6.9507381032012091e+01 +6.4344185690136892e+03 +1.7057130595361753e+05 -3.2569868913871247e+07 
+7.9999999999999902e+00 -5.6507029332455183e-01 +7.7351795906343579e+00 -8.7575875377819301e-01 -6.8889646029192264e+01 +6.4888473310056588e+03 +1.6642383147901378e+05 -3.2873663542315409e+07 
+8.0999999999999908e+00 -5.6507022442772170e-01 +7.7351572125787103e+00 -8.7679371018338403e-01 -6.8318683474419430e+01 +6.5379497964805441e+03 +1.6248120072183124e+05 -3.3166678934952639e+07 
+8.1999999999999904e+00 -5.6507016296423718e-01 +7.7351376794274982e+00 -8.7732397715542576e-01 -6.7797675950503844e+01 +6.5815431608373128e+03 +1.5876755395925458e+05 -3.3447254505062528e+07 
+8.2999999999999901e+00 -5.6507010881866759e-01 +7.7351209591051102e+00 -8.7736494689733535e-01 -6.7329430895327690e+01 +6.6195141923690981e+03 +1.5530581064728263e+05 -3.3713755623740658e+07 
+8.3999999999999897e+00 -5.6507006187557518e-01 +7.7351070195457057e+00 -8.7693199908735753e-01 -6.6916755874280781e+01 +6.6517494120323745e+03 +1.5211889024191140e+05 -3.3964546494565606e+07 
+8.4999999999999893e+00 -5.6507002201961931e-01 +7.7350958286924767e+00 -8.7604051176093956e-01 -6.6562458565224674e+01 +6.6781352976555181e+03 +1.4922971212429838e+05 -3.4197991122859366e+07 
+8.5999999999999908e+00 -5.6506998913540640e-01 +7.7350873545031300e+00 -8.7470585316566130e-01 -6.6269346901923640e+01 +6.6985581362693647e+03 +1.4666119637593336e+05 -3.4412452630380251e+07 
+8.6999999999999904e+00 -5.6506996310764479e-01 +7.7350815649382181e+00 -8.7294338875179522e-01 -6.6040228738508475e+01 +6.7129041453216241e+03 +1.4443626182535468e+05 -3.4606293802540876e+07 
+8.7999999999999794e+00 -5.6506994382103437e-01 +7.7350784279769442e+00 -8.7076847174170879e-01 -6.5877912306533304e+01 +6.7210593032984525e+03 +1.4257782868970823e+05 -3.4777876310981408e+07 
+8.8999999999999808e+00 -5.6506993116026105e-01 +7.7350779116051891e+00 -8.6819645321780703e-01 -6.5785205841103902e+01 +6.7229095356710204e+03 +1.4110881631252123e+05 -3.4925561583650507e+07 
+8.9999999999999805e+00 -5.6506992501013475e-01 +7.7350799838203264e+00 -8.6524267620275563e-01 -6.5764917742191201e+01 +6.7183406042325787e+03 +1.4005214415440412e+05 -3.5047710282529123e+07 
+9.0999999999999801e+00 -5.6506992525543287e-01 +7.7350846126372286e+00 -8.6192247315132142e-01 -6.5819856728813534e+01 +6.7072380567803302e+03 +1.3943073261758240e+05 -3.5142682060545057e+07 
+9.1999999999999797e+00 -5.6506993178093268e-01 +7.7350917660784200e+00 -8.5825117254753103e-01 -6.5952831550785319e+01 +6.6894873525804451e+03 +1.3926750134834388e+05 -3.5208836159533806e+07 
+9.2999999999999794e+00 -5.6506994447155390e-01 +7.7351014121795760e+00 -8.5424409241328991e-01 -6.6166651142849929e+01 +6.6649737423823326e+03 +1.3958537011688846e+05 -3.5244530846734181e+07 
+9.3999999999999808e+00 -5.6506996321211778e-01 +7.7351135189920237e+00 -8.4991654784580384e-01 -6.6464124697382701e+01 +6.6335824054240029e+03 +1.4040725921938234e+05 -3.5248124055183977e+07 
+9.4999999999999805e+00 -5.6506998788753937e-01 +7.7351280545805103e+00 -8.4528383874699575e-01 -6.6848061587133458e+01 +6.5951982219915317e+03 +1.4175608897834283e+05 -3.5217972314625956e+07 
+9.5999999999999801e+00 -5.6507001838279636e-01 +7.7351449870227507e+00 -8.4036126282319834e-01 -6.7321271351728740e+01 +6.5497060124134550e+03 +1.4365477966548465e+05 -3.5152431869968742e+07 
+9.6999999999999797e+00 -5.6507005458280224e-01 +7.7351642844116908e+00 -8.3516410784598927e-01 -6.7886563750784020e+01 +6.4969903970559390e+03 +1.4612625174779445e+05 -3.5049858034657985e+07 
+9.7999999999999794e+00 -5.6507009637262573e-01 +7.7351859148564657e+00 -8.2970765186157047e-01 -6.8546748799219046e+01 +6.4369357964522414e+03 +1.4919342611299173e+05 -3.4908605181763969e+07 
+9.8999999999999808e+00 -5.6507014363728936e-01 +7.7352098464762671e+00 -8.2400716319594836e-01 -6.9304636579433364e+01 +6.3694264293906190e+03 +1.5287922293328692e+05 -3.4727026730892010e+07 
+9.9999999999999805e+00 -5.6507019626191712e-01 +7.7352360473499946e+00 -8.1807790385669943e-01 -7.0163034091360132e+01 +6.2943466433411113e+03 +1.5720654194591532e+05 -3.4503477334278859e+07 
+1.0100000000000000e+01 -5.6507025413198586e-01 +7.7352644405109947e+00 -8.1194102012174296e-01 -7.1121901581796962e+01 +6.2118267883812341e+03 +1.6217969517739967e+05 -3.4237770684914507e+07 
