# multipoles
# s[mm] polynom_b[n=0][T/m^n] polynom_b[n=1][T/m^n] polynom_b[n=2][T/m^n] polynom_b[n=3][T/m^n] polynom_b[n=4][T/m^n] polynom_b[n=5][T/m^n] polynom_b[n=6][T/m^n] 
+0.0000000000000000e+00 -5.9307654777867513e-01 +8.1208891906173388e+00 -4.5365427194368563e-01 -6.0979216474131647e+01 -2.0822808957619905e+03 +7.2837101474932308e+04 +1.1702862076745631e+07 
-1.0000000000000001e-01 -5.9307669419909570e-01 +8.1209237943014188e+00 -4.5304744553997939e-01 -6.1674425772995122e+01 -2.0478422192164430e+03 +7.6695357273816247e+04 +1.1441361677936275e+07 
-2.0000000000000001e-01 -5.9307685050446057e-01 +8.1209536208554045e+00 -4.5141250759802792e-01 -6.2225065233791419e+01 -2.0220925121172138e+03 +7.9752985040792133e+04 +1.1185096850569697e+07 
-3.0000000000000004e-01 -5.9307701529303891e-01 +8.1209788491921433e+00 -4.4885749239017175e-01 -6.2637878226391884e+01 -2.0044084226612649e+03 +8.2046332316668428e+04 +1.0935148283599557e+07 
-4.0000000000000002e-01 -5.9307718716303282e-01 +8.1209996582082518e+00 -4.4549044287305140e-01 -6.2919607661273893e+01 -1.9941664381203004e+03 +8.3611744184612937e+04 +1.0692595922466867e+07 
-5.0000000000000000e-01 -5.9307736471266814e-01 +8.1210162268017179e+00 -4.4141939883860237e-01 -6.3076996525855385e+01 -1.9907431092063841e+03 +8.4485566417762442e+04 +1.0458520029517705e+07 
-5.9999999999999998e-01 -5.9307754654012812e-01 +8.1210287338672451e+00 -4.3675240531683845e-01 -6.3116787685829500e+01 -1.9935148929455922e+03 +8.4704144115100324e+04 +1.0234000445625437e+07 
-6.9999999999999996e-01 -5.9307773124357677e-01 +8.1210373582899695e+00 -4.3159750936852570e-01 -6.3045723736277530e+01 -2.0018582104849552e+03 +8.4303820897408616e+04 +1.0020116852854030e+07 
-7.9999999999999993e-01 -5.9307791742116445e-01 +8.1210422789621752e+00 -4.2606275939893290e-01 -6.2870547435923385e+01 -2.0151494614928877e+03 +8.3320941241464330e+04 +9.8179488471959010e+06 
-8.9999999999999991e-01 -5.9307810367102543e-01 +8.1210436747757520e+00 -4.2025620628278365e-01 -6.2598001504102108e+01 -2.0327649973437833e+03 +8.1791849326188865e+04 +9.6285757957956810e+06 
-9.9999999999999989e-01 -5.9307828859129996e-01 +8.1210417246261120e+00 -4.1428589907457530e-01 -6.2234828704597469e+01 -2.0540812097359108e+03 +7.9752889379922563e+04 +9.4530772750389334e+06 
-1.0999999999999999e+00 -5.9307847078008902e-01 +8.1210366074137905e+00 -4.0825989234154519e-01 -6.1787771870226713e+01 -2.0784743811591206e+03 +7.7240405741706476e+04 +9.2925323326028045e+06 
-1.2000000000000000e+00 -5.9307864883550632e-01 +8.1210285020495920e+00 -4.0228623826913285e-01 -6.1263574074181491e+01 -2.1053208416835346e+03 +7.4290743880002134e+04 +9.1480202483884376e+06 
-1.3000000000000000e+00 -5.9307882135563084e-01 +8.1210175874501900e+00 -3.9647299369980904e-01 -6.0668978447159212e+01 -2.1339968297411060e+03 +7.0940249135036953e+04 +9.0206198590243142e+06 
-1.4000000000000001e+00 -5.9307898693855055e-01 +8.1210040425446284e+00 -3.9092821329548549e-01 -6.0010728381520124e+01 -2.1638786268739186e+03 +6.7225267914974698e+04 +8.9114102081590872e+06 
-1.5000000000000002e+00 -5.9307914418235796e-01 +8.1209880462789030e+00 -3.8575995183292394e-01 -5.9295567628662276e+01 -2.1943425046317816e+03 +6.3182148130648646e+04 +8.8214702701363303e+06 
-1.6000000000000003e+00 -5.9307929168511775e-01 +8.1209697776075949e+00 -3.8107626660077154e-01 -5.8530240072312253e+01 -2.2247646881378755e+03 +5.8847237878936110e+04 +8.7518787981830798e+06 
-1.7000000000000004e+00 -5.9307942804489433e-01 +8.1209494155089192e+00 -3.7698521473161400e-01 -5.7721490112829777e+01 -2.2545214011287680e+03 +5.4256887497633965e+04 +8.7037145231910106e+06 
-1.8000000000000005e+00 -5.9307955185976258e-01 +8.1209271389787858e+00 -3.7359485210733362e-01 -5.6876062522363597e+01 -2.2829888821498171e+03 +4.9447448774294513e+04 +8.6780562162988856e+06 
-1.9000000000000006e+00 -5.9307966172778392e-01 +8.1209031270295444e+00 -3.7101323566893307e-01 -5.6000702362081313e+01 -2.3095433476833714e+03 +4.4455274282320024e+04 +8.6759825334114041e+06 
-2.0000000000000004e+00 -5.9307975624704257e-01 +8.1208775587030075e+00 -3.6934841953500014e-01 -5.5102155365351059e+01 -2.3335610585046247e+03 +3.9316719600641118e+04 +8.6985723082536012e+06 
-2.1000000000000005e+00 -5.9307983457151769e-01 +8.1208506258709310e+00 -3.6868361855061887e-01 -5.4186931036373835e+01 -2.3544402000520708e+03 +3.4066974782946432e+04 +8.7459147396037187e+06 
-2.2000000000000006e+00 -5.9307989807944017e-01 +8.1208225827793470e+00 -3.6900279401731034e-01 -5.3261146558016122e+01 -2.3716707151976707e+03 +2.8740081075106253e+04 +8.8141591369272303e+06 
-2.3000000000000007e+00 -5.9307994870531455e-01 +8.1207937020378704e+00 -3.7026512206749773e-01 -5.2330959077331308e+01 -2.3847661751865476e+03 +2.3370671341846228e+04 +8.8984722170048729e+06 
-2.4000000000000008e+00 -5.9307998838363762e-01 +8.1207642562618290e+00 -3.7242978086725853e-01 -5.1402525953523835e+01 -2.3932401027454612e+03 +1.7993379731247369e+04 +8.9940204357437305e+06 
-2.5000000000000009e+00 -5.9308001904893171e-01 +8.1207345180590078e+00 -3.7545594489569345e-01 -5.0482004440436270e+01 -2.3966060907399979e+03 +1.2642840060204575e+04 +9.0959705756592825e+06 
-2.6000000000000010e+00 -5.9308004263574143e-01 +8.1207047600433384e+00 -3.7930278613707197e-01 -4.9575552050876283e+01 -2.3943777745248494e+03 +7.3536878338622055e+03 +9.1994896021402124e+06 
-2.7000000000000011e+00 -5.9308006107863964e-01 +8.1206752548246062e+00 -3.8392947411062323e-01 -4.8689326300829485e+01 -2.3860688268956224e+03 +2.1605588891688476e+03 +9.2997446269963235e+06 
-2.8000000000000012e+00 -5.9308007631218917e-01 +8.1206462750064503e+00 -3.8929517888025794e-01 -4.7829484669681548e+01 -2.3711929124123017e+03 -2.9019107660312134e+03 +9.3919027215005364e+06 
-2.9000000000000012e+00 -5.9308009027103126e-01 +8.1206180931879235e+00 -3.9535906278113053e-01 -4.7002184659372723e+01 -2.3492638275111785e+03 -7.7990845563676103e+03 +9.4711315382423773e+06 
-3.0000000000000013e+00 -5.9308010488978746e-01 +8.1205909819653463e+00 -4.0208028939385615e-01 -4.6213583865066205e+01 -2.3197953481392346e+03 -1.2496324877730518e+04 +9.5325986299527455e+06 
-3.1000000000000014e+00 -5.9308012210313987e-01 +8.1205652139283995e+00 -4.0941801653093463e-01 -4.5469839874962197e+01 -2.2823013472687603e+03 -1.6958993629576653e+04 +9.5714719710688349e+06 
-3.2000000000000015e+00 -5.9308014384579533e-01 +8.1205410616550342e+00 -4.1733139909390971e-01 -4.4777110155386652e+01 -2.2362957496014087e+03 -2.1152452772513647e+04 +9.5829197635012586e+06 
-3.3000000000000016e+00 -5.9308017205249608e-01 +8.1205187977193596e+00 -4.2577958779534147e-01 -4.4141552267846897e+01 -2.1812925551651274e+03 -2.5042063094630907e+04 +9.5621105462369621e+06 
-3.4000000000000017e+00 -5.9308020865801847e-01 +8.1204986946813875e+00 -4.3472173071322839e-01 -4.3569323626775230e+01 -2.1168058008329731e+03 -2.8593185447686668e+04 +9.5042129888648242e+06 
-3.5000000000000018e+00 -5.9308025559718658e-01 +8.1204810250955290e+00 -4.4411697000213873e-01 -4.3066581737434035e+01 -2.0423496356491048e+03 -3.1771179382660765e+04 +9.4043962843856737e+06 
-3.6000000000000019e+00 -5.9308031480485390e-01 +8.1204660614988953e+00 -4.5392444486830053e-01 -4.2639483871604106e+01 -1.9574382550290809e+03 -3.4541404979297433e+04 +9.2578298085263036e+06 
-3.7000000000000020e+00 -5.9308038821593700e-01 +8.1204540764164008e+00 -4.6410328812522944e-01 -4.2294187258342944e+01 -1.8615859653610974e+03 -3.6869221597773278e+04 +9.0596834269473180e+06 
-3.8000000000000020e+00 -5.9308047776539186e-01 +8.1204453423633485e+00 -4.7461262809975496e-01 -4.2036849148608212e+01 -1.7543071547774146e+03 -3.8719987535213957e+04 +8.8051273738515135e+06 
-3.9000000000000021e+00 -5.9308058538819619e-01 +8.1204401318353607e+00 -4.8541159123601157e-01 -4.1873626558662735e+01 -1.6351162377833693e+03 -4.0059061391280193e+04 +8.4893319710845500e+06 
-4.0000000000000018e+00 -5.9308071301942855e-01 +8.1204387173118100e+00 -4.9645929278834233e-01 -4.1810676378941125e+01 -1.5035278324051278e+03 -4.0851801421203651e+04 +8.1074684718274940e+06 
-4.1000000000000014e+00 -5.9308086214512168e-01 +8.1204412707317069e+00 -5.0770972891811383e-01 -4.1851745251400857e+01 -1.3593801730510065e+03 -4.1076239246537792e+04 +7.6565055073621869e+06 
-4.2000000000000011e+00 -5.9308103244400301e-01 +8.1204475365560818e+00 -5.1909517052081089e-01 -4.1990285057153891e+01 -1.2038419622023193e+03 -4.0764030889789872e+04 +7.1407987545140423e+06 
-4.3000000000000007e+00 -5.9308122314027256e-01 +8.1204571459121837e+00 -5.3054209033892641e-01 -4.2217006701837725e+01 -1.0384248690497445e+03 -3.9960992195765088e+04 +6.5666062031495282e+06 
-4.4000000000000004e+00 -5.9308143345810405e-01 +8.1204697299124859e+00 -5.4197696346394220e-01 -4.2522620597076674e+01 -8.6464053239898021e+02 -3.8712941746940029e+04 +5.9401857370971674e+06 
-4.5000000000000000e+00 -5.9308166262161821e-01 +8.1204849196587041e+00 -5.5332627038184767e-01 -4.2897836795366715e+01 -6.8400050677475974e+02 -3.7065700030514025e+04 +5.2677948923976487e+06 
-4.5999999999999996e+00 -5.9308190985492193e-01 +8.1205023462329855e+00 -5.6451649210617671e-01 -4.3333364691493372e+01 -4.9801635698000740e+02 -3.5065091279175329e+04 +4.5556913135617925e+06 
-4.6999999999999993e+00 -5.9308217438209587e-01 +8.1205216407004741e+00 -5.7547411201519205e-01 -4.3819913123018821e+01 -3.0819961874856938e+02 -3.2756942790773130e+04 +3.8101325528754620e+06 
-4.7999999999999989e+00 -5.9308245542715532e-01 +8.1205424341133359e+00 -5.8612561993773993e-01 -4.4348190455238573e+01 -1.1606173034543890e+02 -3.0187084505921550e+04 +3.0373757731562657e+06 
-4.8999999999999986e+00 -5.9308275221409712e-01 +8.1205643575011432e+00 -5.9639750732085606e-01 -4.4908904296968160e+01 +7.6885884029196035e+01 -2.7401350659857759e+04 +2.2436781203014716e+06 
-4.9999999999999982e+00 -5.9308306396686117e-01 +8.1205870418778492e+00 -6.0621627027765435e-01 -4.5492761699849595e+01 +2.6913186013552678e+02 -2.4445578608294945e+04 +1.4352965373106867e+06 
-5.0999999999999979e+00 -5.9308338990936371e-01 +8.1206101182389894e+00 -6.1550840745386259e-01 -4.6090469067144831e+01 +4.5916486235264057e+02 -2.1365609369851943e+04 +6.1848789274534641e+05 
-5.1999999999999975e+00 -5.9308372926544706e-01 +8.1206332175590301e+00 -6.2420042415139698e-01 -4.6692732059017217e+01 +6.4547365163898348e+02 -1.8207288211515552e+04 -2.0049131857753333e+05 
-5.2999999999999972e+00 -5.9308408125892131e-01 +8.1206559707902404e+00 -6.3221882837596899e-01 -4.7290255570093137e+01 +8.2654701470094165e+02 -1.5016464721790748e+04 -1.0153846464987398e+06 
-5.3999999999999968e+00 -5.9308444511352731e-01 +8.1206780088657560e+00 -6.3949013572954005e-01 -4.7873743786053488e+01 +1.0008738609340616e+03 -1.1838992564697430e+04 -1.8199361587736667e+06 
-5.4999999999999964e+00 -5.9308482005295993e-01 +8.1206989626970500e+00 -6.4594086473130286e-01 -4.8433900123328073e+01 +1.1669431174648039e+03 -8.7207297710923085e+03 -2.6078898961002263e+06 
-5.5999999999999961e+00 -5.9308520530087316e-01 +8.1207184631684441e+00 -6.5149753764816565e-01 -4.8961427046686026e+01 +1.3232437574394453e+03 -5.7075398399274454e+03 -3.3729900413204925e+06 
-5.6999999999999957e+00 -5.9308560008081679e-01 +8.1207361411448140e+00 -6.5608668752254962e-01 -4.9447026289639403e+01 +1.4682649255415829e+03 -2.8452904535398761e+03 -4.1089814948563278e+06 
-5.7999999999999954e+00 -5.9308600361631181e-01 +8.1207516274672766e+00 -6.5963484929423211e-01 -4.9881398714987228e+01 +1.6004957718490502e+03 -1.7985430973994147e+02 -4.8096090887504276e+06 
-5.8999999999999950e+00 -5.9308641513079319e-01 +8.1207645529470724e+00 -6.6206856638090050e-01 -5.0255244142978746e+01 +1.7184255723854321e+03 +2.2428899163153533e+03 -5.4686181487509003e+06 
-5.9999999999999947e+00 -5.9308683384765393e-01 +8.1207745483775664e+00 -6.6331438491291872e-01 -5.0559261691584481e+01 +1.8205436172198188e+03 +4.3770595165348341e+03 -6.0797539567452874e+06 
-6.0999999999999943e+00 -5.9308725895128400e-01 +8.1207813657431238e+00 -6.6332693342889315e-01 -5.0787071779985197e+01 +1.9057079056508903e+03 +6.1904750025304993e+03 -6.6378446147895278e+06 
-6.1999999999999940e+00 -5.9308768948112112e-01 +8.1207852526004274e+00 -6.6217661590101129e-01 -5.0943563901904930e+01 +1.9743369675563981e+03 +7.7013494002458492e+03 -7.1424310596819762e+06 
-6.2999999999999936e+00 -5.9308812444246173e-01 +8.1207865833683428e+00 -6.5996376419383218e-01 -5.1036346225429256e+01 +2.0272617601299187e+03 +8.9393923040307363e+03 -7.5943260380201703e+06 
-6.3999999999999932e+00 -5.9308856284064682e-01 +8.1207857325022310e+00 -6.5678870751306939e-01 -5.1073027729194706e+01 +2.0653132162461711e+03 +9.9343167651816984e+03 -7.9943422288144790e+06 
-6.4999999999999929e+00 -5.9308900368107642e-01 +8.1207830744907810e+00 -6.5275177048360800e-01 -5.1061218126559730e+01 +2.0893222137646280e+03 +1.0715838949838733e+04 -8.3432921230447767e+06 
-6.5999999999999925e+00 -5.9308944596920310e-01 +8.1207789838598270e+00 -6.4795327492104593e-01 -5.1008527972540968e+01 +2.1001196150376722e+03 +1.1313678718087423e+04 -8.6419882256076559e+06 
-6.6999999999999922e+00 -5.9308988871052892e-01 +8.1207738351666965e+00 -6.4249353888667526e-01 -5.0922568474059219e+01 +2.0985362422241237e+03 +1.1757558419858758e+04 -8.8912429209176786e+06 
-6.7999999999999918e+00 -5.9309033091058039e-01 +8.1207680030144118e+00 -6.3647288119045231e-01 -5.0810951934533648e+01 +2.0854029708249873e+03 +1.2077205546660325e+04 -9.0918689374304432e+06 
-6.8999999999999915e+00 -5.9309077157500023e-01 +8.1207618620431603e+00 -6.2999160975267376e-01 -5.0681291444889709e+01 +2.0615505095537651e+03 +1.2302350743409012e+04 -9.2446783031089474e+06 
-6.9999999999999911e+00 -5.9309120970942986e-01 +8.1207557869360603e+00 -6.2315003596101026e-01 -5.0541201078092094e+01 +2.0278096701082193e+03 +1.2462728981150625e+04 -9.3504836201391853e+06 
-7.0999999999999908e+00 -5.9309164431960626e-01 +8.1207501524207526e+00 -6.1604846328301666e-01 -5.0398295920839544e+01 +1.9850111574115529e+03 +1.2588079675796014e+04 -9.4100970843315627e+06 
-7.1999999999999904e+00 -5.9309207441132694e-01 +8.1207453332692676e+00 -6.0878719150633753e-01 -5.0260192052036281e+01 +1.9339856502018463e+03 +1.2708146497074675e+04 -9.4243308685579114e+06 
-7.2999999999999901e+00 -5.9309249899043315e-01 +8.1207417043033736e+00 -6.0146651891138359e-01 -5.0134506698020097e+01 +1.8755638420979790e+03 +1.2852678231196220e+04 -9.3939973161190189e+06 
-7.3999999999999897e+00 -5.9309291706286371e-01 +8.1207396403894396e+00 -5.9418673592604698e-01 -5.0028858071732856e+01 +1.8105763256973544e+03 +1.3051427798912649e+04 -9.3199084027150311e+06 
-7.4999999999999893e+00 -5.9309332763460088e-01 +8.1207395164477898e+00 -5.8704813159381208e-01 -4.9950865630920525e+01 +1.7398537129826223e+03 +1.3334153688582046e+04 -9.2028763003942706e+06 
-7.5999999999999890e+00 -5.9309372971170993e-01 +8.1207417074456369e+00 -5.8015098923130781e-01 -4.9908149882784976e+01 +1.6642265582941325e+03 +1.3730618823524814e+04 -9.0437130268344153e+06 
-7.6999999999999886e+00 -5.9309412230032210e-01 +8.1207465884138141e+00 -5.7359558855441628e-01 -4.9908332835359715e+01 +1.5845253990946690e+03 +1.4270593063694794e+04 -8.8432306393438503e+06 
-7.7999999999999883e+00 -5.9309450440667222e-01 +8.1207545344309917e+00 -5.6748220049615461e-01 -4.9959037541350760e+01 +1.5015806553085288e+03 +1.4983850528252970e+04 -8.6022407497211024e+06 
-7.8999999999999879e+00 -5.9309487503702307e-01 +8.1207659206296388e+00 -5.6191109801701067e-01 -5.0067888282773069e+01 +1.4162228439493024e+03 +1.5900170689153487e+04 -8.3215555689283516e+06 
-7.9999999999999876e+00 -5.9309523319777557e-01 +8.1207811222086939e+00 -5.5698254203980979e-01 -5.0242510857398472e+01 +1.3292823158697288e+03 +1.7049339966115447e+04 -8.0019866527016303e+06 
-8.0999999999999872e+00 -5.9309557839227234e-01 +8.1208003696266555e+00 -5.5277277991924312e-01 -5.0487305850846433e+01 +1.2415296656742573e+03 +1.8446512687101440e+04 -7.6449797869466571e+06 
-8.1999999999999869e+00 -5.9309591209467927e-01 +8.1208233493454696e+00 -5.4925676449391458e-01 -5.0795611952990058e+01 +1.1533820966462704e+03 +2.0059793461492562e+04 -7.2540400936176172e+06 
-8.2999999999999865e+00 -5.9309623626840990e-01 +8.1208496201423550e+00 -5.4638281670265254e-01 -5.1158456888331045e+01 +1.0651436833896294e+03 +2.1848411771979088e+04 -6.8330951555124894e+06 
-8.3999999999999861e+00 -5.9309655287680108e-01 +8.1208787407582204e+00 -5.4409926422402644e-01 -5.1566867893866629e+01 +9.7711861135345509e+02 +2.3771595995328142e+04 -6.3860730477160970e+06 
-8.4999999999999858e+00 -5.9309686388308958e-01 +8.1209102699161839e+00 -5.4235444394703136e-01 -5.2011872210268329e+01 +8.8961120925395937e+02 +2.5788576157281423e+04 -5.9169024483670583e+06 
-8.5999999999999854e+00 -5.9309717125042394e-01 +8.1209437663032027e+00 -5.4109669992641296e-01 -5.2484496551678902e+01 +8.0292591010785168e+02 +2.7858580874069041e+04 -5.4295124547815751e+06 
-8.6999999999999851e+00 -5.9309747694183768e-01 +8.1209787885744387e+00 -5.4027438691888330e-01 -5.2975767263182092e+01 +7.1736731495113338e+02 +2.9940838348915520e+04 -4.9278328748641806e+06 
-8.7999999999999847e+00 -5.9309778292028359e-01 +8.1210148953529337e+00 -5.3983586643758807e-01 -5.3476710329396511e+01 +6.3324012273164794e+02 +3.1994576498883707e+04 -4.4157939087494751e+06 
-8.8999999999999844e+00 -5.9309809114860135e-01 +8.1210516452276149e+00 -5.3972950903317674e-01 -5.3978351324361768e+01 +5.5084916132467015e+02 +3.3979022683563409e+04 -3.8973262638282869e+06 
-8.9999999999999840e+00 -5.9309840358950139e-01 +8.1210885967487663e+00 -5.3990369848141839e-01 -5.4471715310857441e+01 +4.7049947922305643e+02 +3.5853403213194921e+04 -3.3763616222321736e+06 
-9.0999999999999837e+00 -5.9309872220561843e-01 +8.1211253084357349e+00 -5.4030682330472291e-01 -5.4947827064400940e+01 +3.9249617569841058e+02 +3.7576944664199335e+04 -2.8568318122292054e+06 
-9.1999999999999833e+00 -5.9309904895946286e-01 +8.1211613387667754e+00 -5.4088728310817480e-01 -5.5397710812414608e+01 +3.1714451857686919e+02 +3.9108872465624285e+04 -2.3426693591816435e+06 
-9.2999999999999829e+00 -5.9309938581341892e-01 +8.1211962461797977e+00 -5.4159348892554127e-01 -5.5812390272646091e+01 +2.4474995408823747e+02 +4.0408411179468843e+04 -1.8378075435397672e+06 
-9.3999999999999826e+00 -5.9309973472974253e-01 +8.1212295890760000e+00 -5.4237386330013071e-01 -5.6182888755047372e+01 +1.7561810636522168e+02 +4.1434785088287936e+04 -1.3461803924059980e+06 
-9.4999999999999822e+00 -5.9310009767059202e-01 +8.1212609258152000e+00 -5.4317683623693735e-01 -5.6500229070259415e+01 +1.1005469845155176e+02 +4.2147217793904725e+04 -8.7172229906194808e+05 
-9.5999999999999819e+00 -5.9310047659798104e-01 +8.1212898147150483e+00 -5.4395085060219917e-01 -5.6755433516795534e+01 +4.8365650880089994e+01 +4.2504932184117337e+04 -4.1836848100393364e+05 
-9.6999999999999815e+00 -5.9310087347380436e-01 +8.1213158140461594e+00 -5.4464435962158675e-01 -5.6939523747514592e+01 -9.1429610495566589e+00 +4.2467149687446275e+04 +9.9452103315139084e+03 
-9.7999999999999812e+00 -5.9310129025981306e-01 +8.1213384820409793e+00 -5.4520582931872352e-01 -5.7043521057257379e+01 -6.2164864854735036e+01 +4.1993092029458378e+04 +4.0928209676871530e+05 
-9.8999999999999808e+00 -5.9310172891764312e-01 +8.1213573768811909e+00 -5.4558373439047425e-01 -5.7058446026084717e+01 -1.1039367374133786e+02 +4.1041979203628049e+04 +7.7570507971318951e+05 
-9.9999999999999805e+00 -5.9310219140876264e-01 +8.1213720567099674e+00 -5.4572656518959095e-01 -5.6975318929481780e+01 -1.5352275826065369e+02 +3.9573031697705344e+04 +1.1052760189451471e+06 
-1.0099999999999980e+01 -5.9310267907448733e-01 +8.1213822250937344e+00 -5.4559329428925452e-01 -5.6788839675635465e+01 -1.9137092345370402e+02 +3.7564491677259037e+04 +1.3951952879525367e+06 
