# field on trajectory
# s[mm] rx[mm] ry[mm] rz[mm] bx[T] by[T] bz[T]
-0.0000000000000000e+00 +8.1530000000000094e+00 +0.0000000000000000e+00 -0.0000000000000000e+00 -3.1284435180857842e-02 -5.9307946611041729e-01 +5.9417315797487069e-03
-1.0000000000000001e-01 +8.1529997159377707e+00 +0.0000000000000000e+00 -1.0008006405070299e-01 -3.1284409711687423e-02 -5.9307966745943608e-01 +5.9418134684613121e-03
-2.0000000000000001e-01 +8.1529988637557800e+00 +0.0000000000000000e+00 -2.0016012809818201e-01 -3.1284379124018588e-02 -5.9307987418488828e-01 +5.9418983258105063e-03
-2.9999999999999999e-01 +8.1529974434524792e+00 +0.0000000000000000e+00 -3.0024019213920999e-01 -3.1284343687180437e-02 -5.9308008517809518e-01 +5.9419860312335208e-03
-4.0000000000000002e-01 +8.1529954550242092e+00 +0.0000000000000000e+00 -4.0032025617056399e-01 -3.1284303670502341e-02 -5.9308029933039330e-01 +5.9420764641699673e-03
-5.0000000000000000e-01 +8.1529928984782600e+00 +0.0000000000000000e+00 -5.0040032018901703e-01 -3.1284259343308404e-02 -5.9308051553302654e-01 +5.9421695040601831e-03
-5.9999999999999998e-01 +8.1529897738146193e+00 +0.0000000000000000e+00 -6.0048038419134497e-01 -3.1284210974925855e-02 -5.9308073267729566e-01 +5.9422650303461791e-03
-6.9999999999999996e-01 +8.1529860810223909e+00 +0.0000000000000000e+00 -7.0056044817432195e-01 -3.1284158834686882e-02 -5.9308094965458502e-01 +5.9423629224713993e-03
-8.0000000000000004e-01 +8.1529818201124709e+00 +0.0000000000000000e+00 -8.0064051213472498e-01 -3.1284103191914360e-02 -5.9308116535609601e-01 +5.9424630598774149e-03
-9.0000000000000002e-01 +8.1529769910812302e+00 +0.0000000000000000e+00 -9.0072057606932698e-01 -3.1284044315938300e-02 -5.9308137867314226e-01 +5.9425653220063915e-03
-1.0000000000000000e+00 +8.1529715939250291e+00 +0.0000000000000000e+00 -1.0008006399749001e+00 -3.1283982476089593e-02 -5.9308158849702930e-01 +5.9426695882993296e-03
-1.1000000000000001e+00 +8.1529656286511507e+00 +0.0000000000000000e+00 -1.1008807038482300e+00 -3.1283917941695438e-02 -5.9308179371896663e-01 +5.9427757381945757e-03
-1.2000000000000000e+00 +8.1529590952522994e+00 +0.0000000000000000e+00 -1.2009607676860801e+00 -3.1283850982091001e-02 -5.9308199323027255e-01 +5.9428836511293921e-03
-1.3000000000000000e+00 +8.1529519937357708e+00 +0.0000000000000000e+00 -1.3010408314852300e+00 -3.1283781866606589e-02 -5.9308218592213602e-01 +5.9429932065369609e-03
-1.3999999999999999e+00 +8.1529443240979198e+00 +0.0000000000000000e+00 -1.4011208952424601e+00 -3.1283710864579373e-02 -5.9308237068582448e-01 +5.9431042838479498e-03
-1.5000000000000000e+00 +8.1529360863350995e+00 +0.0000000000000000e+00 -1.5012009589545301e+00 -3.1283638245348702e-02 -5.9308254641259328e-01 +5.9432167624890410e-03
-1.6000000000000001e+00 +8.1529272804509691e+00 +0.0000000000000000e+00 -1.6012810226182299e+00 -3.1283564278253156e-02 -5.9308271199362494e-01 +5.9433305218817593e-03
-1.7000000000000000e+00 +8.1529179064491508e+00 +0.0000000000000000e+00 -1.7013610862303301e+00 -3.1283489232634097e-02 -5.9308286632008855e-01 +5.9434454414425148e-03
-1.8000000000000000e+00 +8.1529079643223703e+00 +0.0000000000000000e+00 -1.8014411497875999e+00 -3.1283413377840713e-02 -5.9308300828322691e-01 +5.9435614005829505e-03
-1.8999999999999999e+00 +8.1528974540779000e+00 +0.0000000000000000e+00 -1.9015212132868200e+00 -3.1283336983218946e-02 -5.9308313677414870e-01 +5.9436782787072604e-03
-2.0000000000000000e+00 +8.1528863757084800e+00 +0.0000000000000000e+00 -2.0016012767247702e+00 -3.1283260318124582e-02 -5.9308325068406564e-01 +5.9437959552140866e-03
-2.1000000000000001e+00 +8.1528747292177304e+00 +0.0000000000000000e+00 -2.1016813400982199e+00 -3.1283183599376950e-02 -5.9308334936047535e-01 +5.9439143198154725e-03
-2.2000000000000002e+00 +8.1528625146056601e+00 +0.0000000000000000e+00 -2.2017614034039301e+00 -3.1283106843505049e-02 -5.9308343389092821e-01 +5.9440333015712520e-03
-2.2999999999999998e+00 +8.1528497318759001e+00 +0.0000000000000000e+00 -2.3018414666387002e+00 -3.1283030019312964e-02 -5.9308350577755797e-01 +5.9441528389181800e-03
-2.3999999999999999e+00 +8.1528363810211903e+00 +0.0000000000000000e+00 -2.4019215297993002e+00 -3.1282953095613249e-02 -5.9308356652258187e-01 +5.9442728702953753e-03
-2.5000000000000000e+00 +8.1528224620451493e+00 +0.0000000000000000e+00 -2.5020015928824901e+00 -3.1282876041217482e-02 -5.9308361762812523e-01 +5.9443933341429955e-03
-2.6000000000000001e+00 +8.1528079749477893e+00 +0.0000000000000000e+00 -2.6020816558850601e+00 -3.1282798824942872e-02 -5.9308366059633999e-01 +5.9445141689039192e-03
-2.7000000000000002e+00 +8.1527929197291105e+00 +0.0000000000000000e+00 -2.7021617188037701e+00 -3.1282721415610761e-02 -5.9308369692937479e-01 +5.9446353130239377e-03
-2.7999999999999998e+00 +8.1527772963891003e+00 +0.0000000000000000e+00 -2.8022417816354102e+00 -3.1282643782046836e-02 -5.9308372812937693e-01 +5.9447567049522422e-03
-2.8999999999999999e+00 +8.1527611049277802e+00 +0.0000000000000000e+00 -2.9023218443767500e+00 -3.1282565893081329e-02 -5.9308375569849248e-01 +5.9448782831419108e-03
-3.0000000000000000e+00 +8.1527443453451305e+00 +0.0000000000000000e+00 -3.0024019070245598e+00 -3.1282487717549136e-02 -5.9308378113886673e-01 +5.9449999860503857e-03
-3.1000000000000001e+00 +8.1527270176411495e+00 +0.0000000000000000e+00 -3.1024819695756198e+00 -3.1282409224289938e-02 -5.9308380595264543e-01 +5.9451217521399825e-03
-3.2000000000000002e+00 +8.1527091218158603e+00 +0.0000000000000000e+00 -3.2025620320267101e+00 -3.1282330382148546e-02 -5.9308383164197465e-01 +5.9452435198783541e-03
-3.2999999999999998e+00 +8.1526906578692397e+00 +0.0000000000000000e+00 -3.3026420943745900e+00 -3.1282251159974871e-02 -5.9308385970900213e-01 +5.9453652277389833e-03
-3.3999999999999999e+00 +8.1526716258013003e+00 +0.0000000000000000e+00 -3.4027221566160502e+00 -3.1282171526624193e-02 -5.9308389165587738e-01 +5.9454868142016773e-03
-3.5000000000000000e+00 +8.1526520256120403e+00 +0.0000000000000000e+00 -3.5028022187478500e+00 -3.1282091450957367e-02 -5.9308392898475382e-01 +5.9456082177530506e-03
-3.6000000000000001e+00 +8.1526318572978198e+00 +0.0000000000000000e+00 -3.6028822807667802e+00 -3.1282010901842489e-02 -5.9308397319781603e-01 +5.9457293768873116e-03
-3.7000000000000002e+00 +8.1526111208659096e+00 +0.0000000000000000e+00 -3.7029623426696099e+00 -3.1281929848148711e-02 -5.9308402579716590e-01 +5.9458502301055396e-03
-3.7999999999999998e+00 +8.1525898163126804e+00 +0.0000000000000000e+00 -3.8030424044531101e+00 -3.1281848258756018e-02 -5.9308408828499681e-01 +5.9459707159179916e-03
-3.8999999999999999e+00 +8.1525679436344909e+00 +0.0000000000000000e+00 -3.9031224661140600e+00 -3.1281766102550609e-02 -5.9308416216350901e-01 +5.9460907728436730e-03
-4.0000000000000000e+00 +8.1525455028386205e+00 +0.0000000000000000e+00 -4.0032025276492398e+00 -3.1281683348419069e-02 -5.9308424893480904e-01 +5.9462103394105001e-03
-4.0999999999999996e+00 +8.1525224939177896e+00 +0.0000000000000000e+00 -4.1032825890554099e+00 -3.1281599927859303e-02 -5.9308434976436353e-01 +5.9463293732681293e-03
-4.2000000000000002e+00 +8.1524989168792708e+00 +0.0000000000000000e+00 -4.2033626503293604e+00 -3.1281515636435518e-02 -5.9308446459363484e-01 +5.9464479015245179e-03
-4.2999999999999998e+00 +8.1524747717157897e+00 +0.0000000000000000e+00 -4.3034427114678504e+00 -3.1281430238838309e-02 -5.9308459308627071e-01 +5.9465659670606252e-03
-4.4000000000000004e+00 +8.1524500584346207e+00 +0.0000000000000000e+00 -4.4035227724676700e+00 -3.1281343499739094e-02 -5.9308473490581859e-01 +5.9466836127536485e-03
-4.5000000000000000e+00 +8.1524247770285001e+00 +0.0000000000000000e+00 -4.5036028333255800e+00 -3.1281255183802099e-02 -5.9308488971596574e-01 +5.9468008814791739e-03
-4.5999999999999996e+00 +8.1523989275046898e+00 +0.0000000000000000e+00 -4.6036828940383696e+00 -3.1281165055670544e-02 -5.9308505718030147e-01 +5.9469178161084494e-03
-4.7000000000000002e+00 +8.1523725098559208e+00 +0.0000000000000000e+00 -4.7037629546028104e+00 -3.1281072879978569e-02 -5.9308523696255688e-01 +5.9470344595105593e-03
-4.7999999999999998e+00 +8.1523455240894709e+00 +0.0000000000000000e+00 -4.8038430150156701e+00 -3.1280978421337487e-02 -5.9308542872636827e-01 +5.9471508545497192e-03
-4.9000000000000004e+00 +8.1523179701980606e+00 +0.0000000000000000e+00 -4.9039230752737302e+00 -3.1280881444347680e-02 -5.9308563213551557e-01 +5.9472670440874177e-03
-5.0000000000000000e+00 +8.1522898481889605e+00 +0.0000000000000000e+00 -5.0040031353737602e+00 -3.1280781713584810e-02 -5.9308584685368648e-01 +5.9473830709797088e-03
-5.0999999999999996e+00 +8.1522611580549000e+00 +0.0000000000000000e+00 -5.1040831953125396e+00 -3.1280678993611880e-02 -5.9308607254471535e-01 +5.9474989780793838e-03
-5.2000000000000002e+00 +8.1522318997995207e+00 +0.0000000000000000e+00 -5.2041632550868497e+00 -3.1280573048966816e-02 -5.9308630887237546e-01 +5.9476148082335482e-03
-5.2999999999999998e+00 +8.1522020734228100e+00 +0.0000000000000000e+00 -5.3042433146934496e+00 -3.1280463644168262e-02 -5.9308655550050082e-01 +5.9477306042845816e-03
-5.4000000000000004e+00 +8.1521716789247893e+00 +0.0000000000000000e+00 -5.4043233741291203e+00 -3.1280350543712809e-02 -5.9308681209295655e-01 +5.9478464090695331e-03
-5.5000000000000000e+00 +8.1521407163090807e+00 +0.0000000000000000e+00 -5.5044034333906504e+00 -3.1280233512072597e-02 -5.9308707831361007e-01 +5.9479622654195607e-03
-5.5999999999999996e+00 +8.1521091855684098e+00 +0.0000000000000000e+00 -5.6044834924747899e+00 -3.1280112313700870e-02 -5.9308735382645250e-01 +5.9480782161608712e-03
-5.7000000000000002e+00 +8.1520770867064094e+00 +0.0000000000000000e+00 -5.7045635513783299e+00 -3.1279986713021228e-02 -5.9308763829542011e-01 +5.9481943041126010e-03
-5.7999999999999998e+00 +8.1520444197231008e+00 +0.0000000000000000e+00 -5.8046436100980499e+00 -3.1279856474433314e-02 -5.9308793138451532e-01 +5.9483105720877765e-03
-5.9000000000000004e+00 +8.1520111846184609e+00 +0.0000000000000000e+00 -5.9047236686307096e+00 -3.1279721362310199e-02 -5.9308823275777844e-01 +5.9484270628927258e-03
-5.9999999999999902e+00 +8.1519773813925003e+00 +0.0000000000000000e+00 -6.0048037269731003e+00 -3.1279581141019377e-02 -5.9308854207928652e-01 +5.9485438193278995e-03
-6.0999999999999899e+00 +8.1519430100452208e+00 +0.0000000000000000e+00 -6.1048837851219799e+00 -3.1279435802041372e-02 -5.9308885899630115e-01 +5.9486608956589226e-03
-6.1999999999999904e+00 +8.1519080705766100e+00 +0.0000000000000000e+00 -6.2049638430741396e+00 -3.1279286123841232e-02 -5.9308918309770942e-01 +5.9487783858973185e-03
-6.2999999999999901e+00 +8.1518725629866804e+00 +0.0000000000000000e+00 -6.3050439008263499e+00 -3.1279133055226199e-02 -5.9308951395975840e-01 +5.9488963926601348e-03
-6.3999999999999897e+00 +8.1518364872754301e+00 +0.0000000000000000e+00 -6.4051239583753699e+00 -3.1278977545018766e-02 -5.9308985115869217e-01 +5.9490150185678480e-03
-6.4999999999999902e+00 +8.1517998434428591e+00 +0.0000000000000000e+00 -6.5052040157180002e+00 -3.1278820542057585e-02 -5.9309019427074983e-01 +5.9491343662445096e-03
-6.5999999999999899e+00 +8.1517626314889604e+00 +0.0000000000000000e+00 -6.6052840728510001e+00 -3.1278662995198242e-02 -5.9309054287216501e-01 +5.9492545383179347e-03
-6.6999999999999904e+00 +8.1517248514137499e+00 +0.0000000000000000e+00 -6.7053641297711399e+00 -3.1278505853314140e-02 -5.9309089653916691e-01 +5.9493756374198415e-03
-6.7999999999999901e+00 +8.1516865032135701e+00 +0.0000000000000000e+00 -6.8054441864752100e+00 -3.1278350065298992e-02 -5.9309125484800718e-01 +5.9494977661863424e-03
-6.8999999999999897e+00 +8.1516475868957095e+00 +0.0000000000000000e+00 -6.9055242429599701e+00 -3.1278196580061139e-02 -5.9309161737484228e-01 +5.9496210272568812e-03
-6.9999999999999902e+00 +8.1516081024565192e+00 +0.0000000000000000e+00 -7.0056042992222096e+00 -3.1278046346534159e-02 -5.9309198369591010e-01 +5.9497455232762281e-03
-7.0999999999999899e+00 +8.1515680498960101e+00 +0.0000000000000000e+00 -7.1056843552586999e+00 -3.1277900313671184e-02 -5.9309235338741118e-01 +5.9498713568934295e-03
-7.1999999999999904e+00 +8.1515274292141804e+00 +0.0000000000000000e+00 -7.2057644110662000e+00 -3.1277759430447451e-02 -5.9309272602553709e-01 +5.9499986307622659e-03
-7.2999999999999901e+00 +8.1514862404073902e+00 +0.0000000000000000e+00 -7.3058444666415099e+00 -3.1277624645862645e-02 -5.9309310118650016e-01 +5.9501274475417462e-03
-7.3999999999999897e+00 +8.1514444834829192e+00 +0.0000000000000000e+00 -7.4059245219813796e+00 -3.1277496908935346e-02 -5.9309347844641436e-01 +5.9502579098950304e-03
-7.4999999999999902e+00 +8.1514021584334806e+00 +0.0000000000000000e+00 -7.5060045770826100e+00 -3.1277377168715238e-02 -5.9309385738150133e-01 +5.9503901204917449e-03
-7.5999999999999899e+00 +8.1513592652663593e+00 +0.0000000000000000e+00 -7.6060846319419504e+00 -3.1277266374270883e-02 -5.9309423756785384e-01 +5.9505241820056939e-03
-7.6999999999999904e+00 +8.1513158039779192e+00 +0.0000000000000000e+00 -7.7061646865561997e+00 -3.1277165474701989e-02 -5.9309461858164170e-01 +5.9506601971171785e-03
-7.7999999999999901e+00 +8.1512717745681602e+00 +0.0000000000000000e+00 -7.8062447409221098e+00 -3.1277075419133750e-02 -5.9309499999899329e-01 +5.9507982685119230e-03
-7.8999999999999897e+00 +8.1512271770334301e+00 +0.0000000000000000e+00 -7.9063247950364799e+00 -3.1276997156720832e-02 -5.9309538139605356e-01 +5.9509384988818571e-03
-7.9999999999999902e+00 +8.1511820113773901e+00 +0.0000000000000000e+00 -8.0064048488960609e+00 -3.1276931636552548e-02 -5.9309576234894446e-01 +5.9510809909083667e-03
-8.0999999999999908e+00 +8.1511362776036496e+00 +0.0000000000000000e+00 -8.1064849024976393e+00 -3.1276879390050305e-02 -5.9309614266030053e-01 +5.9512257737570151e-03
-8.1999999999999904e+00 +8.1510899757086008e+00 +0.0000000000000000e+00 -8.2065649558379903e+00 -3.1276839568634647e-02 -5.9309652288121106e-01 +5.9513726336871426e-03
-8.2999999999999901e+00 +8.1510431056885899e+00 +0.0000000000000000e+00 -8.3066450089139003e+00 -3.1276811039132484e-02 -5.9309690371707757e-01 +5.9515213068577931e-03
-8.3999999999999897e+00 +8.1509956675508892e+00 +0.0000000000000000e+00 -8.4067250617221205e+00 -3.1276792668381390e-02 -5.9309728587317312e-01 +5.9516715294221758e-03
-8.4999999999999893e+00 +8.1509476612882299e+00 +0.0000000000000000e+00 -8.5068051142594392e+00 -3.1276783323241221e-02 -5.9309767005484770e-01 +5.9518230375296124e-03
-8.5999999999999908e+00 +8.1508990869078808e+00 +0.0000000000000000e+00 -8.6068851665226305e+00 -3.1276781870581645e-02 -5.9309805696729012e-01 +5.9519755673229317e-03
-8.6999999999999904e+00 +8.1508499444025801e+00 +0.0000000000000000e+00 -8.7069652185084596e+00 -3.1276787177295366e-02 -5.9309844731576422e-01 +5.9521288549407242e-03
-8.7999999999999794e+00 +8.1508002337759500e+00 +0.0000000000000000e+00 -8.8070452702137203e+00 -3.1276798110287274e-02 -5.9309884180539874e-01 +5.9522826365150374e-03
-8.8999999999999808e+00 +8.1507499550316407e+00 +0.0000000000000000e+00 -8.9071253216351796e+00 -3.1276813536479611e-02 -5.9309924114127666e-01 +5.9524366481721143e-03
-8.9999999999999805e+00 +8.1506991081623692e+00 +0.0000000000000000e+00 -9.0072053727696098e+00 -3.1276832322817277e-02 -5.9309964602852139e-01 +5.9525906260331322e-03
-9.0999999999999801e+00 +8.1506476931717806e+00 +0.0000000000000000e+00 -9.1072854236137797e+00 -3.1276853336258389e-02 -5.9310005717211900e-01 +5.9527443062121948e-03
-9.1999999999999797e+00 +8.1505957100635005e+00 +0.0000000000000000e+00 -9.2073654741644795e+00 -3.1276875443779689e-02 -5.9310047527700427e-01 +5.9528974248170751e-03
-9.2999999999999794e+00 +8.1505431588302599e+00 +0.0000000000000000e+00 -9.3074455244184708e+00 -3.1276897512381621e-02 -5.9310090104814905e-01 +5.9530497179499471e-03
-9.3999999999999808e+00 +8.1504900394757005e+00 +0.0000000000000000e+00 -9.4075255743725297e+00 -3.1276918409079098e-02 -5.9310133519038311e-01 +5.9532009217053896e-03
-9.4999999999999805e+00 +8.1504363520034495e+00 +0.0000000000000000e+00 -9.5076056240234408e+00 -3.1276937000906772e-02 -5.9310177840848266e-01 +5.9533507721711227e-03
-9.5999999999999801e+00 +8.1503820964062506e+00 +0.0000000000000000e+00 -9.6076856733679694e+00 -3.1276952154924216e-02 -5.9310223140725626e-01 +5.9534990054287383e-03
-9.6999999999999797e+00 +8.1503272726913600e+00 +0.0000000000000000e+00 -9.7077657224029004e+00 -3.1276962738204996e-02 -5.9310269489133660e-01 +5.9536453575514047e-03
-9.7999999999999794e+00 +8.1502718808515109e+00 +0.0000000000000000e+00 -9.8078457711250007e+00 -3.1276967617850045e-02 -5.9310316956541687e-01 +5.9537895646061233e-03
-9.8999999999999808e+00 +8.1502159208903304e+00 +0.0000000000000000e+00 -9.9079258195310498e+00 -3.1276965660976729e-02 -5.9310365613404192e-01 +5.9539313626514124e-03
-9.9999999999999805e+00 +8.1501593928078400e+00 +0.0000000000000000e+00 -1.0008005867617801e+01 -3.1276955734928981e-02 -5.9310415530159322e-01 +5.9540704877709145e-03
-1.0100000000000000e+01 +8.1501022966040200e+00 +0.0000000000000000e+00 -1.0108085915382100e+01 -3.1276937206588772e-02 -5.9310466745038271e-01 +5.9542067560103447e-03
-1.0199999999999999e+01 +8.1500446322825209e+00 +0.0000000000000000e+00 -1.0208165962820599e+01 -3.1276911016922988e-02 -5.9310519194792488e-01 +5.9543402354167527e-03
-1.0300000000000001e+01 +8.1499863998360507e+00 +0.0000000000000000e+00 -1.0308246009930199e+01 -3.1276878416139346e-02 -5.9310572796243921e-01 +5.9544710435585164e-03
-1.0400000000000000e+01 +8.1499275992682705e+00 +0.0000000000000000e+00 -1.0408326056707599e+01 -3.1276840654382736e-02 -5.9310627466205479e-01 +5.9545992980092281e-03
-1.0500000000000000e+01 +8.1498682305791608e+00 +0.0000000000000000e+00 -1.0508406103149600e+01 -3.1276798981740246e-02 -5.9310683121492946e-01 +5.9547251163490919e-03
-1.0600000000000000e+01 +8.1498082937723701e+00 +0.0000000000000000e+00 -1.0608486149253000e+01 -3.1276754648236219e-02 -5.9310739678919111e-01 +5.9548486161644827e-03
-1.0699999999999999e+01 +8.1497477888406102e+00 +0.0000000000000000e+00 -1.0708566195014500e+01 -3.1276708903837221e-02 -5.9310797055305520e-01 +5.9549699150493289e-03
-1.0800000000000001e+01 +8.1496867157875403e+00 +0.0000000000000000e+00 -1.0808646240430900e+01 -3.1276662998440743e-02 -5.9310855167464893e-01 +5.9550891306034588e-03
-1.0900000000000000e+01 +8.1496250746131391e+00 +0.0000000000000000e+00 -1.0908726285499000e+01 -3.1276618181880170e-02 -5.9310913932212928e-01 +5.9552063804339936e-03
-1.1000000000000000e+01 +8.1495628653174208e+00 +0.0000000000000000e+00 -1.1008806330215601e+01 -3.1276575703921471e-02 -5.9310973266365308e-01 +5.9553217821551978e-03
-1.1100000000000000e+01 +8.1495000879040198e+00 +0.0000000000000000e+00 -1.1108886374577500e+01 -3.1276536814260084e-02 -5.9311033086734821e-01 +5.9554354533883618e-03
-1.1199999999999999e+01 +8.1494367423620098e+00 +0.0000000000000000e+00 -1.1208966418581401e+01 -3.1276502762527365e-02 -5.9311093310146212e-01 +5.9555475117634782e-03
-1.1300000000000001e+01 +8.1493728287059604e+00 +0.0000000000000000e+00 -1.1309046462224000e+01 -3.1276474798271350e-02 -5.9311153853403598e-01 +5.9556580749160707e-03
-1.1400000000000000e+01 +8.1493083469249505e+00 +0.0000000000000000e+00 -1.1409126505502300e+01 -3.1276454170977658e-02 -5.9311214633331943e-01 +5.9557672604916281e-03
-1.1500000000000000e+01 +8.1492432970226201e+00 +0.0000000000000000e+00 -1.1509206548412800e+01 -3.1276442130050229e-02 -5.9311275566744526e-01 +5.9558751861424107e-03
-1.1600000000000000e+01 +8.1491776789989707e+00 +0.0000000000000000e+00 -1.1609286590952600e+01 -3.1276439924817788e-02 -5.9311336570457729e-01 +5.9559819695291600e-03
-1.1699999999999999e+01 +8.1491114928576298e+00 +0.0000000000000000e+00 -1.1709366633118099e+01 -3.1276448804529032e-02 -5.9311397561285317e-01 +5.9560877283206456e-03
