# field on trajectory
# s[mm] rx[mm] ry[mm] rz[mm] bx[T] by[T] bz[T]
0.0000000000000000e+00 +8.1649999999999991e+00 +0.0000000000000000e+00 +0.0000000000000000e+00 -2.9936684479651022e-02 -5.6486874381362995e-01 +5.5728327468943829e-03
1.0000000000000001e-01 +8.1649997168295148e+00 +0.0000000000000000e+00 +9.9999999999465433e-02 -2.9936780922993969e-02 -5.6486860876676726e-01 +5.5729091084518300e-03
2.0000000000000001e-01 +8.1649988673181557e+00 +0.0000000000000000e+00 +1.9999999999572343e-01 -2.9936879850824511e-02 -5.6486846863033269e-01 +5.5729837970119010e-03
3.0000000000000004e-01 +8.1649974514660606e+00 +0.0000000000000000e+00 +2.9999999998556659e-01 -2.9936981458997734e-02 -5.6486832421596023e-01 +5.5730570457472751e-03
4.0000000000000002e-01 +8.1649954692733733e+00 +0.0000000000000000e+00 +3.9999999996578750e-01 -2.9937085943369669e-02 -5.6486817633528041e-01 +5.5731290878314700e-03
5.0000000000000000e-01 +8.1649929207402447e+00 +0.0000000000000000e+00 +4.9999999993317878e-01 -2.9937193499797343e-02 -5.6486802579992090e-01 +5.5732001564387373e-03
5.9999999999999998e-01 +8.1649898058668242e+00 +0.0000000000000000e+00 +5.9999999988453301e-01 -2.9937304324138932e-02 -5.6486787342150813e-01 +5.5732704847439489e-03
6.9999999999999996e-01 +8.1649861246532645e+00 +0.0000000000000000e+00 +6.9999999981664274e-01 -2.9937418612253811e-02 -5.6486772001166641e-01 +5.5733403059224969e-03
7.9999999999999993e-01 +8.1649818770997200e+00 +0.0000000000000000e+00 +7.9999999972630054e-01 -2.9937536560002743e-02 -5.6486756638202018e-01 +5.5734098531501986e-03
8.9999999999999991e-01 +8.1649770632063436e+00 +0.0000000000000000e+00 +8.9999999961029908e-01 -2.9937658363247903e-02 -5.6486741334419321e-01 +5.5734793596031755e-03
9.9999999999999989e-01 +8.1649716829732899e+00 +0.0000000000000000e+00 +9.9999999946543094e-01 -2.9937784217853029e-02 -5.6486726170981050e-01 +5.5735490584577514e-03
1.0999999999999999e+00 +8.1649657364007115e+00 +0.0000000000000000e+00 +1.0999999992884886e+00 -2.9937914319683560e-02 -5.6486711229049924e-01 +5.5736191828903488e-03
1.2000000000000000e+00 +8.1649592234887578e+00 +0.0000000000000000e+00 +1.1999999990762649e+00 -2.9938048864606649e-02 -5.6486696589788676e-01 +5.5736899660773940e-03
1.3000000000000000e+00 +8.1649521442375743e+00 +0.0000000000000000e+00 +1.2999999988255522e+00 -2.9938188048491368e-02 -5.6486682334360483e-01 +5.5737616411951872e-03
1.4000000000000001e+00 +8.1649444986473068e+00 +0.0000000000000000e+00 +1.3999999985331433e+00 -2.9938332067208747e-02 -5.6486668543928731e-01 +5.5738344414198206e-03
1.5000000000000002e+00 +8.1649362867180919e+00 +0.0000000000000000e+00 +1.4999999981958307e+00 -2.9938481116631967e-02 -5.6486655299657407e-01 +5.5739085999270705e-03
1.6000000000000003e+00 +8.1649275084500630e+00 +0.0000000000000000e+00 +1.5999999978104071e+00 -2.9938635392636328e-02 -5.6486642682710742e-01 +5.5739843498922694e-03
1.7000000000000004e+00 +8.1649181638433461e+00 +0.0000000000000000e+00 +1.6999999973736650e+00 -2.9938795091099504e-02 -5.6486630774253710e-01 +5.5740619244902317e-03
1.8000000000000005e+00 +8.1649082528980621e+00 +0.0000000000000000e+00 +1.7999999968823972e+00 -2.9938960407901560e-02 -5.6486619655451764e-01 +5.5741415568951258e-03
1.9000000000000006e+00 +8.1648977756143211e+00 +0.0000000000000000e+00 +1.8999999963333962e+00 -2.9939131538925082e-02 -5.6486609407471078e-01 +5.5742234802803811e-03
2.0000000000000004e+00 +8.1648867319922278e+00 +0.0000000000000000e+00 +1.9999999957234547e+00 -2.9939308680055305e-02 -5.6486600111478646e-01 +5.5743079278185786e-03
2.1000000000000005e+00 +8.1648751220318747e+00 +0.0000000000000000e+00 +2.0999999950493651e+00 -2.9939491882281542e-02 -5.6486591827234756e-01 +5.5743950885558096e-03
2.2000000000000006e+00 +8.1648629457333453e+00 +0.0000000000000000e+00 +2.1999999943079200e+00 -2.9939680617001228e-02 -5.6486584528871331e-01 +5.5744849750356531e-03
2.3000000000000007e+00 +8.1648502030967141e+00 +0.0000000000000000e+00 +2.2999999934959123e+00 -2.9939874210715860e-02 -5.6486578169113677e-01 +5.5745775556768785e-03
2.4000000000000008e+00 +8.1648368941220451e+00 +0.0000000000000000e+00 +2.3999999926101347e+00 -2.9940071989929613e-02 -5.6486572700687876e-01 +5.5746727988992576e-03
2.5000000000000009e+00 +8.1648230188093933e+00 +0.0000000000000000e+00 +2.4999999916473796e+00 -2.9940273281149513e-02 -5.6486568076320964e-01 +5.5747706731236911e-03
2.6000000000000010e+00 +8.1648085771588050e+00 +0.0000000000000000e+00 +2.5999999906044398e+00 -2.9940477410885496e-02 -5.6486564248740845e-01 +5.5748711467723325e-03
2.7000000000000011e+00 +8.1647935691703193e+00 +0.0000000000000000e+00 +2.6999999894781075e+00 -2.9940683705650433e-02 -5.6486561170676353e-01 +5.5749741882687017e-03
2.8000000000000012e+00 +8.1647779948439680e+00 +0.0000000000000000e+00 +2.7999999882651756e+00 -2.9940891491960279e-02 -5.6486558794857422e-01 +5.5750797660378089e-03
2.9000000000000012e+00 +8.1647618541797762e+00 +0.0000000000000000e+00 +2.8999999869624369e+00 -2.9941100096334085e-02 -5.6486557074014976e-01 +5.5751878485062892e-03
3.0000000000000013e+00 +8.1647451471777597e+00 +0.0000000000000000e+00 +2.9999999855666837e+00 -2.9941308845294098e-02 -5.6486555960881013e-01 +5.5752984041025052e-03
3.1000000000000014e+00 +8.1647278738379327e+00 +0.0000000000000000e+00 +3.0999999840747088e+00 -2.9941517065365870e-02 -5.6486555408188799e-01 +5.5754114012566882e-03
3.2000000000000015e+00 +8.1647100341602989e+00 +0.0000000000000000e+00 +3.1999999824833045e+00 -2.9941724083078280e-02 -5.6486555368672620e-01 +5.5755268084010439e-03
3.3000000000000016e+00 +8.1646916281448618e+00 +0.0000000000000000e+00 +3.2999999807892637e+00 -2.9941929224963658e-02 -5.6486555795068194e-01 +5.5756445939698857e-03
3.4000000000000017e+00 +8.1646726557916161e+00 +0.0000000000000000e+00 +3.3999999789893791e+00 -2.9942131817557803e-02 -5.6486556640112429e-01 +5.5757647263997533e-03
3.5000000000000018e+00 +8.1646531171005527e+00 +0.0000000000000000e+00 +3.4999999770804431e+00 -2.9942331187400136e-02 -5.6486557856543584e-01 +5.5758871741295327e-03
3.6000000000000019e+00 +8.1646330120716630e+00 +0.0000000000000000e+00 +3.5999999750592484e+00 -2.9942526661033697e-02 -5.6486559397101277e-01 +5.5760119056005785e-03
3.7000000000000020e+00 +8.1646123407049309e+00 +0.0000000000000000e+00 +3.6999999729225879e+00 -2.9942717565005300e-02 -5.6486561214526676e-01 +5.5761388892568483e-03
3.8000000000000020e+00 +8.1645911030003386e+00 +0.0000000000000000e+00 +3.7999999706672538e+00 -2.9942903225865531e-02 -5.6486563261562250e-01 +5.5762680935450039e-03
3.9000000000000021e+00 +8.1645692989578666e+00 +0.0000000000000000e+00 +3.8999999682900386e+00 -2.9943082970168917e-02 -5.6486565490952168e-01 +5.5763994869145470e-03
4.0000000000000018e+00 +8.1645469285774936e+00 +0.0000000000000000e+00 +3.9999999657877354e+00 -2.9943256124473915e-02 -5.6486567855442049e-01 +5.5765330378179422e-03
4.1000000000000014e+00 +8.1645239918591948e+00 +0.0000000000000000e+00 +4.0999999631571367e+00 -2.9943422254672097e-02 -5.6486570322095797e-01 +5.5766687122295218e-03
4.2000000000000011e+00 +8.1645004888029487e+00 +0.0000000000000000e+00 +4.1999999603950346e+00 -2.9943581883972840e-02 -5.6486572915244548e-01 +5.5768064661997291e-03
4.3000000000000007e+00 +8.1644764194087287e+00 +0.0000000000000000e+00 +4.2999999574982226e+00 -2.9943735774909188e-02 -5.6486575673534933e-01 +5.5769462532947889e-03
4.4000000000000004e+00 +8.1644517836765083e+00 +0.0000000000000000e+00 +4.3999999544634925e+00 -2.9943884690006889e-02 -5.6486578635612406e-01 +5.5770880270770906e-03
4.5000000000000000e+00 +8.1644265816062589e+00 +0.0000000000000000e+00 +4.4999999512876370e+00 -2.9944029391783759e-02 -5.6486581840120786e-01 +5.5772317411049224e-03
4.5999999999999996e+00 +8.1644008131979486e+00 +0.0000000000000000e+00 +4.5999999479674489e+00 -2.9944170642749169e-02 -5.6486585325702277e-01 +5.5773773489321702e-03
4.6999999999999993e+00 +8.1643744784515420e+00 +0.0000000000000000e+00 +4.6999999444997211e+00 -2.9944309205403481e-02 -5.6486589130997311e-01 +5.5775248041080600e-03
4.7999999999999989e+00 +8.1643475773670033e+00 +0.0000000000000000e+00 +4.7999999408812455e+00 -2.9944445842237464e-02 -5.6486593294644560e-01 +5.5776740601768465e-03
4.8999999999999986e+00 +8.1643201099442919e+00 +0.0000000000000000e+00 +4.8999999371088148e+00 -2.9944581315731682e-02 -5.6486597855280574e-01 +5.5778250706775600e-03
4.9999999999999982e+00 +8.1642920761833615e+00 +0.0000000000000000e+00 +4.9999999331792226e+00 -2.9944716388355989e-02 -5.6486602851539802e-01 +5.5779777891436996e-03
5.0999999999999979e+00 +8.1642634760841641e+00 +0.0000000000000000e+00 +5.0999999290892601e+00 -2.9944851822568921e-02 -5.6486608322054455e-01 +5.5781321691029690e-03
5.1999999999999975e+00 +8.1642343096466465e+00 +0.0000000000000000e+00 +5.1999999248357209e+00 -2.9944988380817127e-02 -5.6486614305454341e-01 +5.5782881640769810e-03
5.2999999999999972e+00 +8.1642045768707483e+00 +0.0000000000000000e+00 +5.2999999204153978e+00 -2.9945126825534817e-02 -5.6486620840366775e-01 +5.5784457275809864e-03
5.3999999999999968e+00 +8.1641742777564037e+00 +0.0000000000000000e+00 +5.3999999158250827e+00 -2.9945267919143159e-02 -5.6486627965416403e-01 +5.5786048131235824e-03
5.4999999999999964e+00 +8.1641434123035452e+00 +0.0000000000000000e+00 +5.4999999110615683e+00 -2.9945412424049724e-02 -5.6486635719225164e-01 +5.5787653742064378e-03
5.5999999999999961e+00 +8.1641119805120930e+00 +0.0000000000000000e+00 +5.5999999061216466e+00 -2.9945561102647907e-02 -5.6486644140412035e-01 +5.5789273643240024e-03
5.6999999999999957e+00 +8.1640799823819652e+00 +0.0000000000000000e+00 +5.6999999010021112e+00 -2.9945714717316371e-02 -5.6486653267593001e-01 +5.5790907369632301e-03
5.7999999999999954e+00 +8.1640474179130713e+00 +0.0000000000000000e+00 +5.7999998956997540e+00 -2.9945874030418457e-02 -5.6486663139380966e-01 +5.5792554456033016e-03
5.8999999999999950e+00 +8.1640142871053136e+00 +0.0000000000000000e+00 +5.8999998902113679e+00 -2.9946039804301577e-02 -5.6486673794385467e-01 +5.5794214437153294e-03
5.9999999999999947e+00 +8.1639805899585856e+00 +0.0000000000000000e+00 +5.9999998845337457e+00 -2.9946212801296716e-02 -5.6486685271212711e-01 +5.5795886847620811e-03
6.0999999999999943e+00 +8.1639463264727734e+00 +0.0000000000000000e+00 +6.0999998786636800e+00 -2.9946393548046943e-02 -5.6486697605870428e-01 +5.5797571377839720e-03
6.1999999999999940e+00 +8.1639114966477546e+00 +0.0000000000000000e+00 +6.1999998725979628e+00 -2.9946581628501164e-02 -5.6486710823984343e-01 +5.5799268341631091e-03
6.2999999999999936e+00 +8.1638761004833977e+00 +0.0000000000000000e+00 +6.2999998663333869e+00 -2.9946776390945638e-02 -5.6486724948584521e-01 +5.5800978208736685e-03
6.3999999999999932e+00 +8.1638401379795624e+00 +0.0000000000000000e+00 +6.3999998598667442e+00 -2.9946977183679585e-02 -5.6486740002700775e-01 +5.5802701448971828e-03
6.4999999999999929e+00 +8.1638036091360995e+00 +0.0000000000000000e+00 +6.4999998531948284e+00 -2.9947183355015818e-02 -5.6486756009362538e-01 +5.5804438532228934e-03
6.5999999999999925e+00 +8.1637665139528490e+00 +0.0000000000000000e+00 +6.5999998463144314e+00 -2.9947394253281374e-02 -5.6486772991598910e-01 +5.5806189928481308e-03
6.6999999999999922e+00 +8.1637288524296405e+00 +0.0000000000000000e+00 +6.6999998392223459e+00 -2.9947609226818227e-02 -5.6486790972438683e-01 +5.5807956107786641e-03
6.7999999999999918e+00 +8.1636906245662963e+00 +0.0000000000000000e+00 +6.7999998319153647e+00 -2.9947827623983875e-02 -5.6486809974910346e-01 +5.5809737540290713e-03
6.8999999999999915e+00 +8.1636518303626282e+00 +0.0000000000000000e+00 +6.8999998243902798e+00 -2.9948048793152032e-02 -5.6486830022042100e-01 +5.5811534696231105e-03
6.9999999999999911e+00 +8.1636124698184336e+00 +0.0000000000000000e+00 +6.9999998166438839e+00 -2.9948272082713279e-02 -5.6486851136861838e-01 +5.5813348045940670e-03
7.0999999999999908e+00 +8.1635725429335046e+00 +0.0000000000000000e+00 +7.0999998086729690e+00 -2.9948496841075690e-02 -5.6486873342397170e-01 +5.5815178059851339e-03
7.1999999999999904e+00 +8.1635320497076194e+00 +0.0000000000000000e+00 +7.1999998004743286e+00 -2.9948722416665567e-02 -5.6486896661675445e-01 +5.5817025208497678e-03
7.2999999999999901e+00 +8.1634909901405432e+00 +0.0000000000000000e+00 +7.2999997920447548e+00 -2.9948948157928000e-02 -5.6486921117723798e-01 +5.5818889962520558e-03
7.3999999999999897e+00 +8.1634493642320347e+00 +0.0000000000000000e+00 +7.3999997833810394e+00 -2.9949173413327566e-02 -5.6486946733569043e-01 +5.5820772792670751e-03
7.4999999999999893e+00 +8.1634071719818380e+00 +0.0000000000000000e+00 +7.4999997744799751e+00 -2.9949397531349006e-02 -5.6486973532237761e-01 +5.5822674169812630e-03
7.5999999999999890e+00 +8.1633644133896848e+00 +0.0000000000000000e+00 +7.5999997653383549e+00 -2.9949619860497864e-02 -5.6487001536756409e-01 +5.5824594564927790e-03
7.6999999999999886e+00 +8.1633210884552962e+00 +0.0000000000000000e+00 +7.6999997559529714e+00 -2.9949839749301130e-02 -5.6487030770151070e-01 +5.5826534449118625e-03
7.7999999999999883e+00 +8.1632771971783811e+00 +0.0000000000000000e+00 +7.7999997463206165e+00 -2.9950056546307925e-02 -5.6487061255447768e-01 +5.5828494293612028e-03
7.8999999999999879e+00 +8.1632327395586337e+00 +0.0000000000000000e+00 +7.8999997364380823e+00 -2.9950269600090153e-02 -5.6487093015672196e-01 +5.5830474569763039e-03
7.9999999999999876e+00 +8.1631877155957380e+00 +0.0000000000000000e+00 +7.9999997263021623e+00 -2.9950478259243150e-02 -5.6487126073849936e-01 +5.5832475749058395e-03
8.0999999999999872e+00 +8.1631421252893634e+00 +0.0000000000000000e+00 +8.0999997159096484e+00 -2.9950682019817744e-02 -5.6487160429752759e-01 +5.5834498000706927e-03
8.1999999999999869e+00 +8.1630959686391673e+00 +0.0000000000000000e+00 +8.1999997052573317e+00 -2.9950880967602494e-02 -5.6487195990138017e-01 +5.5836540284333411e-03
8.2999999999999865e+00 +8.1630492456447943e+00 +0.0000000000000000e+00 +8.2999996943420058e+00 -2.9951075335796686e-02 -5.6487232638511498e-01 +5.5838601257120965e-03
8.3999999999999861e+00 +8.1630019563058802e+00 +0.0000000000000000e+00 +8.3999996831604644e+00 -2.9951265357571297e-02 -5.6487270258381850e-01 +5.5840679576212677e-03
8.4999999999999858e+00 +8.1629541006220485e+00 +0.0000000000000000e+00 +8.4999996717094977e+00 -2.9951451266068053e-02 -5.6487308733260533e-01 +5.5842773898709961e-03
8.5999999999999854e+00 +8.1629056785929137e+00 +0.0000000000000000e+00 +8.5999996599858992e+00 -2.9951633294398504e-02 -5.6487347946662070e-01 +5.5844882881670721e-03
8.6999999999999851e+00 +8.1628566902180868e+00 +0.0000000000000000e+00 +8.6999996479864610e+00 -2.9951811675643016e-02 -5.6487387782104026e-01 +5.5847005182107518e-03
8.7999999999999847e+00 +8.1628071354971681e+00 +0.0000000000000000e+00 +8.7999996357079748e+00 -2.9951986642849850e-02 -5.6487428123107120e-01 +5.5849139456985650e-03
8.8999999999999844e+00 +8.1627570144297561e+00 +0.0000000000000000e+00 +8.8999996231472327e+00 -2.9952158429034245e-02 -5.6487468853195444e-01 +5.5851284363221537e-03
8.9999999999999840e+00 +8.1627063270154423e+00 +0.0000000000000000e+00 +8.9999996103010282e+00 -2.9952327267177416e-02 -5.6487509855896312e-01 +5.5853438557680688e-03
9.0999999999999837e+00 +8.1626550732538199e+00 +0.0000000000000000e+00 +9.0999995971661534e+00 -2.9952493390225602e-02 -5.6487551014740645e-01 +5.5855600697176074e-03
9.1999999999999833e+00 +8.1626032531444768e+00 +0.0000000000000000e+00 +9.1999995837394000e+00 -2.9952657031089163e-02 -5.6487592213262838e-01 +5.5857769438466143e-03
9.2999999999999829e+00 +8.1625508666870008e+00 +0.0000000000000000e+00 +9.2999995700175599e+00 -2.9952818422641532e-02 -5.6487633335000975e-01 +5.5859943438253158e-03
9.3999999999999826e+00 +8.1624979138809817e+00 +0.0000000000000000e+00 +9.3999995559974270e+00 -2.9952977797718397e-02 -5.6487674263496923e-01 +5.5862121353181258e-03
9.4999999999999822e+00 +8.1624443947260126e+00 +0.0000000000000000e+00 +9.4999995416757930e+00 -2.9953135389116613e-02 -5.6487714882296325e-01 +5.5864301839834794e-03
9.5999999999999819e+00 +8.1623903092216867e+00 +0.0000000000000000e+00 +9.5999995270494498e+00 -2.9953291429593326e-02 -5.6487755074948798e-01 +5.5866483554736319e-03
9.6999999999999815e+00 +8.1623356573676027e+00 +0.0000000000000000e+00 +9.6999995121151894e+00 -2.9953446151864991e-02 -5.6487794725008045e-01 +5.5868665154344974e-03
9.7999999999999812e+00 +8.1622804391633643e+00 +0.0000000000000000e+00 +9.7999994968698037e+00 -2.9953599788606431e-02 -5.6487833716031854e-01 +5.5870845295054551e-03
9.8999999999999808e+00 +8.1622246546085844e+00 +0.0000000000000000e+00 +9.8999994813100862e+00 -2.9953752572449862e-02 -5.6487871931582223e-01 +5.5873022633191761e-03
9.9999999999999805e+00 +8.1621683037028809e+00 +0.0000000000000000e+00 +9.9999994654328290e+00 -2.9953904735983961e-02 -5.6487909255225599e-01 +5.5875195825014386e-03
1.0099999999999980e+01 +8.1621113864458810e+00 +0.0000000000000000e+00 +1.0099999449234824e+01 -2.9954056439253175e-02 -5.6487945598392342e-01 +5.5877363818488176e-03
1.0199999999999980e+01 +8.1620539028372221e+00 +0.0000000000000000e+00 +1.0199999432712863e+01 -2.9954207552283906e-02 -5.6487980983954433e-01 +5.5879526728634752e-03
1.0299999999999979e+01 +8.1619958528765526e+00 +0.0000000000000000e+00 +1.0299999415863738e+01 -2.9954357872640034e-02 -5.6488015462639241e-01 +5.5881684962175004e-03
1.0399999999999979e+01 +8.1619372365635261e+00 +0.0000000000000000e+00 +1.0399999398684242e+01 -2.9954507197933956e-02 -5.6488049085168146e-01 +5.5883838925737646e-03
1.0499999999999979e+01 +8.1618780538978086e+00 +0.0000000000000000e+00 +1.0499999381171168e+01 -2.9954655325827806e-02 -5.6488081902256171e-01 +5.5885989025856895e-03
1.0599999999999978e+01 +8.1618183048790733e+00 +0.0000000000000000e+00 +1.0599999363321308e+01 -2.9954802054034880e-02 -5.6488113964611952e-01 +5.5888135668970343e-03
1.0699999999999978e+01 +8.1617579895070005e+00 +0.0000000000000000e+00 +1.0699999345131452e+01 -2.9954947180320976e-02 -5.6488145322937555e-01 +5.5890279261416641e-03
1.0799999999999978e+01 +8.1616971077812774e+00 +0.0000000000000000e+00 +1.0799999326598394e+01 -2.9955090502505641e-02 -5.6488176027928272e-01 +5.5892420209433507e-03
1.0899999999999977e+01 +8.1616356597015987e+00 +0.0000000000000000e+00 +1.0899999307718927e+01 -2.9955231818463643e-02 -5.6488206130272578e-01 +5.5894558919155251e-03
1.0999999999999977e+01 +8.1615736452676639e+00 +0.0000000000000000e+00 +1.0999999288489841e+01 -2.9955370926126164e-02 -5.6488235680651844e-01 +5.5896695796610694e-03
1.1099999999999977e+01 +8.1615110644791802e+00 +0.0000000000000000e+00 +1.1099999268907929e+01 -2.9955507623482275e-02 -5.6488264729740190e-01 +5.5898831247720958e-03
1.1199999999999976e+01 +8.1614479173358561e+00 +0.0000000000000000e+00 +1.1199999248969984e+01 -2.9955641708580137e-02 -5.6488293328204420e-01 +5.5900965678297191e-03
1.1299999999999976e+01 +8.1613842038374074e+00 +0.0000000000000000e+00 +1.1299999228672799e+01 -2.9955772979528471e-02 -5.6488321526703833e-01 +5.5903099494038436e-03
1.1399999999999975e+01 +8.1613199239835552e+00 +0.0000000000000000e+00 +1.1399999208013165e+01 -2.9955901234497793e-02 -5.6488349375889935e-01 +5.5905233100529295e-03
1.1499999999999975e+01 +8.1612550777740207e+00 +0.0000000000000000e+00 +1.1499999186987875e+01 -2.9956026271721819e-02 -5.6488376926406458e-01 +5.5907366903237892e-03
1.1599999999999975e+01 +8.1611896652085285e+00 +0.0000000000000000e+00 +1.1599999165593720e+01 -2.9956147889498758e-02 -5.6488404228889122e-01 +5.5909501307513411e-03
1.1699999999999974e+01 +8.1611236862868086e+00 +0.0000000000000000e+00 +1.1699999143827494e+01 -2.9956265886192667e-02 -5.6488431333965450e-01 +5.5911636718584089e-03
1.1799999999999974e+01 +8.1610571410085910e+00 +0.0000000000000000e+00 +1.1799999121685987e+01 -2.9956380060234832e-02 -5.6488458292254651e-01 +5.5913773541554964e-03
