# multipoles
# s[mm] polynom_b[n=0][T/m^n] polynom_b[n=1][T/m^n] polynom_b[n=2][T/m^n] polynom_b[n=3][T/m^n] polynom_b[n=4][T/m^n] polynom_b[n=5][T/m^n] polynom_b[n=6][T/m^n] 
+0.0000000000000000e+00 -5.3649715942187048e-01 +7.3470594638521183e+00 +1.6148920375282380e-01 +2.9058999513573752e+01 -5.6970620401496114e+02 -2.5152520914382907e+05 -1.5188678333476795e+07 
+1.0000000000000001e-01 -5.3649703388054371e-01 +7.3470528151158785e+00 +1.6313579872313250e-01 +2.9608509532072649e+01 -6.3234280826764348e+02 -2.5501016623016261e+05 -1.4841152519085057e+07 
+2.0000000000000001e-01 -5.3649690748387224e-01 +7.3470461467781965e+00 +1.6450525919685011e-01 +3.0169178027091203e+01 -6.9095165883079824e+02 -2.5852588624855978e+05 -1.4508851227048064e+07 
+3.0000000000000004e-01 -5.3649678075067775e-01 +7.3470394250329996e+00 +1.6562203253110078e-01 +3.0739083245524284e+01 -7.4586938032053956e+02 -2.6205793606529580e+05 -1.4190712080006564e+07 
+4.0000000000000002e-01 -5.3649665419979109e-01 +7.3470326160763069e+00 +1.6651056769244363e-01 +3.1316303366217419e+01 -7.9743263343737635e+02 -2.6559188213152019e+05 -1.3885672516257178e+07 
+5.0000000000000000e-01 -5.3649652835002881e-01 +7.3470256861036516e+00 +1.6719531175347493e-01 +3.1898916584565292e+01 -8.4597804306042690e+02 -2.6911329099034815e+05 -1.3592670147964692e+07 
+5.9999999999999998e-01 -5.3649640372021057e-01 +7.3470186013131507e+00 +1.6770071230479583e-01 +3.2485001025283218e+01 -8.9184224613015817e+02 -2.7260772877287568e+05 -1.3310642527651899e+07 
+6.9999999999999996e-01 -5.3649628082916756e-01 +7.3470113279007538e+00 +1.6805121872027934e-01 +3.3072634868012052e+01 -9.3536191675587497e+02 -2.7606076189323392e+05 -1.3038527026539927e+07 
+7.9999999999999993e-01 -5.3649616019571955e-01 +7.3470038320643916e+00 +1.6827127907979017e-01 +3.3659896238829319e+01 -9.7687370561591899e+02 -2.7945795644205506e+05 -1.2775261129918262e+07 
+8.9999999999999991e-01 -5.3649604233869963e-01 +7.3469960800050593e+00 +1.6838534355298160e-01 +3.4244863177637697e+01 -1.0167143065724058e+03 -2.8278487799490197e+05 -1.2519782113261690e+07 
+9.9999999999999989e-01 -5.3649592777692756e-01 +7.3469880379152865e+00 +1.6841786136391035e-01 +3.4825613973077196e+01 -1.0552203994383719e+03 -2.8602709354534466e+05 -1.2271027315843822e+07 
+1.0999999999999999e+00 -5.3649581702923421e-01 +7.3469796719932789e+00 +1.6839328331013495e-01 +3.5400226744471780e+01 -1.0927286945108592e+03 -2.8917016905827617e+05 -1.2027933937130844e+07 
+1.2000000000000000e+00 -5.3649571061444679e-01 +7.3469709484349206e+00 +1.6833606044967303e-01 +3.5966779688675842e+01 -1.1295759117340569e+03 -2.9219967094212526e+05 -1.1789439125295406e+07 
+1.3000000000000000e+00 -5.3649560905139837e-01 +7.3469618334311093e+00 +1.6827064552336571e-01 +3.6523351146357534e+01 -1.1660988073790002e+03 -2.9510116638811183e+05 -1.1554479853372166e+07 
+1.4000000000000001e+00 -5.3649551285893615e-01 +7.3469522931726843e+00 +1.6822149339875467e-01 +3.7068019463928678e+01 -1.2026341786494370e+03 -2.9786022259000462e+05 -1.1321992906764310e+07 
+1.5000000000000002e+00 -5.3649542255586880e-01 +7.3469422938510114e+00 +1.6821305514557586e-01 +3.7598862980391665e+01 -1.2395187560836891e+03 -3.0046240666429157e+05 -1.1090915383133730e+07 
+1.6000000000000003e+00 -5.3649533866105747e-01 +7.3469318016496867e+00 +1.6826978956298047e-01 +3.8113960259729495e+01 -1.2770894222442842e+03 -3.0289328697850631e+05 -1.0860183653316839e+07 
+1.7000000000000004e+00 -5.3649526169332351e-01 +7.3469207827547072e+00 +1.6841615105542670e-01 +3.8611389803658135e+01 -1.3156829765743767e+03 -3.0513843149790412e+05 -1.0628734493818132e+07 
+1.8000000000000005e+00 -5.3649519217152675e-01 +7.3469092033407151e+00 +1.6867660007272445e-01 +3.9089230449176867e+01 -1.3556363392772810e+03 -3.0718341008228314e+05 -1.0395504102609711e+07 
+1.9000000000000006e+00 -5.3649513061449772e-01 +7.3468970295890879e+00 +1.6907559456610793e-01 +3.9545560842874721e+01 -1.3972863886831403e+03 -3.0901379143579857e+05 -1.0159428872756496e+07 
+2.0000000000000004e+00 -5.3649507754109016e-01 +7.3468842276659228e+00 +1.6963759662209099e-01 +3.9978460081515770e+01 -1.4409700833147863e+03 -3.1061514681313682e+05 -9.9194448259127177e+06 
+2.1000000000000005e+00 -5.3649503325578085e-01 +7.3468707766356642e+00 +1.7037530516858354e-01 +4.0386547925694934e+01 -1.4868387607982900e+03 -3.1197816227699636e+05 -9.6751924461707976e+06 
+2.2000000000000006e+00 -5.3649499720163041e-01 +7.3468567067357329e+00 +1.7125363386775683e-01 +4.0770615059859615e+01 -1.5342973065554456e+03 -3.1311423335597414e+05 -9.4291162234551571e+06 
+2.3000000000000007e+00 -5.3649496860532941e-01 +7.3468420608916283e+00 +1.7222536259959290e-01 +4.1131997584908127e+01 -1.5825629164454053e+03 -3.1404000053600810e+05 -9.1843584283023607e+06 
+2.4000000000000008e+00 -5.3649494669358766e-01 +7.3468268820358933e+00 +1.7324327389250607e-01 +4.1472031384550242e+01 -1.6308528370681763e+03 -3.1477210302512586e+05 -8.9440610843499452e+06 
+2.5000000000000009e+00 -5.3649493069309284e-01 +7.3468112130985750e+00 +1.7426014687307351e-01 +4.1792052425672694e+01 -1.6783842447902773e+03 -3.1532718057166412e+05 -8.7113665586880315e+06 
+2.6000000000000010e+00 -5.3649491983055875e-01 +7.3467950970183376e+00 +1.7522876426722189e-01 +4.2093396409438895e+01 -1.7243743837683357e+03 -3.1572187136631203e+05 -8.4894168920094613e+06 
+2.7000000000000011e+00 -5.3649491333266797e-01 +7.3467785767291396e+00 +1.7610190435232481e-01 +4.2377399167195044e+01 -1.7680404090993209e+03 -3.1597281437291752e+05 -8.2813545515813185e+06 
+2.8000000000000012e+00 -5.3649491042613073e-01 +7.3467616951781478e+00 +1.7683234844439624e-01 +4.2645396147440053e+01 -1.8085995285615343e+03 -3.1609664638217306e+05 -8.0903217589854561e+06 
+2.9000000000000012e+00 -5.3649491033760588e-01 +7.3467444953100731e+00 +1.7737287119990602e-01 +4.2898722852541816e+01 -1.8452688200789723e+03 -3.1611000449529401e+05 -7.9194613514389442e+06 
+3.0000000000000013e+00 -5.3649491229382595e-01 +7.3467270200770241e+00 +1.7767625582965940e-01 +4.3138714568980070e+01 -1.8772655177640952e+03 -3.1602952461604500e+05 -7.7719154289757349e+06 
+3.1000000000000014e+00 -5.3649491552145734e-01 +7.3467093124339176e+00 +1.7769527647458166e-01 +4.3366706485031592e+01 -1.9038066757166293e+03 -3.1587184209560923e+05 -7.6508269547390081e+06 
+3.2000000000000015e+00 -5.3649491924718051e-01 +7.3466914153423586e+00 +1.7738270893999888e-01 +4.3584033593531842e+01 -1.9241093779588493e+03 -3.1565359121393459e+05 -7.5593387401814340e+06 
+3.3000000000000016e+00 -5.3649492269768695e-01 +7.3466733717710042e+00 +1.7669132893791220e-01 +4.3792030664401715e+01 -1.9373906949720827e+03 -3.1539140498385939e+05 -7.5005936756640915e+06 
+3.4000000000000017e+00 -5.3649492509965513e-01 +7.3466552246919123e+00 +1.7557391009576703e-01 +4.3992032357108258e+01 -1.9428676516511612e+03 -3.1510191582889506e+05 -7.4777348687838241e+06 
+3.5000000000000018e+00 -5.3649492567975299e-01 +7.3466370170849231e+00 +1.7398322378352113e-01 +4.4185373096882323e+01 -1.9397572221353923e+03 -3.1480175487592677e+05 -7.4939056705318140e+06 
+3.6000000000000019e+00 -5.3649492366465645e-01 +7.3466187919384769e+00 +1.7187204137267514e-01 +4.4373387045036729e+01 -1.9272763728855009e+03 -3.1450755178036477e+05 -7.5522494689834882e+06 
+3.7000000000000020e+00 -5.3649491828104101e-01 +7.3466005922485538e+00 +1.6919313277088158e-01 +4.4557408128609360e+01 -1.9046420301693993e+03 -3.1423593489069393e+05 -7.6559098560895231e+06 
+3.8000000000000020e+00 -5.3649490875557360e-01 +7.3465824610148491e+00 +1.6589926613244974e-01 +4.4738770151814812e+01 -1.8710710801127498e+03 -3.1400353191483527e+05 -7.8080306110197017e+06 
+3.9000000000000021e+00 -5.3649489431489727e-01 +7.3465644412480051e+00 +1.6194320506870769e-01 +4.4918806584207950e+01 -1.8257803108143942e+03 -3.1382696868637158e+05 -8.0117559859052319e+06 
+4.0000000000000018e+00 -5.3649487418567199e-01 +7.3465465759685955e+00 +1.5727771421726924e-01 +4.5098850591173061e+01 -1.7679865206469974e+03 -3.1372286934853415e+05 -8.2702301847113427e+06 
+4.1000000000000014e+00 -5.3649484789688839e-01 +7.3465289105160645e+00 +1.5187352477895613e-01 +4.5279702409028026e+01 -1.6972081663364311e+03 -3.1370314918467653e+05 -8.5852938149611019e+06 
+4.2000000000000011e+00 -5.3649481619336625e-01 +7.3465114983883808e+00 +1.4577410500581686e-01 +4.5460107792923395e+01 -1.6141750256960477e+03 -3.1376112061087746e+05 -8.9536065999218188e+06 
+4.3000000000000007e+00 -5.3649478012562113e-01 +7.3464943948708257e+00 +1.3904133961295170e-01 +4.5638315775514876e+01 -1.5199212306916163e+03 -3.1388548181459861e+05 -9.3705400118077435e+06 
+4.4000000000000004e+00 -5.3649474074414816e-01 +7.3464776552463515e+00 +1.3173711083328626e-01 +4.5812575428623916e+01 -1.4154808627380096e+03 -3.1406493117015733e+05 -9.8314657771455143e+06 
+4.5000000000000000e+00 -5.3649469909946323e-01 +7.3464613347879260e+00 +1.2392330294433476e-01 +4.5981136093597890e+01 -1.3018880351741786e+03 -3.1428816860982077e+05 -1.0331755492302367e+07 
+4.5999999999999996e+00 -5.3649465624207204e-01 +7.3464454887721056e+00 +1.1566179893909553e-01 +4.6142246989598654e+01 -1.1801768339092930e+03 -3.1454389336348127e+05 -1.0866780896550683e+07 
+4.6999999999999993e+00 -5.3649461322251690e-01 +7.3464301724664391e+00 +1.0701448630433753e-01 +4.6294157567513132e+01 -1.0513814251949916e+03 -3.1482080597525754e+05 -1.1431913365801878e+07 
+4.7999999999999989e+00 -5.3649457109131737e-01 +7.3464154411343161e+00 +9.8043248983720757e-02 +4.6435117376751975e+01 -9.1653590003167608e+02 -3.1510760755862790e+05 -1.2022524660342552e+07 
+4.8999999999999986e+00 -5.3649453089902388e-01 +7.3464013500334220e+00 +8.8809975073669667e-02 +4.6563376109319563e+01 -7.7667442716834864e+02 -3.1539300004536205e+05 -1.2633986178558562e+07 
+4.9999999999999982e+00 -5.3649449369620350e-01 +7.3463879544167234e+00 +7.9376554431501364e-02 +4.6677183564153481e+01 -6.3283120181814786e+02 -3.1566568596273306e+05 -1.3261669220000792e+07 
+5.0999999999999979e+00 -5.3649446053340411e-01 +7.3463753095311830e+00 +6.9804874023264893e-02 +4.6774789692441644e+01 -4.8604035799901800e+02 -3.1591436872285872e+05 -1.3900945397321440e+07 
+5.1999999999999975e+00 -5.3649443246121487e-01 +7.3463634706145324e+00 +6.0156825895370865e-02 +4.6854444682431236e+01 -3.3733612167288101e+02 -3.1612775308286870e+05 -1.4547185906519001e+07 
+5.2999999999999972e+00 -5.3649441053021518e-01 +7.3463524929014010e+00 +5.0494300637566138e-02 +4.6914398780222136e+01 -1.8775268424456047e+02 -3.1629454411605408e+05 -1.5195762134938855e+07 
+5.3999999999999968e+00 -5.3649439579101255e-01 +7.3463424316186199e+00 +4.0879192300970174e-02 +4.6952902437326721e+01 -3.8324300742995554e+01 -3.1640344808307599e+05 -1.5842045180262297e+07 
+5.4999999999999964e+00 -5.3649438929421622e-01 +7.3463333419837760e+00 +3.1373394634071634e-02 +4.6968206337062639e+01 +1.0991478960592272e+02 -3.1644317256301636e+05 -1.6481406253097147e+07 
+5.5999999999999961e+00 -5.3649439209045302e-01 +7.3463252792067291e+00 +2.2038803491269965e-02 +4.6958561357636754e+01 +2.5593031045396972e+02 -3.1640242623939004e+05 -1.7109216403214224e+07 
+5.6999999999999957e+00 -5.3649440523034864e-01 +7.3463182984905222e+00 +1.2937314444959649e-02 +4.6922218539937269e+01 +3.9868799695572272e+02 -3.1626991871314292e+05 -1.7720846763193004e+07 
+5.7999999999999954e+00 -5.3649442976457695e-01 +7.3463124550300076e+00 +4.1308285735437286e-03 +4.6857429137760420e+01 +5.3715348707969929e+02 -3.1603436082126113e+05 -1.8311668033192553e+07 
+5.8999999999999950e+00 -5.3649446674379164e-01 +7.3463078040094505e+00 -4.3187557599691966e-03 +4.6762444670738162e+01 +6.7029247675655120e+02 -3.1568446489390871e+05 -1.8877051218004804e+07 
+5.9999999999999947e+00 -5.3649451721867059e-01 +7.3463044006019507e+00 -1.2349536975604742e-02 +4.6635516952078625e+01 +7.9707060483330872e+02 -3.1520894492702826e+05 -1.9412367072397649e+07 
+6.0999999999999943e+00 -5.3649458200916944e-01 +7.3463022982861030e+00 -1.9912620261204661e-02 +4.6475188025961046e+01 +9.1668376631847434e+02 -3.1459807342274033e+05 -1.9914072728600100e+07 
+6.1999999999999940e+00 -5.3649466101181664e-01 +7.3463015459940895e+00 -2.7011153781974280e-02 +4.6280983285854148e+01 +1.0292394538439416e+03 -3.1384716812810721e+05 -2.0382920709956545e+07 
+6.2999999999999936e+00 -5.3649475389216561e-01 +7.3463021920510245e+00 -3.3661304240634869e-02 +4.6052631340164041e+01 +1.1350711022941498e+03 -3.1295251552103442e+05 -2.0820727631932251e+07 
+6.3999999999999932e+00 -5.3649486031577209e-01 +7.3463042847763154e+00 -3.9879239378218079e-02 +4.5789860940462660e+01 +1.2345121702096758e+03 -3.1191040274970012e+05 -2.1229310239546508e+07 
+6.4999999999999929e+00 -5.3649497994821949e-01 +7.3463078724932602e+00 -4.5681123780446871e-02 +4.5492400714057943e+01 +1.3278960524583679e+03 -3.1071711611804902e+05 -2.1610484969593696e+07 
+6.5999999999999925e+00 -5.3649511245511816e-01 +7.3463130035180200e+00 -5.1083119945995875e-02 +4.5159979473733443e+01 +1.4155561046813382e+03 -3.0936894285231875e+05 -2.1966068075799301e+07 
+6.6999999999999922e+00 -5.3649525750207583e-01 +7.3463197261694670e+00 -5.6101390828774439e-02 +4.4792325944663389e+01 +1.4978256857664817e+03 -3.0786216953896958e+05 -2.2297875819381449e+07 
+6.7999999999999918e+00 -5.3649541475473472e-01 +7.3463280887607381e+00 -6.0752096439441607e-02 +4.4389168996057656e+01 +1.5750381009112023e+03 -3.0619308343471668e+05 -2.2607724215615898e+07 
+6.8999999999999915e+00 -5.3649558387876317e-01 +7.3463381396059866e+00 -6.5051393923191675e-02 +4.3950237456012005e+01 +1.6475265943772422e+03 -3.0435797141644068e+05 -2.2897428976776410e+07 
+6.9999999999999911e+00 -5.3649576453982051e-01 +7.3463499270174486e+00 -6.9015442737916391e-02 +4.3475260196394608e+01 +1.7156244561700171e+03 -3.0235312046195369e+05 -2.3168806044156190e+07 
+7.0999999999999908e+00 -5.3649595640360792e-01 +7.3463634993032798e+00 -7.2660397702826673e-02 +4.2963966181528832e+01 +1.7796648818929175e+03 -3.0017481789196777e+05 -2.3423670896582738e+07 
+7.1999999999999904e+00 -5.3649615913583637e-01 +7.3463789047735819e+00 -7.6002413341466013e-02 +4.2416084314922287e+01 +1.8399810591145431e+03 -2.9781935053943971e+05 -2.3663838973406609e+07 
+7.2999999999999901e+00 -5.3649637240223891e-01 +7.3463961917331222e+00 -7.9057642365358061e-02 +4.1831343634262588e+01 +1.8969061399124116e+03 -2.9528300582234008e+05 -2.3891125549269434e+07 
+7.3999999999999897e+00 -5.3649659586858134e-01 +7.3464154084855489e+00 -8.1842234300537581e-02 +4.1209473193049661e+01 +1.9507732107517079e+03 -2.9256207107133558e+05 -2.4107345576708350e+07 
+7.4999999999999893e+00 -5.3649682920063257e-01 +7.3464366033343032e+00 -8.4372339345579611e-02 +4.0550202037601707e+01 +2.0019153689228367e+03 -2.8965283339447051e+05 -2.4314314061613917e+07 
+7.5999999999999890e+00 -5.3649707206419672e-01 +7.3464598245799593e+00 -8.6664103904835213e-02 +3.9853259281857994e+01 +2.0506656341169569e+03 -2.8655158010626648e+05 -2.4513845630928569e+07 
+7.6999999999999886e+00 -5.3649732412508411e-01 +7.3464851205227948e+00 -8.8733674594861339e-02 +3.9118374033003462e+01 +2.0973570247108751e+03 -2.8325459828373708e+05 -2.4707754897322081e+07 
+7.7999999999999883e+00 -5.3649758504915401e-01 +7.3465125394563753e+00 -9.0597193500605688e-02 +3.8345275578533354e+01 +2.1423224742663633e+03 -2.7975817585458310e+05 -2.4897856079252943e+07 
+7.8999999999999879e+00 -5.3649785450225662e-01 +7.3465421296790456e+00 -9.2270803968330137e-02 +3.7533693048799613e+01 +2.1858949296239248e+03 -2.7605859962220705e+05 -2.5085963436781403e+07 
+7.9999999999999876e+00 -5.3649813215030517e-01 +7.3465739394802805e+00 -9.3770643225556199e-02 +3.6683355811195128e+01 +2.2284072203870323e+03 -2.7215215760990541e+05 -2.5273890680163119e+07 
+8.0999999999999872e+00 -5.3649841769696194e-01 +7.3466079636406487e+00 -9.5108223225154928e-02 +3.5794894081608554e+01 +2.2700830068820756e+03 -2.6803972083587211e+05 -2.5462891360584464e+07 
+8.1999999999999869e+00 -5.3649871098867463e-01 +7.3466439765761464e+00 -9.6274768403616401e-02 +3.4872783510504370e+01 +2.3106822450893387e+03 -2.6374188990680617e+05 -2.5651836601757132e+07 
+8.2999999999999865e+00 -5.3649901190548244e-01 +7.3466816958704699e+00 -9.7255967502054508e-02 +3.3922523597801941e+01 +2.3498414628840706e+03 -2.5928457180242191e+05 -2.5838961959960125e+07 
+8.3999999999999861e+00 -5.3649932032740399e-01 +7.3467208391036101e+00 -9.8037509290016769e-02 +3.2949614027033832e+01 +2.3871971636981798e+03 -2.5469367477837903e+05 -2.6022502801131278e+07 
+8.4999999999999858e+00 -5.3649963613434959e-01 +7.3467611238555337e+00 -9.8605092941782879e-02 +3.1959554534352176e+01 +2.4223860240314289e+03 -2.4999510748862106e+05 -2.6200695249520030e+07 
+8.5999999999999854e+00 -5.3649995920620663e-01 +7.3468022676977185e+00 -9.8944418275334081e-02 +3.0957845184282920e+01 +2.4550447096309131e+03 -2.4521478066640600e+05 -2.6371775313253786e+07 
+8.6999999999999851e+00 -5.3650028942279238e-01 +7.3468439881999954e+00 -9.9041190607977225e-02 +2.9949986155713194e+01 +2.4848099638771982e+03 -2.4037860584289487e+05 -2.6533979297553528e+07 
+8.7999999999999847e+00 -5.3650062666384457e-01 +7.3468860029283869e+00 -9.8881122277091629e-02 +2.8941477819051130e+01 +2.5113186369224186e+03 -2.3551249582922409e+05 -2.6685543942749999e+07 
+8.8999999999999844e+00 -5.3650097080908854e-01 +7.3469280294453059e+00 -9.8449924423241311e-02 +2.7937820721318062e+01 +2.5342075300962306e+03 -2.3064236460695797e+05 -2.6824705684094697e+07 
+8.9999999999999840e+00 -5.3650132173812293e-01 +7.3469697853058591e+00 -9.7733320394270143e-02 +2.6944515697965087e+01 +2.5531136481169642e+03 -2.2579412798871915e+05 -2.6949701848060373e+07 
+9.0999999999999837e+00 -5.3650167933050863e-01 +7.3470109880643388e+00 -9.6717035260490941e-02 +2.5967063700390039e+01 +2.5676739991850200e+03 -2.2099370265557061e+05 -2.7058769696195096e+07 
+9.1999999999999833e+00 -5.3650204346573727e-01 +7.3470513552724190e+00 -9.5386799573875330e-02 +2.5010965831122537e+01 +2.5775256683022794e+03 -2.1626700632183047e+05 -2.7150146780450381e+07 
+9.2999999999999829e+00 -5.3650241402323484e-01 +7.3470906044702327e+00 -9.3728348358560240e-02 +2.4081723615567409e+01 +2.5823057935778820e+03 -2.1163995933455351e+05 -2.7222070818635639e+07 
+9.3999999999999826e+00 -5.3650279088234720e-01 +7.3471284532031680e+00 -9.1727423470963590e-02 +2.3184838517810718e+01 +2.5816516140829258e+03 -2.0713848188263137e+05 -2.7272779929049775e+07 
+9.4999999999999822e+00 -5.3650317392233027e-01 +7.3471646190054578e+00 -8.9369774184008627e-02 +2.2325812419152776e+01 +2.5752004765160987e+03 -2.0278849677293337e+05 -2.7300512650385711e+07 
+9.5999999999999819e+00 -5.3650356302238633e-01 +7.3471988194106492e+00 -8.6641152734283675e-02 +2.1510147309992309e+01 +2.5625897515037836e+03 -1.9861592763284888e+05 -2.7303507547088742e+07 
+9.6999999999999815e+00 -5.3650395806163231e-01 +7.3472307719443659e+00 -8.3527318646049148e-02 +2.0743345507338752e+01 +2.5434569171566714e+03 -1.9464670018857330e+05 -2.7280003607783858e+07 
+9.7999999999999812e+00 -5.3650435891909887e-01 +7.3472601941292544e+00 -8.0014037872599822e-02 +2.0030909514723614e+01 +2.5174395380318433e+03 -1.9090674146202093e+05 -2.7228240136415109e+07 
+9.8999999999999808e+00 -5.3650476547373849e-01 +7.3472868034851508e+00 -7.6087082423784480e-02 +1.9378342016967451e+01 +2.4841752602585266e+03 -1.8742197974118291e+05 -2.7146456731631525e+07 
+9.9999999999999805e+00 -5.3650517760441896e-01 +7.3473103175261310e+00 -7.1732230725120111e-02 +1.8791145976453478e+01 +2.4433018156233788e+03 -1.8421834517661683e+05 -2.7032893300893929e+07 
+1.0099999999999980e+01 -5.3650559513198270e-01 +7.3473305335229426e+00 -6.6947469828928879e-02 +1.8273207001239502e+01 +2.3946727160202950e+03 -1.8131431056740790e+05 -2.6886733183054425e+07 
