# multipoles
# s[mm] polynom_b[n=0][T/m^n] polynom_b[n=1][T/m^n] polynom_b[n=2][T/m^n] polynom_b[n=3][T/m^n] polynom_b[n=4][T/m^n] polynom_b[n=5][T/m^n] polynom_b[n=6][T/m^n] 
-0.0000000000000000e+00 -5.9291728332396709e-01 +8.1103096812431232e+00 -6.2387903332419181e-01 -1.8059230516386297e+01 -5.2198502768668641e+03 -1.6682414538823345e+05 +1.9965035356956318e+07 
-1.0000000000000001e-01 -5.9291730018662014e-01 +8.1103207194465128e+00 -6.2893981665545329e-01 -1.7763844940083427e+01 -5.1827564281866607e+03 -1.6933055730503352e+05 +1.9912459010535169e+07 
-2.0000000000000001e-01 -5.9291730819307298e-01 +8.1103319274473442e+00 -6.3536732925762729e-01 -1.7443493106787347e+01 -5.1251907298461447e+03 -1.7206251599323296e+05 +1.9781766796081748e+07 
-2.9999999999999999e-01 -5.9291730889628547e-01 +8.1103432119163408e+00 -6.4303608100211218e-01 -1.7100967829902743e+01 -5.0487072655505799e+03 -1.7499219561145946e+05 +1.9577878838171739e+07 
-4.0000000000000002e-01 -5.9291730384934027e-01 +8.1103544795352409e+00 -6.5182057999704290e-01 -1.6739062235756023e+01 -4.9548601504080716e+03 -1.7809176858811852e+05 +1.9305715411608711e+07 
-5.0000000000000000e-01 -5.9291729460522391e-01 +8.1103656369810810e+00 -6.6159533507350898e-01 -1.6360569334974659e+01 -4.8452034868884384e+03 -1.8133340801674046e+05 +1.8970196737323165e+07 
-5.9999999999999998e-01 -5.9291728271697230e-01 +8.1103765909480927e+00 -6.7223485683896778e-01 -1.5968282637714800e+01 -4.7212913388861562e+03 -1.8468928410529680e+05 +1.8576242840743348e+07 
-6.9999999999999996e-01 -5.9291726973757131e-01 +8.1103872481200217e+00 -6.8361365443499689e-01 -1.5564995378070792e+01 -4.5846778001964531e+03 -1.8813156860164044e+05 +1.8128773894864954e+07 
-8.0000000000000004e-01 -5.9291725722001665e-01 +8.1103975151858645e+00 -6.9560623893456874e-01 -1.5153500955531939e+01 -4.4369169303832114e+03 -1.9163243223974062e+05 +1.7632709915034395e+07 
-9.0000000000000002e-01 -5.9291724671733170e-01 +8.1104072988310865e+00 -7.0808711754799869e-01 -1.4736592712296453e+01 -4.2795628628728864e+03 -1.9516404592860074e+05 +1.7092971263997801e+07 
-1.0000000000000000e+00 -5.9291723978250854e-01 +8.1104165057416200e+00 -7.2093080126380138e-01 -1.4317064026387015e+01 -4.1141696587287779e+03 -1.9869858025068126e+05 +1.6514477953135211e+07 
-1.1000000000000001e+00 -5.9291723796860818e-01 +8.1104250425974058e+00 -7.3401179836053609e-01 -1.3897708148657449e+01 -3.9422914360997393e+03 -2.0220820633355263e+05 +1.5902150271673806e+07 
-1.2000000000000000e+00 -5.9291724282854075e-01 +8.1104328160722563e+00 -7.4720461678479266e-01 -1.3481318203229574e+01 -3.7654823241526055e+03 -2.0566509580222008e+05 +1.5260908564617317e+07 
-1.3000000000000000e+00 -5.9291725591535871e-01 +8.1104397328300468e+00 -7.6038376097269655e-01 -1.3070687071957490e+01 -3.5852965171514102e+03 -2.0904142145226276e+05 +1.4595673470878202e+07 
-1.3999999999999999e+00 -5.9291727878206557e-01 +8.1104456995330239e+00 -7.7342373928474917e-01 -1.2668607649855673e+01 -3.4032881458484262e+03 -2.1230935569693413e+05 +1.3911365341682123e+07 
-1.5000000000000000e+00 -5.9291731298164430e-01 +8.1104506228296671e+00 -7.8619905458234052e-01 -1.2277872504181911e+01 -3.2210114466280220e+03 -2.1544107251231777e+05 +1.3212905019582415e+07 
-1.6000000000000001e+00 -5.9291736006709495e-01 +8.1104544093562634e+00 -7.9858420941201391e-01 -1.1901273909150886e+01 -3.0400206699945461e+03 -2.1840874723511797e+05 +1.2505213418368194e+07 
-1.7000000000000000e+00 -5.9291742159141358e-01 +8.1104569657357164e+00 -8.1045370543927198e-01 -1.1541603831008420e+01 -2.8618700873848879e+03 -2.2118455657379402e+05 +1.1793211542921120e+07 
-1.8000000000000000e+00 -5.9291749910762470e-01 +8.1104581985781028e+00 -8.2168204193749295e-01 -1.1201653947870454e+01 -2.6881140264321002e+03 -2.2374067847279189e+05 +1.1081820671983875e+07 
-1.8999999999999999e+00 -5.9291759416870804e-01 +8.1104580144781249e+00 -8.3214371532637810e-01 -1.0884215574270465e+01 -2.5203068731295348e+03 -2.2604929252598953e+05 +1.0375962352159580e+07 
-2.0000000000000000e+00 -5.9291770832769353e-01 +8.1104563200106234e+00 -8.4171322004122207e-01 -1.0592079541048372e+01 -2.3600030626372532e+03 -2.2808258063258100e+05 +9.6805583665879052e+06 
-2.1000000000000001e+00 -5.9291784273546855e-01 +8.1104530821980116e+00 -8.5029154319609490e-01 -1.0327716173193563e+01 -2.2085042043098829e+03 -2.2981877198088617e+05 +9.0000519117111191e+06 
-2.2000000000000002e+00 -5.9291799692995684e-01 +8.1104485061243938e+00 -8.5788715644361258e-01 -1.0092055548895804e+01 -2.0660912625347214e+03 -2.3126218938353244e+05 +8.3369874371606829e+06 
-2.2999999999999998e+00 -5.9291817004444836e-01 +8.1104428554459389e+00 -8.6453578471052650e-01 -9.8855766022855800e+00 -1.9327877908250382e+03 -2.3242416606361332e+05 +7.6934395577480448e+06 
-2.3999999999999999e+00 -5.9291836121227692e-01 +8.1104363938162969e+00 -8.7027315566427288e-01 -9.7087581721421277e+00 -1.8086172884113009e+03 -2.3331603591244802e+05 +7.0714826317074345e+06 
-2.5000000000000000e+00 -5.9291856956674549e-01 +8.1104293848898248e+00 -8.7513499465464206e-01 -9.5620791011059989e+00 -1.6936032896733007e+03 -2.3394913292557566e+05 +6.4731911668801010e+06 
-2.6000000000000001e+00 -5.9291879424116312e-01 +8.1104220923252779e+00 -8.7915702721796007e-01 -9.4460183206364849e+00 -1.5877693235226122e+03 -2.3433479078035449e+05 +5.9006396507598218e+06 
-2.7000000000000002e+00 -5.9291903436898341e-01 +8.1104147797793740e+00 -8.8237497704009948e-01 -9.3610546769167957e+00 -1.4911389427949275e+03 -2.3448434383325785e+05 +5.3559026636876101e+06 
-2.7999999999999998e+00 -5.9291928908347435e-01 +8.1104077109146804e+00 -8.8482457077798060e-01 -9.3076671387442858e+00 -1.4037356366969311e+03 -2.3440912599321170e+05 +4.8410544794122865e+06 
-2.8999999999999999e+00 -5.9291955751808290e-01 +8.1104011493966173e+00 -8.8654153234542921e-01 -9.2863347093976554e+00 -1.3255829407212418e+03 -2.3412047125225532e+05 +4.3581695904955147e+06 
-3.0000000000000000e+00 -5.9291983880618504e-01 +8.1103953588974935e+00 -8.8756158594965717e-01 -9.2975365251702602e+00 -1.2567043710508849e+03 -2.3362971318180460e+05 +3.9093223780570016e+06 
-3.1000000000000001e+00 -5.9292013208120908e-01 +8.1103906030933111e+00 -8.8792045477004833e-01 -9.3417517791117461e+00 -1.1971234556309255e+03 -2.3294818535522535e+05 +3.4965872769323708e+06 
-3.2000000000000002e+00 -5.9292043647659265e-01 +8.1103871456660261e+00 -8.8765386763355458e-01 -9.4194597512340650e+00 -1.1468635990785619e+03 -2.3208722128209670e+05 +3.1220381144669047e+06 
-3.2999999999999998e+00 -5.9292075112575804e-01 +8.1103852503071057e+00 -8.8679754577515202e-01 -9.5311399164922008e+00 -1.1059483432365291e+03 -2.3105815379098948e+05 +2.7877493735032300e+06 
-3.3999999999999999e+00 -5.9292107516226467e-01 +8.1103851807144807e+00 -8.8538721532551445e-01 -9.6772718626684924e+00 -1.0744011203657381e+03 -2.2987231550189006e+05 +2.4957949975384162e+06 
-3.5000000000000000e+00 -5.9292140771952995e-01 +8.1103872005943352e+00 -8.8345860081248972e-01 -9.8583353191207781e+00 -1.0522453776261732e+03 -2.2854103875395120e+05 +2.2482489845058871e+06 
-3.6000000000000001e+00 -5.9292174793113761e-01 +8.1103915736675383e+00 -8.8104742763110688e-01 -1.0074810319734041e+01 -1.0395045330320888e+03 -2.2707565472773626e+05 +2.0471851897378971e+06 
-3.7000000000000002e+00 -5.9292209493058623e-01 +8.1103985636594942e+00 -8.7818942385431209e-01 -1.0327176950496229e+01 -1.0362019375193922e+03 -2.2548749483263382e+05 +1.8946771356824334e+06 
-3.7999999999999998e+00 -5.9292244785147297e-01 +8.1104084343104930e+00 -8.7492031325474262e-01 -1.0615915598538191e+01 -1.0423610032405579e+03 -2.2378788939718914e+05 +1.7927986149101066e+06 
-3.8999999999999999e+00 -5.9292280582738621e-01 +8.1104214493709073e+00 -8.7127582361143685e-01 -1.0941506805935823e+01 -1.0580050531314905e+03 -2.2198816858077794e+05 +1.7436229931641540e+06 
-4.0000000000000000e+00 -5.9292316799198785e-01 +8.1104378726094968e+00 -8.6729168212999352e-01 -1.1304431549702588e+01 -1.0831573962199689e+03 -2.2009966064460558e+05 +1.7492235409301994e+06 
-4.0999999999999996e+00 -5.9292353353200211e-01 +8.1104578578856756e+00 -8.6300840110513632e-01 -1.1704278756364445e+01 -1.1176307228713647e+03 -2.1813417687790890e+05 +1.8103317959154064e+06 
-4.2000000000000002e+00 -5.9292390184985566e-01 +8.1104811304686510e+00 -8.5848221857264140e-01 -1.2137535480812812e+01 -1.1604272827814359e+03 -2.1610238672770071e+05 +1.9223611374149551e+06 
-4.2999999999999998e+00 -5.9292427240259038e-01 +8.1105073112436852e+00 -8.5377246826502029e-01 -1.2600034803145492e+01 -1.2103539521876178e+03 -2.1401386897942863e+05 +2.0794025132804792e+06 
-4.4000000000000004e+00 -5.9292464464736738e-01 +8.1105360210930435e+00 -8.4893848156696583e-01 -1.3087609740280039e+01 -1.2662176643907092e+03 -2.1187820268652338e+05 +2.2755471597162224e+06 
-4.5000000000000000e+00 -5.9292501804121533e-01 +8.1105668809100848e+00 -8.4403959252463068e-01 -1.3596093643444199e+01 -1.3268253168841584e+03 -2.0970496488082691e+05 +2.5048861615576386e+06 
-4.5999999999999996e+00 -5.9292539204118533e-01 +8.1105995115916283e+00 -8.3913513379605464e-01 -1.4121319976356205e+01 -1.3909838475787808e+03 -2.0750373185689276e+05 +2.7615108154491931e+06 
-4.7000000000000002e+00 -5.9292576610428727e-01 +8.1106335340417548e+00 -8.3428444277364389e-01 -1.4659122430435382e+01 -1.4575001289896495e+03 -2.0528407848281108e+05 +3.0395121500538928e+06 
-4.7999999999999998e+00 -5.9292613968747609e-01 +8.1106685691698335e+00 -8.2954685409170248e-01 -1.5205334871412896e+01 -1.5251810967659655e+03 -2.0305557848557259e+05 +3.3329814996605352e+06 
-4.9000000000000004e+00 -5.9292651224769111e-01 +8.1107042378892711e+00 -8.2498170406769167e-01 -1.5755791302559345e+01 -1.5928336803536974e+03 -2.0082780467001136e+05 +3.6360102155701765e+06 
-5.0000000000000000e+00 -5.9292688324181952e-01 +8.1107401611252339e+00 -8.2064833216993971e-01 -1.6306326096477967e+01 -1.6592647671819659e+03 -1.9861032753477572e+05 +3.9426894695117259e+06 
-5.0999999999999996e+00 -5.9292725212673869e-01 +8.1107759598047995e+00 -8.1660607854628897e-01 -1.6852773702285351e+01 -1.7232812552343041e+03 -1.9641271698542271e+05 +4.2471105189206405e+06 
-5.2000000000000002e+00 -5.9292761835925722e-01 +8.1108112548662294e+00 -8.1291428131402821e-01 -1.7390968927797456e+01 -1.7836901009669518e+03 -1.9424454065619671e+05 +4.5433649241588451e+06 
-5.2999999999999998e+00 -5.9292798139611824e-01 +8.1108456672495244e+00 -8.0963228507197971e-01 -1.7916746653380851e+01 -1.8392981687833642e+03 -1.9211536559694065e+05 +4.8255438606310971e+06 
-5.4000000000000004e+00 -5.9292834069409583e-01 +8.1108788179058049e+00 -8.0681943114092880e-01 -1.8425942119794254e+01 -1.8889124025590013e+03 -1.9003475654730786e+05 +5.0877388964419374e+06 
-5.5000000000000000e+00 -5.9292869570978612e-01 +8.1109103277961481e+00 -8.0453506616196024e-01 -1.8914390895454307e+01 -1.9313396785107495e+03 -1.8801227612642859e+05 +5.3240413326955196e+06 
-5.5999999999999996e+00 -5.9292904589991968e-01 +8.1109398178814729e+00 -8.0283853445401399e-01 -1.9377928573109163e+01 -1.9653869404682212e+03 -1.8605748659918123e+05 +5.5285428219914259e+06 
-5.7000000000000002e+00 -5.9292939072095718e-01 +8.1109669091402559e+00 -8.0178918633512142e-01 -1.9812391299867365e+01 -1.9898610494572408e+03 -1.8417994676049662e+05 +5.6953346689583370e+06 
-5.7999999999999998e+00 -5.9292972962948964e-01 +8.1109912225515153e+00 -8.0144636916842293e-01 -2.0213615276622058e+01 -2.0035689528939859e+03 -1.8238921484263361e+05 +5.8185086334723076e+06 
-5.9000000000000004e+00 -5.9293006208190790e-01 +8.1110123791072137e+00 -8.0186943526480881e-01 -2.0577437128700360e+01 -2.0053175332802725e+03 -1.8069484633872058e+05 +5.8921562040961403e+06 
-5.9999999999999902e+00 -5.9293038753470950e-01 +8.1110299998065916e+00 -8.0311773651727159e-01 -2.0899693718644468e+01 -1.9939137129948392e+03 -1.7910639513214363e+05 +5.9103691050682217e+06 
-6.0999999999999899e+00 -5.9293070572344786e-01 +8.1110438063480768e+00 -8.0522467632609385e-01 -2.1177206761836121e+01 -1.9686081188391581e+03 -1.7763174717664102e+05 +5.8691984106878759e+06 
-6.1999999999999904e+00 -5.9293101749821764e-01 +8.1110539135775888e+00 -8.0812430825109338e-01 -2.1410494392205173e+01 -1.9303793415877772e+03 -1.7627325551746253e+05 +5.7724310521121761e+06 
-6.2999999999999901e+00 -5.9293132398717219e-01 +8.1110605322605132e+00 -8.1172691965706534e-01 -2.1600930597569590e+01 -1.8806272378353312e+03 -1.7503223334752960e+05 +5.6257674125858815e+06 
-6.3999999999999897e+00 -5.9293162631848062e-01 +8.1110638731493268e+00 -8.1594279490306520e-01 -2.1749888976488712e+01 -1.8207517125998108e+03 -1.7390999603316377e+05 +5.4349081020098189e+06 
-6.4999999999999902e+00 -5.9293192562022889e-01 +8.1110641469741367e+00 -8.2068222353698184e-01 -2.1858742503979148e+01 -1.7521525619872671e+03 -1.7290786237180643e+05 +5.2055532043877216e+06 
-6.5999999999999899e+00 -5.9293222302064785e-01 +8.1110615644539479e+00 -8.2585549436757033e-01 -2.1928863823224091e+01 -1.6762295827889111e+03 -1.7202715300325214e+05 +4.9434027911757976e+06 
-6.6999999999999904e+00 -5.9293251964792815e-01 +8.1110563362829673e+00 -8.3137289324998165e-01 -2.1961624880477331e+01 -1.5943826174062533e+03 -1.7126919242792515e+05 +4.6541571487367097e+06 
-6.7999999999999901e+00 -5.9293281663025565e-01 +8.1110486731388569e+00 -8.3714471291966208e-01 -2.1958397139458985e+01 -1.5080113629138827e+03 -1.7063530782961013e+05 +4.3435158530267989e+06 
-6.8999999999999897e+00 -5.9293311509587632e-01 +8.1110387856791082e+00 -8.4308124158547360e-01 -2.1920551507668272e+01 -1.4185155901842440e+03 -1.7012682941303114e+05 +4.0171788251627842e+06 
-6.9999999999999902e+00 -5.9293341617306061e-01 +8.1110268845337785e+00 -8.4909277138137818e-01 -2.1849458083306608e+01 -1.3272949789003389e+03 -1.6974509198273765e+05 +3.6808455320198811e+06 
-7.0999999999999899e+00 -5.9293372099004049e-01 +8.1110131803206578e+00 -8.5508959535585993e-01 -2.1746486643060916e+01 -1.2357491763447506e+03 -1.6949143197681024e+05 +3.3402152740120706e+06 
-7.1999999999999904e+00 -5.9293403067512651e-01 +8.1109978836276007e+00 -8.6098200333457064e-01 -2.1613006087677316e+01 -1.1452778787582167e+03 -1.6936719079948877e+05 +3.0009875793433981e+06 
-7.2999999999999901e+00 -5.9293434635663478e-01 +8.1109812050213215e+00 -8.6668029214675091e-01 -2.1450384725312311e+01 -1.0572806286176333e+03 -1.6937371309032629e+05 +2.6688612177503947e+06 
-7.3999999999999897e+00 -5.9293466916285753e-01 +8.1109633550426459e+00 -8.7209475431920080e-01 -2.1259990122457971e+01 -9.7315703340393623e+02 -1.6951234761253739e+05 +2.3495352532051685e+06 
-7.4999999999999902e+00 -5.9293500022224055e-01 +8.1109445442131083e+00 -8.7713568490716243e-01 -2.1043189299170539e+01 -8.9430663747045242e+02 -1.6978444611843218e+05 +2.0487084397900018e+06 
-7.5999999999999899e+00 -5.9293534066308551e-01 +8.1109249830166803e+00 -8.8171337986427600e-01 -2.0801348198219838e+01 -8.2212894457996936e+02 -1.7019136640865434e+05 +1.7720793092187680e+06 
-7.6999999999999904e+00 -5.9293569161381687e-01 +8.1109048819221048e+00 -8.8573813746398022e-01 -2.0535832336323761e+01 -7.5802340122191595e+02 -1.7073446856137464e+05 +1.5253461162123280e+06 
-7.7999999999999901e+00 -5.9293605420292106e-01 +8.1108844513642619e+00 -8.8912025335287703e-01 -2.0248006259761336e+01 -7.0338947903260282e+02 -1.7141511807898106e+05 +1.3142072044873571e+06 
-7.8999999999999897e+00 -5.9293642955882853e-01 +8.1108639017503066e+00 -8.9177002681185913e-01 -1.9939233722790387e+01 -6.5962656251789429e+02 -1.7223468485501240e+05 +1.1443604896654878e+06 
-7.9999999999999902e+00 -5.9293681881006821e-01 +8.1108434434606114e+00 -8.9359775679606823e-01 -1.9610877741626648e+01 -6.2813402241744825e+02 -1.7319454279993402e+05 +1.0215038053302363e+06 
-8.0999999999999908e+00 -5.9293722277104111e-01 +8.1108232781396854e+00 -8.9453935727874512e-01 -1.9264718898371882e+01 -6.0993295728312739e+02 -1.7429287207623452e+05 +9.4986935244265152e+05 
-8.1999999999999904e+00 -5.9293764100712854e-01 +8.1108035767639173e+00 -8.9463174617477359e-01 -1.8904117613214918e+01 -6.0452980968678310e+02 -1.7551647717223680e+05 +9.2776432719593239e+05 
-8.2999999999999901e+00 -5.9293807277254629e-01 +8.1107845037770527e+00 -8.9393682404570762e-01 -1.8532814161105883e+01 -6.1105056337319445e+02 -1.7684962984073389e+05 +9.5199526866943832e+05 
-8.3999999999999897e+00 -5.9293851732163527e-01 +8.1107662236467402e+00 -8.9251648175454501e-01 -1.8154549459406841e+01 -6.2862136530633131e+02 -1.7827659850869825e+05 +1.0193694583467627e+06 
-8.4999999999999893e+00 -5.9293897390877692e-01 +8.1107489008510836e+00 -8.9043261069866264e-01 -1.7773064710704798e+01 -6.5636832828341790e+02 -1.7978165017975666e+05 +1.1266939611908931e+06 
-8.5999999999999908e+00 -5.9293944178831615e-01 +8.1107326998878086e+00 -8.8774710160295822e-01 -1.7392101649815231e+01 -6.9341755431148135e+02 -1.8134904904895287e+05 +1.2707757400494069e+06 
-8.6999999999999904e+00 -5.9293992021468600e-01 +8.1107177852767602e+00 -8.8452183981471788e-01 -1.7015402601581460e+01 -7.3889522639901668e+02 -1.8296305622663620e+05 +1.4484221002506630e+06 
-8.7999999999999794e+00 -5.9294040844237172e-01 +8.1107043215566996e+00 -8.8081870636550719e-01 -1.6646710424722812e+01 -7.9192758302844470e+02 -1.8460792995319367e+05 +1.6564405509602570e+06 
-8.8999999999999808e+00 -5.9294090572589264e-01 +8.1106924732842156e+00 -8.7669958394930270e-01 -1.6289768444854300e+01 -8.5164080576328581e+02 -1.8626792610726928e+05 +1.8916382756551614e+06 
-8.9999999999999805e+00 -5.9294141131976996e-01 +8.1106824050409774e+00 -8.7222634962655221e-01 -1.5948320675450018e+01 -9.1716116022161066e+02 -1.8792729689170094e+05 +2.1508228100139266e+06 
-9.0999999999999801e+00 -5.9294192447861815e-01 +8.1106742814228809e+00 -8.6746087516518200e-01 -1.5626111504091368e+01 -9.8761498267428078e+02 -1.8957029266518410e+05 +2.4308019582230709e+06 
-9.1999999999999797e+00 -5.9294244445706001e-01 +8.1106682670551127e+00 -8.6246503319858314e-01 -1.5326886132827511e+01 -1.0621285692919134e+03 -1.9118115937132403e+05 +2.7283832836069716e+06 
-9.2999999999999794e+00 -5.9294297050980638e-01 +8.1106645265833652e+00 -8.5730069145431764e-01 -1.5054390302905619e+01 -1.1398282831918505e+03 -1.9274414021089996e+05 +3.0403746131544299e+06 
-9.3999999999999808e+00 -5.9294350189156675e-01 +8.1106632246770385e+00 -8.5202971317344445e-01 -1.4812370414740039e+01 -1.2198405389426998e+03 -1.9424347486925073e+05 +3.3635839386194237e+06 
-9.4999999999999805e+00 -5.9294403785711680e-01 +8.1106645260283567e+00 -8.4671395897909540e-01 -1.4604573479470845e+01 -1.3012917787881856e+03 -1.9566339987383992e+05 +3.6948193416225407e+06 
-9.5999999999999801e+00 -5.9294457766127862e-01 +8.1106685953567350e+00 -8.4141528685204015e-01 -1.4434747247675402e+01 -1.3833084601183707e+03 -1.9698814784432747e+05 +4.0308888946418571e+06 
-9.6999999999999797e+00 -5.9294512055897264e-01 +8.1106755974063347e+00 -8.3619554783514960e-01 -1.4306640148825347e+01 -1.4650171472572256e+03 -1.9820194781287698e+05 +4.3686011264292803e+06 
-9.7999999999999794e+00 -5.9294566580506702e-01 +8.1106856969449428e+00 -8.3111659539458238e-01 -1.4224001254157832e+01 -1.5455443250935398e+03 -1.9928902548657669e+05 +4.7047641142013250e+06 
-9.8999999999999808e+00 -5.9294621265455516e-01 +8.1106990587714733e+00 -8.2624027343321405e-01 -1.4190580467867594e+01 -1.6240166290822665e+03 -2.0023360217497958e+05 +5.0361865817649234e+06 
-9.9999999999999805e+00 -5.9294676036251859e-01 +8.1107158477102832e+00 -8.2162842143601955e-01 -1.4210128431652130e+01 -1.6995607482288019e+03 -2.0101989509135403e+05 +5.3596774546364788e+06 
-1.0100000000000000e+01 -5.9294730826158559e-01 +8.1107361211850328e+00 -8.1733236706286383e-01 -1.4284712632496690e+01 -1.7714520596704285e+03 -2.0163722930117702e+05 +5.6725711383566223e+06 
