# multipoles
# s[mm] polynom_b[n=0][T/m^n] polynom_b[n=1][T/m^n] polynom_b[n=2][T/m^n] polynom_b[n=3][T/m^n] polynom_b[n=4][T/m^n] polynom_b[n=5][T/m^n] polynom_b[n=6][T/m^n] 
+0.0000000000000000e+00 -5.6462469373424118e-01 +7.7335874433533114e+00 -7.0169938588361469e-01 -2.6533195055111317e+01 -1.9603600849048007e+03 -9.4423802154254430e+04 +6.6743735190818712e+04 
-1.0000000000000001e-01 -5.6462458384490155e-01 +7.7336225593050276e+00 -6.9092963288861853e-01 -2.7223210847632803e+01 -2.0835882327820350e+03 -9.1964173595529486e+04 +4.7270013878384320e+05 
-2.0000000000000001e-01 -5.6462448580306224e-01 +7.7336582295080314e+00 -6.7992268118244970e-01 -2.7955011134966725e+01 -2.2130683700361856e+03 -8.9261839268119162e+04 +9.1635252976485644e+05 
-3.0000000000000004e-01 -5.6462439898249484e-01 +7.7336941377763999e+00 -6.6871158679762732e-01 -2.8720888295030640e+01 -2.3482346665342448e+03 -8.6352572231912185e+04 +1.3949314075202998e+06 
-4.0000000000000002e-01 -5.6462432275696040e-01 +7.7337299679196203e+00 -6.5732940645892313e-01 -2.9513134546586397e+01 -2.4885212799741748e+03 -8.3272146614979574e+04 +1.9056672124739802e+06 
-5.0000000000000000e-01 -5.6462425650024006e-01 +7.7337654037521206e+00 -6.4580919390475666e-01 -3.0324042252435007e+01 -2.6333624275804168e+03 -8.0056335779772053e+04 +2.4457906739456388e+06 
-5.9999999999999998e-01 -5.6462419958608712e-01 +7.7338001290855480e+00 -6.3418400610988679e-01 -3.1145903682244239e+01 -2.7821922638938186e+03 -7.6740913715431117e+04 +3.0125322157866349e+06 
-6.9999999999999996e-01 -5.6462415138825295e-01 +7.7338338277377803e+00 -6.2248689893002096e-01 -3.1971011268843363e+01 -2.9344449741407921e+03 -7.3361653580270387e+04 +3.6031224310005396e+06 
-7.9999999999999993e-01 -5.6462411128050438e-01 +7.7338661835280469e+00 -6.1075092597660030e-01 -3.2791657477037724e+01 -3.0895547876229693e+03 -6.9954328407392939e+04 +4.2147921230412154e+06 
-8.9999999999999991e-01 -5.6462407863658148e-01 +7.7338968802741723e+00 -5.9900914351762724e-01 -3.3600134710185039e+01 -3.2469558888789243e+03 -6.6554711688651165e+04 +4.8447718951728782e+06 
-9.9999999999999989e-01 -5.6462405283021533e-01 +7.7339256017971190e+00 -5.8729460808303846e-01 -3.4388735455668197e+01 -3.4060824637553037e+03 -6.3198576484323603e+04 +5.4902923706444772e+06 
-1.0999999999999999e+00 -5.6462403323512456e-01 +7.7339520319207340e+00 -5.7564037661815348e-01 -3.5149752272692005e+01 -3.5663686998370540e+03 -5.9921695498768073e+04 +6.1485842039804654e+06 
-1.2000000000000000e+00 -5.6462401922500405e-01 +7.7339758544718640e+00 -5.6407950780061145e-01 -3.5875477777743541e+01 -3.7272487624594582e+03 -5.6759841212101070e+04 +6.8168779697144525e+06 
-1.3000000000000000e+00 -5.6462401017355535e-01 +7.7339967532798681e+00 -5.5264505946569631e-01 -3.6558204653833563e+01 -3.8881568353762450e+03 -5.3748785752601092e+04 +7.4924043339019977e+06 
-1.4000000000000001e+00 -5.6462400545441638e-01 +7.7340144121727041e+00 -5.4137009482980747e-01 -3.7190225526193565e+01 -4.0485270209782816e+03 -5.0924301639478537e+04 +8.1723936282496769e+06 
-1.5000000000000002e+00 -5.6462400444125971e-01 +7.7340285149858303e+00 -5.3028767258991405e-01 -3.7763833215012923e+01 -4.2077935114250540e+03 -4.8322160329469232e+04 +8.8540766185483169e+06 
-1.6000000000000003e+00 -5.6462400650768718e-01 +7.7340387455549173e+00 -5.1943085865958361e-01 -3.8271320529496855e+01 -4.3653903796584755e+03 -4.5978133390468181e+04 +9.5346835501107182e+06 
-1.7000000000000004e+00 -5.6462401102728010e-01 +7.7340447877217695e+00 -5.0883272011882419e-01 -3.8704980440219941e+01 -4.5207516890742027e+03 -4.3927991487788029e+04 +1.0211444652541356e+07 
-1.8000000000000005e+00 -5.6462401737362411e-01 +7.7340463253241758e+00 -4.9852632230233124e-01 -3.9057105777659892e+01 -4.6733115508296305e+03 -4.2207506152382106e+04 +1.0881590419979936e+07 
-1.9000000000000006e+00 -5.6462402492022301e-01 +7.7340430422103035e+00 -4.8854473887557298e-01 -3.9319989653523905e+01 -4.8225039350674524e+03 -4.0852447320122410e+04 +1.1542350717048362e+07 
-2.0000000000000004e+00 -5.6462403304058784e-01 +7.7340346222297391e+00 -4.7892104152788700e-01 -3.9485925198517606e+01 -4.9677628659323373e+03 -3.9898584843356584e+04 +1.2190955709354272e+07 
-2.1000000000000005e+00 -5.6462404114461884e-01 +7.7340208692530261e+00 -4.6968479853875933e-01 -3.9549782706003811e+01 -5.1085576564291769e+03 -3.9370083918660137e+04 +1.2824750725271124e+07 
-2.2000000000000006e+00 -5.6462404879152051e-01 +7.7340020673733134e+00 -4.6085267502765082e-01 -3.9516764744996479e+01 -5.2444741674048310e+03 -3.9244583423274657e+04 +1.3441435375752872e+07 
-2.3000000000000007e+00 -5.6462405557868722e-01 +7.7339786208025645e+00 -4.5243839516027012e-01 -3.9394663389085835e+01 -5.3751211089354665e+03 -3.9488062936010043e+04 +1.4038770658431502e+07 
-2.4000000000000008e+00 -5.6462406110352126e-01 +7.7339509337476642e+00 -4.4445568266696017e-01 -3.9191270560760501e+01 -5.5001071956187698e+03 -4.0066502897658262e+04 +1.4614517583074858e+07 
-2.5000000000000009e+00 -5.6462406496343698e-01 +7.7339194104225006e+00 -4.3691825980826288e-01 -3.8914378380037654e+01 -5.6190411687149281e+03 -4.0945882585125255e+04 +1.5166437281980392e+07 
-2.6000000000000010e+00 -5.6462406675587296e-01 +7.7338844550442278e+00 -4.2983984659749130e-01 -3.8571779070700842e+01 -5.7315318078581176e+03 -4.2092180613753990e+04 +1.5692291060685361e+07 
-2.7000000000000011e+00 -5.6462406607826410e-01 +7.7338464718235844e+00 -4.2323416363559035e-01 -3.8171264664856267e+01 -5.8371878802521478e+03 -4.3471376680118767e+04 +1.6189840162845371e+07 
-2.8000000000000012e+00 -5.6462406252805730e-01 +7.7338058649801695e+00 -4.1711493117693932e-01 -3.7720627453761288e+01 -5.9356181506738621e+03 -4.5049448931782936e+04 +1.6656845797913348e+07 
-2.9000000000000012e+00 -5.6462405570276153e-01 +7.7337630387310359e+00 -4.1149586243886149e-01 -3.7227659661173476e+01 -6.0264315113112152e+03 -4.6792375836463805e+04 +1.7091069766374324e+07 
-3.0000000000000013e+00 -5.6462404519983200e-01 +7.7337183972925043e+00 -4.0639067794159506e-01 -3.6700153495482716e+01 -6.1092367110169525e+03 -4.8666135887878168e+04 +1.7490273176493850e+07 
-3.1000000000000014e+00 -5.6462403061682997e-01 +7.7336723448860871e+00 -4.0181308688844691e-01 -3.6145901325941622e+01 -6.1836426991812932e+03 -5.0636706554698998e+04 +1.7852218054933570e+07 
-3.2000000000000015e+00 -5.6462401155127606e-01 +7.7336252857294507e+00 -3.9777680408989707e-01 -3.5572695408843003e+01 -6.2492583107828996e+03 -5.2670065910135760e+04 +1.8174665863777779e+07 
-3.3000000000000016e+00 -5.6462398760077104e-01 +7.7335776240467515e+00 -3.9429553593235350e-01 -3.4988328204821478e+01 -6.3056925315914386e+03 -5.4732190730523973e+04 +1.8455378763015646e+07 
-3.4000000000000017e+00 -5.6462395836292600e-01 +7.7335297640561409e+00 -3.9138298930287896e-01 -3.4400592017088002e+01 -6.3525543204223659e+03 -5.6789058587673397e+04 +1.8692118739644129e+07 
-3.5000000000000018e+00 -5.6462392343537604e-01 +7.7334821099809101e+00 -3.8905286946657758e-01 -3.3817279294971136e+01 -6.3894526554361282e+03 -5.8806646145914870e+04 +1.8882647845255848e+07 
-3.6000000000000019e+00 -5.6462388241580019e-01 +7.7334350660448061e+00 -3.8731887787977037e-01 -3.3246182532707415e+01 -6.4159965735429196e+03 -6.0750929640234623e+04 +1.9024728379293036e+07 
-3.7000000000000020e+00 -5.6462383490194545e-01 +7.7333890364680880e+00 -3.8619471008466588e-01 -3.2695094128862735e+01 -6.4317952019534096e+03 -6.2587885767085609e+04 +1.9116123015139710e+07 
-3.8000000000000020e+00 -5.6462378049155704e-01 +7.7333444254754475e+00 -3.8569406278814883e-01 -3.2171806627663678e+01 -6.4364576360816181e+03 -6.4283490248296403e+04 +1.9154594253649473e+07 
-3.9000000000000021e+00 -5.6462371878246320e-01 +7.7333016372857157e+00 -3.8583062542664454e-01 -3.1684112424273010e+01 -6.4295930856958612e+03 -6.5803719519709513e+04 +1.9137905081834860e+07 
-4.0000000000000018e+00 -5.6462364937252285e-01 +7.7332610761262908e+00 -3.8661808572849954e-01 -3.1239804185068621e+01 -6.4108107732380349e+03 -6.7114548292177715e+04 +1.9063818497922588e+07 
-4.1000000000000014e+00 -5.6462357193679913e-01 +7.7332230724837210e+00 -3.8806882387688141e-01 -3.0845077435021189e+01 -6.3798148551348040e+03 -6.8189496161467439e+04 +1.8930750679089434e+07 
-4.2000000000000011e+00 -5.6462348645322613e-01 +7.7331876591779301e+00 -3.9018881117564486e-01 -3.0499486972073203e+01 -6.3367166721697249e+03 -6.9033933178789550e+04 +1.8739858234691240e+07 
-4.3000000000000007e+00 -5.6462339297387354e-01 +7.7331547938675689e+00 -3.9298213295038104e-01 -3.0200862760924988e+01 -6.2817363222712729e+03 -6.9661615824312597e+04 +1.8493015986379433e+07 
-4.4000000000000004e+00 -5.6462329155084467e-01 +7.7331244342232655e+00 -3.9645287103436366e-01 -2.9947035058451359e+01 -6.2150939669757227e+03 -7.0086299105795144e+04 +1.8192099055068519e+07 
-4.5000000000000000e+00 -5.6462318223623453e-01 +7.7330965379166559e+00 -4.0060510967004609e-01 -2.9735834114526426e+01 -6.1370097147250535e+03 -7.0321738248281996e+04 +1.7838982294274721e+07 
-4.5999999999999996e+00 -5.6462306508213067e-01 +7.7330710626330008e+00 -4.0544293463532283e-01 -2.9565090512424426e+01 -6.0477036420572322e+03 -7.0381686800812808e+04 +1.7435540404123481e+07 
-4.6999999999999993e+00 -5.6462294014062264e-01 +7.7330479660664659e+00 -4.1097043286033574e-01 -2.9432635045842073e+01 -5.9473957964565188e+03 -7.0279897318179297e+04 +1.6983647931984063e+07 
-4.7999999999999989e+00 -5.6462280746380633e-01 +7.7330272059181659e+00 -4.1719169133149520e-01 -2.9336298643258058e+01 -5.8363062204243770e+03 -7.0030121858671962e+04 +1.6485179397377983e+07 
-4.8999999999999986e+00 -5.6462266710375975e-01 +7.7330087399035525e+00 -4.2411080024133813e-01 -2.9273912598353078e+01 -5.7146548919533625e+03 -6.9646110605736612e+04 +1.5942009008719631e+07 
-4.9999999999999982e+00 -5.6462251911256001e-01 +7.7329925257419427e+00 -4.3173185135557302e-01 -2.9243308255169364e+01 -5.5826617505315080e+03 -6.9141613731670761e+04 +1.5356010774260722e+07 
-5.0999999999999979e+00 -5.6462236354226825e-01 +7.7329785211697111e+00 -4.4005893938124574e-01 -2.9242317380024975e+01 -5.4405466770630783e+03 -6.8530379279169385e+04 +1.4729058423103150e+07 
-5.1999999999999975e+00 -5.6462220044499623e-01 +7.7329666839288862e+00 -4.4909615418510024e-01 -2.9268771847631090e+01 -5.2885296357725028e+03 -6.7826154941873654e+04 +1.4063026063622836e+07 
-5.2999999999999972e+00 -5.6462202987277454e-01 +7.7329569717772024e+00 -4.5884759645917306e-01 -2.9320503902447086e+01 -5.1268303836422683e+03 -6.7042686631757504e+04 +1.3359786820439722e+07 
-5.3999999999999968e+00 -5.6462185187768177e-01 +7.7329493424834110e+00 -4.6931736243376798e-01 -2.9395346051579136e+01 -4.9556687550578781e+03 -6.6193719033806148e+04 +1.2621214174417105e+07 
-5.4999999999999964e+00 -5.6462166651176637e-01 +7.7329437538250634e+00 -4.8050955354298308e-01 -2.9491130978066771e+01 -4.7752644786159244e+03 -6.5292996169907645e+04 +1.1849181091571622e+07 
-5.5999999999999961e+00 -5.6462147382707317e-01 +7.7329401635949813e+00 -4.9242827290506036e-01 -2.9605691722136079e+01 -4.5858372446079247e+03 -6.4354260383006622e+04 +1.1045560344912685e+07 
-5.6999999999999957e+00 -5.6462127387564143e-01 +7.7329385295984006e+00 -5.0507762552996804e-01 -2.9736861614146857e+01 -4.3876067037622743e+03 -6.3391252675203628e+04 +1.0212224518660244e+07 
-5.7999999999999954e+00 -5.6462106670951162e-01 +7.7329388096540912e+00 -5.1846171761258619e-01 -2.9882474290970286e+01 -4.1807924784098377e+03 -6.2417712670329034e+04 +9.3510460540472437e+06 
-5.8999999999999950e+00 -5.6462085238067861e-01 +7.7329409615920941e+00 -5.3258466255441417e-01 -3.0040363625958999e+01 -3.9656140462180992e+03 -6.1447379041618893e+04 +8.4638966901504770e+06 
-5.9999999999999947e+00 -5.6462063094118697e-01 +7.7329449432603399e+00 -5.4745056917530543e-01 -3.0208363930513041e+01 -3.7422909632946721e+03 -6.0493988302137208e+04 +7.5526485247861380e+06 
-6.0999999999999943e+00 -5.6462040268070635e-01 +7.7329506752335071e+00 -5.6304433113644303e-01 -3.0383960215144739e+01 -3.5112218536412679e+03 -5.9571901981680137e+04 +6.6195432886351850e+06 
-6.1999999999999940e+00 -5.6462016884386168e-01 +7.7329579345693134e+00 -5.7927186152747934e-01 -3.0563785015932421e+01 -3.2735457239538509e+03 -5.8694252371311151e+04 +5.6683700349213770e+06 
-6.2999999999999936e+00 -5.6461993091534057e-01 +7.7329664638036002e+00 -5.9601877899548217e-01 -3.0744396749915630e+01 -3.0305920260326534e+03 -5.7872910844530605e+04 +4.7033159468896231e+06 
-6.3999999999999932e+00 -5.6461969037975379e-01 +7.7329760054445860e+00 -6.1317070935176943e-01 -3.0922353213930890e+01 -2.7836900888874311e+03 -5.7119751642228468e+04 +3.7285676512818546e+06 
-6.4999999999999929e+00 -5.6461944872173897e-01 +7.7329863019701710e+00 -6.3061327280804980e-01 -3.1094211484315103e+01 -2.5341693642147734e+03 -5.6446652485115075e+04 +2.7483123956856327e+06 
-6.5999999999999925e+00 -5.6461920742585292e-01 +7.7329970958273906e+00 -6.4823209666123904e-01 -3.1256527922428358e+01 -2.2833591869520842e+03 -5.5865494458629677e+04 +1.7667369085583470e+06 
-6.6999999999999922e+00 -5.6461896797661693e-01 +7.7330081294325197e+00 -6.6591281012572456e-01 -3.1405858170493651e+01 -2.0325888754665116e+03 -5.5388162056729547e+04 +7.8802788753048202e+05 
-6.7999999999999918e+00 -5.6461873185854661e-01 +7.7330191451635262e+00 -6.8354103992989812e-01 -3.1538756946176900e+01 -1.7831878147608613e+03 -5.5026544320043817e+04 -1.8362761254974236e+05 
-6.8999999999999915e+00 -5.6461850055607499e-01 +7.7330298853708310e+00 -7.0100242003613300e-01 -3.1651778372615343e+01 -1.5364852720803440e+03 -5.4792532856162936e+04 -1.1440430544699277e+06 
-6.9999999999999911e+00 -5.6461827555361654e-01 +7.7330400923635914e+00 -7.1818258362820364e-01 -3.1741475566429685e+01 -1.2938105525929491e+03 -5.4698024266989290e+04 -2.0890316667208336e+06 
-7.0999999999999908e+00 -5.6461805833554712e-01 +7.7330495084135693e+00 -7.3496716580639032e-01 -3.1804400778055260e+01 -1.0564929424485522e+03 -5.4754919237710179e+04 -3.0144067342253844e+06 
-7.1999999999999904e+00 -5.6461785038617818e-01 +7.7330578757571846e+00 -7.5124180546238173e-01 -3.1837105443189152e+01 -8.2586168493993114e+02 -5.4975122253686699e+04 -3.9159816780010443e+06 
-7.2999999999999901e+00 -5.6461765318978230e-01 +7.7330649365875725e+00 -7.6689214338263911e-01 -3.1836139968760374e+01 -6.0324600619831335e+02 -5.5370542783447432e+04 -4.7895699619690329e+06 
-7.3999999999999897e+00 -5.6461746823060066e-01 +7.7330704330578444e+00 -7.8180382053604325e-01 -3.1798053830883376e+01 -3.8997515443456416e+02 -5.5953094689483012e+04 -5.6309848883187482e+06 
-7.4999999999999893e+00 -5.6461729699280627e-01 +7.7330741072767353e+00 -7.9586248258246439e-01 -3.1719395454872796e+01 -1.8737831404649950e+02 -5.6734696902435768e+04 -6.4360400071020946e+06 
-7.5999999999999890e+00 -5.6461714096052495e-01 +7.7330757013148457e+00 -8.0895377684400138e-01 -3.1596712412641480e+01 +3.2153350868207502e+00 -5.7727272206096321e+04 -7.2005488314800775e+06 
-7.6999999999999886e+00 -5.6461700161783412e-01 +7.7330749571900146e+00 -8.2096335295154255e-01 -3.1426550991674279e+01 +1.8047663079047086e+02 -5.8942749758585021e+04 -7.9203249002307868e+06 
-7.7999999999999883e+00 -5.6461688044875447e-01 +7.7330716168753018e+00 -8.3177686350642821e-01 -3.1205456442982459e+01 +3.4307644094507691e+02 -6.0393063591168291e+04 -8.5911818387250584e+06 
-7.8999999999999879e+00 -5.6461677893725992e-01 +7.7330654222991200e+00 -8.4127996251713366e-01 -3.0929972985304357e+01 +4.8968563130387901e+02 -6.2090152570580925e+04 -9.2089331998525094e+06 
-7.9999999999999876e+00 -5.6461669856725305e-01 +7.7330561153402124e+00 -8.4935830836127113e-01 -3.0596643710565306e+01 +6.1897511544117344e+02 -6.4045960850982774e+04 -9.7693926841320507e+06 
-8.0999999999999872e+00 -5.6461664044538096e-01 +7.7330435309600505e+00 -8.5593042958249155e-01 -3.0203905834530154e+01 +7.2997033811307017e+02 -6.6263241584947376e+04 -1.0269366912243169e+07 
-8.1999999999999869e+00 -5.6461660418272031e-01 +7.7330278710150901e+00 -8.6104946519114645e-01 -2.9756868963546012e+01 +8.2317330261372535e+02 -6.8714277805036560e+04 -1.0709900915523304e+07 
-8.2999999999999865e+00 -5.6461658901920586e-01 +7.7330094279536814e+00 -8.6480305738181373e-01 -2.9262086106637827e+01 +8.9946847342785088e+02 -7.1365306217890567e+04 -1.1093153567152154e+07 
-8.3999999999999861e+00 -5.6461659419483312e-01 +7.7329884942525435e+00 -8.6727884209736872e-01 -2.8726110823555317e+01 +9.5974020253102378e+02 -7.4182561458929486e+04 -1.1421283231901493e+07 
-8.4999999999999858e+00 -5.6461661894967596e-01 +7.7329653624183967e+00 -8.6856444692968982e-01 -2.8155497334840280e+01 +1.0048726939700119e+03 -7.7132275382484018e+04 -1.1696447604677347e+07 
-8.5999999999999854e+00 -5.6461666252387066e-01 +7.7329403249794844e+00 -8.6874749287238684e-01 -2.7556800232385129e+01 +1.0357500400724530e+03 -8.0180678887871094e+04 -1.1920803893587861e+07 
-8.6999999999999851e+00 -5.6461672415761777e-01 +7.7329136744987883e+00 -8.6791559469863366e-01 -2.6936574895899078e+01 +1.0532562288287061e+03 -8.3293999415071987e+04 -1.2096508852920089e+07 
-8.7999999999999847e+00 -5.6461680309119666e-01 +7.7328857035667928e+00 -8.6615635887407927e-01 -2.6301377241007241e+01 +1.0582751051574805e+03 -8.6438462553029734e+04 -1.2225718603406705e+07 
-8.8999999999999844e+00 -5.6461689856496167e-01 +7.7328567048066752e+00 -8.6355738392277048e-01 -2.5657763882307439e+01 +1.0516903740757841e+03 -8.9580291065381010e+04 -1.2310588635461919e+07 
-8.9999999999999840e+00 -5.6461700981935614e-01 +7.7328269708729813e+00 -8.6020625965599773e-01 -2.5012292074706252e+01 +1.0343855970760962e+03 -9.2685705311123238e+04 -1.2353273823615689e+07 
-9.0999999999999837e+00 -5.6461713609488329e-01 +7.7327967944532929e+00 -8.5619056943973082e-01 -2.4371519765589802e+01 +1.0072442228407252e+03 -9.5720922940161079e+04 -1.2355928538345434e+07 
-9.1999999999999833e+00 -5.6461727663214500e-01 +7.7327664682702499e+00 -8.5159788649949109e-01 -2.3742005632057399e+01 +9.7114952520917598e+02 -9.8652158757903671e+04 -1.2320706373105526e+07 
-9.2999999999999829e+00 -5.6461743067181203e-01 +7.7327362850837265e+00 -8.4651577704043046e-01 -2.3130309147762368e+01 +9.2698466093022739e+02 -1.0144562434025033e+05 -1.2249760416320883e+07 
-9.3999999999999826e+00 -5.6461759745466211e-01 +7.7327065376872630e+00 -8.4103179646627313e-01 -2.2542990462377134e+01 +8.7563260087331605e+02 -1.0406752880275241e+05 -1.2145242930311374e+07 
-9.4999999999999822e+00 -5.6461777622154763e-01 +7.7326775189150521e+00 -8.3523349239320388e-01 -2.1986610604217869e+01 +8.1797618327951852e+02 -1.0648407763493057e+05 -1.2009305595468523e+07 
-9.5999999999999819e+00 -5.6461796621340621e-01 +7.7326495216354720e+00 -8.2920840386591677e-01 -2.1467731280136469e+01 +7.5489810247768673e+02 -1.0866147391636476e+05 -1.1844099467102773e+07 
-9.6999999999999815e+00 -5.6461816667128906e-01 +7.7326228387608875e+00 -8.2304405801536096e-01 -2.0992915153355469e+01 +6.8728084448592483e+02 -1.1056591673374060e+05 -1.1651774664030151e+07 
-9.7999999999999812e+00 -5.6461837683634164e-01 +7.7325977632431764e+00 -8.1682797273630903e-01 -2.0568725700098245e+01 +6.1600674263000280e+02 -1.1216360207694776e+05 -1.1434480649284899e+07 
-9.8999999999999808e+00 -5.6461859594978681e-01 +7.7325745880762771e+00 -8.1064765762434388e-01 -2.0201727283139547e+01 +5.4195798560793469e+02 -1.1342072241758069e+05 -1.1194366240094870e+07 
-9.9999999999999805e+00 -5.6461882325296486e-01 +7.7325536062934148e+00 -8.0459061099229612e-01 -1.9898484992573078e+01 +4.6601658452313990e+02 -1.1430346779771429e+05 -1.0933579516878346e+07 
-1.0099999999999980e+01 -5.6461905812854774e-01 +7.7325350572300229e+00 -7.9872726271716377e-01 -1.9664012704298752e+01 +3.8891135861785318e+02 -1.1478699068067694e+05 -1.0654007831534581e+07 
