# multipoles
# s[mm] polynom_b[n=0][T/m^n] polynom_b[n=1][T/m^n] polynom_b[n=2][T/m^n] polynom_b[n=3][T/m^n] polynom_b[n=4][T/m^n] polynom_b[n=5][T/m^n] polynom_b[n=6][T/m^n] 
+0.0000000000000000e+00 -5.3839513983143750e-01 +7.3538558551112923e+00 -7.5949774294935479e-01 +5.0287821411837037e+01 +8.2341293833727141e+03 -3.9575149362025672e+05 -3.4358465204412468e+07 
-1.0000000000000001e-01 -5.3839523455485760e-01 +7.3538776172455451e+00 -7.6224090156923330e-01 +4.9934409236236661e+01 +8.2760844709572975e+03 -3.9374383922384615e+05 -3.4566414503676325e+07 
-2.0000000000000001e-01 -5.3839533447295462e-01 +7.3539034271063795e+00 -7.6463109795120521e-01 +4.9469696248473916e+01 +8.3119390484621599e+03 -3.9117327452946518e+05 -3.4745960993661754e+07 
-3.0000000000000004e-01 -5.3839543999634309e-01 +7.3539328475656980e+00 -7.6664543821637876e-01 +4.8904659192286672e+01 +8.3414274572575414e+03 -3.8809338091197045e+05 -3.4896409877173916e+07 
-4.0000000000000002e-01 -5.3839555153566210e-01 +7.3539654414910967e+00 -7.6826102568363319e-01 +4.8250274940039958e+01 +8.3642839926577562e+03 -3.8455774050834693e+05 -3.5017066162242569e+07 
-5.0000000000000000e-01 -5.3839566950158380e-01 +7.3540007717563727e+00 -7.6945495961940980e-01 +4.7517520181478176e+01 +8.3802428751967636e+03 -3.8061993440124160e+05 -3.5107234508078031e+07 
-5.9999999999999998e-01 -5.3839579430474338e-01 +7.3540384012220485e+00 -7.7020434436689666e-01 +4.6717371980219198e+01 +8.3890384282897758e+03 -3.7633354580735404e+05 -3.5166220084236972e+07 
-6.9999999999999996e-01 -5.3839592635581512e-01 +7.3540778927559511e+00 -7.7048627874733200e-01 +4.5860807192871356e+01 +8.3904048675248359e+03 -3.7175215675108804e+05 -3.5193327541160889e+07 
-7.9999999999999993e-01 -5.3839606606547574e-01 +7.3541188092172076e+00 -7.7027786168498036e-01 +4.4958802915064325e+01 +8.3840764137789320e+03 -3.6692935060105490e+05 -3.5187861565524407e+07 
-8.9999999999999991e-01 -5.3839621384437275e-01 +7.3541607134631306e+00 -7.6955619513060491e-01 +4.4022336287676254e+01 +8.3697873422894827e+03 -3.6191871094540146e+05 -3.5149127095377013e+07 
-9.9999999999999989e-01 -5.3839637010318842e-01 +7.3542031683485511e+00 -7.6829837670196943e-01 +4.3062384526589661e+01 +8.3472718456297225e+03 -3.5677382180365705e+05 -3.5076428676615842e+07 
-1.0999999999999999e+00 -5.3839653525255138e-01 +7.3542457367254137e+00 -7.6648151016168797e-01 +4.2089924909047951e+01 +8.3162642258484429e+03 -3.5154826745917811e+05 -3.4969071354684219e+07 
-1.2000000000000000e+00 -5.3839670970311104e-01 +7.3542879814352800e+00 -7.6408269614185709e-01 +4.1115935015607533e+01 +8.2764987223884582e+03 -3.4629563393184758e+05 -3.4826359871903613e+07 
-1.3000000000000000e+00 -5.3839689386549383e-01 +7.3543294653236950e+00 -7.6107903797138698e-01 +4.0151392297823229e+01 +8.2277096196940875e+03 -3.4106950642258994e+05 -3.4647599165387429e+07 
-1.4000000000000001e+00 -5.3839708815030263e-01 +7.3543697512267165e+00 -7.5744764112384333e-01 +3.9207274467878882e+01 +8.1696312359544090e+03 -3.3592347156000667e+05 -3.4432094315213829e+07 
-1.5000000000000002e+00 -5.3839729296814021e-01 +7.3544084019762748e+00 -7.5316560995229120e-01 +3.8294559355907353e+01 +8.1019978550551996e+03 -3.3091111661069450e+05 -3.4179150201834589e+07 
-1.6000000000000003e+00 -5.3839750872956749e-01 +7.3544449803992498e+00 -7.4821005397013574e-01 +3.7424224914045524e+01 +8.0245438526449552e+03 -3.2608602942652145e+05 -3.3888072123601101e+07 
-1.7000000000000004e+00 -5.3839773584509254e-01 +7.3544790493148584e+00 -7.4255808783936450e-01 +3.6607249314723340e+01 +7.9370036876657623e+03 -3.2150179908036202e+05 -3.3558165735174015e+07 
-1.8000000000000005e+00 -5.3839797472526751e-01 +7.3545101715397276e+00 -7.3618681990211476e-01 +3.5854610785937332e+01 +7.8391116860529119e+03 -3.1721201484991505e+05 -3.3188736021644689e+07 
-1.9000000000000006e+00 -5.3839822578053897e-01 +7.3545379098795944e+00 -7.2907337093945801e-01 +3.5177287855698324e+01 +7.7306023976249580e+03 -3.1327026764304598e+05 -3.2779088996846478e+07 
-2.0000000000000004e+00 -5.3839848942135515e-01 +7.3545618271400199e+00 -7.2119485989604304e-01 +3.4586259048335833e+01 +7.6112103184510670e+03 -3.0973014825364162e+05 -3.2328530365809113e+07 
-2.1000000000000005e+00 -5.3839876581288582e-01 +7.3545815841433200e+00 -7.1254774457523329e-01 +3.4090280061030086e+01 +7.4809133497470866e+03 -3.0663555808631872e+05 -3.1837141285260912e+07 
-2.2000000000000006e+00 -5.3839905414140787e-01 +7.3545972333466647e+00 -7.0320685895563206e-01 +3.3689305757741501e+01 +7.3406868389119472e+03 -3.0399241881013964e+05 -3.1308204422399789e+07 
-2.3000000000000007e+00 -5.3839935334902578e-01 +7.3546089250150617e+00 -6.9326688620014632e-01 +3.3381113403520281e+01 +7.1917613720620884e+03 -3.0179735439479188e+05 -3.0745827044330709e+07 
-2.4000000000000008e+00 -5.3839966237778814e-01 +7.3546168094167568e+00 -6.8282251653340509e-01 +3.3163480183983864e+01 +7.0353676696849252e+03 -3.0004698848624440e+05 -3.0154117049734633e+07 
-2.5000000000000009e+00 -5.3839998016975577e-01 +7.3546210368343834e+00 -6.7196843886732749e-01 +3.3034182904358168e+01 +6.8727364288130939e+03 -2.9873794273959717e+05 -2.9537182220537920e+07 
-2.6000000000000010e+00 -5.3840030566698416e-01 +7.3546217575499950e+00 -6.6079934337038393e-01 +3.2990998421477315e+01 +6.7050983736270446e+03 -2.9786683932498324e+05 -2.8899130466879085e+07 
-2.7000000000000011e+00 -5.3840063781149738e-01 +7.3546191218602806e+00 -6.4940992444171297e-01 +3.3031703187237504e+01 +6.5336843112563447e+03 -2.9743029825891723e+05 -2.8244070089571912e+07 
-2.8000000000000012e+00 -5.3840097554531907e-01 +7.3546132800694410e+00 -6.3789487677736068e-01 +3.3154073481150903e+01 +6.3597250555667624e+03 -2.9742493883637496e+05 -2.7576109412581783e+07 
-2.9000000000000012e+00 -5.3840131781047973e-01 +7.3546043824942000e+00 -6.2634889528886106e-01 +3.3355885261853658e+01 +6.1844514345332163e+03 -2.9784737876875926e+05 -2.6899356842541635e+07 
-3.0000000000000013e+00 -5.3840166354899055e-01 +7.3545925794637643e+00 -6.1486667729791478e-01 +3.3634914162356225e+01 +6.0090943213735309e+03 -2.9869423416301829e+05 -2.6217920986762721e+07 
-3.1000000000000014e+00 -5.3840201170285562e-01 +7.3545780213167040e+00 -6.0354292221117622e-01 +3.3988935595368240e+01 +5.8348846393176036e+03 -2.9996212017783616e+05 -2.5535910704268545e+07 
-3.2000000000000015e+00 -5.3840236121407747e-01 +7.3545608584099860e+00 -5.9247233037408720e-01 +3.4415724495809926e+01 +5.6630533357263985e+03 -3.0164764956575457e+05 -2.4857434971385527e+07 
-3.3000000000000016e+00 -5.3840271102464388e-01 +7.3545412411171878e+00 -5.8174960495810701e-01 +3.4913055357128300e+01 +5.4948314204657372e+03 -3.0374743284750136e+05 -2.4186603070079688e+07 
-3.4000000000000017e+00 -5.3840306007656058e-01 +7.3545193198221011e+00 -5.7146944753744477e-01 +3.5478702455115176e+01 +5.3314498802093995e+03 -3.0625807973395509e+05 -2.3527524176037095e+07 
-3.5000000000000018e+00 -5.3840340731180225e-01 +7.3544952449307006e+00 -5.6172656457784864e-01 +3.6110439460701180e+01 +5.1741398031471490e+03 -3.0917619677875290e+05 -2.2884307952735703e+07 
-3.6000000000000019e+00 -5.3840375167235610e-01 +7.3544691668663615e+00 -5.5261566267229545e-01 +3.6806039616088263e+01 +5.0241322944602234e+03 -3.1249838852355356e+05 -2.2261064166586090e+07 
-3.7000000000000020e+00 -5.3840409210021012e-01 +7.3544412360730798e+00 -5.4423144895013476e-01 +3.7563275635884445e+01 +4.8826584777958251e+03 -3.1622125691495201e+05 -2.1661902676085398e+07 
-3.8000000000000020e+00 -5.3840442753731932e-01 +7.3544116030114841e+00 -5.3666863625365280e-01 +3.8379919814194501e+01 +4.7509495988188746e+03 -3.2034140192477440e+05 -2.1090933936689299e+07 
-3.9000000000000021e+00 -5.3840475692569023e-01 +7.3543804181702219e+00 -5.3002193216888260e-01 +3.9253743710552484e+01 +4.6302368155453451e+03 -3.2485541978059115e+05 -2.0552267999768756e+07 
-4.0000000000000018e+00 -5.3840507920728686e-01 +7.3543478320532829e+00 -5.2438605117868486e-01 +4.0182518523219720e+01 +4.5217514313193751e+03 -3.2975990515242337e+05 -2.0050015625193026e+07 
-4.1000000000000014e+00 -5.3840539360510564e-01 +7.3543140171190560e+00 -5.1983119884172813e-01 +4.1162964800884090e+01 +4.4264589028395203e+03 -3.3504335571224202e+05 -1.9587617987176489e+07 
-4.2000000000000011e+00 -5.3840570047845693e-01 +7.3542792364422729e+00 -5.1632841771404669e-01 +4.2187223528848619e+01 +4.3442559897442115e+03 -3.4065896125894651e+05 -1.9165893923696939e+07 
-4.3000000000000007e+00 -5.3840600047399845e-01 +7.3542437765267668e+00 -5.1382365364161786e-01 +4.3246192173567124e+01 +4.2747710342832443e+03 -3.4655031735353684e+05 -1.8785022994990364e+07 
-4.4000000000000004e+00 -5.3840629423839204e-01 +7.3542079238667579e+00 -5.1226285139472671e-01 +4.4330768380688994e+01 +4.2176323620493522e+03 -3.5266102007623576e+05 -1.8445184716085423e+07 
-4.5000000000000000e+00 -5.3840658241837114e-01 +7.3541719649484945e+00 -5.1159194747732573e-01 +4.5431849948761453e+01 +4.1724681512278903e+03 -3.5893466592938465e+05 -1.8146557948526915e+07 
-4.5999999999999996e+00 -5.3840686566070006e-01 +7.3541361862463965e+00 -5.1175687419872862e-01 +4.6540334920453716e+01 +4.1389065042956854e+03 -3.6531485228145804e+05 -1.7889321229324829e+07 
-4.6999999999999993e+00 -5.3840714461218220e-01 +7.3541008742287532e+00 -5.1270355930308442e-01 +4.7647121416265676e+01 +4.1165754452951996e+03 -3.7174517638905591e+05 -1.7673652770845760e+07 
-4.7999999999999989e+00 -5.3840741991968222e-01 +7.3540663153480956e+00 -5.1437792272333460e-01 +4.8743107912584847e+01 +4.1051028562361598e+03 -3.7816923697908560e+05 -1.7499730155385967e+07 
-4.8999999999999986e+00 -5.3840769223012030e-01 +7.3540327960449607e+00 -5.1672587751070953e-01 +4.9819193114644413e+01 +4.1041164955681988e+03 -3.8453063344540534e+05 -1.7367730426355466e+07 
-4.9999999999999982e+00 -5.3840796219046150e-01 +7.3540006027498066e+00 -5.1969333091774017e-01 +5.0866275905200965e+01 +4.1132440162245057e+03 -3.9077296554740082e+05 -1.7277830168176915e+07 
-5.0999999999999979e+00 -5.3840823044772901e-01 +7.3539700218754511e+00 -5.2322618333440141e-01 +5.1875255556824968e+01 +4.1321129536655908e+03 -3.9683983459301683e+05 -1.7230205476147100e+07 
-5.1999999999999975e+00 -5.3840849764901122e-01 +7.3539413398226410e+00 -5.2727032671962382e-01 +5.2837031557674791e+01 +4.1603506864377641e+03 -4.0267484238081053e+05 -1.7225031740813557e+07 
-5.2999999999999972e+00 -5.3840876444144981e-01 +7.3539148429727561e+00 -5.3177164625251039e-01 +5.3742503821762490e+01 +4.1975844739866861e+03 -4.0822159239294077e+05 -1.7262483850474074e+07 
-5.3999999999999968e+00 -5.3840903147227015e-01 +7.3538908176925846e+00 -5.3667601671412957e-01 +5.4582572539621516e+01 +4.2434413855678758e+03 -4.1342368888089125e+05 -1.7342735845895577e+07 
-5.4999999999999964e+00 -5.3840929938874960e-01 +7.3538695503319955e+00 -5.4192930622163671e-01 +5.5348138249716335e+01 +4.2975483713500626e+03 -4.1822473726603127e+05 -1.7465961261259340e+07 
-5.5999999999999961e+00 -5.3840956883823243e-01 +7.3538513272196164e+00 -5.4747737464851842e-01 +5.6030101945402137e+01 +4.3595322367806466e+03 -4.2256834469926090e+05 -1.7632333017374340e+07 
-5.6999999999999957e+00 -5.3840984046817564e-01 +7.3538364346675467e+00 -5.5326606752658403e-01 +5.6619364942055874e+01 +4.4290195204787833e+03 -4.2639811926731159e+05 -1.7842022823358435e+07 
-5.7999999999999954e+00 -5.3841011492605129e-01 +7.3538251589665746e+00 -5.5924122858847924e-01 +5.7106829001915258e+01 +4.5056367381509435e+03 -4.2965767067255784e+05 -1.8095202354998436e+07 
-5.8999999999999950e+00 -5.3841039285945635e-01 +7.3538177863825824e+00 -5.6534868535222593e-01 +5.7483396436710656e+01 +4.5890101024101305e+03 -4.3229061078970315e+05 -1.8392041906477347e+07 
-5.9999999999999947e+00 -5.3841067491605854e-01 +7.3538146031641265e+00 -5.7153425690374671e-01 +5.7739969874817739e+01 +4.6787656805734487e+03 -4.3424055229283206e+05 -1.8732711171467707e+07 
-6.0999999999999943e+00 -5.3841096176097614e-01 +7.3538158124046245e+00 -5.7774321166468823e-01 +5.7869977420256753e+01 +4.7744076400860558e+03 -4.3546616864164546e+05 -1.9116469304997493e+07 
-6.1999999999999940e+00 -5.3841125410397184e-01 +7.3538212750414518e+00 -5.8391874405354804e-01 +5.7877545570120930e+01 +4.8749187358728823e+03 -4.3599044442648196e+05 -1.9538655507576223e+07 
-6.2999999999999936e+00 -5.3841155265962948e-01 +7.3538307638042291e+00 -5.9000354375949249e-01 +5.7769637334309110e+01 +4.9791415008536624e+03 -4.3585354796194733e+05 -1.9993549651809026e+07 
-6.3999999999999932e+00 -5.3841185814251347e-01 +7.3538440514183403e+00 -5.9594030339002435e-01 +5.7553215894688250e+01 +5.0859185172928319e+03 -4.3509564880870190e+05 -2.0475431807939425e+07 
-6.4999999999999929e+00 -5.3841217126712793e-01 +7.3538609105947979e+00 -6.0167172288283999e-01 +5.7235244887980038e+01 +5.1940924968150193e+03 -4.3375691938071803e+05 -2.0978582616058175e+07 
-6.5999999999999925e+00 -5.3841249274797309e-01 +7.3538811140379883e+00 -6.0714050257232899e-01 +5.6822688177455383e+01 +5.3025061530471039e+03 -4.3187753362373501e+05 -2.1497282692814328e+07 
-6.6999999999999922e+00 -5.3841282329951201e-01 +7.3539044344415414e+00 -6.1228934754308484e-01 +5.6322509974772665e+01 +5.4100022799026501e+03 -4.2949766773671319e+05 -2.2025812987373523e+07 
-6.7999999999999918e+00 -5.3841316363615710e-01 +7.3539306444868613e+00 -6.1706096902864815e-01 +5.5741674897999843e+01 +5.5154237796632124e+03 -4.2665750055894285e+05 -2.2558454921353340e+07 
-6.8999999999999915e+00 -5.3841351447229291e-01 +7.3539595168458538e+00 -6.2139808184010081e-01 +5.5087147869403594e+01 +5.6176136139905475e+03 -4.2339721291951125e+05 -2.3089490151856728e+07 
-6.9999999999999911e+00 -5.3841387652228034e-01 +7.3539908241777194e+00 -6.2524340393995070e-01 +5.4365894244100538e+01 +5.7154147963876221e+03 -4.1975698849174246e+05 -2.3613200537153710e+07 
-7.0999999999999908e+00 -5.3841425050041103e-01 +7.3540243391348490e+00 -6.2853966125351302e-01 +5.3584879612071568e+01 +5.8076704776848519e+03 -4.1577701258469210e+05 -2.4123868526868451e+07 
-7.1999999999999904e+00 -5.3841463712095772e-01 +7.3540598343527046e+00 -6.3122958279174335e-01 +5.2751070116391730e+01 +5.8932238612049687e+03 -4.1149747405177925e+05 -2.4615776776369132e+07 
-7.2999999999999901e+00 -5.3841503709813676e-01 +7.3540970824588516e+00 -6.3325590405313592e-01 +5.1871432177868222e+01 +5.9709182600613312e+03 -4.0695856367993716e+05 -2.5083208401065018e+07 
-7.3999999999999897e+00 -5.3841545114613210e-01 +7.3541358560694903e+00 -6.3456136483561809e-01 +5.0952932617719071e+01 +6.0395970585564437e+03 -4.0220047496331064e+05 -2.5520446797132403e+07 
-7.4999999999999893e+00 -5.3841587997904905e-01 +7.3541759277847456e+00 -6.3508871429162916e-01 +5.0002538770796313e+01 +6.0981038061671043e+03 -3.9726340470091585e+05 -2.5921776084630080e+07 
-7.5999999999999890e+00 -5.3841632431097630e-01 +7.3542170701933811e+00 -6.3478070416763266e-01 +4.9027218376035023e+01 +6.1452820915901329e+03 -3.9218755245040089e+05 -2.6281480511852905e+07 
-7.6999999999999886e+00 -5.3841678485593736e-01 +7.3542590558763834e+00 -6.3358009386683234e-01 +4.8033939465868450e+01 +6.1799756338561137e+03 -3.8701311987806862e+05 -2.6593844874299288e+07 
-7.7999999999999883e+00 -5.3841726232790055e-01 +7.3543016573961699e+00 -6.3142964971612492e-01 +4.7029670673135740e+01 +6.2010282713904389e+03 -3.8178031252622546e+05 -2.6853154471070811e+07 
-7.8999999999999879e+00 -5.3841775744078113e-01 +7.3543446473016729e+00 -6.2827214487508853e-01 +4.6021381106824990e+01 +6.2072839609383782e+03 -3.7652933915967867e+05 -2.7053695098390426e+07 
-7.9999999999999876e+00 -5.3841827090841665e-01 +7.3543877981321657e+00 -6.2405036150230797e-01 +4.5016040212415049e+01 +6.1975868093981771e+03 -3.7130041093136108e+05 -2.7189753177565593e+07 
-8.0999999999999872e+00 -5.3841880302717893e-01 +7.3544309144470059e+00 -6.1873668198560516e-01 +4.4019471634661279e+01 +6.1712237180462280e+03 -3.6612733118683996e+05 -2.7257428086484585e+07 
-8.1999999999999869e+00 -5.3841935243329253e-01 +7.3544739327652309e+00 -6.1242227273702721e-01 +4.3032916735094396e+01 +6.1292869739747330e+03 -3.6101865334073937e+05 -2.7260277902273282e+07 
-8.2999999999999865e+00 -5.3841991734998607e-01 +7.3545168237944516e+00 -6.0522816310954908e-01 +4.2056461672747375e+01 +6.0733299847800617e+03 -3.5597666414311767e+05 -2.7203781899251632e+07 
-8.3999999999999861e+00 -5.3842049600046982e-01 +7.3545595582811378e+00 -5.9727538412240555e-01 +4.1090191670684987e+01 +6.0049061943835586e+03 -3.5100364581285458e+05 -2.7093419528782561e+07 
-8.4999999999999858e+00 -5.3842108660797272e-01 +7.3546021070073486e+00 -5.8868496483672750e-01 +4.0134191120835503e+01 +5.9255690200686304e+03 -3.4610187662251893e+05 -2.6934670141207747e+07 
-8.5999999999999854e+00 -5.3842168739566787e-01 +7.3546444407970002e+00 -5.7957794038060639e-01 +3.9188543402863338e+01 +5.8368719979674206e+03 -3.4127362986421701e+05 -2.6733013659396458e+07 
-8.6999999999999851e+00 -5.3842229658673546e-01 +7.3546865305129083e+00 -5.7007534529652515e-01 +3.8253330988258959e+01 +5.7403686647377763e+03 -3.3652117451153049e+05 -2.6493930038077988e+07 
-8.7999999999999847e+00 -5.3842291240434059e-01 +7.3547283470584022e+00 -5.6029821574019645e-01 +3.7328635386754733e+01 +5.6376125962712485e+03 -3.3184677489906899e+05 -2.6222899439069949e+07 
-8.8999999999999844e+00 -5.3842353307164414e-01 +7.3547698613818318e+00 -5.5036758772456484e-01 +3.6414537026012852e+01 +5.5301573689952156e+03 -3.2725269006430655e+05 -2.5925402031431038e+07 
-8.9999999999999840e+00 -5.3842415681176148e-01 +7.3548110444768584e+00 -5.4040450325703804e-01 +3.5511115254104247e+01 +5.4195566884318641e+03 -3.2274117379864556e+05 -2.5606918638505582e+07 
-9.0999999999999837e+00 -5.3842478184782117e-01 +7.3548518673753254e+00 -5.3053000201196376e-01 +3.4618448544110855e+01 +5.3073642203792924e+03 -3.1831447584205214e+05 -2.5272929903419018e+07 
-9.1999999999999833e+00 -5.3842540640295355e-01 +7.3548923011634502e+00 -5.2086512366143134e-01 +3.3736614032257329e+01 +5.1951336435490966e+03 -3.1397483922977443e+05 -2.4928916562858012e+07 
-9.2999999999999829e+00 -5.3842602870019851e-01 +7.3549323169727110e+00 -5.1153091816362228e-01 +3.2865687800860897e+01 +5.0844188365351529e+03 -3.0972450200221397e+05 -2.4580360314515304e+07 
-9.3999999999999826e+00 -5.3842664696267628e-01 +7.3549718859833950e+00 -5.0264842597498427e-01 +3.2005744754681913e+01 +4.9767735120988591e+03 -3.0556569643010345e+05 -2.4232742102984689e+07 
-9.4999999999999822e+00 -5.3842725941342906e-01 +7.3550109794248399e+00 -4.9433869625281568e-01 +3.1156858652948763e+01 +4.8737515547376706e+03 -3.0150064932434529e+05 -2.3891543705701239e+07 
-9.5999999999999819e+00 -5.3842786427547740e-01 +7.3550495685800001e+00 -4.8672278100263477e-01 +3.0319101953054890e+01 +4.7769069134787160e+03 -2.9753158107572020e+05 -2.3562247230890341e+07 
-9.6999999999999815e+00 -5.3842845977187670e-01 +7.3550876247830397e+00 -4.7992172759192570e-01 +2.9492545907029161e+01 +4.6877934630947448e+03 -2.9366070628647081e+05 -2.3250334469819352e+07 
-9.7999999999999812e+00 -5.3842904412561687e-01 +7.3551251194249847e+00 -4.7405659091161184e-01 +2.8677260390028934e+01 +4.6079652268485170e+03 -2.8989023277599958e+05 -2.2961287930832930e+07 
-9.8999999999999808e+00 -5.3842961555968927e-01 +7.3551620239485640e+00 -4.6924842564210145e-01 +2.7873314071027906e+01 +4.5389762394873369e+03 -2.8622236263164348e+05 -2.2700590217415206e+07 
-9.9999999999999805e+00 -5.3843017229706602e-01 +7.3551983098505955e+00 -4.6561828837419600e-01 +2.7080774364921638e+01 +4.4823805866428529e+03 -2.8265929173895688e+05 -2.2473724192089543e+07 
-1.0099999999999980e+01 -5.3843071303045276e-01 +7.3552339170896976e+00 -4.6325704886781166e-01 +2.6300596614709725e+01 +4.4393988246653907e+03 -2.7920652630426490e+05 -2.2285150894183636e+07 
