# multipoles
# s[mm] polynom_b[n=0][T/m^n] polynom_b[n=1][T/m^n] polynom_b[n=2][T/m^n] polynom_b[n=3][T/m^n] polynom_b[n=4][T/m^n] polynom_b[n=5][T/m^n] polynom_b[n=6][T/m^n] 
-0.0000000000000000e+00 -5.9268569306168861e-01 +8.1171072227904020e+00 +1.6488356766012435e-01 -1.1652288880920707e+02 -5.7029912175729633e+03 +4.4625376180824020e+05 +1.4133555114891138e+07 
-1.0000000000000001e-01 -5.9268583714457035e-01 +8.1170960489693957e+00 +1.6302750544234784e-01 -1.1642924894824169e+02 -5.6870523586747859e+03 +4.4575438785700855e+05 +1.4086594974581722e+07 
-2.0000000000000001e-01 -5.9268598650422122e-01 +8.1170827482374683e+00 +1.6176542443588332e-01 -1.1626346723822734e+02 -5.6783104905020346e+03 +4.4480498165914061e+05 +1.4058484637156829e+07 
-2.9999999999999999e-01 -5.9268614163248790e-01 +8.1170675423970167e+00 +1.6107106515784489e-01 -1.1603117624007167e+02 -5.6762414239244245e+03 +4.4344165648586408e+05 +1.4047264602996519e+07 
-4.0000000000000002e-01 -5.9268630302131819e-01 +8.1170506532424547e+00 +1.6091816762103045e-01 -1.1573800829639579e+02 -5.6803209613264189e+03 +4.4170052447585284e+05 +1.4050975341222817e+07 
-5.0000000000000000e-01 -5.9268647116256612e-01 +8.1170323025661464e+00 +1.6128047066125187e-01 -1.1538959570874113e+02 -5.6900248825069439e+03 +4.3961769765458925e+05 +1.4067657220151136e+07 
-5.9999999999999998e-01 -5.9268664654812808e-01 +8.1170127121591591e+00 +1.6213171061066486e-01 -1.1499157076314788e+02 -5.7048289181376513e+03 +4.3722928808907547e+05 +1.4095350374467047e+07 
-6.9999999999999996e-01 -5.9268682966984620e-01 +8.1169921038029980e+00 +1.6344562512768743e-01 -1.1454956549681852e+02 -5.7242088318139940e+03 +4.3457140653893189e+05 +1.4132095119434755e+07 
-8.0000000000000004e-01 -5.9268702101958814e-01 +8.1169706992828985e+00 +1.6519595020208311e-01 -1.1406921208570600e+02 -5.7476403496356106e+03 +4.3168016469964170e+05 +1.4175931579406289e+07 
-9.0000000000000002e-01 -5.9268722108922012e-01 +8.1169487203771773e+00 +1.6735642187095898e-01 -1.1355614253015733e+02 -5.7745992035800355e+03 +4.2859167334762006e+05 +1.4224899921864774e+07 
-1.0000000000000000e+00 -5.9268743037061888e-01 +8.1169263888619323e+00 +1.6990077713807700e-01 -1.1301598880475387e+02 -5.8045611429950995e+03 +4.2534204324380157e+05 +1.4277040392571239e+07 
-1.1000000000000001e+00 -5.9268764935571761e-01 +8.1169039265111156e+00 +1.7280275241918966e-01 -1.1245438286562560e+02 -5.8370019074139145e+03 +4.2196738517697284e+05 +1.4330393194639141e+07 
-1.2000000000000000e+00 -5.9268787853630234e-01 +8.1168815551014752e+00 +1.7603608387288971e-01 -1.1187695678551367e+02 -5.8713972329768148e+03 +4.1850381070669368e+05 +1.4382998516192386e+07 
-1.3000000000000000e+00 -5.9268811840431412e-01 +8.1168594963970353e+00 +1.7957451190941190e-01 -1.1128934231889474e+02 -5.9072229366916245e+03 +4.1498742968072498e+05 +1.4432896927389000e+07 
-1.3999999999999999e+00 -5.9268836945166237e-01 +8.1168379721746913e+00 +1.8339177262367054e-01 -1.1069717163682991e+02 -5.9439547537328344e+03 +4.1145435446563869e+05 +1.4478128603923725e+07 
-1.5000000000000000e+00 -5.9268863217023304e-01 +8.1168172042015794e+00 +1.8746160642904627e-01 -1.1010607668886141e+02 -5.9810685040857588e+03 +4.0794069627530617e+05 +1.4516734127059152e+07 
-1.6000000000000001e+00 -5.9268890705196187e-01 +8.1167974142401125e+00 +1.9175775566193967e-01 -1.0952168933403486e+02 -6.0180400430278842e+03 +4.0448256588452950e+05 +1.4546754235613955e+07 
-1.7000000000000000e+00 -5.9268919458879543e-01 +8.1167788240651682e+00 +1.9625396335356005e-01 -1.0894964185177732e+02 -6.0543452386839499e+03 +4.0111607662003057e+05 +1.4566229719911005e+07 
-1.8000000000000000e+00 -5.9268949527271453e-01 +8.1167616554416195e+00 +2.0092397334467491e-01 -1.0839556629987811e+02 -6.0894599787423931e+03 +3.9787734064133762e+05 +1.4573201465888154e+07 
-1.8999999999999999e+00 -5.9268980959567152e-01 +8.1167461301365549e+00 +2.0574153242406060e-01 -1.0786509486283944e+02 -6.1228602052835604e+03 +3.9480247094376833e+05 +1.4565710602564421e+07 
-2.0000000000000000e+00 -5.9269013804971460e-01 +8.1167324699189098e+00 +2.1068039156413615e-01 -1.0736385984678550e+02 -6.1540219402460252e+03 +3.9192758132382500e+05 +1.4541798628379071e+07 
-2.1000000000000001e+00 -5.9269048083565112e-01 +8.1167208486316085e+00 +2.1571381483466007e-01 -1.0689676275070350e+02 -6.1825322342246964e+03 +3.8928363154207688e+05 +1.4500152370701954e+07 
-2.2000000000000002e+00 -5.9269083698602643e-01 +8.1167112421003811e+00 +2.2081324832751104e-01 -1.0646563300885042e+02 -6.2084216427041029e+03 +3.8688036321732192e+05 +1.4442057661248656e+07 
-2.2999999999999998e+00 -5.9269120524026520e-01 +8.1167035750700265e+00 +2.2594972228064858e-01 -1.0607149500168980e+02 -6.2318315898400551e+03 +3.8472206065458641e+05 +1.4369455102104962e+07 
-2.3999999999999999e+00 -5.9269158433787328e-01 +8.1166977722933886e+00 +2.3109427041020617e-01 -1.0571537327993833e+02 -6.2529035645628728e+03 +3.8281300892206002e+05 +1.4284285592391847e+07 
-2.5000000000000000e+00 -5.9269197301828203e-01 +8.1166937585228691e+00 +2.3621792436746075e-01 -1.0539829234289743e+02 -6.2717790115572179e+03 +3.8115749262439058e+05 +1.4188489801598357e+07 
-2.6000000000000001e+00 -5.9269237002094644e-01 +8.1166914585207319e+00 +2.4129171940970781e-01 -1.0512127689435997e+02 -6.2885994428715439e+03 +3.7975979727362707e+05 +1.4084008709063701e+07 
-2.7000000000000002e+00 -5.9269277408542365e-01 +8.1166907970556004e+00 +2.4628668940667345e-01 -1.0488535174679332e+02 -6.3035063416020112e+03 +3.7862420873734716e+05 +1.3972783143510150e+07 
-2.7999999999999998e+00 -5.9269318395110715e-01 +8.1166916989004108e+00 +2.5117387066136121e-01 -1.0469154176274154e+02 -6.3166412340266497e+03 +3.7775501290420111e+05 +1.3856754121286355e+07 
-2.8999999999999999e+00 -5.9269359835754831e-01 +8.1166940888368675e+00 +2.5592430103859565e-01 -1.0454087194847781e+02 -6.3281456700769650e+03 +3.7715649612253683e+05 +1.3737862749558762e+07 
-3.0000000000000000e+00 -5.9269401604419569e-01 +8.1166978916568375e+00 +2.6050901768338613e-01 -1.0443436751028938e+02 -6.3381611846196338e+03 +3.7683294557113753e+05 +1.3618050051608272e+07 
-3.1000000000000001e+00 -5.9269443575055891e-01 +8.1167030321598546e+00 +2.6489906201637731e-01 -1.0437305375823053e+02 -6.3468293872413960e+03 +3.7678864862687630e+05 +1.3499257381492736e+07 
-3.2000000000000002e+00 -5.9269485621613138e-01 +8.1167094351541085e+00 +2.6906547117582175e-01 -1.0435795611764937e+02 -6.3542918045516362e+03 +3.7702789288011560e+05 +1.3383425685724173e+07 
-3.2999999999999998e+00 -5.9269527618036066e-01 +8.1167170254575236e+00 +2.7297928803661747e-01 -1.0439010018021521e+02 -6.3606900633086307e+03 +3.7755496649525536e+05 +1.3272496354483562e+07 
-3.3999999999999999e+00 -5.9269569438282677e-01 +8.1167257279014891e+00 +2.7661155487827160e-01 -1.0447051177357143e+02 -6.3661657774339674e+03 +3.7837415848621720e+05 +1.3168410706018839e+07 
-3.5000000000000000e+00 -5.9269610956292673e-01 +8.1167354673244194e+00 +2.7993331425315759e-01 -1.0460021676586624e+02 -6.3708605591571823e+03 +3.7948975756929541e+05 +1.3073110022225814e+07 
-3.6000000000000001e+00 -5.9269652046021348e-01 +8.1167461685778726e+00 +2.8291561080694566e-01 -1.0478024126125734e+02 -6.3749160550836314e+03 +3.8090605333700601e+05 +1.2988535726045867e+07 
-3.7000000000000002e+00 -5.9269692581414624e-01 +8.1167577565298288e+00 +2.8552948947104850e-01 -1.0501161165501193e+02 -6.3784739086182626e+03 +3.8262733646749461e+05 +1.2916629192021959e+07 
-3.7999999999999998e+00 -5.9269732436420097e-01 +8.1167701560553667e+00 +2.8774599553093905e-01 -1.0529535437357548e+02 -6.3816757691644443e+03 +3.8465789724229876e+05 +1.2859331812902892e+07 
-3.8999999999999999e+00 -5.9269771484987954e-01 +8.1167832920462804e+00 +2.8953617807398840e-01 -1.0563249612125992e+02 -6.3846633462794161e+03 +3.8700202688199998e+05 +1.2818585225485107e+07 
-4.0000000000000000e+00 -5.9269809601069945e-01 +8.1167970894081716e+00 +2.9087108629521585e-01 -1.0602406380902804e+02 -6.3875783468303489e+03 +3.8966401719716040e+05 +1.2796331033622952e+07 
-4.0999999999999996e+00 -5.9269846695974426e-01 +8.1168114757118666e+00 +2.9173115558811868e-01 -1.0646990193047547e+02 -6.3905408653238483e+03 +3.9264074902472709e+05 +1.2794043743606819e+07 
-4.2000000000000002e+00 -5.9269882829862119e-01 +8.1168264025484618e+00 +2.9213338530372662e-01 -1.0696557507932860e+02 -6.3935977186172886e+03 +3.9590186597515020e+05 +1.2811436541361462e+07 
-4.2999999999999998e+00 -5.9269918099946928e-01 +8.1168418308168384e+00 +2.9210365022967988e-01 -1.0750568622821248e+02 -6.3967799944393255e+03 +3.9941078499503649e+05 +1.2847805275142143e+07 
-4.4000000000000004e+00 -5.9269952603452636e-01 +8.1168577214044237e+00 +2.9166782162663946e-01 -1.0808483808119128e+02 -6.4001187116548845e+03 +4.0313092161873798e+05 +1.2902445481683120e+07 
-4.5000000000000000e+00 -5.9269986437594313e-01 +8.1168740352040434e+00 +2.9085176889742975e-01 -1.0869763352078579e+02 -6.4036448508888107e+03 +4.0702569242397341e+05 +1.2974652535025505e+07 
-4.5999999999999996e+00 -5.9270019699588528e-01 +8.1168907330984350e+00 +2.8968135851149796e-01 -1.0933867519959344e+02 -6.4073893341007124e+03 +4.1105851277680713e+05 +1.3063721545794079e+07 
-4.7000000000000002e+00 -5.9270052486651448e-01 +8.1169077759718835e+00 +2.8818245111449597e-01 -1.1000256586176916e+02 -6.4113829738802133e+03 +4.1519279866201902e+05 +1.3168947138648203e+07 
-4.7999999999999998e+00 -5.9270084895993858e-01 +8.1169251246986818e+00 +2.8638090611642103e-01 -1.1068390802465626e+02 -6.4156565535873597e+03 +4.1939196487479837e+05 +1.3289623810388798e+07 
-4.9000000000000004e+00 -5.9270117024827285e-01 +8.1169427401533678e+00 +2.8430257797873931e-01 -1.1137730427568987e+02 -6.4202407607207133e+03 +4.2361942674061563e+05 +1.3425045630767601e+07 
-5.0000000000000000e+00 -5.9270148970362302e-01 +8.1169605832004006e+00 +2.8197331838240547e-01 -1.1207735699391040e+02 -6.4251662289193710e+03 +4.2783859856433375e+05 +1.3574506442315504e+07 
-5.0999999999999996e+00 -5.9270180829809394e-01 +8.1169786147034308e+00 +2.7941897329317306e-01 -1.1277866859458598e+02 -6.4304634827207874e+03 +4.3201289498192375e+05 +1.3737299602169521e+07 
-5.2000000000000002e+00 -5.9270212700372338e-01 +8.1169967955143747e+00 +2.7666538456916828e-01 -1.1347584124914360e+02 -6.4361629601991499e+03 +4.3610572943440254e+05 +1.3912718069351377e+07 
-5.2999999999999998e+00 -5.9270244679254258e-01 +8.1170150864825512e+00 +2.7373838855058191e-01 -1.1416347713358518e+02 -6.4422950013082918e+03 +4.4008051556905825e+05 +1.4100054392910820e+07 
-5.4000000000000004e+00 -5.9270276863661409e-01 +8.1170334484461240e+00 +2.7066381827298763e-01 -1.1483617820718246e+02 -6.4488898736341971e+03 +4.4390066602342518e+05 +1.4298600791500727e+07 
-5.5000000000000000e+00 -5.9270309350789219e-01 +8.1170518422405724e+00 +2.6746750262302160e-01 -1.1548854644585872e+02 -6.4559777680396182e+03 +4.4752959375168249e+05 +1.4507649164697442e+07 
-5.5999999999999996e+00 -5.9270342237842921e-01 +8.1170702286876182e+00 +2.6417526121841178e-01 -1.1611518352834902e+02 -6.4635886958427300e+03 +4.5093071022159077e+05 +1.4726490593146211e+07 
-5.7000000000000002e+00 -5.9270375622010840e-01 +8.1170885686060821e+00 +2.6081291223171699e-01 -1.1671069117047543e+02 -6.4717526390028015e+03 +4.5406742740938318e+05 +1.4954416056538023e+07 
-5.7999999999999998e+00 -5.9270409600490770e-01 +8.1171068227996415e+00 +2.5740626437985392e-01 -1.1726967076148696e+02 -6.4804993987211283e+03 +4.5690315566625743e+05 +1.5190715718127364e+07 
-5.9000000000000004e+00 -5.9270444270469191e-01 +8.1171249520662805e+00 +2.5398112416522922e-01 -1.1778672364923915e+02 -6.4898587312811524e+03 +4.5940130540417158e+05 +1.5434679567722680e+07 
-5.9999999999999902e+00 -5.9270479729144088e-01 +8.1171429171941671e+00 +2.5056329068587740e-01 -1.1825645103806873e+02 -6.4998602507499199e+03 +4.6152528652846150e+05 +1.5685596964022372e+07 
-6.0999999999999899e+00 -5.9270516054712441e-01 +8.1171606648859633e+00 +2.4717958497951750e-01 -1.1867431765304640e+02 -6.5105976328788447e+03 +4.6324608066251595e+05 +1.5943045796246951e+07 
-6.1999999999999904e+00 -5.9270553251088176e-01 +8.1171780748656079e+00 +2.4386387442497742e-01 -1.1903911704413413e+02 -6.5224333286428118e+03 +4.6456491780159937e+05 +1.6207682162826363e+07 
-6.2999999999999901e+00 -5.9270591304015319e-01 +8.1171950075246393e+00 +2.4065254908142114e-01 -1.1935045383445473e+02 -6.5358003177027713e+03 +4.6549065691291029e+05 +1.6480412279615531e+07 
-6.3999999999999897e+00 -5.9270630199239005e-01 +8.1172113232397205e+00 +2.3758200590527931e-01 -1.1960793223680039e+02 -6.5511317257072542e+03 +4.6603215499553073e+05 +1.6762143076924123e+07 
-6.4999999999999902e+00 -5.9270669922491592e-01 +8.1172268823710763e+00 +2.3468863562031256e-01 -1.1981115601721588e+02 -6.5688605799021279e+03 +4.6619826690495713e+05 +1.7053781050780322e+07 
-6.5999999999999899e+00 -5.9270710459519471e-01 +8.1172415452677953e+00 +2.3200883483292958e-01 -1.1995972861741798e+02 -6.5894200463144434e+03 +4.6599784598909598e+05 +1.7356233410972137e+07 
-6.6999999999999904e+00 -5.9270751796057197e-01 +8.1172551722592363e+00 +2.2957899895240710e-01 -1.2005325293918071e+02 -6.6132432884857681e+03 +4.6543974294649914e+05 +1.7670407386711184e+07 
-6.7999999999999901e+00 -5.9270793917839293e-01 +8.1172676236616965e+00 +2.2743552219165217e-01 -1.2009133151714225e+02 -6.6407634709187068e+03 +4.6453280678935983e+05 +1.7997210254465662e+07 
-6.8999999999999897e+00 -5.9270836810601346e-01 +8.1172787597697358e+00 +2.2561480341134688e-01 -1.2007356628388250e+02 -6.6724138716019597e+03 +4.6328588353583519e+05 +1.8337549871770255e+07 
-6.9999999999999902e+00 -5.9270880460079511e-01 +8.1172884408644652e+00 +2.2415324157027136e-01 -1.1999955878172986e+02 -6.7086277989785485e+03 +4.6170781738431513e+05 +1.8692334295557052e+07 
-7.0999999999999899e+00 -5.9270924852002005e-01 +8.1172965272093744e+00 +2.2308723576171022e-01 -1.1986891007694916e+02 -6.7498385857601779e+03 +4.5980745032079401e+05 +1.9062471728824709e+07 
-7.1999999999999904e+00 -5.9270969972097542e-01 +8.1173028790485624e+00 +2.2245318602664335e-01 -1.1968122069100596e+02 -6.7964796154053493e+03 +4.5759362169269344e+05 +1.9448870676507890e+07 
-7.2999999999999901e+00 -5.9271015806098948e-01 +8.1173073566025309e+00 +2.2228749657995742e-01 -1.1943609047743195e+02 -6.8489843740568513e+03 +4.5507516750231647e+05 +1.9852440166389834e+07 
-7.3999999999999897e+00 -5.9271062339723524e-01 +8.1173098200795231e+00 +2.2262656759226723e-01 -1.1913311895800146e+02 -6.9077863054148029e+03 +4.5226092239368078e+05 +2.0274089085871976e+07 
-7.4999999999999902e+00 -5.9271109558707324e-01 +8.1173101296612327e+00 +2.2350680751981047e-01 -1.1877190491178179e+02 -6.9733190390973596e+03 +4.4915971729609044e+05 +2.0714727254306059e+07 
-7.5999999999999899e+00 -5.9271157448761691e-01 +8.1173081455141194e+00 +2.2496461980592217e-01 -1.1835204668214787e+02 -7.0460161389939458e+03 +4.4578038115982298e+05 +2.1175264223352890e+07 
-7.6999999999999904e+00 -5.9271205995611820e-01 +8.1173037277786317e+00 +2.2703641424315987e-01 -1.1787314189848794e+02 -7.1263113225962088e+03 +4.4213173945672682e+05 +2.1656610332080644e+07 
-7.7999999999999901e+00 -5.9271255184979466e-01 +8.1172967365739428e+00 +2.2975860086866831e-01 -1.1733478758791350e+02 -7.2146383463562979e+03 +4.3822261476075061e+05 +2.2159676160901342e+07 
-7.8999999999999897e+00 -5.9271305002577190e-01 +8.1172870319984067e+00 +2.3316758933860601e-01 -1.1673658019892916e+02 -7.3114309925488869e+03 +4.3406182694351161e+05 +2.2685372467352975e+07 
-7.9999999999999902e+00 -5.9271355434126294e-01 +8.1172744741278091e+00 +2.3729979719792699e-01 -1.1607811556986678e+02 -7.4171232294877109e+03 +4.2965819302085217e+05 +2.3234610953277759e+07 
-8.0999999999999908e+00 -5.9271406462427778e-01 +8.1172590105882598e+00 +2.4217397823900583e-01 -1.1536091358309055e+02 -7.5319142822069734e+03 +4.2502924477507011e+05 +2.3807599822342832e+07 
-8.1999999999999904e+00 -5.9271458059304039e-01 +8.1172409485461490e+00 +2.4773430787032730e-01 -1.1459386081771022e+02 -7.6549801715422336e+03 +4.2022378157860413e+05 +2.4401373648305021e+07 
-8.2999999999999901e+00 -5.9271510193924337e-01 +8.1172206877270447e+00 +2.5390522025562651e-01 -1.1378760850386792e+02 -7.7852194699856627e+03 +4.1529751998278743e+05 +2.5012087468856581e+07 
-8.3999999999999897e+00 -5.9271562835473368e-01 +8.1171986278722486e+00 +2.6061116341744778e-01 -1.1295280829883413e+02 -7.9215309869736484e+03 +4.1030617845064204e+05 +2.5635897356571048e+07 
-8.4999999999999893e+00 -5.9271615953145940e-01 +8.1171751687450957e+00 +2.6777659305557794e-01 -1.1210011248928647e+02 -8.0628136487255715e+03 +4.0530547865341429e+05 +2.6268959825390600e+07 
-8.5999999999999908e+00 -5.9271669516141678e-01 +8.1171507101384641e+00 +2.7532597693194655e-01 -1.1124017421692530e+02 -8.2079665788069833e+03 +4.0035114678797702e+05 +2.6907432205730278e+07 
-8.6999999999999904e+00 -5.9271723493673301e-01 +8.1171256518628869e+00 +2.8318379363054036e-01 -1.1038364714333883e+02 -8.3558890731103438e+03 +3.9549891164452094e+05 +2.7547472521280505e+07 
-8.7999999999999794e+00 -5.9271777854963181e-01 +8.1171003937583350e+00 +2.9127453218177030e-01 -1.0954118576886492e+02 -8.5054805920018061e+03 +3.9080450637441722e+05 +2.8185239448285814e+07 
-8.8999999999999808e+00 -5.9271832569248650e-01 +8.1170753356898633e+00 +2.9952269518963270e-01 -1.0872344533696479e+02 -8.6556408204372929e+03 +3.8632366800624313e+05 +2.8816892601879057e+07 
-8.9999999999999805e+00 -5.9271887605771700e-01 +8.1170508775436883e+00 +3.0785279664164006e-01 -1.0794108168722342e+02 -8.8052696234469240e+03 +3.8211213649216399e+05 +2.9438592316779874e+07 
-9.0999999999999801e+00 -5.9271942933787236e-01 +8.1170274192420688e+00 +3.1618936108158929e-01 -1.0720475170932768e+02 -8.9532670295047719e+03 +3.7822565737053478e+05 +3.0046499564510647e+07 
-9.1999999999999797e+00 -5.9271998522563063e-01 +8.1170053607255426e+00 +3.2445692727322195e-01 -1.0652511281784207e+02 -9.0985332978152474e+03 +3.7471997869472520e+05 +3.0636776264262002e+07 
-9.2999999999999794e+00 -5.9272054341381863e-01 +8.1169851019743522e+00 +3.3258004701209509e-01 -1.0591282358073002e+02 -9.2399688965977748e+03 +3.7165085467508092e+05 +3.1205585183768507e+07 
-9.3999999999999808e+00 -5.9272110359531771e-01 +8.1169670429906624e+00 +3.4048328439539405e-01 -1.0537854319457746e+02 -9.3764744885733544e+03 +3.6907404258980841e+05 +3.1749089865418121e+07 
-9.4999999999999805e+00 -5.9272166546316307e-01 +8.1169515838096906e+00 +3.4809121713062730e-01 -1.0493293181814569e+02 -9.5069509538874354e+03 +3.6704530474211409e+05 +3.2263454730509765e+07 
-9.5999999999999801e+00 -5.9272222871053259e-01 +8.1169391244997051e+00 +3.5532843815449411e-01 -1.0458665055258312e+02 -9.6302994167904926e+03 +3.6562040826912568e+05 +3.2744845193639219e+07 
-9.6999999999999797e+00 -5.9272279303075592e-01 +8.1169300651573177e+00 +3.6211955402544177e-01 -1.0435036132402283e+02 -9.7454212192352479e+03 +3.6485512450350664e+05 +3.3189427546909004e+07 
-9.7999999999999794e+00 -5.9272335811723476e-01 +8.1169248059177743e+00 +3.6838918501784812e-01 -1.0423472718206497e+02 -9.8512179173970835e+03 +3.6480523068490287e+05 +3.3593368929471955e+07 
-9.8999999999999808e+00 -5.9272392366353899e-01 +8.1169237469454565e+00 +3.7406196679960402e-01 -1.0425041201076294e+02 -9.9465913150022297e+03 +3.6552650823074696e+05 +3.3952837486977011e+07 
-9.9999999999999805e+00 -5.9272448936340327e-01 +8.1169272884383830e+00 +3.7906254933181166e-01 -1.0440808057509122e+02 -1.0030443428898699e+04 +3.6707474280852586e+05 +3.4264002167582333e+07 
-1.0100000000000000e+01 -5.9272505502242412e-01 +8.1169357140683278e+00 +3.8333389921162903e-01 -1.0471473521823125e+02 -1.0101914593122290e+04 +3.6948445551227866e+05 +3.4523801031191625e+07 
