# multipoles
# s[mm] polynom_b[n=0][T/m^n] polynom_b[n=1][T/m^n] polynom_b[n=2][T/m^n] polynom_b[n=3][T/m^n] polynom_b[n=4][T/m^n] polynom_b[n=5][T/m^n] polynom_b[n=6][T/m^n] 
-0.0000000000000000e+00 -5.3710113482643118e-01 +7.3564897933515487e+00 -3.4207453078275890e-01 +2.2899236379536838e+01 +1.1490369568380177e+03 -2.6314237514807284e+05 -9.6463353188904934e+06 
-1.0000000000000001e-01 -5.3710108149583746e-01 +7.3564851076596813e+00 -3.4081260763379134e-01 +2.3197649269149384e+01 +1.1197821174367491e+03 -2.6567239210358518e+05 -9.5455675365350563e+06 
-2.0000000000000001e-01 -5.3710103460478553e-01 +7.3564845381395587e+00 -3.3945023436106392e-01 +2.3435498233769813e+01 +1.0891039684939503e+03 -2.6797240148185572e+05 -9.4409071697239075e+06 
-2.9999999999999999e-01 -5.3710099423857871e-01 +7.3564876762901594e+00 -3.3799674570227983e-01 +2.3618891815392971e+01 +1.0573331763431211e+03 -2.7006354643738229e+05 -9.3339145722012725e+06 
-4.0000000000000002e-01 -5.3710096048255207e-01 +7.3564941136072379e+00 -3.3646147513281743e-01 +2.3753938648784658e+01 +1.0248003910820901e+03 -2.7196697062891524e+05 -9.2261500405941289e+06 
-5.0000000000000000e-01 -5.3710093342196319e-01 +7.3565034415876491e+00 -3.3485375640342380e-01 +2.3846747317904590e+01 +9.9183626933043763e+02 -2.7370381735388242e+05 -9.1191739027655702e+06 
-5.9999999999999998e-01 -5.3710091314213793e-01 +7.3565152517275347e+00 -3.3318292201575267e-01 +2.3903426420762269e+01 +9.5877144898452593e+02 -2.7529522995366721e+05 -9.0145464107710775e+06 
-6.9999999999999996e-01 -5.3710089972847941e-01 +7.3565291355189935e+00 -3.3145830531919396e-01 +2.3930084656728322e+01 +9.2593658559494429e+02 -2.7676235230538342e+05 -8.9138279043715969e+06 
-8.0000000000000004e-01 -5.3710089326625543e-01 +7.3565446844610687e+00 -3.2968923586674181e-01 +2.3932830502899911e+01 +8.9366225709042988e+02 -2.7812632694082451e+05 -8.8185783397855274e+06 
-9.0000000000000002e-01 -5.3710089384079973e-01 +7.3565614900435037e+00 -3.2788504908809007e-01 +2.3917772680067600e+01 +8.6227915703483984e+02 -2.7940829773627350e+05 -8.7303582347881030e+06 
-1.0000000000000000e+00 -5.3710090153748702e-01 +7.3565791437606940e+00 -3.2605507447890419e-01 +2.3891019758454945e+01 +8.3211786081874163e+02 -2.8062940765948500e+05 -8.6507275343439821e+06 
-1.1000000000000001e+00 -5.3710091644156166e-01 +7.3565972371066275e+00 -3.2420864746369948e-01 +2.3858680279668764e+01 +8.0350905147471315e+02 -2.8181079942666786e+05 -8.5812466834949665e+06 
-1.2000000000000000e+00 -5.3710093863840969e-01 +7.3566153615716363e+00 -3.2235509850478816e-01 +2.3826862871217624e+01 +7.7678331259399215e+02 -2.8297361621341453e+05 -8.5234756448449902e+06 
-1.3000000000000000e+00 -5.3710096821327746e-01 +7.3566331086481576e+00 -3.2050376138223929e-01 +2.3801676054525096e+01 +7.5227128307842145e+02 -2.8413900049107894e+05 -8.4789746269501057e+06 
-1.3999999999999999e+00 -5.3710100525148807e-01 +7.3566500698265864e+00 -3.1866396901493360e-01 +2.3789228380886502e+01 +7.3030357634550728e+02 -2.8532809486199310e+05 -8.4493036994388513e+06 
-1.5000000000000000e+00 -5.3710104983834972e-01 +7.3566658365973758e+00 -3.1684505534766760e-01 +2.3795628354169171e+01 +7.1121081706274583e+02 -2.8656204156595160e+05 -8.4360229687441811e+06 
-1.6000000000000001e+00 -5.3710110205910921e-01 +7.3566800004491952e+00 -3.1505635351548733e-01 +2.3826984486394689e+01 +6.9532360001545601e+02 -2.8786198282655759e+05 -8.4406923667721692e+06 
-1.7000000000000000e+00 -5.3710116199896207e-01 +7.3566921528713882e+00 -3.1330720168268017e-01 +2.3889405224999059e+01 +6.8297260454580532e+02 -2.8924906042246078e+05 -8.4648722068060953e+06 
-1.8000000000000000e+00 -5.3710122974321151e-01 +7.3567018853546085e+00 -3.1160693278510315e-01 +2.3988998923254854e+01 +6.7448839560941963e+02 -2.9074441549724893e+05 -8.5101222251465581e+06 
-1.8999999999999999e+00 -5.3710130537698375e-01 +7.3567087893821315e+00 -3.0996488647242404e-01 +2.4131874102254205e+01 +6.7020165087657381e+02 -2.9236919010763685e+05 -8.5780026652033627e+06 
-2.0000000000000000e+00 -5.3710138898552628e-01 +7.3567124564458837e+00 -3.0839039847621996e-01 +2.4324138981120729e+01 +6.7044295591543823e+02 -2.9414452451999875e+05 -8.6700732962915041e+06 
-2.1000000000000001e+00 -5.3710148049405460e-01 +7.3567126204564941e+00 -3.0689146187363114e-01 +2.4569260739877688e+01 +6.7541584189210209e+02 -2.9608053564916307e+05 -8.7872026132785566e+06 
-2.2000000000000002e+00 -5.3710157922036672e-01 +7.3567095539602789e+00 -3.0547246069343692e-01 +2.4860762743165285e+01 +6.8486686906701152e+02 -2.9814580629939929e+05 -8.9277332107125372e+06 
-2.2999999999999998e+00 -5.3710168433808603e-01 +7.3567036568289623e+00 -3.0413727008297403e-01 +2.5189828896600783e+01 +6.9844003145306556e+02 -3.0029914261558792e+05 -9.0894309476738703e+06 
-2.3999999999999999e+00 -5.3710179502092081e-01 +7.3566953289358974e+00 -3.0288976493641201e-01 +2.5547643090285916e+01 +7.1577932396876486e+02 -3.0249935075437976e+05 -9.2700617092718277e+06 
-2.5000000000000000e+00 -5.3710191044254252e-01 +7.3566849701547117e+00 -3.0173381468281779e-01 +2.5925389250425681e+01 +7.3652863935170819e+02 -3.0470523722184816e+05 -9.4673909043198042e+06 
-2.6000000000000001e+00 -5.3710202977662702e-01 +7.3566729803620952e+00 -3.0067329180033892e-01 +2.6314251262869217e+01 +7.6033193491553732e+02 -3.0687560843221768e+05 -9.6791842721532229e+06 
-2.7000000000000002e+00 -5.3710215219689017e-01 +7.3566597594380791e+00 -2.9971206394572752e-01 +2.6705412986133172e+01 +7.8683308205988010e+02 -3.0896927083881531e+05 -9.9032071652713604e+06 
-2.7999999999999998e+00 -5.3710227687710232e-01 +7.3566457072614382e+00 -2.9885399273883390e-01 +2.7090058371550068e+01 +8.1567584657373345e+02 -3.1094503160024533e+05 -1.0137224463085525e+07 
-2.8999999999999999e+00 -5.3710240299103051e-01 +7.3566312237160041e+00 -2.9810294064988641e-01 +2.7459371306319753e+01 +8.4650401962377498e+02 -3.1276169773112237e+05 -1.0379001196975101e+07 
-3.0000000000000000e+00 -5.3710252971248973e-01 +7.3566167086881684e+00 -2.9746276474759031e-01 +2.7804535680109865e+01 +8.7896129869220556e+02 -3.1437807647450303e+05 -1.0626301982488729e+07 
-3.1000000000000001e+00 -5.3710265621532505e-01 +7.3566025620650732e+00 -2.9693731924286287e-01 +2.8116735453565774e+01 +9.1269133907054663e+02 -3.1575297574523260e+05 -1.0876891272494249e+07 
-3.2000000000000002e+00 -5.3710278167341052e-01 +7.3565891837414732e+00 -2.9653045533169337e-01 +2.8387154463687807e+01 +9.4733775064966278e+02 -3.1684520300223341e+05 -1.1128533342397429e+07 
-3.2999999999999998e+00 -5.3710290526069016e-01 +7.3565769736104034e+00 -2.9624601684741736e-01 +2.8606976699900407e+01 +9.8254401789149063e+02 -3.1761356686735473e+05 -1.1378991914725477e+07 
-3.3999999999999999e+00 -5.3710302615112515e-01 +7.3565663315727399e+00 -2.9608784640226382e-01 +2.8767386037390470e+01 +1.0179536176235179e+03 -3.1801687560970226e+05 -1.1626030724123141e+07 
-3.5000000000000000e+00 -5.3710314351871857e-01 +7.3565576575295939e+00 -2.9605978236179314e-01 +2.8859566463715151e+01 +1.0532099605943947e+03 -3.1801393846111733e+05 -1.1867413236779805e+07 
-3.6000000000000001e+00 -5.3710325653757851e-01 +7.3565513513881404e+00 -2.9616565495742558e-01 +2.8874701916180040e+01 +1.0879563219467052e+03 -3.1756356470599334e+05 -1.2100902330038866e+07 
-3.7000000000000002e+00 -5.3710336438176121e-01 +7.3565478130573956e+00 -2.9640929195449389e-01 +2.8803976414972173e+01 +1.1218359455939026e+03 -3.1662456446810236e+05 -1.2324260779941346e+07 
-3.7999999999999998e+00 -5.3710346622545579e-01 +7.3565474424545032e+00 -2.9679451642840621e-01 +2.8638573887851230e+01 +1.1544920103384786e+03 -3.1515574771599547e+05 -1.2535251125330163e+07 
-3.8999999999999999e+00 -5.3710356124291803e-01 +7.3565506394990692e+00 -2.9732514444939101e-01 +2.8369678339693632e+01 +1.1855675796817588e+03 -3.1311592525810463e+05 -1.2731635408763347e+07 
-4.0000000000000000e+00 -5.3710364860840709e-01 +7.3565578041038737e+00 -2.9800498567880834e-01 +2.7988474106477774e+01 +1.2147056289138618e+03 -3.1046390999661520e+05 -1.2911175331520997e+07 
-4.0999999999999996e+00 -5.3710372782317528e-01 +7.3565692131555913e+00 -2.9883910432047117e-01 +2.7489368014047894e+01 +1.2417244925503351e+03 -3.0717505886670155e+05 -1.3072672583242374e+07 
-4.2000000000000002e+00 -5.3710379956324972e-01 +7.3565847109553015e+00 -2.9983599869463851e-01 +2.6878106449906564e+01 +1.2670392252251052e+03 -3.0328309098116326e+05 -1.3218492427164484e+07 
-4.2999999999999998e+00 -5.3710386476858141e-01 +7.3566040467903271e+00 -3.0100471461952055e-01 +2.6162929244147879e+01 +1.2911917548865647e+03 -2.9883459157621942e+05 -1.3351763107912889e+07 
-4.4000000000000004e+00 -5.3710392437897025e-01 +7.3566269699466789e+00 -3.0235430402800667e-01 +2.5352076185124783e+01 +1.3147241224217707e+03 -2.9387614539268479e+05 -1.3475613387894867e+07 
-4.5000000000000000e+00 -5.3710397933431742e-01 +7.3566532297106839e+00 -3.0389381947936339e-01 +2.4453786974752973e+01 +1.3381783744939903e+03 -2.8845433642323810e+05 -1.3593172030338185e+07 
-4.5999999999999996e+00 -5.3710403057438194e-01 +7.3566825753686551e+00 -3.0563231913111416e-01 +2.3476301223648239e+01 +1.3620966655366301e+03 -2.8261574784424214e+05 -1.3707568303279771e+07 
-4.7000000000000002e+00 -5.3710407903901736e-01 +7.3567147562061921e+00 -3.0757886240141918e-01 +2.2427858475091121e+01 +1.3870211652180924e+03 -2.7640696215218602e+05 -1.3821931511645133e+07 
-4.7999999999999998e+00 -5.3710412566793730e-01 +7.3567495215091583e+00 -3.0974251410990106e-01 +2.1316698159973988e+01 +1.4134941460595430e+03 -2.6987456086747226e+05 -1.3939391436822711e+07 
-4.9000000000000004e+00 -5.3710417140091671e-01 +7.3567866205626897e+00 -3.1213234480204211e-01 +2.0151059618123416e+01 +1.4420579827521281e+03 -2.6306512462780811e+05 -1.4063078314839728e+07 
-5.0000000000000000e+00 -5.3710421717760082e-01 +7.3568258026490483e+00 -3.1475742841279791e-01 +1.8939182168249761e+01 +1.4732551078135650e+03 -2.5602523361168616e+05 -1.4196122623427145e+07 
-5.0999999999999996e+00 -5.3710426393772137e-01 +7.3568668170536160e+00 -3.1762684241558869e-01 +1.7689304901156394e+01 +1.5076280191386938e+03 -2.4880146624995366e+05 -1.4341655130916731e+07 
-5.2000000000000002e+00 -5.3710431262085845e-01 +7.3569094130607029e+00 -3.2074967313641251e-01 +1.6409666823372731e+01 +1.5457193724819833e+03 -2.4144040011503390e+05 -1.4502807312132694e+07 
-5.2999999999999998e+00 -5.3710436416661556e-01 +7.3569533399487028e+00 -3.2413500827423009e-01 +1.5108506972562569e+01 +1.5880718460148726e+03 -2.3398861251701685e+05 -1.4682710721619096e+07 
-5.4000000000000004e+00 -5.3710441951449950e-01 +7.3569983470020324e+00 -3.2779194780139520e-01 +1.3794064062431470e+01 +1.6352283417711394e+03 -2.2649267842108876e+05 -1.4884497934714906e+07 
-5.5000000000000000e+00 -5.3710447960402374e-01 +7.3570441834960238e+00 -3.3172958878363212e-01 +1.2474576928524121e+01 +1.6877317030537740e+03 -2.1899917305041786e+05 -1.5111301218755642e+07 
-5.5999999999999996e+00 -5.3710454537465913e-01 +7.3570905987145885e+00 -3.3595704373451912e-01 +1.1158283998579094e+01 +1.7461250559803866e+03 -2.1155466876166451e+05 -1.5366254137624118e+07 
-5.7000000000000002e+00 -5.3710461776579954e-01 +7.3571373419288246e+00 -3.4048342523980302e-01 +9.8534239035159779e+00 +1.8109515190364252e+03 -2.0420573856410157e+05 -1.5652490174679851e+07 
-5.7999999999999998e+00 -5.3710469771678393e-01 +7.3571841624191086e+00 -3.4531785733787529e-01 +8.5682348374581832e+00 +1.8827544234078143e+03 -1.9699895240388878e+05 -1.5973143788185690e+07 
-5.9000000000000004e+00 -5.3710478616691859e-01 +7.3572308094580983e+00 -3.5046946811524404e-01 +7.3109550432005017e+00 +1.9620771642068962e+03 -1.8998087995952417e+05 -1.6331349684802432e+07 
-5.9999999999999902e+00 -5.3710488405539292e-01 +7.3572770323333545e+00 -3.5594739669982567e-01 +6.0898220626245321e+00 +2.0494633056692019e+03 -1.8319808635623023e+05 -1.6730243268685643e+07 
-6.0999999999999899e+00 -5.3710499215230534e-01 +7.3573226069344235e+00 -3.6174719136496014e-01 +4.9114093001913357e+00 +2.1451187623659312e+03 -1.7668663069210772e+05 -1.7171258944684699e+07 
-6.1999999999999904e+00 -5.3710511065931499e-01 +7.3573673798480135e+00 -3.6781564868207289e-01 +3.7769894607258858e+00 +2.2480852007793687e+03 -1.7044849068957381e+05 -1.7650045031450015e+07 
-6.2999999999999901e+00 -5.3710523965897927e-01 +7.3574112083468375e+00 -3.7408858972731945e-01 +2.6867830040336553e+00 +2.3571522842998143e+03 -1.6447873492015360e+05 -1.8161014858798262e+07 
-6.3999999999999897e+00 -5.3710537923380952e-01 +7.3574539496980034e+00 -3.8050183897901135e-01 +1.6410105902778918e+00 +2.4711097293622179e+03 -1.5877243324660507e+05 -1.8698581988006655e+07 
-6.4999999999999902e+00 -5.3710552946632262e-01 +7.3574954611539418e+00 -3.8699121698418637e-01 +6.3989332892209727e-01 +2.5887471590209811e+03 -1.5332465822680999e+05 -1.9257159496428862e+07 
-6.5999999999999899e+00 -5.3710569043899381e-01 +7.3575355999597347e+00 -3.9349254713858806e-01 -3.1634741016579410e-01 +2.7088542394146057e+03 -1.4813048408703227e+05 -1.9831160648370154e+07 
-6.6999999999999904e+00 -5.3710586223428747e-01 +7.3575742233488706e+00 -3.9994165074409638e-01 -1.2274898977537372e+00 +2.8302205783927629e+03 -1.4318498722718243e+05 -2.0414998393066496e+07 
-6.7999999999999901e+00 -5.3710604493467284e-01 +7.3576111885452677e+00 -4.0627434922011135e-01 -2.0933120777499465e+00 +2.9516357723733158e+03 -1.3848324610935111e+05 -2.1003085600813743e+07 
-6.8999999999999897e+00 -5.3710623862252227e-01 +7.3576463527601046e+00 -4.1242646236154717e-01 -2.9135914849405218e+00 +3.0718893669664758e+03 -1.3402034170887616e+05 -2.1589834859670568e+07 
-6.9999999999999902e+00 -5.3710644338024593e-01 +7.3576795731945523e+00 -4.1833381252761226e-01 -3.6881053176933323e+00 +3.1897709435993138e+03 -1.2979135711228338e+05 -2.2169658907088853e+07 
-7.0999999999999899e+00 -5.3710665929024615e-01 +7.3577107070327843e+00 -4.2393221548492782e-01 -4.4166302370516943e+00 +3.3040699356832270e+03 -1.2579137867995580e+05 -2.2736969729629561e+07 
-7.1999999999999904e+00 -5.3710688643485338e-01 +7.3577396114562594e+00 -4.2915749329767033e-01 -5.0989427702685148e+00 +3.4135758822314024e+03 -1.2201549373418283e+05 -2.3286179792281155e+07 
-7.2999999999999901e+00 -5.3710712489644730e-01 +7.3577661436220474e+00 -4.3394546119949812e-01 -5.7348186954745701e+00 +3.5170781731704660e+03 -1.1845879409458519e+05 -2.3811700815395147e+07 
-7.3999999999999897e+00 -5.3710737475726256e-01 +7.3577901606818088e+00 -4.3823193837888358e-01 -6.3240335699891403e+00 +3.6133662504526105e+03 -1.1511637307719688e+05 -2.4307944719411287e+07 
-7.4999999999999902e+00 -5.3710763609963841e-01 +7.3578115197702738e+00 -4.4195274100366100e-01 -6.8663624126373124e+00 +3.7012294832265961e+03 -1.1198332729172063e+05 -2.4769323054262184e+07 
-7.5999999999999899e+00 -5.3710790900579952e-01 +7.3578300780093722e+00 -4.4504368160348579e-01 -7.3615798002042956e+00 +3.7794571470830051e+03 -1.0905475615146861e+05 -2.5190246875843316e+07 
-7.6999999999999904e+00 -5.3710819355797068e-01 +7.3578456925081790e+00 -4.4744057915676100e-01 -7.8094598873065308e+00 +3.8468386232540215e+03 -1.0632576169449440e+05 -2.5565127714924283e+07 
-7.7999999999999901e+00 -5.3710848983840243e-01 +7.3578582203584730e+00 -4.4907924147405698e-01 -8.2097762518316291e+00 +3.9021630557738663e+03 -1.0379144956032046e+05 -2.5888375924184736e+07 
-7.8999999999999897e+00 -5.3710879792925592e-01 +7.3578675186364579e+00 -4.4989548670651369e-01 -8.5623019641934945e+00 +3.9442197655265204e+03 -1.0144692852829727e+05 -2.6154402664348990e+07 
-7.9999999999999902e+00 -5.3710911791266958e-01 +7.3578734444066018e+00 -4.4982512333700425e-01 -8.8668093051769095e+00 +3.9717978949302733e+03 -9.9287313063269336e+04 -2.6357618300615489e+07 
-8.0999999999999908e+00 -5.3710944973526276e-01 +7.3578759279997561e+00 -4.4882749471587574e-01 -9.1236142750963172e+00 +3.9841033322780067e+03 -9.7307795127802790e+04 -2.6494322685663711e+07 
-8.1999999999999904e+00 -5.3710979288418825e-01 +7.3578751582931483e+00 -4.4694476334496097e-01 -9.3351189683479614e+00 +3.9817794450180886e+03 -9.5502391049950893e+04 -2.6567235584754962e+07 
-8.2999999999999901e+00 -5.3711014674916235e-01 +7.3578713810437515e+00 -4.4423730730471350e-01 -9.5042107970204128e+00 +3.9657800731704428e+03 -9.3864621188771154e+04 -2.6580444217069387e+07 
-8.3999999999999897e+00 -5.3711051071986182e-01 +7.3578648420223081e+00 -4.4076550334335085e-01 -9.6337775390011942e+00 +3.9370590589767057e+03 -9.2388003860649886e+04 -2.6538035867017586e+07 
-8.4999999999999893e+00 -5.3711088418608177e-01 +7.3578557870084556e+00 -4.3658973064922718e-01 -9.7267071991206482e+00 +3.8965703214981077e+03 -9.1066056131731268e+04 -2.6444098249397699e+07 
-8.5999999999999908e+00 -5.3711126653756347e-01 +7.3578444617946488e+00 -4.3177036607231972e-01 -9.7858881211137643e+00 +3.8452677662170922e+03 -8.9892293178651904e+04 -2.6302719077596404e+07 
-8.6999999999999904e+00 -5.3711165716413933e-01 +7.3578311121878928e+00 -4.2636779218741278e-01 -9.8142090363356012e+00 +3.7841054377828132e+03 -8.8860228003469601e+04 -2.6117986789860468e+07 
-8.7999999999999794e+00 -5.3711205545566365e-01 +7.3578159840065549e+00 -4.2044238348631768e-01 -9.8145589703319729e+00 +3.7140372617959038e+03 -8.7963371984816520e+04 -2.5893989331509739e+07 
-8.8999999999999808e+00 -5.3711246080194708e-01 +7.3577993230806298e+00 -4.1405452415596156e-01 -9.7898272590589546e+00 +3.6360173796014897e+03 -8.7195234753504497e+04 -2.5634815737300161e+07 
-8.9999999999999805e+00 -5.3711287259296170e-01 +7.3577813752581163e+00 -4.0726459323557951e-01 -9.7429037147818018e+00 +3.5509998726745980e+03 -8.6549323284698621e+04 -2.5344554838389412e+07 
-9.0999999999999801e+00 -5.3711329021863130e-01 +7.3577623864004558e+00 -4.0013297025907185e-01 -9.6766785027352622e+00 +3.4599388662479523e+03 -8.6019142590346892e+04 -2.5027295745454565e+07 
-9.1999999999999797e+00 -5.3711371306888522e-01 +7.3577426023810766e+00 -3.9272003888912388e-01 -9.5940421029514589e+00 +3.3637886002328892e+03 -8.5598195924370870e+04 -2.4687128189430755e+07 
-9.2999999999999794e+00 -5.3711414053380890e-01 +7.3577222690897530e+00 -3.8508617867056588e-01 -9.4978854279842917e+00 +3.2635032761118314e+03 -8.5279984127494856e+04 -2.4328141801921673e+07 
-9.3999999999999808e+00 -5.3711457200340518e-01 +7.3577016324344742e+00 -3.7729177426159183e-01 -9.3910998758278286e+00 +3.1600372293970104e+03 -8.5058005320903379e+04 -2.3954426929035153e+07 
-9.4999999999999805e+00 -5.3711500686776259e-01 +7.3576809383359780e+00 -3.6939720510651547e-01 -9.2765771800055550e+00 +3.0543447373599338e+03 -8.4925755751461504e+04 -2.3570073724497367e+07 
-9.5999999999999801e+00 -5.3711544451704185e-01 +7.3576604327336828e+00 -3.6146285698925762e-01 -9.1572095664960980e+00 +2.9473802386390066e+03 -8.4876728922987924e+04 -2.3179173195792526e+07 
-9.6999999999999797e+00 -5.3711588434136515e-01 +7.3576403615827424e+00 -3.5354911333424816e-01 -9.0358896807231499e+00 +2.8400981716735737e+03 -8.4904415985341271e+04 -2.2785816443192609e+07 
-9.7999999999999794e+00 -5.3711632573100343e-01 +7.3576209708592515e+00 -3.4571635705293374e-01 -8.9155107234673157e+00 +2.7334530030082497e+03 -8.5002304988464064e+04 -2.2394094777891070e+07 
-9.8999999999999808e+00 -5.3711676807618913e-01 +7.3576025065507000e+00 -3.3802497279604049e-01 -8.7989661893346867e+00 +2.6283992820924013e+03 -8.5163882353144654e+04 -2.2008100012418181e+07 
-9.9999999999999805e+00 -5.3711721076720587e-01 +7.3575852146571981e+00 -3.3053535054260480e-01 -8.6891506472550759e+00 +2.5258916436073760e+03 -8.5382625300160405e+04 -2.1631924132350218e+07 
-1.0100000000000000e+01 -5.3711765323334759e-01 +7.3575692926841763e+00 -3.2330164091484992e-01 -8.5886648855461143e+00 +2.4267628208931860e+03 -8.5650212757777714e+04 -2.1269041899975512e+07 
