# field on trajectory
# s[mm] rx[mm] ry[mm] rz[mm] bx[T] by[T] bz[T]
0.0000000000000000e+00 +8.1529999999999987e+00 +0.0000000000000000e+00 +0.0000000000000000e+00 -3.0515961970796274e-02 -5.6443061020616803e-01 +5.6001844189905101e-03
1.0000000000000001e-01 +8.1529997170948043e+00 +0.0000000000000000e+00 +9.9999999999466446e-02 -3.0516059422281448e-02 -5.6443063442218844e-01 +5.6002411447528136e-03
2.0000000000000001e-01 +8.1529988683792034e+00 +0.0000000000000000e+00 +1.9999999999573145e-01 -3.0516150241896509e-02 -5.6443066981265333e-01 +5.6002980023482345e-03
3.0000000000000004e-01 +8.1529974538531587e+00 +0.0000000000000000e+00 +2.9999999998559362e-01 -3.0516235120180677e-02 -5.6443071527842237e-01 +5.6003550401552945e-03
4.0000000000000002e-01 +8.1529954735166275e+00 +0.0000000000000000e+00 +3.9999999996585156e-01 -3.0516314747666470e-02 -5.6443076972035733e-01 +5.6004123065515974e-03
5.0000000000000000e-01 +8.1529929273695529e+00 +0.0000000000000000e+00 +4.9999999993330385e-01 -3.0516389814880876e-02 -5.6443083203932187e-01 +5.6004698499139693e-03
5.9999999999999998e-01 +8.1529898154118747e+00 +0.0000000000000000e+00 +5.9999999988474906e-01 -3.0516461012346365e-02 -5.6443090113618133e-01 +5.6005277186185710e-03
6.9999999999999996e-01 +8.1529861376435218e+00 +0.0000000000000000e+00 +6.9999999981698580e-01 -3.0516529030582225e-02 -5.6443097591180413e-01 +5.6005859610410592e-03
7.9999999999999993e-01 +8.1529818940644212e+00 +0.0000000000000000e+00 +7.9999999972681257e-01 -3.0516594560105501e-02 -5.6443105526706117e-01 +5.6006446255566951e-03
8.9999999999999991e-01 +8.1529770846744931e+00 +0.0000000000000000e+00 +8.9999999961102806e-01 -3.0516658291432283e-02 -5.6443113810282686e-01 +5.6007037605405015e-03
9.9999999999999989e-01 +8.1529717094736540e+00 +0.0000000000000000e+00 +9.9999999946643081e-01 -3.0516720915078753e-02 -5.6443122331997997e-01 +5.6007634143673919e-03
1.0999999999999999e+00 +8.1529657684618186e+00 +0.0000000000000000e+00 +1.0999999992898193e+00 -3.0516783121562391e-02 -5.6443130981940226e-01 +5.6008236354122892e-03
1.2000000000000000e+00 +8.1529592616389017e+00 +0.0000000000000000e+00 +1.1999999990779922e+00 -3.0516845601403077e-02 -5.6443139650198149e-01 +5.6008844720502899e-03
1.3000000000000000e+00 +8.1529521890048162e+00 +0.0000000000000000e+00 +1.2999999988277480e+00 -3.0516909045124198e-02 -5.6443148226860929e-01 +5.6009459726567663e-03
1.4000000000000001e+00 +8.1529445505594751e+00 +0.0000000000000000e+00 +1.3999999985358853e+00 -3.0516974143253845e-02 -5.6443156602018285e-01 +5.6010081856075321e-03
1.5000000000000002e+00 +8.1529363463027966e+00 +0.0000000000000000e+00 +1.4999999981992027e+00 -3.0517041586325948e-02 -5.6443164665760615e-01 +5.6010711592789537e-03
1.6000000000000003e+00 +8.1529275762346991e+00 +0.0000000000000000e+00 +1.5999999978144988e+00 -3.0517112064881374e-02 -5.6443172308178813e-01 +5.6011349420480973e-03
1.7000000000000004e+00 +8.1529182403551079e+00 +0.0000000000000000e+00 +1.6999999973785722e+00 -3.0517186269469098e-02 -5.6443179419364486e-01 +5.6011995822928600e-03
1.8000000000000005e+00 +8.1529083386639503e+00 +0.0000000000000000e+00 +1.7999999968882214e+00 -3.0517264890647312e-02 -5.6443185889409964e-01 +5.6012651283921001e-03
1.9000000000000006e+00 +8.1528978711611639e+00 +0.0000000000000000e+00 +1.8999999963402450e+00 -3.0517348618984596e-02 -5.6443191608408283e-01 +5.6013316287257869e-03
2.0000000000000004e+00 +8.1528868378466903e+00 +0.0000000000000000e+00 +1.9999999957314414e+00 -3.0517438145061065e-02 -5.6443196466453316e-01 +5.6013991316751196e-03
2.1000000000000005e+00 +8.1528752387204815e+00 +0.0000000000000000e+00 +2.0999999950586092e+00 -3.0517533957269527e-02 -5.6443200389199943e-01 +5.6014676764880910e-03
2.2000000000000006e+00 +8.1528630737824983e+00 +0.0000000000000000e+00 +2.1999999943185471e+00 -3.0517635735214214e-02 -5.6443203444545054e-01 +5.6015372658756325e-03
2.3000000000000007e+00 +8.1528503430327106e+00 +0.0000000000000000e+00 +2.2999999935080537e+00 -3.0517742956306267e-02 -5.6443205735945978e-01 +5.6016078934148531e-03
2.4000000000000008e+00 +8.1528370464710953e+00 +0.0000000000000000e+00 +2.3999999926239277e+00 -3.0517855097963249e-02 -5.6443207366860371e-01 +5.6016795526835838e-03
2.5000000000000009e+00 +8.1528231840976364e+00 +0.0000000000000000e+00 +2.4999999916629672e+00 -3.0517971637609366e-02 -5.6443208440746073e-01 +5.6017522372604099e-03
2.6000000000000010e+00 +8.1528087559123232e+00 +0.0000000000000000e+00 +2.5999999906219711e+00 -3.0518092052675548e-02 -5.6443209061061062e-01 +5.6018259407246817e-03
2.7000000000000011e+00 +8.1527937619151505e+00 +0.0000000000000000e+00 +2.6999999894977380e+00 -3.0518215820599708e-02 -5.6443209331263522e-01 +5.6019006566565685e-03
2.8000000000000012e+00 +8.1527782021061164e+00 +0.0000000000000000e+00 +2.7999999882870665e+00 -3.0518342418826866e-02 -5.6443209354811685e-01 +5.6019763786370712e-03
2.9000000000000012e+00 +8.1527620764852209e+00 +0.0000000000000000e+00 +2.8999999869867548e+00 -3.0518471324809372e-02 -5.6443209235163894e-01 +5.6020531002480538e-03
3.0000000000000013e+00 +8.1527453850524658e+00 +0.0000000000000000e+00 +2.9999999855936017e+00 -3.0518602016007021e-02 -5.6443209075778544e-01 +5.6021308150722817e-03
3.1000000000000014e+00 +8.1527281278078529e+00 +0.0000000000000000e+00 +3.0999999841044059e+00 -3.0518733969887305e-02 -5.6443208980114012e-01 +5.6022095166934384e-03
3.2000000000000015e+00 +8.1527103047513823e+00 +0.0000000000000000e+00 +3.1999999825159660e+00 -3.0518866663925497e-02 -5.6443209051628684e-01 +5.6022891986961627e-03
3.3000000000000016e+00 +8.1526919158830555e+00 +0.0000000000000000e+00 +3.2999999808250799e+00 -3.0518999575604923e-02 -5.6443209393780980e-01 +5.6023698546660795e-03
3.4000000000000017e+00 +8.1526729612028692e+00 +0.0000000000000000e+00 +3.3999999790285469e+00 -3.0519132182417065e-02 -5.6443210110029174e-01 +5.6024514781898216e-03
3.5000000000000018e+00 +8.1526534407108162e+00 +0.0000000000000000e+00 +3.4999999771231654e+00 -3.0519263961861800e-02 -5.6443211303831453e-01 +5.6025340628550668e-03
3.6000000000000019e+00 +8.1526333544068859e+00 +0.0000000000000000e+00 +3.5999999751057339e+00 -3.0519394391447498e-02 -5.6443213078645849e-01 +5.6026176022505652e-03
3.7000000000000020e+00 +8.1526127022910604e+00 +0.0000000000000000e+00 +3.6999999729730511e+00 -3.0519522948691282e-02 -5.6443215537930325e-01 +5.6027020899661606e-03
3.8000000000000020e+00 +8.1525914843633149e+00 +0.0000000000000000e+00 +3.7999999707219154e+00 -3.0519649111119176e-02 -5.6443218785142579e-01 +5.6027875195928320e-03
3.9000000000000021e+00 +8.1525697006236193e+00 +0.0000000000000000e+00 +3.8999999683491255e+00 -3.0519772356266232e-02 -5.6443222923740111e-01 +5.6028738847227226e-03
4.0000000000000018e+00 +8.1525473510719308e+00 +0.0000000000000000e+00 +3.9999999658514800e+00 -3.0519892161676804e-02 -5.6443228057180161e-01 +5.6029611789491464e-03
4.1000000000000014e+00 +8.1525244357081998e+00 +0.0000000000000000e+00 +4.0999999632257769e+00 -3.0520008148685340e-02 -5.6443234266378417e-01 +5.6030494221455682e-03
4.2000000000000011e+00 +8.1525009545323659e+00 +0.0000000000000000e+00 +4.1999999604688156e+00 -3.0520120513748632e-02 -5.6443241542084943e-01 +5.6031387393025165e-03
4.3000000000000007e+00 +8.1524769075443544e+00 +0.0000000000000000e+00 +4.2999999575773939e+00 -3.0520229597084402e-02 -5.6443249852508293e-01 +5.6032292816909296e-03
4.4000000000000004e+00 +8.1524522947440836e+00 +0.0000000000000000e+00 +4.3999999545483108e+00 -3.0520335738886049e-02 -5.6443259165856718e-01 +5.6033212005832441e-03
4.5000000000000000e+00 +8.1524271161314630e+00 +0.0000000000000000e+00 +4.4999999513783644e+00 -3.0520439279320865e-02 -5.6443269450338351e-01 +5.6034146472534229e-03
4.5999999999999996e+00 +8.1524013717063877e+00 +0.0000000000000000e+00 +4.5999999480643536e+00 -3.0520540558528337e-02 -5.6443280674160967e-01 +5.6035097729770127e-03
4.6999999999999993e+00 +8.1523750614687476e+00 +0.0000000000000000e+00 +4.6999999446030776e+00 -3.0520639916618457e-02 -5.6443292805532119e-01 +5.6036067290311641e-03
4.7999999999999989e+00 +8.1523481854184201e+00 +0.0000000000000000e+00 +4.7999999409913334e+00 -3.0520737693669919e-02 -5.6443305812659050e-01 +5.6037056666946921e-03
4.8999999999999986e+00 +8.1523207435552774e+00 +0.0000000000000000e+00 +4.8999999372259211e+00 -3.0520834229728434e-02 -5.6443319663748659e-01 +5.6038067372480866e-03
4.9999999999999982e+00 +8.1522927358791808e+00 +0.0000000000000000e+00 +4.9999999333036378e+00 -3.0520929864805011e-02 -5.6443334327007555e-01 +5.6039100919735895e-03
5.0999999999999979e+00 +8.1522641623899847e+00 +0.0000000000000000e+00 +5.0999999292212825e+00 -3.0521024938874191e-02 -5.6443349770641860e-01 +5.6040158821551982e-03
5.1999999999999975e+00 +8.1522350230875364e+00 +0.0000000000000000e+00 +5.1999999249756543e+00 -3.0521119791872314e-02 -5.6443365962857406e-01 +5.6041242590787301e-03
5.2999999999999972e+00 +8.1522053179716725e+00 +0.0000000000000000e+00 +5.2999999205635513e+00 -3.0521214763695865e-02 -5.6443382871859649e-01 +5.6042353740318497e-03
5.3999999999999968e+00 +8.1521750470422258e+00 +0.0000000000000000e+00 +5.3999999159817715e+00 -3.0521310194199611e-02 -5.6443400465853477e-01 +5.6043493783041127e-03
5.4999999999999964e+00 +8.1521442102990189e+00 +0.0000000000000000e+00 +5.4999999112271141e+00 -3.0521406423195018e-02 -5.6443418713043414e-01 +5.6044664231870017e-03
5.5999999999999961e+00 +8.1521128077418723e+00 +0.0000000000000000e+00 +5.5999999062963779e+00 -3.0521503790448389e-02 -5.6443437581633493e-01 +5.6045866599739704e-03
5.6999999999999957e+00 +8.1520808393705959e+00 +0.0000000000000000e+00 +5.6999999011863602e+00 -3.0521602635679237e-02 -5.6443457039827205e-01 +5.6047102399604800e-03
5.7999999999999954e+00 +8.1520483051849979e+00 +0.0000000000000000e+00 +5.7999998958938601e+00 -3.0521703298558474e-02 -5.6443477055827596e-01 +5.6048373144440399e-03
5.8999999999999950e+00 +8.1520152051848775e+00 +0.0000000000000000e+00 +5.8999998904156765e+00 -3.0521806118706758e-02 -5.6443497597837056e-01 +5.6049680347242470e-03
5.9999999999999947e+00 +8.1519815393700288e+00 +0.0000000000000000e+00 +5.9999998847486076e+00 -3.0521911435692668e-02 -5.6443518634057510e-01 +5.6051025521028199e-03
6.0999999999999943e+00 +8.1519473077402438e+00 +0.0000000000000000e+00 +6.0999998788894514e+00 -3.0522019440604588e-02 -5.6443540124451830e-01 +5.6052409582347728e-03
6.1999999999999940e+00 +8.1519125102953076e+00 +0.0000000000000000e+00 +6.1999998728350070e+00 -3.0522129730800138e-02 -5.6443561996028080e-01 +5.6053831061776910e-03
6.2999999999999936e+00 +8.1518771470350018e+00 +0.0000000000000000e+00 +6.2999998665820724e+00 -3.0522241755244064e-02 -5.6443584167554361e-01 +5.6055287893328953e-03
6.3999999999999932e+00 +8.1518412179591060e+00 +0.0000000000000000e+00 +6.3999998601274468e+00 -3.0522354962945943e-02 -5.6443606557797144e-01 +5.6056778010935707e-03
6.4999999999999929e+00 +8.1518047230673965e+00 +0.0000000000000000e+00 +6.4999998534679273e+00 -3.0522468802962523e-02 -5.6443629085521008e-01 +5.6058299348443969e-03
6.5999999999999925e+00 +8.1517676623596493e+00 +0.0000000000000000e+00 +6.5999998466003138e+00 -3.0522582724399869e-02 -5.6443651669488915e-01 +5.6059849839611899e-03
6.6999999999999922e+00 +8.1517300358356373e+00 +0.0000000000000000e+00 +6.6999998395214035e+00 -3.0522696176415738e-02 -5.6443674228461871e-01 +5.6061427418105476e-03
6.7999999999999918e+00 +8.1516918434951382e+00 +0.0000000000000000e+00 +6.7999998322279955e+00 -3.0522808608221756e-02 -5.6443696681198985e-01 +5.6063030017494773e-03
6.8999999999999915e+00 +8.1516530853379265e+00 +0.0000000000000000e+00 +6.8999998247168879e+00 -3.0522919469085724e-02 -5.6443718946457344e-01 +5.6064655571250481e-03
6.9999999999999911e+00 +8.1516137613637820e+00 +0.0000000000000000e+00 +6.9999998169848796e+00 -3.0523028208333889e-02 -5.6443740942992093e-01 +5.6066302012740205e-03
7.0999999999999908e+00 +8.1515738715724844e+00 +0.0000000000000000e+00 +7.0999998090287688e+00 -3.0523134275353147e-02 -5.6443762589556212e-01 +5.6067967275224865e-03
7.1999999999999904e+00 +8.1515334159638169e+00 +0.0000000000000000e+00 +7.1999998008453536e+00 -3.0523237119593337e-02 -5.6443783804900516e-01 +5.6069649291855123e-03
7.2999999999999901e+00 +8.1514923945375699e+00 +0.0000000000000000e+00 +7.2999997924314330e+00 -3.0523336190569527e-02 -5.6443804507773554e-01 +5.6071345995667831e-03
7.3999999999999897e+00 +8.1514508072935374e+00 +0.0000000000000000e+00 +7.3999997837838052e+00 -3.0523430937864242e-02 -5.6443824616921712e-01 +5.6073055319582265e-03
7.4999999999999893e+00 +8.1514086542315169e+00 +0.0000000000000000e+00 +7.4999997748992682e+00 -3.0523520811129704e-02 -5.6443844051088932e-01 +5.6074775196396686e-03
7.5999999999999890e+00 +8.1513659353513166e+00 +0.0000000000000000e+00 +7.5999997657746210e+00 -3.0523605260090143e-02 -5.6443862729016780e-01 +5.6076503558784617e-03
7.6999999999999886e+00 +8.1513226506527516e+00 +0.0000000000000000e+00 +7.6999997564066618e+00 -3.0523683734544019e-02 -5.6443880569444305e-01 +5.6078238339291320e-03
7.7999999999999883e+00 +8.1512788001356444e+00 +0.0000000000000000e+00 +7.7999997467921887e+00 -3.0523755684366292e-02 -5.6443897491108197e-01 +5.6079977470330188e-03
7.8999999999999879e+00 +8.1512343837998245e+00 +0.0000000000000000e+00 +7.8999997369280006e+00 -3.0523820559510702e-02 -5.6443913412742275e-01 +5.6081718884179029e-03
7.9999999999999876e+00 +8.1511894016451354e+00 +0.0000000000000000e+00 +7.9999997268108958e+00 -3.0523877810011962e-02 -5.6443928253077980e-01 +5.6083460512976668e-03
8.0999999999999872e+00 +8.1511438536714298e+00 +0.0000000000000000e+00 +8.0999997164376722e+00 -3.0523927113188166e-02 -5.6443941959062671e-01 +5.6085200521603703e-03
8.1999999999999869e+00 +8.1510977398785727e+00 +0.0000000000000000e+00 +8.1999997058051282e+00 -3.0523969055211764e-02 -5.6443954590518941e-01 +5.6086938006416126e-03
8.2999999999999865e+00 +8.1510510602664379e+00 +0.0000000000000000e+00 +8.2999996949100634e+00 -3.0524004449438126e-02 -5.6443966235490817e-01 +5.6088672296719759e-03
8.3999999999999861e+00 +8.1510038148349100e+00 +0.0000000000000000e+00 +8.3999996837492752e+00 -3.0524034109190860e-02 -5.6443976982025090e-01 +5.6090402721903666e-03
8.4999999999999858e+00 +8.1509560035838824e+00 +0.0000000000000000e+00 +8.4999996723195625e+00 -3.0524058847760514e-02 -5.6443986918171463e-01 +5.6092128611443613e-03
8.5999999999999854e+00 +8.1509076265132574e+00 +0.0000000000000000e+00 +8.5999996606177245e+00 -3.0524079478403247e-02 -5.6443996131982554e-01 +5.6093849294905481e-03
8.6999999999999851e+00 +8.1508586836229444e+00 +0.0000000000000000e+00 +8.6999996486405582e+00 -3.0524096814339471e-02 -5.6444004711514140e-01 +5.6095564101948424e-03
8.7999999999999847e+00 +8.1508091749128582e+00 +0.0000000000000000e+00 +8.7999996363848627e+00 -3.0524111668752643e-02 -5.6444012744825145e-01 +5.6097272362328407e-03
8.8999999999999844e+00 +8.1507591003829205e+00 +0.0000000000000000e+00 +8.8999996238474353e+00 -3.0524124854787782e-02 -5.6444020319977806e-01 +5.6098973405901507e-03
8.9999999999999840e+00 +8.1507084600330568e+00 +0.0000000000000000e+00 +8.9999996110250766e+00 -3.0524137185550262e-02 -5.6444027525037732e-01 +5.6100666562627138e-03
9.0999999999999837e+00 +8.1506572538631961e+00 +0.0000000000000000e+00 +9.0999995979145840e+00 -3.0524149474104461e-02 -5.6444034448074032e-01 +5.6102351162571600e-03
9.1999999999999833e+00 +8.1506054818732707e+00 +0.0000000000000000e+00 +9.1999995845127547e+00 -3.0524162533472451e-02 -5.6444041177159554e-01 +5.6104026535911330e-03
9.2999999999999829e+00 +8.1505531440632133e+00 +0.0000000000000000e+00 +9.2999995708163894e+00 -3.0524177176632611e-02 -5.6444047800370711e-01 +5.6105692012936269e-03
9.3999999999999826e+00 +8.1505002404329616e+00 +0.0000000000000000e+00 +9.3999995568222854e+00 -3.0524194216518422e-02 -5.6444054405787814e-01 +5.6107346924053076e-03
9.4999999999999822e+00 +8.1504467709824500e+00 +0.0000000000000000e+00 +9.4999995425272399e+00 -3.0524214466017014e-02 -5.6444061081495100e-01 +5.6108990599788829e-03
9.5999999999999819e+00 +8.1503927357116126e+00 +0.0000000000000000e+00 +9.5999995279280537e+00 -3.0524238737967974e-02 -5.6444067915580831e-01 +5.6110622370793978e-03
9.6999999999999815e+00 +8.1503381346203820e+00 +0.0000000000000000e+00 +9.6999995130215240e+00 -3.0524267845161913e-02 -5.6444074996137461e-01 +5.6112241567845902e-03
9.7999999999999812e+00 +8.1502829677086908e+00 +0.0000000000000000e+00 +9.7999994978044480e+00 -3.0524302600339209e-02 -5.6444082411261653e-01 +5.6113847521852243e-03
9.8999999999999808e+00 +8.1502272349764660e+00 +0.0000000000000000e+00 +9.8999994822736266e+00 -3.0524343816188668e-02 -5.6444090249054368e-01 +5.6115439563854241e-03
9.9999999999999805e+00 +8.1501709364236294e+00 +0.0000000000000000e+00 +9.9999994664258569e+00 -3.0524392305346190e-02 -5.6444098597621162e-01 +5.6117017025030065e-03
1.0099999999999980e+01 +8.1501140720500995e+00 +0.0000000000000000e+00 +1.0099999450257938e+01 -3.0524448657091828e-02 -5.6444107540343802e-01 +5.6118579392591735e-03
1.0199999999999980e+01 +8.1500566418557892e+00 +0.0000000000000000e+00 +1.0199999433766667e+01 -3.0524512567447426e-02 -5.6444117141695394e-01 +5.6120126777433514e-03
1.0299999999999979e+01 +8.1499986458406042e+00 +0.0000000000000000e+00 +1.0299999416948843e+01 -3.0524583509120101e-02 -5.6444127461425386e-01 +5.6121659446367253e-03
1.0399999999999979e+01 +8.1499400840044416e+00 +0.0000000000000000e+00 +1.0399999399801265e+01 -3.0524660954815635e-02 -5.6444138559287926e-01 +5.6123177666212529e-03
1.0499999999999979e+01 +8.1498809563471930e+00 +0.0000000000000000e+00 +1.0499999382320730e+01 -3.0524744377238466e-02 -5.6444150495042156e-01 +5.6124681703796598e-03
1.0599999999999978e+01 +8.1498212628687394e+00 +0.0000000000000000e+00 +1.0599999364504038e+01 -3.0524833249091728e-02 -5.6444163328452091e-01 +5.6126171825954209e-03
1.0699999999999978e+01 +8.1497610035689565e+00 +0.0000000000000000e+00 +1.0699999346347987e+01 -3.0524927043077320e-02 -5.6444177119286942e-01 +5.6127648299527802e-03
1.0799999999999978e+01 +8.1497001784477057e+00 +0.0000000000000000e+00 +1.0799999327849374e+01 -3.0525025231895930e-02 -5.6444191927321052e-01 +5.6129111391367299e-03
1.0899999999999977e+01 +8.1496387875048413e+00 +0.0000000000000000e+00 +1.0899999309004999e+01 -3.0525127288247043e-02 -5.6444207812334091e-01 +5.6130561368330067e-03
1.0999999999999977e+01 +8.1495768307402052e+00 +0.0000000000000000e+00 +1.0999999289811660e+01 -3.0525232684829016e-02 -5.6444224834111134e-01 +5.6131998497280936e-03
1.1099999999999977e+01 +8.1495143081536288e+00 +0.0000000000000000e+00 +1.1099999270266155e+01 -3.0525340894339122e-02 -5.6444243052442811e-01 +5.6133423045092185e-03
1.1199999999999976e+01 +8.1494512197449325e+00 +0.0000000000000000e+00 +1.1199999250365282e+01 -3.0525451389473515e-02 -5.6444262527125266e-01 +5.6134835278643363e-03
1.1299999999999976e+01 +8.1493875655139227e+00 +0.0000000000000000e+00 +1.1299999230105842e+01 -3.0525563642927363e-02 -5.6444283317960398e-01 +5.6136235464821381e-03
1.1399999999999975e+01 +8.1493233454603917e+00 +0.0000000000000000e+00 +1.1399999209484630e+01 -3.0525677127394842e-02 -5.6444305484755941e-01 +5.6137623870520428e-03
1.1499999999999975e+01 +8.1492585595841209e+00 +0.0000000000000000e+00 +1.1499999188498446e+01 -3.0525791315569165e-02 -5.6444329087325562e-01 +5.6139000762641866e-03
1.1599999999999975e+01 +8.1491932078848741e+00 +0.0000000000000000e+00 +1.1599999167144087e+01 -3.0525905680142643e-02 -5.6444354185488899e-01 +5.6140366408094326e-03
1.1699999999999974e+01 +8.1491272903624026e+00 +0.0000000000000000e+00 +1.1699999145418353e+01 -3.0526019693806722e-02 -5.6444380839071728e-01 +5.6141721073793560e-03
1.1799999999999974e+01 +8.1490608070164416e+00 +0.0000000000000000e+00 +1.1799999123318040e+01 -3.0526132829252019e-02 -5.6444409107906102e-01 +5.6143065026662432e-03
