# trajectory
# s[mm] rx[mm] ry[mm] rz[mm] px[rad] py[rad] pz[rad]
0.0000000000000000e+00 +7.9199999999999999e+00 +0.0000000000000000e+00 +0.0000000000000000e+00 +0.0000000000000000e+00 +0.0000000000000000e+00 +1.0000000000000000e+00
1.0000000000000001e-01 +7.9199997166962985e+00 +0.0000000000000000e+00 +9.9999999999464934e-02 -5.6660737079462293e-06 +0.0000000000000000e+00 +9.9999999998394784e-01
2.0000000000000001e-01 +7.9199988667853223e+00 +0.0000000000000000e+00 +1.9999999999571944e-01 -1.1332145513294208e-05 +0.0000000000000000e+00 +9.9999999993579125e-01
3.0000000000000004e-01 +7.9199974502672577e+00 +0.0000000000000000e+00 +2.9999999998555305e-01 -1.6998215478706034e-05 +0.0000000000000000e+00 +9.9999999985553034e-01
4.0000000000000002e-01 +7.9199954671422859e+00 +0.0000000000000000e+00 +3.9999999996575536e-01 -2.2664283668010145e-05 +0.0000000000000000e+00 +9.9999999974316511e-01
5.0000000000000000e-01 +7.9199929174105810e+00 +0.0000000000000000e+00 +4.9999999993311595e-01 -2.8330350146201341e-05 +0.0000000000000000e+00 +9.9999999959869557e-01
5.9999999999999998e-01 +7.9199898010723109e+00 +0.0000000000000000e+00 +5.9999999988442432e-01 -3.3996414979440796e-05 +0.0000000000000000e+00 +9.9999999942212181e-01
6.9999999999999996e-01 +7.9199861181276372e+00 +0.0000000000000000e+00 +6.9999999981647010e-01 -3.9662478235056049e-05 +0.0000000000000000e+00 +9.9999999921344385e-01
7.9999999999999993e-01 +7.9199818685767145e+00 +0.0000000000000000e+00 +7.9999999972604297e-01 -4.5328539981541073e-05 +0.0000000000000000e+00 +9.9999999897266167e-01
8.9999999999999991e-01 +7.9199770524196893e+00 +0.0000000000000000e+00 +8.9999999960993238e-01 -5.0994600288556283e-05 +0.0000000000000000e+00 +9.9999999869977529e-01
9.9999999999999989e-01 +7.9199716696567029e+00 +0.0000000000000000e+00 +9.9999999946492790e-01 -5.6660659226928596e-05 +0.0000000000000000e+00 +9.9999999839478482e-01
1.0999999999999999e+00 +7.9199657202878875e+00 +0.0000000000000000e+00 +1.0999999992878191e+00 -6.2326716868651476e-05 +0.0000000000000000e+00 +9.9999999805769013e-01
1.2000000000000000e+00 +7.9199592043133702e+00 +0.0000000000000000e+00 +1.1999999990753958e+00 -6.7992773286885001e-05 +0.0000000000000000e+00 +9.9999999768849135e-01
1.3000000000000000e+00 +7.9199521217332691e+00 +0.0000000000000000e+00 +1.2999999988244473e+00 -7.3658828555955933e-05 +0.0000000000000000e+00 +9.9999999728718847e-01
1.4000000000000001e+00 +7.9199444725476953e+00 +0.0000000000000000e+00 +1.3999999985317633e+00 -7.9324882751357785e-05 +0.0000000000000000e+00 +9.9999999685378149e-01
1.5000000000000002e+00 +7.9199362567567526e+00 +0.0000000000000000e+00 +1.4999999981941334e+00 -8.4990935949750927e-05 +0.0000000000000000e+00 +9.9999999638827042e-01
1.6000000000000003e+00 +7.9199274743605361e+00 +0.0000000000000000e+00 +1.5999999978083472e+00 -9.0656988228962672e-05 +0.0000000000000000e+00 +9.9999999589065525e-01
1.7000000000000004e+00 +7.9199181253591346e+00 +0.0000000000000000e+00 +1.6999999973711943e+00 -9.6323039667987366e-05 +0.0000000000000000e+00 +9.9999999536093598e-01
1.8000000000000005e+00 +7.9199082097526281e+00 +0.0000000000000000e+00 +1.7999999968794642e+00 -1.0198909034698650e-04 +0.0000000000000000e+00 +9.9999999479911272e-01
1.9000000000000006e+00 +7.9198977275410885e+00 +0.0000000000000000e+00 +1.8999999963299468e+00 -1.0765514034728887e-04 +0.0000000000000000e+00 +9.9999999420518537e-01
2.0000000000000004e+00 +7.9198866787245787e+00 +0.0000000000000000e+00 +1.9999999957194312e+00 -1.1332118975139065e-04 +0.0000000000000000e+00 +9.9999999357915392e-01
2.1000000000000005e+00 +7.9198750633031549e+00 +0.0000000000000000e+00 +2.0999999950447075e+00 -1.1898723864290355e-04 +0.0000000000000000e+00 +9.9999999292101849e-01
2.2000000000000006e+00 +7.9198628812768641e+00 +0.0000000000000000e+00 +2.1999999943025648e+00 -1.2465328710598294e-04 +0.0000000000000000e+00 +9.9999999223077896e-01
2.3000000000000007e+00 +7.9198501326457453e+00 +0.0000000000000000e+00 +2.2999999934897932e+00 -1.3031933522475591e-04 +0.0000000000000000e+00 +9.9999999150843533e-01
2.4000000000000008e+00 +7.9198368174098279e+00 +0.0000000000000000e+00 +2.3999999926031821e+00 -1.3598538308326946e-04 +0.0000000000000000e+00 +9.9999999075398771e-01
2.5000000000000009e+00 +7.9198229355691341e+00 +0.0000000000000000e+00 +2.4999999916395206e+00 -1.4165143076549049e-04 +0.0000000000000000e+00 +9.9999998996743600e-01
2.6000000000000010e+00 +7.9198084871236780e+00 +0.0000000000000000e+00 +2.5999999905955988e+00 -1.4731747835530599e-04 +0.0000000000000000e+00 +9.9999998914878019e-01
2.7000000000000011e+00 +7.9197934720734633e+00 +0.0000000000000000e+00 +2.6999999894682065e+00 -1.5298352593652321e-04 +0.0000000000000000e+00 +9.9999998829802028e-01
2.8000000000000012e+00 +7.9197778904184881e+00 +0.0000000000000000e+00 +2.7999999882541329e+00 -1.5864957359286970e-04 +0.0000000000000000e+00 +9.9999998741515628e-01
2.9000000000000012e+00 +7.9197617421587401e+00 +0.0000000000000000e+00 +2.8999999869501676e+00 -1.6431562140799345e-04 +0.0000000000000000e+00 +9.9999998650018818e-01
3.0000000000000013e+00 +7.9197450272941987e+00 +0.0000000000000000e+00 +2.9999999855531003e+00 -1.6998166946546308e-04 +0.0000000000000000e+00 +9.9999998555311587e-01
3.1000000000000014e+00 +7.9197277458248356e+00 +0.0000000000000000e+00 +3.0999999840597208e+00 -1.7564771784876792e-04 +0.0000000000000000e+00 +9.9999998457393946e-01
3.2000000000000015e+00 +7.9197098977506153e+00 +0.0000000000000000e+00 +3.1999999824668182e+00 -1.8131376664131811e-04 +0.0000000000000000e+00 +9.9999998356265885e-01
3.3000000000000016e+00 +7.9196914830714915e+00 +0.0000000000000000e+00 +3.2999999807711822e+00 -1.8697981592644488e-04 +0.0000000000000000e+00 +9.9999998251927402e-01
3.4000000000000017e+00 +7.9196725017874110e+00 +0.0000000000000000e+00 +3.3999999789696025e+00 -1.9264586578740054e-04 +0.0000000000000000e+00 +9.9999998144378499e-01
3.5000000000000018e+00 +7.9196529538983125e+00 +0.0000000000000000e+00 +3.4999999770588688e+00 -1.9831191630735866e-04 +0.0000000000000000e+00 +9.9999998033619175e-01
3.6000000000000019e+00 +7.9196328394041249e+00 +0.0000000000000000e+00 +3.5999999750357707e+00 -2.0397796756941436e-04 +0.0000000000000000e+00 +9.9999997919649419e-01
3.7000000000000020e+00 +7.9196121583047709e+00 +0.0000000000000000e+00 +3.6999999728970976e+00 -2.0964401965658424e-04 +0.0000000000000000e+00 +9.9999997802469232e-01
3.8000000000000020e+00 +7.9195909106001636e+00 +0.0000000000000000e+00 +3.7999999706396390e+00 -2.1531007265180671e-04 +0.0000000000000000e+00 +9.9999997682078612e-01
3.9000000000000021e+00 +7.9195690962902079e+00 +0.0000000000000000e+00 +3.8999999682601847e+00 -2.2097612663794206e-04 +0.0000000000000000e+00 +9.9999997558477549e-01
4.0000000000000018e+00 +7.9195467153748007e+00 +0.0000000000000000e+00 +3.9999999657555239e+00 -2.2664218169777265e-04 +0.0000000000000000e+00 +9.9999997431666043e-01
4.1000000000000014e+00 +7.9195237678538302e+00 +0.0000000000000000e+00 +4.0999999631224462e+00 -2.3230823791390475e-04 +0.0000000000000000e+00 +9.9999997301644095e-01
4.2000000000000011e+00 +7.9195002537271764e+00 +0.0000000000000000e+00 +4.1999999603577418e+00 -2.3797429536768691e-04 +0.0000000000000000e+00 +9.9999997168411703e-01
4.3000000000000007e+00 +7.9194761729947123e+00 +0.0000000000000000e+00 +4.2999999574581995e+00 -2.4364035413812802e-04 +0.0000000000000000e+00 +9.9999997031968857e-01
4.4000000000000004e+00 +7.9194515256563021e+00 +0.0000000000000000e+00 +4.3999999544206094e+00 -2.4930641430179835e-04 +0.0000000000000000e+00 +9.9999996892315546e-01
4.5000000000000000e+00 +7.9194263117118027e+00 +0.0000000000000000e+00 +4.4999999512417608e+00 -2.5497247593282902e-04 +0.0000000000000000e+00 +9.9999996749451781e-01
4.5999999999999996e+00 +7.9194005311610640e+00 +0.0000000000000000e+00 +4.5999999479184428e+00 -2.6063853910291123e-04 +0.0000000000000000e+00 +9.9999996603377550e-01
4.6999999999999993e+00 +7.9193741840039289e+00 +0.0000000000000000e+00 +4.6999999444474456e+00 -2.6630460388129559e-04 +0.0000000000000000e+00 +9.9999996454092843e-01
4.7999999999999989e+00 +7.9193472702402321e+00 +0.0000000000000000e+00 +4.7999999408255585e+00 -2.7197067033479138e-04 +0.0000000000000000e+00 +9.9999996301597660e-01
4.8999999999999986e+00 +7.9193197898698040e+00 +0.0000000000000000e+00 +4.8999999370495706e+00 -2.7763673852776585e-04 +0.0000000000000000e+00 +9.9999996145892001e-01
4.9999999999999982e+00 +7.9192917428924670e+00 +0.0000000000000000e+00 +4.9999999331162721e+00 -2.8330280852214326e-04 +0.0000000000000000e+00 +9.9999995986975854e-01
5.0999999999999979e+00 +7.9192631293080380e+00 +0.0000000000000000e+00 +5.0999999290224522e+00 -2.8896888037740408e-04 +0.0000000000000000e+00 +9.9999995824849219e-01
5.1999999999999975e+00 +7.9192339491163279e+00 +0.0000000000000000e+00 +5.1999999247649002e+00 -2.9463495415058406e-04 +0.0000000000000000e+00 +9.9999995659512098e-01
5.2999999999999972e+00 +7.9192042023171423e+00 +0.0000000000000000e+00 +5.2999999203404062e+00 -3.0030102989627344e-04 +0.0000000000000000e+00 +9.9999995490964477e-01
5.3999999999999968e+00 +7.9191738889102812e+00 +0.0000000000000000e+00 +5.3999999157457594e+00 -3.0596710766661573e-04 +0.0000000000000000e+00 +9.9999995319206347e-01
5.4999999999999964e+00 +7.9191430088955395e+00 +0.0000000000000000e+00 +5.4999999109777491e+00 -3.1163318751130679e-04 +0.0000000000000000e+00 +9.9999995144237708e-01
5.5999999999999961e+00 +7.9191115622727075e+00 +0.0000000000000000e+00 +5.5999999060331644e+00 -3.1729926947759383e-04 +0.0000000000000000e+00 +9.9999994966058559e-01
5.6999999999999957e+00 +7.9190795490415713e+00 +0.0000000000000000e+00 +5.6999999009087956e+00 -3.2296535361027424e-04 +0.0000000000000000e+00 +9.9999994784668889e-01
5.7999999999999954e+00 +7.9190469692019114e+00 +0.0000000000000000e+00 +5.7999998956014318e+00 -3.2863143995169445e-04 +0.0000000000000000e+00 +9.9999994600068698e-01
5.8999999999999950e+00 +7.9190138227535058e+00 +0.0000000000000000e+00 +5.8999998901078623e+00 -3.3429752854174873e-04 +0.0000000000000000e+00 +9.9999994412257975e-01
5.9999999999999947e+00 +7.9189801096961272e+00 +0.0000000000000000e+00 +5.9999998844248772e+00 -3.3996361941787798e-04 +0.0000000000000000e+00 +9.9999994221236721e-01
6.0999999999999943e+00 +7.9189458300295454e+00 +0.0000000000000000e+00 +6.0999998785492657e+00 -3.4562971261545956e-04 +0.0000000000000000e+00 +9.9999994027004924e-01
6.1999999999999940e+00 +7.9189109837535261e+00 +0.0000000000000000e+00 +6.1999998724778171e+00 -3.5129580817210791e-04 +0.0000000000000000e+00 +9.9999993829562583e-01
6.2999999999999936e+00 +7.9188755708678311e+00 +0.0000000000000000e+00 +6.2999998662073207e+00 -3.5696190613197651e-04 +0.0000000000000000e+00 +9.9999993628909689e-01
6.3999999999999932e+00 +7.9188395913722180e+00 +0.0000000000000000e+00 +6.3999998597345664e+00 -3.6262800654614962e-04 +0.0000000000000000e+00 +9.9999993425046241e-01
6.4999999999999929e+00 +7.9188030452664382e+00 +0.0000000000000000e+00 +6.4999998530563428e+00 -3.6829410947264332e-04 +0.0000000000000000e+00 +9.9999993217972227e-01
6.5999999999999925e+00 +7.9187659325502375e+00 +0.0000000000000000e+00 +6.5999998461694407e+00 -3.7396021497640642e-04 +0.0000000000000000e+00 +9.9999993007687649e-01
6.6999999999999922e+00 +7.9187282532233549e+00 +0.0000000000000000e+00 +6.6999998390706486e+00 -3.7962632312932146e-04 +0.0000000000000000e+00 +9.9999992794192494e-01
6.7999999999999918e+00 +7.9186900072855213e+00 +0.0000000000000000e+00 +6.7999998317567556e+00 -3.8529243401020589e-04 +0.0000000000000000e+00 +9.9999992577486752e-01
6.8999999999999915e+00 +7.9186511947364595e+00 +0.0000000000000000e+00 +6.8999998242245519e+00 -3.9095854770481293e-04 +0.0000000000000000e+00 +9.9999992357570422e-01
6.9999999999999911e+00 +7.9186118155758836e+00 +0.0000000000000000e+00 +6.9999998164708268e+00 -3.9662466430583304e-04 +0.0000000000000000e+00 +9.9999992134443494e-01
7.0999999999999908e+00 +7.9185718698034977e+00 +0.0000000000000000e+00 +7.0999998084923694e+00 -4.0229078391289486e-04 +0.0000000000000000e+00 +9.9999991908105956e-01
7.1999999999999904e+00 +7.9185313574189964e+00 +0.0000000000000000e+00 +7.1999998002859691e+00 -4.0795690663256661e-04 +0.0000000000000000e+00 +9.9999991678557798e-01
7.2999999999999901e+00 +7.9184902784220634e+00 +0.0000000000000000e+00 +7.2999997918484150e+00 -4.1362303257835734e-04 +0.0000000000000000e+00 +9.9999991445799008e-01
7.3999999999999897e+00 +7.9184486328123693e+00 +0.0000000000000000e+00 +7.3999997831764972e+00 -4.1928916187071826e-04 +0.0000000000000000e+00 +9.9999991209829575e-01
7.4999999999999893e+00 +7.9184064205895730e+00 +0.0000000000000000e+00 +7.4999997742670041e+00 -4.2495529463704423e-04 +0.0000000000000000e+00 +9.9999990970649499e-01
7.5999999999999890e+00 +7.9183636417533210e+00 +0.0000000000000000e+00 +7.5999997651167259e+00 -4.3062143101167504e-04 +0.0000000000000000e+00 +9.9999990728258759e-01
7.6999999999999886e+00 +7.9183202963032455e+00 +0.0000000000000000e+00 +7.6999997557224518e+00 -4.3628757113589714e-04 +0.0000000000000000e+00 +9.9999990482657342e-01
7.7999999999999883e+00 +7.9182763842389638e+00 +0.0000000000000000e+00 +7.7999997460809709e+00 -4.4195371515794494e-04 +0.0000000000000000e+00 +9.9999990233845237e-01
7.8999999999999879e+00 +7.9182319055600789e+00 +0.0000000000000000e+00 +7.8999997361890726e+00 -4.4761986323300256e-04 +0.0000000000000000e+00 +9.9999989981822435e-01
7.9999999999999876e+00 +7.9181868602661769e+00 +0.0000000000000000e+00 +7.9999997260435460e+00 -4.5328601552320545e-04 +0.0000000000000000e+00 +9.9999989726588911e-01
8.0999999999999872e+00 +7.9181412483568279e+00 +0.0000000000000000e+00 +8.0999997156411805e+00 -4.5895217219654245e-04 +0.0000000000000000e+00 +9.9999989468144657e-01
8.1999999999999869e+00 +7.9180950698315860e+00 +0.0000000000000000e+00 +8.1999997049787652e+00 -4.6461833341476311e-04 +0.0000000000000000e+00 +9.9999989206489659e-01
8.2999999999999865e+00 +7.9180483246899884e+00 +0.0000000000000000e+00 +8.2999996940530902e+00 -4.7028449932128361e-04 +0.0000000000000000e+00 +9.9999988941623907e-01
8.3999999999999861e+00 +7.9180010129315610e+00 +0.0000000000000000e+00 +8.3999996828609440e+00 -4.7595067004008721e-04 +0.0000000000000000e+00 +9.9999988673547380e-01
8.4999999999999858e+00 +7.9179531345558170e+00 +0.0000000000000000e+00 +8.4999996713991148e+00 -4.8161684567572420e-04 +0.0000000000000000e+00 +9.9999988402260065e-01
8.5999999999999854e+00 +7.9179046895622598e+00 +0.0000000000000000e+00 +8.5999996596643928e+00 -4.8728302631331186e-04 +0.0000000000000000e+00 +9.9999988127761952e-01
8.6999999999999851e+00 +7.9178556779503859e+00 +0.0000000000000000e+00 +8.6999996476535681e+00 -4.9294921201853425e-04 +0.0000000000000000e+00 +9.9999987850053018e-01
8.7999999999999847e+00 +7.9178060997196855e+00 +0.0000000000000000e+00 +8.7999996353634291e+00 -4.9861540283764236e-04 +0.0000000000000000e+00 +9.9999987569133264e-01
8.8999999999999844e+00 +7.9177559548696470e+00 +0.0000000000000000e+00 +8.8999996227907641e+00 -5.0428159879745377e-04 +0.0000000000000000e+00 +9.9999987285002678e-01
8.9999999999999840e+00 +7.9177052433997543e+00 +0.0000000000000000e+00 +8.9999996099323631e+00 -5.0994779990535253e-04 +0.0000000000000000e+00 +9.9999986997661250e-01
9.0999999999999837e+00 +7.9176539653094942e+00 +0.0000000000000000e+00 +9.0999995967850165e+00 -5.1561400614928905e-04 +0.0000000000000000e+00 +9.9999986707108979e-01
9.1999999999999833e+00 +7.9176021205983540e+00 +0.0000000000000000e+00 +9.1999995833455106e+00 -5.2128021749778025e-04 +0.0000000000000000e+00 +9.9999986413345854e-01
9.2999999999999829e+00 +7.9175497092658258e+00 +0.0000000000000000e+00 +9.2999995696106375e+00 -5.2694643389990909e-04 +0.0000000000000000e+00 +9.9999986116371864e-01
9.3999999999999826e+00 +7.9174967313114077e+00 +0.0000000000000000e+00 +9.3999995555771836e+00 -5.3261265528532450e-04 +0.0000000000000000e+00 +9.9999985816186998e-01
9.4999999999999822e+00 +7.9174431867346060e+00 +0.0000000000000000e+00 +9.4999995412419409e+00 -5.3827888156424131e-04 +0.0000000000000000e+00 +9.9999985512791267e-01
9.5999999999999819e+00 +7.9173890755349356e+00 +0.0000000000000000e+00 +9.5999995266016960e+00 -5.4394511262743992e-04 +0.0000000000000000e+00 +9.9999985206184661e-01
9.6999999999999815e+00 +7.9173343977119250e+00 +0.0000000000000000e+00 +9.6999995116532389e+00 -5.4961134834626631e-04 +0.0000000000000000e+00 +9.9999984896367178e-01
9.7999999999999812e+00 +7.9172791532651159e+00 +0.0000000000000000e+00 +9.7999994963933599e+00 -5.5527758857263168e-04 +0.0000000000000000e+00 +9.9999984583338819e-01
9.8999999999999808e+00 +7.9172233421940659e+00 +0.0000000000000000e+00 +9.8999994808188472e+00 -5.6094383313901259e-04 +0.0000000000000000e+00 +9.9999984267099595e-01
9.9999999999999805e+00 +7.9171669644983496e+00 +0.0000000000000000e+00 +9.9999994649264892e+00 -5.6661008185845030e-04 +0.0000000000000000e+00 +9.9999983947649496e-01
1.0099999999999980e+01 +7.9171100201775619e+00 +0.0000000000000000e+00 +1.0099999448713076e+01 -5.7227633452599526e-04 +0.0000000000000000e+00 +9.9999983624988531e-01
1.0199999999999980e+01 +7.9170525092313193e+00 +0.0000000000000000e+00 +1.0199999432175396e+01 -5.7794259093459587e-04 +0.0000000000000000e+00 +9.9999983299116713e-01
1.0299999999999979e+01 +7.9169944316592566e+00 +0.0000000000000000e+00 +1.0299999415310239e+01 -5.8360885089098679e-04 +0.0000000000000000e+00 +9.9999982970034040e-01
1.0399999999999979e+01 +7.9169357874610284e+00 +0.0000000000000000e+00 +1.0399999398114394e+01 -5.8927511421713282e-04 +0.0000000000000000e+00 +9.9999982637740514e-01
1.0499999999999979e+01 +7.9168765766363061e+00 +0.0000000000000000e+00 +1.0499999380584651e+01 -5.9494138075022777e-04 +0.0000000000000000e+00 +9.9999982302236146e-01
1.0599999999999978e+01 +7.9168167991847760e+00 +0.0000000000000000e+00 +1.0599999362717798e+01 -6.0060765034269351e-04 +0.0000000000000000e+00 +9.9999981963520934e-01
1.0699999999999978e+01 +7.9167564551061398e+00 +0.0000000000000000e+00 +1.0699999344510623e+01 -6.0627392286217898e-04 +0.0000000000000000e+00 +9.9999981621594880e-01
1.0799999999999978e+01 +7.9166955444001097e+00 +0.0000000000000000e+00 +1.0799999325959917e+01 -6.1194019819155925e-04 +0.0000000000000000e+00 +9.9999981276457983e-01
1.0899999999999977e+01 +7.9166340670664113e+00 +0.0000000000000000e+00 +1.0899999307062469e+01 -6.1760647622893447e-04 +0.0000000000000000e+00 +9.9999980928110255e-01
1.0999999999999977e+01 +7.9165720231047771e+00 +0.0000000000000000e+00 +1.0999999287815067e+01 -6.2327275688762876e-04 +0.0000000000000000e+00 +9.9999980576551684e-01
1.1099999999999977e+01 +7.9165094125149489e+00 +0.0000000000000000e+00 +1.1099999268214502e+01 -6.2893904009618930e-04 +0.0000000000000000e+00 +9.9999980221782281e-01
1.1199999999999976e+01 +7.9164462352966751e+00 +0.0000000000000000e+00 +1.1199999248257562e+01 -6.3460532579838491e-04 +0.0000000000000000e+00 +9.9999979863802035e-01
1.1299999999999976e+01 +7.9163824914497081e+00 +0.0000000000000000e+00 +1.1299999227941036e+01 -6.4027161395320521e-04 +0.0000000000000000e+00 +9.9999979502610958e-01
1.1399999999999975e+01 +7.9163181809738035e+00 +0.0000000000000000e+00 +1.1399999207261715e+01 -6.4593790453485931e-04 +0.0000000000000000e+00 +9.9999979138209039e-01
1.1499999999999975e+01 +7.9162533038687206e+00 +0.0000000000000000e+00 +1.1499999186216385e+01 -6.5160419753277461e-04 +0.0000000000000000e+00 +9.9999978770596276e-01
1.1599999999999975e+01 +7.9161878601342170e+00 +0.0000000000000000e+00 +1.1599999164801837e+01 -6.5727049295159572e-04 +0.0000000000000000e+00 +9.9999978399772660e-01
1.1699999999999974e+01 +7.9161218497700494e+00 +0.0000000000000000e+00 +1.1699999143014860e+01 -6.6293679081118307e-04 +0.0000000000000000e+00 +9.9999978025738190e-01
1.1799999999999974e+01 +7.9160552727759725e+00 +0.0000000000000000e+00 +1.1799999120852243e+01 -6.6860309114661189e-04 +0.0000000000000000e+00 +9.9999977648492866e-01
