# field on trajectory
# s[mm] rx[mm] ry[mm] rz[mm] bx[T] by[T] bz[T]
0.0000000000000000e+00 +8.1530000000000094e+00 +0.0000000000000000e+00 +0.0000000000000000e+00 -2.7780200259405818e-02 -5.3659411127814338e-01 +5.4021660072371708e-03
1.0000000000000001e-01 +8.1529997159377707e+00 +0.0000000000000000e+00 +1.0008006405070299e-01 -2.7780412669265328e-02 -5.3659412800702611e-01 +5.4021870003417190e-03
2.0000000000000001e-01 +8.1529988637557800e+00 +0.0000000000000000e+00 +2.0016012809818201e-01 -2.7780634441377270e-02 -5.3659414814235751e-01 +5.4022101545519174e-03
2.9999999999999999e-01 +8.1529974434524792e+00 +0.0000000000000000e+00 +3.0024019213920999e-01 -2.7780864617069585e-02 -5.3659417169873502e-01 +5.4022353815452754e-03
4.0000000000000002e-01 +8.1529954550242092e+00 +0.0000000000000000e+00 +4.0032025617056399e-01 -2.7781102237666055e-02 -5.3659419869078517e-01 +5.4022625930000524e-03
5.0000000000000000e-01 +8.1529928984782600e+00 +0.0000000000000000e+00 +5.0040032018901703e-01 -2.7781346344480998e-02 -5.3659422913306443e-01 +5.4022917005941166e-03
5.9999999999999998e-01 +8.1529897738146193e+00 +0.0000000000000000e+00 +6.0048038419134497e-01 -2.7781595978826925e-02 -5.3659426304019187e-01 +5.4023226160061083e-03
6.9999999999999996e-01 +8.1529860810223909e+00 +0.0000000000000000e+00 +7.0056044817432195e-01 -2.7781850182016104e-02 -5.3659430042687206e-01 +5.4023552509155255e-03
8.0000000000000004e-01 +8.1529818201124709e+00 +0.0000000000000000e+00 +8.0064051213472498e-01 -2.7782107995347173e-02 -5.3659434130765182e-01 +5.4023895170001246e-03
9.0000000000000002e-01 +8.1529769910812302e+00 +0.0000000000000000e+00 +9.0072057606932698e-01 -2.7782368460120201e-02 -5.3659438569718376e-01 +5.4024253259384271e-03
1.0000000000000000e+00 +8.1529715939250291e+00 +0.0000000000000000e+00 +1.0008006399749001e+00 -2.7782630617630866e-02 -5.3659443361011905e-01 +5.4024625894084572e-03
1.1000000000000001e+00 +8.1529656286511507e+00 +0.0000000000000000e+00 +1.1008807038482300e+00 -2.7782893509165959e-02 -5.3659448506102136e-01 +5.4025012190867579e-03
1.2000000000000000e+00 +8.1529590952522994e+00 +0.0000000000000000e+00 +1.2009607676860801e+00 -2.7783156176014068e-02 -5.3659454006455365e-01 +5.4025411266500952e-03
1.3000000000000000e+00 +8.1529519937357708e+00 +0.0000000000000000e+00 +1.3010408314852300e+00 -2.7783417659453580e-02 -5.3659459863525905e-01 +5.4025822237731211e-03
1.3999999999999999e+00 +8.1529443240979198e+00 +0.0000000000000000e+00 +1.4011208952424601e+00 -2.7783677000763368e-02 -5.3659466078774753e-01 +5.4026244221300626e-03
1.5000000000000000e+00 +8.1529360863350995e+00 +0.0000000000000000e+00 +1.5012009589545301e+00 -2.7783933241218348e-02 -5.3659472653661122e-01 +5.4026676333937583e-03
1.6000000000000001e+00 +8.1529272804509691e+00 +0.0000000000000000e+00 +1.6012810226182299e+00 -2.7784185422086580e-02 -5.3659479589636927e-01 +5.4027117692349198e-03
1.7000000000000000e+00 +8.1529179064491508e+00 +0.0000000000000000e+00 +1.7013610862303301e+00 -2.7784432584632372e-02 -5.3659486888151686e-01 +5.4027567413224929e-03
1.8000000000000000e+00 +8.1529079643223703e+00 +0.0000000000000000e+00 +1.8014411497875999e+00 -2.7784673770120873e-02 -5.3659494550660436e-01 +5.4028024613242799e-03
1.8999999999999999e+00 +8.1528974540779000e+00 +0.0000000000000000e+00 +1.9015212132868200e+00 -2.7784908019807673e-02 -5.3659502578604623e-01 +5.4028488409048857e-03
2.0000000000000000e+00 +8.1528863757084800e+00 +0.0000000000000000e+00 +2.0016012767247702e+00 -2.7785134374951392e-02 -5.3659510973433289e-01 +5.4028957917277888e-03
2.1000000000000001e+00 +8.1528747292177304e+00 +0.0000000000000000e+00 +2.1016813400982199e+00 -2.7785351994858012e-02 -5.3659519735988992e-01 +5.4029432547070743e-03
2.2000000000000002e+00 +8.1528625146056601e+00 +0.0000000000000000e+00 +2.2017614034039301e+00 -2.7785560488929353e-02 -5.3659528864846340e-01 +5.4029912822885200e-03
2.2999999999999998e+00 +8.1528497318759001e+00 +0.0000000000000000e+00 +2.3018414666387002e+00 -2.7785759573815311e-02 -5.3659538358036052e-01 +5.4030399534936956e-03
2.3999999999999999e+00 +8.1528363810211903e+00 +0.0000000000000000e+00 +2.4019215297993002e+00 -2.7785948966170784e-02 -5.3659548213596575e-01 +5.4030893473450484e-03
2.5000000000000000e+00 +8.1528224620451493e+00 +0.0000000000000000e+00 +2.5020015928824901e+00 -2.7786128382647140e-02 -5.3659558429558285e-01 +5.4031395428644170e-03
2.6000000000000001e+00 +8.1528079749477893e+00 +0.0000000000000000e+00 +2.6020816558850601e+00 -2.7786297539898606e-02 -5.3659569003954111e-01 +5.4031906190742341e-03
2.7000000000000002e+00 +8.1527929197291105e+00 +0.0000000000000000e+00 +2.7021617188037701e+00 -2.7786456154581304e-02 -5.3659579934817037e-01 +5.4032426549973879e-03
2.7999999999999998e+00 +8.1527772963891003e+00 +0.0000000000000000e+00 +2.8022417816354102e+00 -2.7786603943353649e-02 -5.3659591220180280e-01 +5.4032957296573491e-03
2.8999999999999999e+00 +8.1527611049277802e+00 +0.0000000000000000e+00 +2.9023218443767500e+00 -2.7786740622876810e-02 -5.3659602858077426e-01 +5.4033499220782974e-03
3.0000000000000000e+00 +8.1527443453451305e+00 +0.0000000000000000e+00 +3.0024019070245598e+00 -2.7786865909815203e-02 -5.3659614846542325e-01 +5.4034053112852606e-03
3.1000000000000001e+00 +8.1527270176411495e+00 +0.0000000000000000e+00 +3.1024819695756198e+00 -2.7786979520836877e-02 -5.3659627183609482e-01 +5.4034619763042224e-03
3.2000000000000002e+00 +8.1527091218158603e+00 +0.0000000000000000e+00 +3.2025620320267101e+00 -2.7787081172614015e-02 -5.3659639867314024e-01 +5.4035199961622758e-03
3.2999999999999998e+00 +8.1526906578692397e+00 +0.0000000000000000e+00 +3.3026420943745900e+00 -2.7787170581823374e-02 -5.3659652895691845e-01 +5.4035794498877333e-03
3.3999999999999999e+00 +8.1526716258013003e+00 +0.0000000000000000e+00 +3.4027221566160502e+00 -2.7787247465146728e-02 -5.3659666266779760e-01 +5.4036404165102581e-03
3.5000000000000000e+00 +8.1526520256120403e+00 +0.0000000000000000e+00 +3.5028022187478500e+00 -2.7787311539271373e-02 -5.3659679978615538e-01 +5.4037029750610083e-03
3.6000000000000001e+00 +8.1526318572978198e+00 +0.0000000000000000e+00 +3.6028822807667802e+00 -2.7787362520891968e-02 -5.3659694029240779e-01 +5.4037672045730107e-03
3.7000000000000002e+00 +8.1526111208659096e+00 +0.0000000000000000e+00 +3.7029623426696099e+00 -2.7787400126705122e-02 -5.3659708416690299e-01 +5.4038331840802296e-03
3.7999999999999998e+00 +8.1525898163126804e+00 +0.0000000000000000e+00 +3.8030424044531101e+00 -2.7787424073418724e-02 -5.3659723139008264e-01 +5.4039009926192981e-03
3.8999999999999999e+00 +8.1525679436344909e+00 +0.0000000000000000e+00 +3.9031224661140600e+00 -2.7787434077747950e-02 -5.3659738194240281e-01 +5.4039707092288529e-03
4.0000000000000000e+00 +8.1525455028386205e+00 +0.0000000000000000e+00 +4.0032025276492398e+00 -2.7787429856419868e-02 -5.3659753580425917e-01 +5.4040424129476227e-03
4.0999999999999996e+00 +8.1525224939177896e+00 +0.0000000000000000e+00 +4.1032825890554099e+00 -2.7787411414571212e-02 -5.3659769305068628e-01 +5.4041161417006673e-03
4.2000000000000002e+00 +8.1524989168792708e+00 +0.0000000000000000e+00 +4.2033626503293604e+00 -2.7787379805443952e-02 -5.3659785410012717e-01 +5.4041917839838353e-03
4.2999999999999998e+00 +8.1524747717157897e+00 +0.0000000000000000e+00 +4.3034427114678504e+00 -2.7787336320316193e-02 -5.3659801944915664e-01 +5.4042691943588031e-03
4.4000000000000004e+00 +8.1524500584346207e+00 +0.0000000000000000e+00 +4.4035227724676700e+00 -2.7787282250461676e-02 -5.3659818959426220e-01 +5.4043482273868678e-03
4.5000000000000000e+00 +8.1524247770285001e+00 +0.0000000000000000e+00 +4.5036028333255800e+00 -2.7787218887161732e-02 -5.3659836503205505e-01 +5.4044287376311013e-03
4.5999999999999996e+00 +8.1523989275046898e+00 +0.0000000000000000e+00 +4.6036828940383696e+00 -2.7787147521693284e-02 -5.3659854625906012e-01 +5.4045105796542174e-03
4.7000000000000002e+00 +8.1523725098559208e+00 +0.0000000000000000e+00 +4.7037629546028104e+00 -2.7787069445340897e-02 -5.3659873377193057e-01 +5.4045936080207588e-03
4.7999999999999998e+00 +8.1523455240894709e+00 +0.0000000000000000e+00 +4.8038430150156701e+00 -2.7786985949384755e-02 -5.3659892806723375e-01 +5.4046776772949485e-03
4.9000000000000004e+00 +8.1523179701980606e+00 +0.0000000000000000e+00 +4.9039230752737302e+00 -2.7786898325112722e-02 -5.3659912964166689e-01 +5.4047626420428733e-03
5.0000000000000000e+00 +8.1522898481889605e+00 +0.0000000000000000e+00 +5.0040031353737602e+00 -2.7786807863808275e-02 -5.3659933899184420e-01 +5.4048483568303433e-03
5.0999999999999996e+00 +8.1522611580549000e+00 +0.0000000000000000e+00 +5.1040831953125396e+00 -2.7786715856762602e-02 -5.3659955661451186e-01 +5.4049346762250674e-03
5.2000000000000002e+00 +8.1522318997995207e+00 +0.0000000000000000e+00 +5.2041632550868497e+00 -2.7786623595264043e-02 -5.3659978300636102e-01 +5.4050214547947950e-03
5.2999999999999998e+00 +8.1522020734228100e+00 +0.0000000000000000e+00 +5.3042433146934496e+00 -2.7786532370604158e-02 -5.3660001866413742e-01 +5.4051085471084085e-03
5.4000000000000004e+00 +8.1521716789247893e+00 +0.0000000000000000e+00 +5.4043233741291203e+00 -2.7786443474076182e-02 -5.3660026408461314e-01 +5.4051958077356655e-03
5.5000000000000000e+00 +8.1521407163090807e+00 +0.0000000000000000e+00 +5.5044034333906504e+00 -2.7786358196973608e-02 -5.3660051976456424e-01 +5.4052830912469678e-03
5.5999999999999996e+00 +8.1521091855684098e+00 +0.0000000000000000e+00 +5.6044834924747899e+00 -2.7786277830596149e-02 -5.3660078620087559e-01 +5.4053702522144417e-03
5.7000000000000002e+00 +8.1520770867064094e+00 +0.0000000000000000e+00 +5.7045635513783299e+00 -2.7786203666240752e-02 -5.3660106389038342e-01 +5.4054571452103557e-03
5.7999999999999998e+00 +8.1520444197231008e+00 +0.0000000000000000e+00 +5.8046436100980499e+00 -2.7786136995207628e-02 -5.3660135332998182e-01 +5.4055436248082048e-03
5.9000000000000004e+00 +8.1520111846184609e+00 +0.0000000000000000e+00 +5.9047236686307096e+00 -2.7786079108798767e-02 -5.3660165501659862e-01 +5.4056295455824736e-03
5.9999999999999902e+00 +8.1519773813925003e+00 +0.0000000000000000e+00 +6.0048037269731003e+00 -2.7786031298288591e-02 -5.3660196944716743e-01 +5.4057147621133870e-03
6.0999999999999899e+00 +8.1519430100452208e+00 +0.0000000000000000e+00 +6.1048837851219799e+00 -2.7785994549559639e-02 -5.3660229683003946e-01 +5.4057991782929821e-03
6.1999999999999904e+00 +8.1519080705766100e+00 +0.0000000000000000e+00 +6.2049638430741396e+00 -2.7785968790365972e-02 -5.3660263637357808e-01 +5.4058828688658481e-03
6.2999999999999901e+00 +8.1518725629866804e+00 +0.0000000000000000e+00 +6.3050439008263499e+00 -2.7785953719439756e-02 -5.3660298706968679e-01 +5.4059659455549256e-03
6.3999999999999897e+00 +8.1518364872754301e+00 +0.0000000000000000e+00 +6.4051239583753699e+00 -2.7785949035501221e-02 -5.3660334791023478e-01 +5.4060485200838884e-03
6.4999999999999902e+00 +8.1517998434428591e+00 +0.0000000000000000e+00 +6.5052040157180002e+00 -2.7785954437258079e-02 -5.3660371788705330e-01 +5.4061307041771310e-03
6.5999999999999899e+00 +8.1517626314889604e+00 +0.0000000000000000e+00 +6.6052840728510001e+00 -2.7785969623405040e-02 -5.3660409599193493e-01 +5.4062126095597894e-03
6.6999999999999904e+00 +8.1517248514137499e+00 +0.0000000000000000e+00 +6.7053641297711399e+00 -2.7785994292623309e-02 -5.3660448121663240e-01 +5.4062943479577415e-03
6.7999999999999901e+00 +8.1516865032135701e+00 +0.0000000000000000e+00 +6.8054441864752100e+00 -2.7786028143581536e-02 -5.3660487255288203e-01 +5.4063760310978856e-03
6.8999999999999897e+00 +8.1516475868957095e+00 +0.0000000000000000e+00 +6.9055242429599701e+00 -2.7786070874929264e-02 -5.3660526899229666e-01 +5.4064577707070606e-03
6.9999999999999902e+00 +8.1516081024565192e+00 +0.0000000000000000e+00 +7.0056042992222096e+00 -2.7786122185305503e-02 -5.3660566952652222e-01 +5.4065396785136777e-03
7.0999999999999899e+00 +8.1515680498960101e+00 +0.0000000000000000e+00 +7.1056843552586999e+00 -2.7786181773332110e-02 -5.3660607314713071e-01 +5.4066218662466459e-03
7.1999999999999904e+00 +8.1515274292141804e+00 +0.0000000000000000e+00 +7.2057644110662000e+00 -2.7786249337614831e-02 -5.3660647884564516e-01 +5.4067044456356439e-03
7.2999999999999901e+00 +8.1514862404073902e+00 +0.0000000000000000e+00 +7.3058444666415099e+00 -2.7786324576744247e-02 -5.3660688561356307e-01 +5.4067875284113985e-03
7.3999999999999897e+00 +8.1514444834829192e+00 +0.0000000000000000e+00 +7.4059245219813796e+00 -2.7786407189289274e-02 -5.3660729244224914e-01 +5.4068712263046128e-03
7.4999999999999902e+00 +8.1514021584334806e+00 +0.0000000000000000e+00 +7.5060045770826100e+00 -2.7786496873807132e-02 -5.3660769832312050e-01 +5.4069556510478569e-03
7.5999999999999899e+00 +8.1513592652663593e+00 +0.0000000000000000e+00 +7.6060846319419504e+00 -2.7786593328830819e-02 -5.3660810224742950e-01 +5.4070409143734217e-03
7.6999999999999904e+00 +8.1513158039779192e+00 +0.0000000000000000e+00 +7.7061646865561997e+00 -2.7786696252879092e-02 -5.3660850320645104e-01 +5.4071271280152038e-03
7.7999999999999901e+00 +8.1512717745681602e+00 +0.0000000000000000e+00 +7.8062447409221098e+00 -2.7786805344449956e-02 -5.3660890019137275e-01 +5.4072144037076372e-03
7.8999999999999897e+00 +8.1512271770334301e+00 +0.0000000000000000e+00 +7.9063247950364799e+00 -2.7786920302023097e-02 -5.3660929219334719e-01 +5.4073028531862371e-03
7.9999999999999902e+00 +8.1511820113773901e+00 +0.0000000000000000e+00 +8.0064048488960609e+00 -2.7787040824063088e-02 -5.3660967820345284e-01 +5.4073925881795680e-03
8.0999999999999908e+00 +8.1511362776036496e+00 +0.0000000000000000e+00 +8.1064849024976393e+00 -2.7787166646390929e-02 -5.3661005741390988e-01 +5.4074836871766240e-03
8.1999999999999904e+00 +8.1510899757086008e+00 +0.0000000000000000e+00 +8.2065649558379903e+00 -2.7787297628321508e-02 -5.3661042968171790e-01 +5.4075761188435338e-03
8.2999999999999901e+00 +8.1510431056885899e+00 +0.0000000000000000e+00 +8.3066450089139003e+00 -2.7787433654671907e-02 -5.3661079500098163e-01 +5.4076698291940844e-03
8.3999999999999897e+00 +8.1509956675508892e+00 +0.0000000000000000e+00 +8.4067250617221205e+00 -2.7787574610294082e-02 -5.3661115336573717e-01 +5.4077647642377926e-03
8.4999999999999893e+00 +8.1509476612882299e+00 +0.0000000000000000e+00 +8.5068051142594392e+00 -2.7787720380086648e-02 -5.3661150477014130e-01 +5.4078608699816679e-03
8.5999999999999908e+00 +8.1508990869078808e+00 +0.0000000000000000e+00 +8.6068851665226305e+00 -2.7787870848984167e-02 -5.3661184920825789e-01 +5.4079580924279282e-03
8.6999999999999904e+00 +8.1508499444025801e+00 +0.0000000000000000e+00 +8.7069652185084596e+00 -2.7788025901970489e-02 -5.3661218667427213e-01 +5.4080563775760508e-03
8.7999999999999794e+00 +8.1508002337759500e+00 +0.0000000000000000e+00 +8.8070452702137203e+00 -2.7788185424069474e-02 -5.3661251716230385e-01 +5.4081556714207450e-03
8.8999999999999808e+00 +8.1507499550316407e+00 +0.0000000000000000e+00 +8.9071253216351796e+00 -2.7788349300350849e-02 -5.3661284066648862e-01 +5.4082559199526651e-03
8.9999999999999805e+00 +8.1506991081623692e+00 +0.0000000000000000e+00 +9.0072053727696098e+00 -2.7788517415935975e-02 -5.3661315718105984e-01 +5.4083570691590829e-03
9.0999999999999801e+00 +8.1506476931717806e+00 +0.0000000000000000e+00 +9.1072854236137797e+00 -2.7788689655990129e-02 -5.3661346670018661e-01 +5.4084590650221500e-03
9.1999999999999797e+00 +8.1505957100635005e+00 +0.0000000000000000e+00 +9.2073654741644795e+00 -2.7788865905728318e-02 -5.3661376921805670e-01 +5.4085618535196075e-03
9.2999999999999794e+00 +8.1505431588302599e+00 +0.0000000000000000e+00 +9.3074455244184708e+00 -2.7789046050421082e-02 -5.3661406472895634e-01 +5.4086653806254487e-03
9.3999999999999808e+00 +8.1504900394757005e+00 +0.0000000000000000e+00 +9.4075255743725297e+00 -2.7789229975386718e-02 -5.3661435322711049e-01 +5.4087695923081833e-03
9.4999999999999805e+00 +8.1504363520034495e+00 +0.0000000000000000e+00 +9.5076056240234408e+00 -2.7789417565997187e-02 -5.3661463470676407e-01 +5.4088744345315611e-03
9.5999999999999801e+00 +8.1503820964062506e+00 +0.0000000000000000e+00 +9.6076856733679694e+00 -2.7789608707683797e-02 -5.3661490916226295e-01 +5.4089798532552186e-03
9.6999999999999797e+00 +8.1503272726913600e+00 +0.0000000000000000e+00 +9.7077657224029004e+00 -2.7789803285928082e-02 -5.3661517658786706e-01 +5.4090857944326977e-03
9.7999999999999794e+00 +8.1502718808515109e+00 +0.0000000000000000e+00 +9.8078457711250007e+00 -2.7790001186275032e-02 -5.3661543697796454e-01 +5.4091922040134747e-03
9.8999999999999808e+00 +8.1502159208903304e+00 +0.0000000000000000e+00 +9.9079258195310498e+00 -2.7790202294323912e-02 -5.3661569032688661e-01 +5.4092990279409527e-03
9.9999999999999805e+00 +8.1501593928078400e+00 +0.0000000000000000e+00 +1.0008005867617801e+01 -2.7790406495697400e-02 -5.3661593662908169e-01 +5.4094062121560803e-03
1.0100000000000000e+01 +8.1501022966040200e+00 +0.0000000000000000e+00 +1.0108085915382100e+01 -2.7790613582370092e-02 -5.3661617604474721e-01 +5.4095137091061170e-03
1.0199999999999999e+01 +8.1500446322825209e+00 +0.0000000000000000e+00 +1.0208165962820599e+01 -2.7790823051032591e-02 -5.3661640925631771e-01 +5.4096214917541971e-03
1.0300000000000001e+01 +8.1499863998360507e+00 +0.0000000000000000e+00 +1.0308246009930199e+01 -2.7791034340310130e-02 -5.3661663704894169e-01 +5.4097295370942938e-03
1.0400000000000000e+01 +8.1499275992682705e+00 +0.0000000000000000e+00 +1.0408326056707599e+01 -2.7791246888766819e-02 -5.3661686020770560e-01 +5.4098378221178814e-03
1.0500000000000000e+01 +8.1498682305791608e+00 +0.0000000000000000e+00 +1.0508406103149600e+01 -2.7791460134910149e-02 -5.3661707951774618e-01 +5.4099463238149979e-03
1.0600000000000000e+01 +8.1498082937723701e+00 +0.0000000000000000e+00 +1.0608486149253000e+01 -2.7791673517186356e-02 -5.3661729576419259e-01 +5.4100550191736856e-03
1.0699999999999999e+01 +8.1497477888406102e+00 +0.0000000000000000e+00 +1.0708566195014500e+01 -2.7791886473984843e-02 -5.3661750973227673e-01 +5.4101638851810361e-03
1.0800000000000001e+01 +8.1496867157875403e+00 +0.0000000000000000e+00 +1.0808646240430900e+01 -2.7792098443627573e-02 -5.3661772220717285e-01 +5.4102728988215613e-03
1.0900000000000000e+01 +8.1496250746131391e+00 +0.0000000000000000e+00 +1.0908726285499000e+01 -2.7792308864373547e-02 -5.3661793397410451e-01 +5.4103820370782520e-03
1.1000000000000000e+01 +8.1495628653174208e+00 +0.0000000000000000e+00 +1.1008806330215601e+01 -2.7792517174415651e-02 -5.3661814581831835e-01 +5.4104912769322739e-03
1.1100000000000000e+01 +8.1495000879040198e+00 +0.0000000000000000e+00 +1.1108886374577500e+01 -2.7792722811877557e-02 -5.3661835852505857e-01 +5.4106005953626869e-03
1.1199999999999999e+01 +8.1494367423620098e+00 +0.0000000000000000e+00 +1.1208966418581401e+01 -2.7792925214819717e-02 -5.3661857287970050e-01 +5.4107099693477632e-03
1.1300000000000001e+01 +8.1493728287059604e+00 +0.0000000000000000e+00 +1.1309046462224000e+01 -2.7793123821221240e-02 -5.3661878966745735e-01 +5.4108193758620072e-03
1.1400000000000000e+01 +8.1493083469249505e+00 +0.0000000000000000e+00 +1.1409126505502300e+01 -2.7793318068999255e-02 -5.3661900967375464e-01 +5.4109287918798939e-03
1.1500000000000000e+01 +8.1492432970226201e+00 +0.0000000000000000e+00 +1.1509206548412800e+01 -2.7793507395990926e-02 -5.3661923368393671e-01 +5.4110381943728997e-03
1.1600000000000000e+01 +8.1491776789989707e+00 +0.0000000000000000e+00 +1.1609286590952600e+01 -2.7793691239959277e-02 -5.3661946248340175e-01 +5.4111475603108115e-03
1.1699999999999999e+01 +8.1491114928576298e+00 +0.0000000000000000e+00 +1.1709366633118099e+01 -2.7793869038588711e-02 -5.3661969685754751e-01 +5.4112568666611714e-03
1.1800000000000001e+01 +8.1490447385876905e+00 +0.0000000000000000e+00 +1.1809446674906400e+01 -2.7794040229490832e-02 -5.3661993759190674e-01 +5.4113660903906012e-03
