# field on trajectory
# s[mm] rx[mm] ry[mm] rz[mm] bx[T] by[T] bz[T]
0.0000000000000000e+00 +7.9199999999999999e+00 +0.0000000000000000e+00 +0.0000000000000000e+00 -3.1233857673649029e-02 -5.9557881482082187e-01 +6.0126873608502360e-03
-1.0000000000000001e-01 +7.9199997164071458e+00 +0.0000000000000000e+00 -9.9999999999463837e-02 -3.1233851119681643e-02 -5.9557900582918610e-01 +6.0127512255355921e-03
-2.0000000000000001e-01 +7.9199988656284646e+00 +0.0000000000000000e+00 -1.9999999999571066e-01 -3.1233867402247945e-02 -5.9557918745221738e-01 +6.0128174698910863e-03
-3.0000000000000004e-01 +7.9199974476637820e+00 +0.0000000000000000e+00 -2.9999999998552351e-01 -3.1233904566294560e-02 -5.9557936121337263e-01 +6.0128860503522157e-03
-4.0000000000000002e-01 +7.9199954625129330e+00 +0.0000000000000000e+00 -3.9999999996568536e-01 -3.1233960656750357e-02 -5.9557952863609709e-01 +6.0129569233561744e-03
-5.0000000000000000e-01 +7.9199929101757585e+00 +0.0000000000000000e+00 -4.9999999993297917e-01 -3.1234033718529106e-02 -5.9557969124382626e-01 +6.0130300453415863e-03
-5.9999999999999998e-01 +7.9199897906521031e+00 +0.0000000000000000e+00 -5.9999999988418795e-01 -3.1234121796532326e-02 -5.9557985055999207e-01 +6.0131053727482762e-03
-6.9999999999999996e-01 +7.9199861039418158e+00 +0.0000000000000000e+00 -6.9999999981609473e-01 -3.1234222935651881e-02 -5.9558000810802147e-01 +6.0131828620170018e-03
-7.9999999999999993e-01 +7.9199818500447456e+00 +0.0000000000000000e+00 -7.9999999972548252e-01 -3.1234335180772881e-02 -5.9558016541134284e-01 +6.0132624695892183e-03
-8.9999999999999991e-01 +7.9199770289607434e+00 +0.0000000000000000e+00 -8.9999999960913424e-01 -3.1234456576776291e-02 -5.9558032399338645e-01 +6.0133441519068130e-03
-9.9999999999999989e-01 +7.9199716406896581e+00 +0.0000000000000000e+00 -9.9999999946383289e-01 -3.1234585168541745e-02 -5.9558048537758934e-01 +6.0134278654118793e-03
-1.0999999999999999e+00 +7.9199656852313352e+00 +0.0000000000000000e+00 -1.0999999992863614e+00 -3.1234719000950283e-02 -5.9558065108739700e-01 +6.0135135665464459e-03
-1.2000000000000000e+00 +7.9199591625856183e+00 +0.0000000000000000e+00 -1.1999999990735029e+00 -3.1234856118887044e-02 -5.9558082264626611e-01 +6.0136012117522385e-03
-1.3000000000000000e+00 +7.9199520727523431e+00 +0.0000000000000000e+00 -1.2999999988220401e+00 -3.1234994567244070e-02 -5.9558100157766924e-01 +6.0136907574704287e-03
-1.4000000000000001e+00 +7.9199444157313401e+00 +0.0000000000000000e+00 -1.3999999985287561e+00 -3.1235132390922998e-02 -5.9558118940509519e-01 +6.0137821601413816e-03
-1.5000000000000002e+00 +7.9199361915224298e+00 +0.0000000000000000e+00 -1.4999999981904339e+00 -3.1235267634837839e-02 -5.9558138765205393e-01 +6.0138753762044054e-03
-1.6000000000000003e+00 +7.9199274001254238e+00 +0.0000000000000000e+00 -1.5999999978038566e+00 -3.1235398343917677e-02 -5.9558159784207865e-01 +6.0139703620975165e-03
-1.7000000000000004e+00 +7.9199180415401225e+00 +0.0000000000000000e+00 -1.6999999973658069e+00 -3.1235522563109467e-02 -5.9558182149872940e-01 +6.0140670742571713e-03
-1.8000000000000005e+00 +7.9199081157663125e+00 +0.0000000000000000e+00 -1.7999999968730678e+00 -3.1235638337380720e-02 -5.9558206014559445e-01 +6.0141654691180223e-03
-1.9000000000000006e+00 +7.9198976228037674e+00 +0.0000000000000000e+00 -1.8999999963224223e+00 -3.1235743711722289e-02 -5.9558231530629502e-01 +6.0142655031126761e-03
-2.0000000000000004e+00 +7.9198865626522439e+00 +0.0000000000000000e+00 -1.9999999957106536e+00 -3.1235836731151070e-02 -5.9558258850448653e-01 +6.0143671326714316e-03
-2.1000000000000005e+00 +7.9198749353114817e+00 +0.0000000000000000e+00 -2.0999999950345440e+00 -3.1235915915646111e-02 -5.9558288100594559e-01 +6.0144703091757111e-03
-2.2000000000000006e+00 +7.9198627407812037e+00 +0.0000000000000000e+00 -2.1999999942908772e+00 -3.1235981684944108e-02 -5.9558319304480811e-01 +6.0145749638201053e-03
-2.3000000000000007e+00 +7.9198499790611123e+00 +0.0000000000000000e+00 -2.2999999934764355e+00 -3.1236034933728059e-02 -5.9558352459730168e-01 +6.0146810227536479e-03
-2.4000000000000008e+00 +7.9198366501508923e+00 +0.0000000000000000e+00 -2.3999999925880022e+00 -3.1236076556692211e-02 -5.9558387563965975e-01 +6.0147884121266489e-03
-2.5000000000000009e+00 +7.9198227540502097e+00 +0.0000000000000000e+00 -2.4999999916223601e+00 -3.1236107448542223e-02 -5.9558424614812078e-01 +6.0148970580909209e-03
-2.6000000000000010e+00 +7.9198082907587128e+00 +0.0000000000000000e+00 -2.5999999905762921e+00 -3.1236128503995354e-02 -5.9558463609892631e-01 +6.0150068867999753e-03
-2.7000000000000011e+00 +7.9197932602760304e+00 +0.0000000000000000e+00 -2.6999999894465807e+00 -3.1236140617780621e-02 -5.9558504546832036e-01 +6.0151178244092452e-03
-2.8000000000000012e+00 +7.9197776626017724e+00 +0.0000000000000000e+00 -2.7999999882300095e+00 -3.1236144684638961e-02 -5.9558547423254837e-01 +6.0152297970762752e-03
-2.9000000000000012e+00 +7.9197614977355313e+00 +0.0000000000000000e+00 -2.8999999869233610e+00 -3.1236141599323409e-02 -5.9558592236785490e-01 +6.0153427309609505e-03
-3.0000000000000013e+00 +7.9197447656768816e+00 +0.0000000000000000e+00 -2.9999999855234178e+00 -3.1236132256599217e-02 -5.9558638985048395e-01 +6.0154565522256894e-03
-3.1000000000000014e+00 +7.9197274664253783e+00 +0.0000000000000000e+00 -3.0999999840269634e+00 -3.1236117551244086e-02 -5.9558687665667687e-01 +6.0155711870356647e-03
-3.2000000000000015e+00 +7.9197095999805578e+00 +0.0000000000000000e+00 -3.1999999824307799e+00 -3.1236098378048305e-02 -5.9558738276267120e-01 +6.0156865615590078e-03
-3.3000000000000016e+00 +7.9196911663419387e+00 +0.0000000000000000e+00 -3.2999999807316507e+00 -3.1236075631814852e-02 -5.9558790814469986e-01 +6.0158026019670168e-03
-3.4000000000000017e+00 +7.9196721655090219e+00 +0.0000000000000000e+00 -3.3999999789263584e+00 -3.1236050207359686e-02 -5.9558845277898997e-01 +6.0159192344343693e-03
-3.5000000000000018e+00 +7.9196525974812895e+00 +0.0000000000000000e+00 -3.4999999770116856e+00 -3.1236022999511798e-02 -5.9558901664176123e-01 +6.0160363851393299e-03
-3.6000000000000019e+00 +7.9196324622582042e+00 +0.0000000000000000e+00 -3.5999999749844154e+00 -3.1235994903113434e-02 -5.9558959970922465e-01 +6.0161539802639583e-03
-3.7000000000000020e+00 +7.9196117598392117e+00 +0.0000000000000000e+00 -3.6999999728413306e+00 -3.1235966813020221e-02 -5.9559020195758239e-01 +6.0162719459943203e-03
-3.8000000000000020e+00 +7.9195904902237402e+00 +0.0000000000000000e+00 -3.7999999705792140e+00 -3.1235939624101382e-02 -5.9559082336302560e-01 +6.0163902085206989e-03
-3.9000000000000021e+00 +7.9195686534111971e+00 +0.0000000000000000e+00 -3.8999999681948481e+00 -3.1235914231239854e-02 -5.9559146390173334e-01 +6.0165086940378041e-03
-4.0000000000000018e+00 +7.9195462494009741e+00 +0.0000000000000000e+00 -3.9999999656850154e+00 -3.1235891529332510e-02 -5.9559212354987190e-01 +6.0166273287449758e-03
-4.1000000000000014e+00 +7.9195232781924432e+00 +0.0000000000000000e+00 -4.0999999630464989e+00 -3.1235872222930765e-02 -5.9559280189413855e-01 +6.0167460791082606e-03
-4.2000000000000011e+00 +7.9194997397849596e+00 +0.0000000000000000e+00 -4.1999999602760818e+00 -3.1235856255151233e-02 -5.9559349696339003e-01 +6.0168650726431577e-03
-4.3000000000000007e+00 +7.9194756341778625e+00 +0.0000000000000000e+00 -4.2999999573705461e+00 -3.1235843378735379e-02 -5.9559420639699578e-01 +6.0169844771232545e-03
-4.4000000000000004e+00 +7.9194509613704769e+00 +0.0000000000000000e+00 -4.3999999543266748e+00 -3.1235833346405135e-02 -5.9559492783428869e-01 +6.0171044603171304e-03
-4.5000000000000000e+00 +7.9194257213621162e+00 +0.0000000000000000e+00 -4.4999999511412510e+00 -3.1235825910861176e-02 -5.9559565891456423e-01 +6.0172251899879908e-03
-4.5999999999999996e+00 +7.9193999141520859e+00 +0.0000000000000000e+00 -4.5999999478110567e+00 -3.1235820824781192e-02 -5.9559639727707681e-01 +6.0173468338932850e-03
-4.6999999999999993e+00 +7.9193735397396843e+00 +0.0000000000000000e+00 -4.6999999443328742e+00 -3.1235817840818154e-02 -5.9559714056103896e-01 +6.0174695597843492e-03
-4.7999999999999989e+00 +7.9193465981242035e+00 +0.0000000000000000e+00 -4.7999999407034863e+00 -3.1235816711598554e-02 -5.9559788640561795e-01 +6.0175935354060120e-03
-4.8999999999999986e+00 +7.9193190893049348e+00 +0.0000000000000000e+00 -4.8999999369196763e+00 -3.1235817189720724e-02 -5.9559863244993450e-01 +6.0177189284962365e-03
-4.9999999999999982e+00 +7.9192910132811694e+00 +0.0000000000000000e+00 -4.9999999329782270e+00 -3.1235819027753096e-02 -5.9559937633305993e-01 +6.0178459067857411e-03
-5.0999999999999979e+00 +7.9192623700521985e+00 +0.0000000000000000e+00 -5.0999999288759197e+00 -3.1235821978232416e-02 -5.9560011569401428e-01 +6.0179746379976267e-03
-5.1999999999999975e+00 +7.9192331596173204e+00 +0.0000000000000000e+00 -5.1999999246095383e+00 -3.1235825793662079e-02 -5.9560084817176440e-01 +6.0181052898470016e-03
-5.2999999999999972e+00 +7.9192033819758381e+00 +0.0000000000000000e+00 -5.2999999201758641e+00 -3.1235830226510362e-02 -5.9560157140522108e-01 +6.0182380300406110e-03
-5.3999999999999968e+00 +7.9191730371270639e+00 +0.0000000000000000e+00 -5.3999999155716809e+00 -3.1235835029208691e-02 -5.9560228303323737e-01 +6.0183730262764598e-03
-5.4999999999999964e+00 +7.9191421250703220e+00 +0.0000000000000000e+00 -5.4999999107937700e+00 -3.1235839954149951e-02 -5.9560298069460560e-01 +6.0185104462434462e-03
-5.5999999999999961e+00 +7.9191106458049481e+00 +0.0000000000000000e+00 -5.5999999058389154e+00 -3.1235844753686688e-02 -5.9560366202805681e-01 +6.0186504576209754e-03
-5.6999999999999957e+00 +7.9190785993302955e+00 +0.0000000000000000e+00 -5.6999999007038982e+00 -3.1235849180129432e-02 -5.9560432467225677e-01 +6.0187932280786000e-03
-5.7999999999999954e+00 +7.9190459856457336e+00 +0.0000000000000000e+00 -5.7999998953855014e+00 -3.1235852985744935e-02 -5.9560496626580495e-01 +6.0189389252756267e-03
-5.8999999999999950e+00 +7.9190128047506532e+00 +0.0000000000000000e+00 -5.8999998898805082e+00 -3.1235855922754446e-02 -5.9560558444723133e-01 +6.0190877168607698e-03
-5.9999999999999947e+00 +7.9189790566444662e+00 +0.0000000000000000e+00 -5.9999998841857005e+00 -3.1235857743331978e-02 -5.9560617685499606e-01 +6.0192397704717498e-03
-6.0999999999999943e+00 +7.9189447413266105e+00 +0.0000000000000000e+00 -6.0999998782978615e+00 -3.1235858335137329e-02 -5.9560674174418937e-01 +6.0193951772542645e-03
-6.1999999999999940e+00 +7.9189098587965487e+00 +0.0000000000000000e+00 -6.1999998722137724e+00 -3.1235858127951811e-02 -5.9560727983670092e-01 +6.0195537224232648e-03
-6.2999999999999936e+00 +7.9188744090537693e+00 +0.0000000000000000e+00 -6.2999998659302170e+00 -3.1235857687128252e-02 -5.9560779247118445e-01 +6.0197151147137300e-03
-6.3999999999999932e+00 +7.9188383920977854e+00 +0.0000000000000000e+00 -6.3999998594439775e+00 -3.1235857578065102e-02 -5.9560828098636343e-01 +6.0198790628632586e-03
-6.4999999999999929e+00 +7.9188018079281326e+00 +0.0000000000000000e+00 -6.4999998527518361e+00 -3.1235858366208472e-02 -5.9560874672103403e-01 +6.0200452756122482e-03
-6.5999999999999925e+00 +7.9187646565443686e+00 +0.0000000000000000e+00 -6.5999998458505749e+00 -3.1235860617054318e-02 -5.9560919101407106e-01 +6.0202134617041176e-03
-6.6999999999999922e+00 +7.9187269379460714e+00 +0.0000000000000000e+00 -6.6999998387369768e+00 -3.1235864896150493e-02 -5.9560961520442846e-01 +6.0203833298855154e-03
-6.7999999999999918e+00 +7.9186886521328379e+00 +0.0000000000000000e+00 -6.7999998314078249e+00 -3.1235871769098887e-02 -5.9561002063114532e-01 +6.0205545889065182e-03
-6.8999999999999915e+00 +7.9186497991042835e+00 +0.0000000000000000e+00 -6.8999998238599014e+00 -3.1235881801557491e-02 -5.9561040863334769e-01 +6.0207269475208471e-03
-6.9999999999999911e+00 +7.9186103788600395e+00 +0.0000000000000000e+00 -6.9999998160899883e+00 -3.1235895559242541e-02 -5.9561078055025407e-01 +6.0209001144860691e-03
-7.0999999999999908e+00 +7.9185703913997534e+00 +0.0000000000000000e+00 -7.0999998080948687e+00 -3.1235913607930578e-02 -5.9561113772117669e-01 +6.0210737985638037e-03
-7.1999999999999904e+00 +7.9185298367230859e+00 +0.0000000000000000e+00 -7.1999997998713257e+00 -3.1235936513460585e-02 -5.9561148148552734e-01 +6.0212477085199298e-03
-7.2999999999999901e+00 +7.9184887148297110e+00 +0.0000000000000000e+00 -7.2999997914161403e+00 -3.1235964841736075e-02 -5.9561181318281886e-01 +6.0214215531247959e-03
-7.3999999999999897e+00 +7.9184470257193134e+00 +0.0000000000000000e+00 -7.3999997827260966e+00 -3.1235999158727209e-02 -5.9561213415267100e-01 +6.0215950411534307e-03
-7.4999999999999893e+00 +7.9184047693915893e+00 +0.0000000000000000e+00 -7.4999997737979758e+00 -3.1236040030472843e-02 -5.9561244573481165e-01 +6.0217678813857369e-03
-7.5999999999999890e+00 +7.9183619458462431e+00 +0.0000000000000000e+00 -7.5999997646285609e+00 -3.1236088023082718e-02 -5.9561274926908281e-01 +6.0219397826067108e-03
-7.6999999999999886e+00 +7.9183185550829869e+00 +0.0000000000000000e+00 -7.6999997552146349e+00 -3.1236143702739475e-02 -5.9561304609544097e-01 +6.0221104536066460e-03
-7.7999999999999883e+00 +7.9182745971015391e+00 +0.0000000000000000e+00 -7.7999997455529799e+00 -3.1236207635700796e-02 -5.9561333755396428e-01 +6.0222796031813375e-03
-7.8999999999999879e+00 +7.9182300719016236e+00 +0.0000000000000000e+00 -7.8999997356403782e+00 -3.1236280388301528e-02 -5.9561362498485426e-01 +6.0224469401322931e-03
-7.9999999999999876e+00 +7.9181849794829677e+00 +0.0000000000000000e+00 -7.9999997254736126e+00 -3.1236362526955719e-02 -5.9561390972843886e-01 +6.0226121732669391e-03
-8.0999999999999872e+00 +7.9181393198453023e+00 +0.0000000000000000e+00 -8.0999997150494654e+00 -3.1236454356519169e-02 -5.9561419313689357e-01 +6.0227750679179943e-03
-8.1999999999999869e+00 +7.9180930929883582e+00 +0.0000000000000000e+00 -8.1999997043647195e+00 -3.1236555135311077e-02 -5.9561447660933053e-01 +6.0229356155021155e-03
-8.2999999999999865e+00 +7.9180462989118672e+00 +0.0000000000000000e+00 -8.2999996934161562e+00 -3.1236663859944096e-02 -5.9561476155653426e-01 +6.0230938639599810e-03
-8.3999999999999861e+00 +7.9179989376155593e+00 +0.0000000000000000e+00 -8.3999996822005603e+00 -3.1236779526952436e-02 -5.9561504938922627e-01 +6.0232498612360595e-03
-8.4999999999999858e+00 +7.9179510090991618e+00 +0.0000000000000000e+00 -8.4999996707147130e+00 -3.1236901132789083e-02 -5.9561534151806261e-01 +6.0234036552787524e-03
-8.5999999999999854e+00 +7.9179025133623977e+00 +0.0000000000000000e+00 -8.5999996589553955e+00 -3.1237027673823033e-02 -5.9561563935363127e-01 +6.0235552940405010e-03
-8.6999999999999851e+00 +7.9178534504049853e+00 +0.0000000000000000e+00 -8.6999996469193910e+00 -3.1237158146336527e-02 -5.9561594430645048e-01 +6.0237048254779234e-03
-8.7999999999999847e+00 +7.9178038202266352e+00 +0.0000000000000000e+00 -8.7999996346034823e+00 -3.1237291546522258e-02 -5.9561625778696525e-01 +6.0238522975519220e-03
-8.8999999999999844e+00 +7.9177536228270506e+00 +0.0000000000000000e+00 -8.8999996220044526e+00 -3.1237426870480617e-02 -5.9561658120554584e-01 +6.0239977582278179e-03
-8.9999999999999840e+00 +7.9177028582059252e+00 +0.0000000000000000e+00 -8.9999996091190830e+00 -3.1237563114216934e-02 -5.9561691597248412e-01 +6.0241412554754657e-03
-9.0999999999999837e+00 +7.9176515263629410e+00 +0.0000000000000000e+00 -9.0999995959441584e+00 -3.1237699273638644e-02 -5.9561726349799293e-01 +6.0242828372693846e-03
-9.1999999999999833e+00 +7.9175996272977693e+00 +0.0000000000000000e+00 -9.1999995824764582e+00 -3.1237834344552618e-02 -5.9561762519220207e-01 +6.0244225515888785e-03
-9.2999999999999829e+00 +7.9175471610100665e+00 +0.0000000000000000e+00 -9.2999995687127672e+00 -3.1237967322662305e-02 -5.9561800246515650e-01 +6.0245604464181559e-03
-9.3999999999999826e+00 +7.9174941274994755e+00 +0.0000000000000000e+00 -9.3999995546498667e+00 -3.1238097203565001e-02 -5.9561839672681349e-01 +6.0246965697464553e-03
-9.4999999999999822e+00 +7.9174405267656223e+00 +0.0000000000000000e+00 -9.4999995402845379e+00 -3.1238222982749086e-02 -5.9561880938704104e-01 +6.0248309695681724e-03
-9.5999999999999819e+00 +7.9173863588081153e+00 +0.0000000000000000e+00 -9.5999995256135655e+00 -3.1238343655591250e-02 -5.9561924185561455e-01 +6.0249636938829801e-03
-9.6999999999999815e+00 +7.9173316236265441e+00 +0.0000000000000000e+00 -9.6999995106337291e+00 -3.1238458217353712e-02 -5.9561969554221506e-01 +6.0250947906959566e-03
-9.7999999999999812e+00 +7.9172763212204789e+00 +0.0000000000000000e+00 -9.7999994953418135e+00 -3.1238565663181485e-02 -5.9562017185642602e-01 +6.0252243080177043e-03
-9.8999999999999808e+00 +7.9172204515894675e+00 +0.0000000000000000e+00 -9.8999994797345998e+00 -3.1238664988099588e-02 -5.9562067220773152e-01 +6.0253522938644747e-03
-9.9999999999999805e+00 +7.9171640147330349e+00 +0.0000000000000000e+00 -9.9999994638088712e+00 -3.1238755187010268e-02 -5.9562119800551372e-01 +6.0254787962583014e-03
-1.0099999999999980e+01 +7.9171070106506827e+00 +0.0000000000000000e+00 -1.0099999447561409e+01 -3.1238835556502337e-02 -5.9562175028470943e-01 +6.0256038706597587e-03
-1.0199999999999980e+01 +7.9170494393418860e+00 +0.0000000000000000e+00 -1.0199999430988996e+01 -3.1238906600360470e-02 -5.9562232858280639e-01 +6.0257276022644204e-03
-1.0299999999999979e+01 +7.9169913008060968e+00 +0.0000000000000000e+00 -1.0299999414088413e+01 -3.1238969124217329e-02 -5.9562293206295103e-01 +6.0258500837009829e-03
-1.0399999999999979e+01 +7.9169325950427414e+00 +0.0000000000000000e+00 -1.0399999396856444e+01 -3.1239023933747060e-02 -5.9562355988831184e-01 +6.0259714075978320e-03
-1.0499999999999979e+01 +7.9168733220512246e+00 +0.0000000000000000e+00 -1.0499999379289871e+01 -3.1239071834666735e-02 -5.9562421122208020e-01 +6.0260916665830083e-03
-1.0599999999999978e+01 +7.9168134818309275e+00 +0.0000000000000000e+00 -1.0599999361385477e+01 -3.1239113632737753e-02 -5.9562488522747192e-01 +6.0262109532841553e-03
-1.0699999999999978e+01 +7.9167530743812105e+00 +0.0000000000000000e+00 -1.0699999343140041e+01 -3.1239150133767230e-02 -5.9562558106772667e-01 +6.0263293603284966e-03
-1.0799999999999978e+01 +7.9166920997014136e+00 +0.0000000000000000e+00 -1.0799999324550347e+01 -3.1239182143609406e-02 -5.9562629790611044e-01 +6.0264469803427891e-03
-1.0899999999999977e+01 +7.9166305577908549e+00 +0.0000000000000000e+00 -1.0899999305613177e+01 -3.1239210468167078e-02 -5.9562703490591429e-01 +6.0265639059532824e-03
-1.0999999999999977e+01 +7.9165684486488352e+00 +0.0000000000000000e+00 -1.0999999286325313e+01 -3.1239235913392973e-02 -5.9562779123045706e-01 +6.0266802297856935e-03
-1.1099999999999977e+01 +7.9165057722746370e+00 +0.0000000000000000e+00 -1.1099999266683538e+01 -3.1239259285291161e-02 -5.9562856604308445e-01 +6.0267960444651530e-03
-1.1199999999999976e+01 +7.9164425286675240e+00 +0.0000000000000000e+00 -1.1199999246684632e+01 -3.1239281389918470e-02 -5.9562935850717136e-01 +6.0269114426161775e-03
-1.1299999999999976e+01 +7.9163787178267429e+00 +0.0000000000000000e+00 -1.1299999226325379e+01 -3.1239303033385915e-02 -5.9563016778612110e-01 +6.0270265168626234e-03
-1.1399999999999975e+01 +7.9163143397515254e+00 +0.0000000000000000e+00 -1.1399999205602560e+01 -3.1239325021860026e-02 -5.9563099304336697e-01 +6.0271413598276535e-03
-1.1499999999999975e+01 +7.9162493944410883e+00 +0.0000000000000000e+00 -1.1499999184512957e+01 -3.1239348161564377e-02 -5.9563183344237336e-01 +6.0272560641336966e-03
-1.1599999999999975e+01 +7.9161838818946331e+00 +0.0000000000000000e+00 -1.1599999163053353e+01 -3.1239373258780883e-02 -5.9563268814663650e-01 +6.0273707224024068e-03
-1.1699999999999974e+01 +7.9161178021113479e+00 +0.0000000000000000e+00 -1.1699999141220527e+01 -3.1239401119851271e-02 -5.9563355631968384e-01 +6.0274854272546257e-03
