# field on trajectory
# s[mm] rx[mm] ry[mm] rz[mm] bx[T] by[T] bz[T]
0.0000000000000000e+00 +8.1530000000000005e+00 +0.0000000000000000e+00 +0.0000000000000000e+00 -3.1459978922679176e-02 -5.9289143334304495e-01 +5.8520970321537281e-03
1.0000000000000001e-01 +8.1529997163961507e+00 +0.0000000000000000e+00 +9.9999999999463796e-02 -3.1460254899560752e-02 -5.9289122075986644e-01 +5.8521639167769552e-03
2.0000000000000001e-01 +8.1529988655856904e+00 +0.0000000000000000e+00 +1.9999999999571000e-01 -3.1460523353278626e-02 -5.9289100829172736e-01 +5.8522341847070738e-03
2.9999999999999999e-01 +8.1529974475670297e+00 +0.0000000000000000e+00 +2.9999999998552201e-01 -3.1460784449720301e-02 -5.9289079629710595e-01 +5.8523077807058448e-03
4.0000000000000002e-01 +8.1529954623438208e+00 +0.0000000000000000e+00 +3.9999999996568297e-01 -3.1461038354761314e-02 -5.9289058513444748e-01 +5.8523846495362308e-03
5.0000000000000000e-01 +8.1529929099124292e+00 +0.0000000000000000e+00 +4.9999999993297400e-01 -3.1461285234273183e-02 -5.9289037516226395e-01 +5.8524647359632928e-03
5.9999999999999998e-01 +8.1529897902728408e+00 +0.0000000000000000e+00 +5.9999999988417896e-01 -3.1461525254121492e-02 -5.9289016673904782e-01 +5.8525479847531866e-03
6.9999999999999996e-01 +8.1529861034287006e+00 +0.0000000000000000e+00 +6.9999999981608096e-01 -3.1461758580168489e-02 -5.9288996022326923e-01 +5.8526343406730442e-03
8.0000000000000004e-01 +8.1529818493763706e+00 +0.0000000000000000e+00 +7.9999999972546199e-01 -3.1461985378280467e-02 -5.9288975597346760e-01 +5.8527237484917666e-03
9.0000000000000002e-01 +8.1529770281158598e+00 +0.0000000000000000e+00 +8.9999999960910604e-01 -3.1462205814325697e-02 -5.9288955434816171e-01 +5.8528161529789857e-03
1.0000000000000000e+00 +8.1529716396507901e+00 +0.0000000000000000e+00 +9.9999999946379403e-01 -3.1462420054177195e-02 -5.9288935570584889e-01 +5.8529114989049813e-03
1.1000000000000001e+00 +8.1529656839775306e+00 +0.0000000000000000e+00 +1.0999999992863101e+00 -3.1462628263719962e-02 -5.9288916040509609e-01 +5.8530097310414385e-03
1.2000000000000000e+00 +8.1529591610960797e+00 +0.0000000000000000e+00 +1.1999999990734400e+00 -3.1462830608849052e-02 -5.9288896880444897e-01 +5.8531107941604430e-03
1.3000000000000000e+00 +8.1529520710100805e+00 +0.0000000000000000e+00 +1.2999999988219599e+00 -3.1463027255472231e-02 -5.9288878126243361e-01 +5.8532146330343721e-03
1.3999999999999999e+00 +8.1529444137122500e+00 +0.0000000000000000e+00 +1.3999999985286500e+00 -3.1463218369518771e-02 -5.9288859813767425e-01 +5.8533211924369647e-03
1.5000000000000000e+00 +8.1529361892135093e+00 +0.0000000000000000e+00 +1.4999999981903001e+00 -3.1463404116929869e-02 -5.9288841978865681e-01 +5.8534304171408268e-03
1.6000000000000001e+00 +8.1529273975065699e+00 +0.0000000000000000e+00 +1.5999999978037001e+00 -3.1463584663676672e-02 -5.9288824657402528e-01 +5.8535422519202882e-03
1.7000000000000000e+00 +8.1529180385914497e+00 +0.0000000000000000e+00 +1.6999999973656199e+00 -3.1463760175752156e-02 -5.9288807885237338e-01 +5.8536566415492135e-03
1.8000000000000000e+00 +8.1529081124681397e+00 +0.0000000000000000e+00 +1.7999999968728499e+00 -3.1463930819176894e-02 -5.9288791698230570e-01 +5.8537735308014684e-03
1.8999999999999999e+00 +8.1528976191402798e+00 +0.0000000000000000e+00 +1.8999999963221601e+00 -3.1464096760000185e-02 -5.9288776132240650e-01 +5.8538928644505227e-03
2.0000000000000000e+00 +8.1528865586042194e+00 +0.0000000000000000e+00 +1.9999999957103500e+00 -3.1464258164307354e-02 -5.9288761223133035e-01 +5.8540145872702180e-03
2.1000000000000001e+00 +8.1528749308599799e+00 +0.0000000000000000e+00 +2.0999999950341901e+00 -3.1464415251024003e-02 -5.9288747012290421e-01 +5.8541386554245211e-03
2.2000000000000002e+00 +8.1528627359111905e+00 +0.0000000000000000e+00 +2.1999999942904802e+00 -3.1464568450322764e-02 -5.9288733563170282e-01 +5.8542650706405663e-03
2.2999999999999998e+00 +8.1528499737542006e+00 +0.0000000000000000e+00 +2.2999999934759798e+00 -3.1464718245183709e-02 -5.9288720944755613e-01 +5.8543938460387211e-03
2.3999999999999999e+00 +8.1528366443890299e+00 +0.0000000000000000e+00 +2.3999999925874800e+00 -3.1464865118577476e-02 -5.9288709226026737e-01 +5.8545249947412961e-03
2.5000000000000000e+00 +8.1528227478193003e+00 +0.0000000000000000e+00 +2.4999999916217801e+00 -3.1465009553462861e-02 -5.9288698475961132e-01 +5.8546585298727234e-03
2.6000000000000001e+00 +8.1528082840413791e+00 +0.0000000000000000e+00 +2.5999999905756401e+00 -3.1465152032788983e-02 -5.9288688763542363e-01 +5.8547944645606252e-03
2.7000000000000002e+00 +8.1527932530552807e+00 +0.0000000000000000e+00 +2.6999999894458502e+00 -3.1465293039488078e-02 -5.9288680157750939e-01 +5.8549328119350975e-03
2.7999999999999998e+00 +8.1527776548646198e+00 +0.0000000000000000e+00 +2.7999999882291999e+00 -3.1465433056473147e-02 -5.9288672727564529e-01 +5.8550735851288938e-03
2.8999999999999999e+00 +8.1527614894657692e+00 +0.0000000000000000e+00 +2.8999999869224702e+00 -3.1465572566640024e-02 -5.9288666541966462e-01 +5.8552167972784862e-03
3.0000000000000000e+00 +8.1527447568587394e+00 +0.0000000000000000e+00 +2.9999999855224302e+00 -3.1465712052860299e-02 -5.9288661669937004e-01 +5.8553624615233562e-03
3.1000000000000001e+00 +8.1527274570471508e+00 +0.0000000000000000e+00 +3.0999999840258798e+00 -3.1465851997978828e-02 -5.9288658180453158e-01 +5.8555105910061672e-03
3.2000000000000002e+00 +8.1527095900273707e+00 +0.0000000000000000e+00 +3.1999999824295902e+00 -3.1465992884815941e-02 -5.9288656142497564e-01 +5.8556611988738365e-03
3.2999999999999998e+00 +8.1526911557994008e+00 +0.0000000000000000e+00 +3.2999999807303602e+00 -3.1466135196160240e-02 -5.9288655625049413e-01 +5.8558142982768216e-03
3.3999999999999999e+00 +8.1526721543668792e+00 +0.0000000000000000e+00 +3.3999999789249502e+00 -3.1466279414766200e-02 -5.9288656697084607e-01 +5.8559699023692990e-03
3.5000000000000000e+00 +8.1526525857261696e+00 +0.0000000000000000e+00 +3.4999999770101602e+00 -3.1466426023356274e-02 -5.9288659427584267e-01 +5.8561280243102200e-03
3.6000000000000001e+00 +8.1526324498772702e+00 +0.0000000000000000e+00 +3.5999999749827598e+00 -3.1466575504613875e-02 -5.9288663885526027e-01 +5.8562886772626178e-03
3.7000000000000002e+00 +8.1526117468238208e+00 +0.0000000000000000e+00 +3.6999999728395401e+00 -3.1466728341180743e-02 -5.9288670139883881e-01 +5.8564518743937635e-03
3.7999999999999998e+00 +8.1525904765621799e+00 +0.0000000000000000e+00 +3.7999999705772902e+00 -3.1466885015659259e-02 -5.9288678259636951e-01 +5.8566176288762529e-03
3.8999999999999999e+00 +8.1525686390959908e+00 +0.0000000000000000e+00 +3.8999999681927799e+00 -3.1467046010603641e-02 -5.9288688313757565e-01 +5.8567859538869753e-03
4.0000000000000000e+00 +8.1525462344179704e+00 +0.0000000000000000e+00 +3.9999999656827998e+00 -3.1467211808525401e-02 -5.9288700371226133e-01 +5.8569568626088064e-03
4.0999999999999996e+00 +8.1525232625354001e+00 +0.0000000000000000e+00 +4.0999999630441302e+00 -3.1467382679718624e-02 -5.9288714472803461e-01 +5.8571303275273779e-03
4.2000000000000002e+00 +8.1524997234482708e+00 +0.0000000000000000e+00 +4.1999999602735496e+00 -3.1467558045801772e-02 -5.9288730546427892e-01 +5.8573061583246221e-03
4.2999999999999998e+00 +8.1524756171529607e+00 +0.0000000000000000e+00 +4.2999999573678496e+00 -3.1467737116232693e-02 -5.9288748491832033e-01 +5.8574841239744761e-03
4.4000000000000004e+00 +8.1524509436494608e+00 +0.0000000000000000e+00 +4.3999999543238104e+00 -3.1467919100472634e-02 -5.9288768208743303e-01 +5.8576639934419684e-03
4.5000000000000000e+00 +8.1524257029377605e+00 +0.0000000000000000e+00 +4.4999999511382098e+00 -3.1468103207988839e-02 -5.9288789596886782e-01 +5.8578455356828856e-03
4.5999999999999996e+00 +8.1523998950215208e+00 +0.0000000000000000e+00 +4.5999999478078299e+00 -3.1468288648253954e-02 -5.9288812555982207e-01 +5.8580285196428534e-03
4.7000000000000002e+00 +8.1523735198970808e+00 +0.0000000000000000e+00 +4.6999999443294600e+00 -3.1468474630751711e-02 -5.9288836985752624e-01 +5.8582127142576259e-03
4.7999999999999998e+00 +8.1523465775644599e+00 +0.0000000000000000e+00 +4.7999999406998803e+00 -3.1468660364973214e-02 -5.9288862785915430e-01 +5.8583978884515437e-03
4.9000000000000004e+00 +8.1523190680272801e+00 +0.0000000000000000e+00 +4.8999999369158704e+00 -3.1468845060417971e-02 -5.9288889856182247e-01 +5.8585838111369212e-03
5.0000000000000000e+00 +8.1522909912819195e+00 +0.0000000000000000e+00 +4.9999999329742204e+00 -3.1469027926599502e-02 -5.9288918096267706e-01 +5.8587702512143333e-03
5.0999999999999996e+00 +8.1522623473319999e+00 +0.0000000000000000e+00 +5.0999999288717000e+00 -3.1469208173040150e-02 -5.9288947405877379e-01 +5.8589569775707642e-03
5.2000000000000002e+00 +8.1522331361738907e+00 +0.0000000000000000e+00 +5.1999999246051098e+00 -3.1469385009278227e-02 -5.9288977684719568e-01 +5.8591437590802178e-03
5.2999999999999998e+00 +8.1522033578075899e+00 +0.0000000000000000e+00 +5.2999999201712198e+00 -3.1469557644864407e-02 -5.9289008832496382e-01 +5.8593303646021768e-03
5.4000000000000004e+00 +8.1521730122331100e+00 +0.0000000000000000e+00 +5.3999999155668199e+00 -3.1469725289364217e-02 -5.9289040748906308e-01 +5.8595165629812792e-03
5.5000000000000000e+00 +8.1521420994540694e+00 +0.0000000000000000e+00 +5.4999999107886799e+00 -3.1469887152357490e-02 -5.9289073333641440e-01 +5.8597021230463999e-03
5.5999999999999996e+00 +8.1521106194668391e+00 +0.0000000000000000e+00 +5.5999999058335996e+00 -3.1470042443444028e-02 -5.9289106486396026e-01 +5.8598868136109285e-03
5.7000000000000002e+00 +8.1520785722750606e+00 +0.0000000000000000e+00 +5.6999999006983604e+00 -3.1470190372238339e-02 -5.9289140106854532e-01 +5.8600704034709435e-03
5.7999999999999998e+00 +8.1520459578750906e+00 +0.0000000000000000e+00 +5.7999998953797300e+00 -3.1470330148376871e-02 -5.9289174094703467e-01 +5.8602526614057997e-03
5.9000000000000004e+00 +8.1520127762669308e+00 +0.0000000000000000e+00 +5.8999998898744996e+00 -3.1470460981514313e-02 -5.9289208349622224e-01 +5.8604333561765838e-03
5.9999999999999902e+00 +8.1519790274505795e+00 +0.0000000000000000e+00 +5.9999998841794504e+00 -3.1470582081326165e-02 -5.9289242771285988e-01 +5.8606122565258139e-03
6.0999999999999899e+00 +8.1519447114296799e+00 +0.0000000000000000e+00 +6.0999998782913698e+00 -3.1470692982817100e-02 -5.9289277267363005e-01 +5.8607892133835608e-03
6.1999999999999904e+00 +8.1519098282005906e+00 +0.0000000000000000e+00 +6.1999998722070400e+00 -3.1470794522251447e-02 -5.9289311777526932e-01 +5.8609644064992151e-03
6.2999999999999901e+00 +8.1518743777669407e+00 +0.0000000000000000e+00 +6.2999998659232403e+00 -3.1470887861206401e-02 -5.9289346249447905e-01 +5.8611380978344533e-03
6.3999999999999897e+00 +8.1518383601214701e+00 +0.0000000000000000e+00 +6.3999998594367504e+00 -3.1470974161267047e-02 -5.9289380630807698e-01 +5.8613105493598664e-03
6.4999999999999902e+00 +8.1518017752750893e+00 +0.0000000000000000e+00 +6.4999998527443603e+00 -3.1471054584014203e-02 -5.9289414869276180e-01 +5.8614820230530199e-03
6.5999999999999899e+00 +8.1517646232205205e+00 +0.0000000000000000e+00 +6.5999998458428504e+00 -3.1471130291040011e-02 -5.9289448912541187e-01 +5.8616527809019874e-03
6.6999999999999904e+00 +8.1517269039541098e+00 +0.0000000000000000e+00 +6.6999998387290001e+00 -3.1471202443938869e-02 -5.9289482708290786e-01 +5.8618230849040252e-03
6.7999999999999901e+00 +8.1516886174867995e+00 +0.0000000000000000e+00 +6.7999998313996004e+00 -3.1471272204302791e-02 -5.9289516204204606e-01 +5.8619931970651544e-03
6.8999999999999897e+00 +8.1516497638112906e+00 +0.0000000000000000e+00 +6.8999998238514202e+00 -3.1471340733735718e-02 -5.9289549347980697e-01 +5.8621633794033916e-03
6.9999999999999902e+00 +8.1516103429239593e+00 +0.0000000000000000e+00 +6.9999998160812602e+00 -3.1471409193844259e-02 -5.9289582087317882e-01 +5.8623338939474195e-03
7.0999999999999899e+00 +8.1515703548320708e+00 +0.0000000000000000e+00 +7.0999998080858804e+00 -3.1471478746234696e-02 -5.9289614369909871e-01 +5.8625050027364747e-03
7.1999999999999904e+00 +8.1515297995356395e+00 +0.0000000000000000e+00 +7.1999997998620904e+00 -3.1471550552521037e-02 -5.9289646143460550e-01 +5.8626769678223750e-03
7.2999999999999901e+00 +8.1514886770310095e+00 +0.0000000000000000e+00 +7.2999997914066501e+00 -3.1471625774323581e-02 -5.9289677355680770e-01 +5.8628500512696797e-03
7.3999999999999897e+00 +8.1514469873182005e+00 +0.0000000000000000e+00 +7.3999997827163604e+00 -3.1471705573265917e-02 -5.9289707954282977e-01 +5.8630245151556105e-03
7.4999999999999902e+00 +8.1514047304008308e+00 +0.0000000000000000e+00 +7.4999997737879900e+00 -3.1471791110975166e-02 -5.9289737886981120e-01 +5.8632006215705362e-03
7.5999999999999899e+00 +8.1513619062752696e+00 +0.0000000000000000e+00 +7.5999997646183202e+00 -3.1471883549086657e-02 -5.9289767101499713e-01 +5.8633786326193630e-03
7.6999999999999904e+00 +8.1513185149451601e+00 +0.0000000000000000e+00 +7.6999997552041499e+00 -3.1471984049238087e-02 -5.9289795545562307e-01 +5.8635588104208403e-03
7.7999999999999901e+00 +8.1512745564032194e+00 +0.0000000000000000e+00 +7.7999997455422498e+00 -3.1472093773077296e-02 -5.9289823166906341e-01 +5.8637414171095522e-03
7.8999999999999897e+00 +8.1512300306567305e+00 +0.0000000000000000e+00 +7.8999997356294100e+00 -3.1472213882251555e-02 -5.9289849913262482e-01 +5.8639267148343057e-03
7.9999999999999902e+00 +8.1511849377056897e+00 +0.0000000000000000e+00 +7.9999997254624002e+00 -3.1472345538417143e-02 -5.9289875732372821e-01 +5.8641149657604422e-03
8.0999999999999908e+00 +8.1511392775464593e+00 +0.0000000000000000e+00 +8.0999997150380096e+00 -3.1472489590924295e-02 -5.9289900596463363e-01 +5.8643063653709190e-03
8.1999999999999904e+00 +8.1510930501790408e+00 +0.0000000000000000e+00 +8.1999997043530293e+00 -3.1472645639861234e-02 -5.9289924575663333e-01 +5.8645008423618746e-03
8.2999999999999901e+00 +8.1510462556034309e+00 +0.0000000000000000e+00 +8.2999996934042404e+00 -3.1472812972997491e-02 -5.9289947764576523e-01 +5.8646982587331259e-03
8.3999999999999897e+00 +8.1509988938232691e+00 +0.0000000000000000e+00 +8.3999996821884100e+00 -3.1472990878100481e-02 -5.9289970257801827e-01 +5.8648984764869457e-03
8.4999999999999893e+00 +8.1509509648349194e+00 +0.0000000000000000e+00 +8.4999996707023406e+00 -3.1473178642940164e-02 -5.9289992149941895e-01 +5.8651013576289804e-03
8.5999999999999908e+00 +8.1509024686420197e+00 +0.0000000000000000e+00 +8.5999996589427994e+00 -3.1473375555282700e-02 -5.9290013535591368e-01 +5.8653067641671365e-03
8.6999999999999904e+00 +8.1508534052409196e+00 +0.0000000000000000e+00 +8.6999996469065692e+00 -3.1473580902896696e-02 -5.9290034509348388e-01 +5.8655145581128004e-03
8.7999999999999794e+00 +8.1508037746316404e+00 +0.0000000000000000e+00 +8.7999996345904599e+00 -3.1473793973548457e-02 -5.9290055165806010e-01 +5.8657246014799927e-03
8.8999999999999808e+00 +8.1507535768178094e+00 +0.0000000000000000e+00 +8.8999996219912205e+00 -3.1474014055001963e-02 -5.9290075599551806e-01 +5.8659367562854366e-03
8.9999999999999805e+00 +8.1507028117957798e+00 +0.0000000000000000e+00 +8.9999996091056396e+00 -3.1474240435023490e-02 -5.9290095905176865e-01 +5.8661508845494776e-03
9.0999999999999801e+00 +8.1506514795655693e+00 +0.0000000000000000e+00 +9.0999995959305195e+00 -3.1474472401376886e-02 -5.9290116177266716e-01 +5.8663668482952609e-03
9.1999999999999797e+00 +8.1505995801308000e+00 +0.0000000000000000e+00 +9.1999995824626293e+00 -3.1474709241823523e-02 -5.9290136510401359e-01 +5.8665845095487602e-03
9.2999999999999794e+00 +8.1505471134878498e+00 +0.0000000000000000e+00 +9.2999995686987500e+00 -3.1474950244126949e-02 -5.9290156999163957e-01 +5.8668037303397352e-03
9.3999999999999808e+00 +8.1504940796366991e+00 +0.0000000000000000e+00 +9.3999995546356701e+00 -3.1475194696048210e-02 -5.9290177738132022e-01 +5.8670243727008868e-03
9.4999999999999805e+00 +8.1504404785773694e+00 +0.0000000000000000e+00 +9.4999995402701707e+00 -3.1475441885347219e-02 -5.9290198821880125e-01 +5.8672462986681870e-03
9.5999999999999801e+00 +8.1503863103171206e+00 +0.0000000000000000e+00 +9.5999995255990296e+00 -3.1475691099779816e-02 -5.9290220344974098e-01 +5.8674693702803491e-03
9.6999999999999797e+00 +8.1503315748450404e+00 +0.0000000000000000e+00 +9.6999995106190298e+00 -3.1475941627108428e-02 -5.9290242401991478e-01 +5.8676934495809682e-03
9.7999999999999794e+00 +8.1502762721684103e+00 +0.0000000000000000e+00 +9.7999994953269702e+00 -3.1476192755086597e-02 -5.9290265087492044e-01 +5.8679183986155682e-03
9.8999999999999808e+00 +8.1502204022835905e+00 +0.0000000000000000e+00 +9.8999994797196091e+00 -3.1476443771471289e-02 -5.9290288496041199e-01 +5.8681440794340518e-03
9.9999999999999805e+00 +8.1501639651905897e+00 +0.0000000000000000e+00 +9.9999994637937508e+00 -3.1476693964016693e-02 -5.9290312722198235e-01 +5.8683703540895514e-03
1.0100000000000000e+01 +8.1501069608966592e+00 +0.0000000000000000e+00 +1.0099999447546200e+01 -3.1476942688161376e-02 -5.9290337845049712e-01 +5.8685971019739611e-03
1.0199999999999999e+01 +8.1500493893909205e+00 +0.0000000000000000e+00 +1.0199999430973600e+01 -3.1477189570110475e-02 -5.9290363881839714e-01 +5.8688242718266193e-03
1.0300000000000001e+01 +8.1499912506769796e+00 +0.0000000000000000e+00 +1.0299999414073000e+01 -3.1477434303755061e-02 -5.9290390834336359e-01 +5.8690518297203932e-03
1.0400000000000000e+01 +8.1499325447584905e+00 +0.0000000000000000e+00 +1.0399999396840901e+01 -3.1477676582987578e-02 -5.9290418704308101e-01 +5.8692797417259522e-03
1.0500000000000000e+01 +8.1498732716317992e+00 +0.0000000000000000e+00 +1.0499999379274200e+01 -3.1477916101705077e-02 -5.9290447493529563e-01 +5.8695079739123071e-03
1.0600000000000000e+01 +8.1498134313005703e+00 +0.0000000000000000e+00 +1.0599999361369800e+01 -3.1478152553802950e-02 -5.9290477203769687e-01 +5.8697364923454981e-03
1.0699999999999999e+01 +8.1497530237611500e+00 +0.0000000000000000e+00 +1.0699999343124301e+01 -3.1478385633181227e-02 -5.9290507836803696e-01 +5.8699652630897136e-03
1.0800000000000001e+01 +8.1496920490171796e+00 +0.0000000000000000e+00 +1.0799999324534600e+01 -3.1478615033738395e-02 -5.9290539394401143e-01 +5.8701942522059918e-03
1.0900000000000000e+01 +8.1496305070650106e+00 +0.0000000000000000e+00 +1.0899999305597399e+01 -3.1478840449377612e-02 -5.9290571878337872e-01 +5.8704234257533445e-03
1.1000000000000000e+01 +8.1495683979046607e+00 +0.0000000000000000e+00 +1.0999999286309500e+01 -3.1479061574002133e-02 -5.9290605290387099e-01 +5.8706527497877420e-03
1.1100000000000000e+01 +8.1495057215361193e+00 +0.0000000000000000e+00 +1.1099999266667700e+01 -3.1479278101516836e-02 -5.9290639632322406e-01 +5.8708821903623500e-03
1.1199999999999999e+01 +8.1494424779630208e+00 +0.0000000000000000e+00 +1.1199999246668799e+01 -3.1479489725826697e-02 -5.9290674905914786e-01 +5.8711117135271133e-03
1.1300000000000001e+01 +8.1493786671817396e+00 +0.0000000000000000e+00 +1.1299999226309600e+01 -3.1479696140841604e-02 -5.9290711112941519e-01 +5.8713412853295789e-03
1.1400000000000000e+01 +8.1493142891922599e+00 +0.0000000000000000e+00 +1.1399999205586900e+01 -3.1479897040471563e-02 -5.9290748255177350e-01 +5.8715708718139123e-03
1.1500000000000000e+01 +8.1492493440018698e+00 +0.0000000000000000e+00 +1.1499999184497300e+01 -3.1480092118625291e-02 -5.9290786334391454e-01 +5.8718004390204718e-03
1.1600000000000000e+01 +8.1491838315996592e+00 +0.0000000000000000e+00 +1.1599999163037801e+01 -3.1480281069221128e-02 -5.9290825352368337e-01 +5.8720299529878735e-03
1.1699999999999999e+01 +8.1491177519928897e+00 +0.0000000000000000e+00 +1.1699999141205099e+01 -3.1480463586171431e-02 -5.9290865310878071e-01 +5.8722593797498474e-03
1.1800000000000001e+01 +8.1490511051779304e+00 +0.0000000000000000e+00 +1.1799999118996000e+01 -3.1480639363395194e-02 -5.9290906211700078e-01 +5.8724886853375744e-03
