# field on trajectory
# s[mm] rx[mm] ry[mm] rz[mm] bx[T] by[T] bz[T]
0.0000000000000000e+00 +8.1530000000000094e+00 +0.0000000000000000e+00 +0.0000000000000000e+00 -2.9288051506323097e-02 -5.3664006415660337e-01 +5.3035303932780246e-03
1.0000000000000001e-01 +8.1529997163925092e+00 +0.0000000000000000e+00 +9.9999999999463796e-02 -2.9288243290481901e-02 -5.3664002632961694e-01 +5.3035555149843023e-03
2.0000000000000001e-01 +8.1529988655711296e+00 +0.0000000000000000e+00 +1.9999999999571000e-01 -2.9288439774984101e-02 -5.3663998590252193e-01 +5.3035843124209191e-03
2.9999999999999999e-01 +8.1529974475415692e+00 +0.0000000000000000e+00 +2.9999999998552201e-01 -2.9288640322123582e-02 -5.3663994348000654e-01 +5.3036167484401906e-03
4.0000000000000002e-01 +8.1529954622965306e+00 +0.0000000000000000e+00 +3.9999999996568197e-01 -2.9288844294193397e-02 -5.3663989966685455e-01 +5.3036527858962958e-03
5.0000000000000000e-01 +8.1529929098396696e+00 +0.0000000000000000e+00 +4.9999999993297300e-01 -2.9289051053478673e-02 -5.3663985506777234e-01 +5.3036923876434846e-03
5.9999999999999998e-01 +8.1529897901673394e+00 +0.0000000000000000e+00 +5.9999999988417696e-01 -2.9289259962265442e-02 -5.3663981028752383e-01 +5.3037355165374131e-03
6.9999999999999996e-01 +8.1529861032831796e+00 +0.0000000000000000e+00 +6.9999999981607697e-01 -2.9289470382837135e-02 -5.3663976593082785e-01 +5.3037821354340320e-03
8.0000000000000004e-01 +8.1529818491871993e+00 +0.0000000000000000e+00 +7.9999999972545699e-01 -2.9289681677480469e-02 -5.3663972260244108e-01 +5.3038322071904016e-03
9.0000000000000002e-01 +8.1529770278793894e+00 +0.0000000000000000e+00 +8.9999999960909804e-01 -2.9289893208486219e-02 -5.3663968090713199e-01 +5.3038856946643724e-03
1.0000000000000000e+00 +8.1529716393597500e+00 +0.0000000000000000e+00 +9.9999999946378304e-01 -2.9290104338151029e-02 -5.3663964144968623e-01 +5.3039425607145875e-03
1.1000000000000001e+00 +8.1529656836210105e+00 +0.0000000000000000e+00 +1.0999999992862901e+00 -2.9290314428782101e-02 -5.3663960483496109e-01 +5.3040027682010023e-03
1.2000000000000000e+00 +8.1529591606740706e+00 +0.0000000000000000e+00 +1.1999999990734200e+00 -2.9290522842689612e-02 -5.3663957166770182e-01 +5.3040662799829618e-03
1.3000000000000000e+00 +8.1529520705153100e+00 +0.0000000000000000e+00 +1.2999999988219300e+00 -2.9290728942200878e-02 -5.3663954255278479e-01 +5.3041330589216236e-03
1.3999999999999999e+00 +8.1529444131410909e+00 +0.0000000000000000e+00 +1.3999999985286200e+00 -2.9290932089656906e-02 -5.3663951809511234e-01 +5.3042030678788548e-03
1.5000000000000000e+00 +8.1529361885550298e+00 +0.0000000000000000e+00 +1.4999999981902701e+00 -2.9291131647411556e-02 -5.3663949889956430e-01 +5.3042762697166805e-03
1.6000000000000001e+00 +8.1529273967571498e+00 +0.0000000000000000e+00 +1.5999999978036501e+00 -2.9291326977837543e-02 -5.3663948557107799e-01 +5.3043526272980547e-03
1.7000000000000000e+00 +8.1529180377474404e+00 +0.0000000000000000e+00 +1.6999999973655600e+00 -2.9291517443327086e-02 -5.3663947871462725e-01 +5.3044321034865921e-03
1.8000000000000000e+00 +8.1529081115222706e+00 +0.0000000000000000e+00 +1.7999999968727800e+00 -2.9291702406295181e-02 -5.3663947893524921e-01 +5.3045146611468098e-03
1.8999999999999999e+00 +8.1528976180852606e+00 +0.0000000000000000e+00 +1.8999999963220899e+00 -2.9291881229177422e-02 -5.3663948683796836e-01 +5.3046002631433036e-03
2.0000000000000000e+00 +8.1528865574327902e+00 +0.0000000000000000e+00 +1.9999999957102601e+00 -2.9292053274437398e-02 -5.3663950302790575e-01 +5.3046888723418031e-03
2.1000000000000001e+00 +8.1528749295721408e+00 +0.0000000000000000e+00 +2.0999999950340902e+00 -2.9292218062412556e-02 -5.3663952800303094e-01 +5.3047804313524783e-03
2.2000000000000002e+00 +8.1528627344960096e+00 +0.0000000000000000e+00 +2.1999999942903599e+00 -2.9292375744868381e-02 -5.3663956183298811e-01 +5.3048748017652872e-03
2.2999999999999998e+00 +8.1528499722080596e+00 +0.0000000000000000e+00 +2.2999999934758399e+00 -2.9292526631420308e-02 -5.3663960448023496e-01 +5.3049718249129109e-03
2.3999999999999999e+00 +8.1528366427046404e+00 +0.0000000000000000e+00 +2.3999999925873299e+00 -2.9292671031686198e-02 -5.3663965590728890e-01 +5.3050713421270920e-03
2.5000000000000000e+00 +8.1528227459894005e+00 +0.0000000000000000e+00 +2.4999999916215998e+00 -2.9292809255279467e-02 -5.3663971607661820e-01 +5.3051731947373207e-03
2.6000000000000001e+00 +8.1528082820659602e+00 +0.0000000000000000e+00 +2.5999999905754398e+00 -2.9292941611810442e-02 -5.3663978495069264e-01 +5.3052772240711650e-03
2.7000000000000002e+00 +8.1527932509234198e+00 +0.0000000000000000e+00 +2.6999999894456299e+00 -2.9293068410890424e-02 -5.3663986249208873e-01 +5.3053832714551261e-03
2.7999999999999998e+00 +8.1527776525726896e+00 +0.0000000000000000e+00 +2.7999999882289601e+00 -2.9293189962116592e-02 -5.3663994866322084e-01 +5.3054911782117169e-03
2.8999999999999999e+00 +8.1527614870065008e+00 +0.0000000000000000e+00 +2.8999999869222002e+00 -2.9293306575085661e-02 -5.3664004342663207e-01 +5.3056007856622216e-03
3.0000000000000000e+00 +8.1527447542284808e+00 +0.0000000000000000e+00 +2.9999999855221300e+00 -2.9293418559381602e-02 -5.3664014674477944e-01 +5.3057119351243073e-03
3.1000000000000001e+00 +8.1527274542386294e+00 +0.0000000000000000e+00 +3.0999999840255499e+00 -2.9293526224579619e-02 -5.3664025858013797e-01 +5.3058244679128905e-03
3.2000000000000002e+00 +8.1527095870333106e+00 +0.0000000000000000e+00 +3.1999999824292300e+00 -2.9293629880244837e-02 -5.3664037889519889e-01 +5.3059382253399052e-03
3.2999999999999998e+00 +8.1526911526198091e+00 +0.0000000000000000e+00 +3.2999999807299600e+00 -2.9293729835925365e-02 -5.3664050765236071e-01 +5.3060530487130204e-03
3.3999999999999999e+00 +8.1526721509872004e+00 +0.0000000000000000e+00 +3.3999999789245101e+00 -2.9293826401161901e-02 -5.3664064481414098e-01 +5.3061687793375684e-03
3.5000000000000000e+00 +8.1526525821464002e+00 +0.0000000000000000e+00 +3.4999999770096801e+00 -2.9293919885471243e-02 -5.3664079034287959e-01 +5.3062852585133687e-03
3.6000000000000001e+00 +8.1526324460901396e+00 +0.0000000000000000e+00 +3.5999999749822500e+00 -2.9294010598359968e-02 -5.3664094420103192e-01 +5.3064023275374529e-03
3.7000000000000002e+00 +8.1526117428220495e+00 +0.0000000000000000e+00 +3.6999999728389801e+00 -2.9294098849312070e-02 -5.3664110635095164e-01 +5.3065198277017118e-03
3.7999999999999998e+00 +8.1525904723421299e+00 +0.0000000000000000e+00 +3.7999999705766800e+00 -2.9294184947793064e-02 -5.3664127675499662e-01 +5.3066376002937482e-03
3.8999999999999999e+00 +8.1525686346503807e+00 +0.0000000000000000e+00 +3.8999999681921298e+00 -2.9294269203247191e-02 -5.3664145537549934e-01 +5.3067554865963784e-03
4.0000000000000000e+00 +8.1525462297431694e+00 +0.0000000000000000e+00 +3.9999999656820902e+00 -2.9294351925097377e-02 -5.3664164217479216e-01 +5.3068733278876894e-03
4.0999999999999996e+00 +8.1525232576241304e+00 +0.0000000000000000e+00 +4.0999999630433699e+00 -2.9294433441858884e-02 -5.3664183711329405e-01 +5.3069910174170917e-03
4.2000000000000002e+00 +8.1524997182896204e+00 +0.0000000000000000e+00 +4.1999999602727298e+00 -2.9294514158507413e-02 -5.3664204014412387e-01 +5.3071086563400626e-03
4.2999999999999998e+00 +8.1524756117469206e+00 +0.0000000000000000e+00 +4.2999999573669703e+00 -2.9294594499125946e-02 -5.3664225121845976e-01 +5.3072263977897204e-03
4.4000000000000004e+00 +8.1524509379887604e+00 +0.0000000000000000e+00 +4.3999999543228601e+00 -2.9294674887796392e-02 -5.3664247028755296e-01 +5.3073443949023091e-03
4.5000000000000000e+00 +8.1524256970187707e+00 +0.0000000000000000e+00 +4.4999999511372000e+00 -2.9294755748590074e-02 -5.3664269730254088e-01 +5.3074628008155499e-03
4.5999999999999996e+00 +8.1523998888369498e+00 +0.0000000000000000e+00 +4.5999999478067499e+00 -2.9294837505572879e-02 -5.3664293221455150e-01 +5.3075817686699485e-03
4.7000000000000002e+00 +8.1523735134396702e+00 +0.0000000000000000e+00 +4.6999999443283098e+00 -2.9294920582805063e-02 -5.3664317497470082e-01 +5.3077014516089869e-03
4.7999999999999998e+00 +8.1523465708305594e+00 +0.0000000000000000e+00 +4.7999999406986600e+00 -2.9295005404337077e-02 -5.3664342553401123e-01 +5.3078220027785641e-03
4.9000000000000004e+00 +8.1523190610096208e+00 +0.0000000000000000e+00 +4.8999999369145701e+00 -2.9295092394213351e-02 -5.3664368384348982e-01 +5.3079435753280108e-03
5.0000000000000000e+00 +8.1522909839768491e+00 +0.0000000000000000e+00 +4.9999999329728402e+00 -2.9295181976470859e-02 -5.3664394985409958e-01 +5.3080663224100520e-03
5.0999999999999996e+00 +8.1522623397286207e+00 +0.0000000000000000e+00 +5.0999999288702398e+00 -2.9295274575140199e-02 -5.3664422351678409e-01 +5.3081903971812774e-03
5.2000000000000002e+00 +8.1522331282685592e+00 +0.0000000000000000e+00 +5.1999999246035600e+00 -2.9295370614241426e-02 -5.3664450478238634e-01 +5.3083159528015782e-03
5.2999999999999998e+00 +8.1522033495966806e+00 +0.0000000000000000e+00 +5.2999999201695802e+00 -2.9295470517787841e-02 -5.3664479360172523e-01 +5.3084431424351613e-03
5.4000000000000004e+00 +8.1521730037093203e+00 +0.0000000000000000e+00 +5.3999999155650800e+00 -2.9295574709785936e-02 -5.3664508992559568e-01 +5.3085721192507734e-03
5.5000000000000000e+00 +8.1521420906137791e+00 +0.0000000000000000e+00 +5.4999999107868396e+00 -2.9295683614229625e-02 -5.3664539370465802e-01 +5.3087030364208435e-03
5.5999999999999996e+00 +8.1521106102991308e+00 +0.0000000000000000e+00 +5.5999999058316599e+00 -2.9295797655111096e-02 -5.3664570488965146e-01 +5.3088360471238629e-03
5.7000000000000002e+00 +8.1520785627762997e+00 +0.0000000000000000e+00 +5.6999999006963096e+00 -2.9295917256405533e-02 -5.3664602343109680e-01 +5.3089713045416298e-03
5.7999999999999998e+00 +8.1520459480379905e+00 +0.0000000000000000e+00 +5.7999998953775700e+00 -2.9296042842085986e-02 -5.3664634927958976e-01 +5.3091089618624507e-03
5.9000000000000004e+00 +8.1520127660915005e+00 +0.0000000000000000e+00 +5.8999998898722197e+00 -2.9296174836110869e-02 -5.3664668238555668e-01 +5.3092491722789240e-03
5.9999999999999902e+00 +8.1519790169259103e+00 +0.0000000000000000e+00 +5.9999998841770603e+00 -2.9296313662436135e-02 -5.3664702269949593e-01 +5.3093920889905888e-03
6.0999999999999899e+00 +8.1519447005521197e+00 +0.0000000000000000e+00 +6.0999998782888598e+00 -2.9296459591189438e-02 -5.3664737002195928e-01 +5.3095378100047547e-03
6.1999999999999904e+00 +8.1519098169665103e+00 +0.0000000000000000e+00 +6.1999998722044003e+00 -2.9296612277250854e-02 -5.3664772355468060e-01 +5.3096862125482751e-03
6.2999999999999901e+00 +8.1518743661654298e+00 +0.0000000000000000e+00 +6.2999998659204701e+00 -2.9296771221681627e-02 -5.3664808234967654e-01 +5.3098371186543871e-03
6.3999999999999897e+00 +8.1518383481488907e+00 +0.0000000000000000e+00 +6.3999998594338496e+00 -2.9296935925534617e-02 -5.3664844545894941e-01 +5.3099903503590800e-03
6.4999999999999902e+00 +8.1518017629241495e+00 +0.0000000000000000e+00 +6.4999998527413201e+00 -2.9297105889852831e-02 -5.3664881193446057e-01 +5.3101457297009044e-03
6.5999999999999899e+00 +8.1517646104839496e+00 +0.0000000000000000e+00 +6.5999998458396698e+00 -2.9297280615677636e-02 -5.3664918082829283e-01 +5.3103030787226948e-03
6.6999999999999904e+00 +8.1517268908319203e+00 +0.0000000000000000e+00 +6.6999998387256703e+00 -2.9297459604039032e-02 -5.3664955119246416e-01 +5.3104622194697559e-03
6.7999999999999901e+00 +8.1516886039680703e+00 +0.0000000000000000e+00 +6.7999998313961196e+00 -2.9297642355961124e-02 -5.3664992207903650e-01 +5.3106229739910381e-03
6.8999999999999897e+00 +8.1516497498923908e+00 +0.0000000000000000e+00 +6.8999998238477902e+00 -2.9297828372460647e-02 -5.3665029254008989e-01 +5.3107851643389593e-03
6.9999999999999902e+00 +8.1516103286012402e+00 +0.0000000000000000e+00 +6.9999998160774597e+00 -2.9298017154548314e-02 -5.3665066162775032e-01 +5.3109486125697599e-03
7.0999999999999899e+00 +8.1515703400982602e+00 +0.0000000000000000e+00 +7.0999998080819298e+00 -2.9298208203224561e-02 -5.3665102839411094e-01 +5.3111131407427830e-03
7.1999999999999904e+00 +8.1515297843834595e+00 +0.0000000000000000e+00 +7.1999997998579603e+00 -2.9298401019483666e-02 -5.3665139189131361e-01 +5.3112785709213779e-03
7.2999999999999901e+00 +8.1514886614531896e+00 +0.0000000000000000e+00 +7.2999997914023496e+00 -2.9298595104313690e-02 -5.3665175117155040e-01 +5.3114447251729853e-03
7.3999999999999897e+00 +8.1514469713147300e+00 +0.0000000000000000e+00 +7.3999997827118804e+00 -2.9298789958690855e-02 -5.3665210528695739e-01 +5.3116114255681518e-03
7.4999999999999902e+00 +8.1514047139571595e+00 +0.0000000000000000e+00 +7.4999997737833199e+00 -2.9298985083590488e-02 -5.3665245328983013e-01 +5.3117784941827699e-03
7.5999999999999899e+00 +8.1513618893914099e+00 +0.0000000000000000e+00 +7.5999997646134698e+00 -2.9299179979971918e-02 -5.3665279423233081e-01 +5.3119457530952227e-03
7.6999999999999904e+00 +8.1513184976138309e+00 +0.0000000000000000e+00 +7.6999997551991104e+00 -2.9299374148792027e-02 -5.3665312716675673e-01 +5.3121130243891394e-03
7.7999999999999901e+00 +8.1512745386207808e+00 +0.0000000000000000e+00 +7.7999997455370096e+00 -2.9299567090999786e-02 -5.3665345114543483e-01 +5.3122801301524383e-03
7.8999999999999897e+00 +8.1512300124159101e+00 +0.0000000000000000e+00 +7.8999997356239602e+00 -2.9299758307533383e-02 -5.3665376522066932e-01 +5.3124468924768591e-03
7.9999999999999902e+00 +8.1511849189955701e+00 +0.0000000000000000e+00 +7.9999997254567399e+00 -2.9299947299325672e-02 -5.3665406844485020e-01 +5.3126131334591351e-03
8.0999999999999908e+00 +8.1511392583670403e+00 +0.0000000000000000e+00 +8.0999997150321406e+00 -2.9300133653425906e-02 -5.3665436022818747e-01 +5.3127787128840372e-03
8.1999999999999904e+00 +8.1510930305230396e+00 +0.0000000000000000e+00 +8.1999997043469399e+00 -2.9300317301413571e-02 -5.3665464141251729e-01 +5.3129436412762661e-03
8.2999999999999901e+00 +8.1510462354672200e+00 +0.0000000000000000e+00 +8.2999996933979094e+00 -2.9300498261029314e-02 -5.3665491319750380e-01 +5.3131079668376274e-03
8.3999999999999897e+00 +8.1509988731995708e+00 +0.0000000000000000e+00 +8.3999996821818605e+00 -2.9300676550055620e-02 -5.3665517678287777e-01 +5.3132717377618703e-03
8.4999999999999893e+00 +8.1509509437164507e+00 +0.0000000000000000e+00 +8.4999996706955496e+00 -2.9300852186318182e-02 -5.3665543336843602e-01 +5.3134350022343881e-03
8.5999999999999908e+00 +8.1509024470215099e+00 +0.0000000000000000e+00 +8.5999996589357703e+00 -2.9301025187683107e-02 -5.3665568415396236e-01 +5.3135978084311083e-03
8.6999999999999904e+00 +8.1508533831147396e+00 +0.0000000000000000e+00 +8.6999996468993004e+00 -2.9301195572062455e-02 -5.3665593033930914e-01 +5.3137602045190101e-03
8.7999999999999794e+00 +8.1508037519961398e+00 +0.0000000000000000e+00 +8.7999996345829192e+00 -2.9301363357414196e-02 -5.3665617312437308e-01 +5.3139222386555454e-03
8.8999999999999808e+00 +8.1507535536620708e+00 +0.0000000000000000e+00 +8.8999996219834205e+00 -2.9301528561744998e-02 -5.3665641370912121e-01 +5.3140839589886184e-03
8.9999999999999805e+00 +8.1507027881161793e+00 +0.0000000000000000e+00 +8.9999996090975891e+00 -2.9301691203107414e-02 -5.3665665329351409e-01 +5.3142454136554714e-03
9.0999999999999801e+00 +8.1506514553584601e+00 +0.0000000000000000e+00 +9.0999995959221902e+00 -2.9301851299605441e-02 -5.3665689307758568e-01 +5.3144066507831997e-03
9.1999999999999797e+00 +8.1505995553889097e+00 +0.0000000000000000e+00 +9.1999995824540193e+00 -2.9302008869394484e-02 -5.3665713426141859e-01 +5.3145677184881831e-03
9.2999999999999794e+00 +8.1505470882038900e+00 +0.0000000000000000e+00 +9.2999995686898593e+00 -2.9302163930684071e-02 -5.3665737804517244e-01 +5.3147286648760556e-03
9.3999999999999808e+00 +8.1504940538070496e+00 +0.0000000000000000e+00 +9.3999995546264898e+00 -2.9302316501735159e-02 -5.3665762562900388e-01 +5.3148895380405918e-03
9.4999999999999805e+00 +8.1504404521983798e+00 +0.0000000000000000e+00 +9.4999995402606903e+00 -2.9302466600865596e-02 -5.3665787821314848e-01 +5.3150503860642240e-03
9.5999999999999801e+00 +8.1503862833778804e+00 +0.0000000000000000e+00 +9.5999995255892507e+00 -2.9302614246450136e-02 -5.3665813699789722e-01 +5.3152112570174726e-03
9.6999999999999797e+00 +8.1503315473419207e+00 +0.0000000000000000e+00 +9.6999995106089507e+00 -2.9302759456923098e-02 -5.3665840318362068e-01 +5.3153721989589045e-03
9.7999999999999794e+00 +8.1502762440941297e+00 +0.0000000000000000e+00 +9.7999994953165697e+00 -2.9302902250775784e-02 -5.3665867797069366e-01 +5.3155332599340507e-03
9.8999999999999808e+00 +8.1502203736345091e+00 +0.0000000000000000e+00 +9.8999994797088906e+00 -2.9303042646561809e-02 -5.3665896255957468e-01 +5.3156944879758812e-03
9.9999999999999805e+00 +8.1501639359594300e+00 +0.0000000000000000e+00 +9.9999994637827001e+00 -2.9303180662898529e-02 -5.3665925815080839e-01 +5.3158559311045342e-03
1.0100000000000000e+01 +8.1501069310761505e+00 +0.0000000000000000e+00 +1.0099999447534801e+01 -2.9303316327899558e-02 -5.3665956552929805e-01 +5.3160176442414130e-03
1.0199999999999999e+01 +8.1500493589774106e+00 +0.0000000000000000e+00 +1.0199999430961901e+01 -2.9303449707477312e-02 -5.3665988381758289e-01 +5.3161797099657362e-03
1.0300000000000001e+01 +8.1499912196668394e+00 +0.0000000000000000e+00 +1.0299999414060901e+01 -2.9303580876991690e-02 -5.3666021172247946e-01 +5.3163422177800916e-03
1.0400000000000000e+01 +8.1499325131444493e+00 +0.0000000000000000e+00 +1.0399999396828500e+01 -2.9303709911813993e-02 -5.3666054795081553e-01 +5.3165052571980623e-03
1.0500000000000000e+01 +8.1498732394065900e+00 +0.0000000000000000e+00 +1.0499999379261400e+01 -2.9303836887326944e-02 -5.3666089120942906e-01 +5.3166689177445532e-03
1.0600000000000000e+01 +8.1498133984568994e+00 +0.0000000000000000e+00 +1.0599999361356600e+01 -2.9303961878920586e-02 -5.3666124020508854e-01 +5.3168332889552642e-03
1.0699999999999999e+01 +8.1497529902953794e+00 +0.0000000000000000e+00 +1.0699999343110701e+01 -2.9304084961996362e-02 -5.3666159364457122e-01 +5.3169984603777956e-03
1.0800000000000001e+01 +8.1496920149220404e+00 +0.0000000000000000e+00 +1.0799999324520600e+01 -2.9304206211965719e-02 -5.3666195023463692e-01 +5.3171645215716740e-03
1.0900000000000000e+01 +8.1496304723332305e+00 +0.0000000000000000e+00 +1.0899999305583000e+01 -2.9304325704251503e-02 -5.3666230868205345e-01 +5.3173315621089330e-03
1.1000000000000000e+01 +8.1495683625325892e+00 +0.0000000000000000e+00 +1.0999999286294800e+01 -2.9304443514283778e-02 -5.3666266769351612e-01 +5.3174996715735830e-03
1.1100000000000000e+01 +8.1495056855201309e+00 +0.0000000000000000e+00 +1.1099999266652601e+01 -2.9304559717504057e-02 -5.3666302597572779e-01 +5.3176689395627308e-03
1.1199999999999999e+01 +8.1494424412958306e+00 +0.0000000000000000e+00 +1.1199999246653300e+01 -2.9304674389363732e-02 -5.3666338223537013e-01 +5.3178394556865983e-03
1.1300000000000001e+01 +8.1493786298560700e+00 +0.0000000000000000e+00 +1.1299999226293700e+01 -2.9304787605325594e-02 -5.3666373517913213e-01 +5.3180113095690953e-03
1.1400000000000000e+01 +8.1493142512044905e+00 +0.0000000000000000e+00 +1.1399999205570500e+01 -2.9304899440859591e-02 -5.3666408351362671e-01 +5.3181845908472965e-03
1.1500000000000000e+01 +8.1492493053447106e+00 +0.0000000000000000e+00 +1.1499999184480499e+01 -2.9305009971445670e-02 -5.3666442594544495e-01 +5.3183593891722924e-03
1.1600000000000000e+01 +8.1491837922658306e+00 +0.0000000000000000e+00 +1.1599999163020600e+01 -2.9305119272579134e-02 -5.3666476118126361e-01 +5.3185357942105577e-03
1.1699999999999999e+01 +8.1491177119787608e+00 +0.0000000000000000e+00 +1.1699999141187400e+01 -2.9305227419757024e-02 -5.3666508792757428e-01 +5.3187138956415428e-03
1.1800000000000001e+01 +8.1490510644762306e+00 +0.0000000000000000e+00 +1.1799999118977800e+01 -2.9305334488493089e-02 -5.3666540489097925e-01 +5.3188937831609509e-03
