# multipoles
# s[mm] polynom_b[n=0][T/m^n] polynom_b[n=1][T/m^n] polynom_b[n=2][T/m^n] polynom_b[n=3][T/m^n] polynom_b[n=4][T/m^n] polynom_b[n=5][T/m^n] polynom_b[n=6][T/m^n] 
+0.0000000000000000e+00 -5.3664574218085404e-01 +7.3478938888092777e+00 -7.9827658843194271e-01 -1.2755808480378120e+01 +6.2161263420658779e+03 -2.1074581701462701e+05 -3.9983893084838010e+07 
+1.0000000000000001e-01 -5.3664570078880591e-01 +7.3478522357885563e+00 -7.9455180052014074e-01 -1.1848571844943741e+01 +6.1595272852279795e+03 -2.1553543069914539e+05 -3.9770665215558685e+07 
+2.0000000000000001e-01 -5.3664565337920256e-01 +7.3478089510003377e+00 -7.9126351084617252e-01 -1.0921011070049932e+01 +6.1059140596453972e+03 -2.2039353829254181e+05 -3.9557575937327527e+07 
+2.9999999999999999e-01 -5.3664560067768408e-01 +7.3477644567127944e+00 -7.8837381838473608e-01 -9.9803524390264666e+00 +6.0548465045628163e+03 -2.2528808172684105e+05 -3.9343467167216495e+07 
+4.0000000000000002e-01 -5.3664554340997161e-01 +7.3477191751955706e+00 -7.8584482304881786e-01 -9.0338222511461375e+00 +6.0058844718903920e+03 -2.3018700296072362e+05 -3.9127180869410232e+07 
+5.0000000000000000e-01 -5.3664548230170439e-01 +7.3476735287245827e+00 -7.8363862530990402e-01 -8.0886469586616148e+00 +5.9585878269881423e+03 -2.3505824319125249e+05 -3.8907559080617122e+07 
+5.9999999999999998e-01 -5.3664541807861310e-01 +7.3476279395725150e+00 -7.8171732095601665e-01 -7.1520529029495821e+00 +5.9125163464236111e+03 -2.3986974433450509e+05 -3.8683443415725298e+07 
+6.9999999999999996e-01 -5.3664535146632586e-01 +7.3475828300212287e+00 -7.8004301182703073e-01 -6.2312666558141032e+00 +5.8672299221881613e+03 -2.4458944708919627e+05 -3.8453676040821120e+07 
+8.0000000000000004e-01 -5.3664528319055471e-01 +7.3475386223504753e+00 -7.7857779280334427e-01 -5.3335147174177990e+00 +5.8222883153798357e+03 -2.4918529261639304e+05 -3.8217098502403818e+07 
+9.0000000000000002e-01 -5.3664521397699749e-01 +7.3474957388400277e+00 -7.7728376170048408e-01 -4.4660235608210357e+00 +5.7772513505321149e+03 -2.5362522231157098e+05 -3.7972552668149330e+07 
+1.0000000000000000e+00 -5.3664514455138579e-01 +7.3474546017728057e+00 -7.7612301208535606e-01 -3.6360197357917814e+00 +5.7316787726504745e+03 -2.5787717716556406e+05 -3.7718880031201907e+07 
+1.1000000000000001e+00 -5.3664507563950148e-01 +7.3474156334289882e+00 -7.7505763910405368e-01 -2.8507296979027417e+00 +5.6851303630138664e+03 -2.6190909873560184e+05 -3.7454922271095239e+07 
+1.2000000000000000e+00 -5.3664500796703707e-01 +7.3473792560909343e+00 -7.7404973312918413e-01 -2.1173799395322295e+00 +5.6371658197586748e+03 -2.6568892842862936e+05 -3.7179520692100376e+07 
+1.3000000000000000e+00 -5.3664494225979253e-01 +7.3473458920374766e+00 -7.7306138552028636e-01 -1.4431968477607851e+00 +5.5873448653080904e+03 -2.6918460823187226e+05 -3.6891516726121351e+07 
+1.3999999999999999e+00 -5.3664487924361104e-01 +7.3473159635493550e+00 -7.7205468382942599e-01 -8.3540684656741937e-01 +5.5352271615466188e+03 -2.7236407993191725e+05 -3.6589751546556965e+07 
+1.5000000000000000e+00 -5.3664481964431532e-01 +7.3472898928995836e+00 -7.7099171263690636e-01 -3.0123612372322234e-01 +5.4803723216231783e+03 -2.7519528667373484e+05 -3.6273066113661654e+07 
+1.6000000000000001e+00 -5.3664476418776175e-01 +7.3472681023656676e+00 -7.6983455711726478e-01 +1.5208900728818628e-01 +5.4223399798616792e+03 -2.7764617082713469e+05 -3.5940301511660576e+07 
+1.7000000000000000e+00 -5.3664471359986476e-01 +7.3472510142166056e+00 -7.6854529718775622e-01 +5.1734249497525497e-01 +5.3606896837480972e+03 -2.7968467626090941e+05 -3.5590298442702845e+07 
+1.8000000000000000e+00 -5.3664466860659676e-01 +7.3472390507201739e+00 -7.6708601057775849e-01 +7.8729832370481112e-01 +5.2949809524861112e+03 -2.8127874697355588e+05 -3.5221897508578867e+07 
+1.8999999999999999e+00 -5.3664462993390771e-01 +7.3472326341381571e+00 -7.6541877329950536e-01 +9.5473065964510107e-01 +5.2247732848189762e+03 -2.8239632796261634e+05 -3.4833939239831060e+07 
+2.0000000000000000e+00 -5.3664459830784861e-01 +7.3472321867311985e+00 -7.6350565733143716e-01 +1.0124137067227719e+00 +5.1496261176687176e+03 -2.8300536436369078e+05 -3.4425263910024986e+07 
+2.1000000000000001e+00 -5.3664457435130142e-01 +7.3472380067760241e+00 -7.6131589828412449e-01 +9.5505270267979792e-01 +5.0692192457749934e+03 -2.8308184842002555e+05 -3.3995151419790871e+07 
+2.2000000000000002e+00 -5.3664455827199442e-01 +7.3472498967832172e+00 -7.5884609666792002e-01 +7.8507716974278530e-01 +4.9836955735984029e+03 -2.8263416106485005e+05 -3.3544569476732325e+07 
+2.2999999999999998e+00 -5.3664455017312318e-01 +7.3472675353437129e+00 -7.5609936359187868e-01 +5.0684765283795885e-01 +4.8933090638741642e+03 -2.8167882942457800e+05 -3.3074889289622925e+07 
+2.3999999999999999e+00 -5.3664455015798151e-01 +7.3472906010378285e+00 -7.5307880357072010e-01 +1.2472498511864705e-01 +4.7983135502986370e+03 -2.8023238223086338e+05 -3.2587481447983857e+07 
+2.5000000000000000e+00 -5.3664455832975155e-01 +7.3473187724507474e+00 -7.4978752905945689e-01 -3.5693017001768890e-01 +4.6989630223418244e+03 -2.7831134715541080e+05 -3.2083717298729770e+07 
+2.6000000000000001e+00 -5.3664457479167293e-01 +7.3473517281597553e+00 -7.4622864409198120e-01 -9.3375695069584586e-01 +4.5955113059419973e+03 -2.7593225292621832e+05 -3.1564967408953749e+07 
+2.7000000000000002e+00 -5.3664459964705058e-01 +7.3473891467447068e+00 -7.4240525758419917e-01 -1.6013946041560740e+00 +4.4882123196178700e+03 -2.7311162754918280e+05 -3.1032602791216791e+07 
+2.7999999999999998e+00 -5.3664463299906284e-01 +7.3474307067793809e+00 -7.3832047360130681e-01 -2.3554822422205324e+00 +4.3773198883122659e+03 -2.6986599970483064e+05 -3.0487994015567072e+07 
+2.8999999999999999e+00 -5.3664467495099843e-01 +7.3474760868361422e+00 -7.3397739780264670e-01 -3.1916589733601737e+00 +4.2630878625845035e+03 -2.6621189799656480e+05 -2.9932511770343903e+07 
+3.0000000000000000e+00 -5.3664472560605414e-01 +7.3475249654879500e+00 -7.2937913677947319e-01 -4.1055639736123108e+00 +4.1457701088709036e+03 -2.6216585050965601e+05 -2.9367526820418455e+07 
+3.1000000000000001e+00 -5.3664478506746338e-01 +7.3475770212992506e+00 -7.2452879437988205e-01 -5.0928362188145302e+00 +4.0256204365169924e+03 -2.5774438637228380e+05 -2.8794409656617444e+07 
+3.2000000000000002e+00 -5.3664485343848123e-01 +7.3476319328379942e+00 -7.1942947386432410e-01 -6.1491148367913002e+00 +3.9028926386720350e+03 -2.5296403370914227e+05 -2.8214530688362595e+07 
+3.2999999999999998e+00 -5.3664493082222975e-01 +7.3476893786649518e+00 -7.1408428333513219e-01 -7.2700388062639982e+00 +3.7778405932957203e+03 -2.4784132136924227e+05 -2.7629260718904767e+07 
+3.3999999999999999e+00 -5.3664501732200143e-01 +7.3477490373419823e+00 -7.0849632523232642e-01 -8.4512472030745762e+00 +3.6507180668249130e+03 -2.4239277747389887e+05 -2.7039970021376688e+07 
+3.5000000000000000e+00 -5.3664511304089435e-01 +7.3478105874242550e+00 -7.0266870412003235e-01 -9.6883789654826913e+00 +3.5217788567807715e+03 -2.3663493082053872e+05 -2.6448029003359634e+07 
+3.6000000000000001e+00 -5.3664521808210397e-01 +7.3478737074648173e+00 -6.9660452711285137e-01 -1.0977073036325802e+01 +3.3912768004565983e+03 -2.3058431001671994e+05 -2.5854808250479605e+07 
+3.7000000000000002e+00 -5.3664533254876179e-01 +7.3479380760177051e+00 -6.9030689741182116e-01 -1.2312968466450739e+01 +3.2594656534057426e+03 -2.2425744286509498e+05 -2.5261677953365590e+07 
+3.7999999999999998e+00 -5.3664545654396945e-01 +7.3480033716304698e+00 -6.8377892308253663e-01 -1.3691704189340063e+01 +3.1265992532716191e+03 -2.1767085768464173e+05 -2.4670008677467830e+07 
+3.8999999999999999e+00 -5.3664559017084135e-01 +7.3480692728488082e+00 -6.7702370829908298e-01 -1.5108919158209181e+01 +2.9929313530674431e+03 -2.1084108251513864e+05 -2.4081170571596920e+07 
+4.0000000000000000e+00 -5.3664573353244416e-01 +7.3481354582125853e+00 -6.7004436391266120e-01 -1.6560252248968713e+01 +2.8587158219202615e+03 -2.0378464563354067e+05 -2.3496534323130112e+07 
+4.0999999999999996e+00 -5.3664588669251634e-01 +7.3482016231766982e+00 -6.6284868756825854e-01 -1.8041002854160489e+01 +2.7242313889121970e+03 -1.9652139106377246e+05 -2.2917444049334135e+07 
+4.2000000000000002e+00 -5.3664604955292383e-01 +7.3482675295445219e+00 -6.5546437063800256e-01 -1.9544967291386637e+01 +2.5898604751679668e+03 -1.8908531434696782e+05 -2.2345113476196699e+07 
+4.2999999999999998e+00 -5.3664622197370615e-01 +7.3483329553717693e+00 -6.4792436782308749e-01 -2.1065527609185487e+01 +2.4560123334355230e+03 -1.8151418567981222e+05 -2.1780716614146382e+07 
+4.4000000000000004e+00 -5.3664640381500428e-01 +7.3483976787153678e+00 -6.4026163428513716e-01 -2.2596065907692900e+01 +2.3230962194320591e+03 -1.7384577503005465e+05 -2.1225427462604783e+07 
+4.5000000000000000e+00 -5.3664659493683764e-01 +7.3484614776427888e+00 -6.3250912970851081e-01 -2.4129964608898284e+01 +2.1915214670506480e+03 -1.6611785059001719e+05 -2.0680420364443354e+07 
+4.5999999999999996e+00 -5.3664679519921055e-01 +7.3485241302274451e+00 -6.2469981812478947e-01 -2.5660606326114898e+01 +2.0616974841467040e+03 -1.5836817953067197e+05 -2.0146869981869105e+07 
+4.7000000000000002e+00 -5.3664700446210789e-01 +7.3485854145472507e+00 -6.1686666923291722e-01 -2.7181373814359020e+01 +1.9340337811430234e+03 -1.5063452831339499e+05 -1.9625951440396644e+07 
+4.7999999999999998e+00 -5.3664722258544817e-01 +7.3486451086907119e+00 -6.0904265346090247e-01 -2.8685650155412716e+01 +1.8089398729731879e+03 -1.4295466161127191e+05 -1.9118839852192439e+07 
+4.9000000000000004e+00 -5.3664744942909937e-01 +7.3487029907498655e+00 -6.0126075041924987e-01 -3.0166818550171076e+01 +1.6868254413008019e+03 -1.3536634351853980e+05 -1.8626711089181270e+07 
+5.0000000000000000e+00 -5.3664768485291658e-01 +7.3487588388320209e+00 -5.9355394054023158e-01 -3.1618262647497886e+01 +1.5681001727362625e+03 -1.2790733568605030e+05 -1.8150741006053917e+07 
+5.0999999999999996e+00 -5.3664792871670508e-01 +7.3488124310471967e+00 -5.8595521387683280e-01 -3.3033366198114031e+01 +1.4531739323746949e+03 -1.2061539928576925e+05 -1.7692106281337380e+07 
+5.2000000000000002e+00 -5.3664818088019717e-01 +7.3488635455178342e+00 -5.7849756143555942e-01 -3.4405513315849184e+01 +1.3424565884648844e+03 -1.1352829356290022e+05 -1.7251983554846585e+07 
+5.2999999999999998e+00 -5.3664844120308319e-01 +7.3489119603750188e+00 -5.7121398279074820e-01 -3.5728088384889539e+01 +1.2363581662314441e+03 -1.0668377632678123e+05 -1.6831550183092520e+07 
+5.4000000000000004e+00 -5.3664870954504074e-01 +7.3489574537613871e+00 -5.6413748172484957e-01 -3.6994476127799800e+01 +1.1352887598660816e+03 -1.0011960361167058e+05 -1.6431983805593168e+07 
+5.5000000000000000e+00 -5.3664898576559150e-01 +7.3489998038288364e+00 -5.5730107070256596e-01 -3.8198061554700551e+01 +1.0396586169316438e+03 -9.3873529939647851e+04 -1.6054462743748605e+07 
+5.5999999999999996e+00 -5.3664926972436322e-01 +7.3490387887408106e+00 -5.5073776550967102e-01 -3.9332230011710017e+01 +9.4987804115100414e+02 -8.7983308091231811e+04 -1.5700165551098168e+07 
+5.7000000000000002e+00 -5.3664956128073971e-01 +7.3490741866738247e+00 -5.4448059118037262e-01 -4.0390367239918994e+01 +8.6635749643061524e+02 -8.2486688730498019e+04 -1.5370271482919820e+07 
+5.7999999999999998e+00 -5.3664986029419171e-01 +7.3491057758129594e+00 -5.3856257820894360e-01 -4.1365859228181250e+01 +7.8950754160046756e+02 -7.7421421311769707e+04 -1.5065960205248125e+07 
+5.9000000000000004e+00 -5.3665016662403109e-01 +7.3491333343596104e+00 -5.3301676292789246e-01 -4.2252092455172104e+01 +7.1973883403567413e+02 -7.2825252638582766e+04 -1.4788411799359726e+07 
+5.9999999999999902e+00 -5.3665048012960903e-01 +7.3491566405246056e+00 -5.2787619299652722e-01 -4.3042453668405450e+01 +6.5746223583795108e+02 -6.8735928191109691e+04 -1.4538807272081964e+07 
+6.0999999999999899e+00 -5.3665080056275272e-01 +7.3491755350764887e+00 -5.2316813331100620e-01 -4.3731946481674072e+01 +6.0300383792377261e+02 -6.5181675683876798e+04 -1.4318107779659487e+07 
+6.1999999999999904e+00 -5.3665112726301667e-01 +7.3491901024881470e+00 -5.1889682151834526e-01 -4.4322143895345903e+01 +5.5636831109957848e+02 -6.2151249019594972e+04 -1.4126549260002092e+07 
+6.2999999999999901e+00 -5.3665145947126869e-01 +7.3492004866958771e+00 -5.1506072738293340e-01 -4.4816293572824250e+01 +5.1748422217721497e+02 -5.9623129119763515e+04 -1.3964226368090160e+07 
+6.3999999999999897e+00 -5.3665179642836391e-01 +7.3492068316344863e+00 -5.1165831925284799e-01 -4.5217643102565319e+01 +4.8628010692986004e+02 -5.7575797201845860e+04 -1.3831233614360692e+07 
+6.4999999999999902e+00 -5.3665213737510553e-01 +7.3492092812375969e+00 -5.0868806470303529e-01 -4.5529439986411354e+01 +4.6268447489009890e+02 -5.5987734917878966e+04 -1.3727665365970444e+07 
+6.5999999999999899e+00 -5.3665248155245460e-01 +7.3492079794381668e+00 -5.0614842513987957e-01 -4.5754931654560544e+01 +4.4662571343448019e+02 -5.4837424254082689e+04 -1.3653615408196749e+07 
+6.6999999999999904e+00 -5.3665282820129101e-01 +7.3492030701660687e+00 -5.0403786180557886e-01 -4.5897365388363511e+01 +4.3803219519686309e+02 -5.4103347990421185e+04 -1.3609177436560994e+07 
+6.7999999999999901e+00 -5.3665317656252753e-01 +7.3491946973517228e+00 -5.0235483517420687e-01 -4.5959988433044828e+01 +4.3683227055201746e+02 -5.3763989013291961e+04 -1.3594445034653587e+07 
+6.8999999999999897e+00 -5.3665352587712667e-01 +7.3491830049211888e+00 -5.0109779973949919e-01 -4.5946047837437860e+01 +4.4295417042058074e+02 -5.3797831284503787e+04 -1.3609511216237577e+07 
+6.9999999999999902e+00 -5.3665387538608988e-01 +7.3491681368024047e+00 -5.0026520797035712e-01 -4.5858790646740466e+01 +4.5632607467485445e+02 -5.4183358678814278e+04 -1.3654468733323146e+07 
+7.0999999999999899e+00 -5.3665422433036858e-01 +7.3491502369174979e+00 -4.9985551221934249e-01 -4.5701463665567225e+01 +4.7687615334602810e+02 -5.4899056393416460e+04 -1.3729410284665382e+07 
+7.1999999999999904e+00 -5.3665457195099009e-01 +7.3491294491890793e+00 -4.9986715837009849e-01 -4.5477313647553146e+01 +5.0453244344305460e+02 -5.5923409801428359e+04 -1.3834427925597474e+07 
+7.2999999999999901e+00 -5.3665491748904004e-01 +7.3491059175364875e+00 -5.0029858887544343e-01 -4.5189587173882664e+01 +5.3922291014194252e+02 -5.7234905195484273e+04 -1.3969613368387243e+07 
+7.3999999999999897e+00 -5.3665526018551934e-01 +7.3490797858755439e+00 -5.0114824638853561e-01 -4.4841530655000263e+01 +5.8087551096461868e+02 -5.8812029735507414e+04 -1.4135058274363497e+07 
+7.4999999999999902e+00 -5.3665559928163398e-01 +7.3490511981222850e+00 -5.0241456463954337e-01 -4.4436390423784040e+01 +6.2941802341700486e+02 -6.0633270939894843e+04 -1.4330853438009273e+07 
+7.5999999999999899e+00 -5.3665593401843059e-01 +7.3490202981869164e+00 -5.0409597738052658e-01 -4.3977412563612944e+01 +6.8477821671047195e+02 -6.2677117664924233e+04 -1.4557089609037774e+07 
+7.6999999999999904e+00 -5.3665626363710028e-01 +7.3489872299765144e+00 -5.0619091417538398e-01 -4.3467842989648290e+01 +7.4688377360445099e+02 -6.4922059605611379e+04 -1.4813857126170531e+07 
+7.7999999999999901e+00 -5.3665658737887034e-01 +7.3489521373988680e+00 -5.0869779941590521e-01 -4.2910927544639385e+01 +8.1566226369146182e+02 -6.7346586789989320e+04 -1.5101245768479785e+07 
+7.8999999999999897e+00 -5.3665690448496217e-01 +7.3489151643542083e+00 -5.1161505207033209e-01 -4.2309911764748435e+01 +8.9104114579445411e+02 -6.9929190884898431e+04 -1.5419344786983967e+07 
+7.9999999999999902e+00 -5.3665721419665635e-01 +7.3488764547411130e+00 -5.1494109039016400e-01 -4.1668041054518902e+01 +9.7294785371804232e+02 -7.2648364326869996e+04 -1.5768243315762697e+07 
+8.0999999999999908e+00 -5.3665751602872969e-01 +7.3488361663301482e+00 -5.1866849502627310e-01 -4.0988649318965678e+01 +1.0611912292960703e+03 -7.5484588036501082e+04 -1.6147390814442014e+07 
+8.1999999999999904e+00 -5.3665781057629069e-01 +7.3487945181065033e+00 -5.2276928384031096e-01 -4.0275171826002087e+01 +1.1551491790943458e+03 -7.8428340758562568e+04 -1.6553755582412258e+07 
+8.2999999999999901e+00 -5.3665809870086711e-01 +7.3487517458169416e+00 -5.2721106060802647e-01 -3.9531000360498773e+01 +1.2541020951527221e+03 -8.1473198004292994e+04 -1.6983698877733160e+07 
+8.3999999999999897e+00 -5.3665838126409260e-01 +7.3487080851943247e+00 -5.3196142306083105e-01 -3.8759526167104802e+01 +1.3573302829791733e+03 -8.4612738995884618e+04 -1.7433581578879103e+07 
+8.4999999999999893e+00 -5.3665865912763555e-01 +7.3486637719726655e+00 -5.3698797148473665e-01 -3.7964140407887605e+01 +1.4641141288285594e+03 -8.7840543886843894e+04 -1.7899764998945218e+07 
+8.5999999999999908e+00 -5.3665893315313551e-01 +7.3486190418873205e+00 -5.4225830727152857e-01 -3.7148234175684287e+01 +1.5737340758680339e+03 -9.1150193663479251e+04 -1.8378610783252534e+07 
+8.6999999999999904e+00 -5.3665920420234259e-01 +7.3485741306628860e+00 -5.4774002568510261e-01 -3.6315198131134444e+01 +1.6854704880853321e+03 -9.4535272300159966e+04 -1.8866480261464030e+07 
+8.7999999999999794e+00 -5.3665947313698159e-01 +7.3485292740230443e+00 -5.5340072943935215e-01 -3.5468422787923764e+01 +1.7986039089873464e+03 -9.7989365099085655e+04 -1.9359735681954436e+07 
+8.8999999999999808e+00 -5.3665974081889467e-01 +7.3484847076888009e+00 -5.5920801433549050e-01 -3.4611298462311318e+01 +1.9124147898066401e+03 -1.0150605898867185e+05 -1.9854738919040166e+07 
+8.9999999999999805e+00 -5.3666000810988923e-01 +7.3484406673763418e+00 -5.6512947826226922e-01 -3.3747215206575760e+01 +2.0261836599763878e+03 -1.0507894293489530e+05 -2.0347852282209896e+07 
+9.0999999999999801e+00 -5.3666027587182130e-01 +7.3483973888006355e+00 -5.7113272155246186e-01 -3.2879562910792750e+01 +2.1391911397040508e+03 -1.0870160735483568e+05 -2.0835438589318231e+07 
+9.1999999999999797e+00 -5.3666054496662574e-01 +7.3483551076684277e+00 -5.7718533862677124e-01 -3.2011731087368297e+01 +2.2507177739776785e+03 -1.1236764540797092e+05 -2.1313860357944988e+07 
+9.2999999999999794e+00 -5.3666081625627993e-01 +7.3483140596817815e+00 -5.8325492776781995e-01 -3.1147108992668091e+01 +2.3600442310900053e+03 -1.1607065224420979e+05 -2.1779480782137036e+07 
+9.3999999999999808e+00 -5.3666109060276812e-01 +7.3482744805450979e+00 -5.8930908419535577e-01 -3.0289085800359867e+01 +2.4664511607938784e+03 -1.1980422408743747e+05 -2.2228663028738625e+07 
+9.4999999999999805e+00 -5.3666136886812799e-01 +7.3482366059521826e+00 -5.9531540527735038e-01 -2.9441050253153907e+01 +2.5692193031116462e+03 -1.2356196018815658e+05 -2.2657770781516299e+07 
+9.5999999999999801e+00 -5.3666165191448312e-01 +7.3482006715946149e+00 -6.0124148282849832e-01 -2.8606390872232073e+01 +2.6676293370808494e+03 -1.2733746169913853e+05 -2.3063167505353749e+07 
+9.6999999999999797e+00 -5.3666194060396544e-01 +7.3481669131580425e+00 -6.0705491623150698e-01 -2.7788495873242834e+01 +2.7609621342283258e+03 -1.3112433211005278e+05 -2.3441217664257858e+07 
+9.7999999999999794e+00 -5.3666223579875727e-01 +7.3481355663266994e+00 -6.1272329791647928e-01 -2.6990753275484877e+01 +2.8484984855234261e+03 -1.3491617667909153e+05 -2.3788285427087422e+07 
+9.8999999999999808e+00 -5.3666253836110800e-01 +7.3481068667735290e+00 -6.1821422036736517e-01 -2.6216550625144098e+01 +2.9295192299573077e+03 -1.3870660401365545e+05 -2.4100735267274011e+07 
+9.9999999999999805e+00 -5.3666284915332230e-01 +7.3480810501736702e+00 -6.2349527871735178e-01 -2.5469275395644676e+01 +3.0033053103154571e+03 -1.4248922337039048e+05 -2.4374932210685942e+07 
+1.0100000000000000e+01 -5.3666316874397957e-01 +7.3480582884036654e+00 -6.2854945967815357e-01 -2.4751597266374002e+01 +3.0694581546406821e+03 -1.4625774259883587e+05 -2.4608766398560934e+07 
