# field on trajectory
# s[mm] rx[mm] ry[mm] rz[mm] bx[T] by[T] bz[T]
0.0000000000000000e+00 +8.1649999999999991e+00 +0.0000000000000000e+00 +0.0000000000000000e+00 -2.9940829258143439e-02 -5.6427292928993567e-01 +5.6215178054328805e-03
-1.0000000000000001e-01 +8.1649997171282021e+00 +0.0000000000000000e+00 -9.9999999999466557e-02 -2.9940758994803453e-02 -5.6427277548232657e-01 +5.6215717728242661e-03
-2.0000000000000001e-01 +8.1649988685129156e+00 +0.0000000000000000e+00 -1.9999999999573248e-01 -2.9940687653984322e-02 -5.6427262246650167e-01 +5.6216240749620726e-03
-3.0000000000000004e-01 +8.1649974541542907e+00 +0.0000000000000000e+00 -2.9999999998559707e-01 -2.9940615537198251e-02 -5.6427247099574307e-01 +5.6216750191353413e-03
-4.0000000000000002e-01 +8.1649954740524819e+00 +0.0000000000000000e+00 -3.9999999996585966e-01 -2.9940542945951013e-02 -5.6427232182334408e-01 +5.6217249126323714e-03
-5.0000000000000000e-01 +8.1649929282076368e+00 +0.0000000000000000e+00 -4.9999999993331967e-01 -2.9940470181741723e-02 -5.6427217570260524e-01 +5.6217740627406629e-03
-5.9999999999999998e-01 +8.1649898166199026e+00 +0.0000000000000000e+00 -5.9999999988477637e-01 -2.9940397546062592e-02 -5.6427203338683396e-01 +5.6218227767468659e-03
-6.9999999999999996e-01 +8.1649861392894216e+00 +0.0000000000000000e+00 -6.9999999981702921e-01 -2.9940325340398706e-02 -5.6427189562934454e-01 +5.6218713619367432e-03
-7.9999999999999993e-01 +8.1649818962163323e+00 +0.0000000000000000e+00 -7.9999999972687752e-01 -2.9940253866227819e-02 -5.6427176318345629e-01 +5.6219201255951010e-03
-8.9999999999999991e-01 +8.1649770874007679e+00 +0.0000000000000000e+00 -8.9999999961112065e-01 -2.9940183425020136e-02 -5.6427163680249237e-01 +5.6219693750057427e-03
-9.9999999999999989e-01 +8.1649717128428545e+00 +0.0000000000000000e+00 -9.9999999946655793e-01 -2.9940114318238020e-02 -5.6427151723977864e-01 +5.6220194174514300e-03
-1.0999999999999999e+00 +8.1649657725427129e+00 +0.0000000000000000e+00 -1.0999999992899887e+00 -2.9940046847335866e-02 -5.6427140524864394e-01 +5.6220705602138170e-03
-1.2000000000000000e+00 +8.1649592665004551e+00 +0.0000000000000000e+00 -1.1999999990782124e+00 -2.9939981313759804e-02 -5.6427130158241778e-01 +5.6221231105734008e-03
-1.3000000000000000e+00 +8.1649521947161858e+00 +0.0000000000000000e+00 -1.2999999988280284e+00 -2.9939918018947499e-02 -5.6427120699442912e-01 +5.6221773758094807e-03
-1.4000000000000001e+00 +8.1649445571899992e+00 +0.0000000000000000e+00 -1.3999999985362361e+00 -2.9939857264327917e-02 -5.6427112223800668e-01 +5.6222336632000972e-03
-1.5000000000000002e+00 +8.1649363539219806e+00 +0.0000000000000000e+00 -1.4999999981996348e+00 -2.9939799351321100e-02 -5.6427104806647577e-01 +5.6222922800219831e-03
-1.6000000000000003e+00 +8.1649275849122045e+00 +0.0000000000000000e+00 -1.5999999978150239e+00 -2.9939744581337968e-02 -5.6427098523316033e-01 +5.6223535335505120e-03
-1.7000000000000004e+00 +8.1649182501607349e+00 +0.0000000000000000e+00 -1.6999999973792026e+00 -2.9939693255780046e-02 -5.6427093449137933e-01 +5.6224177310596505e-03
-1.8000000000000005e+00 +8.1649083496676216e+00 +0.0000000000000000e+00 -1.7999999968889704e+00 -2.9939645676039281e-02 -5.6427089659444585e-01 +5.6224851798219073e-03
-1.9000000000000006e+00 +8.1648978834329036e+00 +0.0000000000000000e+00 -1.8999999963411267e+00 -2.9939602143497755e-02 -5.6427087229566808e-01 +5.6225561871082706e-03
-2.0000000000000004e+00 +8.1648868514566058e+00 +0.0000000000000000e+00 -1.9999999957324708e+00 -2.9939562959527551e-02 -5.6427086234834611e-01 +5.6226310601881768e-03
-2.1000000000000005e+00 +8.1648752537387370e+00 +0.0000000000000000e+00 -2.0999999950598021e+00 -2.9939528229665932e-02 -5.6427086723069397e-01 +5.6227100238860836e-03
-2.2000000000000006e+00 +8.1648630902792938e+00 +0.0000000000000000e+00 -2.1999999943199198e+00 -2.9939497276146400e-02 -5.6427088632060607e-01 +5.6227929732523109e-03
-2.3000000000000007e+00 +8.1648503610782583e+00 +0.0000000000000000e+00 -2.2999999935096236e+00 -2.9939469225381394e-02 -5.6427091872090085e-01 +5.6228797208948906e-03
-2.4000000000000008e+00 +8.1648370661355987e+00 +0.0000000000000000e+00 -2.3999999926257125e+00 -2.9939443203789474e-02 -5.6427096353439943e-01 +5.6229700794234458e-03
-2.5000000000000009e+00 +8.1648232054512686e+00 +0.0000000000000000e+00 -2.4999999916649864e+00 -2.9939418337796796e-02 -5.6427101986392569e-01 +5.6230638614494779e-03
-2.6000000000000010e+00 +8.1648087790252131e+00 +0.0000000000000000e+00 -2.5999999906242444e+00 -2.9939393753838625e-02 -5.6427108681230753e-01 +5.6231608795866625e-03
-2.7000000000000011e+00 +8.1647937868573663e+00 +0.0000000000000000e+00 -2.6999999895002857e+00 -2.9939368578360760e-02 -5.6427116348237705e-01 +5.6232609464511160e-03
-2.8000000000000012e+00 +8.1647782289476503e+00 +0.0000000000000000e+00 -2.7999999882899096e+00 -2.9939341937821072e-02 -5.6427124897697012e-01 +5.6233638746616861e-03
-2.9000000000000012e+00 +8.1647621052959813e+00 +0.0000000000000000e+00 -2.8999999869899153e+00 -2.9939312958690952e-02 -5.6427134239892773e-01 +5.6234694768402494e-03
-3.0000000000000013e+00 +8.1647454159022654e+00 +0.0000000000000000e+00 -2.9999999855971025e+00 -2.9939280767456819e-02 -5.6427144285109565e-01 +5.6235775656119759e-03
-3.1000000000000014e+00 +8.1647281607664031e+00 +0.0000000000000000e+00 -3.0999999841082704e+00 -2.9939244490621578e-02 -5.6427154943632529e-01 +5.6236879536056316e-03
-3.2000000000000015e+00 +8.1647103398882876e+00 +0.0000000000000000e+00 -3.1999999825202186e+00 -2.9939203254706125e-02 -5.6427166125747441e-01 +5.6238004534538569e-03
-3.3000000000000016e+00 +8.1646919532678073e+00 +0.0000000000000000e+00 -3.2999999808297460e+00 -2.9939156186250822e-02 -5.6427177741740631e-01 +5.6239148777934489e-03
-3.4000000000000017e+00 +8.1646730009048483e+00 +0.0000000000000000e+00 -3.3999999790336521e+00 -2.9939102411816972e-02 -5.6427189701899150e-01 +5.6240310392656504e-03
-3.5000000000000018e+00 +8.1646534827992898e+00 +0.0000000000000000e+00 -3.4999999771287365e+00 -2.9939041057988336e-02 -5.6427201916510705e-01 +5.6241487505164309e-03
-3.6000000000000019e+00 +8.1646333989510094e+00 +0.0000000000000000e+00 -3.5999999751117984e+00 -2.9938971251372595e-02 -5.6427214295863759e-01 +5.6242678241967799e-03
-3.7000000000000020e+00 +8.1646127493598843e+00 +0.0000000000000000e+00 -3.6999999729796369e+00 -2.9938892118602803e-02 -5.6427226750247572e-01 +5.6243880729629804e-03
-3.8000000000000020e+00 +8.1645915340257904e+00 +0.0000000000000000e+00 -3.7999999707290515e+00 -2.9938802786338960e-02 -5.6427239189952183e-01 +5.6245093094769031e-03
-3.9000000000000021e+00 +8.1645697529486050e+00 +0.0000000000000000e+00 -3.8999999683568416e+00 -2.9938702381269427e-02 -5.6427251525268496e-01 +5.6246313464062905e-03
-4.0000000000000018e+00 +8.1645474061282037e+00 +0.0000000000000000e+00 -3.9999999658598062e+00 -2.9938590030112431e-02 -5.6427263666488336e-01 +5.6247539964250368e-03
-4.1000000000000014e+00 +8.1645244935644659e+00 +0.0000000000000000e+00 -4.0999999632347448e+00 -2.9938465265965376e-02 -5.6427275543868538e-01 +5.6248770912698228e-03
-4.2000000000000011e+00 +8.1645010152572723e+00 +0.0000000000000000e+00 -4.1999999604784568e+00 -2.9938329247337320e-02 -5.6427287167522822e-01 +5.6250005389069484e-03
-4.3000000000000007e+00 +8.1644769712065077e+00 +0.0000000000000000e+00 -4.2999999575877412e+00 -2.9938183539080052e-02 -5.6427298567527873e-01 +5.6251242663589145e-03
-4.4000000000000004e+00 +8.1644523614120601e+00 +0.0000000000000000e+00 -4.3999999545593980e+00 -2.9938029706035003e-02 -5.6427309773959189e-01 +5.6252482006472525e-03
-4.5000000000000000e+00 +8.1644271858738158e+00 +0.0000000000000000e+00 -4.4999999513902260e+00 -2.9937869313032106e-02 -5.6427320816890680e-01 +5.6253722687923530e-03
-4.5999999999999996e+00 +8.1644014445916664e+00 +0.0000000000000000e+00 -4.5999999480770244e+00 -2.9937703924888728e-02 -5.6427331726394880e-01 +5.6254963978132821e-03
-4.6999999999999993e+00 +8.1643751375655018e+00 +0.0000000000000000e+00 -4.6999999446165930e+00 -2.9937535106408644e-02 -5.6427342532542590e-01 +5.6256205147276256e-03
-4.7999999999999989e+00 +8.1643482647952155e+00 +0.0000000000000000e+00 -4.7999999410057308e+00 -2.9937364422380843e-02 -5.6427353265402969e-01 +5.6257445465513027e-03
-4.8999999999999986e+00 +8.1643208262807008e+00 +0.0000000000000000e+00 -4.8999999372412368e+00 -2.9937193437578523e-02 -5.6427363955043308e-01 +5.6258684202983864e-03
-4.9999999999999982e+00 +8.1642928220218511e+00 +0.0000000000000000e+00 -4.9999999333199110e+00 -2.9937023716757983e-02 -5.6427374631529048e-01 +5.6259920629809458e-03
-5.0999999999999979e+00 +8.1642642520185600e+00 +0.0000000000000000e+00 -5.0999999292385523e+00 -2.9936856824657496e-02 -5.6427385324923585e-01 +5.6261154016088591e-03
-5.1999999999999975e+00 +8.1642351162707225e+00 +0.0000000000000000e+00 -5.1999999249939597e+00 -2.9936694325996299e-02 -5.6427396065288293e-01 +5.6262383631896506e-03
-5.2999999999999972e+00 +8.1642054147782304e+00 +0.0000000000000000e+00 -5.2999999205829331e+00 -2.9936537785473425e-02 -5.6427406882682296e-01 +5.6263608747283041e-03
-5.3999999999999968e+00 +8.1641751475409770e+00 +0.0000000000000000e+00 -5.3999999160022716e+00 -2.9936388767766664e-02 -5.6427417807162528e-01 +5.6264828632270961e-03
-5.4999999999999964e+00 +8.1641443145588521e+00 +0.0000000000000000e+00 -5.4999999112487741e+00 -2.9936248837531435e-02 -5.6427428868783425e-01 +5.6266042556854228e-03
-5.5999999999999961e+00 +8.1641129158317476e+00 +0.0000000000000000e+00 -5.5999999063192405e+00 -2.9936119559399756e-02 -5.6427440097597081e-01 +5.6267249790996291e-03
-5.6999999999999957e+00 +8.1640809513595514e+00 +0.0000000000000000e+00 -5.6999999012104698e+00 -2.9936002497979057e-02 -5.6427451523653005e-01 +5.6268449604628193e-03
-5.7999999999999954e+00 +8.1640484211421498e+00 +0.0000000000000000e+00 -5.7999998959192611e+00 -2.9935899217851190e-02 -5.6427463176998027e-01 +5.6269641267647046e-03
-5.8999999999999950e+00 +8.1640153251794274e+00 +0.0000000000000000e+00 -5.8999998904424142e+00 -2.9935811283571236e-02 -5.6427475087676260e-01 +5.6270824049914105e-03
-5.9999999999999947e+00 +8.1639816634712652e+00 +0.0000000000000000e+00 -5.9999998847767273e+00 -2.9935740259666527e-02 -5.6427487285728983e-01 +5.6271997221253199e-03
-6.0999999999999943e+00 +8.1639474360175406e+00 +0.0000000000000000e+00 -6.0999998789190011e+00 -2.9935687334879502e-02 -5.6427499810227266e-01 +5.6273160424277578e-03
-6.1999999999999940e+00 +8.1639126428181310e+00 +0.0000000000000000e+00 -6.1999998728660337e+00 -2.9935652194912832e-02 -5.6427512736371588e-01 +5.6274314792882692e-03
-6.2999999999999936e+00 +8.1638772838729086e+00 +0.0000000000000000e+00 -6.2999998666146251e+00 -2.9935634149733156e-02 -5.6427526148395690e-01 +5.6275461833760415e-03
-6.3999999999999932e+00 +8.1638413591817383e+00 +0.0000000000000000e+00 -6.3999998601615742e+00 -2.9935632509335428e-02 -5.6427540130534115e-01 +5.6276603053567039e-03
-6.4999999999999929e+00 +8.1638048687444815e+00 +0.0000000000000000e+00 -6.4999998535036809e+00 -2.9935646583744254e-02 -5.6427554767022359e-01 +5.6277739958921838e-03
-6.5999999999999925e+00 +8.1637678125609927e+00 +0.0000000000000000e+00 -6.5999998466377434e+00 -2.9935675683015053e-02 -5.6427570142096839e-01 +5.6278874056405687e-03
-6.6999999999999922e+00 +8.1637301906311190e+00 +0.0000000000000000e+00 -6.6999998395605616e+00 -2.9935719117235360e-02 -5.6427586339995006e-01 +5.6280006852559641e-03
-6.7999999999999918e+00 +8.1636920029546989e+00 +0.0000000000000000e+00 -6.7999998322689352e+00 -2.9935776196526032e-02 -5.6427603444955388e-01 +5.6281139853883539e-03
-6.8999999999999915e+00 +8.1636532495315617e+00 +0.0000000000000000e+00 -6.8999998247596626e+00 -2.9935846231042552e-02 -5.6427621541217665e-01 +5.6282274566834632e-03
-6.9999999999999911e+00 +8.1636139303615263e+00 +0.0000000000000000e+00 -6.9999998170295434e+00 -2.9935928530976208e-02 -5.6427640713022786e-01 +5.6283412497826115e-03
-7.0999999999999908e+00 +8.1635740454444026e+00 +0.0000000000000000e+00 -7.0999998090753769e+00 -2.9936022406555362e-02 -5.6427661044612865e-01 +5.6284555153225772e-03
-7.1999999999999904e+00 +8.1635335947799881e+00 +0.0000000000000000e+00 -7.1999998008939619e+00 -2.9936127168046740e-02 -5.6427682620231423e-01 +5.6285704039354531e-03
-7.2999999999999901e+00 +8.1634925783680679e+00 +0.0000000000000000e+00 -7.2999997924820983e+00 -2.9936242125756598e-02 -5.6427705524123339e-01 +5.6286860662485092e-03
-7.3999999999999897e+00 +8.1634509962084145e+00 +0.0000000000000000e+00 -7.3999997838365843e+00 -2.9936366590032053e-02 -5.6427729840534968e-01 +5.6288026528840520e-03
-7.4999999999999893e+00 +8.1634088483007847e+00 +0.0000000000000000e+00 -7.4999997749542198e+00 -2.9936499871262297e-02 -5.6427755653714207e-01 +5.6289203144592823e-03
-7.5999999999999890e+00 +8.1633661346449191e+00 +0.0000000000000000e+00 -7.5999997658318037e+00 -2.9936641279879789e-02 -5.6427783047910407e-01 +5.6290392015861503e-03
-7.6999999999999886e+00 +8.1633228552405459e+00 +0.0000000000000000e+00 -7.6999997564661360e+00 -2.9936790126361634e-02 -5.6427812107374742e-01 +5.6291594648712221e-03
-7.7999999999999883e+00 +8.1632790100873756e+00 +0.0000000000000000e+00 -7.7999997468540148e+00 -2.9936945721230727e-02 -5.6427842916359927e-01 +5.6292812549155382e-03
-7.8999999999999879e+00 +8.1632345991851007e+00 +0.0000000000000000e+00 -7.8999997369922399e+00 -2.9937107375057011e-02 -5.6427875559120566e-01 +5.6294047223144645e-03
-7.9999999999999876e+00 +8.1631896225333946e+00 +0.0000000000000000e+00 -7.9999997268776104e+00 -2.9937274398458776e-02 -5.6427910119912927e-01 +5.6295300176575558e-03
-8.0999999999999872e+00 +8.1631440801319108e+00 +0.0000000000000000e+00 -8.0999997165069253e+00 -2.9937446058369982e-02 -5.6427946648316529e-01 +5.6296572412327132e-03
-8.1999999999999869e+00 +8.1630979719802870e+00 +0.0000000000000000e+00 -8.1999997058769836e+00 -2.9937621446802662e-02 -5.6427985055197394e-01 +5.6297862921405777e-03
-8.2999999999999865e+00 +8.1630512980781393e+00 +0.0000000000000000e+00 -8.2999996949845833e+00 -2.9937799611986740e-02 -5.6428025216747513e-01 +5.6299170191882559e-03
-8.3999999999999861e+00 +8.1630040584250647e+00 +0.0000000000000000e+00 -8.3999996838265254e+00 -2.9937979602093920e-02 -5.6428067009164551e-01 +5.6300492711868272e-03
-8.4999999999999858e+00 +8.1629562530206474e+00 +0.0000000000000000e+00 -8.4999996723996087e+00 -2.9938160465235585e-02 -5.6428110308652080e-01 +5.6301828969515010e-03
-8.5999999999999854e+00 +8.1629078818644558e+00 +0.0000000000000000e+00 -8.5999996607006306e+00 -2.9938341249460789e-02 -5.6428154991419732e-01 +5.6303177453017944e-03
-8.6999999999999851e+00 +8.1628589449560423e+00 +0.0000000000000000e+00 -8.6999996487263918e+00 -2.9938521002754265e-02 -5.6428200933683392e-01 +5.6304536650616964e-03
-8.7999999999999847e+00 +8.1628094422949466e+00 +0.0000000000000000e+00 -8.7999996364736912e+00 -2.9938698773034317e-02 -5.6428248011665239e-01 +5.6305905050598095e-03
-8.8999999999999844e+00 +8.1627593738807001e+00 +0.0000000000000000e+00 -8.8999996239393262e+00 -2.9938873608150847e-02 -5.6428296101594133e-01 +5.6307281141295554e-03
-8.9999999999999840e+00 +8.1627087397128228e+00 +0.0000000000000000e+00 -8.9999996111200975e+00 -2.9939044555883317e-02 -5.6428345079705622e-01 +5.6308663411093049e-03
-9.0999999999999837e+00 +8.1626575397908248e+00 +0.0000000000000000e+00 -9.0999995980128041e+00 -2.9939210663938679e-02 -5.6428394822242101e-01 +5.6310050348425565e-03
-9.1999999999999833e+00 +8.1626057741142084e+00 +0.0000000000000000e+00 -9.1999995846142433e+00 -2.9939370979949354e-02 -5.6428445205453126e-01 +5.6311440441781085e-03
-9.2999999999999829e+00 +8.1625534426824711e+00 +0.0000000000000000e+00 -9.2999995709212158e+00 -2.9939524551471267e-02 -5.6428496105595427e-01 +5.6312832179702165e-03
-9.3999999999999826e+00 +8.1625005454951047e+00 +0.0000000000000000e+00 -9.3999995569305188e+00 -2.9939670425981699e-02 -5.6428547398933160e-01 +5.6314224050787601e-03
-9.4999999999999822e+00 +8.1624470825515960e+00 +0.0000000000000000e+00 -9.4999995426389532e+00 -2.9939807650877379e-02 -5.6428598961738108e-01 +5.6315614543694086e-03
-9.5999999999999819e+00 +8.1623930538514298e+00 +0.0000000000000000e+00 -9.5999995280433161e+00 -2.9939935273472336e-02 -5.6428650670289693e-01 +5.6317002147137874e-03
-9.6999999999999815e+00 +8.1623384593940891e+00 +0.0000000000000000e+00 -9.6999995131404084e+00 -2.9940052340995948e-02 -5.6428702400875319e-01 +5.6318385349896491e-03
-9.7999999999999812e+00 +8.1622832991790570e+00 +0.0000000000000000e+00 -9.7999994979270273e+00 -2.9940157900590927e-02 -5.6428754029790518e-01 +5.6319762640810334e-03
-9.8999999999999808e+00 +8.1622275732058185e+00 +0.0000000000000000e+00 -9.8999994823999717e+00 -2.9940250999311184e-02 -5.6428805433338947e-01 +5.6321132508784320e-03
-9.9999999999999805e+00 +8.1621712814738601e+00 +0.0000000000000000e+00 -9.9999994665560425e+00 -2.9940330684119922e-02 -5.6428856487832801e-01 +5.6322493442789610e-03
-1.0099999999999980e+01 +8.1621144239826720e+00 +0.0000000000000000e+00 -1.0099999450392037e+01 -2.9940396264175374e-02 -5.6428907091799207e-01 +5.6323844298955868e-03
-1.0199999999999980e+01 +8.1620570007317479e+00 +0.0000000000000000e+00 -1.0199999433904754e+01 -2.9940448097757328e-02 -5.6428957232593313e-01 +5.6325185401846440e-03
-1.0299999999999979e+01 +8.1619990117205887e+00 +0.0000000000000000e+00 -1.0299999417090993e+01 -2.9940486805478932e-02 -5.6429006919765834e-01 +5.6326517443137701e-03
-1.0399999999999979e+01 +8.1619404569486953e+00 +0.0000000000000000e+00 -1.0399999399947552e+01 -2.9940513008003856e-02 -5.6429056162853553e-01 +5.6327841114511305e-03
-1.0499999999999979e+01 +8.1618813364155773e+00 +0.0000000000000000e+00 -1.0499999382471231e+01 -2.9940527326047767e-02 -5.6429104971378985e-01 +5.6329157107654244e-03
-1.0599999999999978e+01 +8.1618216501207481e+00 +0.0000000000000000e+00 -1.0599999364658826e+01 -2.9940530380379880e-02 -5.6429153354850115e-01 +5.6330466114258883e-03
-1.0699999999999978e+01 +8.1617613980637227e+00 +0.0000000000000000e+00 -1.0699999346507139e+01 -2.9940522791824468e-02 -5.6429201322759959e-01 +5.6331768826022926e-03
-1.0799999999999978e+01 +8.1617005802440232e+00 +0.0000000000000000e+00 -1.0799999328012968e+01 -2.9940505181262334e-02 -5.6429248884586081e-01 +5.6333065934649450e-03
-1.0899999999999977e+01 +8.1616391966611754e+00 +0.0000000000000000e+00 -1.0899999309173111e+01 -2.9940478169632429e-02 -5.6429296049790456e-01 +5.6334358131847053e-03
-1.0999999999999977e+01 +8.1615772473147068e+00 +0.0000000000000000e+00 -1.0999999289984368e+01 -2.9940442377933200e-02 -5.6429342827818840e-01 +5.6335646109329637e-03
-1.1099999999999977e+01 +8.1615147322041519e+00 +0.0000000000000000e+00 -1.1099999270443538e+01 -2.9940398427224301e-02 -5.6429389228100546e-01 +5.6336930558816669e-03
-1.1199999999999976e+01 +8.1614516513290472e+00 +0.0000000000000000e+00 -1.1199999250547419e+01 -2.9940346938627915e-02 -5.6429435260048033e-01 +5.6338212172033072e-03
-1.1299999999999976e+01 +8.1613880046889324e+00 +0.0000000000000000e+00 -1.1299999230292810e+01 -2.9940288533330431e-02 -5.6429480933056553e-01 +5.6339491640709175e-03
-1.1399999999999975e+01 +8.1613237922833513e+00 +0.0000000000000000e+00 -1.1399999209676510e+01 -2.9940223832583820e-02 -5.6429526256503670e-01 +5.6340769656580908e-03
-1.1499999999999975e+01 +8.1612590141118524e+00 +0.0000000000000000e+00 -1.1499999188695318e+01 -2.9940153457707244e-02 -5.6429571239749066e-01 +5.6342046911389684e-03
-1.1599999999999975e+01 +8.1611936701739864e+00 +0.0000000000000000e+00 -1.1599999167346031e+01 -2.9940078030088520e-02 -5.6429615892133989e-01 +5.6343324096882440e-03
-1.1699999999999974e+01 +8.1611277604693075e+00 +0.0000000000000000e+00 -1.1699999145625450e+01 -2.9939998171185631e-02 -5.6429660222980960e-01 +5.6344601904811690e-03
