# field on trajectory
# s[mm] rx[mm] ry[mm] rz[mm] bx[T] by[T] bz[T]
-0.0000000000000000e+00 +8.1530000000000094e+00 +0.0000000000000000e+00 -0.0000000000000000e+00 -3.1948300843140487e-02 -5.9243497778407284e-01 +5.8971001531206583e-03
-1.0000000000000001e-01 +8.1529997159377707e+00 +0.0000000000000000e+00 -1.0008006405070299e-01 -3.1948216992137610e-02 -5.9243490133389287e-01 +5.8970458374166283e-03
-2.0000000000000001e-01 +8.1529988637557800e+00 +0.0000000000000000e+00 -2.0016012809818201e-01 -3.1948128950339785e-02 -5.9243483340848524e-01 +5.8969922219879291e-03
-2.9999999999999999e-01 +8.1529974434524792e+00 +0.0000000000000000e+00 -3.0024019213920999e-01 -3.1948037089495306e-02 -5.9243477364118591e-01 +5.8969392279612579e-03
-4.0000000000000002e-01 +8.1529954550242092e+00 +0.0000000000000000e+00 -4.0032025617056399e-01 -3.1947941781352865e-02 -5.9243472166533018e-01 +5.8968867764644236e-03
-5.0000000000000000e-01 +8.1529928984782600e+00 +0.0000000000000000e+00 -5.0040032018901703e-01 -3.1947843397655398e-02 -5.9243467711414932e-01 +5.8968347886252208e-03
-5.9999999999999998e-01 +8.1529897738146193e+00 +0.0000000000000000e+00 -6.0048038419134497e-01 -3.1947742310146833e-02 -5.9243463962092369e-01 +5.8967831855728766e-03
-6.9999999999999996e-01 +8.1529860810223909e+00 +0.0000000000000000e+00 -7.0056044817432195e-01 -3.1947638890572956e-02 -5.9243460881901400e-01 +5.8967318884383044e-03
-8.0000000000000004e-01 +8.1529818201124709e+00 +0.0000000000000000e+00 -8.0064051213472498e-01 -3.1947533510666884e-02 -5.9243458434160112e-01 +5.8966808183513516e-03
-9.0000000000000002e-01 +8.1529769910812302e+00 +0.0000000000000000e+00 -9.0072057606932698e-01 -3.1947426542163523e-02 -5.9243456582198273e-01 +5.8966298964437478e-03
-1.0000000000000000e+00 +8.1529715939250291e+00 +0.0000000000000000e+00 -1.0008006399749001e+00 -3.1947318356792771e-02 -5.9243455289346125e-01 +5.8965790438478593e-03
-1.1000000000000001e+00 +8.1529656286511507e+00 +0.0000000000000000e+00 -1.1008807038482300e+00 -3.1947209326274088e-02 -5.9243454518925731e-01 +5.8965281816957269e-03
-1.2000000000000000e+00 +8.1529590952522994e+00 +0.0000000000000000e+00 -1.2009607676860801e+00 -3.1947099822326498e-02 -5.9243454234272008e-01 +5.8964772311211290e-03
-1.3000000000000000e+00 +8.1529519937357708e+00 +0.0000000000000000e+00 -1.3010408314852300e+00 -3.1946990216655535e-02 -5.9243454398709516e-01 +5.8964261132571170e-03
-1.3999999999999999e+00 +8.1529443240979198e+00 +0.0000000000000000e+00 -1.4011208952424601e+00 -3.1946880880963202e-02 -5.9243454975573429e-01 +5.8963747492380720e-03
-1.5000000000000000e+00 +8.1529360863350995e+00 +0.0000000000000000e+00 -1.5012009589545301e+00 -3.1946772186942633e-02 -5.9243455928201150e-01 +5.8963230601987602e-03
-1.6000000000000001e+00 +8.1529272804509691e+00 +0.0000000000000000e+00 -1.6012810226182299e+00 -3.1946664506274279e-02 -5.9243457219926643e-01 +5.8962709672736703e-03
-1.7000000000000000e+00 +8.1529179064491508e+00 +0.0000000000000000e+00 -1.7013610862303301e+00 -3.1946558210628147e-02 -5.9243458814086747e-01 +5.8962183915975616e-03
-1.8000000000000000e+00 +8.1529079643223703e+00 +0.0000000000000000e+00 -1.8014411497875999e+00 -3.1946453671667686e-02 -5.9243460674030424e-01 +5.8961652543063287e-03
-1.8999999999999999e+00 +8.1528974540779000e+00 +0.0000000000000000e+00 -1.9015212132868200e+00 -3.1946351261038258e-02 -5.9243462763098409e-01 +5.8961114765348375e-03
-2.0000000000000000e+00 +8.1528863757084800e+00 +0.0000000000000000e+00 -2.0016012767247702e+00 -3.1946251350378145e-02 -5.9243465044647170e-01 +5.8960569794194442e-03
-2.1000000000000001e+00 +8.1528747292177304e+00 +0.0000000000000000e+00 -2.1016813400982199e+00 -3.1946154183660161e-02 -5.9243467487201484e-01 +5.8960017260272293e-03
-2.2000000000000002e+00 +8.1528625146056601e+00 +0.0000000000000000e+00 -2.2017614034039301e+00 -3.1946059518178430e-02 -5.9243470079013860e-01 +5.8959458392935224e-03
-2.2999999999999998e+00 +8.1528497318759001e+00 +0.0000000000000000e+00 -2.3018414666387002e+00 -3.1945966995251020e-02 -5.9243472813034148e-01 +5.8958894802469807e-03
-2.3999999999999999e+00 +8.1528363810211903e+00 +0.0000000000000000e+00 -2.4019215297993002e+00 -3.1945876256189963e-02 -5.9243475682221725e-01 +5.8958328099171708e-03
-2.5000000000000000e+00 +8.1528224620451493e+00 +0.0000000000000000e+00 -2.5020015928824901e+00 -3.1945786942292005e-02 -5.9243478679527573e-01 +5.8957759893327188e-03
-2.6000000000000001e+00 +8.1528079749477893e+00 +0.0000000000000000e+00 -2.6020816558850601e+00 -3.1945698694844350e-02 -5.9243481797905984e-01 +5.8957191795224566e-03
-2.7000000000000002e+00 +8.1527929197291105e+00 +0.0000000000000000e+00 -2.7021617188037701e+00 -3.1945611155122997e-02 -5.9243485030311560e-01 +5.8956625415150996e-03
-2.7999999999999998e+00 +8.1527772963891003e+00 +0.0000000000000000e+00 -2.8022417816354102e+00 -3.1945523964392396e-02 -5.9243488369699004e-01 +5.8956062363391907e-03
-2.8999999999999999e+00 +8.1527611049277802e+00 +0.0000000000000000e+00 -2.9023218443767500e+00 -3.1945436763905266e-02 -5.9243491809023074e-01 +5.8955504250230465e-03
-3.0000000000000000e+00 +8.1527443453451305e+00 +0.0000000000000000e+00 -3.0024019070245598e+00 -3.1945349194902370e-02 -5.9243495341238406e-01 +5.8954952685947443e-03
-3.1000000000000001e+00 +8.1527270176411495e+00 +0.0000000000000000e+00 -3.1024819695756198e+00 -3.1945260898612222e-02 -5.9243498959299412e-01 +5.8954409280820496e-03
-3.2000000000000002e+00 +8.1527091218158603e+00 +0.0000000000000000e+00 -3.2025620320267101e+00 -3.1945171516250849e-02 -5.9243502656160207e-01 +5.8953875645123936e-03
-3.2999999999999998e+00 +8.1526906578692397e+00 +0.0000000000000000e+00 -3.3026420943745900e+00 -3.1945080689021584e-02 -5.9243506424774439e-01 +5.8953353389128117e-03
-3.3999999999999999e+00 +8.1526716258013003e+00 +0.0000000000000000e+00 -3.4027221566160502e+00 -3.1944988058114819e-02 -5.9243510258095200e-01 +5.8952844123099186e-03
-3.5000000000000000e+00 +8.1526520256120403e+00 +0.0000000000000000e+00 -3.5028022187478500e+00 -3.1944893264707730e-02 -5.9243514149074927e-01 +5.8952349457298565e-03
-3.6000000000000001e+00 +8.1526318572978198e+00 +0.0000000000000000e+00 -3.6028822807667802e+00 -3.1944795949965583e-02 -5.9243518090668101e-01 +5.8951871001985470e-03
-3.7000000000000002e+00 +8.1526111208659096e+00 +0.0000000000000000e+00 -3.7029623426696099e+00 -3.1944695755035404e-02 -5.9243522075819610e-01 +5.8951410367404566e-03
-3.7999999999999998e+00 +8.1525898163126804e+00 +0.0000000000000000e+00 -3.8030424044531101e+00 -3.1944592321054857e-02 -5.9243526097481924e-01 +5.8950969163803499e-03
-3.8999999999999999e+00 +8.1525679436344909e+00 +0.0000000000000000e+00 -3.9031224661140600e+00 -3.1944485289147444e-02 -5.9243530148606571e-01 +5.8950549001423411e-03
-4.0000000000000000e+00 +8.1525455028386205e+00 +0.0000000000000000e+00 -4.0032025276492398e+00 -3.1944374300421713e-02 -5.9243534222134753e-01 +5.8950151490480013e-03
-4.0999999999999996e+00 +8.1525224939177896e+00 +0.0000000000000000e+00 -4.1032825890554099e+00 -3.1944259131785002e-02 -5.9243538307245325e-01 +5.8949777919003405e-03
-4.2000000000000002e+00 +8.1524989168792708e+00 +0.0000000000000000e+00 -4.2033626503293604e+00 -3.1944140053693469e-02 -5.9243542379392911e-01 +5.8949428404083551e-03
-4.2999999999999998e+00 +8.1524747717157897e+00 +0.0000000000000000e+00 -4.3034427114678504e+00 -3.1944017448711649e-02 -5.9243546410928305e-01 +5.8949102796902143e-03
-4.4000000000000004e+00 +8.1524500584346207e+00 +0.0000000000000000e+00 -4.4035227724676700e+00 -3.1943891699415160e-02 -5.9243550374188836e-01 +5.8948800948630279e-03
-4.5000000000000000e+00 +8.1524247770285001e+00 +0.0000000000000000e+00 -4.5036028333255800e+00 -3.1943763188404355e-02 -5.9243554241521690e-01 +5.8948522710452417e-03
-4.5999999999999996e+00 +8.1523989275046898e+00 +0.0000000000000000e+00 -4.6036828940383696e+00 -3.1943632298293737e-02 -5.9243557985260253e-01 +5.8948267933542561e-03
-4.7000000000000002e+00 +8.1523725098559208e+00 +0.0000000000000000e+00 -4.7037629546028104e+00 -3.1943499411725723e-02 -5.9243561577747550e-01 +5.8948036469088343e-03
-4.7999999999999998e+00 +8.1523455240894709e+00 +0.0000000000000000e+00 -4.8038430150156701e+00 -3.1943364911360024e-02 -5.9243564991312592e-01 +5.8947828168267151e-03
-4.9000000000000004e+00 +8.1523179701980606e+00 +0.0000000000000000e+00 -4.9039230752737302e+00 -3.1943229179887359e-02 -5.9243568198293795e-01 +5.8947642882270354e-03
-5.0000000000000000e+00 +8.1522898481889605e+00 +0.0000000000000000e+00 -5.0040031353737602e+00 -3.1943092600018805e-02 -5.9243571171015275e-01 +5.8947480462279139e-03
-5.0999999999999996e+00 +8.1522611580549000e+00 +0.0000000000000000e+00 -5.1040831953125396e+00 -3.1942955554499650e-02 -5.9243573881810296e-01 +5.8947340759488969e-03
-5.2000000000000002e+00 +8.1522318997995207e+00 +0.0000000000000000e+00 -5.2041632550868497e+00 -3.1942818426100181e-02 -5.9243576303000633e-01 +5.8947223625088483e-03
-5.2999999999999998e+00 +8.1522020734228100e+00 +0.0000000000000000e+00 -5.3042433146934496e+00 -3.1942681597623417e-02 -5.9243578406908082e-01 +5.8947128910271695e-03
-5.4000000000000004e+00 +8.1521716789247893e+00 +0.0000000000000000e+00 -5.4043233741291203e+00 -3.1942545451905058e-02 -5.9243580165851495e-01 +5.8947056466235031e-03
-5.5000000000000000e+00 +8.1521407163090807e+00 +0.0000000000000000e+00 -5.5044034333906504e+00 -3.1942410371813668e-02 -5.9243581552143643e-01 +5.8947006144174597e-03
-5.5999999999999996e+00 +8.1521091855684098e+00 +0.0000000000000000e+00 -5.6044834924747899e+00 -3.1942276740258173e-02 -5.9243582538102979e-01 +5.8946977795298209e-03
-5.7000000000000002e+00 +8.1520770867064094e+00 +0.0000000000000000e+00 -5.7045635513783299e+00 -3.1942144940180370e-02 -5.9243583096035801e-01 +5.8946971270807435e-03
-5.7999999999999998e+00 +8.1520444197231008e+00 +0.0000000000000000e+00 -5.8046436100980499e+00 -3.1942015354562557e-02 -5.9243583198247807e-01 +5.8946986421909838e-03
-5.9000000000000004e+00 +8.1520111846184609e+00 +0.0000000000000000e+00 -5.9047236686307096e+00 -3.1941888366427612e-02 -5.9243582817041218e-01 +5.8947023099816063e-03
-5.9999999999999902e+00 +8.1519773813925003e+00 +0.0000000000000000e+00 -6.0048037269731003e+00 -3.1941764358831955e-02 -5.9243581924717137e-01 +5.8947081155725899e-03
-6.0999999999999899e+00 +8.1519430100452208e+00 +0.0000000000000000e+00 -6.1048837851219799e+00 -3.1941643625917060e-02 -5.9243580520548489e-01 +5.8947160294576112e-03
-6.1999999999999904e+00 +8.1519080705766100e+00 +0.0000000000000000e+00 -6.2049638430741396e+00 -3.1941526153635415e-02 -5.9243578697270638e-01 +5.8947259714528695e-03
-6.2999999999999901e+00 +8.1518725629866804e+00 +0.0000000000000000e+00 -6.3050439008263499e+00 -3.1941411861247056e-02 -5.9243576567846301e-01 +5.8947378504076407e-03
-6.3999999999999897e+00 +8.1518364872754301e+00 +0.0000000000000000e+00 -6.4051239583753699e+00 -3.1941300668026883e-02 -5.9243574245237207e-01 +5.8947515751727611e-03
-6.4999999999999902e+00 +8.1517998434428591e+00 +0.0000000000000000e+00 -6.5052040157180002e+00 -3.1941192493264721e-02 -5.9243571842403853e-01 +5.8947670546006794e-03
-6.5999999999999899e+00 +8.1517626314889604e+00 +0.0000000000000000e+00 -6.6052840728510001e+00 -3.1941087256265738e-02 -5.9243569472305668e-01 +5.8947841975455243e-03
-6.6999999999999904e+00 +8.1517248514137499e+00 +0.0000000000000000e+00 -6.7053641297711399e+00 -3.1940984876350630e-02 -5.9243567247901019e-01 +5.8948029128631551e-03
-6.7999999999999901e+00 +8.1516865032135701e+00 +0.0000000000000000e+00 -6.8054441864752100e+00 -3.1940885272857475e-02 -5.9243565282150101e-01 +5.8948231094115271e-03
-6.8999999999999897e+00 +8.1516475868957095e+00 +0.0000000000000000e+00 -6.9055242429599701e+00 -3.1940788365135843e-02 -5.9243563688003009e-01 +5.8948446960495372e-03
-6.9999999999999902e+00 +8.1516081024565192e+00 +0.0000000000000000e+00 -7.0056042992222096e+00 -3.1940694072556258e-02 -5.9243562578417763e-01 +5.8948675816388992e-03
-7.0999999999999899e+00 +8.1515680498960101e+00 +0.0000000000000000e+00 -7.1056843552586999e+00 -3.1940602314504372e-02 -5.9243562066348177e-01 +5.8948916750429818e-03
-7.1999999999999904e+00 +8.1515274292141804e+00 +0.0000000000000000e+00 -7.2057644110662000e+00 -3.1940513010382712e-02 -5.9243562264746996e-01 +5.8949168851271869e-03
-7.2999999999999901e+00 +8.1514862404073902e+00 +0.0000000000000000e+00 -7.3058444666415099e+00 -3.1940426079612505e-02 -5.9243563286568768e-01 +5.8949431207592920e-03
-7.3999999999999897e+00 +8.1514444834829192e+00 +0.0000000000000000e+00 -7.4059245219813796e+00 -3.1940341441627870e-02 -5.9243565244758045e-01 +5.8949702908083195e-03
-7.4999999999999902e+00 +8.1514021584334806e+00 +0.0000000000000000e+00 -7.5060045770826100e+00 -3.1940259015886721e-02 -5.9243568252270140e-01 +5.8949983041466890e-03
-7.5999999999999899e+00 +8.1513592652663593e+00 +0.0000000000000000e+00 -7.6060846319419504e+00 -3.1940178721858850e-02 -5.9243572422047275e-01 +5.8950270696478766e-03
-7.6999999999999904e+00 +8.1513158039779192e+00 +0.0000000000000000e+00 -7.7061646865561997e+00 -3.1940100479036899e-02 -5.9243577867039521e-01 +5.8950564961885712e-03
-7.7999999999999901e+00 +8.1512717745681602e+00 +0.0000000000000000e+00 -7.8062447409221098e+00 -3.1940024206930449e-02 -5.9243584700192820e-01 +5.8950864926475390e-03
-7.8999999999999897e+00 +8.1512271770334301e+00 +0.0000000000000000e+00 -7.9063247950364799e+00 -3.1939949825069439e-02 -5.9243593034454889e-01 +5.8951169679062800e-03
-7.9999999999999902e+00 +8.1511820113773901e+00 +0.0000000000000000e+00 -8.0064048488960609e+00 -3.1939877253019083e-02 -5.9243602982762067e-01 +5.8951478308495817e-03
-8.0999999999999908e+00 +8.1511362776036496e+00 +0.0000000000000000e+00 -8.1064849024976393e+00 -3.1939806498882603e-02 -5.9243614637886222e-01 +5.8951789968257392e-03
-8.1999999999999904e+00 +8.1510899757086008e+00 +0.0000000000000000e+00 -8.2065649558379903e+00 -3.1939737863223232e-02 -5.9243628025989448e-01 +5.8952104025283983e-03
-8.2999999999999901e+00 +8.1510431056885899e+00 +0.0000000000000000e+00 -8.3066450089139003e+00 -3.1939671706889092e-02 -5.9243643159501003e-01 +5.8952419890455528e-03
-8.3999999999999897e+00 +8.1509956675508892e+00 +0.0000000000000000e+00 -8.4067250617221205e+00 -3.1939608390689253e-02 -5.9243660050848046e-01 +5.8952736974552606e-03
-8.4999999999999893e+00 +8.1509476612882299e+00 +0.0000000000000000e+00 -8.5068051142594392e+00 -3.1939548275402879e-02 -5.9243678712476511e-01 +5.8953054688274517e-03
-8.5999999999999908e+00 +8.1508990869078808e+00 +0.0000000000000000e+00 -8.6068851665226305e+00 -3.1939491721765835e-02 -5.9243699156827756e-01 +5.8953372442212366e-03
-8.6999999999999904e+00 +8.1508499444025801e+00 +0.0000000000000000e+00 -8.7069652185084596e+00 -3.1939439090481449e-02 -5.9243721396362392e-01 +5.8953689646870314e-03
-8.7999999999999794e+00 +8.1508002337759500e+00 +0.0000000000000000e+00 -8.8070452702137203e+00 -3.1939390742208543e-02 -5.9243745443539786e-01 +5.8954005712641569e-03
-8.8999999999999808e+00 +8.1507499550316407e+00 +0.0000000000000000e+00 -8.9071253216351796e+00 -3.1939347037564667e-02 -5.9243771310827265e-01 +5.8954320049814553e-03
-8.9999999999999805e+00 +8.1506991081623692e+00 +0.0000000000000000e+00 -9.0072053727696098e+00 -3.1939308337129317e-02 -5.9243799010709142e-01 +5.8954632068579172e-03
-9.0999999999999801e+00 +8.1506476931717806e+00 +0.0000000000000000e+00 -9.1072854236137797e+00 -3.1939275001433468e-02 -5.9243828555669142e-01 +5.8954941179005663e-03
-9.1999999999999797e+00 +8.1505957100635005e+00 +0.0000000000000000e+00 -9.2073654741644795e+00 -3.1939247390962766e-02 -5.9243859958199663e-01 +5.8955246791050986e-03
-9.2999999999999794e+00 +8.1505431588302599e+00 +0.0000000000000000e+00 -9.3074455244184708e+00 -3.1939225866160818e-02 -5.9243893230810729e-01 +5.8955548314564852e-03
-9.3999999999999808e+00 +8.1504900394757005e+00 +0.0000000000000000e+00 -9.4075255743725297e+00 -3.1939210787418633e-02 -5.9243928386012601e-01 +5.8955845159268747e-03
-9.4999999999999805e+00 +8.1504363520034495e+00 +0.0000000000000000e+00 -9.5076056240234408e+00 -3.1939202515077932e-02 -5.9243965436324697e-01 +5.8956136734762262e-03
-9.5999999999999801e+00 +8.1503820964062506e+00 +0.0000000000000000e+00 -9.6076856733679694e+00 -3.1939201409434341e-02 -5.9244004394284955e-01 +5.8956422450529133e-03
-9.6999999999999797e+00 +8.1503272726913600e+00 +0.0000000000000000e+00 -9.7077657224029004e+00 -3.1939207830725319e-02 -5.9244045272429069e-01 +5.8956701715913206e-03
-9.7999999999999794e+00 +8.1502718808515109e+00 +0.0000000000000000e+00 -9.8078457711250007e+00 -3.1939222139141112e-02 -5.9244088083314661e-01 +5.8956973940139925e-03
-9.8999999999999808e+00 +8.1502159208903304e+00 +0.0000000000000000e+00 -9.9079258195310498e+00 -3.1939244694812699e-02 -5.9244132839500507e-01 +5.8957238532292072e-03
-9.9999999999999805e+00 +8.1501593928078400e+00 +0.0000000000000000e+00 -1.0008005867617801e+01 -3.1939275857725456e-02 -5.9244179553550458e-01 +5.8957494901526958e-03
-1.0100000000000000e+01 +8.1501022966040200e+00 +0.0000000000000000e+00 -1.0108085915382100e+01 -3.1939315764037725e-02 -5.9244228217349382e-01 +5.8957742967352383e-03
-1.0199999999999999e+01 +8.1500446322825209e+00 +0.0000000000000000e+00 -1.0208165962820599e+01 -3.1939363844716628e-02 -5.9244278757587199e-01 +5.8957984257905615e-03
-1.0300000000000001e+01 +8.1499863998360507e+00 +0.0000000000000000e+00 -1.0308246009930199e+01 -3.1939419392173332e-02 -5.9244331088151581e-01 +5.8958220617523075e-03
-1.0400000000000000e+01 +8.1499275992682705e+00 +0.0000000000000000e+00 -1.0408326056707599e+01 -3.1939481698809745e-02 -5.9244385122919585e-01 +5.8958453890660817e-03
-1.0500000000000000e+01 +8.1498682305791608e+00 +0.0000000000000000e+00 -1.0508406103149600e+01 -3.1939550057024674e-02 -5.9244440775769580e-01 +5.8958685921910560e-03
-1.0600000000000000e+01 +8.1498082937723701e+00 +0.0000000000000000e+00 -1.0608486149253000e+01 -3.1939623759210785e-02 -5.9244497960575160e-01 +5.8958918555997051e-03
-1.0699999999999999e+01 +8.1497477888406102e+00 +0.0000000000000000e+00 -1.0708566195014500e+01 -3.1939702097760661e-02 -5.9244556591216857e-01 +5.8959153637794049e-03
-1.0800000000000001e+01 +8.1496867157875403e+00 +0.0000000000000000e+00 -1.0808646240430900e+01 -3.1939784365057802e-02 -5.9244616581564369e-01 +5.8959393012309744e-03
-1.0900000000000000e+01 +8.1496250746131391e+00 +0.0000000000000000e+00 -1.0908726285499000e+01 -3.1939869853482634e-02 -5.9244677845488436e-01 +5.8959638524702747e-03
-1.1000000000000000e+01 +8.1495628653174208e+00 +0.0000000000000000e+00 -1.1008806330215601e+01 -3.1939957855411018e-02 -5.9244740296857545e-01 +5.8959892020282439e-03
-1.1100000000000000e+01 +8.1495000879040198e+00 +0.0000000000000000e+00 -1.1108886374577500e+01 -3.1940047663212796e-02 -5.9244803849535121e-01 +5.8960155344509888e-03
-1.1199999999999999e+01 +8.1494367423620098e+00 +0.0000000000000000e+00 -1.1208966418581401e+01 -3.1940138569259424e-02 -5.9244868417394114e-01 +5.8960430343016589e-03
-1.1300000000000001e+01 +8.1493728287059604e+00 +0.0000000000000000e+00 -1.1309046462224000e+01 -3.1940229865907173e-02 -5.9244933914284403e-01 +5.8960718861574869e-03
-1.1400000000000000e+01 +8.1493083469249505e+00 +0.0000000000000000e+00 -1.1409126505502300e+01 -3.1940320845518552e-02 -5.9245000254074154e-01 +5.8961022746143801e-03
-1.1500000000000000e+01 +8.1492432970226201e+00 +0.0000000000000000e+00 -1.1509206548412800e+01 -3.1940410800445553e-02 -5.9245067350617242e-01 +5.8961343842839848e-03
-1.1600000000000000e+01 +8.1491776789989707e+00 +0.0000000000000000e+00 -1.1609286590952600e+01 -3.1940499023037257e-02 -5.9245135117767800e-01 +5.8961683997955493e-03
-1.1699999999999999e+01 +8.1491114928576298e+00 +0.0000000000000000e+00 -1.1709366633118099e+01 -3.1940584805636878e-02 -5.9245203469374497e-01 +5.8962045057956956e-03
