# field on trajectory
# s[mm] rx[mm] ry[mm] rz[mm] bx[T] by[T] bz[T]
0.0000000000000000e+00 +7.9199999999999999e+00 +0.0000000000000000e+00 +0.0000000000000000e+00 -2.9880409918696955e-02 -5.6692343696411951e-01 +5.7731241221029694e-03
-1.0000000000000001e-01 +7.9199997167342646e+00 +0.0000000000000000e+00 -9.9999999999465072e-02 -2.9880607045230215e-02 -5.6692409731322402e-01 +5.7729629807345981e-03
-2.0000000000000001e-01 +7.9199988669366164e+00 +0.0000000000000000e+00 -1.9999999999572055e-01 -2.9880800713031740e-02 -5.6692477594281010e-01 +5.7727968604241236e-03
-3.0000000000000004e-01 +7.9199974506063766e+00 +0.0000000000000000e+00 -2.9999999998555682e-01 -2.9880990624181428e-02 -5.6692547170500651e-01 +5.7726258749418143e-03
-4.0000000000000002e-01 +7.9199954677428499e+00 +0.0000000000000000e+00 -3.9999999996576430e-01 -2.9881176480755015e-02 -5.6692618345195744e-01 +5.7724501380572394e-03
-5.0000000000000000e-01 +7.9199929183453257e+00 +0.0000000000000000e+00 -4.9999999993313338e-01 -2.9881357984823921e-02 -5.6692691003582030e-01 +5.7722697635395172e-03
-5.9999999999999998e-01 +7.9199898024130775e+00 +0.0000000000000000e+00 -5.9999999988445452e-01 -2.9881534838455213e-02 -5.6692765030876568e-01 +5.7720848651575327e-03
-6.9999999999999996e-01 +7.9199861199453663e+00 +0.0000000000000000e+00 -6.9999999981651795e-01 -2.9881706743711524e-02 -5.6692840312297454e-01 +5.7718955566801776e-03
-7.9999999999999993e-01 +7.9199818709414398e+00 +0.0000000000000000e+00 -7.9999999972611402e-01 -2.9881873402651058e-02 -5.6692916733063836e-01 +5.7717019518766016e-03
-8.9999999999999991e-01 +7.9199770554005351e+00 +0.0000000000000000e+00 -8.9999999961003307e-01 -2.9882034517327440e-02 -5.6692994178395673e-01 +5.7715041645164250e-03
-9.9999999999999989e-01 +7.9199716733218777e+00 +0.0000000000000000e+00 -9.9999999946506546e-01 -2.9882189789789702e-02 -5.6693072533513633e-01 +5.7713023083699857e-03
-1.0999999999999999e+00 +7.9199657247046851e+00 +0.0000000000000000e+00 -1.0999999992880014e+00 -2.9882338922082235e-02 -5.6693151683639031e-01 +5.7710964972085832e-03
-1.2000000000000000e+00 +7.9199592095481668e+00 +0.0000000000000000e+00 -1.1999999990756314e+00 -2.9882481616244679e-02 -5.6693231513993603e-01 +5.7708868448046952e-03
-1.3000000000000000e+00 +7.9199521278515252e+00 +0.0000000000000000e+00 -1.2999999988247455e+00 -2.9882617574311921e-02 -5.6693311909799438e-01 +5.7706734649322321e-03
-1.4000000000000001e+00 +7.9199444796139575e+00 +0.0000000000000000e+00 -1.3999999985321341e+00 -2.9882746498313979e-02 -5.6693392756278815e-01 +5.7704564713667566e-03
-1.5000000000000002e+00 +7.9199362648346563e+00 +0.0000000000000000e+00 -1.4999999981945873e+00 -2.9882868090275978e-02 -5.6693473938654115e-01 +5.7702359778857345e-03
-1.6000000000000003e+00 +7.9199274835128106e+00 +0.0000000000000000e+00 -1.5999999978088955e+00 -2.9882982052218062e-02 -5.6693555342147606e-01 +5.7700120982687583e-03
-1.7000000000000004e+00 +7.9199181356476069e+00 +0.0000000000000000e+00 -1.6999999973718487e+00 -2.9883088086155366e-02 -5.6693636851981466e-01 +5.7697849462977867e-03
-1.8000000000000005e+00 +7.9199082212382308e+00 +0.0000000000000000e+00 -1.7999999968802374e+00 -2.9883185894097899e-02 -5.6693718353377387e-01 +5.7695546357573822e-03
-1.9000000000000006e+00 +7.9198977402838695e+00 +0.0000000000000000e+00 -1.8999999963308516e+00 -2.9883275178050568e-02 -5.6693799731556771e-01 +5.7693212804349435e-03
-2.0000000000000004e+00 +7.9198866927837086e+00 +0.0000000000000000e+00 -1.9999999957204815e+00 -2.9883355640013043e-02 -5.6693880871740410e-01 +5.7690849941209495e-03
-2.1000000000000005e+00 +7.9198750787369390e+00 +0.0000000000000000e+00 -2.0999999950459172e+00 -2.9883427100298163e-02 -5.6693961672455551e-01 +5.7688458656761791e-03
-2.2000000000000006e+00 +7.9198628981427532e+00 +0.0000000000000000e+00 -2.1999999943039490e+00 -2.9883489852492874e-02 -5.6694042085457674e-01 +5.7686038842317900e-03
-2.3000000000000007e+00 +7.9198501510003476e+00 +0.0000000000000000e+00 -2.2999999934913671e+00 -2.9883544308512866e-02 -5.6694122075808073e-01 +5.7683590139863041e-03
-2.4000000000000008e+00 +7.9198368373089236e+00 +0.0000000000000000e+00 -2.3999999926049616e+00 -2.9883590880287143e-02 -5.6694201608566508e-01 +5.7681112191381567e-03
-2.5000000000000009e+00 +7.9198229570676872e+00 +0.0000000000000000e+00 -2.4999999916415225e+00 -2.9883629979759869e-02 -5.6694280648791029e-01 +5.7678604638855399e-03
-2.6000000000000010e+00 +7.9198085102758489e+00 +0.0000000000000000e+00 -2.5999999905978397e+00 -2.9883662018892154e-02 -5.6694359161537744e-01 +5.7676067124262072e-03
-2.7000000000000011e+00 +7.9197934969326242e+00 +0.0000000000000000e+00 -2.6999999894707036e+00 -2.9883687409663896e-02 -5.6694437111860685e-01 +5.7673499289573257e-03
-2.8000000000000012e+00 +7.9197779170372353e+00 +0.0000000000000000e+00 -2.7999999882569040e+00 -2.9883706564075553e-02 -5.6694514464811618e-01 +5.7670900776752715e-03
-2.9000000000000012e+00 +7.9197617705889094e+00 +0.0000000000000000e+00 -2.8999999869532314e+00 -2.9883719894150045e-02 -5.6694591185439869e-01 +5.7668271227754829e-03
-3.0000000000000013e+00 +7.9197450575868809e+00 +0.0000000000000000e+00 -2.9999999855564754e+00 -2.9883727811934466e-02 -5.6694667238792162e-01 +5.7665610284522734e-03
-3.1000000000000014e+00 +7.9197277780303894e+00 +0.0000000000000000e+00 -3.0999999840634263e+00 -2.9883730729501977e-02 -5.6694742589912384e-01 +5.7662917588986607e-03
-3.2000000000000015e+00 +7.9197099319186828e+00 +0.0000000000000000e+00 -3.1999999824708740e+00 -2.9883729058953611e-02 -5.6694817203841563e-01 +5.7660192783061956e-03
-3.3000000000000016e+00 +7.9196915192510167e+00 +0.0000000000000000e+00 -3.2999999807756084e+00 -2.9883723212420072e-02 -5.6694891045617446e-01 +5.7657435508647820e-03
-3.4000000000000017e+00 +7.9196725400266530e+00 +0.0000000000000000e+00 -3.3999999789744200e+00 -2.9883713602063575e-02 -5.6694964080274590e-01 +5.7654645407625143e-03
-3.5000000000000018e+00 +7.9196529942448626e+00 +0.0000000000000000e+00 -3.4999999770640984e+00 -2.9883700640079620e-02 -5.6695036272843979e-01 +5.7651822121854912e-03
-3.6000000000000019e+00 +7.9196328819049251e+00 +0.0000000000000000e+00 -3.5999999750414333e+00 -2.9883684738698863e-02 -5.6695107588352911e-01 +5.7648965293176542e-03
-3.7000000000000020e+00 +7.9196122030061282e+00 +0.0000000000000000e+00 -3.6999999729032154e+00 -2.9883666310188916e-02 -5.6695177991824963e-01 +5.7646074563406065e-03
-3.8000000000000020e+00 +7.9195909575477694e+00 +0.0000000000000000e+00 -3.7999999706462342e+00 -2.9883645766856131e-02 -5.6695247448279562e-01 +5.7643149574334402e-03
-3.9000000000000021e+00 +7.9195691455291550e+00 +0.0000000000000000e+00 -3.8999999682672795e+00 -2.9883623521047474e-02 -5.6695315922731992e-01 +5.7640189967725717e-03
-4.0000000000000018e+00 +7.9195467669496020e+00 +0.0000000000000000e+00 -3.9999999657631418e+00 -2.9883599985152321e-02 -5.6695383380193187e-01 +5.7637195385315584e-03
-4.1000000000000014e+00 +7.9195238218084363e+00 +0.0000000000000000e+00 -4.0999999631306103e+00 -2.9883575532309796e-02 -5.6695449803960385e-01 +5.7634165524623341e-03
-4.2000000000000011e+00 +7.9195003101049952e+00 +0.0000000000000000e+00 -4.1999999603664753e+00 -2.9883550378503813e-02 -5.6695515250491690e-01 +5.7631100306403307e-03
-4.3000000000000007e+00 +7.9194762318386251e+00 +0.0000000000000000e+00 -4.2999999574675272e+00 -2.9883524700405499e-02 -5.6695579794536710e-01 +5.7627999707220226e-03
-4.4000000000000004e+00 +7.9194515870086821e+00 +0.0000000000000000e+00 -4.3999999544305552e+00 -2.9883498674659729e-02 -5.6695643510846239e-01 +5.7624863703637924e-03
-4.5000000000000000e+00 +7.9194263756145302e+00 +0.0000000000000000e+00 -4.4999999512523496e+00 -2.9883472477882683e-02 -5.6695706474172558e-01 +5.7621692272219471e-03
-4.5999999999999996e+00 +7.9194005976555406e+00 +0.0000000000000000e+00 -4.5999999479296996e+00 -2.9883446286659524e-02 -5.6695768759269505e-01 +5.7618485389527340e-03
-4.6999999999999993e+00 +7.9193742531310916e+00 +0.0000000000000000e+00 -4.6999999444593961e+00 -2.9883420277541858e-02 -5.6695830440892592e-01 +5.7615243032123611e-03
-4.7999999999999989e+00 +7.9193473420405676e+00 +0.0000000000000000e+00 -4.7999999408382283e+00 -2.9883394627045475e-02 -5.6695891593799375e-01 +5.7611965176570194e-03
-4.8999999999999986e+00 +7.9193198643833584e+00 +0.0000000000000000e+00 -4.8999999370629865e+00 -2.9883369511647846e-02 -5.6695952292749452e-01 +5.7608651799428909e-03
-4.9999999999999982e+00 +7.9192918201588594e+00 +0.0000000000000000e+00 -4.9999999331304599e+00 -2.9883345107785762e-02 -5.6696012612504654e-01 +5.7605302877261786e-03
-5.0999999999999979e+00 +7.9192632093664672e+00 +0.0000000000000000e+00 -5.0999999290374385e+00 -2.9883321591852936e-02 -5.6696072627829419e-01 +5.7601918386631194e-03
-5.1999999999999975e+00 +7.9192340320055834e+00 +0.0000000000000000e+00 -5.1999999247807125e+00 -2.9883299140197571e-02 -5.6696132413490652e-01 +5.7598498304100030e-03
-5.2999999999999972e+00 +7.9192042880756111e+00 +0.0000000000000000e+00 -5.2999999203570720e+00 -2.9883277929119996e-02 -5.6696192044258154e-01 +5.7595042606231901e-03
-5.3999999999999968e+00 +7.9191739775759560e+00 +0.0000000000000000e+00 -5.3999999157633063e+00 -2.9883258134870187e-02 -5.6696251594904679e-01 +5.7591551269591300e-03
-5.4999999999999964e+00 +7.9191431005060231e+00 +0.0000000000000000e+00 -5.4999999109962054e+00 -2.9883239933645455e-02 -5.6696311140206135e-01 +5.7588024270743849e-03
-5.5999999999999961e+00 +7.9191116568652191e+00 +0.0000000000000000e+00 -5.5999999060525587e+00 -2.9883223501587987e-02 -5.6696370754941772e-01 +5.7584461586256382e-03
-5.6999999999999957e+00 +7.9190796466529481e+00 +0.0000000000000000e+00 -5.6999999009291562e+00 -2.9883209014782430e-02 -5.6696430513894314e-01 +5.7580863192697191e-03
-5.7999999999999954e+00 +7.9190470698686148e+00 +0.0000000000000000e+00 -5.7999998956227881e+00 -2.9883196649253544e-02 -5.6696490491850182e-01 +5.7577229066636225e-03
-5.8999999999999950e+00 +7.9190139265116208e+00 +0.0000000000000000e+00 -5.8999998901302435e+00 -2.9883186580963707e-02 -5.6696550763599662e-01 +5.7573559184645254e-03
-5.9999999999999947e+00 +7.9189802165813648e+00 +0.0000000000000000e+00 -5.9999998844483127e+00 -2.9883178985810600e-02 -5.6696611403937036e-01 +5.7569853523297973e-03
-6.0999999999999943e+00 +7.9189459400772408e+00 +0.0000000000000000e+00 -6.0999998785737848e+00 -2.9883173957332344e-02 -5.6696672483969968e-01 +5.7566112278819677e-03
-6.1999999999999940e+00 +7.9189110969986407e+00 +0.0000000000000000e+00 -6.1999998725034500e+00 -2.9883171259857781e-02 -5.6696734060046361e-01 +5.7562336526043832e-03
-6.2999999999999936e+00 +7.9188756873449497e+00 +0.0000000000000000e+00 -6.2999998662340984e+00 -2.9883170575437445e-02 -5.6696796184825415e-01 +5.7558527559472975e-03
-6.3999999999999932e+00 +7.9188397111155489e+00 +0.0000000000000000e+00 -6.3999998597625192e+00 -2.9883171586145535e-02 -5.6696858910968384e-01 +5.7554686673630074e-03
-6.4999999999999929e+00 +7.9188031683098110e+00 +0.0000000000000000e+00 -6.4999998530855017e+00 -2.9883173974081211e-02 -5.6696922291138685e-01 +5.7550815163059377e-03
-6.5999999999999925e+00 +7.9187660589271047e+00 +0.0000000000000000e+00 -6.5999998461998359e+00 -2.9883177421370033e-02 -5.6696986378001890e-01 +5.7546914322327315e-03
-6.6999999999999922e+00 +7.9187283829667914e+00 +0.0000000000000000e+00 -6.6999998391023121e+00 -2.9883181610165260e-02 -5.6697051224225814e-01 +5.7542985446023273e-03
-6.7999999999999918e+00 +7.9186901404282235e+00 +0.0000000000000000e+00 -6.7999998317897195e+00 -2.9883186222649277e-02 -5.6697116882480703e-01 +5.7539029828760557e-03
-6.8999999999999915e+00 +7.9186513313107456e+00 +0.0000000000000000e+00 -6.8999998242588472e+00 -2.9883190941034931e-02 -5.6697183405439078e-01 +5.7535048765177208e-03
-6.9999999999999911e+00 +7.9186119556136951e+00 +0.0000000000000000e+00 -6.9999998165064854e+00 -2.9883195447566943e-02 -5.6697250845776070e-01 +5.7531043549936831e-03
-7.0999999999999908e+00 +7.9185720133363988e+00 +0.0000000000000000e+00 -7.0999998085294234e+00 -2.9883199424523225e-02 -5.6697319256169276e-01 +5.7527015477729483e-03
-7.1999999999999904e+00 +7.9185315044781746e+00 +0.0000000000000000e+00 -7.1999998003244512e+00 -2.9883202554216306e-02 -5.6697388689298978e-01 +5.7522965843272529e-03
-7.2999999999999901e+00 +7.9184904290383296e+00 +0.0000000000000000e+00 -7.2999997918883581e+00 -2.9883204518994667e-02 -5.6697459197848077e-01 +5.7518895941311519e-03
-7.3999999999999897e+00 +7.9184487870161604e+00 +0.0000000000000000e+00 -7.3999997832179343e+00 -2.9883205001244181e-02 -5.6697530834502330e-01 +5.7514807066621036e-03
-7.4999999999999893e+00 +7.9184065784109521e+00 +0.0000000000000000e+00 -7.4999997743099680e+00 -2.9883203683389384e-02 -5.6697603651950235e-01 +5.7510700514005432e-03
-7.5999999999999890e+00 +7.9183638032219790e+00 +0.0000000000000000e+00 -7.5999997651612503e+00 -2.9883200247894957e-02 -5.6697677702883331e-01 +5.7506577578299986e-03
-7.6999999999999886e+00 +7.9183204614485021e+00 +0.0000000000000000e+00 -7.6999997557685695e+00 -2.9883194377267022e-02 -5.6697753039995991e-01 +5.7502439554371395e-03
-7.7999999999999883e+00 +7.9182765530897701e+00 +0.0000000000000000e+00 -7.7999997461287158e+00 -2.9883185754054579e-02 -5.6697829715985770e-01 +5.7498287737118882e-03
-7.8999999999999879e+00 +7.9182320781450182e+00 +0.0000000000000000e+00 -7.8999997362384784e+00 -2.9883174060850864e-02 -5.6697907783553270e-01 +5.7494123421474976e-03
-7.9999999999999876e+00 +7.9181870366134675e+00 +0.0000000000000000e+00 -7.9999997260946465e+00 -2.9883158980294689e-02 -5.6697987295402308e-01 +5.7489947902406311e-03
-8.0999999999999872e+00 +7.9181414284943248e+00 +0.0000000000000000e+00 -8.0999997156940093e+00 -2.9883140400802071e-02 -5.6698068272853719e-01 +5.7485762637476956e-03
-8.1999999999999869e+00 +7.9180952537867819e+00 +0.0000000000000000e+00 -8.1999997050333562e+00 -2.9883119033741863e-02 -5.6698150611684361e-01 +5.7481569734498085e-03
-8.2999999999999865e+00 +7.9180485124900182e+00 +0.0000000000000000e+00 -8.2999996941094771e+00 -2.9883095796202193e-02 -5.6698234176284346e-01 +5.7477371463761110e-03
-8.3999999999999861e+00 +7.9180012046032004e+00 +0.0000000000000000e+00 -8.3999996829191623e+00 -2.9883071605250531e-02 -5.6698318831043459e-01 +5.7473170095458754e-03
-8.4999999999999858e+00 +7.9179533301254841e+00 +0.0000000000000000e+00 -8.4999996714592001e+00 -2.9883047377932993e-02 -5.6698404440351213e-01 +5.7468967899682016e-03
-8.5999999999999854e+00 +7.9179048890560155e+00 +0.0000000000000000e+00 -8.5999996597263788e+00 -2.9883024031273481e-02 -5.6698490868596640e-01 +5.7464767146416873e-03
-8.6999999999999851e+00 +7.9178558813939324e+00 +0.0000000000000000e+00 -8.6999996477174903e+00 -2.9883002482272998e-02 -5.6698577980168385e-01 +5.7460570105541181e-03
-8.7999999999999847e+00 +7.9178063071383660e+00 +0.0000000000000000e+00 -8.7999996354293213e+00 -2.9882983647908919e-02 -5.6698665639454615e-01 +5.7456379046821561e-03
-8.8999999999999844e+00 +7.9177561662884415e+00 +0.0000000000000000e+00 -8.8999996228586618e+00 -2.9882968445134168e-02 -5.6698753710843064e-01 +5.7452196239910240e-03
-8.9999999999999840e+00 +7.9177054588432814e+00 +0.0000000000000000e+00 -8.9999996100023019e+00 -2.9882957790876522e-02 -5.6698842058720811e-01 +5.7448023954341848e-03
-9.0999999999999837e+00 +7.9176541848020037e+00 +0.0000000000000000e+00 -9.0999995968570300e+00 -2.9882952602037802e-02 -5.6698930547474424e-01 +5.7443864459530260e-03
-9.1999999999999833e+00 +7.9176023441637264e+00 +0.0000000000000000e+00 -9.1999995834196362e+00 -2.9882953795493175e-02 -5.6699019041489818e-01 +5.7439720024765502e-03
-9.2999999999999829e+00 +7.9175499369275668e+00 +0.0000000000000000e+00 -9.2999995696869089e+00 -2.9882962288090315e-02 -5.6699107405152216e-01 +5.7435592919210590e-03
-9.3999999999999826e+00 +7.9174969630926446e+00 +0.0000000000000000e+00 -9.3999995556556382e+00 -2.9882978996648761e-02 -5.6699195502846256e-01 +5.7431485411898325e-03
-9.4999999999999822e+00 +7.9174434226580797e+00 +0.0000000000000000e+00 -9.4999995413226124e+00 -2.9883004837959023e-02 -5.6699283198955686e-01 +5.7427399771728185e-03
-9.5999999999999819e+00 +7.9173893156229989e+00 +0.0000000000000000e+00 -9.5999995266846216e+00 -2.9883040728781930e-02 -5.6699370357863543e-01 +5.7423338267463108e-03
-9.6999999999999815e+00 +7.9173346419865318e+00 +0.0000000000000000e+00 -9.6999995117384543e+00 -2.9883087585847814e-02 -5.6699456843952123e-01 +5.7419303167726473e-03
-9.7999999999999812e+00 +7.9172794017478170e+00 +0.0000000000000000e+00 -9.7999994964808987e+00 -2.9883146325855738e-02 -5.6699542521602686e-01 +5.7415296740998692e-03
-9.8999999999999808e+00 +7.9172235949059999e+00 +0.0000000000000000e+00 -9.8999994809087450e+00 -2.9883217865472770e-02 -5.6699627255195773e-01 +5.7411321255614401e-03
-9.9999999999999805e+00 +7.9171672214602360e+00 +0.0000000000000000e+00 -9.9999994650187833e+00 -2.9883303121333207e-02 -5.6699710909110879e-01 +5.7407378979758943e-03
-1.0099999999999980e+01 +7.9171102814096903e+00 +0.0000000000000000e+00 -1.0099999448807802e+01 -2.9883402671290294e-02 -5.6699793376938545e-01 +5.7403471453274122e-03
-1.0199999999999980e+01 +7.9170527747535413e+00 +0.0000000000000000e+00 -1.0199999432272589e+01 -2.9883515738159123e-02 -5.6699874669116623e-01 +5.7399597303123776e-03
-1.0299999999999979e+01 +7.9169947014909781e+00 +0.0000000000000000e+00 -1.0299999415409935e+01 -2.9883641205982872e-02 -5.6699954825290633e-01 +5.7395754428148007e-03
-1.0399999999999979e+01 +7.9169360616212021e+00 +0.0000000000000000e+00 -1.0399999398216629e+01 -2.9883777958792983e-02 -5.6700033885100309e-01 +5.7391940727303612e-03
-1.0499999999999979e+01 +7.9168768551434248e+00 +0.0000000000000000e+00 -1.0499999380689458e+01 -2.9883924880608963e-02 -5.6700111888179494e-01 +5.7388154099667485e-03
-1.0599999999999978e+01 +7.9168170820568680e+00 +0.0000000000000000e+00 -1.0599999362825212e+01 -2.9884080855438200e-02 -5.6700188874155988e-01 +5.7384392444440168e-03
-1.0699999999999978e+01 +7.9167567423607652e+00 +0.0000000000000000e+00 -1.0699999344620682e+01 -2.9884244767275803e-02 -5.6700264882651319e-01 +5.7380653660949292e-03
-1.0799999999999978e+01 +7.9166958360543580e+00 +0.0000000000000000e+00 -1.0799999326072657e+01 -2.9884415500104462e-02 -5.6700339953280743e-01 +5.7376935648653102e-03
-1.0899999999999977e+01 +7.9166343631368985e+00 +0.0000000000000000e+00 -1.0899999307177923e+01 -2.9884591937894254e-02 -5.6700414125652887e-01 +5.7373236307143921e-03
-1.0999999999999977e+01 +7.9165723236076468e+00 +0.0000000000000000e+00 -1.0999999287933271e+01 -2.9884772964602475e-02 -5.6700487439369840e-01 +5.7369553536151729e-03
-1.1099999999999977e+01 +7.9165097174658730e+00 +0.0000000000000000e+00 -1.1099999268335491e+01 -2.9884957464173498e-02 -5.6700559934026740e-01 +5.7365885235547507e-03
-1.1199999999999976e+01 +7.9164465447108547e+00 +0.0000000000000000e+00 -1.1199999248381371e+01 -2.9885144320538588e-02 -5.6700631649211908e-01 +5.7362229305346884e-03
-1.1299999999999976e+01 +7.9163828053418763e+00 +0.0000000000000000e+00 -1.1299999228067700e+01 -2.9885332417615748e-02 -5.6700702624506372e-01 +5.7358583645713531e-03
-1.1399999999999975e+01 +7.9163184993582316e+00 +0.0000000000000000e+00 -1.1399999207391266e+01 -2.9885520639309552e-02 -5.6700772899484042e-01 +5.7354946156962681e-03
-1.1499999999999975e+01 +7.9162536267592198e+00 +0.0000000000000000e+00 -1.1499999186348859e+01 -2.9885707869510992e-02 -5.6700842513711358e-01 +5.7351314739564705e-03
-1.1599999999999975e+01 +7.9161881875441473e+00 +0.0000000000000000e+00 -1.1599999164937268e+01 -2.9885892992097284e-02 -5.6700911506747109e-01 +5.7347687294148440e-03
-1.1699999999999974e+01 +7.9161221817123266e+00 +0.0000000000000000e+00 -1.1699999143153283e+01 -2.9886074890931764e-02 -5.6700979918142491e-01 +5.7344061721504918e-03
