# multipoles
# s[mm] polynom_b[n=0][T/m^n] polynom_b[n=1][T/m^n] polynom_b[n=2][T/m^n] polynom_b[n=3][T/m^n] polynom_b[n=4][T/m^n] polynom_b[n=5][T/m^n] polynom_b[n=6][T/m^n] 
+0.0000000000000000e+00 -5.6433807647046075e-01 +7.7310816017614918e+00 -2.9544138627770827e-01 +1.2154771572071208e+01 -4.3622879729924916e+03 -2.4555647145171810e+05 +1.5816917616744054e+07 
-1.0000000000000001e-01 -5.6433811976486981e-01 +7.7310983502033546e+00 -2.9902363665418236e-01 +1.1626747602044233e+01 -4.2883285421929850e+03 -2.4264887517649078e+05 +1.5413060207984354e+07 
-2.0000000000000001e-01 -5.6433817347666648e-01 +7.7311158444830861e+00 -3.0195972889171702e-01 +1.1099912721306174e+01 -4.2230941027678991e+03 -2.3982500279272257e+05 +1.5042947706450468e+07 
-3.0000000000000004e-01 -5.6433823748292322e-01 +7.7311340234422508e+00 -3.0427438724239231e-01 +1.0574773092014993e+01 -4.1663644111985177e+03 -2.3708033680329970e+05 +1.4706157574874753e+07 
-4.0000000000000002e-01 -5.6433831166073545e-01 +7.7311528259144158e+00 -3.0599233421226268e-01 +1.0051835102190729e+01 -4.1179192514291863e+03 -2.3441036100828971e+05 +1.4402267396958720e+07 
-5.0000000000000000e-01 -5.6433839588717460e-01 +7.7311721907382891e+00 -3.0713829508084650e-01 +9.5316049704573782e+00 -4.0775383559039587e+03 -2.3181055817489000e+05 +1.4130854516513592e+07 
-5.9999999999999998e-01 -5.6433849003933700e-01 +7.7311920567411123e+00 -3.0773699237316121e-01 +9.0145892426922458e+00 -4.0450015073957397e+03 -2.2927641296271770e+05 +1.3891496514278349e+07 
-6.9999999999999996e-01 -5.6433859399429709e-01 +7.7312123627541478e+00 -3.0781315197962461e-01 +8.5012943378023849e+00 -4.0200884209366786e+03 -2.2680340928143641e+05 +1.3683770640512696e+07 
-7.9999999999999993e-01 -5.6433870762914973e-01 +7.7312330476065352e+00 -3.0739149686744643e-01 +7.9922267353495888e+00 -4.0025788702891477e+03 -2.2438703140830749e+05 +1.3507254433571950e+07 
-8.9999999999999991e-01 -5.6433883082096403e-01 +7.7312540501223799e+00 -3.0649675398665827e-01 +7.4878930554855447e+00 -3.9922525515301127e+03 -2.2202276444579085e+05 +1.3361525060045881e+07 
-9.9999999999999989e-01 -5.6433896344683032e-01 +7.7312753091280610e+00 -3.0515364715232091e-01 +6.9887998549914219e+00 -3.9888892228954933e+03 -2.1970609316046760e+05 +1.3246159986504866e+07 
-1.0999999999999999e+00 -5.6433910538384691e-01 +7.7312967634480785e+00 -3.0338689945894931e-01 +6.4954537527102731e+00 -3.9922686578566495e+03 -2.1743250273531326e+05 +1.3160736757047411e+07 
-1.2000000000000000e+00 -5.6433925650907568e-01 +7.7313183519057285e+00 -3.0122123839547893e-01 +6.0083613981944302e+00 -4.0021705495531260e+03 -2.1519747855292715e+05 +1.3104832540978299e+07 
-1.3000000000000000e+00 -5.6433941669961973e-01 +7.7313400133237877e+00 -2.9868138639396358e-01 +5.5280294764192464e+00 -4.0183746877466856e+03 -2.1299650630147575e+05 +1.3078024965545150e+07 
-1.4000000000000001e+00 -5.6433958583255872e-01 +7.7313616865286985e+00 -2.9579206850356077e-01 +5.0549645644949130e+00 -4.0406608196327147e+03 -2.1082507108279722e+05 +1.3079891474691650e+07 
-1.5000000000000002e+00 -5.6433976378497586e-01 +7.7313833103423626e+00 -2.9257800911954707e-01 +4.5896733990136642e+00 -4.0688087086113583e+03 -2.0867865905088309e+05 +1.3110009595146891e+07 
-1.6000000000000003e+00 -5.6433995043395491e-01 +7.7314048235913777e+00 -2.8906393260933716e-01 +4.1326625835625022e+00 -4.1025981204899399e+03 -2.0655275564994858e+05 +1.3167956866249884e+07 
-1.7000000000000004e+00 -5.6434014565659929e-01 +7.7314261651024081e+00 -2.8527455986119310e-01 +3.6844387508793925e+00 -4.1418088996157912e+03 -2.0444284664097067e+05 +1.3253311231122233e+07 
-1.8000000000000005e+00 -5.6434034932997834e-01 +7.7314472737012352e+00 -2.8123461647039422e-01 +3.2455085695324080e+00 -4.1862208013083618e+03 -2.0234441807866262e+05 +1.3365650205567745e+07 
-1.9000000000000006e+00 -5.6434056133119004e-01 +7.7314680882195486e+00 -2.7696882336531203e-01 +2.8163785709438787e+00 -4.2356136804842954e+03 -2.0025295538929923e+05 +1.3504551802346814e+07 
-2.0000000000000004e+00 -5.6434078153731893e-01 +7.7314885474887118e+00 -2.7250190331386298e-01 +2.3975553177916935e+00 -4.2897673623505216e+03 -1.9816394431015119e+05 +1.3669593901890863e+07 
-2.1000000000000005e+00 -5.6434100972400414e-01 +7.7315085768607119e+00 -2.6786428486614339e-01 +1.9900191316594802e+00 -4.3483262600755652e+03 -1.9607716867655129e+05 +1.3859641544672417e+07 
-2.2000000000000006e+00 -5.6434124525700402e-01 +7.7315280489570872e+00 -2.6310962492174012e-01 +1.5965673867205499e+00 -4.4103875285319891e+03 -1.9400913505141748e+05 +1.4070706963780493e+07 
-2.3000000000000007e+00 -5.6434148739857715e-01 +7.7315468235015290e+00 -2.5829748835018895e-01 +1.2204328151458197e+00 -4.4749100818794868e+03 -1.9198041937057878e+05 +1.4298088672924891e+07 
-2.4000000000000008e+00 -5.6434173541095534e-01 +7.7315647602230273e+00 -2.5348744358559361e-01 +8.6484801104837661e-01 -4.5408527674913976e+03 -1.9001159683577894e+05 +1.4537084875833580e+07 
-2.5000000000000009e+00 -5.6434198855636419e-01 +7.7315817188573348e+00 -2.4873905871593480e-01 +5.3304536280811776e-01 -4.6071744479963481e+03 -1.8812324144461410e+05 +1.4782993875355551e+07 
-2.6000000000000010e+00 -5.6434224609702965e-01 +7.7315975591437196e+00 -2.4411190189896340e-01 +2.2825716072066526e-01 -4.6728339856524990e+03 -1.8633592665659107e+05 +1.5031113981088568e+07 
-2.7000000000000011e+00 -5.6434250729514401e-01 +7.7316121408261207e+00 -2.3966554517260572e-01 -4.6284432259828291e-02 -4.7367901713002484e+03 -1.8467022521979627e+05 +1.5276743173739625e+07 
-2.8000000000000012e+00 -5.6434277141287059e-01 +7.7316253236587800e+00 -2.3545956341878818e-01 -2.8734756850599236e-01 -4.7980017496334713e+03 -1.8314670802626235e+05 +1.5515179242680887e+07 
-2.9000000000000012e+00 -5.6434303771239069e-01 +7.7316369673951106e+00 -2.3155352884467056e-01 -4.9170036463182232e-01 -4.8554275186431450e+03 -1.8178594620835560e+05 +1.5741720243837832e+07 
-3.0000000000000013e+00 -5.6434330545583478e-01 +7.7316469318024010e+00 -2.2800701990150610e-01 -6.5611135049590330e-01 -4.9080261593023006e+03 -1.8060850847988439e+05 +1.5951663687985567e+07 
-3.1000000000000014e+00 -5.6434357390532619e-01 +7.7316550766460841e+00 -2.2487961514770974e-01 -7.7734899526350654e-01 -4.9547563575712984e+03 -1.7963496393255302e+05 +1.6140307137394557e+07 
-3.2000000000000015e+00 -5.6434384232297241e-01 +7.7316612617073606e+00 -2.2223089477879476e-01 -8.5218224054203195e-01 -4.9945767696005441e+03 -1.7888587886539340e+05 +1.6302948023700917e+07 
-3.3000000000000016e+00 -5.6434410997084539e-01 +7.7316653467725294e+00 -2.2012044269367498e-01 -8.7738017903695631e-01 -5.0264459879502792e+03 -1.7838181869905617e+05 +1.6434883504220767e+07 
-3.4000000000000017e+00 -5.6434437611100408e-01 +7.7316671916343065e+00 -2.1860784399738575e-01 -8.4971209221372646e-01 -5.0493225836145957e+03 -1.7814334774352424e+05 +1.6531410646104980e+07 
-3.5000000000000018e+00 -5.6434464000545015e-01 +7.7316666560944389e+00 -2.1775269033154354e-01 -7.6594752849273839e-01 -5.0621650087881817e+03 -1.7819102874047987e+05 +1.6587825977171380e+07 
-3.6000000000000019e+00 -5.6434490091621803e-01 +7.7316635999660823e+00 -2.1761456873877563e-01 -6.2285638014827560e-01 -5.0639318067254444e+03 -1.7854542239076091e+05 +1.6599426479546934e+07 
-3.7000000000000020e+00 -5.6434515810525288e-01 +7.7316578830669416e+00 -2.1825307689752993e-01 -4.1720867749473639e-01 -5.0535813218845515e+03 -1.7922708856270535e+05 +1.6561508210041177e+07 
-3.8000000000000020e+00 -5.6434541083451251e-01 +7.7316493652319407e+00 -2.1972780990736754e-01 -1.4577496018674641e-01 -5.0300719523723265e+03 -1.8025658413134201e+05 +1.6469367504317582e+07 
-3.9000000000000021e+00 -5.6434565836590433e-01 +7.7316379062985199e+00 -2.2209836877224912e-01 +1.9467415029462970e-01 -4.9923619885725357e+03 -1.8165446545653741e+05 +1.6318300211783923e+07 
-4.0000000000000018e+00 -5.6434589996130624e-01 +7.7316233661201341e+00 -2.2542435737106570e-01 +6.0736755291681332e-01 -4.9394096693378460e+03 -1.8344128604803552e+05 +1.6103601957803372e+07 
-4.1000000000000014e+00 -5.6434613514265419e-01 +7.7316056520725045e+00 -2.2973995833637476e-01 +1.0944062434667443e+00 -4.8706149316489073e+03 -1.8563108119761775e+05 +1.5822524224263592e+07 
-4.2000000000000011e+00 -5.6434636447882458e-01 +7.7315848547127803e+00 -2.3497798755567004e-01 +1.6535409371869050e+00 -4.7871336124509044e+03 -1.8821249507762745e+05 +1.5480062057598731e+07 
-4.3000000000000007e+00 -5.6434658880212374e-01 +7.7315611087120208e+00 -2.4104598368578486e-01 +2.2814735441481395e+00 -4.6905581482561793e+03 -1.9116798100114299e+05 +1.5083127971161153e+07 
-4.4000000000000004e+00 -5.6434680894489053e-01 +7.7315345487316147e+00 -2.4785148168950061e-01 +2.9749062821072805e+00 -4.5824810443140796e+03 -1.9447999410999165e+05 +1.4638634799729118e+07 
-4.5000000000000000e+00 -5.6434702573944784e-01 +7.7315053094245627e+00 -2.5530201811710007e-01 +3.7305416611364710e+00 -4.4644947744295087e+03 -1.9813099136515212e+05 +1.4153495220128307e+07 
-4.5999999999999996e+00 -5.6434724001812320e-01 +7.7314735254365283e+00 -2.6330512979209608e-01 +4.5450824245173447e+00 -4.3381918005023335e+03 -2.0210343111122327e+05 +1.3634621832421307e+07 
-4.6999999999999993e+00 -5.6434745261327779e-01 +7.7314393314018055e+00 -2.7176834910348097e-01 +5.4152316858880969e+00 -4.2051646671297967e+03 -2.0637977392839917e+05 +1.3088927621984292e+07 
-4.7999999999999989e+00 -5.6434766435723394e-01 +7.7314028619464574e+00 -2.8059921353063955e-01 +6.3376928491006668e+00 -4.0670058178565591e+03 -2.1094248220538927e+05 +1.2523325076583706e+07 
-4.8999999999999986e+00 -5.6434787608234704e-01 +7.7313642516796612e+00 -2.8970525662090268e-01 +7.3091698302591421e+00 -3.9253077676735484e+03 -2.1577402132758370e+05 +1.1944727011757458e+07 
-4.9999999999999982e+00 -5.6434808862099239e-01 +7.7313236352060057e+00 -2.9899401005698711e-01 +8.3263667342072001e+00 -3.7816630597291423e+03 -2.2085685790585898e+05 +1.1360046352229372e+07 
-5.0999999999999979e+00 -5.6434830280553783e-01 +7.7312811471120924e+00 -3.0837300641505616e-01 +9.3859882318563770e+00 -3.6376642167664663e+03 -2.2617346193000936e+05 +1.0776195910037210e+07 
-5.1999999999999975e+00 -5.6434851946835984e-01 +7.7312369219726191e+00 -3.1774977757828887e-01 +1.0484739379833574e+01 -3.4949037701014190e+03 -2.3170630570063091e+05 +1.0200088521300744e+07 
-5.2999999999999972e+00 -5.6434873944186270e-01 +7.7311910943502360e+00 -3.2703185239454896e-01 +1.1619325635507620e+01 -3.3549743012392014e+03 -2.3743786395316201e+05 +9.6386372330358904e+06 
-5.3999999999999968e+00 -5.6434896355844766e-01 +7.7311437987904759e+00 -3.3612676042998457e-01 +1.2786453005380556e+01 -3.2194683727055922e+03 -2.4335061471877698e+05 +9.0987549818072915e+06 
-5.4999999999999964e+00 -5.6434919265053163e-01 +7.7310951698221988e+00 -3.4494202950650965e-01 +1.3982828023310294e+01 -3.0899785756167666e+03 -2.4942703916996744e+05 +8.5873548208417315e+06 
-5.5999999999999961e+00 -5.6434942755054285e-01 +7.7310453419624539e+00 -3.5338518720594758e-01 +1.5205157625672028e+01 -2.9680974930099765e+03 -2.5564962094073300e+05 +8.1113497230633674e+06 
-5.6999999999999957e+00 -5.6434966909094053e-01 +7.7309944497083283e+00 -3.6136375686473243e-01 +1.6450149385665917e+01 -2.8554177882355466e+03 -2.6200084747661013e+05 +7.6776530353350528e+06 
-5.7999999999999954e+00 -5.6434991810419011e-01 +7.7309426275376794e+00 -3.6878526200599165e-01 +1.7714511481396521e+01 -2.7535321088550777e+03 -2.6846320982134022e+05 +7.2931779872595007e+06 
-5.8999999999999950e+00 -5.6435017542277133e-01 +7.7308900099164140e+00 -3.7555722463079205e-01 +1.8994952504718619e+01 -2.6640331265041495e+03 -2.7501920155470422e+05 +6.9648379016132215e+06 
-5.9999999999999947e+00 -5.6435044187918870e-01 +7.7308367312843593e+00 -3.8158716475588067e-01 +2.0288181857281455e+01 -2.5885135387350028e+03 -2.8165132102299674e+05 +6.6995461876503760e+06 
-6.0999999999999943e+00 -5.6435071805949921e-01 +7.7307829429412900e+00 -3.8680898550621540e-01 +2.1590496096342918e+01 -2.5280840127266224e+03 -2.8833954942129145e+05 +6.5020774408623176e+06 
-6.1999999999999940e+00 -5.6435100357014323e-01 +7.7307288767330515e+00 -3.9126200282225398e-01 +2.2896209631309024e+01 -2.4819262870759721e+03 -2.9505256769330846e+05 +6.3686299427839164e+06 
-6.2999999999999936e+00 -5.6435129777406712e-01 +7.7306747879485487e+00 -3.9501190881336323e-01 +2.4199057507541959e+01 -2.4487384122631806e+03 -3.0175591421971476e+05 +6.2932473453525584e+06 
-6.3999999999999932e+00 -5.6435160003426788e-01 +7.7306209318913286e+00 -3.9812439052437476e-01 +2.5492774253089419e+01 -2.4272185233487389e+03 -3.0841512418586097e+05 +6.2699736646625027e+06 
-6.4999999999999929e+00 -5.6435190971379667e-01 +7.7305675638601086e+00 -4.0066512892368911e-01 +2.6771094449579110e+01 -2.4160648632004259e+03 -3.1499573289041145e+05 +6.2928533977858787e+06 
-6.5999999999999925e+00 -5.6435222617573610e-01 +7.7305149391721040e+00 -4.0269980225689150e-01 +2.8027752045550780e+01 -2.4139757140512111e+03 -3.2146327173458808e+05 +6.3559311842452856e+06 
-6.6999999999999922e+00 -5.6435254878327046e-01 +7.7304633131502269e+00 -4.0429407641141712e-01 +2.9256480735390976e+01 -2.4196495879221579e+03 -3.2778327044308814e+05 +6.4532527328629317e+06 
-6.7999999999999918e+00 -5.6435287689960445e-01 +7.7304129411242357e+00 -4.0551361650416456e-01 +3.0451013897921108e+01 -2.4317849948821208e+03 -3.3392125663203595e+05 +6.5788636852742545e+06 
-6.8999999999999915e+00 -5.6435320988802695e-01 +7.7303640784369572e+00 -4.0642407767197952e-01 +3.1605084436438307e+01 -2.4490806287182822e+03 -3.3984275493879535e+05 +6.7268105303329881e+06 
-6.9999999999999911e+00 -5.6435354711189145e-01 +7.7303169804395653e+00 -4.0709110842631940e-01 +3.2712424903471366e+01 -2.4702352938980234e+03 -3.4551328771399008e+05 +6.8911402284697425e+06 
-7.0999999999999908e+00 -5.6435388793460861e-01 +7.7302719024908741e+00 -4.0758035059342063e-01 +3.3766767506969913e+01 -2.4939479163209462e+03 -3.5089837502251897e+05 +7.0659002905343287e+06 
-7.1999999999999904e+00 -5.6435423171966481e-01 +7.7302290999642080e+00 -4.0795743848311466e-01 +3.4761843919033709e+01 -2.5189175463967217e+03 -3.5596353355049068e+05 +7.2451387566510551e+06 
-7.2999999999999901e+00 -5.6435457783061649e-01 +7.7301888282457574e+00 -4.0828799823765999e-01 +3.5691385317254486e+01 -2.5438433821010794e+03 -3.6067427683971624e+05 +7.4229043344930094e+06 
-7.3999999999999897e+00 -5.6435492563110790e-01 +7.7301513427258790e+00 -4.0863764677011333e-01 +3.6549122627353107e+01 -2.5674247809096851e+03 -3.6499611665968812e+05 +7.5932464338227538e+06 
-7.4999999999999893e+00 -5.6435527448482370e-01 +7.7301168988116027e+00 -4.0907199649981391e-01 +3.7328786167028085e+01 -2.5883611773643943e+03 -3.6889456096890423e+05 +7.7502147935718112e+06 
-7.5999999999999890e+00 -5.6435562375555548e-01 +7.7300857519248387e+00 -4.0965664817124153e-01 +3.8024105680475429e+01 -2.6053522119252834e+03 -3.7233511406558083e+05 +7.8878600744980387e+06 
-7.6999999999999886e+00 -5.6435597280717609e-01 +7.7300581574955034e+00 -4.1045719387121093e-01 +3.8628810539233029e+01 -2.6170976752308234e+03 -3.7528327775948058e+05 +8.0002335982265631e+06 
-7.7999999999999883e+00 -5.6435632100362454e-01 +7.7300343709685313e+00 -4.1153921844911223e-01 +3.9136629541980362e+01 -2.6222974830754388e+03 -3.7770455021723604e+05 +8.0813872315856395e+06 
-7.8999999999999879e+00 -5.6435666770891479e-01 +7.7300146478040217e+00 -4.1296829892749559e-01 +3.9541290900317186e+01 -2.6196516865672002e+03 -3.7956442586385441e+05 +8.1253734345392277e+06 
-7.9999999999999876e+00 -5.6435701228718904e-01 +7.7299992434734435e+00 -4.1480999739185531e-01 +3.9836522335256170e+01 -2.6078606056724611e+03 -3.8082839599483757e+05 +8.1262458774439404e+06 
-8.0999999999999872e+00 -5.6435735428486367e-01 +7.7299883379525536e+00 -4.1711642492814022e-01 +4.0018095787045013e+01 -2.5858959587731470e+03 -3.8147380463474180e+05 +8.0793128626631852e+06 
-8.1999999999999869e+00 -5.6435769394801427e-01 +7.7299818004301661e+00 -4.1988589323750158e-01 +4.0090353990564324e+01 -2.5538444881077248e+03 -3.8152716614815011e+05 +7.9851398419699594e+06 
-8.2999999999999865e+00 -5.6435803169038679e-01 +7.7299794198850726e+00 -4.2310322023411318e-01 +4.0059893830807034e+01 -2.5120807128657502e+03 -3.8102781829073053e+05 +7.8456739923978457e+06 
-8.3999999999999861e+00 -5.6435836792571226e-01 +7.7299809852967067e+00 -4.2675322649800906e-01 +3.9933312211862919e+01 -2.4609791018152137e+03 -3.8001509903098713e+05 +7.6628622646717597e+06 
-8.4999999999999858e+00 -5.6435870306761793e-01 +7.7299862856461328e+00 -4.3082074590446745e-01 +3.9717206017309998e+01 -2.4009138745698669e+03 -3.7852834634853393e+05 +7.4386504536623089e+06 
-8.5999999999999854e+00 -5.6435903752972050e-01 +7.7299951099202309e+00 -4.3529061502185279e-01 +3.9418171988329611e+01 -2.3322591926809982e+03 -3.7660689755155391e+05 +7.1749840768413385e+06 
-8.6999999999999851e+00 -5.6435937172558004e-01 +7.7300072470984365e+00 -4.4014767854369652e-01 +3.9042807115980871e+01 -2.2553890612251294e+03 -3.7429009155007493e+05 +6.8738079226895878e+06 
-8.7999999999999847e+00 -5.6435970606865626e-01 +7.7300224861704656e+00 -4.4537679391742063e-01 +3.8597708118357623e+01 -2.1706772456364824e+03 -3.7161726581831696e+05 +6.5370656671075448e+06 
-8.8999999999999844e+00 -5.6436004097241188e-01 +7.7300406161215376e+00 -4.5096281989283948e-01 +3.8089471879171739e+01 -2.0784974798136159e+03 -3.6862775895538292e+05 +6.1667008382019578e+06 
-8.9999999999999840e+00 -5.6436037685019225e-01 +7.7300614259411864e+00 -4.5689063000919228e-01 +3.7524695193844430e+01 -1.9792232214305443e+03 -3.6536090922845021e+05 +5.7646556865470884e+06 
-9.0999999999999837e+00 -5.6436071411532118e-01 +7.7300847046188181e+00 -4.6314510227881961e-01 +3.6909974886262482e+01 -1.8732278337809578e+03 -3.6185605521041184e+05 +5.3328720082023302e+06 
-9.1999999999999833e+00 -5.6436105318103014e-01 +7.7301102411447085e+00 -4.6971112686027267e-01 +3.6251907807590946e+01 -1.7608844533122913e+03 -3.5815253585848073e+05 +4.8732905564944623e+06 
-9.2999999999999829e+00 -5.6436139446049827e-01 +7.7301378245142818e+00 -4.7657360107786934e-01 +3.5557090684058480e+01 -1.6425660792601982e+03 -3.5428968954428058e+05 +4.3878514515431188e+06 
-9.3999999999999826e+00 -5.6436173836683001e-01 +7.7301672437199196e+00 -4.8371743345160390e-01 +3.4832120378082521e+01 -1.5186454912341833e+03 -3.5030685564820911e+05 +3.8784937746424018e+06 
-9.4999999999999822e+00 -5.6436208531305465e-01 +7.7301982877577675e+00 -4.9112754183533136e-01 +3.4083593682256883e+01 -1.3894952987993499e+03 -3.4624337333240773e+05 +3.3471558436840363e+06 
-9.5999999999999819e+00 -5.6436243571214151e-01 +7.7302307456240875e+00 -4.9878885354373176e-01 +3.3318107430277955e+01 -1.2554879223573701e+03 -3.4213858220446378e+05 +2.7957750763143478e+06 
-9.6999999999999815e+00 -5.6436278997696054e-01 +7.7302644063184340e+00 -5.0668630903849987e-01 +3.2542258403271376e+01 -1.1169955351310361e+03 -3.3803182177007297e+05 +2.2262877484600516e+06 
-9.7999999999999812e+00 -5.6436314852033220e-01 +7.7302990588379377e+00 -5.1480485568508250e-01 +3.1762643495560681e+01 -9.7439017886578949e+02 -3.3396243239198514e+05 +1.6406295365731218e+06 
-9.8999999999999808e+00 -5.6436351175496291e-01 +7.7303344921871586e+00 -5.2312945683724377e-01 +3.0985859440709859e+01 -8.2804358808927839e+02 -3.2996975374435517e+05 +1.0407346748516934e+06 
-9.9999999999999805e+00 -5.6436388009350669e-01 +7.7303704953659018e+00 -5.3164508257282594e-01 +3.0218503157575981e+01 -6.7832737223556205e+02 -3.2609312676999933e+05 +4.2853683823387400e+05 
-1.0099999999999980e+01 -5.6436425388949552e-01 +7.7304068794759582e+00 -5.4032971901959881e-01 +2.9466235946964819e+01 -5.2572311924509893e+02 -3.2236581314043928e+05 -1.9362780796406066e+05 
