# multipoles
# s[mm] polynom_b[n=0][T/m^n] polynom_b[n=1][T/m^n] polynom_b[n=2][T/m^n] polynom_b[n=3][T/m^n] polynom_b[n=4][T/m^n] polynom_b[n=5][T/m^n] polynom_b[n=6][T/m^n] 
+0.0000000000000000e+00 -5.9506615633664972e-01 +8.1211933296992918e+00 -4.1677955430304431e-01 -6.2677782621273252e+01 -1.9660225952374649e+03 +8.3888801696148410e+04 +1.0461828533706762e+07 
+1.0000000000000001e-01 -5.9506600687970457e-01 +8.1211549645283245e+00 -4.1770822254059270e-01 -6.1843810728527615e+01 -1.9837796594596034e+03 +7.9196842544172323e+04 +1.0610461348520484e+07 
+2.0000000000000001e-01 -5.9506586641147641e-01 +8.1211116118379536e+00 -4.1777541201029533e-01 -6.0860554221949968e+01 -2.0070649834796820e+03 +7.3700876735061989e+04 +1.0750508478482809e+07 
+3.0000000000000004e-01 -5.9506573446794864e-01 +8.1210640347417655e+00 -4.1704244189647388e-01 -5.9749229125510894e+01 -2.0355231375976564e+03 +6.7517006388428621e+04 +1.0882985866660090e+07 
+4.0000000000000002e-01 -5.9506561058510932e-01 +8.1210129963406583e+00 -4.1557063038261294e-01 -5.8531051144521683e+01 -2.0687987194888956e+03 +6.0761332081837769e+04 +1.1008909617819285e+07 
+5.0000000000000000e-01 -5.9506549429890465e-01 +8.1209592597315936e+00 -4.1342130075940164e-01 -5.7227235894662400e+01 -2.1065362354347071e+03 +5.3549954098346076e+04 +1.1129295422979886e+07 
+5.9999999999999998e-01 -5.9506538514532026e-01 +8.1209035880024025e+00 -4.1065577173421070e-01 -5.5858998774398287e+01 -2.1483802803249905e+03 +4.5998971702488067e+04 +1.1245159403763652e+07 
+6.9999999999999996e-01 -5.9506528266032743e-01 +8.1208467442406853e+00 -4.0733536339046550e-01 -5.4447555183629277e+01 -2.1939754274190659e+03 +3.8224484283507576e+04 +1.1357517592490267e+07 
+7.9999999999999993e-01 -5.9506518637989636e-01 +8.1207894915279386e+00 -4.0352139631495487e-01 -5.3014120376465314e+01 -2.2429662390429426e+03 +3.0342590530677437e+04 +1.1467385964615371e+07 
+8.9999999999999991e-01 -5.9506509584003531e-01 +8.1207325929452185e+00 -3.9927518674795603e-01 -5.1579909593999552e+01 -2.2949973588486241e+03 +2.2469389081282556e+04 +1.1575780878336757e+07 
+9.9999999999999989e-01 -5.9506501057676231e-01 +8.1206768115731656e+00 -3.9465804963730816e-01 -5.0166138078610530e+01 -2.3497134524276385e+03 +1.4720978623314073e+04 +1.1683718782364223e+07 
+1.0999999999999999e+00 -5.9506493012611772e-01 +8.1206229104934060e+00 -3.8973129798133282e-01 -4.8794021110059099e+01 -2.4067592156892820e+03 +7.2134580541652585e+03 +1.1792216245586270e+07 
+1.2000000000000000e+00 -5.9506485402419607e-01 +8.1205716527871257e+00 -3.8455623813082607e-01 -4.7484773934988979e+01 -2.4657794664161306e+03 +6.2925962177294238e+01 +1.1902290394251244e+07 
+1.3000000000000000e+00 -5.9506478180713041e-01 +8.1205238015414949e+00 -3.7919417197944000e-01 -4.6259611974999721e+01 -2.5264190990915272e+03 -6.6145181295874818e+03 +1.2014958686721323e+07 
+1.4000000000000001e+00 -5.9506471301106811e-01 +8.1204801198460554e+00 -3.7370640077452993e-01 -4.5139750692016605e+01 -2.5883230089329131e+03 -1.2702774665725579e+04 +1.2131238540014410e+07 
+1.5000000000000002e+00 -5.9506464717226215e-01 +8.1204413707974812e+00 -3.6815421299872886e-01 -4.4146405750898104e+01 -2.6511363217390062e+03 -1.8085743066294592e+04 +1.2252148419054383e+07 
+1.6000000000000003e+00 -5.9506458382698579e-01 +8.1204083174980397e+00 -3.6259889501228315e-01 -4.3300792923369116e+01 -2.7145041933888133e+03 -2.2647322465592275e+04 +1.2378706884977918e+07 
+1.7000000000000004e+00 -5.9506452251158193e-01 +8.1203817230586299e+00 -3.5710172605768808e-01 -4.2624128221926526e+01 -2.7780718963509585e+03 -2.6271410831123558e+04 +1.2511932984603878e+07 
+1.8000000000000005e+00 -5.9506446276247760e-01 +8.1203623506006437e+00 -3.5172397519903165e-01 -4.2137627909121029e+01 -2.8414848824090864e+03 -2.8841905065644012e+04 +1.2652846554631857e+07 
+1.9000000000000006e+00 -5.9506440411618278e-01 +8.1203509632514592e+00 -3.4652690208442183e-01 -4.1862508378746554e+01 -2.9043887640596968e+03 -3.0242701694348307e+04 +1.2802468122358561e+07 
+2.0000000000000004e+00 -5.9506434610926795e-01 +8.1203483241570655e+00 -3.4157176022793867e-01 -4.1819986504484731e+01 -2.9664292490808148e+03 -3.0357694921016388e+04 +1.2961818584240340e+07 
+2.1000000000000005e+00 -5.9506428845480364e-01 +8.1203549644994091e+00 -3.3691366424616603e-01 -4.2024938802637116e+01 -3.0271789197325602e+03 -2.9106193438330698e+04 +1.3130969750315929e+07 
+2.2000000000000006e+00 -5.9506423155468335e-01 +8.1203704932567344e+00 -3.3258245348481125e-01 -4.2467165584878508e+01 -3.0859545955628560e+03 -2.6547107851121760e+04 +1.3306433092785679e+07 
+2.3000000000000007e+00 -5.9506417597878125e-01 +8.1203942902121806e+00 -3.2860146612811170e-01 -4.3130267106261428e+01 -3.1420182163118498e+03 -2.2773750445677084e+04 +1.3483887748501059e+07 
+2.4000000000000008e+00 -5.9506412229701466e-01 +8.1204257351464282e+00 -3.2499403483598116e-01 -4.3997843571238505e+01 -3.1946318269503536e+03 -1.7879433771951750e+04 +1.3659013358772252e+07 
+2.5000000000000009e+00 -5.9506407107924952e-01 +8.1204642078478706e+00 -3.2178349886759561e-01 -4.5053495434035938e+01 -3.2430573431972916e+03 -1.1957468874562128e+04 +1.3827488942838863e+07 
+2.6000000000000010e+00 -5.9506402289536087e-01 +8.1205090880998938e+00 -3.1899319583952507e-01 -4.6280823031109009e+01 -3.2865567130950017e+03 -5.1011674143809651e+03 +1.3984993680957081e+07 
+2.7000000000000011e+00 -5.9506397831517388e-01 +8.1205597556946678e+00 -3.1664646965428872e-01 -4.7663426984608243e+01 -3.3243917659386243e+03 +2.5961606853762578e+03 +1.4127206199072314e+07 
+2.8000000000000012e+00 -5.9506393790853040e-01 +8.1206155904194777e+00 -3.1476666258686314e-01 -4.9184907809615204e+01 -3.3558243577926942e+03 +1.1041204989916949e+04 +1.4249805246890347e+07 
+2.9000000000000012e+00 -5.9506390224517347e-01 +8.1206759720685682e+00 -3.1337712787329769e-01 -5.0828866266930312e+01 -3.3801161436530410e+03 +2.0140656622512946e+04 +1.4348468646120831e+07 
+3.0000000000000013e+00 -5.9506387189488796e-01 +8.1207402804371931e+00 -3.1250121394056973e-01 -5.2578903177142550e+01 -3.3965288698761060e+03 +2.9801207169417470e+04 +1.4418874666512202e+07 
+3.1000000000000014e+00 -5.9506384742734331e-01 +8.1208078953151439e+00 -3.1216228350290331e-01 -5.4418619262888548e+01 -3.4043240112901290e+03 +3.9929547851214447e+04 +1.4456700298423307e+07 
+3.2000000000000015e+00 -5.9506382941220382e-01 +8.1208781964973209e+00 -3.1238369904218599e-01 -5.6331615439741206e+01 -3.4027630542209572e+03 +5.0432371168048216e+04 +1.4457622620738668e+07 
+3.3000000000000016e+00 -5.9506381841906386e-01 +8.1209505637815322e+00 -3.1318883140217740e-01 -5.8301492760757412e+01 -3.3911073299168784e+03 +6.1216370630341000e+04 +1.4417318001802800e+07 
+3.4000000000000017e+00 -5.9506381501746397e-01 +8.1210243769638240e+00 -3.1460105800227245e-01 -6.0311852281867687e+01 -3.3686180476533104e+03 +7.2188239965119152e+04 +1.4331462256104778e+07 
+3.5000000000000018e+00 -5.9506381977687395e-01 +8.1210990158371494e+00 -3.1664376399711319e-01 -6.2346295038224895e+01 -3.3345562777252298e+03 +8.3254673045564647e+04 +1.4195730576333256e+07 
+3.6000000000000019e+00 -5.9506383326668799e-01 +8.1211738601991623e+00 -3.1934034362877900e-01 -6.4388422260086031e+01 -3.2881829253050319e+03 +9.4322365121267896e+04 +1.4005797414400179e+07 
+3.7000000000000020e+00 -5.9506385605624146e-01 +8.1212482898471006e+00 -3.2271419790121919e-01 -6.6421835239284761e+01 -3.2287587714024185e+03 +1.0529801208939127e+05 +1.3757336664225806e+07 
+3.8000000000000020e+00 -5.9506388871479021e-01 +8.1213216845730720e+00 -3.2678873715692563e-01 -6.8430135183953965e+01 -3.1555444279183762e+03 +1.1608830963943151e+05 +1.3446021462787051e+07 
+3.9000000000000021e+00 -5.9506393181148420e-01 +8.1213934241728296e+00 -3.3158738362100310e-01 -7.0396923496099348e+01 -3.0678002925348396e+03 +1.2659995493840729e+05 +1.3067523984729638e+07 
+4.0000000000000018e+00 -5.9506398591539977e-01 +8.1214628884410622e+00 -3.3713356839003394e-01 -7.2305801616182123e+01 -2.9647866017752558e+03 +1.3673964570030803e+05 +1.2617515688321047e+07 
+4.1000000000000014e+00 -5.9506405145861996e-01 +8.1215295443968891e+00 -3.4343130393470478e-01 -7.4142689586692029e+01 -2.8461920018872256e+03 +1.4642813805838666e+05 +1.2093813712575248e+07 
+4.2000000000000011e+00 -5.9506412834241307e-01 +8.1215931889911470e+00 -3.5040681535499524e-01 -7.5902379102785986e+01 -2.7134060080701320e+03 +1.5564018376488448e+05 +1.1502684962444557e+07 
+4.3000000000000007e+00 -5.9506421633947371e-01 +8.1216536969889468e+00 -3.5796683779286914e-01 -7.7581782468025395e+01 -2.5682405317142516e+03 +1.6436350360278611e+05 +1.0852477890027832e+07 
+4.4000000000000004e+00 -5.9506431522245251e-01 +8.1217109431594210e+00 -3.6601811102645437e-01 -7.9177812061471229e+01 -2.4125074071913600e+03 +1.7258581872960963e+05 +1.0151540613185531e+07 
+4.5000000000000000e+00 -5.9506442476398524e-01 +8.1217648022505138e+00 -3.7446737646424599e-01 -8.0687379604459224e+01 -2.2480184473173344e+03 +1.8029484641586730e+05 +9.4082211779059693e+06 
+4.5999999999999996e+00 -5.9506454473667991e-01 +8.1218151490157897e+00 -3.8322137783261623e-01 -8.2107396942519813e+01 -2.0765854340156175e+03 +1.8747830459473116e+05 +8.6308675214135181e+06 
+4.6999999999999993e+00 -5.9506467491310566e-01 +8.1218618581904511e+00 -3.9218686302052752e-01 -8.3434775326629477e+01 -1.9000200834802542e+03 +1.9412390762955701e+05 +7.8278273082229700e+06 
+4.7999999999999989e+00 -5.9506481506578990e-01 +8.1219048045099012e+00 -4.0127058421643302e-01 -8.4666425967405203e+01 -1.7201340428409130e+03 +2.0021936958472198e+05 +7.0074479110014858e+06 
+4.8999999999999986e+00 -5.9506496496724259e-01 +8.1219438626910314e+00 -4.1037929493304870e-01 -8.5799259483047507e+01 -1.5387389484313553e+03 +2.0575240099212583e+05 +6.1780766942198174e+06 
+4.9999999999999982e+00 -5.9506512438994530e-01 +8.1219789074504121e+00 -4.1941975145727151e-01 -8.6830186414795421e+01 -1.3576463978510319e+03 +2.1071071180851507e+05 +5.3480608779780846e+06 
+5.0999999999999979e+00 -5.9506529310631329e-01 +8.1220098134906298e+00 -4.2829871704291228e-01 -8.7756116836465779e+01 -1.1786678731260617e+03 +2.1508200917916978e+05 +4.5257471817808440e+06 
+5.1999999999999975e+00 -5.9506547088877726e-01 +8.1220364555010640e+00 -4.3692295208838661e-01 -8.8573960363309794e+01 -1.0036149280902133e+03 +2.1885399744610291e+05 +3.7194827170516723e+06 
+5.2999999999999972e+00 -5.9506565750968110e-01 +8.1220587081677920e+00 -4.4519922705321580e-01 -8.9280626453920249e+01 -8.3429893761458629e+02 +2.2201437994756296e+05 +2.9376137792741950e+06 
+5.3999999999999968e+00 -5.9506585274135193e-01 +8.1220764461561181e+00 -4.5303431299777236e-01 -8.9873023882708623e+01 -6.7253128824325404e+02 +2.2455085590112821e+05 +2.1884867852068511e+06 
+5.4999999999999964e+00 -5.9506605635609167e-01 +8.1220895441273004e+00 -4.6033498371348380e-01 -9.0348061217209278e+01 -5.2012332608856661e+02 +2.2645112315279077e+05 +1.4804479931459746e+06 
+5.5999999999999961e+00 -5.9506626812615815e-01 +8.1220978767230569e+00 -4.6700801645722712e-01 -9.0702646395886006e+01 -3.7888635685128099e+02 +2.2770287581161270e+05 +8.2184353961778362e+05 
+5.6999999999999957e+00 -5.9506648782375571e-01 +8.1221013185813309e+00 -4.7296019469010209e-01 -9.0933687132151832e+01 -2.5063158287606336e+02 +2.2829380644226712e+05 +2.2101911206714204e+05 
+5.7999999999999954e+00 -5.9506671522106991e-01 +8.1220997443181542e+00 -4.7809830250434837e-01 -9.1038090441528013e+01 -1.3717021836882139e+02 +2.2821160347493377e+05 -3.1367947874490957e+05 
+5.8999999999999950e+00 -5.9506695009022104e-01 +8.1220930285396289e+00 -4.8232913127985610e-01 -9.1012762937317817e+01 -4.0313355476841558e+01 +2.2744395278634611e+05 -7.7390695699130837e+05 
+5.9999999999999947e+00 -5.9506719220332438e-01 +8.1220810458386747e+00 -4.8555947143382255e-01 -9.0854610767838338e+01 +3.8127868155373982e+01 +2.2597853738716673e+05 -1.1513177538830109e+06 
+6.0999999999999943e+00 -5.9506744121443289e-01 +8.1220637429732303e+00 -4.8772888704963391e-01 -9.0562462176753030e+01 +9.6895168589117901e+01 +2.2381333500313561e+05 -1.4399490136668826e+06 
+6.1999999999999940e+00 -5.9506769632245837e-01 +8.1220413766587800e+00 -4.8890867379303382e-01 -9.0143074885299384e+01 +1.3697245515513580e+02 +2.2098827496573329e+05 -1.6435510143998857e+06 
+6.2999999999999936e+00 -5.9506795661662759e-01 +8.1220142865874294e+00 -4.8920329715290739e-01 -8.9605254612954198e+01 +1.5991296466883753e+02 +2.1755399688925722e+05 -1.7683521636384854e+06 
+6.3999999999999932e+00 -5.9506822118626834e-01 +8.1219828124666478e+00 -4.8871721139560970e-01 -8.8957807414086616e+01 +1.6726972944254490e+02 +2.1356114186066185e+05 -1.8205799347729939e+06 
+6.4999999999999929e+00 -5.9506848912069643e-01 +8.1219472940296988e+00 -4.8755487126740427e-01 -8.8209539995585317e+01 +1.6059577906034528e+02 +2.0906035432493428e+05 -1.8064617690715911e+06 
+6.5999999999999925e+00 -5.9506875950934757e-01 +8.1219080710176232e+00 -4.8582071760886419e-01 -8.7369259160048770e+01 +1.4144388800629213e+02 +2.0410227873535227e+05 -1.7322239375848731e+06 
+6.6999999999999922e+00 -5.9506903144169299e-01 +8.1218654832051271e+00 -4.8361918708182894e-01 -8.6445772593387915e+01 +1.1136674784496778e+02 +1.9873756422662697e+05 -1.6040923195744704e+06 
+6.7999999999999918e+00 -5.9506930400726732e-01 +8.1218198703755391e+00 -4.8105470839265141e-01 -8.5447888098766015e+01 +7.1916899621261848e+01 +1.9301686005078923e+05 -1.4282920998767421e+06 
+6.8999999999999915e+00 -5.9506957629568380e-01 +8.1217715723421726e+00 -4.7823170097396478e-01 -8.4384414229598960e+01 +2.4646710024528961e+01 +1.8699081927970450e+05 -1.2110476556997444e+06 
+6.9999999999999911e+00 -5.9506984739662616e-01 +8.1217209289343533e+00 -4.7525457578221070e-01 -8.3264159893318165e+01 -2.8891615390677966e+01 +1.8071009652310747e+05 -9.5858261555615882e+05 
+7.0999999999999908e+00 -5.9507011639984697e-01 +8.1216682800125390e+00 -4.7222773554512365e-01 -8.2095934752635870e+01 -8.7146025960460051e+01 +1.7422535014256230e+05 -6.7711989381869964e+05 
+7.1999999999999904e+00 -5.9507038239517651e-01 +8.1216139654530206e+00 -4.6925557396105011e-01 -8.0888548808929542e+01 -1.4856463883742435e+02 +1.6758723991308649e+05 -3.7288163686472113e+05 
+7.2999999999999901e+00 -5.9507064447252711e-01 +8.1215583251607306e+00 -4.6644247480849488e-01 -7.9650812763649952e+01 -2.1159575969260572e+02 +1.6084642907201310e+05 -5.2089114299404660e+04 
+7.3999999999999897e+00 -5.9507090172189658e-01 +8.1215016990676414e+00 -4.6389281116265013e-01 -7.8391537949915815e+01 -2.7468789710600925e+02 +1.5405358386038925e+05 +2.7903734676006914e+05 
+7.4999999999999893e+00 -5.9507115323337545e-01 +8.1214444271306778e+00 -4.6171094595319601e-01 -7.7119536307038373e+01 -3.3628974552122014e+02 +1.4725937346476244e+05 +6.1427826327910903e+05 
+7.5999999999999890e+00 -5.9507139809713472e-01 +8.1213868493323602e+00 -4.6000123175637203e-01 -7.5843620342726638e+01 -3.9485019846184304e+02 +1.4051446962889004e+05 +9.4741508360664919e+05 
+7.6999999999999886e+00 -5.9507163540343366e-01 +8.1213293056871603e+00 -4.5886801111496711e-01 -7.4572603371446831e+01 -4.4881833468465470e+02 +1.3386954819097280e+05 +1.2722300987357458e+06 
+7.7999999999999883e+00 -5.9507186424264347e-01 +8.1212721362357296e+00 -4.5841561307828588e-01 -7.3315299297320038e+01 -4.9664348523038262e+02 +1.2737528766537092e+05 +1.5825067642150517e+06 
+7.8999999999999879e+00 -5.9507208370522136e-01 +8.1212156810488878e+00 -4.5874835674711134e-01 -7.2080522746542684e+01 -5.3677516797912165e+02 +1.2108237005423907e+05 +1.8720293957664347e+06 
+7.9999999999999876e+00 -5.9507229288172203e-01 +8.1211602802287111e+00 -4.5997054915226032e-01 -7.0877089063046341e+01 -5.6766312394578108e+02 +1.1504148068664406e+05 +2.1345833196281735e+06 
+8.0999999999999872e+00 -5.9507249132327533e-01 +8.1211062258667166e+00 -4.6215134449960066e-01 -6.9712395780019790e+01 -5.8817061102579635e+02 +1.0929379264197826e+05 +2.3652676088747485e+06 
+8.1999999999999869e+00 -5.9507268039428252e-01 +8.1210536237112141e+00 -4.6522081935764387e-01 -6.8588909501346080e+01 -5.9880380438149905e+02 +1.0384761945966953e+05 +2.5645062415405740e+06 
+8.2999999999999865e+00 -5.9507286190574438e-01 +8.1210025342122982e+00 -4.6907461057067273e-01 -6.7508041916740822e+01 -6.0047581980058919e+02 +9.8704275406790199e+04 +2.7340620565468795e+06 
+8.3999999999999861e+00 -5.9507303766870723e-01 +8.1209530177733562e+00 -4.7360835013838992e-01 -6.6471203730638649e+01 -5.9409984022314143e+02 +9.3865070453340260e+04 +2.8756981579224695e+06 
+8.4999999999999858e+00 -5.9507320949417408e-01 +8.1209051347646319e+00 -4.7871767660181547e-01 -6.5479805052742066e+01 -5.8058890206808178e+02 +8.9331312703491480e+04 +2.9911768986433521e+06 
+8.5999999999999854e+00 -5.9507337919320968e-01 +8.1208589455113973e+00 -4.8429822252307481e-01 -6.4535255065709208e+01 -5.6085612844545517e+02 +8.5104306511660179e+04 +3.0822609765327489e+06 
+8.6999999999999851e+00 -5.9507354857685735e-01 +8.1208145102962206e+00 -4.9024562367004476e-01 -6.3638962105199155e+01 -5.3581456076592633e+02 +8.1185353003810786e+04 +3.1507126483157668e+06 
+8.7999999999999847e+00 -5.9507371945617238e-01 +8.1207718893601246e+00 -4.9645551613340266e-01 -6.2792333699590358e+01 -5.0637720642457396e+02 +7.7575750342880405e+04 +3.1982939408789081e+06 
+8.8999999999999844e+00 -5.9507389364224639e-01 +8.1207311428951794e+00 -5.0282353238634125e-01 -6.1996776375789516e+01 -4.7345711671605892e+02 +7.4276792681552542e+04 +3.2267670271665938e+06 
+8.9999999999999840e+00 -5.9507407294617176e-01 +8.1206923310518064e+00 -5.0924530648666300e-01 -6.1253695869410784e+01 -4.3796728417380120e+02 +7.1289771383853804e+04 +3.2378937294906895e+06 
+9.0999999999999837e+00 -5.9507425917902845e-01 +8.1206555139272751e+00 -5.1561647526592025e-01 -6.0564496830717410e+01 -4.0082062330031880e+02 +6.8615973462386770e+04 +3.2334354370053769e+06 
+9.1999999999999833e+00 -5.9507445415194393e-01 +8.1206207515736164e+00 -5.2183267092283947e-01 -5.9930583025479038e+01 -3.6293010691677875e+02 +6.6256682668134061e+04 +3.2151537419705912e+06 
+9.2999999999999829e+00 -5.9507465967602102e-01 +8.1205881039914676e+00 -5.2778953037264398e-01 -5.9353357203122926e+01 -3.2520858990183694e+02 +6.4213178882515822e+04 +3.1848096061341413e+06 
+9.3999999999999826e+00 -5.9507487756241295e-01 +8.1205576311289960e+00 -5.3338268591011273e-01 -5.8834221068158541e+01 -2.8856898221775464e+02 +6.2486737971502298e+04 +3.1441641712412848e+06 
+9.4999999999999822e+00 -5.9507510962226329e-01 +8.1205293928774847e+00 -5.3850777214252954e-01 -5.8374575147748473e+01 -2.5392412385096588e+02 +6.1078631023187983e+04 +3.0949781843050290e+06 
+9.5999999999999819e+00 -5.9507535766668951e-01 +8.1205034490821326e+00 -5.4306042881994132e-01 -5.7975819149243875e+01 -2.2218672226265357e+02 +5.9990126566486208e+04 +3.0390116737851859e+06 
+9.6999999999999815e+00 -5.9507562350690946e-01 +8.1204798595250907e+00 -5.4693628510032022e-01 -5.7639351443007655e+01 -1.9426965232546911e+02 +5.9222487515427303e+04 +2.9780253818858545e+06 
+9.7999999999999812e+00 -5.9507590895406937e-01 +8.1204586839328918e+00 -5.5003097973351989e-01 -5.7366569325588515e+01 -1.7108557960171260e+02 +5.8776972845874734e+04 +2.9137789888771214e+06 
+9.8999999999999808e+00 -5.9507621581937165e-01 +8.1204399819789934e+00 -5.5224014734993254e-01 -5.7158869075130156e+01 -1.5354720793367048e+02 +5.8654837887322079e+04 +2.8480322583212052e+06 
+9.9999999999999805e+00 -5.9507654591400982e-01 +8.1204238132718150e+00 -5.5345942431371331e-01 -5.7017645739531183e+01 -1.4256719155622136e+02 +5.8857333568995426e+04 +2.7825446989278006e+06 
+1.0099999999999980e+01 -5.9507690053149243e-01 +8.1204102333128798e+00 -5.5361479833802996e-01 -5.6944248275852019e+01 -1.3883564396404762e+02 +5.9386894198552276e+04 +2.7189500591714820e+06 
