# trajectory
# s[mm] rx[mm] ry[mm] rz[mm] px[rad] py[rad] pz[rad]
0.0000000000000000e+00 +8.1529999999999987e+00 +0.0000000000000000e+00 +0.0000000000000000e+00 +0.0000000000000000e+00 +0.0000000000000000e+00 +1.0000000000000000e+00
-1.0000000000000001e-01 +8.1529997166779733e+00 +0.0000000000000000e+00 -9.9999999999464836e-02 +5.6664399425308676e-06 +0.0000000000000000e+00 +9.9999999998394573e-01
-2.0000000000000001e-01 +8.1529988667121227e+00 +0.0000000000000000e+00 -1.9999999999571882e-01 +1.1332876523942545e-05 +0.0000000000000000e+00 +9.9999999993578292e-01
-3.0000000000000004e-01 +8.1529974501027791e+00 +0.0000000000000000e+00 -2.9999999998555116e-01 +1.6999309786088835e-05 +0.0000000000000000e+00 +9.9999999985551169e-01
-4.0000000000000002e-01 +8.1529954668502747e+00 +0.0000000000000000e+00 -3.9999999996575092e-01 +2.2665739771617710e-05 +0.0000000000000000e+00 +9.9999999974313203e-01
-5.0000000000000000e-01 +8.1529929169549327e+00 +0.0000000000000000e+00 -4.9999999993310729e-01 +2.8332166523971305e-05 +0.0000000000000000e+00 +9.9999999959864405e-01
-5.9999999999999998e-01 +8.1529898004170764e+00 +0.0000000000000000e+00 -5.9999999988440944e-01 +3.3998590087385925e-05 +0.0000000000000000e+00 +9.9999999942204787e-01
-6.9999999999999996e-01 +8.1529861172370204e+00 +0.0000000000000000e+00 -6.9999999981644656e-01 +3.9665010506892015e-05 +0.0000000000000000e+00 +9.9999999921334337e-01
-7.9999999999999993e-01 +8.1529818674150771e+00 +0.0000000000000000e+00 -7.9999999972600788e-01 +4.5331427828314134e-05 +0.0000000000000000e+00 +9.9999999897253078e-01
-8.9999999999999991e-01 +8.1529770509515558e+00 +0.0000000000000000e+00 -8.9999999960988242e-01 +5.0997842098270923e-05 +0.0000000000000000e+00 +9.9999999869960998e-01
-9.9999999999999989e-01 +8.1529716678467583e+00 +0.0000000000000000e+00 -9.9999999946485951e-01 +5.6664253364175023e-05 +0.0000000000000000e+00 +9.9999999839458109e-01
-1.0999999999999999e+00 +8.1529657181009814e+00 +0.0000000000000000e+00 -1.0999999992877283e+00 +6.2330661674233045e-05 +0.0000000000000000e+00 +9.9999999805744422e-01
-1.2000000000000000e+00 +8.1529592017145198e+00 +0.0000000000000000e+00 -1.1999999990752781e+00 +6.7997067077445493e-05 +0.0000000000000000e+00 +9.9999999768819936e-01
-1.3000000000000000e+00 +8.1529521186876615e+00 +0.0000000000000000e+00 -1.2999999988242981e+00 +7.3663469623606661e-05 +0.0000000000000000e+00 +9.9999999728684652e-01
-1.4000000000000001e+00 +8.1529444690206887e+00 +0.0000000000000000e+00 -1.3999999985315772e+00 +7.9329869363304529e-05 +0.0000000000000000e+00 +9.9999999685338581e-01
-1.5000000000000002e+00 +8.1529362527138804e+00 +0.0000000000000000e+00 -1.4999999981939049e+00 +8.4996266347920699e-05 +0.0000000000000000e+00 +9.9999999638781722e-01
-1.6000000000000003e+00 +8.1529274697675085e+00 +0.0000000000000000e+00 -1.5999999978080703e+00 +9.0662660629630245e-05 +0.0000000000000000e+00 +9.9999999589014088e-01
-1.7000000000000004e+00 +8.1529181201818428e+00 +0.0000000000000000e+00 -1.6999999973708628e+00 +9.6329052261401565e-05 +0.0000000000000000e+00 +9.9999999536035677e-01
-1.8000000000000005e+00 +8.1529082039571428e+00 +0.0000000000000000e+00 -1.7999999968790714e+00 +1.0199544129699629e-04 +0.0000000000000000e+00 +9.9999999479846491e-01
-1.9000000000000006e+00 +8.1528977210936677e+00 +0.0000000000000000e+00 -1.8999999963294856e+00 +1.0766182779096908e-04 +0.0000000000000000e+00 +9.9999999420446539e-01
-2.0000000000000004e+00 +8.1528866715916681e+00 +0.0000000000000000e+00 -1.9999999957188943e+00 +1.1332821179866752e-04 +0.0000000000000000e+00 +9.9999999357835823e-01
-2.1000000000000005e+00 +8.1528750554513891e+00 +0.0000000000000000e+00 -2.0999999950440871e+00 +1.1899459337612014e-04 +0.0000000000000000e+00 +9.9999999292014341e-01
-2.2000000000000006e+00 +8.1528628726730723e+00 +0.0000000000000000e+00 -2.1999999943018529e+00 +1.2466097257880717e-04 +0.0000000000000000e+00 +9.9999999222982094e-01
-2.3000000000000007e+00 +8.1528501232569504e+00 +0.0000000000000000e+00 -2.2999999934889810e+00 +1.3032734946043139e-04 +0.0000000000000000e+00 +9.9999999150739094e-01
-2.4000000000000008e+00 +8.1528368072032542e+00 +0.0000000000000000e+00 -2.3999999926022606e+00 +1.3599372407280648e-04 +0.0000000000000000e+00 +9.9999999075285340e-01
-2.5000000000000009e+00 +8.1528229245122095e+00 +0.0000000000000000e+00 -2.4999999916384814e+00 +1.4166009646585716e-04 +0.0000000000000000e+00 +9.9999998996620842e-01
-2.6000000000000010e+00 +8.1528084751840346e+00 +0.0000000000000000e+00 -2.5999999905944322e+00 +1.4732646668761930e-04 +0.0000000000000000e+00 +9.9999998914745603e-01
-2.7000000000000011e+00 +8.1527934592189428e+00 +0.0000000000000000e+00 -2.6999999894669022e+00 +1.5299283478424012e-04 +0.0000000000000000e+00 +9.9999998829659620e-01
-2.8000000000000012e+00 +8.1527778766171473e+00 +0.0000000000000000e+00 -2.7999999882526811e+00 +1.5865920079997841e-04 +0.0000000000000000e+00 +9.9999998741362894e-01
-2.9000000000000012e+00 +8.1527617273788522e+00 +0.0000000000000000e+00 -2.8999999869485578e+00 +1.6432556477720471e-04 +0.0000000000000000e+00 +9.9999998649855426e-01
-3.0000000000000013e+00 +8.1527450115042583e+00 +0.0000000000000000e+00 -2.9999999855513217e+00 +1.6999192675640155e-04 +0.0000000000000000e+00 +9.9999998555137226e-01
-3.1000000000000014e+00 +8.1527277289935647e+00 +0.0000000000000000e+00 -3.0999999840577619e+00 +1.7565828677616372e-04 +0.0000000000000000e+00 +9.9999998457208295e-01
-3.2000000000000015e+00 +8.1527098798469666e+00 +0.0000000000000000e+00 -3.1999999824646679e+00 +1.8132464487319853e-04 +0.0000000000000000e+00 +9.9999998356068631e-01
-3.3000000000000016e+00 +8.1526914640646524e+00 +0.0000000000000000e+00 -3.2999999807688289e+00 +1.8699100108232614e-04 +0.0000000000000000e+00 +9.9999998251718247e-01
-3.4000000000000017e+00 +8.1526724816468104e+00 +0.0000000000000000e+00 -3.3999999789670343e+00 +1.9265735543647983e-04 +0.0000000000000000e+00 +9.9999998144157143e-01
-3.5000000000000018e+00 +8.1526529325936252e+00 +0.0000000000000000e+00 -3.4999999770560732e+00 +1.9832370796670642e-04 +0.0000000000000000e+00 +9.9999998033385318e-01
-3.6000000000000019e+00 +8.1526328169052764e+00 +0.0000000000000000e+00 -3.5999999750327349e+00 +2.0399005870216661e-04 +0.0000000000000000e+00 +9.9999997919402772e-01
-3.7000000000000020e+00 +8.1526121345819433e+00 +0.0000000000000000e+00 -3.6999999728938087e+00 +2.0965640767013532e-04 +0.0000000000000000e+00 +9.9999997802209506e-01
-3.8000000000000020e+00 +8.1525908856238001e+00 +0.0000000000000000e+00 -3.7999999706360836e+00 +2.1532275489600218e-04 +0.0000000000000000e+00 +9.9999997681805530e-01
-3.9000000000000021e+00 +8.1525690700310207e+00 +0.0000000000000000e+00 -3.8999999682563495e+00 +2.2098910040327187e-04 +0.0000000000000000e+00 +9.9999997558190845e-01
-4.0000000000000018e+00 +8.1525466878037758e+00 +0.0000000000000000e+00 -3.9999999657513952e+00 +2.2665544421356470e-04 +0.0000000000000000e+00 +9.9999997431365450e-01
-4.1000000000000014e+00 +8.1525237389422340e+00 +0.0000000000000000e+00 -4.0999999631180097e+00 +2.3232178634663826e-04 +0.0000000000000000e+00 +9.9999997301329346e-01
-4.2000000000000011e+00 +8.1525002234465624e+00 +0.0000000000000000e+00 -4.1999999603529830e+00 +2.3798812682062229e-04 +0.0000000000000000e+00 +9.9999997168082533e-01
-4.3000000000000007e+00 +8.1524761413169244e+00 +0.0000000000000000e+00 -4.2999999574531040e+00 +2.4365446565225313e-04 +0.0000000000000000e+00 +9.9999997031625021e-01
-4.4000000000000004e+00 +8.1524514925534852e+00 +0.0000000000000000e+00 -4.3999999544151622e+00 +2.4932080285689482e-04 +0.0000000000000000e+00 +9.9999996891956811e-01
-4.5000000000000000e+00 +8.1524262771564064e+00 +0.0000000000000000e+00 -4.4999999512359468e+00 +2.5498713844853885e-04 +0.0000000000000000e+00 +9.9999996749077902e-01
-4.5999999999999996e+00 +8.1524004951258480e+00 +0.0000000000000000e+00 -4.5999999479122478e+00 +2.6065347243980409e-04 +0.0000000000000000e+00 +9.9999996602988306e-01
-4.6999999999999993e+00 +8.1523741464619714e+00 +0.0000000000000000e+00 -4.6999999444408536e+00 +2.6631980484193637e-04 +0.0000000000000000e+00 +9.9999996453688011e-01
-4.7999999999999989e+00 +8.1523472311649332e+00 +0.0000000000000000e+00 -4.7999999408185534e+00 +2.7198613566480832e-04 +0.0000000000000000e+00 +9.9999996301177030e-01
-4.8999999999999986e+00 +8.1523197492348913e+00 +0.0000000000000000e+00 -4.8999999370421374e+00 +2.7765246491691907e-04 +0.0000000000000000e+00 +9.9999996145455361e-01
-4.9999999999999982e+00 +8.1522917006720022e+00 +0.0000000000000000e+00 -4.9999999331083940e+00 +2.8331879260539393e-04 +0.0000000000000000e+00 +9.9999995986523005e-01
-5.0999999999999979e+00 +8.1522630854764220e+00 +0.0000000000000000e+00 -5.0999999290141131e+00 +2.8898511873598406e-04 +0.0000000000000000e+00 +9.9999995824379972e-01
-5.1999999999999975e+00 +8.1522339036483071e+00 +0.0000000000000000e+00 -5.1999999247560842e+00 +2.9465144331306626e-04 +0.0000000000000000e+00 +9.9999995659026253e-01
-5.2999999999999972e+00 +8.1522041551878122e+00 +0.0000000000000000e+00 -5.2999999203310955e+00 +3.0031776633964238e-04 +0.0000000000000000e+00 +9.9999995490461857e-01
-5.3999999999999968e+00 +8.1521738400950916e+00 +0.0000000000000000e+00 -5.3999999157359371e+00 +3.0598408781733910e-04 +0.0000000000000000e+00 +9.9999995318686785e-01
-5.4999999999999964e+00 +8.1521429583703000e+00 +0.0000000000000000e+00 -5.4999999109673983e+00 +3.1165040774640756e-04 +0.0000000000000000e+00 +9.9999995143701048e-01
-5.5999999999999961e+00 +8.1521115100135937e+00 +0.0000000000000000e+00 -5.5999999060222683e+00 +3.1731672612572275e-04 +0.0000000000000000e+00 +9.9999994965504635e-01
-5.6999999999999957e+00 +8.1520794950251272e+00 +0.0000000000000000e+00 -5.6999999008973372e+00 +3.2298304295278331e-04 +0.0000000000000000e+00 +9.9999994784097557e-01
-5.7999999999999954e+00 +8.1520469134050551e+00 +0.0000000000000000e+00 -5.7999998955893934e+00 +3.2864935822371087e-04 +0.0000000000000000e+00 +9.9999994599479813e-01
-5.8999999999999950e+00 +8.1520137651535336e+00 +0.0000000000000000e+00 -5.8999998900952262e+00 +3.3431567193324972e-04 +0.0000000000000000e+00 +9.9999994411651416e-01
-5.9999999999999947e+00 +8.1519800502707209e+00 +0.0000000000000000e+00 -5.9999998844116256e+00 +3.3998198407476628e-04 +0.0000000000000000e+00 +9.9999994220612354e-01
-6.0999999999999943e+00 +8.1519457687567716e+00 +0.0000000000000000e+00 -6.0999998785353808e+00 +3.4564829464021608e-04 +0.0000000000000000e+00 +9.9999994026362637e-01
-6.1999999999999940e+00 +8.1519109206118454e+00 +0.0000000000000000e+00 -6.1999998724632812e+00 +3.5131460361978705e-04 +0.0000000000000000e+00 +9.9999993828902267e-01
-6.2999999999999936e+00 +8.1518755058361005e+00 +0.0000000000000000e+00 -6.2999998661921159e+00 +3.5698091100154310e-04 +0.0000000000000000e+00 +9.9999993628231254e-01
-6.3999999999999932e+00 +8.1518395244296986e+00 +0.0000000000000000e+00 -6.3999998597186742e+00 +3.6264721677139154e-04 +0.0000000000000000e+00 +9.9999993424349587e-01
-6.4999999999999929e+00 +8.1518029763928013e+00 +0.0000000000000000e+00 -6.4999998530397454e+00 +3.6831352091308312e-04 +0.0000000000000000e+00 +9.9999993217257277e-01
-6.5999999999999925e+00 +8.1517658617255719e+00 +0.0000000000000000e+00 -6.5999998461521185e+00 +3.7397982340821203e-04 +0.0000000000000000e+00 +9.9999993006954335e-01
-6.6999999999999922e+00 +8.1517281804281758e+00 +0.0000000000000000e+00 -6.6999998390525839e+00 +3.7964612423621591e-04 +0.0000000000000000e+00 +9.9999992793440751e-01
-6.7999999999999918e+00 +8.1516899325007817e+00 +0.0000000000000000e+00 -6.7999998317379298e+00 +3.8531242337437588e-04 +0.0000000000000000e+00 +9.9999992576716534e-01
-6.8999999999999915e+00 +8.1516511179435582e+00 +0.0000000000000000e+00 -6.8999998242049463e+00 +3.9097872079781634e-04 +0.0000000000000000e+00 +9.9999992356781697e-01
-6.9999999999999911e+00 +8.1516117367566796e+00 +0.0000000000000000e+00 -6.9999998164504227e+00 +3.9664501647950520e-04 +0.0000000000000000e+00 +9.9999992133636229e-01
-7.0999999999999908e+00 +8.1515717889403216e+00 +0.0000000000000000e+00 -7.0999998084711482e+00 +4.0231131039025379e-04 +0.0000000000000000e+00 +9.9999991907280139e-01
-7.1999999999999904e+00 +8.1515312744946620e+00 +0.0000000000000000e+00 -7.1999998002639130e+00 +4.0797760249871684e-04 +0.0000000000000000e+00 +9.9999991677713440e-01
-7.2999999999999901e+00 +8.1514901934198836e+00 +0.0000000000000000e+00 -7.2999997918255053e+00 +4.1364389277139245e-04 +0.0000000000000000e+00 +9.9999991444936132e-01
-7.3999999999999897e+00 +8.1514485457161712e+00 +0.0000000000000000e+00 -7.3999997831527153e+00 +4.1931018117262220e-04 +0.0000000000000000e+00 +9.9999991208948213e-01
-7.4999999999999893e+00 +8.1514063313837131e+00 +0.0000000000000000e+00 -7.4999997742423314e+00 +4.2497646766459106e-04 +0.0000000000000000e+00 +9.9999990969749686e-01
-7.5999999999999890e+00 +8.1513635504227029e+00 +0.0000000000000000e+00 -7.5999997650911437e+00 +4.3064275220732747e-04 +0.0000000000000000e+00 +9.9999990727340571e-01
-7.6999999999999886e+00 +8.1513202028333378e+00 +0.0000000000000000e+00 -7.6999997556959423e+00 +4.3630903475870336e-04 +0.0000000000000000e+00 +9.9999990481720857e-01
-7.7999999999999883e+00 +8.1512762886158185e+00 +0.0000000000000000e+00 -7.7999997460535155e+00 +4.4197531527443411e-04 +0.0000000000000000e+00 +9.9999990232890557e-01
-7.8999999999999879e+00 +8.1512318077703512e+00 +0.0000000000000000e+00 -7.8999997361606535e+00 +4.4764159370807856e-04 +0.0000000000000000e+00 +9.9999989980849679e-01
-7.9999999999999876e+00 +8.1511867602971471e+00 +0.0000000000000000e+00 -7.9999997260141447e+00 +4.5330787001103908e-04 +0.0000000000000000e+00 +9.9999989725598226e-01
-8.0999999999999872e+00 +8.1511411461964212e+00 +0.0000000000000000e+00 -8.0999997156107799e+00 +4.5897414413314001e-04 +0.0000000000000000e+00 +9.9999989467136197e-01
-8.1999999999999869e+00 +8.1510949654683937e+00 +0.0000000000000000e+00 -8.1999997049473468e+00 +4.6464041602899017e-04 +0.0000000000000000e+00 +9.9999989205463613e-01
-8.2999999999999865e+00 +8.1510482181132904e+00 +0.0000000000000000e+00 -8.2999996940206362e+00 +4.7030668566434576e-04 +0.0000000000000000e+00 +9.9999988940580464e-01
-8.3999999999999861e+00 +8.1510009041313367e+00 +0.0000000000000000e+00 -8.3999996828274366e+00 +4.7597295301668896e-04 +0.0000000000000000e+00 +9.9999988672486761e-01
-8.4999999999999858e+00 +8.1509530235227636e+00 +0.0000000000000000e+00 -8.4999996713645380e+00 +4.8163921807522863e-04 +0.0000000000000000e+00 +9.9999988401182516e-01
-8.5999999999999854e+00 +8.1509045762877985e+00 +0.0000000000000000e+00 -8.5999996596287307e+00 +4.8730548084090035e-04 +0.0000000000000000e+00 +9.9999988126667716e-01
-8.6999999999999851e+00 +8.1508555624266705e+00 +0.0000000000000000e+00 -8.6999996476168029e+00 +4.9297174132636719e-04 +0.0000000000000000e+00 +9.9999987848942373e-01
-8.7999999999999847e+00 +8.1508059819396070e+00 +0.0000000000000000e+00 -8.7999996353255447e+00 +4.9863799955601979e-04 +0.0000000000000000e+00 +9.9999987568006499e-01
-8.8999999999999844e+00 +8.1507558348268319e+00 +0.0000000000000000e+00 -8.8999996227517464e+00 +5.0430425556597714e-04 +0.0000000000000000e+00 +9.9999987283860081e-01
-8.9999999999999840e+00 +8.1507051210885653e+00 +0.0000000000000000e+00 -8.9999996098921962e+00 +5.0997050940408684e-04 +0.0000000000000000e+00 +9.9999986996503132e-01
-9.0999999999999837e+00 +8.1506538407250204e+00 +0.0000000000000000e+00 -9.0999995967436824e+00 +5.1563676112992567e-04 +0.0000000000000000e+00 +9.9999986705935651e-01
-9.1999999999999833e+00 +8.1506019937364069e+00 +0.0000000000000000e+00 -9.1999995833029971e+00 +5.2130301081479999e-04 +0.0000000000000000e+00 +9.9999986412157627e-01
-9.2999999999999829e+00 +8.1505495801229237e+00 +0.0000000000000000e+00 -9.2999995695669284e+00 +5.2696925854174613e-04 +0.0000000000000000e+00 +9.9999986115169071e-01
-9.3999999999999826e+00 +8.1504965998847609e+00 +0.0000000000000000e+00 -9.3999995555322648e+00 +5.3263550440553118e-04 +0.0000000000000000e+00 +9.9999985814969972e-01
-9.4999999999999822e+00 +8.1504430530221015e+00 +0.0000000000000000e+00 -9.4999995411957983e+00 +5.3830174851265326e-04 +0.0000000000000000e+00 +9.9999985511560330e-01
-9.5999999999999819e+00 +8.1503889395351141e+00 +0.0000000000000000e+00 -9.5999995265543152e+00 +5.4396799098134225e-04 +0.0000000000000000e+00 +9.9999985204940145e-01
-9.6999999999999815e+00 +8.1503342594239552e+00 +0.0000000000000000e+00 -9.6999995116046076e+00 +5.4963423194156005e-04 +0.0000000000000000e+00 +9.9999984895109417e-01
-9.7999999999999812e+00 +8.1502790126887703e+00 +0.0000000000000000e+00 -9.7999994963434638e+00 +5.5530047153500158e-04 +0.0000000000000000e+00 +9.9999984582068135e-01
-9.8999999999999808e+00 +8.1502231993296892e+00 +0.0000000000000000e+00 -9.8999994807676739e+00 +5.6096670991509479e-04 +0.0000000000000000e+00 +9.9999984265816289e-01
-9.9999999999999805e+00 +8.1501668193468237e+00 +0.0000000000000000e+00 -9.9999994648740262e+00 +5.6663294724700183e-04 +0.0000000000000000e+00 +9.9999983946353876e-01
-1.0099999999999980e+01 +8.1501098727402699e+00 +0.0000000000000000e+00 -1.0099999448659311e+01 +5.7229918370726486e-04 +0.0000000000000000e+00 +9.9999983623680888e-01
-1.0199999999999980e+01 +8.1500523595101058e+00 +0.0000000000000000e+00 -1.0199999432120318e+01 +5.7796541947991126e-04 +0.0000000000000000e+00 +9.9999983297797312e-01
-1.0299999999999979e+01 +8.1499942796563900e+00 +0.0000000000000000e+00 -1.0299999415253836e+01 +5.8363165475255733e-04 +0.0000000000000000e+00 +9.9999982968703138e-01
-1.0399999999999979e+01 +8.1499356331791653e+00 +0.0000000000000000e+00 -1.0399999398056655e+01 +5.8929788971605367e-04 +0.0000000000000000e+00 +9.9999982636398366e-01
-1.0499999999999979e+01 +8.1498764200784510e+00 +0.0000000000000000e+00 -1.0499999380525564e+01 +5.9496412456448483e-04 +0.0000000000000000e+00 +9.9999982300882972e-01
-1.0599999999999978e+01 +8.1498166403542491e+00 +0.0000000000000000e+00 -1.0599999362657352e+01 +6.0063035949516920e-04 +0.0000000000000000e+00 +9.9999981962156947e-01
-1.0699999999999978e+01 +8.1497562940065418e+00 +0.0000000000000000e+00 -1.0699999344448807e+01 +6.0629659470865795e-04 +0.0000000000000000e+00 +9.9999981620220280e-01
-1.0799999999999978e+01 +8.1496953810352917e+00 +0.0000000000000000e+00 -1.0799999325896721e+01 +6.1196283040873534e-04 +0.0000000000000000e+00 +9.9999981275072958e-01
-1.0899999999999977e+01 +8.1496339014404384e+00 +0.0000000000000000e+00 -1.0899999306997882e+01 +6.1762906680241751e-04 +0.0000000000000000e+00 +9.9999980926714971e-01
-1.0999999999999977e+01 +8.1495718552219021e+00 +0.0000000000000000e+00 -1.0999999287749080e+01 +6.2329530409995263e-04 +0.0000000000000000e+00 +9.9999980575146308e-01
-1.1099999999999977e+01 +8.1495092423795814e+00 +0.0000000000000000e+00 -1.1099999268147105e+01 +6.2896154251482000e-04 +0.0000000000000000e+00 +9.9999980220366946e-01
-1.1199999999999976e+01 +8.1494460629133538e+00 +0.0000000000000000e+00 -1.1199999248188744e+01 +6.3462778226372973e-04 +0.0000000000000000e+00 +9.9999979862376875e-01
-1.1299999999999976e+01 +8.1493823168230755e+00 +0.0000000000000000e+00 -1.1299999227870789e+01 +6.4029402356662241e-04 +0.0000000000000000e+00 +9.9999979501176073e-01
-1.1399999999999975e+01 +8.1493180041085811e+00 +0.0000000000000000e+00 -1.1399999207190026e+01 +6.4596026664666818e-04 +0.0000000000000000e+00 +9.9999979136764527e-01
-1.1499999999999975e+01 +8.1492531247696807e+00 +0.0000000000000000e+00 -1.1499999186143247e+01 +6.5162651173026654e-04 +0.0000000000000000e+00 +9.9999978769142217e-01
-1.1599999999999975e+01 +8.1491876788061610e+00 +0.0000000000000000e+00 -1.1599999164727240e+01 +6.5729275904704578e-04 +0.0000000000000000e+00 +9.9999978398309119e-01
-1.1699999999999974e+01 +8.1491216662177894e+00 +0.0000000000000000e+00 -1.1699999142938795e+01 +6.6295900882986215e-04 +0.0000000000000000e+00 +9.9999978024265224e-01
