# field on trajectory
# s[mm] rx[mm] ry[mm] rz[mm] bx[T] by[T] bz[T]
-0.0000000000000000e+00 +8.1530000000000094e+00 +0.0000000000000000e+00 -0.0000000000000000e+00 -2.9306142716386430e-02 -5.6474400069709030e-01 +5.6119479519953115e-03
-1.0000000000000001e-01 +8.1529997159377707e+00 +0.0000000000000000e+00 -1.0008006405070299e-01 -2.9306174033772905e-02 -5.6474407593916387e-01 +5.6120337520704040e-03
-2.0000000000000001e-01 +8.1529988637557800e+00 +0.0000000000000000e+00 -2.0016012809818201e-01 -2.9306189294335375e-02 -5.6474415777069731e-01 +5.6121199440404895e-03
-2.9999999999999999e-01 +8.1529974434524792e+00 +0.0000000000000000e+00 -3.0024019213920999e-01 -2.9306189395325234e-02 -5.6474424665197442e-01 +5.6122065640472115e-03
-4.0000000000000002e-01 +8.1529954550242092e+00 +0.0000000000000000e+00 -4.0032025617056399e-01 -2.9306175233999428e-02 -5.6474434304327426e-01 +5.6122936482321641e-03
-5.0000000000000000e-01 +8.1529928984782600e+00 +0.0000000000000000e+00 -5.0040032018901703e-01 -2.9306147707613424e-02 -5.6474444740477381e-01 +5.6123812327360913e-03
-5.9999999999999998e-01 +8.1529897738146193e+00 +0.0000000000000000e+00 -6.0048038419134497e-01 -2.9306107713427620e-02 -5.6474456019669050e-01 +5.6124693537005551e-03
-6.9999999999999996e-01 +8.1529860810223909e+00 +0.0000000000000000e+00 -7.0056044817432195e-01 -2.9306056148707495e-02 -5.6474468187931426e-01 +5.6125580472684618e-03
-8.0000000000000004e-01 +8.1529818201124709e+00 +0.0000000000000000e+00 -8.0064051213472498e-01 -2.9305993910708185e-02 -5.6474481291275713e-01 +5.6126473495817049e-03
-9.0000000000000002e-01 +8.1529769910812302e+00 +0.0000000000000000e+00 -9.0072057606932698e-01 -2.9305921896688670e-02 -5.6474495375723655e-01 +5.6127372967842565e-03
-1.0000000000000000e+00 +8.1529715939250291e+00 +0.0000000000000000e+00 -1.0008006399749001e+00 -2.9305841003904102e-02 -5.6474510487296781e-01 +5.6128279250212652e-03
-1.1000000000000001e+00 +8.1529656286511507e+00 +0.0000000000000000e+00 -1.1008807038482300e+00 -2.9305752129599801e-02 -5.6474526672007896e-01 +5.6129192704384139e-03
-1.2000000000000000e+00 +8.1529590952522994e+00 +0.0000000000000000e+00 -1.2009607676860801e+00 -2.9305656171020659e-02 -5.6474543975881475e-01 +5.6130113691841635e-03
-1.3000000000000000e+00 +8.1529519937357708e+00 +0.0000000000000000e+00 -1.3010408314852300e+00 -2.9305554025397341e-02 -5.6474562444931131e-01 +5.6131042574076922e-03
-1.3999999999999999e+00 +8.1529443240979198e+00 +0.0000000000000000e+00 -1.4011208952424601e+00 -2.9305446589955746e-02 -5.6474582125179684e-01 +5.6131979712611231e-03
-1.5000000000000000e+00 +8.1529360863350995e+00 +0.0000000000000000e+00 -1.5012009589545301e+00 -2.9305334761910985e-02 -5.6474603062651119e-01 +5.6132925468989079e-03
-1.6000000000000001e+00 +8.1529272804509691e+00 +0.0000000000000000e+00 -1.6012810226182299e+00 -2.9305219438462791e-02 -5.6474625303365122e-01 +5.6133880204774726e-03
-1.7000000000000000e+00 +8.1529179064491508e+00 +0.0000000000000000e+00 -1.7013610862303301e+00 -2.9305101516797299e-02 -5.6474648893343005e-01 +5.6134844281560273e-03
-1.8000000000000000e+00 +8.1529079643223703e+00 +0.0000000000000000e+00 -1.8014411497875999e+00 -2.9304981894090240e-02 -5.6474673878616477e-01 +5.6135818060976516e-03
-1.8999999999999999e+00 +8.1528974540779000e+00 +0.0000000000000000e+00 -1.9015212132868200e+00 -2.9304861467494704e-02 -5.6474700305208259e-01 +5.6136801904675326e-03
-2.0000000000000000e+00 +8.1528863757084800e+00 +0.0000000000000000e+00 -2.0016012767247702e+00 -2.9304741134151577e-02 -5.6474728219154680e-01 +5.6137796174354207e-03
-2.1000000000000001e+00 +8.1528747292177304e+00 +0.0000000000000000e+00 -2.1016813400982199e+00 -2.9304621646579238e-02 -5.6474757647590923e-01 +5.6138801105098295e-03
-2.2000000000000002e+00 +8.1528625146056601e+00 +0.0000000000000000e+00 -2.2017614034039301e+00 -2.9304503205989093e-02 -5.6474788545616661e-01 +5.6139816449191351e-03
-2.2999999999999998e+00 +8.1528497318759001e+00 +0.0000000000000000e+00 -2.3018414666387002e+00 -2.9304385882226794e-02 -5.6474820851164731e-01 +5.6140841843866293e-03
-2.3999999999999999e+00 +8.1528363810211903e+00 +0.0000000000000000e+00 -2.4019215297993002e+00 -2.9304269745144863e-02 -5.6474854502178740e-01 +5.6141876926360818e-03
-2.5000000000000000e+00 +8.1528224620451493e+00 +0.0000000000000000e+00 -2.5020015928824901e+00 -2.9304154864594558e-02 -5.6474889436596221e-01 +5.6142921333897670e-03
-2.6000000000000001e+00 +8.1528079749477893e+00 +0.0000000000000000e+00 -2.6020816558850601e+00 -2.9304041310433245e-02 -5.6474925592360048e-01 +5.6143974703693530e-03
-2.7000000000000002e+00 +8.1527929197291105e+00 +0.0000000000000000e+00 -2.7021617188037701e+00 -2.9303929152523982e-02 -5.6474962907415838e-01 +5.6145036672953863e-03
-2.7999999999999998e+00 +8.1527772963891003e+00 +0.0000000000000000e+00 -2.8022417816354102e+00 -2.9303818460736715e-02 -5.6475001319711904e-01 +5.6146106878870311e-03
-2.8999999999999999e+00 +8.1527611049277802e+00 +0.0000000000000000e+00 -2.9023218443767500e+00 -2.9303709304949407e-02 -5.6475040767199602e-01 +5.6147184958618189e-03
-3.0000000000000000e+00 +8.1527443453451305e+00 +0.0000000000000000e+00 -3.0024019070245598e+00 -2.9303601755049216e-02 -5.6475081187833387e-01 +5.6148270549354140e-03
-3.1000000000000001e+00 +8.1527270176411495e+00 +0.0000000000000000e+00 -3.1024819695756198e+00 -2.9303495880933676e-02 -5.6475122519571030e-01 +5.6149363288213582e-03
-3.2000000000000002e+00 +8.1527091218158603e+00 +0.0000000000000000e+00 -3.2025620320267101e+00 -2.9303391752511808e-02 -5.6475164700373581e-01 +5.6150462812308150e-03
-3.2999999999999998e+00 +8.1526906578692397e+00 +0.0000000000000000e+00 -3.3026420943745900e+00 -2.9303289439705327e-02 -5.6475207668205718e-01 +5.6151568758723430e-03
-3.3999999999999999e+00 +8.1526716258013003e+00 +0.0000000000000000e+00 -3.4027221566160502e+00 -2.9303189012449792e-02 -5.6475251361035805e-01 +5.6152680764516259e-03
-3.5000000000000000e+00 +8.1526520256120403e+00 +0.0000000000000000e+00 -3.5028022187478500e+00 -2.9303090540695752e-02 -5.6475295716836083e-01 +5.6153798466712437e-03
-3.6000000000000001e+00 +8.1526318572978198e+00 +0.0000000000000000e+00 -3.6028822807667802e+00 -2.9302994094411484e-02 -5.6475340673585495e-01 +5.6154921502306939e-03
-3.7000000000000002e+00 +8.1526111208659096e+00 +0.0000000000000000e+00 -3.7029623426696099e+00 -2.9302899743577918e-02 -5.6475386169258812e-01 +5.6156049508250148e-03
-3.7999999999999998e+00 +8.1525898163126804e+00 +0.0000000000000000e+00 -3.8030424044531101e+00 -2.9302807558199133e-02 -5.6475432141843374e-01 +5.6157182121462394e-03
-3.8999999999999999e+00 +8.1525679436344909e+00 +0.0000000000000000e+00 -3.9031224661140600e+00 -2.9302717608298841e-02 -5.6475478529330991e-01 +5.6158318978823075e-03
-4.0000000000000000e+00 +8.1525455028386205e+00 +0.0000000000000000e+00 -4.0032025276492398e+00 -2.9302629963917616e-02 -5.6475525269709725e-01 +5.6159459717160347e-03
-4.0999999999999996e+00 +8.1525224939177896e+00 +0.0000000000000000e+00 -4.1032825890554099e+00 -2.9302544718075019e-02 -5.6475572303556421e-01 +5.6160604003027189e-03
-4.2000000000000002e+00 +8.1524989168792708e+00 +0.0000000000000000e+00 -4.2033626503293604e+00 -2.9302462047206223e-02 -5.6475619580788350e-01 +5.6161751611087749e-03
-4.2999999999999998e+00 +8.1524747717157897e+00 +0.0000000000000000e+00 -4.3034427114678504e+00 -2.9302382146689974e-02 -5.6475667053452339e-01 +5.6162902340576902e-03
-4.4000000000000004e+00 +8.1524500584346207e+00 +0.0000000000000000e+00 -4.4035227724676700e+00 -2.9302305211890887e-02 -5.6475714673577793e-01 +5.6164055990719705e-03
-4.5000000000000000e+00 +8.1524247770285001e+00 +0.0000000000000000e+00 -4.5036028333255800e+00 -2.9302231438171015e-02 -5.6475762393198481e-01 +5.6165212360754866e-03
-4.5999999999999996e+00 +8.1523989275046898e+00 +0.0000000000000000e+00 -4.6036828940383696e+00 -2.9302161020876797e-02 -5.6475810164329587e-01 +5.6166371249912316e-03
-4.7000000000000002e+00 +8.1523725098559208e+00 +0.0000000000000000e+00 -4.7037629546028104e+00 -2.9302094155350768e-02 -5.6475857938989815e-01 +5.6167532457436845e-03
-4.7999999999999998e+00 +8.1523455240894709e+00 +0.0000000000000000e+00 -4.8038430150156701e+00 -2.9302031036918478e-02 -5.6475905669178295e-01 +5.6168695782565659e-03
-4.9000000000000004e+00 +8.1523179701980606e+00 +0.0000000000000000e+00 -4.9039230752737302e+00 -2.9301971860900160e-02 -5.6475953306896698e-01 +5.6169861024551989e-03
-5.0000000000000000e+00 +8.1522898481889605e+00 +0.0000000000000000e+00 -5.0040031353737602e+00 -2.9301916822597619e-02 -5.6476000804126014e-01 +5.6171027982642565e-03
-5.0999999999999996e+00 +8.1522611580549000e+00 +0.0000000000000000e+00 -5.1040831953125396e+00 -2.9301866117306053e-02 -5.6476048112848865e-01 +5.6172196456101406e-03
-5.2000000000000002e+00 +8.1522318997995207e+00 +0.0000000000000000e+00 -5.2041632550868497e+00 -2.9301819940302329e-02 -5.6476095185029140e-01 +5.6173366244189997e-03
-5.2999999999999998e+00 +8.1522020734228100e+00 +0.0000000000000000e+00 -5.3042433146934496e+00 -2.9301778486850651e-02 -5.6476141972622784e-01 +5.6174537146179591e-03
-5.4000000000000004e+00 +8.1521716789247893e+00 +0.0000000000000000e+00 -5.4043233741291203e+00 -2.9301741952200210e-02 -5.6476188427574525e-01 +5.6175708961348865e-03
-5.5000000000000000e+00 +8.1521407163090807e+00 +0.0000000000000000e+00 -5.5044034333906504e+00 -2.9301710531582981e-02 -5.6476234501814526e-01 +5.6176881488981594e-03
-5.5999999999999996e+00 +8.1521091855684098e+00 +0.0000000000000000e+00 -5.6044834924747899e+00 -2.9301684420219246e-02 -5.6476280147269198e-01 +5.6178054528378749e-03
-5.7000000000000002e+00 +8.1520770867064094e+00 +0.0000000000000000e+00 -5.7045635513783299e+00 -2.9301663813307548e-02 -5.6476325315843767e-01 +5.6179227878841807e-03
-5.7999999999999998e+00 +8.1520444197231008e+00 +0.0000000000000000e+00 -5.8046436100980499e+00 -2.9301648906030219e-02 -5.6476369959433137e-01 +5.6180401339684868e-03
-5.9000000000000004e+00 +8.1520111846184609e+00 +0.0000000000000000e+00 -5.9047236686307096e+00 -2.9301639893551178e-02 -5.6476414029918443e-01 +5.6181574710232355e-03
-5.9999999999999902e+00 +8.1519773813925003e+00 +0.0000000000000000e+00 -6.0048037269731003e+00 -2.9301636971001892e-02 -5.6476457479167785e-01 +5.6182747789827181e-03
-6.0999999999999899e+00 +8.1519430100452208e+00 +0.0000000000000000e+00 -6.1048837851219799e+00 -2.9301640195430148e-02 -5.6476500270342067e-01 +5.6183920456124989e-03
-6.1999999999999904e+00 +8.1519080705766100e+00 +0.0000000000000000e+00 -6.2049638430741396e+00 -2.9301649145509520e-02 -5.6476542405773311e-01 +5.6185092858090091e-03
-6.2999999999999901e+00 +8.1518725629866804e+00 +0.0000000000000000e+00 -6.3050439008263499e+00 -2.9301663296383434e-02 -5.6476583896278243e-01 +5.6186265203413098e-03
-6.3999999999999897e+00 +8.1518364872754301e+00 +0.0000000000000000e+00 -6.4051239583753699e+00 -2.9301682123199762e-02 -5.6476624752681226e-01 +5.6187437699793796e-03
-6.4999999999999902e+00 +8.1517998434428591e+00 +0.0000000000000000e+00 -6.5052040157180002e+00 -2.9301705101111228e-02 -5.6476664985814273e-01 +5.6188610554941598e-03
-6.5999999999999899e+00 +8.1517626314889604e+00 +0.0000000000000000e+00 -6.6052840728510001e+00 -2.9301731705275596e-02 -5.6476704606517725e-01 +5.6189783976575911e-03
-6.6999999999999904e+00 +8.1517248514137499e+00 +0.0000000000000000e+00 -6.7053641297711399e+00 -2.9301761410856116e-02 -5.6476743625640591e-01 +5.6190958172426565e-03
-6.7999999999999901e+00 +8.1516865032135701e+00 +0.0000000000000000e+00 -6.8054441864752100e+00 -2.9301793693023312e-02 -5.6476782054043795e-01 +5.6192133350237159e-03
-6.8999999999999897e+00 +8.1516475868957095e+00 +0.0000000000000000e+00 -6.9055242429599701e+00 -2.9301828026949105e-02 -5.6476819902589248e-01 +5.6193309717753838e-03
-6.9999999999999902e+00 +8.1516081024565192e+00 +0.0000000000000000e+00 -7.0056042992222096e+00 -2.9301863887816491e-02 -5.6476857182157314e-01 +5.6194487482743175e-03
-7.0999999999999899e+00 +8.1515680498960101e+00 +0.0000000000000000e+00 -7.1056843552586999e+00 -2.9301900750813580e-02 -5.6476893903635805e-01 +5.6195666852980903e-03
-7.1999999999999904e+00 +8.1515274292141804e+00 +0.0000000000000000e+00 -7.2057644110662000e+00 -2.9301938091135547e-02 -5.6476930077923237e-01 +5.6196848036255279e-03
-7.2999999999999901e+00 +8.1514862404073902e+00 +0.0000000000000000e+00 -7.3058444666415099e+00 -2.9301975383986403e-02 -5.6476965715932215e-01 +5.6198031240370415e-03
-7.3999999999999897e+00 +8.1514444834829192e+00 +0.0000000000000000e+00 -7.4059245219813796e+00 -2.9302012104573186e-02 -5.6477000828578272e-01 +5.6199216673134995e-03
-7.4999999999999902e+00 +8.1514021584334806e+00 +0.0000000000000000e+00 -7.5060045770826100e+00 -2.9302047728117134e-02 -5.6477035426800404e-01 +5.6200404542383134e-03
-7.5999999999999899e+00 +8.1513592652663593e+00 +0.0000000000000000e+00 -7.6060846319419504e+00 -2.9302081729841549e-02 -5.6477069521538603e-01 +5.6201595055951495e-03
-7.6999999999999904e+00 +8.1513158039779192e+00 +0.0000000000000000e+00 -7.7061646865561997e+00 -2.9302113584982990e-02 -5.6477103123754135e-01 +5.6202788421700007e-03
-7.7999999999999901e+00 +8.1512717745681602e+00 +0.0000000000000000e+00 -7.8062447409221098e+00 -2.9302142768785427e-02 -5.6477136244418724e-01 +5.6203984847500695e-03
-7.8999999999999897e+00 +8.1512271770334301e+00 +0.0000000000000000e+00 -7.9063247950364799e+00 -2.9302168756503558e-02 -5.6477168894520435e-01 +5.6205184541243845e-03
-7.9999999999999902e+00 +8.1511820113773901e+00 +0.0000000000000000e+00 -8.0064048488960609e+00 -2.9302191023425257e-02 -5.6477201085059625e-01 +5.6206387710766737e-03
-8.0999999999999908e+00 +8.1511362776036496e+00 +0.0000000000000000e+00 -8.1064849024976393e+00 -2.9302209167149568e-02 -5.6477232844131542e-01 +5.6207594274385094e-03
-8.1999999999999904e+00 +8.1510899757086008e+00 +0.0000000000000000e+00 -8.2065649558379903e+00 -2.9302223189363135e-02 -5.6477264256276971e-01 +5.6208803193819072e-03
-8.2999999999999901e+00 +8.1510431056885899e+00 +0.0000000000000000e+00 -8.3066450089139003e+00 -2.9302233175106038e-02 -5.6477295417671169e-01 +5.6210013233480936e-03
-8.3999999999999897e+00 +8.1509956675508892e+00 +0.0000000000000000e+00 -8.4067250617221205e+00 -2.9302239209434984e-02 -5.6477326424475560e-01 +5.6211223157747554e-03
-8.4999999999999893e+00 +8.1509476612882299e+00 +0.0000000000000000e+00 -8.5068051142594392e+00 -2.9302241377434850e-02 -5.6477357372857251e-01 +5.6212431730979454e-03
-8.5999999999999908e+00 +8.1508990869078808e+00 +0.0000000000000000e+00 -8.6068851665226305e+00 -2.9302239764206799e-02 -5.6477388358966230e-01 +5.6213637717497100e-03
-8.6999999999999904e+00 +8.1508499444025801e+00 +0.0000000000000000e+00 -8.7069652185084596e+00 -2.9302234454881428e-02 -5.6477419478957802e-01 +5.6214839881602932e-03
-8.7999999999999794e+00 +8.1508002337759500e+00 +0.0000000000000000e+00 -8.8070452702137203e+00 -2.9302225534608432e-02 -5.6477450828972597e-01 +5.6216036987560315e-03
-8.8999999999999808e+00 +8.1507499550316407e+00 +0.0000000000000000e+00 -8.9071253216351796e+00 -2.9302213088561919e-02 -5.6477482505144816e-01 +5.6217227799601399e-03
-8.9999999999999805e+00 +8.1506991081623692e+00 +0.0000000000000000e+00 -9.0072053727696098e+00 -2.9302197201945740e-02 -5.6477514603610479e-01 +5.6218411081934835e-03
-9.0999999999999801e+00 +8.1506476931717806e+00 +0.0000000000000000e+00 -9.1072854236137797e+00 -2.9302177959984695e-02 -5.6477547220490409e-01 +5.6219585598727652e-03
-9.1999999999999797e+00 +8.1505957100635005e+00 +0.0000000000000000e+00 -9.2073654741644795e+00 -2.9302155447929912e-02 -5.6477580451898302e-01 +5.6220750114112884e-03
-9.2999999999999794e+00 +8.1505431588302599e+00 +0.0000000000000000e+00 -9.3074455244184708e+00 -2.9302129751064089e-02 -5.6477614393949127e-01 +5.6221903392197599e-03
-9.3999999999999808e+00 +8.1504900394757005e+00 +0.0000000000000000e+00 -9.4075255743725297e+00 -2.9302100954692722e-02 -5.6477649142741970e-01 +5.6223044197044429e-03
-9.4999999999999805e+00 +8.1504363520034495e+00 +0.0000000000000000e+00 -9.5076056240234408e+00 -2.9302069144149567e-02 -5.6477684794368244e-01 +5.6224171292679637e-03
-9.5999999999999801e+00 +8.1503820964062506e+00 +0.0000000000000000e+00 -9.6076856733679694e+00 -2.9302034404801728e-02 -5.6477721444920026e-01 +5.6225283443100621e-03
-9.6999999999999797e+00 +8.1503272726913600e+00 +0.0000000000000000e+00 -9.7077657224029004e+00 -2.9301996822039520e-02 -5.6477759190469978e-01 +5.6226379412255157e-03
-9.7999999999999794e+00 +8.1502718808515109e+00 +0.0000000000000000e+00 -9.8078457711250007e+00 -2.9301956481289498e-02 -5.6477798127093881e-01 +5.6227457964063265e-03
-9.8999999999999808e+00 +8.1502159208903304e+00 +0.0000000000000000e+00 -9.9079258195310498e+00 -2.9301913468004172e-02 -5.6477838350850540e-01 +5.6228517862396445e-03
-9.9999999999999805e+00 +8.1501593928078400e+00 +0.0000000000000000e+00 -1.0008005867617801e+01 -2.9301867867773147e-02 -5.6477879957782273e-01 +5.6229557871351043e-03
-1.0100000000000000e+01 +8.1501022966040200e+00 +0.0000000000000000e+00 -1.0108085915382100e+01 -2.9301820022365366e-02 -5.6477923017757725e-01 +5.6230577400909042e-03
-1.0199999999999999e+01 +8.1500446322825209e+00 +0.0000000000000000e+00 -1.0208165962820599e+01 -2.9301771080737851e-02 -5.6477967518188232e-01 +5.6231577896523489e-03
-1.0300000000000001e+01 +8.1499863998360507e+00 +0.0000000000000000e+00 -1.0308246009930199e+01 -2.9301722350423415e-02 -5.6478013430299689e-01 +5.6232561203670194e-03
-1.0400000000000000e+01 +8.1499275992682705e+00 +0.0000000000000000e+00 -1.0408326056707599e+01 -2.9301675138916204e-02 -5.6478060725317492e-01 +5.6233529167899017e-03
-1.0500000000000000e+01 +8.1498682305791608e+00 +0.0000000000000000e+00 -1.0508406103149600e+01 -2.9301630753677074e-02 -5.6478109374478025e-01 +5.6234483634847498e-03
-1.0600000000000000e+01 +8.1498082937723701e+00 +0.0000000000000000e+00 -1.0608486149253000e+01 -2.9301590502129340e-02 -5.6478159349023249e-01 +5.6235426450237198e-03
-1.0699999999999999e+01 +8.1497477888406102e+00 +0.0000000000000000e+00 -1.0708566195014500e+01 -2.9301555691664104e-02 -5.6478210620212099e-01 +5.6236359459887510e-03
-1.0800000000000001e+01 +8.1496867157875403e+00 +0.0000000000000000e+00 -1.0808646240430900e+01 -2.9301527629629915e-02 -5.6478263159303965e-01 +5.6237284509700336e-03
-1.0900000000000000e+01 +8.1496250746131391e+00 +0.0000000000000000e+00 -1.0908726285499000e+01 -2.9301507623338056e-02 -5.6478316937569961e-01 +5.6238203445673936e-03
-1.1000000000000000e+01 +8.1495628653174208e+00 +0.0000000000000000e+00 -1.1008806330215601e+01 -2.9301496980059894e-02 -5.6478371926290394e-01 +5.6239118113901978e-03
-1.1100000000000000e+01 +8.1495000879040198e+00 +0.0000000000000000e+00 -1.1108886374577500e+01 -2.9301497007024443e-02 -5.6478428096752253e-01 +5.6240030360572933e-03
-1.1199999999999999e+01 +8.1494367423620098e+00 +0.0000000000000000e+00 -1.1208966418581401e+01 -2.9301509011425111e-02 -5.6478485420263369e-01 +5.6240942031986684e-03
-1.1300000000000001e+01 +8.1493728287059604e+00 +0.0000000000000000e+00 -1.1309046462224000e+01 -2.9301534300401635e-02 -5.6478543868121733e-01 +5.6241854974524771e-03
-1.1400000000000000e+01 +8.1493083469249505e+00 +0.0000000000000000e+00 -1.1409126505502300e+01 -2.9301574181060806e-02 -5.6478603411655004e-01 +5.6242771034693021e-03
-1.1500000000000000e+01 +8.1492432970226201e+00 +0.0000000000000000e+00 -1.1509206548412800e+01 -2.9301629960458465e-02 -5.6478664022189917e-01 +5.6243692059092069e-03
-1.1600000000000000e+01 +8.1491776789989707e+00 +0.0000000000000000e+00 -1.1609286590952600e+01 -2.9301702945606245e-02 -5.6478725671066377e-01 +5.6244619894433604e-03
-1.1699999999999999e+01 +8.1491114928576298e+00 +0.0000000000000000e+00 -1.1709366633118099e+01 -2.9301794443467477e-02 -5.6478788329632290e-01 +5.6245556387537077e-03
