# multipoles
# s[mm] polynom_b[n=0][T/m^n] polynom_b[n=1][T/m^n] polynom_b[n=2][T/m^n] polynom_b[n=3][T/m^n] polynom_b[n=4][T/m^n] polynom_b[n=5][T/m^n] polynom_b[n=6][T/m^n] 
+0.0000000000000000e+00 -5.6471973062843162e-01 +7.7376300951003349e+00 +9.5851329020211651e-02 -5.5772508816772842e+01 -9.8383024528555993e+01 +5.3282742451397935e+04 -9.4142545072927084e+06 
+1.0000000000000001e-01 -5.6471997923901496e-01 +7.7376585247311711e+00 +9.9732220944054747e-02 -5.6159638962406021e+01 -1.7499589061490622e+02 +5.4855832809199113e+04 -9.0750925151566043e+06 
+2.0000000000000001e-01 -5.6472024574048862e-01 +7.7376875960248901e+00 +1.0333294622652976e-01 -5.6559112474342776e+01 -2.3918353475538046e+02 +5.6517116519146730e+04 -8.8083612368408497e+06 
+2.9999999999999999e-01 -5.6472052907078762e-01 +7.7377170886233824e+00 +1.0666439791097922e-01 -5.6967249753560210e+01 -2.9165398407382645e+02 +5.8250460191730206e+04 -8.6097268846061528e+06 
+4.0000000000000002e-01 -5.6472082816796232e-01 +7.7377467821682107e+00 +1.0973747081723093e-01 -5.7380371256279901e+01 -3.3311530001169973e+02 +6.0039730977190062e+04 -8.4748555070626140e+06 
+5.0000000000000000e-01 -5.6472114196994105e-01 +7.7377764562960962e+00 +1.1256305530610143e-01 -5.7794797354434358e+01 -3.6427546139467631e+02 +6.1868795712830681e+04 -8.3994135429572798e+06 
+5.9999999999999998e-01 -5.6472146941476320e-01 +7.7378058906426777e+00 +1.1515204904632283e-01 -5.8206848411695027e+01 -3.8584259059807459e+02 +6.3721521283810624e+04 -8.3790667359928610e+06 
+6.9999999999999996e-01 -5.6472180944036732e-01 +7.7378348648459765e+00 +1.1751534364125718e-01 -5.8612844898157235e+01 -3.9852469263757376e+02 +6.5581775309657256e+04 -8.4094813968456797e+06 
+8.0000000000000004e-01 -5.6472216098471650e-01 +7.7378631585399553e+00 +1.1966383172836401e-01 -5.9009107205777326e+01 -4.0302980318314309e+02 +6.7433425087675307e+04 -8.4863236621059775e+06 
+9.0000000000000002e-01 -5.6472252298580017e-01 +7.7378905513584719e+00 +1.2160840898268581e-01 -5.9391955723157544e+01 -4.0006601515938740e+02 +6.9260337896931640e+04 -8.6052593991554361e+06 
+1.0000000000000000e+00 -5.6472289438157519e-01 +7.7379168229390283e+00 +1.2335996788163972e-01 -5.9757710971151973e+01 -3.9034136836556269e+02 +7.1046381868950222e+04 -8.7619547095575333e+06 
+1.1000000000000001e+00 -5.6472327411005774e-01 +7.7379417529158170e+00 +1.2492940173622606e-01 -6.0102693369063147e+01 -3.7456392142307800e+02 +7.2775424531628087e+04 -8.9520756003965996e+06 
+1.2000000000000000e+00 -5.6472366110910610e-01 +7.7379651209260407e+00 +1.2632760286729505e-01 -6.0423223422555225e+01 -3.5344172402658944e+02 +7.4431333900462210e+04 -9.1712880962254126e+06 
+1.3000000000000000e+00 -5.6472405431668171e-01 +7.7379867066053905e+00 +1.2756546271246566e-01 -6.0715621580843980e+01 -3.2768281244634130e+02 +7.5997977628223191e+04 -9.4152582782427240e+06 
+1.3999999999999999e+00 -5.6472445267073468e-01 +7.7380062895966351e+00 +1.2865387263466840e-01 -6.0976208482524576e+01 -2.9799523153871763e+02 +7.7459224403185042e+04 -9.6796521630780119e+06 
+1.5000000000000000e+00 -5.6472485510916293e-01 +7.7380236495344592e+00 +1.2960372532929804e-01 -6.1201304501231235e+01 -2.6508705799902464e+02 +7.8798941275851088e+04 -9.9601356002860349e+06 
+1.6000000000000001e+00 -5.6472526056985617e-01 +7.7380385660648718e+00 +1.3042591005098952e-01 -6.1387230313539874e+01 -2.2966631296402701e+02 +8.0000996960019664e+04 -1.0252374679447349e+07 
+1.7000000000000000e+00 -5.6472566799067014e-01 +7.7380508188319395e+00 +1.3113131309872564e-01 -6.1530306492277340e+01 -1.9244096981402976e+02 +8.1049259409508755e+04 -1.0552035698557168e+07 
+1.8000000000000000e+00 -5.6472607630953509e-01 +7.7380601874820929e+00 +1.3173082767796657e-01 -6.1626853625779908e+01 -1.5411914277146244e+02 +8.1927596487405259e+04 -1.0854784261268666e+07 
+1.8999999999999999e+00 -5.6472648446423446e-01 +7.7380664516649205e+00 +1.3223533718190822e-01 -6.1673192355590075e+01 -1.1540877155086586e+02 +8.2619876225047701e+04 -1.1156286772272736e+07 
+2.0000000000000000e+00 -5.6472689139263821e-01 +7.7380693910351512e+00 +1.3265572997940528e-01 -6.1665643390099206e+01 -7.7017899372729033e+01 +8.3109966766047510e+04 -1.1452209122121630e+07 
+2.1000000000000001e+00 -5.6472729627687324e-01 +7.7380688507303903e+00 +1.3300226558600359e-01 -6.1601445553329782e+01 -3.9559347794100759e+01 +8.3384731267705894e+04 -1.1738802011857938e+07 
+2.2000000000000002e+00 -5.6472769927575461e-01 +7.7380649432611994e+00 +1.3328166445648618e-01 -6.1481629134371033e+01 -3.2497872044838156e+00 +8.3443615705660050e+04 -1.2014710046525409e+07 
+2.2999999999999998e+00 -5.6472810079189883e-01 +7.7380578493608985e+00 +1.3349949630828950e-01 -6.1308202096245630e+01 +3.1797156016457130e+01 +8.3289361457842460e+04 -1.2279190871534631e+07 
+2.3999999999999999e+00 -5.6472850122797491e-01 +7.7380477497662827e+00 +1.3366132972747721e-01 -6.1083172488554226e+01 +6.5467882367655960e+01 +8.2924710310056049e+04 -1.2531502270842193e+07 
+2.5000000000000000e+00 -5.6472890098658035e-01 +7.7380348252147408e+00 +1.3377273172915871e-01 -6.0808548362573951e+01 +9.7648818385704558e+01 +8.2352403945455138e+04 -1.2770902138145624e+07 
+2.6000000000000001e+00 -5.6472930047032999e-01 +7.7380192564417651e+00 +1.3383927021354361e-01 -6.0486337706353254e+01 +1.2822638371385412e+02 +8.1575183594585018e+04 -1.2996648356300529e+07 
+2.7000000000000002e+00 -5.6472970008192735e-01 +7.7380012241941811e+00 +1.3386651070031516e-01 -6.0118548817637986e+01 +1.5708703983140111e+02 +8.0595792148853390e+04 -1.3207998993998067e+07 
+2.7999999999999998e+00 -5.6473010022394177e-01 +7.7379809092094813e+00 +1.3386002130414887e-01 -5.9707189711755539e+01 +1.8411720980162073e+02 +7.9416970759651536e+04 -1.3404211959694987e+07 
+2.8999999999999999e+00 -5.6473050129902091e-01 +7.7379584922347702e+00 +1.3382536239949949e-01 -5.9254268679172327e+01 +2.0920346505434449e+02 +7.8041462078221652e+04 -1.3584545865112994e+07 
+3.0000000000000000e+00 -5.6473090370978596e-01 +7.7379341540149653e+00 +1.3376810038566503e-01 -5.8761793930605364e+01 +2.3223227185531763e+02 +7.6472008158965153e+04 -1.3748258841115313e+07 
+3.1000000000000001e+00 -5.6473130785886105e-01 +7.7379080753025979e+00 +1.3369379772868817e-01 -5.8231773884024804e+01 +2.5309017578805737e+02 +7.4711352132995948e+04 -1.3894609399647698e+07 
+3.2000000000000002e+00 -5.6473171414889334e-01 +7.7378804368470364e+00 +1.3360801503221131e-01 -5.7666216860796673e+01 +2.7166376891178999e+02 +7.2762236455598351e+04 -1.4022856296523554e+07 
+3.2999999999999998e+00 -5.6473212298247100e-01 +7.7378514194006209e+00 +1.3351631486493393e-01 -5.7067131255940438e+01 +2.8783961428501215e+02 +7.0627403876525728e+04 -1.4132258163204873e+07 
+3.3999999999999999e+00 -5.6473253476231600e-01 +7.7378212037180809e+00 +1.3342425803188160e-01 -5.6436525529033077e+01 +3.0150431619599084e+02 +6.8309597402804473e+04 -1.4222073838970920e+07 
+3.5000000000000000e+00 -5.6473294989095590e-01 +7.7377899705604438e+00 +1.3333740054912968e-01 -5.5776408305327934e+01 +3.1254458122464047e+02 +6.5811560838291189e+04 -1.4291562670734247e+07 
+3.6000000000000001e+00 -5.6473336877110702e-01 +7.7377579006823067e+00 +1.3326130265312633e-01 -5.5088788023799495e+01 +3.2084705078787965e+02 +6.3136036799067326e+04 -1.4339983726006174e+07 
+3.7000000000000002e+00 -5.6473379180539340e-01 +7.7377251748504889e+00 +1.3320152219144971e-01 -5.4375673463635586e+01 +3.2629842164917761e+02 +6.0285769710206507e+04 -1.4366596350975452e+07 
+3.7999999999999998e+00 -5.6473421939645552e-01 +7.7376919738277508e+00 +1.3316361386435935e-01 -5.3639073287861486e+01 +3.2878546349783653e+02 +5.7263503208074784e+04 -1.4370660262961710e+07 
+3.8999999999999999e+00 -5.6473465194694783e-01 +7.7376584783805713e+00 +1.3315313258721392e-01 -5.2880996248884848e+01 +3.2819495467695936e+02 +5.4071981260174216e+04 -1.4351435243366152e+07 
+4.0000000000000000e+00 -5.6473508985957721e-01 +7.7376248692811886e+00 +1.3317563350453254e-01 -5.2103451271246136e+01 +3.2441369039398563e+02 +5.0713948720342945e+04 -1.4308181198162548e+07 
+4.0999999999999996e+00 -5.6473553341607674e-01 +7.7375913094389634e+00 +1.3323639825277389e-01 -5.1308653505008706e+01 +3.1737970259391506e+02 +4.7194974480578807e+04 -1.4240600227983855e+07 
+4.2000000000000002e+00 -5.6473598242093659e-01 +7.7375578902351210e+00 +1.3334100652192293e-01 -5.0499834124524284e+01 +3.0722389562118548e+02 +4.3533446234439289e+04 -1.4150154569402406e+07 
+4.2999999999999998e+00 -5.6473643656091965e-01 +7.7375246851440984e+00 +1.3349547323233446e-01 -4.9680527904001252e+01 +2.9412245487308348e+02 +3.9751352324250460e+04 -1.4038745742069306e+07 
+4.4000000000000004e+00 -5.6473689552291118e-01 +7.7374917676418153e+00 +1.3370581430308542e-01 -4.8854269694505803e+01 +2.7825155296908059e+02 +3.5870681794517317e+04 -1.3908275228282612e+07 
+4.5000000000000000e+00 -5.6473735899371791e-01 +7.7374592111880860e+00 +1.3397804715823933e-01 -4.8024593892637455e+01 +2.5978733535036611e+02 +3.1913421274722048e+04 -1.3760644392700771e+07 
+4.5999999999999996e+00 -5.6473782666018235e-01 +7.7374270892431589e+00 +1.3431819023290975e-01 -4.7195034948527891e+01 +2.3890593308325333e+02 +2.7901558010044537e+04 -1.3597754552118406e+07 
+4.7000000000000002e+00 -5.6473829820920962e-01 +7.7373954752595040e+00 +1.3473226637853103e-01 -4.6369127113392459e+01 +2.1578339766681069e+02 +2.3857078381635161e+04 -1.3421506663264131e+07 
+4.7999999999999998e+00 -5.6473877332765432e-01 +7.7373644426816659e+00 +1.3522629972024111e-01 -4.5550404432459402e+01 +1.9059576032197438e+02 +1.9801967859462304e+04 -1.3233801607636323e+07 
+4.9000000000000004e+00 -5.6473925170240968e-01 +7.7373340649460394e+00 +1.3580631625858411e-01 -4.4742400755021499e+01 +1.6351901860065695e+02 +1.5758211122643832e+04 -1.3036540120471215e+07 
+5.0000000000000000e+00 -5.6473973302040437e-01 +7.7373044154810682e+00 +1.3647834623873897e-01 -4.3948649735323663e+01 +1.3472909695502224e+02 +1.1747792072779108e+04 -1.2831622619422410e+07 
+5.0999999999999996e+00 -5.6474021696859622e-01 +7.7372755677076723e+00 +1.3724842121742173e-01 -4.3172684842221898e+01 +1.0440189508663575e+02 +7.7926938840964867e+03 -1.2620949416063430e+07 
+5.2000000000000002e+00 -5.6474070323389958e-01 +7.7372475950412207e+00 +1.3812257438718853e-01 -4.2418039422946848e+01 +7.2713288631107588e+01 +3.9148994095177200e+03 -1.2406420737720842e+07 
+5.2999999999999998e+00 -5.6474119150330526e-01 +7.7372205708778594e+00 +1.3910684575792739e-01 -4.1688246313934023e+01 +3.9839025393250310e+01 +1.3638896224360650e+02 -1.2189936219783755e+07 
+5.4000000000000004e+00 -5.6474168146384074e-01 +7.7371945686152683e+00 +1.4020727668124183e-01 -4.0986838432169826e+01 +5.9548318916080740e+00 -3.5208562822125427e+03 -1.1973395418798100e+07 
+5.5000000000000000e+00 -5.6474217280246863e-01 +7.7371696616345318e+00 +1.4142991155311227e-01 -4.0317348269548724e+01 -2.8763614652132528e+01 -7.0348571355951908e+03 -1.1758697695684159e+07 
+5.5999999999999996e+00 -5.6474266520630223e-01 +7.7371459233064472e+00 +1.4278079681812281e-01 -3.9683308056266192e+01 -6.4140677003392767e+01 -1.0383635504289141e+04 -1.1547742229662802e+07 
+5.7000000000000002e+00 -5.6474315836233335e-01 +7.7371234269964342e+00 +1.4426598580053204e-01 -3.9088249921078379e+01 -1.0000084474431914e+02 -1.3545213387534597e+04 -1.1342427622461237e+07 
+5.7999999999999998e+00 -5.6474365195770215e-01 +7.7371022460491750e+00 +1.4589153271320182e-01 -3.8535705442047153e+01 -1.3616861471040994e+02 -1.6497615483288449e+04 -1.1144652482098814e+07 
+5.9000000000000004e+00 -5.6474414567947739e-01 +7.7370824538084273e+00 +1.4766349810748697e-01 -3.8029206221512858e+01 -1.7246860431923875e+02 -1.9218865840010734e+04 -1.0956314857173765e+07 
+5.9999999999999902e+00 -5.6474463921488249e-01 +7.7370641235977171e+00 +1.4958794531910219e-01 -3.7572283346826623e+01 -2.0872548046701169e+02 -2.1686990892832073e+04 -1.0779312585357681e+07 
+6.0999999999999899e+00 -5.6474513244810498e-01 +7.7370473132619813e+00 +1.5166690681167422e-01 -3.7167526568676422e+01 -2.4475661551686960e+02 -2.3885317961496483e+04 -1.0615269288644524e+07 
+6.1999999999999904e+00 -5.6474562604592493e-01 +7.7370320236250585e+00 +1.5388604290871521e-01 -3.6813403181488574e+01 -2.8037323640127886e+02 -2.5821410512925075e+04 -1.0464564666952314e+07 
+6.2999999999999901e+00 -5.6474612086907061e-01 +7.7370182423579896e+00 +1.5622682101125701e-01 -3.6507253447884501e+01 -3.1539118090291288e+02 -2.7509683494638710e+04 -1.0327225621749675e+07 
+6.3999999999999897e+00 -5.6474661777821344e-01 +7.7370059571399148e+00 +1.5867070424499558e-01 -3.6246417863326634e+01 -3.4962621487104525e+02 -2.8964550671937770e+04 -1.0203279363407768e+07 
+6.4999999999999902e+00 -5.6474711763399743e-01 +7.7369951556529282e+00 +1.6119915816562785e-01 -3.6028237022883609e+01 -3.8289415729596914e+02 -3.0200425415876514e+04 -1.0092752818622051e+07 
+6.5999999999999899e+00 -5.6474762129715872e-01 +7.7369858255916633e+00 +1.6379364431703727e-01 -3.5850051911865194e+01 -4.1501075705391702e+02 -3.1231718988594625e+04 -9.9956732158264127e+06 
+6.6999999999999904e+00 -5.6474812962836574e-01 +7.7369779546588786e+00 +1.6643562589276345e-01 -3.5709203765038929e+01 -4.4579180475006399e+02 -3.2072841420010449e+04 -9.9120675453900136e+06 
+6.7999999999999901e+00 -5.6474864348833864e-01 +7.7369715305648175e+00 +1.6910656686021150e-01 -3.5603034055795099e+01 -4.7505310774251791e+02 -3.2738201544978019e+04 -9.8419626977284942e+06 
+6.8999999999999897e+00 -5.6474916373775941e-01 +7.7369665410286146e+00 +1.7178792615117613e-01 -3.5528884533775866e+01 -5.0261039204691519e+02 -3.3242206814104291e+04 -9.7853858972108327e+06 
+6.9999999999999902e+00 -5.6474969123736440e-01 +7.7369629737830419e+00 +1.7446116374471626e-01 -3.5484097367931199e+01 -5.2827940644321029e+02 -3.3599262463647785e+04 -9.7423642359284498e+06 
+7.0999999999999899e+00 -5.6475022684782883e-01 +7.7369608165646673e+00 +1.7710773840273461e-01 -3.5466014853539036e+01 -5.5187588933363986e+02 -3.3823773237003028e+04 -9.7129248065494951e+06 
+7.1999999999999904e+00 -5.6475077142985519e-01 +7.7369600571257680e+00 +1.7970910683260105e-01 -3.5471979759102190e+01 -5.7321554677132633e+02 -3.3930141391598576e+04 -9.6970948195417859e+06 
+7.2999999999999901e+00 -5.6475132584420262e-01 +7.7369606832270943e+00 +1.8224672818987414e-01 -3.5499335126750232e+01 -5.9211414108033478e+02 -3.3932767830320285e+04 -9.6949011764507573e+06 
+7.3999999999999897e+00 -5.6475189095151368e-01 +7.7369626826417317e+00 +1.8470205626012218e-01 -3.5545424375014328e+01 -6.0838734482010022e+02 -3.3846051549785101e+04 -9.7063711538984403e+06 
+7.4999999999999902e+00 -5.6475246761258779e-01 +7.7369660431536031e+00 +1.8705654510104136e-01 -3.5607591258334011e+01 -6.2185084326468996e+02 -3.3684389871802072e+04 -9.7315319297419526e+06 
+7.5999999999999899e+00 -5.6475305668805875e-01 +7.7369707525593343e+00 +1.8929164760649686e-01 -3.5683179911800906e+01 -6.3232031118969553e+02 -3.3462178229548685e+04 -9.7704106815841794e+06 
+7.6999999999999904e+00 -5.6475365903868002e-01 +7.7369767986679694e+00 +1.9138881611564376e-01 -3.5769534869210617e+01 -6.3961142388055998e+02 -3.3193809992858027e+04 -9.8230345365713108e+06 
+7.7999999999999901e+00 -5.6475427552518809e-01 +7.7369841693036756e+00 +1.9332949920484324e-01 -3.5864001113674327e+01 -6.4353979587911442e+02 -3.2893676270161501e+04 -9.8894308618893698e+06 
+7.8999999999999897e+00 -5.6475490700828213e-01 +7.7369928522959555e+00 +1.9509514604352934e-01 -3.5963923811299544e+01 -6.4392106584198734e+02 -3.2576167410428079e+04 -9.9696268538240772e+06 
+7.9999999999999902e+00 -5.6475555434870528e-01 +7.7370028355024036e+00 +1.9666720276413346e-01 -3.6066648937878789e+01 -6.4057082451247561e+02 -3.2255669523288092e+04 -1.0063649896596618e+07 
+8.0999999999999908e+00 -5.6475621802239095e-01 +7.7370140964064307e+00 +1.9802990096936873e-01 -3.6169826131098461e+01 -6.3337065765645525e+02 -3.1944884997536057e+04 -1.0171342190000610e+07 
+8.1999999999999904e+00 -5.6475689696271580e-01 +7.7370265476590561e+00 +1.9917881859032496e-01 -3.6272327656196587e+01 -6.2243895067158098e+02 -3.1648534338392681e+04 -1.0291958211470684e+07 
+8.2999999999999901e+00 -5.6475758971671808e-01 +7.7370400799834798e+00 +2.0011254803944559e-01 -3.6373342762630173e+01 -6.0794740981088353e+02 -3.1368996318604106e+04 -1.0424643193395676e+07 
+8.3999999999999897e+00 -5.6475829483141560e-01 +7.7370545841064242e+00 +2.0082967678694272e-01 -3.6472060711660426e+01 -5.9006764437745903e+02 -3.1108649896173440e+04 -1.0568542844716894e+07 
+8.4999999999999893e+00 -5.6475901085384683e-01 +7.7370699507549681e+00 +2.0132879289134242e-01 -3.6567670633254288e+01 -5.6897127463620461e+02 -3.0869875038363578e+04 -1.0722802840449950e+07 
+8.5999999999999908e+00 -5.6475973633095822e-01 +7.7370860706587798e+00 +2.0160848124089151e-01 -3.6659361602090307e+01 -5.4482986243076550e+02 -3.0655052229678648e+04 -1.0886569145856692e+07 
+8.6999999999999904e+00 -5.6476046980972350e-01 +7.7371028345518873e+00 +2.0166732792917305e-01 -3.6746322661011376e+01 -5.1781498985259259e+02 -3.0466562420100723e+04 -1.1058987656939808e+07 
+8.7999999999999794e+00 -5.6476120983705114e-01 +7.7371201331687462e+00 +2.0150391275507204e-01 -3.6827742726167990e+01 -4.8809812441290507e+02 -3.0306787510220089e+04 -1.1239204819536291e+07 
+8.8999999999999808e+00 -5.6476195495989656e-01 +7.7371378572496132e+00 +2.0111681947095408e-01 -3.6902810727453257e+01 -4.5585080741009966e+02 -3.0178109567233092e+04 -1.1426366752877569e+07 
+8.9999999999999805e+00 -5.6476270372509085e-01 +7.7371558975329862e+00 +2.0050462432409905e-01 -3.6970715375822031e+01 -4.2124443641856254e+02 -3.0082912222304101e+04 -1.1619620282423969e+07 
+9.0999999999999801e+00 -5.6476345467949751e-01 +7.7371741447613527e+00 +1.9966590658541800e-01 -3.7030645348039926e+01 -3.8445047071031451e+02 -3.0023579529683044e+04 -1.1818111950453924e+07 
+9.1999999999999797e+00 -5.6476420636993274e-01 +7.7371924896820410e+00 +1.9859924056830028e-01 -3.7081789284029568e+01 -3.4564027130626101e+02 -3.0002496055908825e+04 -1.2020988799217729e+07 
+9.2999999999999794e+00 -5.6476495734322052e-01 +7.7372108230429690e+00 +1.9730320045189537e-01 -3.7123335682032902e+01 -3.0498520197504922e+02 -3.0022047431872459e+04 -1.2227397865438683e+07 
+9.3999999999999808e+00 -5.6476570614609534e-01 +7.7372290355931694e+00 +1.9577635757050069e-01 -3.7154472883349584e+01 -2.6265656820859670e+02 -3.0084620522248264e+04 -1.2436486498324428e+07 
+9.4999999999999805e+00 -5.6476645132527681e-01 +7.7372470180870634e+00 +1.9401728030248663e-01 -3.7174389219381446e+01 -2.1882562495343376e+02 -3.0192602494380186e+04 -1.2647402295373654e+07 
+9.5999999999999801e+00 -5.6476719142747200e-01 +7.7372646612795197e+00 +1.9202453706644701e-01 -3.7182272840181696e+01 -1.7366362575436369e+02 -3.0348381900701039e+04 -1.2859292890081637e+07 
+9.6999999999999797e+00 -5.6476792499937922e-01 +7.7372818559296288e+00 +1.8979669354992024e-01 -3.7177311835678225e+01 -1.2734177127566242e+02 -3.0554347914927490e+04 -1.3071306196236979e+07 
+9.7999999999999794e+00 -5.6476865058759507e-01 +7.7372984928021316e+00 +1.8733231213854942e-01 -3.7158694263123721e+01 -8.0031203424766829e+01 -3.0812890228491677e+04 -1.3282590421317143e+07 
+9.8999999999999808e+00 -5.6476936673871903e-01 +7.7373144626569630e+00 +1.8462995383819455e-01 -3.7125607847801362e+01 -3.1903035559519054e+01 -3.1126400754732516e+04 -1.3492293940369392e+07 
+9.9999999999999805e+00 -5.6477007199934504e-01 +7.7373296562611893e+00 +1.8168817779669663e-01 -3.7077240333433473e+01 +1.6871650824082444e+01 -3.1497271592762812e+04 -1.3699565297370356e+07 
+1.0100000000000000e+01 -5.6477076527321535e-01 +7.7373439759035314e+00 +1.7851122063955741e-01 -3.7013009658229741e+01 +6.6093175606507486e+01 -3.1927089740612533e+04 -1.3903476814954080e+07 
