# field on trajectory
# s[mm] rx[mm] ry[mm] rz[mm] bx[T] by[T] bz[T]
0.0000000000000000e+00 +7.9199999999999999e+00 +0.0000000000000000e+00 +0.0000000000000000e+00 -3.1039399225988838e-02 -5.9506929601180314e-01 +5.9346390163696628e-03
-1.0000000000000001e-01 +7.9199997166497722e+00 +0.0000000000000000e+00 -9.9999999999464753e-02 -3.1039375705204719e-02 -5.9506941359030652e-01 +5.9346335230283523e-03
-2.0000000000000001e-01 +7.9199988665990144e+00 +0.0000000000000000e+00 -1.9999999999571799e-01 -3.1039365573744343e-02 -5.9506953007767893e-01 +5.9346290049410583e-03
-3.0000000000000004e-01 +7.9199974498476156e+00 +0.0000000000000000e+00 -2.9999999998554827e-01 -3.1039367909173495e-02 -5.9506964520171157e-01 +5.9346255158060548e-03
-4.0000000000000002e-01 +7.9199954663954664e+00 +0.0000000000000000e+00 -3.9999999996574404e-01 -3.1039381789063594e-02 -5.9506975869017364e-01 +5.9346231093205170e-03
-5.0000000000000000e-01 +7.9199929162424585e+00 +0.0000000000000000e+00 -4.9999999993309380e-01 -3.1039406290989675e-02 -5.9506987027081426e-01 +5.9346218391807927e-03
-5.9999999999999998e-01 +7.9199897993884862e+00 +0.0000000000000000e+00 -5.9999999988438613e-01 -3.1039440492528349e-02 -5.9506997967136344e-01 +5.9346217590827040e-03
-6.9999999999999996e-01 +7.9199861158334457e+00 +0.0000000000000000e+00 -6.9999999981640937e-01 -3.1039483471255770e-02 -5.9507008661953387e-01 +5.9346229227218239e-03
-7.9999999999999993e-01 +7.9199818655772347e+00 +0.0000000000000000e+00 -7.9999999972595215e-01 -3.1039534304745556e-02 -5.9507019084302193e-01 +5.9346253837937735e-03
-8.9999999999999991e-01 +7.9199770486197538e+00 +0.0000000000000000e+00 -8.9999999960980293e-01 -3.1039592070566759e-02 -5.9507029206950846e-01 +5.9346291959944926e-03
-9.9999999999999989e-01 +7.9199716649609071e+00 +0.0000000000000000e+00 -9.9999999946475016e-01 -3.1039655846281877e-02 -5.9507039002666051e-01 +5.9346344130205477e-03
-1.0999999999999999e+00 +7.9199657146006013e+00 +0.0000000000000000e+00 -1.0999999992875824e+00 -3.1039724709444740e-02 -5.9507048444213406e-01 +5.9346410885693967e-03
-1.2000000000000000e+00 +7.9199591975387476e+00 +0.0000000000000000e+00 -1.1999999990750880e+00 -3.1039797737598487e-02 -5.9507057504357264e-01 +5.9346492763396926e-03
-1.3000000000000000e+00 +7.9199521137752589e+00 +0.0000000000000000e+00 -1.2999999988240556e+00 -3.1039874008273557e-02 -5.9507066155861110e-01 +5.9346590300315598e-03
-1.4000000000000001e+00 +7.9199444633100535e+00 +0.0000000000000000e+00 -1.3999999985312737e+00 -3.1039952598985600e-02 -5.9507074371487467e-01 +5.9346704033468875e-03
-1.5000000000000002e+00 +7.9199362461430534e+00 +0.0000000000000000e+00 -1.4999999981935306e+00 -3.1040032587233455e-02 -5.9507082123998301e-01 +5.9346834499896077e-03
-1.6000000000000003e+00 +7.9199274622741855e+00 +0.0000000000000000e+00 -1.5999999978076149e+00 -3.1040113050497132e-02 -5.9507089386154843e-01 +5.9346982236659959e-03
-1.7000000000000004e+00 +7.9199181117033808e+00 +0.0000000000000000e+00 -1.6999999973703153e+00 -3.1040193066235698e-02 -5.9507096130718029e-01 +5.9347147780849426e-03
-1.8000000000000005e+00 +7.9199081944305743e+00 +0.0000000000000000e+00 -1.7999999968784199e+00 -3.1040271711885354e-02 -5.9507102330448369e-01 +5.9347331669582495e-03
-1.9000000000000006e+00 +7.9198977104557082e+00 +0.0000000000000000e+00 -1.8999999963287175e+00 -3.1040348064857243e-02 -5.9507107958106287e-01 +5.9347534440009134e-03
-2.0000000000000004e+00 +7.9198866597787294e+00 +0.0000000000000000e+00 -1.9999999957179964e+00 -3.1040421202535542e-02 -5.9507112986452104e-01 +5.9347756629314135e-03
-2.1000000000000005e+00 +7.9198750423995898e+00 +0.0000000000000000e+00 -2.0999999950430452e+00 -3.1040490423457603e-02 -5.9507117412303301e-01 +5.9347998546752352e-03
-2.2000000000000006e+00 +7.9198628583182487e+00 +0.0000000000000000e+00 -2.1999999943006521e+00 -3.1040555910869658e-02 -5.9507121328706669e-01 +5.9348259589738122e-03
-2.3000000000000007e+00 +7.9198501075346677e+00 +0.0000000000000000e+00 -2.2999999934876056e+00 -3.1040618069198656e-02 -5.9507124852767235e-01 +5.9348538927730329e-03
-2.4000000000000008e+00 +7.9198367900488140e+00 +0.0000000000000000e+00 -2.3999999926006947e+00 -3.1040677302874138e-02 -5.9507128101591844e-01 +5.9348835730196701e-03
-2.5000000000000009e+00 +7.9198229058606575e+00 +0.0000000000000000e+00 -2.4999999916367077e+00 -3.1040734016330018e-02 -5.9507131192289064e-01 +5.9349149166612906e-03
-2.6000000000000010e+00 +7.9198084549701688e+00 +0.0000000000000000e+00 -2.5999999905924329e+00 -3.1040788614006300e-02 -5.9507134241969606e-01 +5.9349478406461650e-03
-2.7000000000000011e+00 +7.9197934373773196e+00 +0.0000000000000000e+00 -2.6999999894646587e+00 -3.1040841500350851e-02 -5.9507137367746621e-01 +5.9349822619231924e-03
-2.8000000000000012e+00 +7.9197778530820795e+00 +0.0000000000000000e+00 -2.7999999882501734e+00 -3.1040893079821094e-02 -5.9507140686735815e-01 +5.9350180974417953e-03
-2.9000000000000012e+00 +7.9197617020844184e+00 +0.0000000000000000e+00 -2.8999999869457658e+00 -3.1040943756885778e-02 -5.9507144316055760e-01 +5.9350552641518461e-03
-3.0000000000000013e+00 +7.9197449843843017e+00 +0.0000000000000000e+00 -2.9999999855482247e+00 -3.1040993936026707e-02 -5.9507148372828156e-01 +5.9350936790035650e-03
-3.1000000000000014e+00 +7.9197276999816912e+00 +0.0000000000000000e+00 -3.0999999840543380e+00 -3.1041044021740526e-02 -5.9507152974178013e-01 +5.9351332589474516e-03
-3.2000000000000015e+00 +7.9197098488765434e+00 +0.0000000000000000e+00 -3.1999999824608945e+00 -3.1041094418540357e-02 -5.9507158237234004e-01 +5.9351739209341763e-03
-3.3000000000000016e+00 +7.9196914310688085e+00 +0.0000000000000000e+00 -3.2999999807646825e+00 -3.1041145530957649e-02 -5.9507164279128599e-01 +5.9352155819145111e-03
-3.4000000000000017e+00 +7.9196724465584296e+00 +0.0000000000000000e+00 -3.3999999789624904e+00 -3.1041197763543880e-02 -5.9507171216998411e-01 +5.9352581588392288e-03
-3.5000000000000018e+00 +7.9196528953453420e+00 +0.0000000000000000e+00 -3.4999999770511070e+00 -3.1041251520872278e-02 -5.9507179167984414e-01 +5.9353015686590205e-03
-3.6000000000000019e+00 +7.9196327774294693e+00 +0.0000000000000000e+00 -3.5999999750273206e+00 -3.1041307207539552e-02 -5.9507188249232068e-01 +5.9353457283244076e-03
-3.7000000000000020e+00 +7.9196120928107261e+00 +0.0000000000000000e+00 -3.6999999728879196e+00 -3.1041365228167701e-02 -5.9507198577891796e-01 +5.9353905547856510e-03
-3.8000000000000020e+00 +7.9195908414890148e+00 +0.0000000000000000e+00 -3.7999999706296923e+00 -3.1041425987405696e-02 -5.9507210271119004e-01 +5.9354359649926736e-03
-3.9000000000000021e+00 +7.9195690234642244e+00 +0.0000000000000000e+00 -3.8999999682494275e+00 -3.1041489889931214e-02 -5.9507223446074564e-01 +5.9354818758949584e-03
-4.0000000000000018e+00 +7.9195466387362297e+00 +0.0000000000000000e+00 -3.9999999657439136e+00 -3.1041557340452462e-02 -5.9507238219924807e-01 +5.9355282044414722e-03
-4.1000000000000014e+00 +7.9195236873048911e+00 +0.0000000000000000e+00 -4.0999999631099389e+00 -3.1041628543827672e-02 -5.9507254677549393e-01 +5.9355748853337532e-03
-4.2000000000000011e+00 +7.9195001691700524e+00 +0.0000000000000000e+00 -4.1999999603442912e+00 -3.1041702905412097e-02 -5.9507272774660647e-01 +5.9356219242849293e-03
-4.3000000000000007e+00 +7.9194760843315422e+00 +0.0000000000000000e+00 -4.2999999574437604e+00 -3.1041779630693066e-02 -5.9507292434676262e-01 +5.9356693447590991e-03
-4.4000000000000004e+00 +7.9194514327891747e+00 +0.0000000000000000e+00 -4.3999999544051338e+00 -3.1041857925170977e-02 -5.9507313581010912e-01 +5.9357171702178009e-03
-4.5000000000000000e+00 +7.9194262145427485e+00 +0.0000000000000000e+00 -4.4999999512251998e+00 -3.1041936994359812e-02 -5.9507336137075917e-01 +5.9357654241198408e-03
-4.5999999999999996e+00 +7.9194004295920504e+00 +0.0000000000000000e+00 -4.5999999479007476e+00 -3.1042016043787451e-02 -5.9507360026279155e-01 +5.9358141299211053e-03
-4.6999999999999993e+00 +7.9193740779368529e+00 +0.0000000000000000e+00 -4.6999999444285647e+00 -3.1042094278996134e-02 -5.9507385172024463e-01 +5.9358633110743768e-03
-4.7999999999999989e+00 +7.9193471595769180e+00 +0.0000000000000000e+00 -4.7999999408054403e+00 -3.1042170905542791e-02 -5.9507411497711626e-01 +5.9359129910291656e-03
-4.8999999999999986e+00 +7.9193196745119963e+00 +0.0000000000000000e+00 -4.8999999370281628e+00 -3.1042245128999474e-02 -5.9507438926735967e-01 +5.9359631932315131e-03
-4.9999999999999982e+00 +7.9192916227418264e+00 +0.0000000000000000e+00 -4.9999999330935196e+00 -3.1042316154953706e-02 -5.9507467382488011e-01 +5.9360139411238199e-03
-5.0999999999999979e+00 +7.9192630042661394e+00 +0.0000000000000000e+00 -5.0999999289983000e+00 -3.1042383189008947e-02 -5.9507496788353353e-01 +5.9360652581446583e-03
-5.1999999999999975e+00 +7.9192338190846554e+00 +0.0000000000000000e+00 -5.1999999247392923e+00 -3.1042445436784888e-02 -5.9507527067712218e-01 +5.9361171677285978e-03
-5.2999999999999972e+00 +7.9192040671970876e+00 +0.0000000000000000e+00 -5.2999999203132839e+00 -3.1042502103917947e-02 -5.9507558143939299e-01 +5.9361696933060218e-03
-5.3999999999999968e+00 +7.9191737486031410e+00 +0.0000000000000000e+00 -5.3999999157170642e+00 -3.1042552396061591e-02 -5.9507589940403371e-01 +5.9362228583029432e-03
-5.4999999999999964e+00 +7.9191428633025138e+00 +0.0000000000000000e+00 -5.4999999109474214e+00 -3.1042595518886721e-02 -5.9507622380466996e-01 +5.9362766861408185e-03
-5.5999999999999961e+00 +7.9191114112948977e+00 +0.0000000000000000e+00 -5.5999999060011438e+00 -3.1042630678082155e-02 -5.9507655387486413e-01 +5.9363312002363869e-03
-5.6999999999999957e+00 +7.9190793925799801e+00 +0.0000000000000000e+00 -5.6999999008750191e+00 -3.1042657079354906e-02 -5.9507688884811005e-01 +5.9363864240014608e-03
-5.7999999999999954e+00 +7.9190468071574420e+00 +0.0000000000000000e+00 -5.7999998955658363e+00 -3.1042673928430669e-02 -5.9507722795783147e-01 +5.9364423808427689e-03
-5.8999999999999950e+00 +7.9190136550269630e+00 +0.0000000000000000e+00 -5.8999998900703838e+00 -3.1042680431054136e-02 -5.9507757043737952e-01 +5.9364990941617587e-03
-5.9999999999999947e+00 +7.9189799361882169e+00 +0.0000000000000000e+00 -5.9999998843854492e+00 -3.1042675792989468e-02 -5.9507791552002909e-01 +5.9365565873544237e-03
-6.0999999999999943e+00 +7.9189456506408771e+00 +0.0000000000000000e+00 -6.0999998785078215e+00 -3.1042659482434429e-02 -5.9507826254354013e-01 +5.9366148669311022e-03
-6.1999999999999940e+00 +7.9189107983846139e+00 +0.0000000000000000e+00 -6.1999998724342884e+00 -3.1042632017244050e-02 -5.9507861126389106e-01 +5.9366738718794913e-03
-6.2999999999999936e+00 +7.9188753794190960e+00 +0.0000000000000000e+00 -6.2999998661616390e+00 -3.1042594177648319e-02 -5.9507896154165718e-01 +5.9367335243109441e-03
-6.3999999999999932e+00 +7.9188393937439914e+00 +0.0000000000000000e+00 -6.3999998596866607e+00 -3.1042546743829075e-02 -5.9507931323745733e-01 +5.9367937463416925e-03
-6.4999999999999929e+00 +7.9188028413589659e+00 +0.0000000000000000e+00 -6.4999998530061420e+00 -3.1042490495917618e-02 -5.9507966621195718e-01 +5.9368544600930896e-03
-6.5999999999999925e+00 +7.9187657222636849e+00 +0.0000000000000000e+00 -6.5999998461168721e+00 -3.1042426213992502e-02 -5.9508002032587037e-01 +5.9369155876918631e-03
-6.6999999999999922e+00 +7.9187280364578116e+00 +0.0000000000000000e+00 -6.6999998390156383e+00 -3.1042354678077238e-02 -5.9508037543996151e-01 +5.9369770512703521e-03
-6.7999999999999918e+00 +7.9186897839410104e+00 +0.0000000000000000e+00 -6.7999998316992292e+00 -3.1042276668138011e-02 -5.9508073141504714e-01 +5.9370387729667500e-03
-6.8999999999999915e+00 +7.9186509647129428e+00 +0.0000000000000000e+00 -6.8999998241644329e+00 -3.1042192964081426e-02 -5.9508108811200000e-01 +5.9371006749253585e-03
-6.9999999999999911e+00 +7.9186115787732705e+00 +0.0000000000000000e+00 -6.9999998164080379e+00 -3.1042104345752216e-02 -5.9508144539174956e-01 +5.9371626792968204e-03
-7.0999999999999908e+00 +7.9185716261216541e+00 +0.0000000000000000e+00 -7.0999998084268316e+00 -3.1042011592930956e-02 -5.9508180311528447e-01 +5.9372247082383721e-03
-7.1999999999999904e+00 +7.9185311067577544e+00 +0.0000000000000000e+00 -7.1999998002176033e+00 -3.1041915485331816e-02 -5.9508216114365531e-01 +5.9372866839140859e-03
-7.2999999999999901e+00 +7.9184900206812321e+00 +0.0000000000000000e+00 -7.2999997917771404e+00 -3.1041816802600229e-02 -5.9508251933797529e-01 +5.9373485284951039e-03
-7.3999999999999897e+00 +7.9184483678917470e+00 +0.0000000000000000e+00 -7.3999997831022322e+00 -3.1041716324310700e-02 -5.9508287755942557e-01 +5.9374101641599059e-03
-7.4999999999999893e+00 +7.9184061483889598e+00 +0.0000000000000000e+00 -7.4999997741896660e+00 -3.1041614829964405e-02 -5.9508323566925381e-01 +5.9374715130945267e-03
-7.5999999999999890e+00 +7.9183633621725305e+00 +0.0000000000000000e+00 -7.5999997650362303e+00 -3.1041513098987030e-02 -5.9508359352877849e-01 +5.9375324974928210e-03
-7.6999999999999886e+00 +7.9183200092421195e+00 +0.0000000000000000e+00 -7.6999997556387134e+00 -3.1041411910726395e-02 -5.9508395099939082e-01 +5.9375930395566909e-03
-7.7999999999999883e+00 +7.9182760895973878e+00 +0.0000000000000000e+00 -7.7999997459939028e+00 -3.1041312044450254e-02 -5.9508430794255651e-01 +5.9376530614963481e-03
-7.8999999999999879e+00 +7.9182316032379978e+00 +0.0000000000000000e+00 -7.8999997360985876e+00 -3.1041214279343934e-02 -5.9508466421981765e-01 +5.9377124855305424e-03
-7.9999999999999876e+00 +7.9181865501636111e+00 +0.0000000000000000e+00 -7.9999997259495554e+00 -3.1041119394508120e-02 -5.9508501969279659e-01 +5.9377712338868158e-03
-8.0999999999999872e+00 +7.9181409303738901e+00 +0.0000000000000000e+00 -8.0999997155435945e+00 -3.1041028078495941e-02 -5.9508537441435194e-01 +5.9378292524991652e-03
-8.1999999999999869e+00 +7.9180947438684983e+00 +0.0000000000000000e+00 -8.1999997048774933e+00 -3.1040940657981027e-02 -5.9508572920200076e-01 +5.9378865820972227e-03
-8.2999999999999865e+00 +7.9180479906471000e+00 +0.0000000000000000e+00 -8.2999996939480400e+00 -3.1040857369237149e-02 -5.9508608506435090e-01 +5.9379432871064829e-03
-8.3999999999999861e+00 +7.9180006707093575e+00 +0.0000000000000000e+00 -8.3999996827520231e+00 -3.1040778448616638e-02 -5.9508644300992464e-01 +5.9379994319493376e-03
-8.4999999999999858e+00 +7.9179527840549317e+00 +0.0000000000000000e+00 -8.4999996712862309e+00 -3.1040704132553162e-02 -5.9508680404715764e-01 +5.9380550810449540e-03
-8.5999999999999854e+00 +7.9179043306834798e+00 +0.0000000000000000e+00 -8.5999996595474499e+00 -3.1040634657564511e-02 -5.9508716918439397e-01 +5.9381102988091232e-03
-8.6999999999999851e+00 +7.9178553105946552e+00 +0.0000000000000000e+00 -8.6999996475324703e+00 -3.1040570260255397e-02 -5.9508753942988379e-01 +5.9381651496541402e-03
-8.7999999999999847e+00 +7.9178057237881072e+00 +0.0000000000000000e+00 -8.7999996352380787e+00 -3.1040511177320249e-02 -5.9508791579178155e-01 +5.9382196979886554e-03
-8.8999999999999844e+00 +7.9177555702634788e+00 +0.0000000000000000e+00 -8.8999996226610634e+00 -3.1040457645546009e-02 -5.9508829927814144e-01 +5.9382740082175528e-03
-8.9999999999999840e+00 +7.9177048500204066e+00 +0.0000000000000000e+00 -8.9999996097982127e+00 -3.1040409901814944e-02 -5.9508869089691663e-01 +5.9383281447418059e-03
-9.0999999999999837e+00 +7.9176535630585185e+00 +0.0000000000000000e+00 -9.0999995966463150e+00 -3.1040368183107379e-02 -5.9508909165595392e-01 +5.9383821719583415e-03
-9.1999999999999833e+00 +7.9176017093774353e+00 +0.0000000000000000e+00 -9.1999995832021586e+00 -3.1040332726504555e-02 -5.9508950256299287e-01 +5.9384361542599148e-03
-9.2999999999999829e+00 +7.9175492889767671e+00 +0.0000000000000000e+00 -9.2999995694625319e+00 -3.1040303769191414e-02 -5.9508992462566257e-01 +5.9384901560349630e-03
-9.3999999999999826e+00 +7.9174963018561133e+00 +0.0000000000000000e+00 -9.3999995554242215e+00 -3.1040281548459326e-02 -5.9509035885147732e-01 +5.9385442416674695e-03
-9.4999999999999822e+00 +7.9174427480150618e+00 +0.0000000000000000e+00 -9.4999995410840175e+00 -3.1040266301708992e-02 -5.9509080624783572e-01 +5.9385984755368406e-03
-9.5999999999999819e+00 +7.9173886274531879e+00 +0.0000000000000000e+00 -9.5999995264387064e+00 -3.1040258266453163e-02 -5.9509126782201716e-01 +5.9386529220177581e-03
-9.6999999999999815e+00 +7.9173339401700549e+00 +0.0000000000000000e+00 -9.6999995114850766e+00 -3.1040257680319421e-02 -5.9509174458117764e-01 +5.9387076454800476e-03
-9.7999999999999812e+00 +7.9172786861652096e+00 +0.0000000000000000e+00 -9.7999994962199164e+00 -3.1040264781053057e-02 -5.9509223753234941e-01 +5.9387627102885426e-03
-9.8999999999999808e+00 +7.9172228654381840e+00 +0.0000000000000000e+00 -9.8999994806400142e+00 -3.1040279806519744e-02 -5.9509274768243547e-01 +5.9388181808029475e-03
-9.9999999999999805e+00 +7.9171664779884940e+00 +0.0000000000000000e+00 -9.9999994647421566e+00 -3.1040302994708453e-02 -5.9509327603820839e-01 +5.9388741213777024e-03
-1.0099999999999980e+01 +7.9171095238156388e+00 +0.0000000000000000e+00 -1.0099999448523132e+01 -3.1040334342475731e-02 -5.9509382321084414e-01 +5.9389305787114965e-03
-1.0199999999999980e+01 +7.9170520029190987e+00 +0.0000000000000000e+00 -1.0199999431979728e+01 -3.1040372881688236e-02 -5.9509438822958205e-01 +5.9389875288942979e-03
-1.0299999999999979e+01 +7.9169939152983382e+00 +0.0000000000000000e+00 -1.0299999415108735e+01 -3.1040417402884702e-02 -5.9509496972826981e-01 +5.9390449303577241e-03
-1.0399999999999979e+01 +7.9169352609528048e+00 +0.0000000000000000e+00 -1.0399999397906939e+01 -3.1040466696522738e-02 -5.9509556634086436e-01 +5.9391027415256394e-03
-1.0499999999999979e+01 +7.9168760398819327e+00 +0.0000000000000000e+00 -1.0499999380371127e+01 -3.1040519552976421e-02 -5.9509617670143289e-01 +5.9391609208139587e-03
-1.0599999999999978e+01 +7.9168162520851428e+00 +0.0000000000000000e+00 -1.0599999362498089e+01 -3.1040574762534037e-02 -5.9509679944415728e-01 +5.9392194266304748e-03
-1.0699999999999978e+01 +7.9167558975618437e+00 +0.0000000000000000e+00 -1.0699999344284612e+01 -3.1040631115395761e-02 -5.9509743320333597e-01 +5.9392782173746826e-03
-1.0799999999999978e+01 +7.9166949763114340e+00 +0.0000000000000000e+00 -1.0799999325727482e+01 -3.1040687401671263e-02 -5.9509807661338865e-01 +5.9393372514375854e-03
-1.0899999999999977e+01 +7.9166334883333036e+00 +0.0000000000000000e+00 -1.0899999306823489e+01 -3.1040742411377435e-02 -5.9509872830885779e-01 +5.9393964872015191e-03
-1.0999999999999977e+01 +7.9165714336268334e+00 +0.0000000000000000e+00 -1.0999999287569420e+01 -3.1040794934436053e-02 -5.9509938692441189e-01 +5.9394558830399733e-03
-1.1099999999999977e+01 +7.9165088121913980e+00 +0.0000000000000000e+00 -1.1099999267962064e+01 -3.1040843760671472e-02 -5.9510005109485020e-01 +5.9395153973174067e-03
-1.1199999999999976e+01 +7.9164456240263679e+00 +0.0000000000000000e+00 -1.1199999247998207e+01 -3.1040887679808279e-02 -5.9510071945510334e-01 +5.9395749883890663e-03
-1.1299999999999976e+01 +7.9163818691311079e+00 +0.0000000000000000e+00 -1.1299999227674638e+01 -3.1040925481468976e-02 -5.9510139064023837e-01 +5.9396346146008113e-03
-1.1399999999999975e+01 +7.9163175475049812e+00 +0.0000000000000000e+00 -1.1399999206988143e+01 -3.1040955955171687e-02 -5.9510206328546045e-01 +5.9396942342889265e-03
-1.1499999999999975e+01 +7.9162526591473492e+00 +0.0000000000000000e+00 -1.1499999185935513e+01 -3.1040977890327785e-02 -5.9510273602611674e-01 +5.9397538057799340e-03
-1.1599999999999975e+01 +7.9161872040575743e+00 +0.0000000000000000e+00 -1.1599999164513534e+01 -3.1040990076239630e-02 -5.9510340749769930e-01 +5.9398132873904330e-03
-1.1699999999999974e+01 +7.9161211822350186e+00 +0.0000000000000000e+00 -1.1699999142718992e+01 -3.1040991302098236e-02 -5.9510407633584816e-01 +5.9398726374268983e-03
