# trajectory
# s[mm] rx[mm] ry[mm] rz[mm] px[rad] py[rad] pz[rad]
0.0000000000000000e+00 +7.9199999999999999e+00 +0.0000000000000000e+00 +0.0000000000000000e+00 +0.0000000000000000e+00 +0.0000000000000000e+00 +1.0000000000000000e+00
-1.0000000000000001e-01 +7.9199997169575633e+00 +0.0000000000000000e+00 -9.9999999999465905e-02 +5.6608487946702367e-06 +0.0000000000000000e+00 +9.9999999998397737e-01
-2.0000000000000001e-01 +7.9199988678302269e+00 +0.0000000000000000e+00 -1.9999999999572729e-01 +1.1321698001847469e-05 +0.0000000000000000e+00 +9.9999999993590960e-01
-3.0000000000000004e-01 +7.9199974526179489e+00 +0.0000000000000000e+00 -2.9999999998557964e-01 +1.6982547622856415e-05 +0.0000000000000000e+00 +9.9999999985579657e-01
-4.0000000000000002e-01 +7.9199954713206884e+00 +0.0000000000000000e+00 -3.9999999996581842e-01 +2.2643397664914842e-05 +0.0000000000000000e+00 +9.9999999974363829e-01
-5.0000000000000000e-01 +7.9199929239384019e+00 +0.0000000000000000e+00 -4.9999999993323913e-01 +2.8304248141133433e-05 +0.0000000000000000e+00 +9.9999999959943475e-01
-5.9999999999999998e-01 +7.9199898104710451e+00 +0.0000000000000000e+00 -5.9999999988463726e-01 +3.3965099070515698e-05 +0.0000000000000000e+00 +9.9999999942318596e-01
-6.9999999999999996e-01 +7.9199861309185717e+00 +0.0000000000000000e+00 -6.9999999981680816e-01 +3.9625950477957842e-05 +0.0000000000000000e+00 +9.9999999921489191e-01
-7.9999999999999993e-01 +7.9199818852809329e+00 +0.0000000000000000e+00 -7.9999999972654745e-01 +4.5286802394248633e-05 +0.0000000000000000e+00 +9.9999999897455261e-01
-8.9999999999999991e-01 +7.9199770735580755e+00 +0.0000000000000000e+00 -8.9999999961065047e-01 +5.0947654856069279e-05 +0.0000000000000000e+00 +9.9999999870216805e-01
-9.9999999999999989e-01 +7.9199716957499424e+00 +0.0000000000000000e+00 -9.9999999946591278e-01 +5.6608507905993268e-05 +0.0000000000000000e+00 +9.9999999839773823e-01
-1.0999999999999999e+00 +7.9199657518564734e+00 +0.0000000000000000e+00 -1.0999999992891298e+00 +6.2269361592486228e-05 +0.0000000000000000e+00 +9.9999999806126316e-01
-1.2000000000000000e+00 +7.9199592418776010e+00 +0.0000000000000000e+00 -1.1999999990770971e+00 +6.7930215969905759e-05 +0.0000000000000000e+00 +9.9999999769274273e-01
-1.3000000000000000e+00 +7.9199521658132541e+00 +0.0000000000000000e+00 -1.2999999988266100e+00 +7.3591071098501280e-05 +0.0000000000000000e+00 +9.9999999729217692e-01
-1.4000000000000001e+00 +7.9199445236633537e+00 +0.0000000000000000e+00 -1.3999999985344642e+00 +7.9251927044413840e-05 +0.0000000000000000e+00 +9.9999999685956587e-01
-1.5000000000000002e+00 +7.9199363154278153e+00 +0.0000000000000000e+00 -1.4999999981974550e+00 +8.4912783879675948e-05 +0.0000000000000000e+00 +9.9999999639490944e-01
-1.6000000000000003e+00 +7.9199275411065457e+00 +0.0000000000000000e+00 -1.5999999978123778e+00 +9.0573641682211383e-05 +0.0000000000000000e+00 +9.9999999589820754e-01
-1.7000000000000004e+00 +7.9199182006994437e+00 +0.0000000000000000e+00 -1.6999999973760282e+00 +9.6234500535834975e-05 +0.0000000000000000e+00 +9.9999999536946027e-01
-1.8000000000000005e+00 +7.9199082942064001e+00 +0.0000000000000000e+00 -1.7999999968852016e+00 +1.0189536053025242e-04 +0.0000000000000000e+00 +9.9999999480866752e-01
-1.9000000000000006e+00 +7.9198978216272966e+00 +0.0000000000000000e+00 -1.8999999963366936e+00 +1.0755622176106007e-04 +0.0000000000000000e+00 +9.9999999421582930e-01
-2.0000000000000004e+00 +7.9198867829620037e+00 +0.0000000000000000e+00 -1.9999999957272994e+00 +1.1321708432974472e-04 +0.0000000000000000e+00 +9.9999999359094560e-01
-2.1000000000000005e+00 +7.9198751782103827e+00 +0.0000000000000000e+00 -2.0999999950538144e+00 +1.1887794834305737e-04 +0.0000000000000000e+00 +9.9999999293401642e-01
-2.2000000000000006e+00 +7.9198630073722835e+00 +0.0000000000000000e+00 -2.1999999943130342e+00 +1.2453881390612752e-04 +0.0000000000000000e+00 +9.9999999224504166e-01
-2.3000000000000007e+00 +7.9198502704475464e+00 +0.0000000000000000e+00 -2.2999999935017543e+00 +1.3019968111557749e-04 +0.0000000000000000e+00 +9.9999999152402130e-01
-2.4000000000000008e+00 +7.9198369674360025e+00 +0.0000000000000000e+00 -2.3999999926167703e+00 +1.3586055005889648e-04 +0.0000000000000000e+00 +9.9999999077095525e-01
-2.5000000000000009e+00 +7.9198230983374742e+00 +0.0000000000000000e+00 -2.4999999916548772e+00 +1.4152142081444067e-04 +0.0000000000000000e+00 +9.9999998998584350e-01
-2.6000000000000010e+00 +7.9198086631517768e+00 +0.0000000000000000e+00 -2.5999999906128708e+00 +1.4718229345143331e-04 +0.0000000000000000e+00 +9.9999998916868604e-01
-2.7000000000000011e+00 +7.9197936618787192e+00 +0.0000000000000000e+00 -2.6999999894875462e+00 +1.5284316802996473e-04 +0.0000000000000000e+00 +9.9999998831948278e-01
-2.8000000000000012e+00 +7.9197780945181044e+00 +0.0000000000000000e+00 -2.7999999882756992e+00 +1.5850404460099262e-04 +0.0000000000000000e+00 +9.9999998743823371e-01
-2.9000000000000012e+00 +7.9197619610697307e+00 +0.0000000000000000e+00 -2.8999999869741249e+00 +1.6416492320634200e-04 +0.0000000000000000e+00 +9.9999998652493871e-01
-3.0000000000000013e+00 +7.9197452615333939e+00 +0.0000000000000000e+00 -2.9999999855796187e+00 +1.6982580387870559e-04 +0.0000000000000000e+00 +9.9999998557959791e-01
-3.1000000000000014e+00 +7.9197279959088851e+00 +0.0000000000000000e+00 -3.0999999840889760e+00 +1.7548668664164383e-04 +0.0000000000000000e+00 +9.9999998460221118e-01
-3.2000000000000015e+00 +7.9197101641959948e+00 +0.0000000000000000e+00 -3.1999999824989924e+00 +1.8114757150958517e-04 +0.0000000000000000e+00 +9.9999998359277842e-01
-3.3000000000000016e+00 +7.9196917663945126e+00 +0.0000000000000000e+00 -3.2999999808064633e+00 +1.8680845848782638e-04 +0.0000000000000000e+00 +9.9999998255129963e-01
-3.4000000000000017e+00 +7.9196728025042269e+00 +0.0000000000000000e+00 -3.3999999790081841e+00 +1.9246934757253268e-04 +0.0000000000000000e+00 +9.9999998147777480e-01
-3.5000000000000018e+00 +7.9196532725249282e+00 +0.0000000000000000e+00 -3.4999999771009502e+00 +1.9813023875073809e-04 +0.0000000000000000e+00 +9.9999998037220394e-01
-3.6000000000000019e+00 +7.9196331764564079e+00 +0.0000000000000000e+00 -3.5999999750815568e+00 +2.0379113200034581e-04 +0.0000000000000000e+00 +9.9999997923458694e-01
-3.7000000000000020e+00 +7.9196125142984606e+00 +0.0000000000000000e+00 -3.6999999729467992e+00 +2.0945202729012838e-04 +0.0000000000000000e+00 +9.9999997806492380e-01
-3.8000000000000020e+00 +7.9195912860508839e+00 +0.0000000000000000e+00 -3.7999999706934733e+00 +2.1511292457972820e-04 +0.0000000000000000e+00 +9.9999997686321451e-01
-3.9000000000000021e+00 +7.9195694917134798e+00 +0.0000000000000000e+00 -3.8999999683183741e+00 +2.2077382381965785e-04 +0.0000000000000000e+00 +9.9999997562945897e-01
-4.0000000000000018e+00 +7.9195471312860564e+00 +0.0000000000000000e+00 -3.9999999658182972e+00 +2.2643472495130040e-04 +0.0000000000000000e+00 +9.9999997436365728e-01
-4.1000000000000014e+00 +7.9195242047684280e+00 +0.0000000000000000e+00 -4.0999999631900375e+00 +2.3209562790754473e-04 +0.0000000000000000e+00 +9.9999997306580934e-01
-4.2000000000000011e+00 +7.9195007121604162e+00 +0.0000000000000000e+00 -4.1999999604303904e+00 +2.3775653261976765e-04 +0.0000000000000000e+00 +9.9999997173591515e-01
-4.3000000000000007e+00 +7.9194766534618477e+00 +0.0000000000000000e+00 -4.2999999575361523e+00 +2.4341743902481615e-04 +0.0000000000000000e+00 +9.9999997037397470e-01
-4.4000000000000004e+00 +7.9194520286725565e+00 +0.0000000000000000e+00 -4.3999999545041177e+00 +2.4907834706564230e-04 +0.0000000000000000e+00 +9.9999996897998800e-01
-4.5000000000000000e+00 +7.9194268377923818e+00 +0.0000000000000000e+00 -4.4999999513310822e+00 +2.5473925669130322e-04 +0.0000000000000000e+00 +9.9999996755395504e-01
-4.5999999999999996e+00 +7.9194010808211672e+00 +0.0000000000000000e+00 -4.5999999480138412e+00 +2.6040016785696144e-04 +0.0000000000000000e+00 +9.9999996609587571e-01
-4.6999999999999993e+00 +7.9193747577587610e+00 +0.0000000000000000e+00 -4.6999999445491891e+00 +2.6606108052388481e-04 +0.0000000000000000e+00 +9.9999996460575014e-01
-4.7999999999999989e+00 +7.9193478686050138e+00 +0.0000000000000000e+00 -4.7999999409339225e+00 +2.7172199465944687e-04 +0.0000000000000000e+00 +9.9999996308357819e-01
-4.8999999999999986e+00 +7.9193204133597810e+00 +0.0000000000000000e+00 -4.8999999371648366e+00 +2.7738291023712678e-04 +0.0000000000000000e+00 +9.9999996152935988e-01
-4.9999999999999982e+00 +7.9192923920229195e+00 +0.0000000000000000e+00 -4.9999999332387262e+00 +2.8304382723650962e-04 +0.0000000000000000e+00 +9.9999995994309521e-01
-5.0999999999999979e+00 +7.9192638045942871e+00 +0.0000000000000000e+00 -5.0999999291523874e+00 +2.8870474564328651e-04 +0.0000000000000000e+00 +9.9999995832478417e-01
-5.1999999999999975e+00 +7.9192346510737446e+00 +0.0000000000000000e+00 -5.1999999249026150e+00 +2.9436566544925466e-04 +0.0000000000000000e+00 +9.9999995667442665e-01
-5.2999999999999972e+00 +7.9192049314611515e+00 +0.0000000000000000e+00 -5.2999999204862043e+00 +3.0002658665231766e-04 +0.0000000000000000e+00 +9.9999995499202277e-01
-5.3999999999999968e+00 +7.9191746457563674e+00 +0.0000000000000000e+00 -5.3999999158999508e+00 +3.0568750925648558e-04 +0.0000000000000000e+00 +9.9999995327757241e-01
-5.4999999999999964e+00 +7.9191437939592531e+00 +0.0000000000000000e+00 -5.4999999111406499e+00 +3.1134843327187511e-04 +0.0000000000000000e+00 +9.9999995153107557e-01
-5.5999999999999961e+00 +7.9191123760696653e+00 +0.0000000000000000e+00 -5.5999999062050971e+00 +3.1700935871470972e-04 +0.0000000000000000e+00 +9.9999994975253215e-01
-5.6999999999999957e+00 +7.9190803920874613e+00 +0.0000000000000000e+00 -5.6999999010900879e+00 +3.2267028560731986e-04 +0.0000000000000000e+00 +9.9999994794194225e-01
-5.7999999999999954e+00 +7.9190478420124943e+00 +0.0000000000000000e+00 -5.7999998957924177e+00 +3.2833121397814310e-04 +0.0000000000000000e+00 +9.9999994609930576e-01
-5.8999999999999950e+00 +7.9190147258446153e+00 +0.0000000000000000e+00 -5.8999998903088811e+00 +3.3399214386172437e-04 +0.0000000000000000e+00 +9.9999994422462257e-01
-5.9999999999999947e+00 +7.9189810435836705e+00 +0.0000000000000000e+00 -5.9999998846362743e+00 +3.3965307529871592e-04 +0.0000000000000000e+00 +9.9999994231789280e-01
-6.0999999999999943e+00 +7.9189467952295027e+00 +0.0000000000000000e+00 -6.0999998787713920e+00 +3.4531400833565719e-04 +0.0000000000000000e+00 +9.9999994037911633e-01
-6.1999999999999940e+00 +7.9189119807819486e+00 +0.0000000000000000e+00 -6.1999998727110297e+00 +3.5097494302254844e-04 +0.0000000000000000e+00 +9.9999993840829304e-01
-6.2999999999999936e+00 +7.9188766002408411e+00 +0.0000000000000000e+00 -6.2999998664519827e+00 +3.5663587941042453e-04 +0.0000000000000000e+00 +9.9999993640542295e-01
-6.3999999999999932e+00 +7.9188406536060079e+00 +0.0000000000000000e+00 -6.3999998599910466e+00 +3.6229681755113428e-04 +0.0000000000000000e+00 +9.9999993437050605e-01
-6.4999999999999929e+00 +7.9188041408772705e+00 +0.0000000000000000e+00 -6.4999998533250158e+00 +3.6795775749734049e-04 +0.0000000000000000e+00 +9.9999993230354223e-01
-6.5999999999999925e+00 +7.9187670620544459e+00 +0.0000000000000000e+00 -6.5999998464506868e+00 +3.7361869930251969e-04 +0.0000000000000000e+00 +9.9999993020453148e-01
-6.6999999999999922e+00 +7.9187294171373459e+00 +0.0000000000000000e+00 -6.6999998393648541e+00 +3.7927964302096216e-04 +0.0000000000000000e+00 +9.9999992807347371e-01
-6.7999999999999918e+00 +7.9186912061257759e+00 +0.0000000000000000e+00 -6.7999998320643131e+00 +3.8494058870777194e-04 +0.0000000000000000e+00 +9.9999992591036890e-01
-6.8999999999999915e+00 +7.9186524290195370e+00 +0.0000000000000000e+00 -6.8999998245458594e+00 +3.9060153641886665e-04 +0.0000000000000000e+00 +9.9999992371521707e-01
-6.9999999999999911e+00 +7.9186130858184232e+00 +0.0000000000000000e+00 -6.9999998168062882e+00 +3.9626248621097739e-04 +0.0000000000000000e+00 +9.9999992148801808e-01
-7.0999999999999908e+00 +7.9185731765222238e+00 +0.0000000000000000e+00 -7.0999998088423952e+00 +4.0192343814164866e-04 +0.0000000000000000e+00 +9.9999991922877185e-01
-7.1999999999999904e+00 +7.9185327011307214e+00 +0.0000000000000000e+00 -7.1999998006509749e+00 +4.0758439226923831e-04 +0.0000000000000000e+00 +9.9999991693747836e-01
-7.2999999999999901e+00 +7.9184916596436947e+00 +0.0000000000000000e+00 -7.2999997922288227e+00 +4.1324534865291727e-04 +0.0000000000000000e+00 +9.9999991461413751e-01
-7.3999999999999897e+00 +7.9184500520609138e+00 +0.0000000000000000e+00 -7.3999997835727340e+00 +4.1890630735266955e-04 +0.0000000000000000e+00 +9.9999991225874918e-01
-7.4999999999999893e+00 +7.9184078783821450e+00 +0.0000000000000000e+00 -7.4999997746795044e+00 +4.2456726842929218e-04 +0.0000000000000000e+00 +9.9999990987131337e-01
-7.5999999999999890e+00 +7.9183651386071467e+00 +0.0000000000000000e+00 -7.5999997655459284e+00 +4.3022823194439495e-04 +0.0000000000000000e+00 +9.9999990745183009e-01
-7.6999999999999886e+00 +7.9183218327356730e+00 +0.0000000000000000e+00 -7.6999997561688023e+00 +4.3588919796040020e-04 +0.0000000000000000e+00 +9.9999990500029923e-01
-7.7999999999999883e+00 +7.9182779607674698e+00 +0.0000000000000000e+00 -7.7999997465449207e+00 +4.4155016654054294e-04 +0.0000000000000000e+00 +9.9999990251672066e-01
-7.8999999999999879e+00 +7.9182335227022778e+00 +0.0000000000000000e+00 -7.8999997366710781e+00 +4.4721113774887040e-04 +0.0000000000000000e+00 +9.9999990000109429e-01
-7.9999999999999876e+00 +7.9181885185398304e+00 +0.0000000000000000e+00 -7.9999997265440710e+00 +4.5287211165024205e-04 +0.0000000000000000e+00 +9.9999989745342011e-01
-8.0999999999999872e+00 +7.9181429482798560e+00 +0.0000000000000000e+00 -8.0999997161606938e+00 +4.5853308831005839e-04 +0.0000000000000000e+00 +9.9999989487369800e-01
-8.1999999999999869e+00 +7.9180968119220747e+00 +0.0000000000000000e+00 -8.1999997055177420e+00 +4.6419406779127918e-04 +0.0000000000000000e+00 +9.9999989226192798e-01
-8.2999999999999865e+00 +7.9180501094662015e+00 +0.0000000000000000e+00 -8.2999996946120103e+00 +4.6985505015144174e-04 +0.0000000000000000e+00 +9.9999988961810993e-01
-8.3999999999999861e+00 +7.9180028409119467e+00 +0.0000000000000000e+00 -8.3999996834402957e+00 +4.7551603544238952e-04 +0.0000000000000000e+00 +9.9999988694224373e-01
-8.4999999999999858e+00 +7.9179550062590138e+00 +0.0000000000000000e+00 -8.4999996719993920e+00 +4.8117702371027149e-04 +0.0000000000000000e+00 +9.9999988423432928e-01
-8.5999999999999854e+00 +7.9179066055071035e+00 +0.0000000000000000e+00 -8.5999996602860946e+00 +4.8683801499554183e-04 +0.0000000000000000e+00 +9.9999988149436658e-01
-8.6999999999999851e+00 +7.9178576386559127e+00 +0.0000000000000000e+00 -8.6999996482971973e+00 +4.9249900933295929e-04 +0.0000000000000000e+00 +9.9999987872235563e-01
-8.7999999999999847e+00 +7.9178081057051344e+00 +0.0000000000000000e+00 -8.7999996360294972e+00 +4.9816000675158702e-04 +0.0000000000000000e+00 +9.9999987591829620e-01
-8.8999999999999844e+00 +7.9177580066544593e+00 +0.0000000000000000e+00 -8.8999996234797880e+00 +5.0382100727479166e-04 +0.0000000000000000e+00 +9.9999987308218830e-01
-8.9999999999999840e+00 +7.9177073415035757e+00 +0.0000000000000000e+00 -8.9999996106448670e+00 +5.0948201092024313e-04 +0.0000000000000000e+00 +9.9999987021403192e-01
-9.0999999999999837e+00 +7.9176561102521710e+00 +0.0000000000000000e+00 -9.0999995975215278e+00 +5.1514301769991393e-04 +0.0000000000000000e+00 +9.9999986731382695e-01
-9.1999999999999833e+00 +7.9176043128999307e+00 +0.0000000000000000e+00 -9.1999995841065640e+00 +5.2080402762007868e-04 +0.0000000000000000e+00 +9.9999986438157329e-01
-9.2999999999999829e+00 +7.9175519494465414e+00 +0.0000000000000000e+00 -9.2999995703967731e+00 +5.2646504068131351e-04 +0.0000000000000000e+00 +9.9999986141727093e-01
-9.3999999999999826e+00 +7.9174990198916895e+00 +0.0000000000000000e+00 -9.3999995563889502e+00 +5.3212605687849546e-04 +0.0000000000000000e+00 +9.9999985842091987e-01
-9.4999999999999822e+00 +7.9174455242350614e+00 +0.0000000000000000e+00 -9.4999995420798893e+00 +5.3778707620080204e-04 +0.0000000000000000e+00 +9.9999985539252001e-01
-9.5999999999999819e+00 +7.9173914624763455e+00 +0.0000000000000000e+00 -9.5999995274663856e+00 +5.4344809863171042e-04 +0.0000000000000000e+00 +9.9999985233207123e-01
-9.6999999999999815e+00 +7.9173368346152317e+00 +0.0000000000000000e+00 -9.6999995125452347e+00 +5.4910912414899685e-04 +0.0000000000000000e+00 +9.9999984923957363e-01
-9.7999999999999812e+00 +7.9172816406514137e+00 +0.0000000000000000e+00 -9.7999994973132321e+00 +5.5477015272473629e-04 +0.0000000000000000e+00 +9.9999984611502712e-01
-9.8999999999999808e+00 +7.9172258805845859e+00 +0.0000000000000000e+00 -9.8999994817671713e+00 +5.6043118432530146e-04 +0.0000000000000000e+00 +9.9999984295843158e-01
-9.9999999999999805e+00 +7.9171695544144489e+00 +0.0000000000000000e+00 -9.9999994659038496e+00 +5.6609221891136237e-04 +0.0000000000000000e+00 +9.9999983976978712e-01
-1.0099999999999980e+01 +7.9171126621407053e+00 +0.0000000000000000e+00 -1.0099999449720061e+01 +5.7175325643858156e-04 +0.0000000000000000e+00 +9.9999983654909363e-01
-1.0199999999999980e+01 +7.9170552037630637e+00 +0.0000000000000000e+00 -1.0199999433212600e+01 +5.7741429686527276e-04 +0.0000000000000000e+00 +9.9999983329635111e-01
-1.0299999999999979e+01 +7.9169971792812364e+00 +0.0000000000000000e+00 -1.0299999416378263e+01 +5.8307534016005893e-04 +0.0000000000000000e+00 +9.9999983001155957e-01
-1.0399999999999979e+01 +7.9169385886949373e+00 +0.0000000000000000e+00 -1.0399999399213844e+01 +5.8873638630256922e-04 +0.0000000000000000e+00 +9.9999982669471887e-01
-1.0499999999999979e+01 +7.9168794320038813e+00 +0.0000000000000000e+00 -1.0499999381716139e+01 +5.9439743528343905e-04 +0.0000000000000000e+00 +9.9999982334582904e-01
-1.0599999999999978e+01 +7.9168197092077852e+00 +0.0000000000000000e+00 -1.0599999363881942e+01 +6.0005848710431022e-04 +0.0000000000000000e+00 +9.9999981996488996e-01
-1.0699999999999978e+01 +7.9167594203063647e+00 +0.0000000000000000e+00 -1.0699999345708049e+01 +6.0571954177783137e-04 +0.0000000000000000e+00 +9.9999981655190162e-01
-1.0799999999999978e+01 +7.9166985652993338e+00 +0.0000000000000000e+00 -1.0799999327191255e+01 +6.1138059932765816e-04 +0.0000000000000000e+00 +9.9999981310686403e-01
-1.0899999999999977e+01 +7.9166371441864021e+00 +0.0000000000000000e+00 -1.0899999308328354e+01 +6.1704165978845350e-04 +0.0000000000000000e+00 +9.9999980962977708e-01
-1.0999999999999977e+01 +7.9165751569672773e+00 +0.0000000000000000e+00 -1.0999999289116142e+01 +6.2270272320588801e-04 +0.0000000000000000e+00 +9.9999980612064066e-01
-1.1099999999999977e+01 +7.9165126036416602e+00 +0.0000000000000000e+00 -1.1099999269551413e+01 +6.2836378963664009e-04 +0.0000000000000000e+00 +9.9999980257945464e-01
-1.1199999999999976e+01 +7.9164494842092470e+00 +0.0000000000000000e+00 -1.1199999249630963e+01 +6.3402485914839637e-04 +0.0000000000000000e+00 +9.9999979900621894e-01
-1.1299999999999976e+01 +7.9163857986697250e+00 +0.0000000000000000e+00 -1.1299999229351588e+01 +6.3968593181985204e-04 +0.0000000000000000e+00 +9.9999979540093353e-01
-1.1399999999999975e+01 +7.9163215470227746e+00 +0.0000000000000000e+00 -1.1399999208710081e+01 +6.4534700774071107e-04 +0.0000000000000000e+00 +9.9999979176359821e-01
-1.1499999999999975e+01 +7.9162567292680652e+00 +0.0000000000000000e+00 -1.1499999187703239e+01 +6.5100808701168650e-04 +0.0000000000000000e+00 +9.9999978809421297e-01
-1.1599999999999975e+01 +7.9161913454052568e+00 +0.0000000000000000e+00 -1.1599999166327855e+01 +6.5666916974450092e-04 +0.0000000000000000e+00 +9.9999978439277759e-01
-1.1699999999999974e+01 +7.9161253954339967e+00 +0.0000000000000000e+00 -1.1699999144580726e+01 +6.6233025606188679e-04 +0.0000000000000000e+00 +9.9999978065929196e-01
