# field on trajectory
# s[mm] rx[mm] ry[mm] rz[mm] bx[T] by[T] bz[T]
-0.0000000000000000e+00 +8.1530000000000094e+00 +0.0000000000000000e+00 -0.0000000000000000e+00 -3.1627269324828990e-02 -5.9300171328735951e-01 +5.8928440108744961e-03
-1.0000000000000001e-01 +8.1529997159377707e+00 +0.0000000000000000e+00 -1.0008006405070299e-01 -3.1627322169081235e-02 -5.9300166339936333e-01 +5.8927549404822121e-03
-2.0000000000000001e-01 +8.1529988637557800e+00 +0.0000000000000000e+00 -2.0016012809818201e-01 -3.1627372731692256e-02 -5.9300162130696321e-01 +5.8926687670684324e-03
-2.9999999999999999e-01 +8.1529974434524792e+00 +0.0000000000000000e+00 -3.0024019213920999e-01 -3.1627420978177938e-02 -5.9300158796202584e-01 +5.8925853587739729e-03
-4.0000000000000002e-01 +8.1529954550242092e+00 +0.0000000000000000e+00 -4.0032025617056399e-01 -3.1627466874032714e-02 -5.9300156431642093e-01 +5.8925045837413779e-03
-5.0000000000000000e-01 +8.1529928984782600e+00 +0.0000000000000000e+00 -5.0040032018901703e-01 -3.1627510384727019e-02 -5.9300155132191656e-01 +5.8924263101136952e-03
-5.9999999999999998e-01 +8.1529897738146193e+00 +0.0000000000000000e+00 -6.0048038419134497e-01 -3.1627551475718343e-02 -5.9300154993033349e-01 +5.8923504060358900e-03
-6.9999999999999996e-01 +8.1529860810223909e+00 +0.0000000000000000e+00 -7.0056044817432195e-01 -3.1627590112455958e-02 -5.9300156109357594e-01 +5.8922767396550283e-03
-8.0000000000000004e-01 +8.1529818201124709e+00 +0.0000000000000000e+00 -8.0064051213472498e-01 -3.1627626260369815e-02 -5.9300158576337147e-01 +5.8922051791173982e-03
-9.0000000000000002e-01 +8.1529769910812302e+00 +0.0000000000000000e+00 -9.0072057606932698e-01 -3.1627659884889484e-02 -5.9300162489156882e-01 +5.8921355925714430e-03
-1.0000000000000000e+00 +8.1529715939250291e+00 +0.0000000000000000e+00 -1.0008006399749001e+00 -3.1627690951440988e-02 -5.9300167943002435e-01 +5.8920678481664199e-03
-1.1000000000000001e+00 +8.1529656286511507e+00 +0.0000000000000000e+00 -1.1008807038482300e+00 -3.1627719425445171e-02 -5.9300175033051650e-01 +5.8920018140513584e-03
-1.2000000000000000e+00 +8.1529590952522994e+00 +0.0000000000000000e+00 -1.2009607676860801e+00 -3.1627745272331906e-02 -5.9300183854495747e-01 +5.8919373583770727e-03
-1.3000000000000000e+00 +8.1529519937357708e+00 +0.0000000000000000e+00 -1.3010408314852300e+00 -3.1627768457530583e-02 -5.9300194502515868e-01 +5.8918743492935993e-03
-1.3999999999999999e+00 +8.1529443240979198e+00 +0.0000000000000000e+00 -1.4011208952424601e+00 -3.1627788946484305e-02 -5.9300207072304290e-01 +5.8918126549522051e-03
-1.5000000000000000e+00 +8.1529360863350995e+00 +0.0000000000000000e+00 -1.5012009589545301e+00 -3.1627806704648286e-02 -5.9300221659055907e-01 +5.8917521435043561e-03
-1.6000000000000001e+00 +8.1529272804509691e+00 +0.0000000000000000e+00 -1.6012810226182299e+00 -3.1627821697489865e-02 -5.9300238357962753e-01 +5.8916926831009816e-03
-1.7000000000000000e+00 +8.1529179064491508e+00 +0.0000000000000000e+00 -1.7013610862303301e+00 -3.1627833890494700e-02 -5.9300257264220069e-01 +5.8916341418929563e-03
-1.8000000000000000e+00 +8.1529079643223703e+00 +0.0000000000000000e+00 -1.8014411497875999e+00 -3.1627843249174767e-02 -5.9300278473035783e-01 +5.8915763880318973e-03
-1.8999999999999999e+00 +8.1528974540779000e+00 +0.0000000000000000e+00 -1.9015212132868200e+00 -3.1627849739060306e-02 -5.9300302079610112e-01 +5.8915192896679064e-03
-2.0000000000000000e+00 +8.1528863757084800e+00 +0.0000000000000000e+00 -2.0016012767247702e+00 -3.1627853325715667e-02 -5.9300328179159401e-01 +5.8914627149519458e-03
-2.1000000000000001e+00 +8.1528747292177304e+00 +0.0000000000000000e+00 -2.1016813400982199e+00 -3.1627853956011316e-02 -5.9300356822785683e-01 +5.8914065481551169e-03
-2.2000000000000002e+00 +8.1528625146056601e+00 +0.0000000000000000e+00 -2.2017614034039301e+00 -3.1627851505472426e-02 -5.9300387893423367e-01 +5.8913507350136863e-03
-2.2999999999999998e+00 +8.1528497318759001e+00 +0.0000000000000000e+00 -2.3018414666387002e+00 -3.1627845832627191e-02 -5.9300421233932588e-01 +5.8912952359100662e-03
-2.3999999999999999e+00 +8.1528363810211903e+00 +0.0000000000000000e+00 -2.4019215297993002e+00 -3.1627836796017689e-02 -5.9300456687183445e-01 +5.8912400112281623e-03
-2.5000000000000000e+00 +8.1528224620451493e+00 +0.0000000000000000e+00 -2.5020015928824901e+00 -3.1627824254190536e-02 -5.9300494096038292e-01 +5.8911850213515735e-03
-2.6000000000000001e+00 +8.1528079749477893e+00 +0.0000000000000000e+00 -2.6020816558850601e+00 -3.1627808065703200e-02 -5.9300533303363367e-01 +5.8911302266648228e-03
-2.7000000000000002e+00 +8.1527929197291105e+00 +0.0000000000000000e+00 -2.7021617188037701e+00 -3.1627788089122429e-02 -5.9300574152025654e-01 +5.8910755875530895e-03
-2.7999999999999998e+00 +8.1527772963891003e+00 +0.0000000000000000e+00 -2.8022417816354102e+00 -3.1627764183024244e-02 -5.9300616484892987e-01 +5.8910210644022350e-03
-2.8999999999999999e+00 +8.1527611049277802e+00 +0.0000000000000000e+00 -2.9023218443767500e+00 -3.1627736205994100e-02 -5.9300660144833761e-01 +5.8909666175988211e-03
-3.0000000000000000e+00 +8.1527443453451305e+00 +0.0000000000000000e+00 -3.0024019070245598e+00 -3.1627704016626741e-02 -5.9300704974716900e-01 +5.8909122075301388e-03
-3.1000000000000001e+00 +8.1527270176411495e+00 +0.0000000000000000e+00 -3.1024819695756198e+00 -3.1627667473526314e-02 -5.9300750817411696e-01 +5.8908577945842372e-03
-3.2000000000000002e+00 +8.1527091218158603e+00 +0.0000000000000000e+00 -3.2025620320267101e+00 -3.1627626435306450e-02 -5.9300797515787829e-01 +5.8908033391499416e-03
-3.2999999999999998e+00 +8.1526906578692397e+00 +0.0000000000000000e+00 -3.3026420943745900e+00 -3.1627580760590121e-02 -5.9300844912715056e-01 +5.8907488016168904e-03
-3.3999999999999999e+00 +8.1526716258013003e+00 +0.0000000000000000e+00 -3.4027221566160502e+00 -3.1627530308009862e-02 -5.9300892851063292e-01 +5.8906941423755481e-03
-3.5000000000000000e+00 +8.1526520256120403e+00 +0.0000000000000000e+00 -3.5028022187478500e+00 -3.1627474936207670e-02 -5.9300941173702471e-01 +5.8906393218172478e-03
-3.6000000000000001e+00 +8.1526318572978198e+00 +0.0000000000000000e+00 -3.6028822807667802e+00 -3.1627414503836639e-02 -5.9300989723505260e-01 +5.8905843003344985e-03
-3.7000000000000002e+00 +8.1526111208659096e+00 +0.0000000000000000e+00 -3.7029623426696099e+00 -3.1627348869554706e-02 -5.9301038343335299e-01 +5.8905290383198120e-03
-3.7999999999999998e+00 +8.1525898163126804e+00 +0.0000000000000000e+00 -3.8030424044531101e+00 -3.1627277892034074e-02 -5.9301086876064679e-01 +5.8904734961675457e-03
-3.8999999999999999e+00 +8.1525679436344909e+00 +0.0000000000000000e+00 -3.9031224661140600e+00 -3.1627201429956571e-02 -5.9301135164565144e-01 +5.8904176342730189e-03
-4.0000000000000000e+00 +8.1525455028386205e+00 +0.0000000000000000e+00 -4.0032025276492398e+00 -3.1627119342014988e-02 -5.9301183051699236e-01 +5.8903614130318980e-03
-4.0999999999999996e+00 +8.1525224939177896e+00 +0.0000000000000000e+00 -4.1032825890554099e+00 -3.1627031689214324e-02 -5.9301230390789839e-01 +5.8903048019356748e-03
-4.2000000000000002e+00 +8.1524989168792708e+00 +0.0000000000000000e+00 -4.2033626503293604e+00 -3.1626939267751474e-02 -5.9301277073120917e-01 +5.8902478035242328e-03
-4.2999999999999998e+00 +8.1524747717157897e+00 +0.0000000000000000e+00 -4.3034427114678504e+00 -3.1626843040779014e-02 -5.9301322998607775e-01 +5.8901904278452124e-03
-4.4000000000000004e+00 +8.1524500584346207e+00 +0.0000000000000000e+00 -4.4035227724676700e+00 -3.1626743971423406e-02 -5.9301368067148730e-01 +5.8901326849462102e-03
-4.5000000000000000e+00 +8.1524247770285001e+00 +0.0000000000000000e+00 -4.5036028333255800e+00 -3.1626643022795740e-02 -5.9301412178648449e-01 +5.8900745848772269e-03
-4.5999999999999996e+00 +8.1523989275046898e+00 +0.0000000000000000e+00 -4.6036828940383696e+00 -3.1626541157977674e-02 -5.9301455232993849e-01 +5.8900161376882598e-03
-4.7000000000000002e+00 +8.1523725098559208e+00 +0.0000000000000000e+00 -4.7037629546028104e+00 -3.1626439340032307e-02 -5.9301497130077330e-01 +5.8899573534317764e-03
-4.7999999999999998e+00 +8.1523455240894709e+00 +0.0000000000000000e+00 -4.8038430150156701e+00 -3.1626338531990004e-02 -5.9301537769773105e-01 +5.8898982421603085e-03
-4.9000000000000004e+00 +8.1523179701980606e+00 +0.0000000000000000e+00 -4.9039230752737302e+00 -3.1626239696859397e-02 -5.9301577051960142e-01 +5.8898388139289092e-03
-5.0000000000000000e+00 +8.1522898481889605e+00 +0.0000000000000000e+00 -5.0040031353737602e+00 -3.1626143797613103e-02 -5.9301614876498399e-01 +5.8897790787927539e-03
-5.0999999999999996e+00 +8.1522611580549000e+00 +0.0000000000000000e+00 -5.1040831953125396e+00 -3.1626051797198719e-02 -5.9301651143252032e-01 +5.8897190468096073e-03
-5.2000000000000002e+00 +8.1522318997995207e+00 +0.0000000000000000e+00 -5.2041632550868497e+00 -3.1625964658526198e-02 -5.9301685752068412e-01 +5.8896587280377081e-03
-5.2999999999999998e+00 +8.1522020734228100e+00 +0.0000000000000000e+00 -5.3042433146934496e+00 -3.1625883344472569e-02 -5.9301718602789655e-01 +5.8895981325370406e-03
-5.4000000000000004e+00 +8.1521716789247893e+00 +0.0000000000000000e+00 -5.4043233741291203e+00 -3.1625808817878576e-02 -5.9301749595249065e-01 +5.8895372703690364e-03
-5.5000000000000000e+00 +8.1521407163090807e+00 +0.0000000000000000e+00 -5.5044034333906504e+00 -3.1625742041545640e-02 -5.9301778629268254e-01 +5.8894761515963113e-03
-5.5999999999999996e+00 +8.1521091855684098e+00 +0.0000000000000000e+00 -5.6044834924747899e+00 -3.1625683978240539e-02 -5.9301805604668334e-01 +5.8894147862839172e-03
-5.7000000000000002e+00 +8.1520770867064094e+00 +0.0000000000000000e+00 -5.7045635513783299e+00 -3.1625635590684181e-02 -5.9301830421251822e-01 +5.8893531844975344e-03
-5.7999999999999998e+00 +8.1520444197231008e+00 +0.0000000000000000e+00 -5.8046436100980499e+00 -3.1625597841556434e-02 -5.9301852978814285e-01 +5.8892913563047258e-03
-5.9000000000000004e+00 +8.1520111846184609e+00 +0.0000000000000000e+00 -5.9047236686307096e+00 -3.1625571693492831e-02 -5.9301873177140996e-01 +5.8892293117746583e-03
-5.9999999999999902e+00 +8.1519773813925003e+00 +0.0000000000000000e+00 -6.0048037269731003e+00 -3.1625558109049247e-02 -5.9301890916016187e-01 +5.8891670609800897e-03
-6.0999999999999899e+00 +8.1519430100452208e+00 +0.0000000000000000e+00 -6.1048837851219799e+00 -3.1625557699120607e-02 -5.9301906195499210e-01 +5.8891046342856969e-03
-6.1999999999999904e+00 +8.1519080705766100e+00 +0.0000000000000000e+00 -6.2049638430741396e+00 -3.1625569856313478e-02 -5.9301919363116562e-01 +5.8890421323553582e-03
-6.2999999999999901e+00 +8.1518725629866804e+00 +0.0000000000000000e+00 -6.3050439008263499e+00 -3.1625593709586494e-02 -5.9301930841606787e-01 +5.8889796710594015e-03
-6.3999999999999897e+00 +8.1518364872754301e+00 +0.0000000000000000e+00 -6.4051239583753699e+00 -3.1625628387928491e-02 -5.9301941053718898e-01 +5.8889173662579767e-03
-6.4999999999999902e+00 +8.1517998434428591e+00 +0.0000000000000000e+00 -6.5052040157180002e+00 -3.1625673020359936e-02 -5.9301950422213023e-01 +5.8888553338005958e-03
-6.5999999999999899e+00 +8.1517626314889604e+00 +0.0000000000000000e+00 -6.6052840728510001e+00 -3.1625726735934549e-02 -5.9301959369860813e-01 +5.8887936895257219e-03
-6.6999999999999904e+00 +8.1517248514137499e+00 +0.0000000000000000e+00 -6.7053641297711399e+00 -3.1625788663740793e-02 -5.9301968319446074e-01 +5.8887325492603350e-03
-6.7999999999999901e+00 +8.1516865032135701e+00 +0.0000000000000000e+00 -6.8054441864752100e+00 -3.1625857932905073e-02 -5.9301977693768171e-01 +5.8886720288198035e-03
-6.8999999999999897e+00 +8.1516475868957095e+00 +0.0000000000000000e+00 -6.9055242429599701e+00 -3.1625933672586898e-02 -5.9301987915630805e-01 +5.8886122440062428e-03
-6.9999999999999902e+00 +8.1516081024565192e+00 +0.0000000000000000e+00 -7.0056042992222096e+00 -3.1626015011989993e-02 -5.9301999407860173e-01 +5.8885533106099045e-03
-7.0999999999999899e+00 +8.1515680498960101e+00 +0.0000000000000000e+00 -7.1056843552586999e+00 -3.1626101080357433e-02 -5.9302012593293729e-01 +5.8884953444075456e-03
-7.1999999999999904e+00 +8.1515274292141804e+00 +0.0000000000000000e+00 -7.2057644110662000e+00 -3.1626191006974884e-02 -5.9302027894783693e-01 +5.8884384611622839e-03
-7.2999999999999901e+00 +8.1514862404073902e+00 +0.0000000000000000e+00 -7.3058444666415099e+00 -3.1626283921173615e-02 -5.9302045735200448e-01 +5.8883827766234836e-03
-7.3999999999999897e+00 +8.1514444834829192e+00 +0.0000000000000000e+00 -7.4059245219813796e+00 -3.1626378952325875e-02 -5.9302066537421272e-01 +5.8883284065251156e-03
-7.4999999999999902e+00 +8.1514021584334806e+00 +0.0000000000000000e+00 -7.5060045770826100e+00 -3.1626475229857356e-02 -5.9302090724351675e-01 +5.8882754665874407e-03
-7.5999999999999899e+00 +8.1513592652663593e+00 +0.0000000000000000e+00 -7.6060846319419504e+00 -3.1626571883236226e-02 -5.9302118718901997e-01 +5.8882240725141579e-03
-7.6999999999999904e+00 +8.1513158039779192e+00 +0.0000000000000000e+00 -7.7061646865561997e+00 -3.1626668041985648e-02 -5.9302150944008913e-01 +5.8881743399941053e-03
-7.7999999999999901e+00 +8.1512717745681602e+00 +0.0000000000000000e+00 -7.8062447409221098e+00 -3.1626762835679105e-02 -5.9302187822623997e-01 +5.8881263846996164e-03
-7.8999999999999897e+00 +8.1512271770334301e+00 +0.0000000000000000e+00 -7.9063247950364799e+00 -3.1626855393945032e-02 -5.9302229777720084e-01 +5.8880803222866856e-03
-7.9999999999999902e+00 +8.1511820113773901e+00 +0.0000000000000000e+00 -8.0064048488960609e+00 -3.1626944846491631e-02 -5.9302277232244072e-01 +5.8880362683857747e-03
-8.0999999999999908e+00 +8.1511362776036496e+00 +0.0000000000000000e+00 -8.1064849024976393e+00 -3.1627030451364842e-02 -5.9302330429710537e-01 +5.8879943024896112e-03
-8.1999999999999904e+00 +8.1510899757086008e+00 +0.0000000000000000e+00 -8.2065649558379903e+00 -3.1627111890468677e-02 -5.9302389020759827e-01 +5.8879543847494163e-03
-8.2999999999999901e+00 +8.1510431056885899e+00 +0.0000000000000000e+00 -8.3066450089139003e+00 -3.1627188933095053e-02 -5.9302452533750283e-01 +5.8879164507208434e-03
-8.3999999999999897e+00 +8.1509956675508892e+00 +0.0000000000000000e+00 -8.4067250617221205e+00 -3.1627261348504479e-02 -5.9302520497021527e-01 +5.8878804359777199e-03
-8.4999999999999893e+00 +8.1509476612882299e+00 +0.0000000000000000e+00 -8.5068051142594392e+00 -3.1627328905935927e-02 -5.9302592438914714e-01 +5.8878462761148519e-03
-8.5999999999999908e+00 +8.1508990869078808e+00 +0.0000000000000000e+00 -8.6068851665226305e+00 -3.1627391374593271e-02 -5.9302667887748395e-01 +5.8878139067462757e-03
-8.6999999999999904e+00 +8.1508499444025801e+00 +0.0000000000000000e+00 -8.7069652185084596e+00 -3.1627448523656829e-02 -5.9302746371841997e-01 +5.8877832635083832e-03
-8.7999999999999794e+00 +8.1508002337759500e+00 +0.0000000000000000e+00 -8.8070452702137203e+00 -3.1627500122271363e-02 -5.9302827419494497e-01 +5.8877542820584454e-03
-8.8999999999999808e+00 +8.1507499550316407e+00 +0.0000000000000000e+00 -8.9071253216351796e+00 -3.1627545939549633e-02 -5.9302910558993116e-01 +5.8877268980762473e-03
-8.9999999999999805e+00 +8.1506991081623692e+00 +0.0000000000000000e+00 -9.0072053727696098e+00 -3.1627585744576255e-02 -5.9302995318621743e-01 +5.8877010472656475e-03
-9.0999999999999801e+00 +8.1506476931717806e+00 +0.0000000000000000e+00 -9.1072854236137797e+00 -3.1627619306397084e-02 -5.9303081226642773e-01 +5.8876766653534586e-03
-9.1999999999999797e+00 +8.1505957100635005e+00 +0.0000000000000000e+00 -9.2073654741644795e+00 -3.1627646394022962e-02 -5.9303167811305701e-01 +5.8876536880910222e-03
-9.2999999999999794e+00 +8.1505431588302599e+00 +0.0000000000000000e+00 -9.3074455244184708e+00 -3.1627666776433416e-02 -5.9303254600855448e-01 +5.8876320512558254e-03
-9.3999999999999808e+00 +8.1504900394757005e+00 +0.0000000000000000e+00 -9.4075255743725297e+00 -3.1627680222566130e-02 -5.9303341123514308e-01 +5.8876116906503278e-03
-9.4999999999999805e+00 +8.1504363520034495e+00 +0.0000000000000000e+00 -9.5076056240234408e+00 -3.1627686501320688e-02 -5.9303426907490620e-01 +5.8875925421035882e-03
-9.5999999999999801e+00 +8.1503820964062506e+00 +0.0000000000000000e+00 -9.6076856733679694e+00 -3.1627685381562194e-02 -5.9303511480986959e-01 +5.8875745414728392e-03
-9.6999999999999797e+00 +8.1503272726913600e+00 +0.0000000000000000e+00 -9.7077657224029004e+00 -3.1627676632109254e-02 -5.9303594372179202e-01 +5.8875576246420298e-03
-9.7999999999999794e+00 +8.1502718808515109e+00 +0.0000000000000000e+00 -9.8078457711250007e+00 -3.1627660021745579e-02 -5.9303675109239917e-01 +5.8875417275249756e-03
-9.8999999999999808e+00 +8.1502159208903304e+00 +0.0000000000000000e+00 -9.9079258195310498e+00 -3.1627635319207807e-02 -5.9303753220317079e-01 +5.8875267860638699e-03
-9.9999999999999805e+00 +8.1501593928078400e+00 +0.0000000000000000e+00 -1.0008005867617801e+01 -3.1627602293298980e-02 -5.9303828233598921e-01 +5.8875127362430276e-03
-1.0100000000000000e+01 +8.1501022966040200e+00 +0.0000000000000000e+00 -1.0108085915382100e+01 -3.1627560978288650e-02 -5.9303899808222849e-01 +5.8874995431175744e-03
-1.0199999999999999e+01 +8.1500446322825209e+00 +0.0000000000000000e+00 -1.0208165962820599e+01 -3.1627512245121378e-02 -5.9303968016017983e-01 +5.8874872632671054e-03
-1.0300000000000001e+01 +8.1499863998360507e+00 +0.0000000000000000e+00 -1.0308246009930199e+01 -3.1627457129183113e-02 -5.9304033009915835e-01 +5.8874759712371823e-03
-1.0400000000000000e+01 +8.1499275992682705e+00 +0.0000000000000000e+00 -1.0408326056707599e+01 -3.1627396665901253e-02 -5.9304094942843788e-01 +5.8874657415527790e-03
-1.0500000000000000e+01 +8.1498682305791608e+00 +0.0000000000000000e+00 -1.0508406103149600e+01 -3.1627331890752168e-02 -5.9304153967736961e-01 +5.8874566487189537e-03
-1.0600000000000000e+01 +8.1498082937723701e+00 +0.0000000000000000e+00 -1.0608486149253000e+01 -3.1627263839259158e-02 -5.9304210237532440e-01 +5.8874487672196819e-03
-1.0699999999999999e+01 +8.1497477888406102e+00 +0.0000000000000000e+00 -1.0708566195014500e+01 -3.1627193547000033e-02 -5.9304263905181254e-01 +5.8874421715184831e-03
-1.0800000000000001e+01 +8.1496867157875403e+00 +0.0000000000000000e+00 -1.0808646240430900e+01 -3.1627122049598812e-02 -5.9304315123630857e-01 +5.8874369360560688e-03
-1.0900000000000000e+01 +8.1496250746131391e+00 +0.0000000000000000e+00 -1.0908726285499000e+01 -3.1627050382733175e-02 -5.9304364045836977e-01 +5.8874331352509737e-03
-1.1000000000000000e+01 +8.1495628653174208e+00 +0.0000000000000000e+00 -1.1008806330215601e+01 -3.1626979582134167e-02 -5.9304410824760945e-01 +5.8874308434986901e-03
-1.1100000000000000e+01 +8.1495000879040198e+00 +0.0000000000000000e+00 -1.1108886374577500e+01 -3.1626910683585724e-02 -5.9304455613366669e-01 +5.8874301351708068e-03
-1.1199999999999999e+01 +8.1494367423620098e+00 +0.0000000000000000e+00 -1.1208966418581401e+01 -3.1626844722933783e-02 -5.9304498564635799e-01 +5.8874310846159681e-03
-1.1300000000000001e+01 +8.1493728287059604e+00 +0.0000000000000000e+00 -1.1309046462224000e+01 -3.1626782736070155e-02 -5.9304539831535186e-01 +5.8874337661559573e-03
-1.1400000000000000e+01 +8.1493083469249505e+00 +0.0000000000000000e+00 -1.1409126505502300e+01 -3.1626725758955691e-02 -5.9304579567058480e-01 +5.8874382540893971e-03
-1.1500000000000000e+01 +8.1492432970226201e+00 +0.0000000000000000e+00 -1.1509206548412800e+01 -3.1626674827604263e-02 -5.9304617924193770e-01 +5.8874446226878470e-03
-1.1600000000000000e+01 +8.1491776789989707e+00 +0.0000000000000000e+00 -1.1609286590952600e+01 -3.1626630978091722e-02 -5.9304655055938393e-01 +5.8874529461967456e-03
-1.1699999999999999e+01 +8.1491114928576298e+00 +0.0000000000000000e+00 -1.1709366633118099e+01 -3.1626595246553958e-02 -5.9304691115293362e-01 +5.8874632988342541e-03
