# trajectory
# s[mm] rx[mm] ry[mm] rz[mm] px[rad] py[rad] pz[rad]
0.0000000000000000e+00 +8.1649999999999991e+00 +0.0000000000000000e+00 +0.0000000000000000e+00 +0.0000000000000000e+00 +0.0000000000000000e+00 +1.0000000000000000e+00
-1.0000000000000001e-01 +8.1649997168677775e+00 +0.0000000000000000e+00 -9.9999999999465586e-02 +5.6626441221443644e-06 +0.0000000000000000e+00 +9.9999999998396727e-01
-2.0000000000000001e-01 +8.1649988674712386e+00 +0.0000000000000000e+00 -1.9999999999572463e-01 +1.1325286332868966e-05 +0.0000000000000000e+00 +9.9999999993586897e-01
-3.0000000000000004e-01 +8.1649974518105743e+00 +0.0000000000000000e+00 -2.9999999998557059e-01 +1.6987926617798847e-05 +0.0000000000000000e+00 +9.9999999985570520e-01
-4.0000000000000002e-01 +8.1649954698859784e+00 +0.0000000000000000e+00 -3.9999999996579688e-01 +2.2650564977797932e-05 +0.0000000000000000e+00 +9.9999999974347598e-01
-5.0000000000000000e-01 +8.1649929216976425e+00 +0.0000000000000000e+00 -4.9999999993319699e-01 +2.8313201428969192e-05 +0.0000000000000000e+00 +9.9999999959918129e-01
-5.9999999999999998e-01 +8.1649898072457550e+00 +0.0000000000000000e+00 -5.9999999988456432e-01 +3.3975836002654777e-05 +0.0000000000000000e+00 +9.9999999942282125e-01
-6.9999999999999996e-01 +8.1649861265305024e+00 +0.0000000000000000e+00 -6.9999999981669236e-01 +3.9638468745436125e-05 +0.0000000000000000e+00 +9.9999999921439586e-01
-7.9999999999999993e-01 +8.1649818795520641e+00 +0.0000000000000000e+00 -7.9999999972637459e-01 +4.5301099719134072e-05 +0.0000000000000000e+00 +9.9999999897390512e-01
-8.9999999999999991e-01 +8.1649770663106143e+00 +0.0000000000000000e+00 -8.9999999961040456e-01 +5.0963729000808910e-05 +0.0000000000000000e+00 +9.9999999870134915e-01
-9.9999999999999989e-01 +8.1649716868063180e+00 +0.0000000000000000e+00 -9.9999999946557561e-01 +5.6626356682760445e-05 +0.0000000000000000e+00 +9.9999999839672782e-01
-1.0999999999999999e+00 +8.1649657410393282e+00 +0.0000000000000000e+00 -1.0999999992886813e+00 +6.2288982872528019e-05 +0.0000000000000000e+00 +9.9999999806004125e-01
-1.2000000000000000e+00 +8.1649592290097885e+00 +0.0000000000000000e+00 -1.1999999990765151e+00 +6.7951607692890543e-05 +0.0000000000000000e+00 +9.9999999769128944e-01
-1.3000000000000000e+00 +8.1649521507178306e+00 +0.0000000000000000e+00 -1.2999999988258704e+00 +7.3614231281866438e-05 +0.0000000000000000e+00 +9.9999999729047240e-01
-1.4000000000000001e+00 +8.1649445061635681e+00 +0.0000000000000000e+00 -1.3999999985335407e+00 +7.9276853792713657e-05 +0.0000000000000000e+00 +9.9999999685759011e-01
-1.5000000000000002e+00 +8.1649362953471023e+00 +0.0000000000000000e+00 -1.4999999981963197e+00 +8.4939475393929579e-05 +0.0000000000000000e+00 +9.9999999639264270e-01
-1.6000000000000003e+00 +8.1649275182685130e+00 +0.0000000000000000e+00 -1.5999999978110004e+00 +9.0602096269250951e-05 +0.0000000000000000e+00 +9.9999999589563004e-01
-1.7000000000000004e+00 +8.1649181749278643e+00 +0.0000000000000000e+00 -1.6999999973743767e+00 +9.6264716617653807e-05 +0.0000000000000000e+00 +9.9999999536655215e-01
-1.8000000000000005e+00 +8.1649082653251988e+00 +0.0000000000000000e+00 -1.7999999968832419e+00 +1.0192733665335332e-04 +0.0000000000000000e+00 +9.9999999480540902e-01
-1.9000000000000006e+00 +8.1648977894605359e+00 +0.0000000000000000e+00 -1.8999999963343894e+00 +1.0758995660580367e-04 +0.0000000000000000e+00 +9.9999999421220065e-01
-2.0000000000000004e+00 +8.1648867473338722e+00 +0.0000000000000000e+00 -1.9999999957246131e+00 +1.1325257671969790e-04 +0.0000000000000000e+00 +9.9999999358692693e-01
-2.1000000000000005e+00 +8.1648751389451775e+00 +0.0000000000000000e+00 -2.0999999950507062e+00 +1.1891519725353231e-04 +0.0000000000000000e+00 +9.9999999292958797e-01
-2.2000000000000006e+00 +8.1648629642943984e+00 +0.0000000000000000e+00 -2.1999999943094619e+00 +1.2457781846381748e-04 +0.0000000000000000e+00 +9.9999999224018365e-01
-2.3000000000000007e+00 +8.1648502233814551e+00 +0.0000000000000000e+00 -2.2999999934976740e+00 +1.3024044058928928e-04 +0.0000000000000000e+00 +9.9999999151871388e-01
-2.4000000000000008e+00 +8.1648369162062426e+00 +0.0000000000000000e+00 -2.3999999926121358e+00 +1.3590306384947350e-04 +0.0000000000000000e+00 +9.9999999076517865e-01
-2.5000000000000009e+00 +8.1648230427686403e+00 +0.0000000000000000e+00 -2.4999999916496409e+00 +1.4156568844468583e-04 +0.0000000000000000e+00 +9.9999998997957795e-01
-2.6000000000000010e+00 +8.1648086030685043e+00 +0.0000000000000000e+00 -2.5999999906069826e+00 +1.4722831455603195e-04 +0.0000000000000000e+00 +9.9999998916191168e-01
-2.7000000000000011e+00 +8.1647935971056746e+00 +0.0000000000000000e+00 -2.6999999894809545e+00 +1.5289094234540747e-04 +0.0000000000000000e+00 +9.9999998831217984e-01
-2.8000000000000012e+00 +8.1647780248799755e+00 +0.0000000000000000e+00 -2.7999999882683499e+00 +1.5855357195549802e-04 +0.0000000000000000e+00 +9.9999998743038232e-01
-2.9000000000000012e+00 +8.1647618863912186e+00 +0.0000000000000000e+00 -2.8999999869659621e+00 +1.6421620350977919e-04 +0.0000000000000000e+00 +9.9999998651651911e-01
-3.0000000000000013e+00 +8.1647451816392049e+00 +0.0000000000000000e+00 -2.9999999855705846e+00 +1.6987883711251666e-04 +0.0000000000000000e+00 +9.9999998557059022e-01
-3.1000000000000014e+00 +8.1647279106237249e+00 +0.0000000000000000e+00 -3.0999999840790111e+00 +1.7554147284876617e-04 +0.0000000000000000e+00 +9.9999998459259554e-01
-3.2000000000000015e+00 +8.1647100733445619e+00 +0.0000000000000000e+00 -3.1999999824880350e+00 +1.8120411078437353e-04 +0.0000000000000000e+00 +9.9999998358253495e-01
-3.3000000000000016e+00 +8.1646916698014937e+00 +0.0000000000000000e+00 -3.2999999807944493e+00 +1.8686675096597476e-04 +0.0000000000000000e+00 +9.9999998254040845e-01
-3.4000000000000017e+00 +8.1646726999942931e+00 +0.0000000000000000e+00 -3.3999999789950479e+00 +1.9252939342099607e-04 +0.0000000000000000e+00 +9.9999998146621605e-01
-3.5000000000000018e+00 +8.1646531639227327e+00 +0.0000000000000000e+00 -3.4999999770866239e+00 +1.9819203815765393e-04 +0.0000000000000000e+00 +9.9999998035995774e-01
-3.6000000000000019e+00 +8.1646330615865850e+00 +0.0000000000000000e+00 -3.5999999750659706e+00 +2.0385468516495513e-04 +0.0000000000000000e+00 +9.9999997922163342e-01
-3.7000000000000020e+00 +8.1646123929856245e+00 +0.0000000000000000e+00 -3.6999999729298816e+00 +2.0951733441269685e-04 +0.0000000000000000e+00 +9.9999997805124297e-01
-3.8000000000000020e+00 +8.1645911581196291e+00 +0.0000000000000000e+00 -3.7999999706751502e+00 +2.1517998585146673e-04 +0.0000000000000000e+00 +9.9999997684878650e-01
-3.9000000000000021e+00 +8.1645693569883839e+00 +0.0000000000000000e+00 -3.8999999682985700e+00 +2.2084263941264293e-04 +0.0000000000000000e+00 +9.9999997561426390e-01
-4.0000000000000018e+00 +8.1645469895916793e+00 +0.0000000000000000e+00 -3.9999999657969343e+00 +2.2650529500839421e-04 +0.0000000000000000e+00 +9.9999997434767518e-01
-4.1000000000000014e+00 +8.1645240559293182e+00 +0.0000000000000000e+00 -4.0999999631670363e+00 +2.3216795253295898e-04 +0.0000000000000000e+00 +9.9999997304902044e-01
-4.2000000000000011e+00 +8.1645005560011121e+00 +0.0000000000000000e+00 -4.1999999604056697e+00 +2.3783061187671411e-04 +0.0000000000000000e+00 +9.9999997171829957e-01
-4.3000000000000007e+00 +8.1644764898068853e+00 +0.0000000000000000e+00 -4.2999999575096277e+00 +2.4349327294024349e-04 +0.0000000000000000e+00 +9.9999997035551247e-01
-4.4000000000000004e+00 +8.1644518573464691e+00 +0.0000000000000000e+00 -4.3999999544757031e+00 +2.4915593563561703e-04 +0.0000000000000000e+00 +9.9999996896065924e-01
-4.5000000000000000e+00 +8.1644266586197052e+00 +0.0000000000000000e+00 -4.4999999513006905e+00 +2.5481859988639053e-04 +0.0000000000000000e+00 +9.9999996753373988e-01
-4.5999999999999996e+00 +8.1644008936264409e+00 +0.0000000000000000e+00 -4.5999999479813827e+00 +2.6048126562760559e-04 +0.0000000000000000e+00 +9.9999996607475439e-01
-4.6999999999999993e+00 +8.1643745623665307e+00 +0.0000000000000000e+00 -4.6999999445145724e+00 +2.6614393280578952e-04 +0.0000000000000000e+00 +9.9999996458370277e-01
-4.7999999999999989e+00 +8.1643476648398323e+00 +0.0000000000000000e+00 -4.7999999408970542e+00 +2.7180660137895524e-04 +0.0000000000000000e+00 +9.9999996306058492e-01
-4.8999999999999986e+00 +8.1643202010462090e+00 +0.0000000000000000e+00 -4.8999999371256209e+00 +2.7746927131660121e-04 +0.0000000000000000e+00 +9.9999996150540083e-01
-4.9999999999999982e+00 +8.1642921709855241e+00 +0.0000000000000000e+00 -4.9999999331970653e+00 +2.8313194259971123e-04 +0.0000000000000000e+00 +9.9999995991815060e-01
-5.0999999999999979e+00 +8.1642635746576442e+00 +0.0000000000000000e+00 -5.0999999291081819e+00 +2.8879461522075443e-04 +0.0000000000000000e+00 +9.9999995829883415e-01
-5.1999999999999975e+00 +8.1642344120624344e+00 +0.0000000000000000e+00 -5.1999999248557636e+00 +2.9445728918368500e-04 +0.0000000000000000e+00 +9.9999995664745134e-01
-5.2999999999999972e+00 +8.1642046831997614e+00 +0.0000000000000000e+00 -5.2999999204366031e+00 +3.0011996450394232e-04 +0.0000000000000000e+00 +9.9999995496400229e-01
-5.3999999999999968e+00 +8.1641743880694868e+00 +0.0000000000000000e+00 -5.3999999158474949e+00 +3.0578264120845053e-04 +0.0000000000000000e+00 +9.9999995324848689e-01
-5.4999999999999964e+00 +8.1641435266714719e+00 +0.0000000000000000e+00 -5.4999999110852320e+00 +3.1144531933561859e-04 +0.0000000000000000e+00 +9.9999995150090515e-01
-5.5999999999999961e+00 +8.1641120990055711e+00 +0.0000000000000000e+00 -5.5999999061466070e+00 +3.1710799893534006e-04 +0.0000000000000000e+00 +9.9999994972125705e-01
-5.6999999999999957e+00 +8.1640801050716334e+00 +0.0000000000000000e+00 -5.6999999010284146e+00 +3.2277068006899298e-04 +0.0000000000000000e+00 +9.9999994790954250e-01
-5.7999999999999954e+00 +8.1640475448695025e+00 +0.0000000000000000e+00 -5.7999998957274475e+00 +3.2843336280943976e-04 +0.0000000000000000e+00 +9.9999994606576148e-01
-5.8999999999999950e+00 +8.1640144183990149e+00 +0.0000000000000000e+00 -5.8999998902404984e+00 +3.3409604724102693e-04 +0.0000000000000000e+00 +9.9999994418991389e-01
-5.9999999999999947e+00 +8.1639807256599948e+00 +0.0000000000000000e+00 -5.9999998845643612e+00 +3.3975873345958507e-04 +0.0000000000000000e+00 +9.9999994228199973e-01
-6.0999999999999943e+00 +8.1639464666522592e+00 +0.0000000000000000e+00 -6.0999998786958294e+00 +3.4542142157172929e-04 +0.0000000000000000e+00 +9.9999994034201889e-01
-6.1999999999999940e+00 +8.1639116413756128e+00 +0.0000000000000000e+00 -6.1999998726316958e+00 +3.5108411168716802e-04 +0.0000000000000000e+00 +9.9999993836997125e-01
-6.2999999999999936e+00 +8.1638762498298512e+00 +0.0000000000000000e+00 -6.2999998663687542e+00 +3.5674680391101167e-04 +0.0000000000000000e+00 +9.9999993636585682e-01
-6.3999999999999932e+00 +8.1638402920147577e+00 +0.0000000000000000e+00 -6.3999998599037982e+00 +3.6240949834307336e-04 +0.0000000000000000e+00 +9.9999993432967549e-01
-6.4999999999999929e+00 +8.1638037679301068e+00 +0.0000000000000000e+00 -6.4999998532336205e+00 +3.6807219507786927e-04 +0.0000000000000000e+00 +9.9999993226142725e-01
-6.5999999999999925e+00 +8.1637666775756621e+00 +0.0000000000000000e+00 -6.5999998463550149e+00 +3.7373489420461858e-04 +0.0000000000000000e+00 +9.9999993016111188e-01
-6.6999999999999922e+00 +8.1637290209511821e+00 +0.0000000000000000e+00 -6.6999998392647742e+00 +3.7939759580724356e-04 +0.0000000000000000e+00 +9.9999992802872950e-01
-6.7999999999999918e+00 +8.1636907980564146e+00 +0.0000000000000000e+00 -6.7999998319596919e+00 +3.8506029996436981e-04 +0.0000000000000000e+00 +9.9999992586427988e-01
-6.8999999999999915e+00 +8.1636520088911020e+00 +0.0000000000000000e+00 -6.8999998244365610e+00 +3.9072300674932635e-04 +0.0000000000000000e+00 +9.9999992366776302e-01
-6.9999999999999911e+00 +8.1636126534549760e+00 +0.0000000000000000e+00 -6.9999998166921751e+00 +3.9638571623014563e-04 +0.0000000000000000e+00 +9.9999992143917882e-01
-7.0999999999999908e+00 +8.1635727317477649e+00 +0.0000000000000000e+00 -7.0999998087233278e+00 +4.0204842846956382e-04 +0.0000000000000000e+00 +9.9999991917852726e-01
-7.1999999999999904e+00 +8.1635322437691880e+00 +0.0000000000000000e+00 -7.1999998005268120e+00 +4.0771114352502092e-04 +0.0000000000000000e+00 +9.9999991688580825e-01
-7.2999999999999901e+00 +8.1634911895189628e+00 +0.0000000000000000e+00 -7.2999997920994204e+00 +4.1337386144866075e-04 +0.0000000000000000e+00 +9.9999991456102166e-01
-7.3999999999999897e+00 +8.1634495689967999e+00 +0.0000000000000000e+00 -7.3999997834379467e+00 +4.1903658228733133e-04 +0.0000000000000000e+00 +9.9999991220416751e-01
-7.4999999999999893e+00 +8.1634073822024060e+00 +0.0000000000000000e+00 -7.4999997745391846e+00 +4.2469930608258485e-04 +0.0000000000000000e+00 +9.9999990981524567e-01
-7.5999999999999890e+00 +8.1633646291354829e+00 +0.0000000000000000e+00 -7.5999997653999269e+00 +4.3036203287067796e-04 +0.0000000000000000e+00 +9.9999990739425604e-01
-7.6999999999999886e+00 +8.1633213097957302e+00 +0.0000000000000000e+00 -7.6999997560169673e+00 +4.3602476268257191e-04 +0.0000000000000000e+00 +9.9999990494119861e-01
-7.7999999999999883e+00 +8.1632774241828443e+00 +0.0000000000000000e+00 -7.7999997463870985e+00 +4.4168749554393262e-04 +0.0000000000000000e+00 +9.9999990245607340e-01
-7.8999999999999879e+00 +8.1632329722965196e+00 +0.0000000000000000e+00 -7.8999997365071133e+00 +4.4735023147513101e-04 +0.0000000000000000e+00 +9.9999989993888017e-01
-7.9999999999999876e+00 +8.1631879541364469e+00 +0.0000000000000000e+00 -7.9999997263738054e+00 +4.5301297049124301e-04 +0.0000000000000000e+00 +9.9999989738961903e-01
-8.0999999999999872e+00 +8.1631423697023173e+00 +0.0000000000000000e+00 -8.0999997159839676e+00 +4.5867571260187206e-04 +0.0000000000000000e+00 +9.9999989480828977e-01
-8.1999999999999869e+00 +8.1630962189938234e+00 +0.0000000000000000e+00 -8.1999997053343936e+00 +4.6433845780919150e-04 +0.0000000000000000e+00 +9.9999989219489249e-01
-8.2999999999999865e+00 +8.1630495020106526e+00 +0.0000000000000000e+00 -8.2999996944218761e+00 +4.7000120610598715e-04 +0.0000000000000000e+00 +9.9999988954942698e-01
-8.3999999999999861e+00 +8.1630022187524993e+00 +0.0000000000000000e+00 -8.3999996832432089e+00 +4.7566395747547865e-04 +0.0000000000000000e+00 +9.9999988687189334e-01
-8.4999999999999858e+00 +8.1629543692190563e+00 +0.0000000000000000e+00 -8.4999996717951856e+00 +4.8132671189131919e-04 +0.0000000000000000e+00 +9.9999988416229146e-01
-8.5999999999999854e+00 +8.1629059534100215e+00 +0.0000000000000000e+00 -8.5999996600745980e+00 +4.8698946931759483e-04 +0.0000000000000000e+00 +9.9999988142062135e-01
-8.6999999999999851e+00 +8.1628569713250947e+00 +0.0000000000000000e+00 -8.6999996480782400e+00 +4.9265222970882412e-04 +0.0000000000000000e+00 +9.9999987864688289e-01
-8.7999999999999847e+00 +8.1628074229639829e+00 +0.0000000000000000e+00 -8.7999996358029051e+00 +4.9831499300995738e-04 +0.0000000000000000e+00 +9.9999987584107608e-01
-8.8999999999999844e+00 +8.1627573083263982e+00 +0.0000000000000000e+00 -8.8999996232453871e+00 +5.0397775915637629e-04 +0.0000000000000000e+00 +9.9999987300320103e-01
-8.9999999999999840e+00 +8.1627066274120601e+00 +0.0000000000000000e+00 -8.9999996104024778e+00 +5.0964052807389321e-04 +0.0000000000000000e+00 +9.9999987013325764e-01
-9.0999999999999837e+00 +8.1626553802206949e+00 +0.0000000000000000e+00 -9.0999995972709709e+00 +5.1530329967875072e-04 +0.0000000000000000e+00 +9.9999986723124590e-01
-9.1999999999999833e+00 +8.1626035667520380e+00 +0.0000000000000000e+00 -9.1999995838476583e+00 +5.2096607387762091e-04 +0.0000000000000000e+00 +9.9999986429716581e-01
-9.2999999999999829e+00 +8.1625511870058354e+00 +0.0000000000000000e+00 -9.2999995701293354e+00 +5.2662885056760497e-04 +0.0000000000000000e+00 +9.9999986133101737e-01
-9.3999999999999826e+00 +8.1624982409818436e+00 +0.0000000000000000e+00 -9.3999995561127943e+00 +5.3229162963623221e-04 +0.0000000000000000e+00 +9.9999985833280058e-01
-9.4999999999999822e+00 +8.1624447286798318e+00 +0.0000000000000000e+00 -9.4999995417948266e+00 +5.3795441096145963e-04 +0.0000000000000000e+00 +9.9999985530251545e-01
-9.5999999999999819e+00 +8.1623906500995798e+00 +0.0000000000000000e+00 -9.5999995271722280e+00 +5.4361719441167126e-04 +0.0000000000000000e+00 +9.9999985224016208e-01
-9.6999999999999815e+00 +8.1623360052408831e+00 +0.0000000000000000e+00 -9.6999995122417904e+00 +5.4927997984567764e-04 +0.0000000000000000e+00 +9.9999984914574047e-01
-9.7999999999999812e+00 +8.1622807941035500e+00 +0.0000000000000000e+00 -9.7999994970003073e+00 +5.5494276711271471e-04 +0.0000000000000000e+00 +9.9999984601925074e-01
-9.8999999999999808e+00 +8.1622250166874046e+00 +0.0000000000000000e+00 -9.8999994814445724e+00 +5.6060555605244339e-04 +0.0000000000000000e+00 +9.9999984286069288e-01
-9.9999999999999805e+00 +8.1621686729922889e+00 +0.0000000000000000e+00 -9.9999994655713778e+00 +5.6626834649494903e-04 +0.0000000000000000e+00 +9.9999983967006700e-01
-1.0099999999999980e+01 +8.1621117630180606e+00 +0.0000000000000000e+00 -1.0099999449377517e+01 +5.7193113826219176e-04 +0.0000000000000000e+00 +9.9999983644737311e-01
-1.0199999999999980e+01 +8.1620542867645973e+00 +0.0000000000000000e+00 -1.0199999432859784e+01 +5.7759393118397373e-04 +0.0000000000000000e+00 +9.9999983319261132e-01
-1.0299999999999979e+01 +8.1619962442317906e+00 +0.0000000000000000e+00 -1.0299999416014970e+01 +5.8325672511390695e-04 +0.0000000000000000e+00 +9.9999982990578173e-01
-1.0399999999999979e+01 +8.1619376354195445e+00 +0.0000000000000000e+00 -1.0399999398839871e+01 +5.8891951993086630e-04 +0.0000000000000000e+00 +9.9999982658688435e-01
-1.0499999999999979e+01 +8.1618784603277774e+00 +0.0000000000000000e+00 -1.0499999381331278e+01 +5.9458231553899084e-04 +0.0000000000000000e+00 +9.9999982323591929e-01
-1.0599999999999978e+01 +8.1618187189564129e+00 +0.0000000000000000e+00 -1.0599999363485987e+01 +6.0024511186768537e-04 +0.0000000000000000e+00 +9.9999981985288655e-01
-1.0699999999999978e+01 +8.1617584113053816e+00 +0.0000000000000000e+00 -1.0699999345300787e+01 +6.0590790887162177e-04 +0.0000000000000000e+00 +9.9999981643778613e-01
-1.0799999999999978e+01 +8.1616975373746161e+00 +0.0000000000000000e+00 -1.0799999326772475e+01 +6.1157070653074057e-04 +0.0000000000000000e+00 +9.9999981299061791e-01
-1.0899999999999977e+01 +8.1616360971640525e+00 +0.0000000000000000e+00 -1.0899999307897843e+01 +6.1723350485025233e-04 +0.0000000000000000e+00 +9.9999980951138201e-01
-1.0999999999999977e+01 +8.1615740906736232e+00 +0.0000000000000000e+00 -1.0999999288673683e+01 +6.2289630386063929e-04 +0.0000000000000000e+00 +9.9999980600007843e-01
-1.1099999999999977e+01 +8.1615115179032554e+00 +0.0000000000000000e+00 -1.1099999269096790e+01 +6.2855910361765699e-04 +0.0000000000000000e+00 +9.9999980245670705e-01
-1.1199999999999976e+01 +8.1614483788528709e+00 +0.0000000000000000e+00 -1.1199999249163955e+01 +6.3422190420233575e-04 +0.0000000000000000e+00 +9.9999979888126778e-01
-1.1299999999999976e+01 +8.1613846735223827e+00 +0.0000000000000000e+00 -1.1299999228871974e+01 +6.3988470572098270e-04 +0.0000000000000000e+00 +9.9999979527376059e-01
-1.1399999999999975e+01 +8.1613204019116914e+00 +0.0000000000000000e+00 -1.1399999208217638e+01 +6.4554750830518311e-04 +0.0000000000000000e+00 +9.9999979163418540e-01
-1.1499999999999975e+01 +8.1612555640206814e+00 +0.0000000000000000e+00 -1.1499999187197743e+01 +6.5121031211180227e-04 +0.0000000000000000e+00 +9.9999978796254207e-01
-1.1599999999999975e+01 +8.1611901598492214e+00 +0.0000000000000000e+00 -1.1599999165809079e+01 +6.5687311732298725e-04 +0.0000000000000000e+00 +9.9999978425883040e-01
-1.1699999999999974e+01 +8.1611241893971620e+00 +0.0000000000000000e+00 -1.1699999144048441e+01 +6.6253592414616878e-04 +0.0000000000000000e+00 +9.9999978052305027e-01
