# field on trajectory
# s[mm] rx[mm] ry[mm] rz[mm] bx[T] by[T] bz[T]
0.0000000000000000e+00 +8.1649999999999991e+00 +0.0000000000000000e+00 +0.0000000000000000e+00 -3.2012227556614641e-02 -5.9299213224746949e-01 +5.9281513367644865e-03
1.0000000000000001e-01 +8.1649997166762471e+00 +0.0000000000000000e+00 +9.9999999999464836e-02 -3.2012443544248689e-02 -5.9299168497324073e-01 +5.9281315842527422e-03
2.0000000000000001e-01 +8.1649988667052753e+00 +0.0000000000000000e+00 +1.9999999999571877e-01 -3.2012666181546690e-02 -5.9299124461987629e-01 +5.9281141365964954e-03
3.0000000000000004e-01 +8.1649974500875029e+00 +0.0000000000000000e+00 +2.9999999998555094e-01 -3.2012894429508387e-02 -5.9299081186867908e-01 +5.9280987976614184e-03
4.0000000000000002e-01 +8.1649954668233455e+00 +0.0000000000000000e+00 +3.9999999996575047e-01 -3.2013127249136304e-02 -5.9299038740095367e-01 +5.9280853713132142e-03
5.0000000000000000e-01 +8.1649929169132083e+00 +0.0000000000000000e+00 +4.9999999993310651e-01 -3.2013363601435418e-02 -5.9298997189800362e-01 +5.9280736614175456e-03
5.9999999999999998e-01 +8.1649898003574872e+00 +0.0000000000000000e+00 +5.9999999988440811e-01 -3.2013602447412665e-02 -5.9298956604112951e-01 +5.9280634718399377e-03
6.9999999999999996e-01 +8.1649861171565714e+00 +0.0000000000000000e+00 +6.9999999981644445e-01 -3.2013842748076719e-02 -5.9298917051162581e-01 +5.9280546064456709e-03
7.9999999999999993e-01 +8.1649818673108374e+00 +0.0000000000000000e+00 +7.9999999972600477e-01 -3.2014083464437501e-02 -5.9298878599077742e-01 +5.9280468690997099e-03
8.9999999999999991e-01 +8.1649770508206547e+00 +0.0000000000000000e+00 +8.9999999960987809e-01 -3.2014323557505817e-02 -5.9298841315985806e-01 +5.9280400636666074e-03
9.9999999999999989e-01 +8.1649716676863786e+00 +0.0000000000000000e+00 +9.9999999946485363e-01 -3.2014561988293028e-02 -5.9298805270012644e-01 +5.9280339940104019e-03
1.0999999999999999e+00 +8.1649657179083537e+00 +0.0000000000000000e+00 +1.0999999992877205e+00 -3.2014797717810628e-02 -5.9298770529282385e-01 +5.9280284639945330e-03
1.2000000000000000e+00 +8.1649592014869103e+00 +0.0000000000000000e+00 +1.1999999990752679e+00 -3.2015029707069806e-02 -5.9298737161917126e-01 +5.9280232774817487e-03
1.3000000000000000e+00 +8.1649521184223701e+00 +0.0000000000000000e+00 +1.2999999988242852e+00 -3.2015256917081250e-02 -5.9298705236036697e-01 +5.9280182383340202e-03
1.4000000000000001e+00 +8.1649444687150368e+00 +0.0000000000000000e+00 +1.3999999985315612e+00 -3.2015478308854532e-02 -5.9298674819758412e-01 +5.9280131504124431e-03
1.5000000000000002e+00 +8.1649362523652016e+00 +0.0000000000000000e+00 +1.4999999981938854e+00 -3.2015692843397940e-02 -5.9298645981196596e-01 +5.9280078175771422e-03
1.6000000000000003e+00 +8.1649274693731417e+00 +0.0000000000000000e+00 +1.5999999978080468e+00 -3.2015899481717951e-02 -5.9298618788462543e-01 +5.9280020436871918e-03
1.7000000000000004e+00 +8.1649181197391147e+00 +0.0000000000000000e+00 +1.6999999973708348e+00 -3.2016097184818924e-02 -5.9298593309664127e-01 +5.9279956326005155e-03
1.8000000000000005e+00 +8.1649082034633658e+00 +0.0000000000000000e+00 +1.7999999968790383e+00 -3.2016284913702717e-02 -5.9298569612905483e-01 +5.9279883881737955e-03
1.9000000000000006e+00 +8.1648977205461222e+00 +0.0000000000000000e+00 +1.8999999963294467e+00 -3.2016461629368276e-02 -5.9298547766286880e-01 +5.9279801142623854e-03
2.0000000000000004e+00 +8.1648866709875918e+00 +0.0000000000000000e+00 +1.9999999957188492e+00 -3.2016626292811268e-02 -5.9298527837904236e-01 +5.9279706147202056e-03
2.1000000000000005e+00 +8.1648750547879665e+00 +0.0000000000000000e+00 +2.0999999950440351e+00 -3.2016778156222579e-02 -5.9298509857134052e-01 +5.9279597573817441e-03
2.2000000000000006e+00 +8.1648628719474186e+00 +0.0000000000000000e+00 +2.1999999943017934e+00 -3.2016917636584423e-02 -5.9298493698490196e-01 +5.9279476660094579e-03
2.3000000000000007e+00 +8.1648501224661008e+00 +0.0000000000000000e+00 +2.2999999934889130e+00 -3.2017045442073871e-02 -5.9298479197772302e-01 +5.9279345283500175e-03
2.4000000000000008e+00 +8.1648368063441552e+00 +0.0000000000000000e+00 +2.3999999926021838e+00 -3.2017162280863459e-02 -5.9298466190781263e-01 +5.9279205321528822e-03
2.5000000000000009e+00 +8.1648229235817045e+00 +0.0000000000000000e+00 +2.4999999916383944e+00 -3.2017268861120982e-02 -5.9298454513319943e-01 +5.9279058651706580e-03
2.6000000000000010e+00 +8.1648084741788622e+00 +0.0000000000000000e+00 +2.5999999905943345e+00 -3.2017365891009050e-02 -5.9298444001193407e-01 +5.9278907151594819e-03
2.7000000000000011e+00 +8.1647934581357280e+00 +0.0000000000000000e+00 +2.6999999894667930e+00 -3.2017454078684761e-02 -5.9298434490209417e-01 +5.9278752698793818e-03
2.8000000000000012e+00 +8.1647778754523941e+00 +0.0000000000000000e+00 +2.7999999882525590e+00 -3.2017534132299415e-02 -5.9298425816178735e-01 +5.9278597170946334e-03
2.9000000000000012e+00 +8.1647617261289440e+00 +0.0000000000000000e+00 +2.8999999869484219e+00 -3.2017606759998068e-02 -5.9298417814915549e-01 +5.9278442445741325e-03
3.0000000000000013e+00 +8.1647450101654542e+00 +0.0000000000000000e+00 +2.9999999855511708e+00 -3.2017672669919325e-02 -5.9298410322238027e-01 +5.9278290400917718e-03
3.1000000000000014e+00 +8.1647277275619974e+00 +0.0000000000000000e+00 +3.0999999840575949e+00 -3.2017732570194794e-02 -5.9298403173968406e-01 +5.9278142914267881e-03
3.2000000000000015e+00 +8.1647098783186429e+00 +0.0000000000000000e+00 +3.1999999824644836e+00 -3.2017787168948951e-02 -5.9298396205933690e-01 +5.9278001863641424e-03
3.3000000000000016e+00 +8.1646914624354583e+00 +0.0000000000000000e+00 +3.2999999807686260e+00 -3.2017837174298631e-02 -5.9298389253965933e-01 +5.9277869126948763e-03
3.4000000000000017e+00 +8.1646724799125110e+00 +0.0000000000000000e+00 +3.3999999789668114e+00 -3.2017883294352789e-02 -5.9298382153902618e-01 +5.9277746582164833e-03
3.5000000000000018e+00 +8.1646529307498685e+00 +0.0000000000000000e+00 +3.4999999770558290e+00 -3.2017926237212065e-02 -5.9298374741587079e-01 +5.9277636107332738e-03
3.6000000000000019e+00 +8.1646328149476020e+00 +0.0000000000000000e+00 +3.5999999750324676e+00 -3.2017966710968501e-02 -5.9298366852868867e-01 +5.9277539580567399e-03
3.7000000000000020e+00 +8.1646121325057894e+00 +0.0000000000000000e+00 +3.6999999728935169e+00 -3.2018005423705163e-02 -5.9298358323604272e-01 +5.9277458880059222e-03
3.8000000000000020e+00 +8.1645908834245127e+00 +0.0000000000000000e+00 +3.7999999706357657e+00 -3.2018043083495824e-02 -5.9298348989656591e-01 +5.9277395884077787e-03
3.9000000000000021e+00 +8.1645690677038605e+00 +0.0000000000000000e+00 +3.8999999682560036e+00 -3.2018080398404536e-02 -5.9298338686896568e-01 +5.9277352470975325e-03
4.0000000000000018e+00 +8.1645466853439324e+00 +0.0000000000000000e+00 +3.9999999657510195e+00 -3.2018118076485413e-02 -5.9298327251202831e-01 +5.9277330519190673e-03
4.1000000000000014e+00 +8.1645237363448402e+00 +0.0000000000000000e+00 +4.0999999631176030e+00 -3.2018156722452416e-02 -5.9298314564550658e-01 +5.9277331355677828e-03
4.2000000000000011e+00 +8.1645002207067030e+00 +0.0000000000000000e+00 +4.1999999603525433e+00 -3.2018196527698876e-02 -5.9298300693275108e-01 +5.9277354101135299e-03
4.3000000000000007e+00 +8.1644761384296558e+00 +0.0000000000000000e+00 +4.2999999574526289e+00 -3.2018237580303317e-02 -5.9298285749800694e-01 +5.9277397324648427e-03
4.4000000000000004e+00 +8.1644514895138425e+00 +0.0000000000000000e+00 +4.3999999544146497e+00 -3.2018279968363018e-02 -5.9298269846552165e-01 +5.9277459595249099e-03
4.5000000000000000e+00 +8.1644262739594158e+00 +0.0000000000000000e+00 +4.4999999512353952e+00 -3.2018323779995368e-02 -5.9298253095954456e-01 +5.9277539481910682e-03
4.5999999999999996e+00 +8.1644004917665356e+00 +0.0000000000000000e+00 +4.5999999479116536e+00 -3.2018369103339168e-02 -5.9298235610432382e-01 +5.9277635553543232e-03
4.6999999999999993e+00 +8.1643741429353689e+00 +0.0000000000000000e+00 +4.6999999444402150e+00 -3.2018416026555904e-02 -5.9298217502410744e-01 +5.9277746378988486e-03
4.7999999999999989e+00 +8.1643472274660915e+00 +0.0000000000000000e+00 +4.7999999408178686e+00 -3.2018464637831166e-02 -5.9298198884314013e-01 +5.9277870527014928e-03
4.8999999999999986e+00 +8.1643197453588812e+00 +0.0000000000000000e+00 +4.8999999370414038e+00 -3.2018515025375935e-02 -5.9298179868566492e-01 +5.9278006566313070e-03
4.9999999999999982e+00 +8.1642916966139190e+00 +0.0000000000000000e+00 +4.9999999331076097e+00 -3.2018567277427877e-02 -5.9298160567591840e-01 +5.9278153065490174e-03
5.0999999999999979e+00 +8.1642630812313914e+00 +0.0000000000000000e+00 +5.0999999290132756e+00 -3.2018621482252790e-02 -5.9298141093813306e-01 +5.9278308593065645e-03
5.1999999999999975e+00 +8.1642338992114869e+00 +0.0000000000000000e+00 +5.1999999247551907e+00 -3.2018677728145720e-02 -5.9298121559653416e-01 +5.9278471717466030e-03
5.2999999999999972e+00 +8.1642041505543919e+00 +0.0000000000000000e+00 +5.2999999203301442e+00 -3.2018736103432581e-02 -5.9298102077533932e-01 +5.9278641007019994e-03
5.3999999999999968e+00 +8.1641738352602928e+00 +0.0000000000000000e+00 +5.3999999157349254e+00 -3.2018796696471175e-02 -5.9298082759875714e-01 +5.9278815029953601e-03
5.4999999999999964e+00 +8.1641429533293746e+00 +0.0000000000000000e+00 +5.4999999109663236e+00 -3.2018859595652746e-02 -5.9298063719098659e-01 +5.9278992354385163e-03
5.5999999999999961e+00 +8.1641115047618218e+00 +0.0000000000000000e+00 +5.5999999060211278e+00 -3.2018924889403236e-02 -5.9298045067621474e-01 +5.9279171548320547e-03
5.6999999999999957e+00 +8.1640794895578122e+00 +0.0000000000000000e+00 +5.6999999008961275e+00 -3.2018992666184583e-02 -5.9298026917861735e-01 +5.9279351179648129e-03
5.7999999999999954e+00 +8.1640469077175197e+00 +0.0000000000000000e+00 +5.7999998955881118e+00 -3.2019063014496092e-02 -5.9298009382235684e-01 +5.9279529816133950e-03
5.8999999999999950e+00 +8.1640137592411151e+00 +0.0000000000000000e+00 +5.8999998900938708e+00 -3.2019136022875726e-02 -5.9297992573158032e-01 +5.9279706025416809e-03
5.9999999999999947e+00 +8.1639800441287580e+00 +0.0000000000000000e+00 +5.9999998844101929e+00 -3.2019211779901476e-02 -5.9297976603042046e-01 +5.9279878375003226e-03
6.0999999999999943e+00 +8.1639457623806031e+00 +0.0000000000000000e+00 +6.0999998785338674e+00 -3.2019290393920909e-02 -5.9297961559501899e-01 +5.9280045613393992e-03
6.1999999999999940e+00 +8.1639109139967942e+00 +0.0000000000000000e+00 +6.1999998724616843e+00 -3.2019372052211788e-02 -5.9297947430957820e-01 +5.9280207213521230e-03
6.2999999999999936e+00 +8.1638754989774682e+00 +0.0000000000000000e+00 +6.2999998661904320e+00 -3.2019456961752235e-02 -5.9297934181024148e-01 +5.9280362829431874e-03
6.3999999999999932e+00 +8.1638395173227529e+00 +0.0000000000000000e+00 +6.3999998597169006e+00 -3.2019545329484235e-02 -5.9297921773305684e-01 +5.9280512115166854e-03
6.4999999999999929e+00 +8.1638029690327674e+00 +0.0000000000000000e+00 +6.4999998530378793e+00 -3.2019637362311823e-02 -5.9297910171397572e-01 +5.9280654724762002e-03
6.5999999999999925e+00 +8.1637658541076252e+00 +0.0000000000000000e+00 +6.5999998461501566e+00 -3.2019733267099393e-02 -5.9297899338884708e-01 +5.9280790312248666e-03
6.6999999999999922e+00 +8.1637281725474296e+00 +0.0000000000000000e+00 +6.6999998390505224e+00 -3.2019833250669733e-02 -5.9297889239341306e-01 +5.9280918531654288e-03
6.7999999999999918e+00 +8.1636899243522798e+00 +0.0000000000000000e+00 +6.7999998317357662e+00 -3.2019937519802304e-02 -5.9297879836330791e-01 +5.9281039037003260e-03
6.8999999999999915e+00 +8.1636511095222648e+00 +0.0000000000000000e+00 +6.8999998242026770e+00 -3.2020046281231417e-02 -5.9297871093404986e-01 +5.9281151482317510e-03
6.9999999999999911e+00 +8.1636117280574716e+00 +0.0000000000000000e+00 +6.9999998164480441e+00 -3.2020159741644461e-02 -5.9297862974104110e-01 +5.9281255521617202e-03
7.0999999999999908e+00 +8.1635717799579783e+00 +0.0000000000000000e+00 +7.0999998084686569e+00 -3.2020278107679996e-02 -5.9297855441956115e-01 +5.9281350808921447e-03
7.1999999999999904e+00 +8.1635312652238579e+00 +0.0000000000000000e+00 +7.1999998002613044e+00 -3.2020401585926082e-02 -5.9297848460476366e-01 +5.9281436998248867e-03
7.2999999999999901e+00 +8.1634901838551777e+00 +0.0000000000000000e+00 +7.2999997918227759e+00 -3.2020530382918362e-02 -5.9297841993167322e-01 +5.9281513743618414e-03
7.3999999999999897e+00 +8.1634485358520017e+00 +0.0000000000000000e+00 +7.3999997831498607e+00 -3.2020664705138278e-02 -5.9297836003518012e-01 +5.9281580699050021e-03
7.4999999999999893e+00 +8.1634063212143886e+00 +0.0000000000000000e+00 +7.4999997742393480e+00 -3.2020804759011298e-02 -5.9297830455003731e-01 +5.9281637518565147e-03
7.5999999999999890e+00 +8.1633635399423934e+00 +0.0000000000000000e+00 +7.5999997650880280e+00 -3.2020950750905108e-02 -5.9297825311085639e-01 +5.9281683856187740e-03
7.6999999999999886e+00 +8.1633201920360658e+00 +0.0000000000000000e+00 +7.6999997556926889e+00 -3.2021102887127700e-02 -5.9297820535210255e-01 +5.9281719365944533e-03
7.7999999999999883e+00 +8.1632762774954521e+00 +0.0000000000000000e+00 +7.7999997460501200e+00 -3.2021261373925719e-02 -5.9297816090809219e-01 +5.9281743701866023e-03
7.8999999999999879e+00 +8.1632317963205985e+00 +0.0000000000000000e+00 +7.8999997361571115e+00 -3.2021426417482547e-02 -5.9297811941298761e-01 +5.9281756517987009e-03
7.9999999999999876e+00 +8.1631867485115439e+00 +0.0000000000000000e+00 +7.9999997260104516e+00 -3.2021598223916523e-02 -5.9297808050079426e-01 +5.9281757468347251e-03
8.0999999999999872e+00 +8.1631411340683275e+00 +0.0000000000000000e+00 +8.0999997156069306e+00 -3.2021776839522620e-02 -5.9297804399204146e-01 +5.9281746571535751e-03
8.1999999999999869e+00 +8.1630949529909866e+00 +0.0000000000000000e+00 +8.1999997049433375e+00 -3.2021961671532283e-02 -5.9297801045394516e-01 +5.9281725304367065e-03
8.2999999999999865e+00 +8.1630482052795532e+00 +0.0000000000000000e+00 +8.2999996940164600e+00 -3.2022151967448328e-02 -5.9297798064052565e-01 +5.9281695508305050e-03
8.3999999999999861e+00 +8.1630008909340592e+00 +0.0000000000000000e+00 +8.3999996828230898e+00 -3.2022346974814687e-02 -5.9297795530594966e-01 +5.9281659024925468e-03
8.4999999999999858e+00 +8.1629530099545278e+00 +0.0000000000000000e+00 +8.4999996713600137e+00 -3.2022545941217791e-02 -5.9297793520453623e-01 +5.9281617695919600e-03
8.5999999999999854e+00 +8.1629045623409819e+00 +0.0000000000000000e+00 +8.5999996596240234e+00 -3.2022748114288131e-02 -5.9297792109076075e-01 +5.9281573363097993e-03
8.6999999999999851e+00 +8.1628555480934342e+00 +0.0000000000000000e+00 +8.6999996476119072e+00 -3.2022952741701798e-02 -5.9297791371926123e-01 +5.9281527868394286e-03
8.7999999999999847e+00 +8.1628059672118951e+00 +0.0000000000000000e+00 +8.7999996353204537e+00 -3.2023159071182021e-02 -5.9297791384484433e-01 +5.9281483053868914e-03
8.8999999999999844e+00 +8.1627558196963665e+00 +0.0000000000000000e+00 +8.8999996227464528e+00 -3.2023366350500702e-02 -5.9297792222248935e-01 +5.9281440761712835e-03
8.9999999999999840e+00 +8.1627051055468396e+00 +0.0000000000000000e+00 +8.9999996098866930e+00 -3.2023573827479911e-02 -5.9297793960735434e-01 +5.9281402834251307e-03
9.0999999999999837e+00 +8.1626538247633018e+00 +0.0000000000000000e+00 +9.0999995967379643e+00 -3.2023780749993486e-02 -5.9297796675478287e-01 +5.9281371113947753e-03
9.1999999999999833e+00 +8.1626019773457266e+00 +0.0000000000000000e+00 +9.1999995832970569e+00 -3.2023986365968489e-02 -5.9297800442030724e-01 +5.9281347443407286e-03
9.2999999999999829e+00 +8.1625495632940819e+00 +0.0000000000000000e+00 +9.2999995695607574e+00 -3.2024189923386820e-02 -5.9297805335965514e-01 +5.9281333665380633e-03
9.3999999999999826e+00 +8.1624965826083198e+00 +0.0000000000000000e+00 +9.3999995555258575e+00 -3.2024390670286666e-02 -5.9297811432875513e-01 +5.9281331622767800e-03
9.4999999999999822e+00 +8.1624430352883852e+00 +0.0000000000000000e+00 +9.4999995411891458e+00 -3.2024587854764135e-02 -5.9297818808374103e-01 +5.9281343158621965e-03
9.5999999999999819e+00 +8.1623889213342107e+00 +0.0000000000000000e+00 +9.5999995265474105e+00 -3.2024780724974639e-02 -5.9297827538095915e-01 +5.9281370116152999e-03
9.6999999999999815e+00 +8.1623342407457127e+00 +0.0000000000000000e+00 +9.6999995115974418e+00 -3.2024968529134626e-02 -5.9297837697697231e-01 +5.9281414338731436e-03
9.7999999999999812e+00 +8.1622789935227953e+00 +0.0000000000000000e+00 +9.7999994963360280e+00 -3.2025150515522960e-02 -5.9297849362856536e-01 +5.9281477669892125e-03
9.8999999999999808e+00 +8.1622231796653502e+00 +0.0000000000000000e+00 +9.8999994807599592e+00 -3.2025325932482522e-02 -5.9297862609275120e-01 +5.9281561953337990e-03
9.9999999999999805e+00 +8.1621667991732512e+00 +0.0000000000000000e+00 +9.9999994648660255e+00 -3.2025494028421753e-02 -5.9297877512677566e-01 +5.9281669032943780e-03
1.0099999999999980e+01 +8.1621098520463597e+00 +0.0000000000000000e+00 +1.0099999448651014e+01 -3.2025654293301425e-02 -5.9297894111088023e-01 +5.9281800109277881e-03
1.0199999999999980e+01 +8.1620523382845178e+00 +0.0000000000000000e+00 +1.0199999432111715e+01 -3.2025807183069993e-02 -5.9297912291645405e-01 +5.9281953809021343e-03
1.0299999999999979e+01 +8.1619942578875531e+00 +0.0000000000000000e+00 +1.0299999415244917e+01 -3.2025953395134671e-02 -5.9297931903760770e-01 +5.9282128115265096e-03
1.0399999999999979e+01 +8.1619356108552807e+00 +0.0000000000000000e+00 +1.0399999398047409e+01 -3.2026093626857911e-02 -5.9297952796840092e-01 +5.9282321010985031e-03
1.0499999999999979e+01 +8.1618763971875037e+00 +0.0000000000000000e+00 +1.0499999380515982e+01 -3.2026228575556204e-02 -5.9297974820284416e-01 +5.9282530479038741e-03
1.0599999999999978e+01 +8.1618166168840123e+00 +0.0000000000000000e+00 +1.0599999362647424e+01 -3.2026358938498707e-02 -5.9297997823489257e-01 +5.9282754502162031e-03
1.0699999999999978e+01 +8.1617562699445898e+00 +0.0000000000000000e+00 +1.0699999344438522e+01 -3.2026485412906182e-02 -5.9298021655844768e-01 +5.9282991062965399e-03
1.0799999999999978e+01 +8.1616953563690107e+00 +0.0000000000000000e+00 +1.0799999325886068e+01 -3.2026608695949622e-02 -5.9298046166735385e-01 +5.9283238143930722e-03
1.0899999999999977e+01 +8.1616338761570422e+00 +0.0000000000000000e+00 +1.0899999306986849e+01 -3.2026729484749043e-02 -5.9298071205539671e-01 +5.9283493727407752e-03
1.0999999999999977e+01 +8.1615718293084463e+00 +0.0000000000000000e+00 +1.0999999287737657e+01 -3.2026848476372306e-02 -5.9298096621630192e-01 +5.9283755795610715e-03
1.1099999999999977e+01 +8.1615092158229832e+00 +0.0000000000000000e+00 +1.1099999268135278e+01 -3.2026966367833726e-02 -5.9298122264373188e-01 +5.9284022330614852e-03
1.1199999999999976e+01 +8.1614460357004113e+00 +0.0000000000000000e+00 +1.1199999248176503e+01 -3.2027083856093000e-02 -5.9298147983128624e-01 +5.9284291314353026e-03
1.1299999999999976e+01 +8.1613822889404855e+00 +0.0000000000000000e+00 +1.1299999227858121e+01 -3.2027201638053837e-02 -5.9298173627249784e-01 +5.9284560728612183e-03
1.1399999999999975e+01 +8.1613179755429623e+00 +0.0000000000000000e+00 +1.1399999207176920e+01 -3.2027320410562755e-02 -5.9298199046083189e-01 +5.9284828555030032e-03
1.1499999999999975e+01 +8.1612530955076021e+00 +0.0000000000000000e+00 +1.1499999186129690e+01 -3.2027440870407896e-02 -5.9298224088968476e-01 +5.9285092775091608e-03
1.1599999999999975e+01 +8.1611876488341668e+00 +0.0000000000000000e+00 +1.1599999164713219e+01 -3.2027563714317697e-02 -5.9298248605238113e-01 +5.9285351370125779e-03
1.1699999999999974e+01 +8.1611216355224254e+00 +0.0000000000000000e+00 +1.1699999142924296e+01 -3.2027689638959703e-02 -5.9298272444217248e-01 +5.9285602321301799e-03
1.1799999999999974e+01 +8.1610550555721524e+00 +0.0000000000000000e+00 +1.1799999120759711e+01 -3.2027819340939248e-02 -5.9298295455223582e-01 +5.9285843609625912e-03
