# multipoles
# s[mm] polynom_b[n=0][T/m^n] polynom_b[n=1][T/m^n] polynom_b[n=2][T/m^n] polynom_b[n=3][T/m^n] polynom_b[n=4][T/m^n] polynom_b[n=5][T/m^n] polynom_b[n=6][T/m^n] 
+0.0000000000000000e+00 -5.9299597070922228e-01 +8.1211697698194421e+00 -6.7038424065338031e-01 -4.3939616658602262e+01 +6.2688371552278768e+03 -4.3355432605305643e+04 -3.5218485164070383e+07 
+1.0000000000000001e-01 -5.9299550010241886e-01 +8.1211989751909783e+00 -6.7744700767550670e-01 -4.4701125449970199e+01 +6.3397975398518101e+03 -3.9808105827707564e+04 -3.5399917776111826e+07 
+2.0000000000000001e-01 -5.9299503774384033e-01 +8.1212303189941846e+00 -6.8446001655696986e-01 -4.5490266948095190e+01 +6.4103336911073493e+03 -3.6190350234839410e+04 -3.5583233096728750e+07 
+3.0000000000000004e-01 -5.9299458417703621e-01 +8.1212633393238107e+00 -6.9136280861682797e-01 -4.6297592128243799e+01 +6.4796627253463957e+03 -3.2543890799455115e+04 -3.5765422517311856e+07 
+4.0000000000000002e-01 -5.9299413994555050e-01 +8.1212975742644531e+00 -6.9809492670204532e-01 -4.7113651696723657e+01 +6.5470017936982795e+03 -2.8910453943938734e+04 -3.5943477606800467e+07 
+5.0000000000000000e-01 -5.9299370559292619e-01 +8.1213325619077317e+00 -7.0459591330444926e-01 -4.7928996555551457e+01 +6.6115680366959778e+03 -2.5331764930945170e+04 -3.6114389869809374e+07 
+5.9999999999999998e-01 -5.9299328166270926e-01 +8.1213678403383316e+00 -7.1080531135643410e-01 -4.8734177410982184e+01 +6.6725786061588369e+03 -2.1849550111140328e+04 -3.6275150867301621e+07 
+6.9999999999999996e-01 -5.9299286869838963e-01 +8.1214029476391278e+00 -7.1666267064622502e-01 -4.9519744943065547e+01 +6.7292507826146275e+03 -1.8505535881941705e+04 -3.6422752766144775e+07 
+7.9999999999999993e-01 -5.9299246724352728e-01 +8.1214374218839325e+00 -7.2210753184036613e-01 -5.0276249580881441e+01 +6.7808016665486111e+03 -1.5341450018295462e+04 -3.6554186853219166e+07 
+8.9999999999999991e-01 -5.9299207784160546e-01 +8.1214708011489680e+00 -7.2707944508615263e-01 -5.0994241835131817e+01 +6.8264485355307643e+03 -1.2399019765864548e+04 -3.6666445246784016e+07 
+9.9999999999999989e-01 -5.9299170103614873e-01 +8.1215026234994276e+00 -7.3151795519788587e-01 -5.1664271931714360e+01 +6.8654085605395458e+03 -9.7199738875079111e+03 -3.6756519539086089e+07 
+1.0999999999999999e+00 -5.9299133737060294e-01 +8.1215324269998259e+00 -7.3536261585314033e-01 -5.2276890092312016e+01 +6.8968990705215647e+03 -7.3460411017459128e+03 -3.6821402042819597e+07 
+1.2000000000000000e+00 -5.9299098738843681e-01 +8.1215597497047529e+00 -7.3855297728921332e-01 -5.2822646288719064e+01 +6.9201373195465067e+03 -5.3189514397995717e+03 -3.6858084684740856e+07 
+1.3000000000000000e+00 -5.9299065163307974e-01 +8.1215841296663847e+00 -7.4102859370112972e-01 -5.3292090452825114e+01 +6.9343406247081793e+03 -3.6804350590785807e+03 -3.6863559654161327e+07 
+1.4000000000000001e+00 -5.9299033064794648e-01 +8.1216051049210289e+00 -7.4272902035736998e-01 -5.3675772092256523e+01 +6.9387263143337659e+03 -2.4722244498748178e+03 -3.6834819166889168e+07 
+1.5000000000000002e+00 -5.9299002497639974e-01 +8.1216222135058782e+00 -7.4359381740944641e-01 -5.3964240782506231e+01 +6.9325117906724263e+03 -1.7360515645165290e+03 -3.6768855735251710e+07 
+1.6000000000000003e+00 -5.9298973516179854e-01 +8.1216349934465022e+00 -7.4356254471336358e-01 -5.4148045800040940e+01 +6.9149144366394439e+03 -1.5136499710270630e+03 -3.6662661737540975e+07 
+1.7000000000000004e+00 -5.9298946174744849e-01 +8.1216429827532011e+00 -7.4257476685622947e-01 -5.4217736030679326e+01 +6.8851517072245433e+03 -1.8467553345121369e+03 -3.6513229845885478e+07 
+1.8000000000000005e+00 -5.9298920527659993e-01 +8.1216457194398686e+00 -7.4057005375078766e-01 -5.4163860512444181e+01 +6.8424411372418772e+03 -2.7771022845518173e+03 -3.6317553048746616e+07 
+1.9000000000000006e+00 -5.9298896629251652e-01 +8.1216427414976557e+00 -7.3748797215629636e-01 -5.3976967676792114e+01 +6.7860001842587053e+03 -4.3464288047662440e+03 -3.6072623917841628e+07 
+2.0000000000000004e+00 -5.9298874533835533e-01 +8.1216335869126972e+00 -7.3326810002715381e-01 -5.3647605866043136e+01 +6.7150464940248612e+03 -6.5964732301374243e+03 -3.5775435850649185e+07 
+2.1000000000000005e+00 -5.9298854259848754e-01 +8.1216179626320439e+00 -7.2787892443015856e-01 -5.3170211488491233e+01 +6.6291609986981748e+03 -9.5500659682016503e+03 -3.5424274328573816e+07 
+2.2000000000000006e+00 -5.9298835682793904e-01 +8.1215962513579516e+00 -7.2140605044783546e-01 -5.2554666418767503e+01 +6.5294139973229885e+03 -1.3155127269985471e+04 -3.5022767705619819e+07 
+2.3000000000000007e+00 -5.9298818642584994e-01 +8.1215690047461617e+00 -7.1396473118925419e-01 -5.1814688122560312e+01 +6.4172570476603205e+03 -1.7341026689592432e+04 -3.4575922813844688e+07 
+2.4000000000000008e+00 -5.9298802979139775e-01 +8.1215367744504068e+00 -7.0567021585775536e-01 -5.0963993989241665e+01 +6.2941416385810026e+03 -2.2037134339121596e+04 -3.4088746177188024e+07 
+2.5000000000000009e+00 -5.9298788532373792e-01 +8.1215001121352692e+00 -6.9663775594456290e-01 -5.0016301695777273e+01 +6.1615193019954122e+03 -2.7172818808199841e+04 -3.3566244530911326e+07 
+2.6000000000000010e+00 -5.9298775142207172e-01 +8.1214595694763627e+00 -6.8698259769847603e-01 -4.8985329203259745e+01 +6.0208414760839742e+03 -3.2677447229516187e+04 -3.3013424188615896e+07 
+2.7000000000000011e+00 -5.9298762648563208e-01 +8.1214156981478389e+00 -6.7681998355390893e-01 -4.7884794395021785e+01 +5.8735595323622592e+03 -3.8480387369257100e+04 -3.2435291171552192e+07 
+2.8000000000000012e+00 -5.9298750891367857e-01 +8.1213690498417428e+00 -6.6626515342649772e-01 -4.6728415634038264e+01 +5.7211248022381196e+03 -4.4511004428438995e+04 -3.1836851340835318e+07 
+2.9000000000000012e+00 -5.9298739710548176e-01 +8.1213201762624347e+00 -6.5543334576693679e-01 -4.5529911575671534e+01 +5.5649885960739020e+03 -5.0698662198997328e+04 -3.1223110487981204e+07 
+3.0000000000000013e+00 -5.9298728946038937e-01 +8.1212696291186415e+00 -6.4443979040092081e-01 -4.4303000966451059e+01 +5.4066020717605606e+03 -5.6972724164270192e+04 -3.0599073721277785e+07 
+3.1000000000000014e+00 -5.9298718437776765e-01 +8.1212179601389014e+00 -6.3339971554477048e-01 -4.3061403050916695e+01 +5.2474163689557781e+03 -6.3262551258069529e+04 -2.9969746109617680e+07 
+3.2000000000000015e+00 -5.9298708025701752e-01 +8.1211657210660597e+00 -6.2242834595563357e-01 -4.1818837428274627e+01 +5.0888825745241047e+03 -6.9497502668457935e+04 -2.9340132519059401e+07 
+3.3000000000000016e+00 -5.9298697549762935e-01 +8.1211134636591815e+00 -6.1164089575631919e-01 -4.0589024091361075e+01 +4.9324515855560749e+03 -7.5606935653178589e+04 -2.8715236961937271e+07 
+3.4000000000000017e+00 -5.9298686849911997e-01 +8.1210617396939035e+00 -6.0115257729434401e-01 -3.9385683443574585e+01 +4.7795742835064821e+03 -8.1520205440067439e+04 -2.8100063440482181e+07 
+3.5000000000000018e+00 -5.9298675766106745e-01 +8.1210111009618551e+00 -5.9107859628914550e-01 -3.8222536256862732e+01 +4.6317014422346347e+03 -8.7166665554608669e+04 -2.7499615512315359e+07 
+3.6000000000000019e+00 -5.9298664138310409e-01 +8.1209620992802538e+00 -5.8153415258687480e-01 -3.7113303961991974e+01 +4.4902837403070889e+03 -9.2475666099537062e+04 -2.6918896344239842e+07 
+3.7000000000000020e+00 -5.9298651806496727e-01 +8.1209152864808978e+00 -5.7263443444550799e-01 -3.6071708314314080e+01 +4.3567716568074520e+03 -9.7376555755833426e+04 -2.6362908228644978e+07 
+3.8000000000000020e+00 -5.9298638610641585e-01 +8.1208712144245236e+00 -5.6449462907376979e-01 -3.5111471813964194e+01 +4.2326156745678909e+03 -1.0179867933149886e+05 -2.5836653559316676e+07 
+3.9000000000000021e+00 -5.9298624390732113e-01 +8.1208304349903511e+00 -5.5722991091761043e-01 -3.4246317376361198e+01 +4.1192660555214161e+03 -1.0567137977142727e+05 -2.5345133759686884e+07 
+4.0000000000000018e+00 -5.9298608986760182e-01 +8.1207935000865898e+00 -5.5095545010221170e-01 -3.3489968651129466e+01 +4.0181730042803229e+03 -1.0892399627052798e+05 -2.4893350069937389e+07 
+4.1000000000000014e+00 -5.9298592288755381e-01 +8.1207608627114691e+00 -5.4575715182730067e-01 -3.2853359878291414e+01 +3.9304514504176959e+03 -1.1150191472932276e+05 -2.4485313133348074e+07 
+4.2000000000000011e+00 -5.9298574385177860e-01 +8.1207325864216138e+00 -5.4160361858632455e-01 -3.2336619341214664e+01 +3.8558495647315003e+03 -1.1341210320246562e+05 -2.4120885822434619e+07 
+4.3000000000000007e+00 -5.9298555413693688e-01 +8.1207086388518697e+00 -5.3843404105830051e-01 -3.1937257216841463e+01 +3.7937673205622259e+03 -1.1467630485863046e+05 -2.3798848822640251e+07 
+4.4000000000000004e+00 -5.9298535511969230e-01 +8.1206889876292934e+00 -5.3618761071065979e-01 -3.1652783501539723e+01 +3.7436047204275965e+03 -1.1531626359854158e+05 -2.3517982989697728e+07 
+4.5000000000000000e+00 -5.9298514817673276e-01 +8.1206736003765236e+00 -5.3480351805518522e-01 -3.1480708131356963e+01 +3.7047617690710881e+03 -1.1535372329228438e+05 -2.3277069236573603e+07 
+4.5999999999999996e+00 -5.9298493468472901e-01 +8.1206624447058910e+00 -5.3422095598076591e-01 -3.1418540799764401e+01 +3.6766385235175085e+03 -1.1481042883937496e+05 -2.3074888734438039e+07 
+4.6999999999999993e+00 -5.9298471602036085e-01 +8.1206554882180129e+00 -5.3437911896860146e-01 -3.1463790924476147e+01 +3.6586350983196762e+03 -1.1370812634047940e+05 -2.2910222993544247e+07 
+4.7999999999999989e+00 -5.9298449356031591e-01 +8.1206526985000735e+00 -5.3521720121233740e-01 -3.1613967614539881e+01 +3.6501516123563888e+03 -1.1206856321345716e+05 -2.2781853559232816e+07 
+4.8999999999999986e+00 -5.9298426868127208e-01 +8.1206540431346266e+00 -5.3667440039732173e-01 -3.1866579910309476e+01 +3.6505882733242220e+03 -1.0991348684496913e+05 -2.2688562448457535e+07 
+4.9999999999999982e+00 -5.9298404275991246e-01 +8.1206594896855915e+00 -5.3868991485840234e-01 -3.2219136392124874e+01 +3.6593453180163301e+03 -1.0726464678062685e+05 -2.2629131849928759e+07 
+5.0999999999999979e+00 -5.9298381717291604e-01 +8.1206690057060857e+00 -5.4120294501959165e-01 -3.2669145430531863e+01 +3.6758230408130685e+03 -1.0414379322118337e+05 -2.2602344261290755e+07 
+5.1999999999999975e+00 -5.9298359329697259e-01 +8.1206825587357070e+00 -5.4415269250664877e-01 -3.3214115073503763e+01 +3.6994217834906849e+03 -1.0057267773349470e+05 -2.2606982457488749e+07 
+5.2999999999999972e+00 -5.9298337250875532e-01 +8.1207001162972752e+00 -5.4747836209103007e-01 -3.3851552990128646e+01 +3.7295419630271545e+03 -9.6573053473644613e+04 -2.2641829598563656e+07 
+5.3999999999999968e+00 -5.9298315618492792e-01 +8.1207216458948448e+00 -5.5111916219932677e-01 -3.4578966398761601e+01 +3.7655840889820506e+03 -9.2166675618767375e+04 -2.2705669330048032e+07 
+5.4999999999999964e+00 -5.9298294570216759e-01 +8.1207471150244590e+00 -5.5501430128813412e-01 -3.5393862392327769e+01 +3.8069486933200378e+03 -8.7375299427669219e+04 -2.2797285448544331e+07 
+5.5999999999999961e+00 -5.9298274243712923e-01 +8.1207764911569438e+00 -5.5910299297246291e-01 -3.6293747446306710e+01 +3.8530364284043435e+03 -8.2220683064368350e+04 -2.2915462364152815e+07 
+5.6999999999999957e+00 -5.9298254776647730e-01 +8.1208097417465712e+00 -5.6332445163713873e-01 -3.7276127661930119e+01 +3.9032479827930529e+03 -7.6724586196759046e+04 -2.3058984699293155e+07 
+5.7999999999999954e+00 -5.9298236306685326e-01 +8.1208468342294982e+00 -5.6761789665567230e-01 -3.8338508739256163e+01 +3.9569841648906499e+03 -7.0908770081105904e+04 -2.3226637696428515e+07 
+5.8999999999999950e+00 -5.9298218971490546e-01 +8.1208877360226168e+00 -5.7192254873237225e-01 -3.9478395938495154e+01 +4.0136458301506018e+03 -6.4794997789351524e+04 -2.3417206859216865e+07 
+5.9999999999999947e+00 -5.9298202908726272e-01 +8.1209324145191069e+00 -5.7617763397121835e-01 -4.0693293982704553e+01 +4.0726339633876287e+03 -5.8405034574035097e+04 -2.3629478347458836e+07 
+6.0999999999999943e+00 -5.9298188223060999e-01 +8.1209807393468250e+00 -5.8033367124568336e-01 -4.1978703979281846e+01 +4.1334406579235128e+03 -5.1767754485716141e+04 -2.3862273344636440e+07 
+6.1999999999999940e+00 -5.9298174887655364e-01 +8.1210321755748858e+00 -5.8438162263894189e-01 -4.3321670066202344e+01 +4.1958247598497046e+03 -4.4943789200929059e+04 -2.4114177973386012e+07 
+6.2999999999999936e+00 -5.9298162842880431e-01 +8.1210860834920950e+00 -5.8832138214589580e-01 -4.4707007302606193e+01 +4.2595869888542493e+03 -3.8002526968524537e+04 -2.4383621077100165e+07 
+6.3999999999999932e+00 -5.9298152029103424e-01 +8.1211418233906532e+00 -5.9215284512032562e-01 -4.6119530794718358e+01 +4.3245280390860617e+03 -3.1013356023844946e+04 -2.4669031230290465e+07 
+6.4999999999999929e+00 -5.9298142386674790e-01 +8.1211987555662457e+00 -5.9587592468074446e-01 -4.7544055717586623e+01 +4.3904488917002482e+03 -2.4045664444608621e+04 -2.4968838225871418e+07 
+6.5999999999999925e+00 -5.9298133855938517e-01 +8.1212562403100961e+00 -5.9949053755453718e-01 -4.8965397057471229e+01 +4.4571505354735018e+03 -1.7168841718643154e+04 -2.5281471718224838e+07 
+6.6999999999999922e+00 -5.9298126377226323e-01 +8.1213136379253257e+00 -6.0299661301226415e-01 -5.0368370115402449e+01 +4.5244341454615069e+03 -1.0452275763425663e+04 -2.5605362094042510e+07 
+6.7999999999999918e+00 -5.9298119890858370e-01 +8.1213703087067568e+00 -6.0639408981896903e-01 -5.1737789877147229e+01 +4.5921010120418332e+03 -3.9653567133496758e+03 -2.5938940103049103e+07 
+6.8999999999999915e+00 -5.9298114337143981e-01 +8.1214256129622626e+00 -6.0968291668425467e-01 -5.3058471678158185e+01 +4.6599525552426458e+03 +2.2225270720370995e+03 -2.6280636939224027e+07 
+6.9999999999999911e+00 -5.9298109656380682e-01 +8.1214789109992225e+00 -6.1286305293543419e-01 -5.4315230766588940e+01 +4.7277903324623549e+03 +8.0419863240922177e+03 -2.6628884262601458e+07 
+7.0999999999999908e+00 -5.9298105788850963e-01 +8.1215295631237705e+00 -6.1593447115734079e-01 -5.5492882301385507e+01 +4.7954160799531737e+03 +1.3423630905933940e+04 -2.6982114376161709e+07 
+7.1999999999999904e+00 -5.9298102674827469e-01 +8.1215769296479241e+00 -6.1889715302198545e-01 -5.6576241548208849e+01 +4.8626316450486702e+03 +1.8298070908844020e+04 -2.7338759930479079e+07 
+7.2999999999999901e+00 -5.9298100254567587e-01 +8.1216203708916481e+00 -6.2175109351791180e-01 -5.7550123945020268e+01 +4.9292390504327514e+03 +2.2595917046083188e+04 -2.7697254187844913e+07 
+7.3999999999999897e+00 -5.9298098468315452e-01 +8.1216592471681377e+00 -6.2449629892565162e-01 -5.8399344669764510e+01 +4.9950404571758936e+03 +2.6247778113811495e+04 -2.8056030849955216e+07 
+7.4999999999999893e+00 -5.9298097256300863e-01 +8.1216929188042819e+00 -6.2713278939040618e-01 -5.9108719211316746e+01 +5.0598382194658989e+03 +2.9184264227999745e+04 -2.8413524332264014e+07 
+7.5999999999999890e+00 -5.9298096558737945e-01 +8.1217207461255363e+00 -6.2966059844680178e-01 -5.9663062970923896e+01 +5.1234348610203006e+03 +3.1335984627955182e+04 -2.8768169614660226e+07 
+7.6999999999999886e+00 -5.9298096315828308e-01 +8.1217420894641243e+00 -6.3207977012790295e-01 -6.0047191448692509e+01 +5.1856330258483613e+03 +3.2633548593635380e+04 -2.9118402019879311e+07 
+7.7999999999999883e+00 -5.9298096467755890e-01 +8.1217563091542821e+00 -6.3439036465547638e-01 -6.0245920149206775e+01 +5.2462355792477374e+03 +3.3007565018486493e+04 -2.9462657676080059e+07 
+7.8999999999999879e+00 -5.9298096954688539e-01 +8.1217627655365732e+00 -6.3659245697292788e-01 -6.0244064659749377e+01 +5.3050455829690491e+03 +3.2388642719450378e+04 -2.9799373405129917e+07 
+7.9999999999999876e+00 -5.9298097716780385e-01 +8.1217608189536072e+00 -6.3868613245664674e-01 -6.0026440559685966e+01 +5.3618662025185122e+03 +3.0707389759872829e+04 -3.0126986273331068e+07 
+8.0999999999999872e+00 -5.9298098712586034e-01 +8.1217500497016335e+00 -6.4066455562396207e-01 -5.9583498074152935e+01 +5.4164095731884690e+03 +2.7921757901684225e+04 -3.0443651205873452e+07 
+8.1999999999999869e+00 -5.9298099977877283e-01 +8.1217309258569106e+00 -6.4250012674282053e-01 -5.8928416880766555e+01 +5.4682285874925838e+03 +2.4100567455221379e+04 -3.0747384279609073e+07 
+8.2999999999999865e+00 -5.9298101568634498e-01 +8.1217041404606132e+00 -6.4416181370961778e-01 -5.8080137777737463e+01 +5.5168882516853091e+03 +1.9340842745819547e+04 -3.1036419204663478e+07 
+8.3999999999999861e+00 -5.9298103540851843e-01 +8.1216703865381135e+00 -6.4561856975332221e-01 -5.7057601160014272e+01 +5.5619533476168817e+03 +1.3739605730778563e+04 -3.1308988788685486e+07 
+8.4999999999999858e+00 -5.9298105950540370e-01 +8.1216303571039479e+00 -6.4683932909930186e-01 -5.5879747158800306e+01 +5.6029883454541487e+03 +7.3938769504703114e+03 -3.1563324520995092e+07 
+8.5999999999999854e+00 -5.9298108853723863e-01 +8.1215847451738092e+00 -6.4779301224716868e-01 -5.4565515972208480e+01 +5.6395575077553040e+03 +4.0067740008737047e+02 -3.1797657082935199e+07 
+8.6999999999999851e+00 -5.9298112306441575e-01 +8.1215342437430742e+00 -6.4844852264920538e-01 -5.3133847276812268e+01 +5.6712248256056955e+03 -7.1429747870071005e+03 -3.2010216038057316e+07 
+8.7999999999999847e+00 -5.9298116364752096e-01 +8.1214795458008844e+00 -6.4877474192256213e-01 -5.1603680609547929e+01 +5.6975539317305092e+03 -1.5140062203111414e+04 -3.2199229434841644e+07 
+8.8999999999999844e+00 -5.9298121084727606e-01 +8.1214213443263112e+00 -6.4874053736155302e-01 -4.9993955268618883e+01 +5.7181082460894258e+03 -2.3493568699289510e+04 -3.2362924505935188e+07 
+8.9999999999999840e+00 -5.9298126522458916e-01 +8.1213603322877148e+00 -6.4831475544874184e-01 -4.8323610292000552e+01 +5.7324508516592514e+03 -3.2106479533309423e+04 -3.2499527077407122e+07 
+9.0999999999999837e+00 -5.9298132734055709e-01 +8.1212972026441399e+00 -6.4746622196080106e-01 -4.6611584510935423e+01 +5.7401445015516792e+03 -4.0881781004183722e+04 -3.2607261615805041e+07 
+9.1999999999999833e+00 -5.9298139775643821e-01 +8.1212326483392037e+00 -6.4616374461228887e-01 -4.4876816363399918e+01 +5.7407516652864842e+03 -4.9722461570509571e+04 -3.2684351440399349e+07 
+9.2999999999999829e+00 -5.9298147703369630e-01 +8.1211673623097607e+00 -6.4437610917693600e-01 -4.3138244147282585e+01 +5.7338344680311757e+03 -5.8531510382202548e+04 -3.2729018469474375e+07 
+9.3999999999999826e+00 -5.9298156573399741e-01 +8.1211020374798402e+00 -6.4207207843976566e-01 -4.1414805850287856e+01 +5.7189546584988166e+03 -6.7211918242400687e+04 -3.2739483033780891e+07 
+9.4999999999999822e+00 -5.9298166441917310e-01 +8.1210373667593299e+00 -6.3922039793018692e-01 -3.9725439111060574e+01 +5.6956737324801288e+03 -7.5666677837052499e+04 -3.2713964508728642e+07 
+9.5999999999999819e+00 -5.9298177365130678e-01 +8.1209740430501451e+00 -6.3578978453464863e-01 -3.8089081401320065e+01 +5.6635527101496536e+03 -8.3798782672938090e+04 -3.2650680235637147e+07 
+9.6999999999999815e+00 -5.9298189399264822e-01 +8.1209127592380028e+00 -6.3174893761160789e-01 -3.6524669785977430e+01 +5.6221523519397970e+03 -9.1511228471068956e+04 -3.2547846564155888e+07 
+9.7999999999999812e+00 -5.9298202600569838e-01 +8.1208542081974944e+00 -6.2706652844451993e-01 -3.5051141077383321e+01 +5.5710329612880323e+03 -9.8707012255947804e+04 -3.2403677923168071e+07 
+9.8999999999999808e+00 -5.9298217025315070e-01 +8.1207990827925212e+00 -6.2171120794238188e-01 -3.3687431836423919e+01 +5.5097545329339227e+03 -1.0528913237275311e+05 -3.2216387532083068e+07 
+9.9999999999999805e+00 -5.9298232729795564e-01 +8.1207480758664339e+00 -6.1565159840781047e-01 -3.2452478080449488e+01 +5.4378766009411320e+03 -1.1116059008677867e+05 -3.1984186684032034e+07 
+1.0099999999999980e+01 -5.9298249742178566e-01 +8.1207017443631564e+00 -6.0887461137986254e-01 -3.1361259310348427e+01 +5.3552371830173106e+03 -1.1624585980029598e+05 -3.1706474853502888e+07 
