# field on trajectory
# s[mm] rx[mm] ry[mm] rz[mm] bx[T] by[T] bz[T]
0.0000000000000000e+00 +8.1530000000000094e+00 +0.0000000000000000e+00 +0.0000000000000000e+00 -2.8082580678648720e-02 -5.3697734225366300e-01 +5.3793807049793817e-03
1.0000000000000001e-01 +8.1529997163925092e+00 +0.0000000000000000e+00 +9.9999999999463796e-02 -2.8082583191747373e-02 -5.3697749396272032e-01 +5.3793498601289944e-03
2.0000000000000001e-01 +8.1529988655711296e+00 +0.0000000000000000e+00 +1.9999999999571000e-01 -2.8082584974568704e-02 -5.3697765206025960e-01 +5.3793180575470081e-03
2.9999999999999999e-01 +8.1529974475415692e+00 +0.0000000000000000e+00 +2.9999999998552201e-01 -2.8082586429127473e-02 -5.3697781660374833e-01 +5.3792853378335564e-03
4.0000000000000002e-01 +8.1529954622965306e+00 +0.0000000000000000e+00 +3.9999999996568197e-01 -2.8082587957440164e-02 -5.3697798765074956e-01 +5.3792517415877572e-03
5.0000000000000000e-01 +8.1529929098396696e+00 +0.0000000000000000e+00 +4.9999999993297300e-01 -2.8082589961516483e-02 -5.3697816525874709e-01 +5.3792173094060550e-03
5.9999999999999998e-01 +8.1529897901673394e+00 +0.0000000000000000e+00 +5.9999999988417696e-01 -2.8082592843366769e-02 -5.3697834948527889e-01 +5.3791820818837937e-03
6.9999999999999996e-01 +8.1529861032831796e+00 +0.0000000000000000e+00 +6.9999999981607697e-01 -2.8082597004996993e-02 -5.3697854038783233e-01 +5.3791460996142973e-03
8.0000000000000004e-01 +8.1529818491871993e+00 +0.0000000000000000e+00 +7.9999999972545699e-01 -2.8082602848413463e-02 -5.3697873802392360e-01 +5.3791094031898651e-03
9.0000000000000002e-01 +8.1529770278793894e+00 +0.0000000000000000e+00 +8.9999999960909804e-01 -2.8082610775621922e-02 -5.3697894245107369e-01 +5.3790720332016831e-03
1.0000000000000000e+00 +8.1529716393597500e+00 +0.0000000000000000e+00 +9.9999999946378304e-01 -2.8082621188628112e-02 -5.3697915372680738e-01 +5.3790340302400097e-03
1.1000000000000001e+00 +8.1529656836210105e+00 +0.0000000000000000e+00 +1.0999999992862901e+00 -2.8082634489441084e-02 -5.3697937190870904e-01 +5.3789954348948963e-03
1.2000000000000000e+00 +8.1529591606740706e+00 +0.0000000000000000e+00 +1.1999999990734200e+00 -2.8082651080064004e-02 -5.3697959705423537e-01 +5.3789562877544538e-03
1.3000000000000000e+00 +8.1529520705153100e+00 +0.0000000000000000e+00 +1.2999999988219300e+00 -2.8082671362507142e-02 -5.3697982922095688e-01 +5.3789166294074967e-03
1.3999999999999999e+00 +8.1529444131410909e+00 +0.0000000000000000e+00 +1.3999999985286200e+00 -2.8082695738782873e-02 -5.3698006846645230e-01 +5.3788765004426330e-03
1.5000000000000000e+00 +8.1529361885550298e+00 +0.0000000000000000e+00 +1.4999999981902701e+00 -2.8082724610903456e-02 -5.3698031484825537e-01 +5.3788359414478938e-03
1.6000000000000001e+00 +8.1529273967571498e+00 +0.0000000000000000e+00 +1.5999999978036501e+00 -2.8082758380885666e-02 -5.3698056842393649e-01 +5.3787949930117276e-03
1.7000000000000000e+00 +8.1529180377474404e+00 +0.0000000000000000e+00 +1.6999999973655600e+00 -2.8082797450749993e-02 -5.3698082925107549e-01 +5.3787536957229229e-03
1.8000000000000000e+00 +8.1529081115222706e+00 +0.0000000000000000e+00 +1.7999999968727800e+00 -2.8082842222522515e-02 -5.3698109738729127e-01 +5.3787120901710572e-03
1.8999999999999999e+00 +8.1528976180852606e+00 +0.0000000000000000e+00 +1.8999999963220899e+00 -2.8082893098231289e-02 -5.3698137289016046e-01 +5.3786702169458453e-03
2.0000000000000000e+00 +8.1528865574327902e+00 +0.0000000000000000e+00 +1.9999999957102601e+00 -2.8082950479912421e-02 -5.3698165581732638e-01 +5.3786281166384288e-03
2.1000000000000001e+00 +8.1528749295721408e+00 +0.0000000000000000e+00 +2.0999999950340902e+00 -2.8083014620935740e-02 -5.3698194609470762e-01 +5.3785857981750434e-03
2.2000000000000002e+00 +8.1528627344960096e+00 +0.0000000000000000e+00 +2.1999999942903599e+00 -2.8083085180008436e-02 -5.3698224312170906e-01 +5.3785431438230797e-03
2.2999999999999998e+00 +8.1528499722080596e+00 +0.0000000000000000e+00 +2.2999999934758399e+00 -2.8083161667163965e-02 -5.3698254616599195e-01 +5.3785000041835689e-03
2.3999999999999999e+00 +8.1528366427046404e+00 +0.0000000000000000e+00 +2.3999999925873299e+00 -2.8083243592435830e-02 -5.3698285449526140e-01 +5.3784562298575308e-03
2.5000000000000000e+00 +8.1528227459894005e+00 +0.0000000000000000e+00 +2.4999999916215998e+00 -2.8083330465851455e-02 -5.3698316737715823e-01 +5.3784116714448308e-03
2.6000000000000001e+00 +8.1528082820659602e+00 +0.0000000000000000e+00 +2.5999999905754398e+00 -2.8083421797434588e-02 -5.3698348407931062e-01 +5.3783661795447088e-03
2.7000000000000002e+00 +8.1527932509234198e+00 +0.0000000000000000e+00 +2.6999999894456299e+00 -2.8083517097210239e-02 -5.3698380386943956e-01 +5.3783196047568187e-03
2.7999999999999998e+00 +8.1527776525726896e+00 +0.0000000000000000e+00 +2.7999999882289601e+00 -2.8083615875190419e-02 -5.3698412601508938e-01 +5.3782717976784671e-03
2.8999999999999999e+00 +8.1527614870065008e+00 +0.0000000000000000e+00 +2.8999999869222002e+00 -2.8083717641388829e-02 -5.3698444978391990e-01 +5.3782226089075912e-03
3.0000000000000000e+00 +8.1527447542284808e+00 +0.0000000000000000e+00 +2.9999999855221300e+00 -2.8083821905809377e-02 -5.3698477444349135e-01 +5.3781718890405245e-03
3.1000000000000001e+00 +8.1527274542386294e+00 +0.0000000000000000e+00 +3.0999999840255499e+00 -2.8083928178451165e-02 -5.3698509926136995e-01 +5.3781194886730645e-03
3.2000000000000002e+00 +8.1527095870333106e+00 +0.0000000000000000e+00 +3.1999999824292300e+00 -2.8084035969308013e-02 -5.3698542350512546e-01 +5.3780652584004308e-03
3.2999999999999998e+00 +8.1526911526198091e+00 +0.0000000000000000e+00 +3.2999999807299600e+00 -2.8084144788362461e-02 -5.3698574644222186e-01 +5.3780090488161382e-03
3.3999999999999999e+00 +8.1526721509872004e+00 +0.0000000000000000e+00 +3.3999999789245101e+00 -2.8084254145596330e-02 -5.3698606734023246e-01 +5.3779507105141504e-03
3.5000000000000000e+00 +8.1526525821464002e+00 +0.0000000000000000e+00 +3.4999999770096801e+00 -2.8084363550975031e-02 -5.3698638546653976e-01 +5.3778900940858326e-03
3.6000000000000001e+00 +8.1526324460901396e+00 +0.0000000000000000e+00 +3.5999999749822500e+00 -2.8084472514462309e-02 -5.3698670008863147e-01 +5.3778270501229257e-03
3.7000000000000002e+00 +8.1526117428220495e+00 +0.0000000000000000e+00 +3.6999999728389801e+00 -2.8084580546008663e-02 -5.3698701047388331e-01 +5.3777614292153291e-03
3.7999999999999998e+00 +8.1525904723421299e+00 +0.0000000000000000e+00 +3.7999999705766800e+00 -2.8084687155556450e-02 -5.3698731588966475e-01 +5.3776930819521484e-03
3.8999999999999999e+00 +8.1525686346503807e+00 +0.0000000000000000e+00 +3.8999999681921298e+00 -2.8084791853037930e-02 -5.3698761560330943e-01 +5.3776218589213949e-03
4.0000000000000000e+00 +8.1525462297431694e+00 +0.0000000000000000e+00 +3.9999999656820902e+00 -2.8084894148376276e-02 -5.3698790888214187e-01 +5.3775476107102167e-03
4.0999999999999996e+00 +8.1525232576241304e+00 +0.0000000000000000e+00 +4.0999999630433699e+00 -2.8084993585393805e-02 -5.3698819527647901e-01 +5.3774702224440489e-03
4.2000000000000002e+00 +8.1524997182896204e+00 +0.0000000000000000e+00 +4.1999999602727298e+00 -2.8085089843562783e-02 -5.3698847546900408e-01 +5.3773897174076105e-03
4.2999999999999998e+00 +8.1524756117469206e+00 +0.0000000000000000e+00 +4.2999999573669703e+00 -2.8085182636271237e-02 -5.3698875042540950e-01 +5.3773061534230495e-03
4.4000000000000004e+00 +8.1524509379887604e+00 +0.0000000000000000e+00 +4.3999999543228601e+00 -2.8085271676921854e-02 -5.3698902111149949e-01 +5.3772195883116814e-03
4.5000000000000000e+00 +8.1524256970187707e+00 +0.0000000000000000e+00 +4.4999999511372000e+00 -2.8085356678923073e-02 -5.3698928849300809e-01 +5.3771300798919871e-03
4.5999999999999996e+00 +8.1523998888369498e+00 +0.0000000000000000e+00 +4.5999999478067499e+00 -2.8085437355695353e-02 -5.3698955353570510e-01 +5.3770376859806424e-03
4.7000000000000002e+00 +8.1523735134396702e+00 +0.0000000000000000e+00 +4.6999999443283098e+00 -2.8085513420671816e-02 -5.3698981720539807e-01 +5.3769424643924438e-03
4.7999999999999998e+00 +8.1523465708305594e+00 +0.0000000000000000e+00 +4.7999999406986600e+00 -2.8085584587294869e-02 -5.3699008046785213e-01 +5.3768444729394233e-03
4.9000000000000004e+00 +8.1523190610096208e+00 +0.0000000000000000e+00 +4.8999999369145701e+00 -2.8085650569021053e-02 -5.3699034428887238e-01 +5.3767437694315738e-03
5.0000000000000000e+00 +8.1522909839768491e+00 +0.0000000000000000e+00 +4.9999999329728402e+00 -2.8085711079320373e-02 -5.3699060963427858e-01 +5.3766404116765368e-03
5.0999999999999996e+00 +8.1522623397286207e+00 +0.0000000000000000e+00 +5.0999999288702398e+00 -2.8085765831678378e-02 -5.3699087746993079e-01 +5.3765344574797707e-03
5.2000000000000002e+00 +8.1522331282685592e+00 +0.0000000000000000e+00 +5.1999999246035600e+00 -2.8085814539592784e-02 -5.3699114876165321e-01 +5.3764259646436824e-03
5.2999999999999998e+00 +8.1522033495966806e+00 +0.0000000000000000e+00 +5.2999999201695802e+00 -2.8085856916578267e-02 -5.3699142447531334e-01 +5.3763149909683587e-03
5.4000000000000004e+00 +8.1521730037093203e+00 +0.0000000000000000e+00 +5.3999999155650800e+00 -2.8085892676167200e-02 -5.3699170557682396e-01 +5.3762015942515149e-03
5.5000000000000000e+00 +8.1521420906137791e+00 +0.0000000000000000e+00 +5.4999999107868396e+00 -2.8085921531904885e-02 -5.3699199303203726e-01 +5.3760858322872947e-03
5.5999999999999996e+00 +8.1521106102991308e+00 +0.0000000000000000e+00 +5.5999999058316599e+00 -2.8085943197361244e-02 -5.3699228780695951e-01 +5.3759677628684183e-03
5.7000000000000002e+00 +8.1520785627762997e+00 +0.0000000000000000e+00 +5.6999999006963096e+00 -2.8085957386116397e-02 -5.3699259086745876e-01 +5.3758474437830914e-03
5.7999999999999998e+00 +8.1520459480379905e+00 +0.0000000000000000e+00 +5.7999998953775700e+00 -2.8085963811776523e-02 -5.3699290317955928e-01 +5.3757249328179289e-03
5.9000000000000004e+00 +8.1520127660915005e+00 +0.0000000000000000e+00 +5.8999998898722197e+00 -2.8085962187962166e-02 -5.3699322570920149e-01 +5.3756002877554327e-03
5.9999999999999902e+00 +8.1519790169259103e+00 +0.0000000000000000e+00 +5.9999998841770603e+00 -2.8085952228321401e-02 -5.3699355942248661e-01 +5.3754735663763906e-03
6.0999999999999899e+00 +8.1519447005521197e+00 +0.0000000000000000e+00 +6.0999998782888598e+00 -2.8085933843405370e-02 -5.3699390493239563e-01 +5.3753448212397288e-03
6.1999999999999904e+00 +8.1519098169665103e+00 +0.0000000000000000e+00 +6.1999998722044003e+00 -2.8085907731339163e-02 -5.3699426144010531e-01 +5.3752140840382292e-03
6.2999999999999901e+00 +8.1518743661654298e+00 +0.0000000000000000e+00 +6.2999998659204701e+00 -2.8085874787115279e-02 -5.3699462779383511e-01 +5.3750813812560409e-03
6.3999999999999897e+00 +8.1518383481488907e+00 +0.0000000000000000e+00 +6.3999998594338496e+00 -2.8085835905695411e-02 -5.3699500284180723e-01 +5.3749467393869347e-03
6.4999999999999902e+00 +8.1518017629241495e+00 +0.0000000000000000e+00 +6.4999998527413201e+00 -2.8085791982007766e-02 -5.3699538543222280e-01 +5.3748101849344886e-03
6.5999999999999899e+00 +8.1517646104839496e+00 +0.0000000000000000e+00 +6.5999998458396698e+00 -2.8085743910954055e-02 -5.3699577441342172e-01 +5.3746717444141555e-03
6.6999999999999904e+00 +8.1517268908319203e+00 +0.0000000000000000e+00 +6.6999998387256703e+00 -2.8085692587398445e-02 -5.3699616863369748e-01 +5.3745314443517786e-03
6.7999999999999901e+00 +8.1516886039680703e+00 +0.0000000000000000e+00 +6.7999998313961196e+00 -2.8085638906171832e-02 -5.3699656694140541e-01 +5.3743893112851472e-03
6.8999999999999897e+00 +8.1516497498923908e+00 +0.0000000000000000e+00 +6.8999998238477902e+00 -2.8085583762069082e-02 -5.3699696818493703e-01 +5.3742453717641426e-03
6.9999999999999902e+00 +8.1516103286012402e+00 +0.0000000000000000e+00 +6.9999998160774597e+00 -2.8085528049849172e-02 -5.3699737121274738e-01 +5.3740996523514630e-03
7.0999999999999899e+00 +8.1515703400982602e+00 +0.0000000000000000e+00 +7.0999998080819298e+00 -2.8085472664229619e-02 -5.3699777487327582e-01 +5.3739521796222316e-03
7.1999999999999904e+00 +8.1515297843834595e+00 +0.0000000000000000e+00 +7.1999997998579603e+00 -2.8085418499889402e-02 -5.3699817801502880e-01 +5.3738029801652714e-03
7.2999999999999901e+00 +8.1514886614531896e+00 +0.0000000000000000e+00 +7.2999997914023496e+00 -2.8085366451467614e-02 -5.3699857948657970e-01 +5.3736520805835247e-03
7.3999999999999897e+00 +8.1514469713147300e+00 +0.0000000000000000e+00 +7.3999997827118804e+00 -2.8085317413556597e-02 -5.3699897813646313e-01 +5.3734995074934209e-03
7.4999999999999902e+00 +8.1514047139571595e+00 +0.0000000000000000e+00 +7.4999997737833199e+00 -2.8085272280711716e-02 -5.3699937281339094e-01 +5.3733452875274861e-03
7.5999999999999899e+00 +8.1513618893914099e+00 +0.0000000000000000e+00 +7.5999997646134698e+00 -2.8085231947434786e-02 -5.3699976236595792e-01 +5.3731894473317806e-03
7.6999999999999904e+00 +8.1513184976138309e+00 +0.0000000000000000e+00 +7.6999997551991104e+00 -2.8085197308186618e-02 -5.3700014564291121e-01 +5.3730320135690780e-03
7.7999999999999901e+00 +8.1512745386207808e+00 +0.0000000000000000e+00 +7.7999997455370096e+00 -2.8085169257380204e-02 -5.3700052149304467e-01 +5.3728730129182041e-03
7.8999999999999897e+00 +8.1512300124159101e+00 +0.0000000000000000e+00 +7.8999997356239602e+00 -2.8085148689376529e-02 -5.3700088876514529e-01 +5.3727124720739294e-03
7.9999999999999902e+00 +8.1511849189955701e+00 +0.0000000000000000e+00 +7.9999997254567399e+00 -2.8085136498488886e-02 -5.3700124630810298e-01 +5.3725504177485088e-03
8.0999999999999908e+00 +8.1511392583670403e+00 +0.0000000000000000e+00 +8.0999997150321406e+00 -2.8085133359025332e-02 -5.3700159342741494e-01 +5.3723869055974580e-03
8.1999999999999904e+00 +8.1510930305230396e+00 +0.0000000000000000e+00 +8.1999997043469399e+00 -2.8085139065472373e-02 -5.3700193125527096e-01 +5.3722221069939175e-03
8.2999999999999901e+00 +8.1510462354672200e+00 +0.0000000000000000e+00 +8.2999996933979094e+00 -2.8085153192389557e-02 -5.3700226138039342e-01 +5.3720562222303852e-03
8.3999999999999897e+00 +8.1509988731995708e+00 +0.0000000000000000e+00 +8.3999996821818605e+00 -2.8085175314376883e-02 -5.3700258539148904e-01 +5.3718894515899949e-03
8.4999999999999893e+00 +8.1509509437164507e+00 +0.0000000000000000e+00 +8.4999996706955496e+00 -2.8085205006076180e-02 -5.3700290487724656e-01 +5.3717219953461357e-03
8.5999999999999908e+00 +8.1509024470215099e+00 +0.0000000000000000e+00 +8.5999996589357703e+00 -2.8085241842168502e-02 -5.3700322142625656e-01 +5.3715540537612313e-03
8.6999999999999904e+00 +8.1508533831147396e+00 +0.0000000000000000e+00 +8.6999996468993004e+00 -2.8085285397379724e-02 -5.3700353662708855e-01 +5.3713858270871663e-03
8.7999999999999794e+00 +8.1508037519961398e+00 +0.0000000000000000e+00 +8.7999996345829192e+00 -2.8085335246480585e-02 -5.3700385206826262e-01 +5.3712175155646111e-03
8.8999999999999808e+00 +8.1507535536620708e+00 +0.0000000000000000e+00 +8.8999996219834205e+00 -2.8085390964289633e-02 -5.3700416933827522e-01 +5.3710493194229171e-03
8.9999999999999805e+00 +8.1507027881161793e+00 +0.0000000000000000e+00 +8.9999996090975891e+00 -2.8085452125670447e-02 -5.3700449002551687e-01 +5.3708814388788891e-03
9.0999999999999801e+00 +8.1506514553584601e+00 +0.0000000000000000e+00 +9.0999995959221902e+00 -2.8085518305537360e-02 -5.3700481571835068e-01 +5.3707140741372080e-03
9.1999999999999797e+00 +8.1505995553889097e+00 +0.0000000000000000e+00 +9.1999995824540193e+00 -2.8085589078855444e-02 -5.3700514800508437e-01 +5.3705474253897779e-03
9.2999999999999794e+00 +8.1505470882038900e+00 +0.0000000000000000e+00 +9.2999995686898593e+00 -2.8085664020643462e-02 -5.3700548847399421e-01 +5.3703816928155909e-03
9.3999999999999808e+00 +8.1504940538070496e+00 +0.0000000000000000e+00 +9.3999995546264898e+00 -2.8085742705971112e-02 -5.3700583871324425e-01 +5.3702170765795162e-03
9.4999999999999805e+00 +8.1504404521983798e+00 +0.0000000000000000e+00 +9.4999995402606903e+00 -2.8085824709964673e-02 -5.3700620031096413e-01 +5.3700537768327228e-03
9.5999999999999801e+00 +8.1503862833778804e+00 +0.0000000000000000e+00 +9.5999995255892507e+00 -2.8085909607807165e-02 -5.3700657485522174e-01 +5.3698919937120232e-03
9.6999999999999797e+00 +8.1503315473419207e+00 +0.0000000000000000e+00 +9.6999995106089507e+00 -2.8085996974741043e-02 -5.3700696393404634e-01 +5.3697319273397284e-03
9.7999999999999794e+00 +8.1502762440941297e+00 +0.0000000000000000e+00 +9.7999994953165697e+00 -2.8086086386065703e-02 -5.3700736913534852e-01 +5.3695737778224574e-03
9.8999999999999808e+00 +8.1502203736345091e+00 +0.0000000000000000e+00 +9.8999994797088906e+00 -2.8086177417142987e-02 -5.3700779204699778e-01 +5.3694177452515458e-03
9.9999999999999805e+00 +8.1501639359594300e+00 +0.0000000000000000e+00 +9.9999994637827001e+00 -2.8086269643398679e-02 -5.3700823425682132e-01 +5.3692640297026599e-03
1.0100000000000000e+01 +8.1501069310761505e+00 +0.0000000000000000e+00 +1.0099999447534801e+01 -2.8086362674763658e-02 -5.3700869699652987e-01 +5.3691127692379638e-03
1.0199999999999999e+01 +8.1500493589774106e+00 +0.0000000000000000e+00 +1.0199999430961901e+01 -2.8086456259011211e-02 -5.3700918007400855e-01 +5.3689638539207961e-03
1.0300000000000001e+01 +8.1499912196668394e+00 +0.0000000000000000e+00 +1.0299999414060901e+01 -2.8086550178391456e-02 -5.3700968294106732e-01 +5.3688171118153518e-03
1.0400000000000000e+01 +8.1499325131444493e+00 +0.0000000000000000e+00 +1.0399999396828500e+01 -2.8086644215188247e-02 -5.3701020504952779e-01 +5.3686723709876994e-03
1.0500000000000000e+01 +8.1498732394065900e+00 +0.0000000000000000e+00 +1.0499999379261400e+01 -2.8086738151719869e-02 -5.3701074585122532e-01 +5.3685294595058296e-03
1.0600000000000000e+01 +8.1498133984568994e+00 +0.0000000000000000e+00 +1.0599999361356600e+01 -2.8086831770335448e-02 -5.3701130479792580e-01 +5.3683882054388968e-03
1.0699999999999999e+01 +8.1497529902953794e+00 +0.0000000000000000e+00 +1.0699999343110701e+01 -2.8086924853419713e-02 -5.3701188134140887e-01 +5.3682484368581069e-03
1.0800000000000001e+01 +8.1496920149220404e+00 +0.0000000000000000e+00 +1.0799999324520600e+01 -2.8087017183392210e-02 -5.3701247493343673e-01 +5.3681099818365004e-03
1.0900000000000000e+01 +8.1496304723332305e+00 +0.0000000000000000e+00 +1.0899999305583000e+01 -2.8087108542709318e-02 -5.3701308502578549e-01 +5.3679726684492833e-03
1.1000000000000000e+01 +8.1495683625325892e+00 +0.0000000000000000e+00 +1.0999999286294800e+01 -2.8087198713860707e-02 -5.3701371107016138e-01 +5.3678363247730747e-03
1.1100000000000000e+01 +8.1495056855201309e+00 +0.0000000000000000e+00 +1.1099999266652601e+01 -2.8087287479374091e-02 -5.3701435251828167e-01 +5.3677007788867845e-03
1.1199999999999999e+01 +8.1494424412958306e+00 +0.0000000000000000e+00 +1.1199999246653300e+01 -2.8087374621814414e-02 -5.3701500882184838e-01 +5.3675658588713980e-03
1.1300000000000001e+01 +8.1493786298560700e+00 +0.0000000000000000e+00 +1.1299999226293700e+01 -2.8087459923785904e-02 -5.3701567943257411e-01 +5.3674313928103118e-03
1.1400000000000000e+01 +8.1493142512044905e+00 +0.0000000000000000e+00 +1.1399999205570500e+01 -2.8087543167928445e-02 -5.3701636380210116e-01 +5.3672972087885767e-03
1.1500000000000000e+01 +8.1492493053447106e+00 +0.0000000000000000e+00 +1.1499999184480499e+01 -2.8087624136921046e-02 -5.3701706138205674e-01 +5.3671631348935055e-03
1.1600000000000000e+01 +8.1491837922658306e+00 +0.0000000000000000e+00 +1.1599999163020600e+01 -2.8087702613487937e-02 -5.3701777162415765e-01 +5.3670289992158214e-03
1.1699999999999999e+01 +8.1491177119787608e+00 +0.0000000000000000e+00 +1.1699999141187400e+01 -2.8087778380385321e-02 -5.3701849397994350e-01 +5.3668946298469893e-03
1.1800000000000001e+01 +8.1490510644762306e+00 +0.0000000000000000e+00 +1.1799999118977800e+01 -2.8087851220417188e-02 -5.3701922790107126e-01 +5.3667598548822835e-03
