# multipoles
# s[mm] polynom_b[n=0][T/m^n] polynom_b[n=1][T/m^n] polynom_b[n=2][T/m^n] polynom_b[n=3][T/m^n] polynom_b[n=4][T/m^n] polynom_b[n=5][T/m^n] polynom_b[n=6][T/m^n] 
-0.0000000000000000e+00 -5.6482668679976633e-01 +7.7280860481651334e+00 -3.7990656998760741e-01 +4.3540139355161983e+01 -3.5548311407623301e+03 -3.4920687716085633e+05 +1.6450637879890876e+07 
-1.0000000000000001e-01 -5.6482664019007600e-01 +7.7280964358744235e+00 -3.8265114126338923e-01 +4.3105629427887557e+01 -3.5044659464767142e+03 -3.4650747694748041e+05 +1.6220229946249668e+07 
-2.0000000000000001e-01 -5.6482659468783869e-01 +7.7281051524805751e+00 -3.8514523645795579e-01 +4.2670787417494083e+01 -3.4614303820529176e+03 -3.4379976109847409e+05 +1.6027553588039264e+07 
-2.9999999999999999e-01 -5.6482655105153556e-01 +7.7281122555231674e+00 -3.8736917236024204e-01 +4.2238135626314012e+01 -3.4257194503687615e+03 -3.4109853509515052e+05 +1.5871752691785382e+07 
-4.0000000000000002e-01 -5.6482651003974849e-01 +7.7281178025339656e+00 -3.8930325509644276e-01 +4.1810196624549874e+01 -3.3973283558251383e+03 -3.3841860607636836e+05 +1.5751972100619229e+07 
-5.0000000000000000e-01 -5.6482647241092043e-01 +7.7281218510425678e+00 -3.9092779664440092e-01 +4.1389493054535215e+01 -3.3762521931704682e+03 -3.3577478161929542e+05 +1.5667356139020115e+07 
-5.9999999999999998e-01 -5.6482643892355200e-01 +7.7281244585822728e+00 -3.9222310855576076e-01 +4.0978547470057045e+01 -3.3624860663307290e+03 -3.3318186881507048e+05 +1.5617049178385986e+07 
-6.9999999999999996e-01 -5.6482641033621606e-01 +7.7281256826802700e+00 -3.9316950383497357e-01 +4.0579882622386421e+01 -3.3560250494636107e+03 -3.3065467594122491e+05 +1.5600195443112442e+07 
-8.0000000000000004e-01 -5.6482638740731450e-01 +7.7281255808631641e+00 -3.9374729577122541e-01 +4.0196021271209780e+01 -3.3568642120763070e+03 -3.2820801126862870e+05 +1.5615939139276186e+07 
-9.0000000000000002e-01 -5.6482637089537457e-01 +7.7281242106564356e+00 -3.9393679527183162e-01 +3.9829486221836028e+01 -3.3649986728946387e+03 -3.2585668334451562e+05 +1.5663424717777207e+07 
-1.0000000000000000e+00 -5.6482636155890276e-01 +7.7281216295772648e+00 -3.9371831622981324e-01 +3.9482800518536301e+01 -3.3804234934183273e+03 -3.2361550205308176e+05 +1.5741796359187929e+07 
-1.1000000000000001e+00 -5.6482636015630550e-01 +7.7281178951469842e+00 -3.9307217474020817e-01 +3.9158487073890868e+01 -3.4031336934596534e+03 -3.2149927645542537e+05 +1.5850198048743105e+07 
-1.2000000000000000e+00 -5.6482636744612402e-01 +7.7281130648760810e+00 -3.9197868438696259e-01 +3.8859069100512350e+01 -3.4331243412142576e+03 -3.1952281725616381e+05 +1.5987774006074103e+07 
-1.3000000000000000e+00 -5.6482638418675957e-01 +7.7281071962746983e+00 -3.9041816181672356e-01 +3.8587069812075796e+01 -3.4703904529400224e+03 -3.1770093509962130e+05 +1.6153668224263709e+07 
-1.3999999999999999e+00 -5.6482641113669940e-01 +7.7281003468489162e+00 -3.8837092505445819e-01 +3.8345012512114273e+01 -3.5149270124334362e+03 -3.1604844101923273e+05 +1.6347024529259242e+07 
-1.5000000000000000e+00 -5.6482644905443058e-01 +7.7280925740976860e+00 -3.8581729136961940e-01 +3.8135420693709499e+01 -3.5667290284102587e+03 -3.1458014704311837e+05 +1.6566986898268428e+07 
-1.6000000000000001e+00 -5.6482649869838908e-01 +7.7280839355166409e+00 -3.8273757878754838e-01 +3.7960817905702193e+01 -3.6257914910510449e+03 -3.1331086534394615e+05 +1.6812699213999178e+07 
-1.7000000000000000e+00 -5.6482656082697080e-01 +7.7280744885911865e+00 -3.7911211060697725e-01 +3.7823727964846199e+01 -3.6921092968236976e+03 -3.1225540950588573e+05 +1.7083304936900608e+07 
-1.8000000000000000e+00 -5.6482663619867912e-01 +7.7280642908078789e+00 -3.7492120844084054e-01 +3.7726674611349317e+01 -3.7656773728234225e+03 -3.1142859247691225e+05 +1.7377947674353261e+07 
-1.8999999999999999e+00 -5.6482672557191116e-01 +7.7280533996388394e+00 -3.7014519374157667e-01 +3.7672181964472166e+01 -3.8464906534835968e+03 -3.1084522921687789e+05 +1.7695771086901199e+07 
-2.0000000000000000e+00 -5.6482682970514542e-01 +7.7280418725561502e+00 -3.6476439274057798e-01 +3.7662774079301592e+01 -3.9345439875850680e+03 -3.1052013408427418e+05 +1.8035918447451435e+07 
-2.1000000000000001e+00 -5.6482694902994701e-01 +7.7280297514945815e+00 -3.5877637988947170e-01 +3.7700307808938767e+01 -4.0296784528960188e+03 -3.1046404003922641e+05 +1.8397227251533646e+07 
-2.2000000000000002e+00 -5.6482708273344995e-01 +7.7280170160116253e+00 -3.5224405207274517e-01 +3.7784253635980043e+01 -4.1311451790305300e+03 -3.1067315530418052e+05 +1.8777341309164070e+07 
-2.2999999999999998e+00 -5.6482722970659283e-01 +7.7280036300591872e+00 -3.4524576706494375e-01 +3.7913550261518459e+01 -4.2380539138147415e+03 -3.1114047182296845e+05 +1.9173613906762946e+07 
-2.3999999999999999e+00 -5.6482738884040296e-01 +7.7279895575932871e+00 -3.3785988180049886e-01 +3.8087136302524229e+01 -4.3495144256006752e+03 -3.1185898120206961e+05 +1.9583398442605052e+07 
-2.5000000000000000e+00 -5.6482755902581272e-01 +7.7279747625757302e+00 -3.3016475539549089e-01 +3.8303950240561271e+01 -4.4646364350334125e+03 -3.1282167441948847e+05 +2.0004048070827346e+07 
-2.6000000000000001e+00 -5.6482773915377460e-01 +7.7279592089743048e+00 -3.2223874628119792e-01 +3.8562930427035532e+01 -4.5825296864784850e+03 -3.1402154188415146e+05 +2.0432916085993793e+07 
-2.7000000000000002e+00 -5.6482792811523785e-01 +7.7279428607654781e+00 -3.1416021428211871e-01 +3.8863015004551428e+01 -4.7023038911986387e+03 -3.1545157299620932e+05 +2.0867355607067268e+07 
-2.7999999999999998e+00 -5.6482812480113420e-01 +7.7279256819330291e+00 -3.0600752030211992e-01 +3.9203141958792003e+01 -4.8230687460524032e+03 -3.1710475649422040e+05 +2.1304719699180540e+07 
-2.8999999999999999e+00 -5.6482832810239680e-01 +7.7279076364672594e+00 -2.9785902559443411e-01 +3.9582249144056753e+01 -4.9439339371961260e+03 -3.1897408061597258e+05 +2.1742361365276776e+07 
-3.0000000000000000e+00 -5.6482853690998480e-01 +7.7278886883749456e+00 -2.8979308716565516e-01 +3.9999273999042167e+01 -5.0640092352061274e+03 -3.2105253147942794e+05 +2.2177634016032085e+07 
-3.1000000000000001e+00 -5.6482875011478206e-01 +7.7278688016711889e+00 -2.8188807088274098e-01 +4.0453153784097019e+01 -5.1824042453500624e+03 -3.2333309446282481e+05 +2.2607890282865442e+07 
-3.2000000000000002e+00 -5.6482896660772119e-01 +7.7278479403790099e+00 -2.7422233653701539e-01 +4.0942825604451244e+01 -5.2982286842978774e+03 -3.2580875438538531e+05 +2.3030483313048363e+07 
-3.2999999999999998e+00 -5.6482918527970649e-01 +7.7278260685421500e+00 -2.6687424647438301e-01 +4.1467226045131682e+01 -5.4105922246495211e+03 -3.2847249342342885e+05 +2.3442766052782804e+07 
-3.3999999999999999e+00 -5.6482940502163326e-01 +7.7278031502119342e+00 -2.5992216393231188e-01 +4.2025291550185308e+01 -5.5186045212397421e+03 -3.3131729330496670e+05 +2.3842091359422065e+07 
-3.5000000000000000e+00 -5.6482962472440845e-01 +7.7277791494580699e+00 -2.5344444976458280e-01 +4.2615958117160574e+01 -5.6213752753554190e+03 -3.3433613357779826e+05 +2.4225812308855481e+07 
-3.6000000000000001e+00 -5.6482984327892582e-01 +7.7277540303631609e+00 -2.4751946977401057e-01 +4.3238161469172489e+01 -5.7180140922488945e+03 -3.3752199264957540e+05 +2.4591281511291087e+07 
-3.7000000000000002e+00 -5.6483005957603150e-01 +7.7277277570301806e+00 -2.4222558371467240e-01 +4.3890836834537957e+01 -5.8076306982944843e+03 -3.4086784651339229e+05 +2.4935852165330496e+07 
-3.7999999999999998e+00 -5.6483027250659978e-01 +7.7277002935760715e+00 -2.3764115831449167e-01 +4.4572919135252889e+01 -5.8893346819521767e+03 -3.4436666985196923e+05 +2.5256876793779030e+07 
-3.8999999999999999e+00 -5.6483048096154709e-01 +7.7276716041388882e+00 -2.3384455368637758e-01 +4.5283342794905913e+01 -5.9622357612551559e+03 -3.4801143498466082e+05 +2.5551708540293533e+07 
-4.0000000000000000e+00 -5.6483068383166579e-01 +7.7276416528780878e+00 -2.3091413435739619e-01 +4.6021041848933706e+01 -6.0254435547118355e+03 -3.5179511266162776e+05 +2.5817700032183971e+07 
-4.0999999999999996e+00 -5.6483088024326145e-01 +7.7276104504484060e+00 -2.2890336045992257e-01 +4.6784452038645277e+01 -6.0783291179601674e+03 -3.5570908922888129e+05 +2.6052887828612845e+07 
-4.2000000000000002e+00 -5.6483107017894818e-01 +7.7275781778387840e+00 -2.2777620890668368e-01 +4.7569857829783771e+01 -6.1212026233609058e+03 -3.5973659204267018e+05 +2.6257758661821805e+07 
-4.2999999999999998e+00 -5.6483125381625532e-01 +7.7275450550312943e+00 -2.2747655660874744e-01 +4.8372978454717554e+01 -6.1545847929359625e+03 -3.6385845318906225e+05 +2.6433345505653661e+07 
-4.4000000000000004e+00 -5.6483143133259650e-01 +7.7275113020102504e+00 -2.2794828197987105e-01 +4.9189533010053104e+01 -6.1789963102518168e+03 -3.6805550361869799e+05 +2.6580681126344457e+07 
-4.5000000000000000e+00 -5.6483160290555623e-01 +7.7274771387489345e+00 -2.2913525704385881e-01 +5.0015240853998101e+01 -6.1949579712954192e+03 -3.7230857547107968e+05 +2.6700798803434741e+07 
-4.5999999999999996e+00 -5.6483176871260521e-01 +7.7274427852123830e+00 -2.3098135557791857e-01 +5.0845821503283958e+01 -6.2029905248667292e+03 -3.7659850140765443e+05 +2.6794731557527285e+07 
-4.7000000000000002e+00 -5.6483192893137257e-01 +7.7274084613608256e+00 -2.3343044685645056e-01 +5.1676994528627496e+01 -6.2036147954510116e+03 -3.8090611396781320e+05 +2.6863512746793263e+07 
-4.7999999999999998e+00 -5.6483208373937488e-01 +7.7273743871411327e+00 -2.3642640109358787e-01 +5.2504479811219504e+01 -6.1973515804440376e+03 -3.8521224707790604e+05 +2.6908175578587186e+07 
-4.9000000000000004e+00 -5.6483223331429100e-01 +7.7273407824956788e+00 -2.3991308399667907e-01 +5.3323997264382200e+01 -6.1847217464158230e+03 -3.8949773436721490e+05 +2.6929753547614373e+07 
-5.0000000000000000e+00 -5.6483237783371654e-01 +7.7273078673510742e+00 -2.4383435931783196e-01 +5.4131267152424755e+01 -6.1662461847448585e+03 -3.9374341096861928e+05 +2.6929280238775074e+07 
-5.0999999999999996e+00 -5.6483251747536711e-01 +7.7272758616253912e+00 -2.4813409102862052e-01 +5.4922009895650440e+01 -6.1424457700393368e+03 -3.9793011242942495e+05 +2.6907789125877425e+07 
-5.2000000000000002e+00 -5.6483265241693570e-01 +7.7272449852248037e+00 -2.5275613730141283e-01 +5.5691946139355380e+01 -6.1138414717892474e+03 -4.0203867501889821e+05 +2.6866314098116968e+07 
-5.2999999999999998e+00 -5.6483278283616178e-01 +7.7272154580420436e+00 -2.5764435513877254e-01 +5.6436796810968637e+01 -6.0809542693908679e+03 -4.0604993606923585e+05 +2.6805889061254632e+07 
-5.4000000000000004e+00 -5.6483290891082716e-01 +7.7271874999545345e+00 -2.6274259921182008e-01 +5.7152283144515245e+01 -6.0443051642632472e+03 -4.0994473403875652e+05 +2.6727547972364750e+07 
-5.5000000000000000e+00 -5.6483303081871417e-01 +7.7271613308329785e+00 -2.6799472124937418e-01 +5.7834126461251998e+01 -6.0044152047932657e+03 -4.1370390729812055e+05 +2.6632324990430750e+07 
-5.5999999999999996e+00 -5.6483314873772827e-01 +7.7271371705217007e+00 -2.7334457047888133e-01 +5.8478048701543557e+01 -5.9618054668574277e+03 -4.1730829710256739e+05 +2.6521254356999870e+07 
-5.7000000000000002e+00 -5.6483326284574276e-01 +7.7271152388604936e+00 -2.7873599190061660e-01 +5.9079771796260836e+01 -5.9169970889428487e+03 -4.2073874394575995e+05 +2.6395370569556784e+07 
-5.7999999999999998e+00 -5.6483337332068950e-01 +7.7270957556664088e+00 -2.8411282795534687e-01 +5.9635018197547737e+01 -5.8705112430118015e+03 -4.2397609063122695e+05 +2.6255708247240741e+07 
-5.9000000000000004e+00 -5.6483348034055103e-01 +7.7270789407410474e+00 -2.8941891786149504e-01 +6.0139510649375197e+01 -5.8228691390069935e+03 -4.2700118087874353e+05 +2.6103302134122666e+07 
-5.9999999999999902e+00 -5.6483358408334172e-01 +7.7270650138664747e+00 -2.9459810082181659e-01 +6.0588971929191345e+01 -5.7745920071721439e+03 -4.2979485713025532e+05 +2.5939187142923240e+07 
-6.0999999999999899e+00 -5.6483368479029017e-01 +7.7270541561869752e+00 -2.9960396345467050e-01 +6.0979406425544312e+01 -5.7261323783122371e+03 -4.3233720033749030e+05 +2.5764404393165458e+07 
-6.1999999999999904e+00 -5.6483378292661324e-01 +7.7270464171470570e+00 -3.0442180596435620e-01 +6.1308131779558963e+01 -5.6777311104058117e+03 -4.3460803962490562e+05 +2.5580075615647085e+07 
-6.2999999999999901e+00 -5.6483387900708681e-01 +7.7270418181258504e+00 -3.0904334963332702e-01 +6.1572822050921182e+01 -5.6295896078626920e+03 -4.3658764969943912e+05 +2.5387357167556494e+07 
-6.3999999999999897e+00 -5.6483397354650677e-01 +7.7270403804907861e+00 -3.1346031173735378e-01 +6.1771151632985735e+01 -5.5819093600561910e+03 -4.3825630725606257e+05 +2.5187405810076099e+07 
-6.4999999999999902e+00 -5.6483406705970785e-01 +7.7270421256167330e+00 -3.1766440410069291e-01 +6.1900794700550520e+01 -5.5348919620045299e+03 -4.3959428778510488e+05 +2.4981378788014542e+07 
-6.5999999999999899e+00 -5.6483416006155296e-01 +7.7270470748669799e+00 -3.2164733423001496e-01 +6.1959425776741206e+01 -5.4887390959820759e+03 -4.4058186891110358e+05 +2.4770433750354435e+07 
-6.6999999999999904e+00 -5.6483425306694024e-01 +7.7270552496071785e+00 -3.2540080394327991e-01 +6.1944719307568342e+01 -5.4436525583408302e+03 -4.4119932786578283e+05 +2.4555728877853066e+07 
-6.7999999999999901e+00 -5.6483434659081821e-01 +7.7270666711964342e+00 -3.2891651132975913e-01 +6.1854349944268982e+01 -5.3998342231921988e+03 -4.4142694320747553e+05 +2.4338422713473111e+07 
-6.8999999999999897e+00 -5.6483444114809334e-01 +7.7270813609955047e+00 -3.3218614834347349e-01 +6.1685992283956224e+01 -5.3574860840127349e+03 -4.4124499325342255e+05 +2.4119674345998950e+07 
-6.9999999999999902e+00 -5.6483453725379429e-01 +7.7270993403597705e+00 -3.3520140076459864e-01 +6.1437321099667813e+01 -5.3168102615630469e+03 -4.4063375749664789e+05 +2.3900643468718950e+07 
-7.0999999999999899e+00 -5.6483463542294898e-01 +7.7271206306398419e+00 -3.3795394957741259e-01 +6.1106011296693246e+01 -5.2780089742131358e+03 -4.3957351628263254e+05 +2.3682490225169253e+07 
-7.1999999999999904e+00 -5.6483473617060553e-01 +7.7271452531861744e+00 -3.4043547199669227e-01 +6.0689737800903529e+01 -5.2412845206296824e+03 -4.3804455023908865e+05 +2.3466375134254985e+07 
-7.2999999999999901e+00 -5.6483484001190176e-01 +7.7271732293447304e+00 -3.4263763687915150e-01 +6.0186175682776522e+01 -5.2068393605754736e+03 -4.3602714097943681e+05 +2.3253459454311721e+07 
-7.3999999999999897e+00 -5.6483494746191898e-01 +7.7272045804579781e+00 -3.4455210727652552e-01 +5.9593000111575819e+01 -5.1748760798619433e+03 -4.3350157080775732e+05 +2.3044905053630896e+07 
-7.4999999999999902e+00 -5.6483505903587650e-01 +7.7272393278689782e+00 -3.4617054252391760e-01 +5.8907886265702899e+01 -5.1455973362068262e+03 -4.3044812228275317e+05 +2.2841874111359730e+07 
-7.5999999999999899e+00 -5.6483517524893634e-01 +7.7272774929139665e+00 -3.4748459247540608e-01 +5.8128509524582022e+01 -5.1192059838980340e+03 -4.2684707926846045e+05 +2.2645529750575624e+07 
-7.6999999999999904e+00 -5.6483529661636644e-01 +7.7273190969253669e+00 -3.4848590359693754e-01 +5.7252545397729108e+01 -5.0959049460064243e+03 -4.2267872657525889e+05 +2.2457035398347769e+07 
-7.7999999999999901e+00 -5.6483542365345851e-01 +7.7273641612361974e+00 -3.4916611395622527e-01 +5.6277669387073423e+01 -5.0758973161067606e+03 -4.1792334913804277e+05 +2.2277555285411291e+07 
-7.8999999999999897e+00 -5.6483555687556430e-01 +7.7274127071737890e+00 -3.4951685584429143e-01 +5.5201557183833124e+01 -5.0593863091178018e+03 -4.1256123321216321e+05 +2.2108254212297328e+07 
-7.9999999999999902e+00 -5.6483569679805257e-01 +7.7274647560300691e+00 -3.4952975633769917e-01 +5.4021885413632425e+01 -5.0465752242313383e+03 -4.0657267064464017e+05 +2.1950297289857723e+07 
-8.0999999999999908e+00 -5.6483584393063913e-01 +7.7275202205724920e+00 -3.4920115571175947e-01 +5.2739228179714821e+01 -5.0375997681537874e+03 -3.9995483184699877e+05 +2.1804647236516666e+07 
-8.1999999999999904e+00 -5.6483599873474089e-01 +7.7275786562771760e+00 -3.4854236973953279e-01 +5.1363832262160990e+01 -5.0324163531317718e+03 -3.9276176809531567e+05 +2.1671933167236399e+07 
-8.2999999999999901e+00 -5.6483616165535677e-01 +7.7276395448921269e+00 -3.4756770354026795e-01 +4.9907972940276899e+01 -5.0309535453431399e+03 -3.8505959294793120e+05 +2.1552787186739068e+07 
-8.3999999999999897e+00 -5.6483633313724624e-01 +7.7277023681748620e+00 -3.4629147784589442e-01 +4.8383925205517635e+01 -5.0331396515570905e+03 -3.7691441875008022e+05 +2.1447840292957466e+07 
-8.4999999999999893e+00 -5.6483651362522214e-01 +7.7277666078997385e+00 -3.4472801725683633e-01 +4.6803963575094173e+01 -5.0389029355739758e+03 -3.6839235563875863e+05 +2.1357723386393227e+07 
-8.5999999999999908e+00 -5.6483670356378790e-01 +7.7278317458439671e+00 -3.4289166765747403e-01 +4.5180362474315800e+01 -5.0481712911543400e+03 -3.5955951371016650e+05 +2.1283065727916248e+07 
-8.6999999999999904e+00 -5.6483690339747739e-01 +7.7278972638041434e+00 -3.4079678135570496e-01 +4.3525395777260485e+01 -5.0608725259987559e+03 -3.5048200042473903e+05 +2.1224496295533806e+07 
-8.7999999999999794e+00 -5.6483711357061295e-01 +7.7279626435852045e+00 -3.3845772328785845e-01 +4.1851337114148357e+01 -5.0769342403718447e+03 -3.4122592236990650e+05 +2.1182643196726494e+07 
-8.8999999999999808e+00 -5.6483733452734131e-01 +7.7280273670088864e+00 -3.3588887576539911e-01 +4.0170459625112912e+01 -5.0962837471756002e+03 -3.3185738384089113e+05 +2.1158133318797588e+07 
-8.9999999999999805e+00 -5.6483756671179441e-01 +7.7280909159053301e+00 -3.3310463001554214e-01 +3.8495036218015983e+01 -5.1188482227655077e+03 -3.2244248839432182e+05 +2.1151593018560514e+07 
-9.0999999999999801e+00 -5.6483781056785420e-01 +7.7281527721202350e+00 -3.3011939374485161e-01 +3.6837339358790750e+01 -5.1445545723042160e+03 -3.1304733764569683e+05 +2.1163647509083286e+07 
-9.1999999999999797e+00 -5.6483806653923008e-01 +7.7282124175147855e+00 -3.2694759231887693e-01 +3.5209641047853566e+01 -5.1733294032192916e+03 -3.0373803106159985e+05 +2.1194920723142017e+07 
-9.2999999999999794e+00 -5.6483833506962644e-01 +7.7282693339619826e+00 -3.2360365756357273e-01 +3.3624212970852902e+01 -5.2050992445337361e+03 -2.9458066698533448e+05 +2.1246036373951882e+07 
-9.3999999999999808e+00 -5.6483861660245915e-01 +7.7283230033541823e+00 -3.2010204297276273e-01 +3.2093326241830418e+01 -5.2397902517169277e+03 -2.8564134105162625e+05 +2.1317616537480783e+07 
-9.4999999999999805e+00 -5.6483891158098742e-01 +7.7283729075927132e+00 -3.1645721700578583e-01 +3.0629251727752930e+01 -5.2773283395897433e+03 -2.7698614814356796e+05 +2.1410282298166513e+07 
-9.5999999999999801e+00 -5.6483922044840107e-01 +7.7284185285975902e+00 -3.1268366276616977e-01 +2.9244259757711511e+01 -5.3176391906160816e+03 -2.6868118070236937e+05 +2.1524653798479483e+07 
-9.6999999999999797e+00 -5.6483954364760491e-01 +7.7284593483066644e+00 -3.0879588013753795e-01 +2.7950620147732128e+01 -5.3606482120761912e+03 -2.6079252888323533e+05 +2.1661350026697546e+07 
-9.7999999999999794e+00 -5.6483988162145593e-01 +7.7284948486689782e+00 -3.0480838492098367e-01 +2.6760602402946976e+01 -5.4062805522320905e+03 -2.5338628177179588e+05 +2.1820988897144951e+07 
-9.8999999999999808e+00 -5.6484023481251733e-01 +7.7285245116579624e+00 -3.0073571315749276e-01 +2.5686475320314067e+01 -5.4544610274306970e+03 -2.4652852504760720e+05 +2.2004186926957924e+07 
-9.9999999999999805e+00 -5.6484060366314304e-01 +7.7285478193637456e+00 -2.9659239637657903e-01 +2.4740506537908203e+01 -5.5051144966845195e+03 -2.4028534456788533e+05 +2.2211560502549116e+07 
-1.0100000000000000e+01 -5.6484098839009089e-01 +7.7285644335319699e+00 -2.9238424888732373e-01 +2.3931588791933233e+01 -5.5582792912718669e+03 -2.3470736361136538e+05 +2.2443836111059465e+07 
