# field on trajectory
# s[mm] rx[mm] ry[mm] rz[mm] bx[T] by[T] bz[T]
0.0000000000000000e+00 +8.1649999999999991e+00 +0.0000000000000000e+00 +0.0000000000000000e+00 -2.8560423068174034e-02 -5.3690541964946037e-01 +5.3223454712026438e-03
-1.0000000000000001e-01 +8.1649997168816881e+00 +0.0000000000000000e+00 -9.9999999999465614e-02 -2.8560444973236222e-02 -5.3690547311104475e-01 +5.3222797485737872e-03
-2.0000000000000001e-01 +8.1649988675267213e+00 +0.0000000000000000e+00 -1.9999999999572499e-01 -2.8560465966980704e-02 -5.3690550956757244e-01 +5.3222143706533184e-03
-3.0000000000000004e-01 +8.1649974519350597e+00 +0.0000000000000000e+00 -2.9999999998557192e-01 -2.8560486233449780e-02 -5.3690553056517043e-01 +5.3221493051452866e-03
-4.0000000000000002e-01 +8.1649954701066800e+00 +0.0000000000000000e+00 -3.9999999996580010e-01 -2.8560505956677799e-02 -5.3690553764999005e-01 +5.3220845197529364e-03
-5.0000000000000000e-01 +8.1649929220415753e+00 +0.0000000000000000e+00 -4.9999999993320332e-01 -2.8560525320691720e-02 -5.3690553236820648e-01 +5.3220199821787635e-03
-5.9999999999999998e-01 +8.1649898077397527e+00 +0.0000000000000000e+00 -5.9999999988457531e-01 -2.8560544509511721e-02 -5.3690551626601679e-01 +5.3219556601245485e-03
-6.9999999999999996e-01 +8.1649861272012281e+00 +0.0000000000000000e+00 -6.9999999981670991e-01 -2.8560563707151806e-02 -5.3690549088963968e-01 +5.3218915212914133e-03
-7.9999999999999993e-01 +8.1649818804260264e+00 +0.0000000000000000e+00 -7.9999999972640079e-01 -2.8560583097620395e-02 -5.3690545778531396e-01 +5.3218275333798658e-03
-8.9999999999999991e-01 +8.1649770674141848e+00 +0.0000000000000000e+00 -8.9999999961044175e-01 -2.8560602864920941e-02 -5.3690541849929729e-01 +5.3217636640898519e-03
-9.9999999999999989e-01 +8.1649716881657444e+00 +0.0000000000000000e+00 -9.9999999946562657e-01 -2.8560623193052477e-02 -5.3690537457786458e-01 +5.3216998811207918e-03
-1.0999999999999999e+00 +8.1649657426807511e+00 +0.0000000000000000e+00 -1.0999999992887490e+00 -2.8560644266010238e-02 -5.3690532756730769e-01 +5.3216361521716375e-03
-1.2000000000000000e+00 +8.1649592309592549e+00 +0.0000000000000000e+00 -1.1999999990766028e+00 -2.8560666267786295e-02 -5.3690527901393348e-01 +5.3215724449409176e-03
-1.3000000000000000e+00 +8.1649521530013072e+00 +0.0000000000000000e+00 -1.2999999988259818e+00 -2.8560689382370077e-02 -5.3690523046406258e-01 +5.3215087271267850e-03
-1.4000000000000001e+00 +8.1649445088069577e+00 +0.0000000000000000e+00 -1.3999999985336797e+00 -2.8560713793749026e-02 -5.3690518346402927e-01 +5.3214449664270580e-03
-1.5000000000000002e+00 +8.1649362983762579e+00 +0.0000000000000000e+00 -1.4999999981964902e+00 -2.8560739685909168e-02 -5.3690513956017838e-01 +5.3213811305392765e-03
-1.6000000000000003e+00 +8.1649275217092541e+00 +0.0000000000000000e+00 -1.5999999978112072e+00 -2.8560767242835704e-02 -5.3690510029886640e-01 +5.3213171871607469e-03
-1.7000000000000004e+00 +8.1649181788059870e+00 +0.0000000000000000e+00 -1.6999999973746243e+00 -2.8560796648513641e-02 -5.3690506722645848e-01 +5.3212531039885857e-03
-1.8000000000000005e+00 +8.1649082696664923e+00 +0.0000000000000000e+00 -1.7999999968835354e+00 -2.8560828086928315e-02 -5.3690504188932753e-01 +5.3211888487197691e-03
-1.9000000000000006e+00 +8.1648977942907965e+00 +0.0000000000000000e+00 -1.8999999963347343e+00 -2.8560861742066086e-02 -5.3690502583385413e-01 +5.3211243890511906e-03
-2.0000000000000004e+00 +8.1648867526789175e+00 +0.0000000000000000e+00 -1.9999999957250147e+00 -2.8560897797914830e-02 -5.3690502060642420e-01 +5.3210596926796840e-03
-2.1000000000000005e+00 +8.1648751448308605e+00 +0.0000000000000000e+00 -2.0999999950511703e+00 -2.8560936365636905e-02 -5.3690502761896097e-01 +5.3209947454079323e-03
-2.2000000000000006e+00 +8.1648629707466167e+00 +0.0000000000000000e+00 -2.1999999943099953e+00 -2.8560977265085507e-02 -5.3690504774551662e-01 +5.3209296054622856e-03
-2.3000000000000007e+00 +8.1648502304261683e+00 +0.0000000000000000e+00 -2.2999999934982829e+00 -2.8561020243286776e-02 -5.3690508172566243e-01 +5.3208643491758347e-03
-2.4000000000000008e+00 +8.1648369238694780e+00 +0.0000000000000000e+00 -2.3999999926128273e+00 -2.8561065047267402e-02 -5.3690513029894904e-01 +5.3207990528827600e-03
-2.5000000000000009e+00 +8.1648230510764943e+00 +0.0000000000000000e+00 -2.4999999916504216e+00 -2.8561111424055055e-02 -5.3690519420490601e-01 +5.3207337929184872e-03
-2.6000000000000010e+00 +8.1648086120471515e+00 +0.0000000000000000e+00 -2.5999999906078601e+00 -2.8561159120678539e-02 -5.3690527418303624e-01 +5.3206686456198264e-03
-2.7000000000000011e+00 +8.1647936067813660e+00 +0.0000000000000000e+00 -2.6999999894819364e+00 -2.8561207884168112e-02 -5.3690537097281466e-01 +5.3206036873251128e-03
-2.8000000000000012e+00 +8.1647780352790349e+00 +0.0000000000000000e+00 -2.7999999882694446e+00 -2.8561257461555765e-02 -5.3690548531368332e-01 +5.3205389943743507e-03
-2.9000000000000012e+00 +8.1647618975400391e+00 +0.0000000000000000e+00 -2.8999999869671780e+00 -2.8561307599875393e-02 -5.3690561794504910e-01 +5.3204746431093526e-03
-3.0000000000000013e+00 +8.1647451935642383e+00 +0.0000000000000000e+00 -2.9999999855719302e+00 -2.8561358046163186e-02 -5.3690576960628122e-01 +5.3204107098738873e-03
-3.1000000000000014e+00 +8.1647279233514727e+00 +0.0000000000000000e+00 -3.0999999840804953e+00 -2.8561408547457808e-02 -5.3690594103670586e-01 +5.3203472710138238e-03
-3.2000000000000015e+00 +8.1647100869015627e+00 +0.0000000000000000e+00 -3.1999999824896670e+00 -2.8561458850800685e-02 -5.3690613297560497e-01 +5.3202844028772634e-03
-3.3000000000000016e+00 +8.1646916842143078e+00 +0.0000000000000000e+00 -3.2999999807962390e+00 -2.8561508703236305e-02 -5.3690634616221256e-01 +5.3202221818146956e-03
-3.4000000000000017e+00 +8.1646727152894822e+00 +0.0000000000000000e+00 -3.3999999789970050e+00 -2.8561557851812407e-02 -5.3690658133571056e-01 +5.3201606841791283e-03
-3.5000000000000018e+00 +8.1646531801268374e+00 +0.0000000000000000e+00 -3.4999999770887587e+00 -2.8561606043580344e-02 -5.3690683923522653e-01 +5.3200999863262360e-03
-3.6000000000000019e+00 +8.1646330787261032e+00 +0.0000000000000000e+00 -3.5999999750682936e+00 -2.8561653025595258e-02 -5.3690712059983092e-01 +5.3200401646145094e-03
-3.7000000000000020e+00 +8.1646124110869831e+00 +0.0000000000000000e+00 -3.6999999729324036e+00 -2.8561698544916424e-02 -5.3690742616853226e-01 +5.3199812954053778e-03
-3.8000000000000020e+00 +8.1645911772091555e+00 +0.0000000000000000e+00 -3.7999999706778822e+00 -2.8561742348607425e-02 -5.3690775668027502e-01 +5.3199234550633722e-03
-3.9000000000000021e+00 +8.1645693770922723e+00 +0.0000000000000000e+00 -3.8999999683015232e+00 -2.8561784183736536e-02 -5.3690811287393647e-01 +5.3198667199562599e-03
-4.0000000000000018e+00 +8.1645470107359586e+00 +0.0000000000000000e+00 -3.9999999658001202e+00 -2.8561823797376883e-02 -5.3690849548832309e-01 +5.3198111664551810e-03
-4.1000000000000014e+00 +8.1645240781398130e+00 +0.0000000000000000e+00 -4.0999999631704664e+00 -2.8561861040354675e-02 -5.3690890475147912e-01 +5.3197568397411249e-03
-4.2000000000000011e+00 +8.1645005793034038e+00 +0.0000000000000000e+00 -4.1999999604093565e+00 -2.8561896178492370e-02 -5.3690933884865411e-01 +5.3197036602228654e-03
-4.3000000000000007e+00 +8.1644765142262727e+00 +0.0000000000000000e+00 -4.2999999575135828e+00 -2.8561929581362593e-02 -5.3690979545443562e-01 +5.3196515171162325e-03
-4.4000000000000004e+00 +8.1644518829079402e+00 +0.0000000000000000e+00 -4.3999999544799397e+00 -2.8561961618539793e-02 -5.3691027224344956e-01 +5.3196002996375447e-03
-4.5000000000000000e+00 +8.1644266853479053e+00 +0.0000000000000000e+00 -4.4999999513052211e+00 -2.8561992659600216e-02 -5.3691076689036554e-01 +5.3195498970035658e-03
-4.5999999999999996e+00 +8.1644009215456457e+00 +0.0000000000000000e+00 -4.5999999479862197e+00 -2.8562023074121989e-02 -5.3691127706989916e-01 +5.3195001984314332e-03
-4.6999999999999993e+00 +8.1643745915006267e+00 +0.0000000000000000e+00 -4.6999999445197300e+00 -2.8562053231685113e-02 -5.3691180045681575e-01 +5.3194510931386376e-03
-4.7999999999999989e+00 +8.1643476952122960e+00 +0.0000000000000000e+00 -4.7999999409025449e+00 -2.8562083501871501e-02 -5.3691233472593580e-01 +5.3194024703429555e-03
-4.8999999999999986e+00 +8.1643202326800903e+00 +0.0000000000000000e+00 -4.8999999371314580e+00 -2.8562114254265046e-02 -5.3691287755213501e-01 +5.3193542192624000e-03
-4.9999999999999982e+00 +8.1642922039034396e+00 +0.0000000000000000e+00 -4.9999999332032630e+00 -2.8562145858451619e-02 -5.3691342661035169e-01 +5.3193062291151862e-03
-5.0999999999999979e+00 +8.1642636088817646e+00 +0.0000000000000000e+00 -5.0999999291147526e+00 -2.8562178684019088e-02 -5.3691397957558706e-01 +5.3192583891196526e-03
-5.1999999999999975e+00 +8.1642344476144846e+00 +0.0000000000000000e+00 -5.1999999248627216e+00 -2.8562213100557381e-02 -5.3691453412291190e-01 +5.3192105884942477e-03
-5.2999999999999972e+00 +8.1642047201010151e+00 +0.0000000000000000e+00 -5.2999999204439625e+00 -2.8562249477658529e-02 -5.3691508792746734e-01 +5.3191627164574495e-03
-5.3999999999999968e+00 +8.1641744263407734e+00 +0.0000000000000000e+00 -5.3999999158552692e+00 -2.8562288184916622e-02 -5.3691563866447001e-01 +5.3191146622277464e-03
-5.4999999999999964e+00 +8.1641435663331805e+00 +0.0000000000000000e+00 -5.4999999110934352e+00 -2.8562329591927917e-02 -5.3691618400921604e-01 +5.3190663150235497e-03
-5.5999999999999961e+00 +8.1641121400776608e+00 +0.0000000000000000e+00 -5.5999999061552534e+00 -2.8562374068290854e-02 -5.3691672163708315e-01 +5.3190175640631847e-03
-5.6999999999999957e+00 +8.1640801475736495e+00 +0.0000000000000000e+00 -5.6999999010375184e+00 -2.8562421983606069e-02 -5.3691724922353568e-01 +5.3189682985648121e-03
-5.7999999999999954e+00 +8.1640475888205923e+00 +0.0000000000000000e+00 -5.7999998957370229e+00 -2.8562473707476416e-02 -5.3691776444412664e-01 +5.3189184077463989e-03
-5.8999999999999950e+00 +8.1640144638179457e+00 +0.0000000000000000e+00 -5.8999998902505606e+00 -2.8562529609507004e-02 -5.3691826497450368e-01 +5.3188677808256530e-03
-5.9999999999999947e+00 +8.1639807725651838e+00 +0.0000000000000000e+00 -5.9999998845749243e+00 -2.8562590059305261e-02 -5.3691874849040977e-01 +5.3188163070199863e-03
-6.0999999999999943e+00 +8.1639465150617987e+00 +0.0000000000000000e+00 -6.0999998787069076e+00 -2.8562655271636098e-02 -5.3691921326221204e-01 +5.3187639223498725e-03
-6.1999999999999940e+00 +8.1639116913073000e+00 +0.0000000000000000e+00 -6.1999998726433043e+00 -2.8562724841876649e-02 -5.3691965993843715e-01 +5.3187107500476194e-03
-6.2999999999999936e+00 +8.1638763013012170e+00 +0.0000000000000000e+00 -6.2999998663809080e+00 -2.8562798210536137e-02 -5.3692008976212890e-01 +5.3186569601430429e-03
-6.3999999999999932e+00 +8.1638403450430985e+00 +0.0000000000000000e+00 -6.3999998599165115e+00 -2.8562874818098577e-02 -5.3692050397630842e-01 +5.3186027226589296e-03
-6.4999999999999929e+00 +8.1638038225325094e+00 +0.0000000000000000e+00 -6.4999998532469085e+00 -2.8562954105021767e-02 -5.3692090382397317e-01 +5.3185482076107326e-03
-6.5999999999999925e+00 +8.1637667337690285e+00 +0.0000000000000000e+00 -6.5999998463688927e+00 -2.8563035511736265e-02 -5.3692129054809579e-01 +5.3184935850062679e-03
-6.6999999999999922e+00 +8.1637290787522474e+00 +0.0000000000000000e+00 -6.6999998392792577e+00 -2.8563118478644345e-02 -5.3692166539162145e-01 +5.3184390248454195e-03
-6.7999999999999918e+00 +8.1636908574817735e+00 +0.0000000000000000e+00 -6.7999998319747963e+00 -2.8563202446119009e-02 -5.3692202959746804e-01 +5.3183846971198425e-03
-6.8999999999999915e+00 +8.1636520699572230e+00 +0.0000000000000000e+00 -6.8999998244523022e+00 -2.8563286854502878e-02 -5.3692238440852258e-01 +5.3183307718126403e-03
-6.9999999999999911e+00 +8.1636127161782248e+00 +0.0000000000000000e+00 -6.9999998167085691e+00 -2.8563371144107289e-02 -5.3692273106764143e-01 +5.3182774188980878e-03
-7.0999999999999908e+00 +8.1635727961444129e+00 +0.0000000000000000e+00 -7.0999998087403897e+00 -2.8563454755211170e-02 -5.3692307081764812e-01 +5.3182248083413208e-03
-7.1999999999999904e+00 +8.1635323098554302e+00 +0.0000000000000000e+00 -7.1999998005445578e+00 -2.8563537128060014e-02 -5.3692340490133195e-01 +5.3181731100980251e-03
-7.2999999999999901e+00 +8.1634912573109251e+00 +0.0000000000000000e+00 -7.2999997921178670e+00 -2.8563617702864957e-02 -5.3692373456144582e-01 +5.3181224941141513e-03
-7.3999999999999897e+00 +8.1634496385105528e+00 +0.0000000000000000e+00 -7.3999997834571101e+00 -2.8563695919801617e-02 -5.3692406104070567e-01 +5.3180731303256014e-03
-7.4999999999999893e+00 +8.1634074534539689e+00 +0.0000000000000000e+00 -7.4999997745590807e+00 -2.8563771219009174e-02 -5.3692438558178912e-01 +5.3180251886579396e-03
-7.5999999999999890e+00 +8.1633647021408322e+00 +0.0000000000000000e+00 -7.5999997654205727e+00 -2.8563843040589270e-02 -5.3692470942733217e-01 +5.3179788390260605e-03
-7.6999999999999886e+00 +8.1633213845708035e+00 +0.0000000000000000e+00 -7.6999997560383795e+00 -2.8563910824605042e-02 -5.3692503381992962e-01 +5.3179342513339344e-03
-7.7999999999999883e+00 +8.1632775007435399e+00 +0.0000000000000000e+00 -7.7999997464092941e+00 -2.8563974011080084e-02 -5.3692536000213309e-01 +5.3178915954742627e-03
-7.8999999999999879e+00 +8.1632330506587003e+00 +0.0000000000000000e+00 -7.8999997365301100e+00 -2.8564032039997383e-02 -5.3692568921644868e-01 +5.3178510413281980e-03
-7.9999999999999876e+00 +8.1631880343159384e+00 +0.0000000000000000e+00 -7.9999997263976201e+00 -2.8564084351298341e-02 -5.3692602270533618e-01 +5.3178127587650385e-03
-8.0999999999999872e+00 +8.1631424517149043e+00 +0.0000000000000000e+00 -8.0999997160086181e+00 -2.8564130521759889e-02 -5.3692636163016394e-01 +5.3177768782172279e-03
-8.1999999999999869e+00 +8.1630963028552426e+00 +0.0000000000000000e+00 -8.1999997053598985e+00 -2.8564170675661162e-02 -5.3692670682807275e-01 +5.3177433724123707e-03
-8.2999999999999865e+00 +8.1630495877365892e+00 +0.0000000000000000e+00 -8.2999996944482533e+00 -2.8564205074197570e-02 -5.3692705905511162e-01 +5.3177121746613900e-03
-8.3999999999999861e+00 +8.1630023063585746e+00 +0.0000000000000000e+00 -8.3999996832704760e+00 -2.8564233978609091e-02 -5.3692741906728014e-01 +5.3176832182861714e-03
-8.4999999999999858e+00 +8.1629544587208205e+00 +0.0000000000000000e+00 -8.4999996718233604e+00 -2.8564257650181928e-02 -5.3692778762052773e-01 +5.3176564366199637e-03
-8.5999999999999854e+00 +8.1629060448229396e+00 +0.0000000000000000e+00 -8.5999996601036983e+00 -2.8564276350250117e-02 -5.3692816547075284e-01 +5.3176317630077782e-03
-8.6999999999999851e+00 +8.1628570646645358e+00 +0.0000000000000000e+00 -8.6999996481082853e+00 -2.8564290340197189e-02 -5.3692855337379986e-01 +5.3176091308067977e-03
-8.7999999999999847e+00 +8.1628075182452005e+00 +0.0000000000000000e+00 -8.7999996358339132e+00 -2.8564299881457766e-02 -5.3692895208545977e-01 +5.3175884733867914e-03
-8.8999999999999844e+00 +8.1627574055645145e+00 +0.0000000000000000e+00 -8.8999996232773757e+00 -2.8564305235519203e-02 -5.3692936236146704e-01 +5.3175697241305050e-03
-8.9999999999999840e+00 +8.1627067266220479e+00 +0.0000000000000000e+00 -8.9999996104354647e+00 -2.8564306663923233e-02 -5.3692978495749943e-01 +5.3175528164340780e-03
-9.0999999999999837e+00 +8.1626554814173549e+00 +0.0000000000000000e+00 -9.0999995973049757e+00 -2.8564304428267552e-02 -5.3693022062917595e-01 +5.3175376837074385e-03
-9.1999999999999833e+00 +8.1626036699499789e+00 +0.0000000000000000e+00 -9.1999995838827004e+00 -2.8564298790207516e-02 -5.3693067013205498e-01 +5.3175242593747228e-03
-9.2999999999999829e+00 +8.1625512922194474e+00 +0.0000000000000000e+00 -9.2999995701654328e+00 -2.8564290011457723e-02 -5.3693113422163419e-01 +5.3175124768746716e-03
-9.3999999999999826e+00 +8.1624983482252720e+00 +0.0000000000000000e+00 -9.3999995561499663e+00 -2.8564278353793656e-02 -5.3693161365334841e-01 +5.3175022696610339e-03
-9.4999999999999822e+00 +8.1624448379669499e+00 +0.0000000000000000e+00 -9.4999995418330929e+00 -2.8564264079053332e-02 -5.3693210918256740e-01 +5.3174935712029837e-03
-9.5999999999999819e+00 +8.1623907614439588e+00 +0.0000000000000000e+00 -9.5999995272116063e+00 -2.8564247449138866e-02 -5.3693262156459587e-01 +5.3174863149855088e-03
-9.6999999999999815e+00 +8.1623361186557606e+00 +0.0000000000000000e+00 -9.6999995122823002e+00 -2.8564228726018225e-02 -5.3693315155467114e-01 +5.3174804345098321e-03
-9.7999999999999812e+00 +8.1622809096017974e+00 +0.0000000000000000e+00 -9.7999994970419664e+00 -2.8564208171726745e-02 -5.3693369990796236e-01 +5.3174758632938187e-03
-9.8999999999999808e+00 +8.1622251342814920e+00 +0.0000000000000000e+00 -9.8999994814874004e+00 -2.8564186048368804e-02 -5.3693426737956829e-01 +5.3174725348723566e-03
-9.9999999999999805e+00 +8.1621687926942492e+00 +0.0000000000000000e+00 -9.9999994656153941e+00 -2.8564162618119442e-02 -5.3693485472451674e-01 +5.3174703827977973e-03
-1.0099999999999980e+01 +8.1621118848394509e+00 +0.0000000000000000e+00 -1.0099999449422739e+01 -2.8564138072379563e-02 -5.3693546230260980e-01 +5.3174693515626349e-03
-1.0199999999999980e+01 +8.1620544107164577e+00 +0.0000000000000000e+00 -1.0199999432906230e+01 -2.8564112319206456e-02 -5.3693608889298583e-01 +5.3174694293610016e-03
-1.0299999999999979e+01 +8.1619963703246121e+00 +0.0000000000000000e+00 -1.0299999416062660e+01 -2.8564085195809198e-02 -5.3693673287968391e-01 +5.3174706153102675e-03
-1.0399999999999979e+01 +8.1619377636632358e+00 +0.0000000000000000e+00 -1.0399999398888820e+01 -2.8564056539390342e-02 -5.3693739264682117e-01 +5.3174729085266872e-03
-1.0499999999999979e+01 +8.1618785907316358e+00 +0.0000000000000000e+00 -1.0499999381381505e+01 -2.8564026187145534e-02 -5.3693806657859644e-01 +5.3174763081253488e-03
-1.0599999999999978e+01 +8.1618188515291017e+00 +0.0000000000000000e+00 -1.0599999363537508e+01 -2.8563993976263198e-02 -5.3693875305929273e-01 +5.3174808132200871e-03
-1.0699999999999978e+01 +8.1617585460549140e+00 +0.0000000000000000e+00 -1.0699999345353621e+01 -2.8563959743924155e-02 -5.3693945047327929e-01 +5.3174864229234130e-03
-1.0799999999999978e+01 +8.1616976743083374e+00 +0.0000000000000000e+00 -1.0799999326826638e+01 -2.8563923327301215e-02 -5.3694015720501342e-01 +5.3174931363464406e-03
-1.0899999999999977e+01 +8.1616362362886292e+00 +0.0000000000000000e+00 -1.0899999307953351e+01 -2.8563884563558871e-02 -5.3694087163904403e-01 +5.3175009525987995e-03
-1.0999999999999977e+01 +8.1615742319950382e+00 +0.0000000000000000e+00 -1.0999999288730553e+01 -2.8563843289852855e-02 -5.3694159216001236e-01 +5.3175098707885678e-03
-1.1099999999999977e+01 +8.1615116614268057e+00 +0.0000000000000000e+00 -1.1099999269155038e+01 -2.8563799343329841e-02 -5.3694231715265539e-01 +5.3175198900221980e-03
-1.1199999999999976e+01 +8.1614485245831716e+00 +0.0000000000000000e+00 -1.1199999249223598e+01 -2.8563752561127052e-02 -5.3694304500180756e-01 +5.3175310094044463e-03
-1.1299999999999976e+01 +8.1613848214633684e+00 +0.0000000000000000e+00 -1.1299999228933025e+01 -2.8563702780371875e-02 -5.3694377409240379e-01 +5.3175432280382802e-03
-1.1399999999999975e+01 +8.1613205520666305e+00 +0.0000000000000000e+00 -1.1399999208280112e+01 -2.8563649838181493e-02 -5.3694450280948114e-01 +5.3175565450248180e-03
-1.1499999999999975e+01 +8.1612557163921906e+00 +0.0000000000000000e+00 -1.1499999187261654e+01 -2.8563593571662566e-02 -5.3694522953818125e-01 +5.3175709594632439e-03
-1.1599999999999975e+01 +8.1611903144392848e+00 +0.0000000000000000e+00 -1.1599999165874442e+01 -2.8563533817910769e-02 -5.3694595266375233e-01 +5.3175864704507496e-03
-1.1699999999999974e+01 +8.1611243462071528e+00 +0.0000000000000000e+00 -1.1699999144115267e+01 -2.8563470414010528e-02 -5.3694667057155221e-01 +5.3176030770824270e-03
