# multipoles
# s[mm] polynom_b[n=0][T/m^n] polynom_b[n=1][T/m^n] polynom_b[n=2][T/m^n] polynom_b[n=3][T/m^n] polynom_b[n=4][T/m^n] polynom_b[n=5][T/m^n] polynom_b[n=6][T/m^n] 
+0.0000000000000000e+00 -5.6566417174522665e-01 +7.7491077546143075e+00 +6.0906367552414992e-02 -4.7103728697036161e+01 +1.1405566635011980e+03 +1.8485702251539638e+04 -1.3234802011147143e+07 
+1.0000000000000001e-01 -5.6566401467271565e-01 +7.7491059064120078e+00 +5.9745817355274004e-02 -4.7382949275472946e+01 +1.1962492112077134e+03 +2.0636804602307337e+04 -1.3618993076703759e+07 
+2.0000000000000001e-01 -5.6566386121635204e-01 +7.7491027730504518e+00 +5.8453312981844557e-02 -4.7629025120081700e+01 +1.2551332865612892e+03 +2.2708698557526997e+04 -1.4020454482871443e+07 
+3.0000000000000004e-01 -5.6566371152640649e-01 +7.7490983998265275e+00 +5.7042179877416090e-02 -4.7842903466203701e+01 +1.3168242056488705e+03 +2.4699404413405940e+04 -1.4436871633421727e+07 
+4.0000000000000002e-01 -5.6566356575317456e-01 +7.7490928320364079e+00 +5.5525747503796748e-02 -4.8025531536929876e+01 +1.3809371991654891e+03 +2.6606942429409362e+04 -1.4865929504493274e+07 
+5.0000000000000000e-01 -5.6566342404691516e-01 +7.7490861149795167e+00 +5.3917340911787418e-02 -4.8177856649953462e+01 +1.4470875743734089e+03 +2.8429333419566818e+04 -1.5305313416592166e+07 
+5.9999999999999998e-01 -5.6566328655792619e-01 +7.7490782939493217e+00 +5.2230289736338795e-02 -4.8300825953722530e+01 +1.5148905518836934e+03 +3.0164597222630102e+04 -1.5752708281901157e+07 
+6.9999999999999996e-01 -5.6566315343646933e-01 +7.7490694142473879e+00 +5.0477919767756903e-02 -4.8395386828974978e+01 +1.5839614171478590e+03 +3.1810755004539154e+04 -1.6205799299319413e+07 
+7.9999999999999993e-01 -5.6566302483282516e-01 +7.7490595211722031e+00 +4.8673559038058430e-02 -4.8462486570534551e+01 +1.6539154105848670e+03 +3.3365827425692143e+04 -1.6662271446247164e+07 
+8.9999999999999991e-01 -5.6566290089725757e-01 +7.7490486600209243e+00 +4.6830533780297126e-02 -4.8503072431770129e+01 +1.7243678047001349e+03 +3.4827834864695964e+04 -1.7119809848047514e+07 
+9.9999999999999989e-01 -5.6566278178003737e-01 +7.7490368760940669e+00 +4.4962170986826970e-02 -4.8518091755086999e+01 +1.7949338547384659e+03 +3.6194798162145809e+04 -1.7576099538312353e+07 
+1.0999999999999999e+00 -5.6566266763141604e-01 +7.7490242146909072e+00 +4.3081795059649743e-02 -4.8508491843741488e+01 +1.8652288661035734e+03 +3.7464737873360609e+04 -1.8028825790561114e+07 
+1.2000000000000000e+00 -5.6566255860167203e-01 +7.7490107211151971e+00 +4.1202734210558485e-02 -4.8475220123772026e+01 +1.9348680695547246e+03 +3.8635675200330079e+04 -1.8475673516784348e+07 
+1.3000000000000000e+00 -5.6566245484103417e-01 +7.7489964406663052e+00 +3.9338310141529977e-02 -4.8419223881451941e+01 +2.0034668201142028e+03 +3.9705630430566278e+04 -1.8914328217998721e+07 
+1.4000000000000001e+00 -5.6566235649978758e-01 +7.7489814186496133e+00 +3.7501851267830365e-02 -4.8341450567504282e+01 +2.0706403478142465e+03 +4.0672624716712395e+04 -1.9342474804914303e+07 
+1.5000000000000002e+00 -5.6566226372816064e-01 +7.7489657003691770e+00 +3.5706679498439892e-02 -4.8242847587085720e+01 +2.1360040049498798e+03 +4.1534678846930270e+04 -1.9757798763801977e+07 
+1.6000000000000003e+00 -5.6566217667641261e-01 +7.7489493311290438e+00 +3.3966119404176841e-02 -4.8124362321254139e+01 +2.1991731014563702e+03 +4.2289813316926658e+04 -2.0157985397162583e+07 
+1.7000000000000004e+00 -5.6566209549477808e-01 +7.7489323562385479e+00 +3.2293493247649518e-02 -4.7986942296528071e+01 +2.2597629880537870e+03 +4.2936049354810537e+04 -2.0540720189536318e+07 
+1.8000000000000005e+00 -5.6566202033348956e-01 +7.7489148210029120e+00 +3.0702122139731055e-02 -4.7831534898580152e+01 +2.3173890454920288e+03 +4.3471407209387966e+04 -2.0903688784848750e+07 
+1.9000000000000006e+00 -5.6566195134280095e-01 +7.7488967707340572e+00 +2.9205329929307598e-02 -4.7659087685104893e+01 +2.3716666063225284e+03 +4.3893907952095185e+04 -2.1244576604116719e+07 
+2.0000000000000004e+00 -5.6566188867292599e-01 +7.7488782507417167e+00 +2.7816434771183781e-02 -4.7470548140030161e+01 +2.4222111180495303e+03 +4.4201572089070709e+04 -2.1561069626910426e+07 
+2.1000000000000005e+00 -5.6566183237795564e-01 +7.7488593225187516e+00 +2.6546287545216214e-02 -4.7267043888780975e+01 +2.4687090625642918e+03 +4.4393721199119143e+04 -2.1851321165435378e+07 
+2.2000000000000006e+00 -5.6566178212858842e-01 +7.7488401126733244e+00 +2.5395802447482366e-02 -4.7050492118606734e+01 +2.5111305252311095e+03 +4.4475440175331038e+04 -2.2115357182754636e+07 
+2.3000000000000007e+00 -5.6566173749993331e-01 +7.7488207641749485e+00 +2.4363392180758957e-02 -4.6823024160984041e+01 +2.5495164090517746e+03 +4.4453392569372510e+04 -2.2353673035167046e+07 
+2.4000000000000008e+00 -5.6566169806713673e-01 +7.7488014200033719e+00 +2.3447472583218422e-02 -4.6586771637667823e+01 +2.5839075704203556e+03 +4.4334243604098046e+04 -2.2566763887382798e+07 
+2.5000000000000009e+00 -5.6566166340533108e-01 +7.7487822231362697e+00 +2.2646457058488015e-02 -4.6343866095978413e+01 +2.6143449184239248e+03 +4.4124658051131286e+04 -2.2755125166650571e+07 
+2.6000000000000010e+00 -5.6566163308966266e-01 +7.7487633165466923e+00 +2.1958759913553973e-02 -4.6096438920064408e+01 +2.6408693504879579e+03 +4.3831299676938273e+04 -2.2919252251531210e+07 
+2.7000000000000011e+00 -5.6566160669527388e-01 +7.7487448432157597e+00 +2.1382793724258765e-02 -4.5846621724416444e+01 +2.6635218092003197e+03 +4.3460833605726810e+04 -2.3059640763369083e+07 
+2.8000000000000012e+00 -5.6566158379732212e-01 +7.7487269461185750e+00 +2.0916972284022908e-02 -4.5596545923533235e+01 +2.6823432207054739e+03 +4.3019923776511561e+04 -2.3176786257856589e+07 
+2.9000000000000012e+00 -5.6566156397096035e-01 +7.7487097682334145e+00 +2.0559707213880080e-02 -4.5348343009906813e+01 +2.6973745640006409e+03 +4.2515234583656886e+04 -2.3271184563933954e+07 
+3.0000000000000013e+00 -5.6566154679138170e-01 +7.7486934525363669e+00 +2.0309414352718911e-02 -4.5104144390397877e+01 +2.7086567465593994e+03 +4.1953429922469055e+04 -2.3343331187973484e+07 
+3.1000000000000014e+00 -5.6566153183376022e-01 +7.7486781420090720e+00 +2.0164505568327711e-02 -4.4866081618435281e+01 +2.7162307650496818e+03 +4.1341174561389293e+04 -2.3393722089397207e+07 
+3.2000000000000015e+00 -5.6566151867326386e-01 +7.7486639796258325e+00 +2.0123390733995859e-02 -4.4636286015079314e+01 +2.7201376636095756e+03 +4.0685131937485006e+04 -2.3422853471895646e+07 
+3.3000000000000016e+00 -5.6566150688511430e-01 +7.7486511083624752e+00 +2.0184485242120728e-02 -4.4416888915332422e+01 +2.7204183933154527e+03 +3.9991965563436970e+04 -2.3431221120030053e+07 
+3.4000000000000017e+00 -5.6566149604452198e-01 +7.7486396712004444e+00 +2.0346201094045793e-02 -4.4210021817485064e+01 +2.7171139845391490e+03 +3.9268339987981519e+04 -2.3419321226493150e+07 
+3.5000000000000018e+00 -5.6566148572670216e-01 +7.7486298111157632e+00 +2.0606950035140337e-02 -4.4017816019713202e+01 +2.7102654831499885e+03 +3.8520918576566313e+04 -2.3387650079526089e+07 
+3.6000000000000019e+00 -5.6566147550689838e-01 +7.7486216710833666e+00 +2.0965144950579589e-02 -4.3842402781101853e+01 +2.6999139313056958e+03 +3.7756364544785865e+04 -2.3336703987527445e+07 
+3.7000000000000020e+00 -5.6566146496035163e-01 +7.7486153940828268e+00 +2.1419197281612817e-02 -4.3685913471575859e+01 +2.6861004088663763e+03 +3.6981341800545262e+04 -2.3266979456890382e+07 
+3.8000000000000020e+00 -5.6566145366234266e-01 +7.7486111230884971e+00 +2.1967521423855489e-02 -4.3550479284049814e+01 +2.6688659574457793e+03 +3.6202513267481401e+04 -2.3178972851504952e+07 
+3.9000000000000021e+00 -5.6566144118813255e-01 +7.7486090010751099e+00 +2.2608527721749417e-02 -4.3438231400918852e+01 +2.6482517093081060e+03 +3.5426541881661135e+04 -2.3073180993155733e+07 
+4.0000000000000018e+00 -5.6566142711302692e-01 +7.7486091710219300e+00 +2.3340629709735702e-02 -4.3351301115979425e+01 +2.6242987552940099e+03 +3.4660091300824730e+04 -2.2950100547051083e+07 
+4.1000000000000014e+00 -5.6566141108613333e-01 +7.7486117140198880e+00 +2.4156370780819697e-02 -4.3290923357427417e+01 +2.5971262922413543e+03 +3.3907305940369792e+04 -2.2810397584640518e+07 
+4.2000000000000011e+00 -5.6566139305450580e-01 +7.7486164667782349e+00 +2.5026880246581965e-02 -4.3254664103203851e+01 +2.5671332472820550e+03 +3.3161257471962199e+04 -2.2655304045688462e+07 
+4.3000000000000007e+00 -5.6566137304033426e-01 +7.7486232056526463e+00 +2.5918439036557630e-02 -4.3239151424570608e+01 +2.5347803039941195e+03 +3.2412008720887268e+04 -2.2486164449181274e+07 
+4.4000000000000004e+00 -5.6566135106574900e-01 +7.7486317070093431e+00 +2.6797322895478135e-02 -4.3241013680196609e+01 +2.5005282268282663e+03 +3.1649623950608708e+04 -2.2304323654592492e+07 
+4.5000000000000000e+00 -5.6566132715290673e-01 +7.7486417472181870e+00 +2.7629810937296891e-02 -4.3256879314668943e+01 +2.4648377131115999e+03 +3.0864167673787011e+04 -2.2111126196693603e+07 
+4.5999999999999996e+00 -5.6566130132393044e-01 +7.7486531026605485e+00 +2.8382180116679152e-02 -4.3283377093605374e+01 +2.4281694842373836e+03 +3.0045706027850807e+04 -2.1907916682767157e+07 
+4.6999999999999993e+00 -5.6566127360091201e-01 +7.7486655497295747e+00 +2.9020704517021122e-02 -4.3317136101519502e+01 +2.3909843078560316e+03 +2.9184306721253910e+04 -2.1696039923481818e+07 
+4.7999999999999989e+00 -5.6566124400595486e-01 +7.7486788648246128e+00 +2.9511661074628329e-02 -4.3354785583085366e+01 +2.3537428826198789e+03 +2.8270038111390117e+04 -2.1476840364057548e+07 
+4.8999999999999986e+00 -5.6566121256110979e-01 +7.7486928243584980e+00 +2.9821322327497166e-02 -4.3392955163216236e+01 +2.3169059739608629e+03 +2.7292970488921237e+04 -2.1251662729575723e+07 
+4.9999999999999982e+00 -5.6566117928843096e-01 +7.7487072047493450e+00 +2.9915962217114657e-02 -4.3428274591915660e+01 +2.2809343093575658e+03 +2.6243174547759510e+04 -2.1021851538404509e+07 
+5.0999999999999979e+00 -5.6566114420992852e-01 +7.7487217824323054e+00 +2.9761851722520116e-02 -4.3457374106356902e+01 +2.2462886523230773e+03 +2.5110723526992530e+04 -2.0788751433224488e+07 
+5.1999999999999975e+00 -5.6566110734761443e-01 +7.7487363338525688e+00 +2.9325263468095983e-02 -4.3476884209925061e+01 +2.2134297209205997e+03 +2.3885691864013075e+04 -2.0553706808316030e+07 
+5.2999999999999972e+00 -5.6566106872346000e-01 +7.7487506354655515e+00 +2.8572467132728464e-02 -4.3483435682398124e+01 +2.1828182702245117e+03 +2.2558155263725886e+04 -2.0318062190817852e+07 
+5.3999999999999968e+00 -5.6566102835941034e-01 +7.7487644637399518e+00 +2.7469731695625103e-02 -4.3473659672732772e+01 +2.1549150467555201e+03 +2.1118191232552967e+04 -2.0083162015724804e+07 
+5.4999999999999964e+00 -5.6566098627738914e-01 +7.7487775951559579e+00 +2.5983325303935930e-02 -4.3444187645644249e+01 +2.1301807960283500e+03 +1.9555878749976993e+04 -1.9850350676685128e+07 
+5.5999999999999961e+00 -5.6566094249929078e-01 +7.7487898062111826e+00 +2.4079514978579269e-02 -4.3391651556828691e+01 +2.1090762615654621e+03 +1.7861299291749347e+04 -1.9620972502885204e+07 
+5.6999999999999957e+00 -5.6566089704697953e-01 +7.7488008734134404e+00 +2.1724566493804862e-02 -4.3312683625177080e+01 +2.0920621898691056e+03 +1.6024535432043722e+04 -1.9396371792694919e+07 
+5.7999999999999954e+00 -5.6566084994229815e-01 +7.7488105732840822e+00 +1.8884745494724294e-02 -4.3203916453432512e+01 +2.0795993049904287e+03 +1.4035671610711797e+04 -1.9177892678586662e+07 
+5.8999999999999950e+00 -5.6566080120704854e-01 +7.7488186823627601e+00 +1.5526315275632462e-02 -4.3061983164137359e+01 +2.0721483531980871e+03 +1.1884794905938545e+04 -1.8966879349672291e+07 
+5.9999999999999947e+00 -5.6566075086298784e-01 +7.7488249771988738e+00 +1.1615536518812199e-02 -4.2883517108495766e+01 +2.0701701052649860e+03 +9.5619931856902913e+03 -1.8764676057596810e+07 
+6.0999999999999943e+00 -5.6566069901651561e-01 +7.7488293034559526e+00 +7.1324642137248710e-03 -4.2666487534700828e+01 +2.0739961827662946e+03 +7.0629600917184234e+03 -1.8572450002998322e+07 
+6.1999999999999940e+00 -5.6566064611483835e-01 +7.7488317850241799e+00 +2.1098109174223049e-03 -4.2414656443986608e+01 +2.0834922613714452e+03 +4.4093467802816313e+03 -1.8390876836957198e+07 
+6.2999999999999936e+00 -5.6566059269122682e-01 +7.7488326159611036e+00 -3.4071382735400540e-03 -4.2133349742513268e+01 +2.0984204573527154e+03 +1.6301873243653815e+03 -1.8220568058800049e+07 
+6.3999999999999932e+00 -5.6566053927902438e-01 +7.7488319903050966e+00 -9.3730888647132003e-03 -4.1827892918069928e+01 +2.1185427169513714e+03 -1.2454859959021210e+03 -1.8062134398666292e+07 
+6.4999999999999929e+00 -5.6566048641157785e-01 +7.7488301020759618e+00 -1.5742746648731164e-02 -4.1503611056475386e+01 +2.1436210014013254e+03 -4.1886425635178130e+03 -1.7916186697521269e+07 
+6.5999999999999925e+00 -5.6566043462228444e-01 +7.7488271452822284e+00 -2.2470811160998180e-02 -4.1165829063633169e+01 +2.1734171606831674e+03 -7.1702520949107256e+03 -1.7783335304066129e+07 
+6.6999999999999922e+00 -5.6566038444456412e-01 +7.7488233139077360e+00 -2.9511979136011886e-02 -4.0819871279192014e+01 +2.2076930007012120e+03 -1.0161286859187907e+04 -1.7664190399098299e+07 
+6.7999999999999918e+00 -5.6566033641188140e-01 +7.7488188019173707e+00 -3.6820942039987592e-02 -4.0471061651361019e+01 +2.2462102371389406e+03 -1.3132720626676250e+04 -1.7559361778178815e+07 
+6.8999999999999915e+00 -5.6566029105775573e-01 +7.7488138032600942e+00 -4.4352385380038564e-02 -4.0124723826173565e+01 +2.2887304852703860e+03 -1.6055528128748152e+04 -1.7469458810549475e+07 
+6.9999999999999911e+00 -5.6566024891570699e-01 +7.7488085118584040e+00 -5.2060994011273572e-02 -3.9786180848640115e+01 +2.3350153538469694e+03 -1.8900686763536698e+04 -1.7395090869214520e+07 
+7.0999999999999908e+00 -5.6566021051935245e-01 +7.7488031216157625e+00 -5.9901441516310161e-02 -3.9460755386659613e+01 +2.3848262513661330e+03 -2.1639175251797831e+04 -1.7336866430564065e+07 
+7.1999999999999904e+00 -5.6566017640230593e-01 +7.7487978264107129e+00 -6.7828402006612290e-02 -3.9153769569247515e+01 +2.4379246071771922e+03 -2.4241974544055178e+04 -1.7295394119902458e+07 
+7.2999999999999901e+00 -5.6566014709824741e-01 +7.7487928201002241e+00 -7.5796541790440208e-02 -3.8870545073662782e+01 +2.4940717139158755e+03 -2.6680067317760888e+04 -1.7271281962311037e+07 
+7.3999999999999897e+00 -5.6566012314090797e-01 +7.7487882965155439e+00 -8.3760521239955921e-02 -3.8616403031922580e+01 +2.5530287638753416e+03 -2.8924438440330880e+04 -1.7265137559421185e+07 
+7.4999999999999893e+00 -5.6566010506405906e-01 +7.7487844494632210e+00 -9.1674996130116301e-02 -3.8396664053472307e+01 +2.6145568755060144e+03 -3.0946074834203333e+04 -1.7277568220146108e+07 
+7.5999999999999890e+00 -5.6566009340153089e-01 +7.7487814727228868e+00 -9.9494615107072179e-02 -3.8216648170583611e+01 +2.6784170440081216e+03 -3.2715965759499617e+04 -1.7309180721362174e+07 
+7.6999999999999886e+00 -5.6566008868719297e-01 +7.7487795600477458e+00 -1.0717402262468431e-01 -3.8081674851403662e+01 +2.7443701992128008e+03 -3.4205102718934046e+04 -1.7360581589913864e+07 
+7.7999999999999883e+00 -5.6566009145498397e-01 +7.7487789051597797e+00 -1.1466785503236902e-01 -3.7997062876125909e+01 +2.8121771312233095e+03 -3.5384480126201088e+04 -1.7432376748606738e+07 
+7.8999999999999879e+00 -5.6566010223887753e-01 +7.7487797017566917e+00 -1.2193074408394902e-01 -3.7968130543809664e+01 +2.8815985540240736e+03 -3.6225094069808692e+04 -1.7525171813562360e+07 
+7.9999999999999876e+00 -5.6566012157292722e-01 +7.7487821435074871e+00 -1.2891731322407893e-01 -3.8000195562858565e+01 +2.9523950424429909e+03 -3.6697942911578510e+04 -1.7639571811907291e+07 
+8.0999999999999872e+00 -5.6566014996722591e-01 +7.7487863691299506e+00 -1.3558796131487100e-01 -3.8097019201739485e+01 +3.0243073626780383e+03 -3.6782100557366721e+04 -1.7775771492420204e+07 
+8.1999999999999869e+00 -5.6566018782408733e-01 +7.7487922898224157e+00 -1.4192483863679578e-01 -3.8255442652110737e+01 +3.0969417597262932e+03 -3.6493304099286390e+04 -1.7932023854272142e+07 
+8.2999999999999865e+00 -5.6566023551570122e-01 +7.7487997576215255e+00 -1.4791519585796126e-01 -3.8470389963105909e+01 +3.1698552015695595e+03 -3.5857612113995630e+04 -1.8106009223354667e+07 
+8.3999999999999861e+00 -5.6566029341415813e-01 +7.7488086245577303e+00 -1.5354629529907637e-01 -3.8736784874406410e+01 +3.2426048492782379e+03 -3.4901085082772232e+04 -1.8295408767003309e+07 
+8.4999999999999858e+00 -5.6566036189156865e-01 +7.7488187426568444e+00 -1.5880539669093113e-01 -3.9049550928090582e+01 +3.3147477982100600e+03 -3.3649784687781146e+04 -1.8497903286230974e+07 
+8.5999999999999854e+00 -5.6566044131998661e-01 +7.7488299639436020e+00 -1.6367976680941118e-01 -3.9403611532304517e+01 +3.3858412564750561e+03 -3.2129773568127875e+04 -1.8711174051060487e+07 
+8.6999999999999851e+00 -5.6566053207145650e-01 +7.7488421404365146e+00 -1.6815667354294983e-01 -3.9793889827327114e+01 +3.4554424357831026e+03 -3.0367116036866475e+04 -1.8932902290305108e+07 
+8.7999999999999847e+00 -5.6566063451796833e-01 +7.7488551241489487e+00 -1.7222339071737597e-01 -4.0215308709700658e+01 +3.5231086339541152e+03 -2.8387877968975336e+04 -1.9160769559748482e+07 
+8.8999999999999844e+00 -5.6566074903149322e-01 +7.7488687670952672e+00 -1.7586719529024109e-01 -4.0662790996227862e+01 +3.5883971939030480e+03 -2.6218125885475329e+04 -1.9392457578618705e+07 
+8.9999999999999840e+00 -5.6566087598397186e-01 +7.7488829212806181e+00 -1.7907536679830460e-01 -4.1131259140962406e+01 +3.6508654787875512e+03 -2.3883928558784159e+04 -1.9625648073648531e+07 
+9.0999999999999837e+00 -5.6566101574729655e-01 +7.7488974387158942e+00 -1.8183519149356903e-01 -4.1615635652829660e+01 +3.7100709610523318e+03 -2.1411354630102451e+04 -1.9858023228436984e+07 
+9.1999999999999833e+00 -5.6566116869332916e-01 +7.7489121713947293e+00 -1.8413395863270945e-01 -4.2110842427623766e+01 +3.7655711445202783e+03 -1.8826476487818160e+04 -2.0087265294292368e+07 
+9.2999999999999829e+00 -5.6566133519388939e-01 +7.7489269713215236e+00 -1.8595896270907245e-01 -4.2611801562300229e+01 +3.8169236085086923e+03 -1.6155365538844639e+04 -2.0311056802769598e+07 
+9.3999999999999826e+00 -5.6566151562075351e-01 +7.7489416904864417e+00 -1.8729750372979279e-01 -4.3113434608302093e+01 +3.8636860153515122e+03 -1.3424096602634654e+04 -2.0527080608138494e+07 
+9.4999999999999822e+00 -5.6566171034568447e-01 +7.7489561808820708e+00 -1.8813688251524235e-01 -4.3610663077498948e+01 +3.9054160122661351e+03 -1.0658744897198094e+04 -2.0733019395202916e+07 
+9.5999999999999819e+00 -5.6566191974036628e-01 +7.7489702944951819e+00 -1.8846441034222772e-01 -4.4098408180455458e+01 +3.9416714254571525e+03 -7.8853876403225340e+03 -2.0926556632393625e+07 
+9.6999999999999815e+00 -5.6566214417647576e-01 +7.7489838833094478e+00 -1.8826739820594784e-01 -4.4571590902968367e+01 +3.9720100432654644e+03 -5.1301035877009444e+03 -2.1105375505703744e+07 
+9.7999999999999812e+00 -5.6566238402561042e-01 +7.7489967993072346e+00 -1.8753316789788257e-01 -4.5025132057756338e+01 +3.9959898385487486e+03 -2.4189727536443502e+03 -2.1267160006136715e+07 
+9.8999999999999808e+00 -5.6566263965935337e-01 +7.7490088944636693e+00 -1.8624904183084637e-01 -4.5453952114808054e+01 +4.0131687627061488e+03 +2.2192262547354645e+02 -2.1409593917106040e+07 
+9.9999999999999805e+00 -5.6566291144923075e-01 +7.7490200207530560e+00 -1.8440234981326720e-01 -4.5852971357520850e+01 +4.0231048838884440e+03 +2.7664988359862859e+03 -2.1530361504776768e+07 
+1.0099999999999980e+01 -5.6566319967399048e-01 +7.7490300821428741e+00 -1.8198622513970189e-01 -4.6218479305302544e+01 +4.0254925150148442e+03 +5.1944192731828452e+03 -2.1627810674433585e+07 
