# field on trajectory
# s[mm] rx[mm] ry[mm] rz[mm] bx[T] by[T] bz[T]
0.0000000000000000e+00 +8.1649999999999991e+00 +0.0000000000000000e+00 +0.0000000000000000e+00 -3.1622051625385388e-02 -5.9290422442400348e-01 +5.8918365674503030e-03
1.0000000000000001e-01 +8.1649997167181674e+00 +0.0000000000000000e+00 +9.9999999999465017e-02 -3.1621996590842985e-02 -5.9290428062163270e-01 +5.8919284443967870e-03
2.0000000000000001e-01 +8.1649988668726383e+00 +0.0000000000000000e+00 +1.9999999999572007e-01 -3.1621939501616958e-02 -5.9290434237641321e-01 +5.8920231608073359e-03
3.0000000000000004e-01 +8.1649974504633516e+00 +0.0000000000000000e+00 +2.9999999998555527e-01 -3.1621880446111153e-02 -5.9290440833832769e-01 +5.8921205385887420e-03
4.0000000000000002e-01 +8.1649954674902432e+00 +0.0000000000000000e+00 +3.9999999996576063e-01 -3.1621819512707081e-02 -5.9290447715733907e-01 +5.8922203996492071e-03
5.0000000000000000e-01 +8.1649929179532492e+00 +0.0000000000000000e+00 +4.9999999993312616e-01 -3.1621756789767134e-02 -5.9290454748339205e-01 +5.8923225658981237e-03
5.9999999999999998e-01 +8.1649898018523022e+00 +0.0000000000000000e+00 +5.9999999988444197e-01 -3.1621692365637680e-02 -5.9290461796641825e-01 +5.8924268592458725e-03
6.9999999999999996e-01 +8.1649861191873345e+00 +0.0000000000000000e+00 +6.9999999981649808e-01 -3.1621626328652237e-02 -5.9290468725633294e-01 +5.8925331016036068e-03
7.9999999999999993e-01 +8.1649818699582806e+00 +0.0000000000000000e+00 +7.9999999972608460e-01 -3.1621558767134558e-02 -5.9290475400304121e-01 +5.8926411148830507e-03
8.9999999999999991e-01 +8.1649770541650764e+00 +0.0000000000000000e+00 +8.9999999960999155e-01 -3.1621489769401823e-02 -5.9290481685643737e-01 +5.8927507209962839e-03
9.9999999999999989e-01 +8.1649716718076633e+00 +0.0000000000000000e+00 +9.9999999946500895e-01 -3.1621419423767685e-02 -5.9290487446640627e-01 +5.8928617418555198e-03
1.0999999999999999e+00 +8.1649657228859862e+00 +0.0000000000000000e+00 +1.0999999992879268e+00 -3.1621347818545524e-02 -5.9290492548282692e-01 +5.8929739993729205e-03
1.2000000000000000e+00 +8.1649592073999955e+00 +0.0000000000000000e+00 +1.1999999990755352e+00 -3.1621275042051547e-02 -5.9290496855557240e-01 +5.8930873154603644e-03
1.3000000000000000e+00 +8.1649521253496520e+00 +0.0000000000000000e+00 +1.2999999988246242e+00 -3.1621201182607819e-02 -5.9290500233451315e-01 +5.8932015120292504e-03
1.4000000000000001e+00 +8.1649444767349220e+00 +0.0000000000000000e+00 +1.3999999985319840e+00 -3.1621126328545558e-02 -5.9290502546951729e-01 +5.8933164109902809e-03
1.5000000000000002e+00 +8.1649362615557841e+00 +0.0000000000000000e+00 +1.4999999981944043e+00 -3.1621050568208159e-02 -5.9290503661045291e-01 +5.8934318342532474e-03
1.6000000000000003e+00 +8.1649274798122295e+00 +0.0000000000000000e+00 +1.5999999978086754e+00 -3.1620973989954386e-02 -5.9290503440719045e-01 +5.8935476037268349e-03
1.7000000000000004e+00 +8.1649181315042600e+00 +0.0000000000000000e+00 +1.6999999973715874e+00 -3.1620896682161476e-02 -5.9290501750960323e-01 +5.8936635413183933e-03
1.8000000000000005e+00 +8.1649082166318916e+00 +0.0000000000000000e+00 +1.7999999968799301e+00 -3.1620818733228279e-02 -5.9290498456757001e-01 +5.8937794689337478e-03
1.9000000000000006e+00 +8.1648977351951562e+00 +0.0000000000000000e+00 +1.8999999963304937e+00 -3.1620740231578452e-02 -5.9290493423097690e-01 +5.8938952084769671e-03
2.0000000000000004e+00 +8.1648866871941035e+00 +0.0000000000000000e+00 +1.9999999957200683e+00 -3.1620661265663506e-02 -5.9290486514971774e-01 +5.8940105818501756e-03
2.1000000000000005e+00 +8.1648750726287993e+00 +0.0000000000000000e+00 +2.0999999950454438e+00 -3.1620581940259192e-02 -5.9290477643628436e-01 +5.8941254278082594e-03
2.2000000000000006e+00 +8.1648628914993271e+00 +0.0000000000000000e+00 +2.1999999943034103e+00 -3.1620502425341819e-02 -5.9290466905352823e-01 +5.8942396525238265e-03
2.3000000000000007e+00 +8.1648501438057917e+00 +0.0000000000000000e+00 +2.2999999934907582e+00 -3.1620422907199824e-02 -5.9290454442690066e-01 +5.8943531790228302e-03
2.4000000000000008e+00 +8.1648368295483120e+00 +0.0000000000000000e+00 +2.3999999926042772e+00 -3.1620343572139956e-02 -5.9290440398186750e-01 +5.8944659303296065e-03
2.5000000000000009e+00 +8.1648229487270232e+00 +0.0000000000000000e+00 +2.4999999916407574e+00 -3.1620264606488271e-02 -5.9290424914391116e-01 +5.8945778294667902e-03
2.6000000000000010e+00 +8.1648085013420726e+00 +0.0000000000000000e+00 +2.5999999905969888e+00 -3.1620186196590981e-02 -5.9290408133853234e-01 +5.8946887994552194e-03
2.7000000000000011e+00 +8.1647934873936201e+00 +0.0000000000000000e+00 +2.6999999894697617e+00 -3.1620108528815513e-02 -5.9290390199125032e-01 +5.8947987633138441e-03
2.8000000000000012e+00 +8.1647779068818398e+00 +0.0000000000000000e+00 +2.7999999882558662e+00 -3.1620031789551264e-02 -5.9290371252760565e-01 +5.8949076440596411e-03
2.9000000000000012e+00 +8.1647617598069111e+00 +0.0000000000000000e+00 +2.8999999869520923e+00 -3.1619956165210676e-02 -5.9290351437316269e-01 +5.8950153647075133e-03
3.0000000000000013e+00 +8.1647450461690241e+00 +0.0000000000000000e+00 +2.9999999855552302e+00 -3.1619881842230087e-02 -5.9290330895350973e-01 +5.8951218482702072e-03
3.1000000000000014e+00 +8.1647277659683759e+00 +0.0000000000000000e+00 +3.0999999840620696e+00 -3.1619809007070683e-02 -5.9290309769426042e-01 +5.8952270177582084e-03
3.2000000000000015e+00 +8.1647099192051691e+00 +0.0000000000000000e+00 +3.1999999824694010e+00 -3.1619737846219402e-02 -5.9290288202105790e-01 +5.8953307961796706e-03
3.3000000000000016e+00 +8.1646915058796097e+00 +0.0000000000000000e+00 +3.2999999807740146e+00 -3.1619668546189895e-02 -5.9290266335957331e-01 +5.8954331065403046e-03
3.4000000000000017e+00 +8.1646725259919073e+00 +0.0000000000000000e+00 +3.3999999789727000e+00 -3.1619601293523411e-02 -5.9290244313550933e-01 +5.8955338718432978e-03
3.5000000000000018e+00 +8.1646529795422733e+00 +0.0000000000000000e+00 +3.4999999770622479e+00 -3.1619536274789820e-02 -5.9290222277460169e-01 +5.8956330150892224e-03
3.6000000000000019e+00 +8.1646328665309191e+00 +0.0000000000000000e+00 +3.5999999750394478e+00 -3.1619473676588371e-02 -5.9290200370262003e-01 +5.8957304592759377e-03
3.7000000000000020e+00 +8.1646121869580526e+00 +0.0000000000000000e+00 +3.6999999729010904e+00 -3.1619413685548770e-02 -5.9290178734537025e-01 +5.8958261273985091e-03
3.8000000000000020e+00 +8.1645909408238833e+00 +0.0000000000000000e+00 +3.7999999706439658e+00 -3.1619356488332008e-02 -5.9290157512869568e-01 +5.8959199424491087e-03
3.9000000000000021e+00 +8.1645691281286137e+00 +0.0000000000000000e+00 +3.8999999682648636e+00 -3.1619302271631428e-02 -5.9290136847847985e-01 +5.8960118274169254e-03
4.0000000000000018e+00 +8.1645467488724410e+00 +0.0000000000000000e+00 +3.9999999657605745e+00 -3.1619251222173406e-02 -5.9290116882064559e-01 +5.8961017052880796e-03
4.1000000000000014e+00 +8.1645238030555571e+00 +0.0000000000000000e+00 +4.0999999631278881e+00 -3.1619203438817585e-02 -5.9290097754431625e-01 +5.8961895498451881e-03
4.2000000000000011e+00 +8.1645002906781468e+00 +0.0000000000000000e+00 +4.1999999603635949e+00 -3.1619158668832671e-02 -5.9290079589125444e-01 +5.8962755380681780e-03
4.3000000000000007e+00 +8.1644762117403822e+00 +0.0000000000000000e+00 +4.2999999574644852e+00 -3.1619116571560878e-02 -5.9290062506634600e-01 +5.8963598977381810e-03
4.4000000000000004e+00 +8.1644515662424286e+00 +0.0000000000000000e+00 +4.3999999544273489e+00 -3.1619076806310847e-02 -5.9290046627443127e-01 +5.8964428566383861e-03
4.5000000000000000e+00 +8.1644263541844388e+00 +0.0000000000000000e+00 +4.4999999512489754e+00 -3.1619039032354662e-02 -5.9290032072030274e-01 +5.8965246425542470e-03
4.5999999999999996e+00 +8.1644005755665514e+00 +0.0000000000000000e+00 +4.5999999479261557e+00 -3.1619002908924825e-02 -5.9290018960870172e-01 +5.8966054832737024e-03
4.6999999999999993e+00 +8.1643742303888924e+00 +0.0000000000000000e+00 +4.6999999444556799e+00 -3.1618968095211315e-02 -5.9290007414431423e-01 +5.8966856065873910e-03
4.7999999999999989e+00 +8.1643473186515738e+00 +0.0000000000000000e+00 +4.7999999408343381e+00 -3.1618934250358617e-02 -5.9289997553176821e-01 +5.8967652402888548e-03
4.8999999999999986e+00 +8.1643198403546897e+00 +0.0000000000000000e+00 +4.8999999370589205e+00 -3.1618901033462682e-02 -5.9289989497562889e-01 +5.8968446121747606e-03
4.9999999999999982e+00 +8.1642917954983201e+00 +0.0000000000000000e+00 +4.9999999331262170e+00 -3.1618868103567954e-02 -5.9289983368039723e-01 +5.8969239500451087e-03
5.0999999999999979e+00 +8.1642631840825217e+00 +0.0000000000000000e+00 +5.0999999290330180e+00 -3.1618835119664367e-02 -5.9289979285050443e-01 +5.8970034817034502e-03
5.1999999999999975e+00 +8.1642340061073355e+00 +0.0000000000000000e+00 +5.1999999247761126e+00 -3.1618801740684460e-02 -5.9289977369030966e-01 +5.8970834349570921e-03
5.2999999999999972e+00 +8.1642042615727810e+00 +0.0000000000000000e+00 +5.2999999203522918e+00 -3.1618767625500206e-02 -5.9289977740409605e-01 +5.8971640376173206e-03
5.3999999999999968e+00 +8.1641739504788546e+00 +0.0000000000000000e+00 +5.3999999157583458e+00 -3.1618732432920231e-02 -5.9289980519606789e-01 +5.8972455174996054e-03
5.4999999999999964e+00 +8.1641430728255298e+00 +0.0000000000000000e+00 +5.4999999109910647e+00 -3.1618695821686645e-02 -5.9289985827034652e-01 +5.8973281024238128e-03
5.5999999999999961e+00 +8.1641116286127584e+00 +0.0000000000000000e+00 +5.5999999060472385e+00 -3.1618657450472189e-02 -5.9289993783096628e-01 +5.8974120202144190e-03
5.6999999999999957e+00 +8.1640796178404642e+00 +0.0000000000000000e+00 +5.6999999009236566e+00 -3.1618616977877184e-02 -5.9290004508187333e-01 +5.8974974987007333e-03
5.7999999999999954e+00 +8.1640470405085477e+00 +0.0000000000000000e+00 +5.7999998956171099e+00 -3.1618574062426533e-02 -5.9290018122691857e-01 +5.8975847657170852e-03
5.8999999999999950e+00 +8.1640138966168774e+00 +0.0000000000000000e+00 +5.8999998901243886e+00 -3.1618528362566768e-02 -5.9290034746985787e-01 +5.8976740491030605e-03
5.9999999999999947e+00 +8.1639801861652970e+00 +0.0000000000000000e+00 +5.9999998844422819e+00 -3.1618479536663073e-02 -5.9290054501434664e-01 +5.8977655767037014e-03
6.0999999999999943e+00 +8.1639459091536182e+00 +0.0000000000000000e+00 +6.0999998785675800e+00 -3.1618427372681890e-02 -5.9290077439927158e-01 +5.8978595084795788e-03
6.1999999999999940e+00 +8.1639110655816225e+00 +0.0000000000000000e+00 +6.1999998724970737e+00 -3.1618372177283117e-02 -5.9290103350479839e-01 +5.8979557328336903e-03
6.2999999999999936e+00 +8.1638756554490648e+00 +0.0000000000000000e+00 +6.2999998662275525e+00 -3.1618314386825060e-02 -5.9290131954645542e-01 +5.8980540702790706e-03
6.3999999999999932e+00 +8.1638396787556715e+00 +0.0000000000000000e+00 +6.3999998597558063e+00 -3.1618254437688231e-02 -5.9290162973981375e-01 +5.8981543413289088e-03
6.4999999999999929e+00 +8.1638031355011496e+00 +0.0000000000000000e+00 +6.4999998530786254e+00 -3.1618192766276830e-02 -5.9290196130049311e-01 +5.8982563664965243e-03
6.5999999999999925e+00 +8.1637660256851809e+00 +0.0000000000000000e+00 +6.5999998461927989e+00 -3.1618129809020158e-02 -5.9290231144416405e-01 +5.8983599662953516e-03
6.6999999999999922e+00 +8.1637283493074353e+00 +0.0000000000000000e+00 +6.6999998390951179e+00 -3.1618066002374136e-02 -5.9290267738654878e-01 +5.8984649612389018e-03
6.7999999999999918e+00 +8.1636901063675626e+00 +0.0000000000000000e+00 +6.7999998317823716e+00 -3.1618001782822681e-02 -5.9290305634342588e-01 +5.8985711718407552e-03
6.8999999999999915e+00 +8.1636512968652024e+00 +0.0000000000000000e+00 +6.8999998242513501e+00 -3.1617937586879204e-02 -5.9290344553063101e-01 +5.8986784186145285e-03
6.9999999999999911e+00 +8.1636119207999851e+00 +0.0000000000000000e+00 +6.9999998164988435e+00 -3.1617873851088031e-02 -5.9290384216406122e-01 +5.8987865220738603e-03
7.0999999999999908e+00 +8.1635719781715324e+00 +0.0000000000000000e+00 +7.0999998085216420e+00 -3.1617811012025931e-02 -5.9290424345967663e-01 +5.8988953027323890e-03
7.1999999999999904e+00 +8.1635314689794622e+00 +0.0000000000000000e+00 +7.1999998003165349e+00 -3.1617749506303493e-02 -5.9290464663350329e-01 +5.8990045811037183e-03
7.2999999999999901e+00 +8.1634903932233911e+00 +0.0000000000000000e+00 +7.2999997918803121e+00 -3.1617689770566594e-02 -5.9290504890163631e-01 +5.8991141777014052e-03
7.3999999999999897e+00 +8.1634487509029370e+00 +0.0000000000000000e+00 +7.3999997832097639e+00 -3.1617632241497856e-02 -5.9290544748024065e-01 +5.8992239130389390e-03
7.4999999999999893e+00 +8.1634065420177198e+00 +0.0000000000000000e+00 +7.4999997743016795e+00 -3.1617577355818147e-02 -5.9290583958555609e-01 +5.8993336076297144e-03
7.5999999999999890e+00 +8.1633637665673664e+00 +0.0000000000000000e+00 +7.5999997651528499e+00 -3.1617525550287962e-02 -5.9290622243389868e-01 +5.8994430819870143e-03
7.6999999999999886e+00 +8.1633204245515127e+00 +0.0000000000000000e+00 +7.6999997557600643e+00 -3.1617477261708903e-02 -5.9290659324166384e-01 +5.8995521566239861e-03
7.7999999999999883e+00 +8.1632765159698053e+00 +0.0000000000000000e+00 +7.7999997461201120e+00 -3.1617432926925149e-02 -5.9290694922532772e-01 +5.8996606520536170e-03
7.8999999999999879e+00 +8.1632320408219066e+00 +0.0000000000000000e+00 +7.8999997362297840e+00 -3.1617392982824878e-02 -5.9290728760145150e-01 +5.8997683887887162e-03
7.9999999999999876e+00 +8.1631869991074950e+00 +0.0000000000000000e+00 +7.9999997260858695e+00 -3.1617357866341740e-02 -5.9290760558668287e-01 +5.8998751873418978e-03
8.0999999999999872e+00 +8.1631413908262669e+00 +0.0000000000000000e+00 +8.0999997156851595e+00 -3.1617327959388257e-02 -5.9290790104430680e-01 +5.8999809010710129e-03
8.1999999999999869e+00 +8.1630952159779433e+00 +0.0000000000000000e+00 +8.1999997050244424e+00 -3.1617303423633676e-02 -5.9290817442388233e-01 +5.9000855147145403e-03
8.2999999999999865e+00 +8.1630484745622631e+00 +0.0000000000000000e+00 +8.2999996941005083e+00 -3.1617284365679156e-02 -5.9290842682155076e-01 +5.9001890458509837e-03
8.3999999999999861e+00 +8.1630011665789866e+00 +0.0000000000000000e+00 +8.3999996829101473e+00 -3.1617270892122351e-02 -5.9290865933347003e-01 +5.9002915120521344e-03
8.4999999999999858e+00 +8.1629532920278933e+00 +0.0000000000000000e+00 +8.4999996714501496e+00 -3.1617263109557162e-02 -5.9290887305581708e-01 +5.9003929308828855e-03
8.5999999999999854e+00 +8.1629048509087792e+00 +0.0000000000000000e+00 +8.5999996597173052e+00 -3.1617261124573644e-02 -5.9290906908478658e-01 +5.9004933199010108e-03
8.6999999999999851e+00 +8.1628558432214611e+00 +0.0000000000000000e+00 +8.6999996477084043e+00 -3.1617265043757850e-02 -5.9290924851659221e-01 +5.9005926966569392e-03
8.7999999999999847e+00 +8.1628062689657668e+00 +0.0000000000000000e+00 +8.7999996354202352e+00 -3.1617274973691635e-02 -5.9290941244746542e-01 +5.9006910786935660e-03
8.8999999999999844e+00 +8.1627561281415417e+00 +0.0000000000000000e+00 +8.8999996228495899e+00 -3.1617291020952600e-02 -5.9290956197365907e-01 +5.9007884835460302e-03
8.9999999999999840e+00 +8.1627054207486456e+00 +0.0000000000000000e+00 +8.9999996099932567e+00 -3.1617313292113799e-02 -5.9290969819144324e-01 +5.9008849287414981e-03
9.0999999999999837e+00 +8.1626541467869487e+00 +0.0000000000000000e+00 +9.0999995968480256e+00 -3.1617341893743767e-02 -5.9290982219710964e-01 +5.9009804317989587e-03
9.1999999999999833e+00 +8.1626023062563338e+00 +0.0000000000000000e+00 +9.1999995834106887e+00 -3.1617376932406197e-02 -5.9290993508696888e-01 +5.9010750102290090e-03
9.2999999999999829e+00 +8.1625498991566943e+00 +0.0000000000000000e+00 +9.2999995696780342e+00 -3.1617418514659934e-02 -5.9291003795735353e-01 +5.9011686815336490e-03
9.3999999999999826e+00 +8.1624969254879343e+00 +0.0000000000000000e+00 +9.3999995556468523e+00 -3.1617466747058731e-02 -5.9291013190461561e-01 +5.9012614632060582e-03
9.4999999999999822e+00 +8.1624433852499667e+00 +0.0000000000000000e+00 +9.4999995413139313e+00 -3.1617521736151150e-02 -5.9291021802512889e-01 +5.9013533727303880e-03
9.5999999999999819e+00 +8.1623892784427099e+00 +0.0000000000000000e+00 +9.5999995266760632e+00 -3.1617583588480380e-02 -5.9291029741528856e-01 +5.9014444275815566e-03
9.6999999999999815e+00 +8.1623346050660892e+00 +0.0000000000000000e+00 +9.6999995117300379e+00 -3.1617652410584111e-02 -5.9291037117151169e-01 +5.9015346452250331e-03
9.7999999999999812e+00 +8.1622793651200354e+00 +0.0000000000000000e+00 +9.7999994964726440e+00 -3.1617728308994418e-02 -5.9291044039023699e-01 +5.9016240431166139e-03
9.8999999999999808e+00 +8.1622235586044845e+00 +0.0000000000000000e+00 +9.8999994809006733e+00 -3.1617811390237567e-02 -5.9291050616792595e-01 +5.9017126387022369e-03
9.9999999999999805e+00 +8.1621671855193760e+00 +0.0000000000000000e+00 +9.9999994650109141e+00 -3.1617901760833844e-02 -5.9291056960106270e-01 +5.9018004494177387e-03
1.0099999999999980e+01 +8.1621102458646515e+00 +0.0000000000000000e+00 +1.0099999448800158e+01 -3.1617999298370641e-02 -5.9291063187777659e-01 +5.9018874936195781e-03
1.0199999999999980e+01 +8.1620527396402522e+00 +0.0000000000000000e+00 +1.0199999432265194e+01 -3.1618102964700377e-02 -5.9291069455270418e-01 +5.9019737933826118e-03
1.0299999999999979e+01 +8.1619946668461196e+00 +0.0000000000000000e+00 +1.0299999415402812e+01 -3.1618211492717388e-02 -5.9291075927210490e-01 +5.9020593717163351e-03
1.0399999999999979e+01 +8.1619360274821933e+00 +0.0000000000000000e+00 +1.0399999398209802e+01 -3.1618323615289927e-02 -5.9291082768223435e-01 +5.9021442516353946e-03
1.0499999999999979e+01 +8.1618768215484110e+00 +0.0000000000000000e+00 +1.0499999380682954e+01 -3.1618438065259533e-02 -5.9291090142934155e-01 +5.9022284561597547e-03
1.0599999999999978e+01 +8.1618170490447035e+00 +0.0000000000000000e+00 +1.0599999362819059e+01 -3.1618553575440453e-02 -5.9291098215967186e-01 +5.9023120083148825e-03
1.0699999999999978e+01 +8.1617567099709945e+00 +0.0000000000000000e+00 +1.0699999344614904e+01 -3.1618668878619013e-02 -5.9291107151946321e-01 +5.9023949311318878e-03
1.0799999999999978e+01 +8.1616958043272021e+00 +0.0000000000000000e+00 +1.0799999326067281e+01 -3.1618782707552910e-02 -5.9291117115494785e-01 +5.9024772476477172e-03
1.0899999999999977e+01 +8.1616343321132323e+00 +0.0000000000000000e+00 +1.0899999307172980e+01 -3.1618893794970716e-02 -5.9291128271235038e-01 +5.9025589809053218e-03
1.0999999999999977e+01 +8.1615722933289803e+00 +0.0000000000000000e+00 +1.0999999287928791e+01 -3.1619000873571244e-02 -5.9291140783789054e-01 +5.9026401539538208e-03
1.1099999999999977e+01 +8.1615096879743270e+00 +0.0000000000000000e+00 +1.1099999268331503e+01 -3.1619102676022783e-02 -5.9291154817777780e-01 +5.9027207898486771e-03
1.1199999999999976e+01 +8.1614465160491410e+00 +0.0000000000000000e+00 +1.1199999248377907e+01 -3.1619197934962644e-02 -5.9291170537821503e-01 +5.9028009116518492e-03
1.1299999999999976e+01 +8.1613827775532748e+00 +0.0000000000000000e+00 +1.1299999228064792e+01 -3.1619285382996423e-02 -5.9291188108539628e-01 +5.9028805424319987e-03
1.1399999999999975e+01 +8.1613184724865615e+00 +0.0000000000000000e+00 +1.1399999207388948e+01 -3.1619363752697437e-02 -5.9291207694550752e-01 +5.9029597052646212e-03
1.1499999999999975e+01 +8.1612536008488163e+00 +0.0000000000000000e+00 +1.1499999186347166e+01 -3.1619431776606116e-02 -5.9291229460472439e-01 +5.9030384232322342e-03
1.1599999999999975e+01 +8.1611881626398333e+00 +0.0000000000000000e+00 +1.1599999164936234e+01 -3.1619488187229296e-02 -5.9291253570921310e-01 +5.9031167194245494e-03
1.1699999999999974e+01 +8.1611221578593849e+00 +0.0000000000000000e+00 +1.1699999143152942e+01 -3.1619531717039677e-02 -5.9291280190512996e-01 +5.9031946169386318e-03
1.1799999999999974e+01 +8.1610555865072172e+00 +0.0000000000000000e+00 +1.1799999120994082e+01 -3.1619561098475156e-02 -5.9291309483862076e-01 +5.9032721388790855e-03
