# field on trajectory
# s[mm] rx[mm] ry[mm] rz[mm] bx[T] by[T] bz[T]
0.0000000000000000e+00 +7.9199999999999999e+00 +0.0000000000000000e+00 +0.0000000000000000e+00 -2.8521687722395078e-02 -5.3842620266291219e-01 +5.3682549570352994e-03
1.0000000000000001e-01 +7.9199997170124492e+00 +0.0000000000000000e+00 +9.9999999999466113e-02 -2.8521610386425745e-02 -5.3842599188889018e-01 +5.3681961614686175e-03
2.0000000000000001e-01 +7.9199988680499454e+00 +0.0000000000000000e+00 +1.9999999999572896e-01 -2.8521537074107477e-02 -5.3842578478892578e-01 +5.3681395216391469e-03
3.0000000000000004e-01 +7.9199974531127051e+00 +0.0000000000000000e+00 +2.9999999998558524e-01 -2.8521468045381929e-02 -5.3842558192256917e-01 +5.3680849538442158e-03
4.0000000000000002e-01 +7.9199954722009416e+00 +0.0000000000000000e+00 +3.9999999996583174e-01 -2.8521403560188282e-02 -5.3842538384936856e-01 +5.3680323743810331e-03
5.0000000000000000e-01 +7.9199929253148635e+00 +0.0000000000000000e+00 +4.9999999993326516e-01 -2.8521343878464639e-02 -5.3842519112887177e-01 +5.3679816995465274e-03
5.9999999999999998e-01 +7.9199898124546735e+00 +0.0000000000000000e+00 +5.9999999988468222e-01 -2.8521289260149341e-02 -5.3842500432062534e-01 +5.3679328456371720e-03
6.9999999999999996e-01 +7.9199861336205677e+00 +0.0000000000000000e+00 +6.9999999981687966e-01 -2.8521239965182354e-02 -5.3842482398417402e-01 +5.3678857289488251e-03
7.9999999999999993e-01 +7.9199818888127362e+00 +0.0000000000000000e+00 +7.9999999972665425e-01 -2.8521196253506576e-02 -5.3842465067905998e-01 +5.3678402657765713e-03
8.9999999999999991e-01 +7.9199770780313603e+00 +0.0000000000000000e+00 +8.9999999961080268e-01 -2.8521158385069304e-02 -5.3842448496482498e-01 +5.3677963724145569e-03
9.9999999999999989e-01 +7.9199717012766158e+00 +0.0000000000000000e+00 +9.9999999946612173e-01 -2.8521126619823471e-02 -5.3842432740100676e-01 +5.3677539651558158e-03
1.0999999999999999e+00 +7.9199657585486669e+00 +0.0000000000000000e+00 +1.0999999992894083e+00 -2.8521101217729064e-02 -5.3842417854714153e-01 +5.3677129602921203e-03
1.2000000000000000e+00 +7.9199592498476710e+00 +0.0000000000000000e+00 +1.1999999990774588e+00 -2.8521082438754477e-02 -5.3842403896276203e-01 +5.3676732741138027e-03
1.3000000000000000e+00 +7.9199521751737754e+00 +0.0000000000000000e+00 +1.2999999988270703e+00 -2.8521070542877863e-02 -5.3842390920739780e-01 +5.3676348229096055e-03
1.4000000000000001e+00 +7.9199445345271160e+00 +0.0000000000000000e+00 +1.3999999985350393e+00 -2.8521065790088493e-02 -5.3842378984057593e-01 +5.3675975229665060e-03
1.5000000000000002e+00 +7.9199363279078181e+00 +0.0000000000000000e+00 +1.4999999981981629e+00 -2.8521068440388101e-02 -5.3842368142181884e-01 +5.3675612905695570e-03
1.6000000000000003e+00 +7.9199275553159962e+00 +0.0000000000000000e+00 +1.5999999978132375e+00 -2.8521078753792267e-02 -5.3842358451064565e-01 +5.3675260420017259e-03
1.7000000000000004e+00 +7.9199182167517534e+00 +0.0000000000000000e+00 +1.6999999973770601e+00 -2.8521096990331750e-02 -5.3842349966657121e-01 +5.3674916935437288e-03
1.8000000000000005e+00 +7.9199083122151777e+00 +0.0000000000000000e+00 +1.7999999968864273e+00 -2.8521123410053868e-02 -5.3842342744910621e-01 +5.3674581614738650e-03
1.9000000000000006e+00 +7.9198978417063461e+00 +0.0000000000000000e+00 +1.8999999963381360e+00 -2.8521158273023806e-02 -5.3842336841775618e-01 +5.3674253620678500e-03
2.0000000000000004e+00 +7.9198868052253211e+00 +0.0000000000000000e+00 +1.9999999957289829e+00 -2.8521201839326066e-02 -5.3842332313202257e-01 +5.3673932115986638e-03
2.1000000000000005e+00 +7.9198752027721504e+00 +0.0000000000000000e+00 +2.0999999950557648e+00 -2.8521254265221729e-02 -5.3842329204105610e-01 +5.3673616501951505e-03
2.2000000000000006e+00 +7.9198630343468670e+00 +0.0000000000000000e+00 +2.1999999943152786e+00 -2.8521315291612094e-02 -5.3842327515262900e-01 +5.3673307134193722e-03
2.3000000000000007e+00 +7.9198502999494886e+00 +0.0000000000000000e+00 +2.2999999935043207e+00 -2.8521384555560688e-02 -5.3842327236417331e-01 +5.3673004606922571e-03
2.4000000000000008e+00 +7.9198369995800189e+00 +0.0000000000000000e+00 +2.3999999926196880e+00 -2.8521461694135285e-02 -5.3842328357313063e-01 +5.3672709514353319e-03
2.5000000000000009e+00 +7.9198231332384470e+00 +0.0000000000000000e+00 +2.4999999916581772e+00 -2.8521546344407175e-02 -5.3842330867695076e-01 +5.3672422450709457e-03
2.6000000000000010e+00 +7.9198087009247464e+00 +0.0000000000000000e+00 +2.5999999906165852e+00 -2.8521638143450483e-02 -5.3842334757309374e-01 +5.3672144010225038e-03
2.7000000000000011e+00 +7.9197937026388763e+00 +0.0000000000000000e+00 +2.6999999894917086e+00 -2.8521736728341480e-02 -5.3842340015903167e-01 +5.3671874787147161e-03
2.8000000000000012e+00 +7.9197781383807824e+00 +0.0000000000000000e+00 +2.7999999882803444e+00 -2.8521841736157915e-02 -5.3842346633224869e-01 +5.3671615375738167e-03
2.9000000000000012e+00 +7.9197620081503963e+00 +0.0000000000000000e+00 +2.8999999869792892e+00 -2.8521952803978273e-02 -5.3842354599024245e-01 +5.3671366370278062e-03
3.0000000000000013e+00 +7.9197453119476338e+00 +0.0000000000000000e+00 +2.9999999855853399e+00 -2.8522069568881144e-02 -5.3842363903052615e-01 +5.3671128365066888e-03
3.1000000000000014e+00 +7.9197280497723979e+00 +0.0000000000000000e+00 +3.0999999840952928e+00 -2.8522191667944490e-02 -5.3842374535062798e-01 +5.3670901954426999e-03
3.2000000000000015e+00 +7.9197102216245776e+00 +0.0000000000000000e+00 +3.1999999825059451e+00 -2.8522318738244991e-02 -5.3842386484809412e-01 +5.3670687732705535e-03
3.3000000000000016e+00 +7.9196918275040478e+00 +0.0000000000000000e+00 +3.2999999808140932e+00 -2.8522450416857345e-02 -5.3842399742048863e-01 +5.3670486294276638e-03
3.4000000000000017e+00 +7.9196728674106698e+00 +0.0000000000000000e+00 +3.3999999790165338e+00 -2.8522586340853518e-02 -5.3842414296539454e-01 +5.3670298233543844e-03
3.5000000000000018e+00 +7.9196533413442909e+00 +0.0000000000000000e+00 +3.4999999771100638e+00 -2.8522726147302179e-02 -5.3842430138041575e-01 +5.3670124144942532e-03
3.6000000000000019e+00 +7.9196332493047459e+00 +0.0000000000000000e+00 +3.5999999750914800e+00 -2.8522869473267900e-02 -5.3842447256317783e-01 +5.3669964622942131e-03
3.7000000000000020e+00 +7.9196125912918554e+00 +0.0000000000000000e+00 +3.6999999729575790e+00 -2.8523015955810516e-02 -5.3842465641132875e-01 +5.3669820262048518e-03
3.8000000000000020e+00 +7.9195913673054266e+00 +0.0000000000000000e+00 +3.7999999707051577e+00 -2.8523165231984442e-02 -5.3842485282254093e-01 +5.3669691656806455e-03
3.9000000000000021e+00 +7.9195695773452535e+00 +0.0000000000000000e+00 +3.8999999683310125e+00 -2.8523316938837945e-02 -5.3842506169451110e-01 +5.3669579401801771e-03
4.0000000000000018e+00 +7.9195472214111167e+00 +0.0000000000000000e+00 +3.9999999658319401e+00 -2.8523470713412512e-02 -5.3842528292496250e-01 +5.3669484091663899e-03
4.1000000000000014e+00 +7.9195242995027852e+00 +0.0000000000000000e+00 +4.0999999632047368e+00 -2.8523626081927187e-02 -5.3842551633350866e-01 +5.3669406167715650e-03
4.2000000000000011e+00 +7.9195008116200150e+00 +0.0000000000000000e+00 +4.1999999604461999e+00 -2.8523782127326851e-02 -5.3842576142721676e-01 +5.3669345457899361e-03
4.3000000000000007e+00 +7.9194767577625482e+00 +0.0000000000000000e+00 +4.2999999575531263e+00 -2.8523937821716073e-02 -5.3842601763497322e-01 +5.3669301636803390e-03
4.4000000000000004e+00 +7.9194521379301168e+00 +0.0000000000000000e+00 +4.3999999545223121e+00 -2.8524092137171154e-02 -5.3842628438561124e-01 +5.3669274379009400e-03
4.5000000000000000e+00 +7.9194269521224410e+00 +0.0000000000000000e+00 +4.4999999513505538e+00 -2.8524244045738337e-02 -5.3842656110790632e-01 +5.3669263359091479e-03
4.5999999999999996e+00 +7.9194012003392311e+00 +0.0000000000000000e+00 +4.5999999480346485e+00 -2.8524392519432191e-02 -5.3842684723057443e-01 +5.3669268251615209e-03
4.6999999999999993e+00 +7.9193748825801871e+00 +0.0000000000000000e+00 +4.6999999445713927e+00 -2.8524536530233759e-02 -5.3842714218226673e-01 +5.3669288731136525e-03
4.7999999999999989e+00 +7.9193479988449988e+00 +0.0000000000000000e+00 +4.7999999409575835e+00 -2.8524675050088925e-02 -5.3842744539156739e-01 +5.3669324472201000e-03
4.8999999999999986e+00 +7.9193205491333503e+00 +0.0000000000000000e+00 +4.8999999371900165e+00 -2.8524807050906612e-02 -5.3842775628698913e-01 +5.3669375149342719e-03
4.9999999999999982e+00 +7.9192925334449145e+00 +0.0000000000000000e+00 +4.9999999332654887e+00 -2.8524931504557108e-02 -5.3842807429697015e-01 +5.3669440437083410e-03
5.0999999999999979e+00 +7.9192639517793584e+00 +0.0000000000000000e+00 +5.0999999291807976e+00 -2.8525047382870317e-02 -5.3842839884987026e-01 +5.3669520009931434e-03
5.1999999999999975e+00 +7.9192348041363418e+00 +0.0000000000000000e+00 +5.1999999249327384e+00 -2.8525153657634021e-02 -5.3842872937396791e-01 +5.3669613542380815e-03
5.2999999999999972e+00 +7.9192050905155176e+00 +0.0000000000000000e+00 +5.2999999205181085e+00 -2.8525249300592144e-02 -5.3842906529745571e-01 +5.3669720708910363e-03
5.3999999999999968e+00 +7.9191748109165347e+00 +0.0000000000000000e+00 +5.3999999159337042e+00 -2.8525333283443064e-02 -5.3842940604843814e-01 +5.3669841183982651e-03
5.4999999999999964e+00 +7.9191439653390354e+00 +0.0000000000000000e+00 +5.4999999111763227e+00 -2.8525404577837823e-02 -5.3842975105492674e-01 +5.3669974642043036e-03
5.5999999999999961e+00 +7.9191125537826581e+00 +0.0000000000000000e+00 +5.5999999062427595e+00 -2.8525462155378458e-02 -5.3843009974483735e-01 +5.3670120757518770e-03
5.6999999999999957e+00 +7.9190805762470378e+00 +0.0000000000000000e+00 +5.6999999011298117e+00 -2.8525504987616249e-02 -5.3843045154598645e-01 +5.3670279204818035e-03
5.7999999999999954e+00 +7.9190480327318049e+00 +0.0000000000000000e+00 +5.7999998958342758e+00 -2.8525532046049934e-02 -5.3843080588608760e-01 +5.3670449658328890e-03
5.8999999999999950e+00 +7.9190149232365883e+00 +0.0000000000000000e+00 +5.8999998903529489e+00 -2.8525542302124087e-02 -5.3843116219274756e-01 +5.3670631792418454e-03
5.9999999999999947e+00 +7.9189812477610149e+00 +0.0000000000000000e+00 +5.9999998846826275e+00 -2.8525534727227287e-02 -5.3843151989346327e-01 +5.3670825281431833e-03
6.0999999999999943e+00 +7.9189470063047098e+00 +0.0000000000000000e+00 +6.0999998788201069e+00 -2.8525508796541955e-02 -5.3843187843217888e-01 +5.3671029979420609e-03
6.1999999999999940e+00 +7.9189121988672975e+00 +0.0000000000000000e+00 +6.1999998727621843e+00 -2.8525466000642329e-02 -5.3843223731902612e-01 +5.3671246459351830e-03
6.2999999999999936e+00 +7.9188768254484012e+00 +0.0000000000000000e+00 +6.2999998665056571e+00 -2.8525408334004170e-02 -5.3843259608074812e-01 +5.3671475473952802e-03
6.3999999999999932e+00 +7.9188408860476454e+00 +0.0000000000000000e+00 +6.3999998600473207e+00 -2.8525337791162057e-02 -5.3843295424415616e-01 +5.3671717775986682e-03
6.4999999999999929e+00 +7.9188043806646551e+00 +0.0000000000000000e+00 +6.4999998533839722e+00 -2.8525256366712336e-02 -5.3843331133613437e-01 +5.3671974118253765e-03
6.5999999999999925e+00 +7.9187673092990556e+00 +0.0000000000000000e+00 +6.5999998465124081e+00 -2.8525166055316100e-02 -5.3843366688364336e-01 +5.3672245253592972e-03
6.6999999999999922e+00 +7.9187296719504747e+00 +0.0000000000000000e+00 +6.6999998394294247e+00 -2.8525068851702119e-02 -5.3843402041372412e-01 +5.3672531934883328e-03
6.7999999999999918e+00 +7.9186914686185412e+00 +0.0000000000000000e+00 +6.7999998321318182e+00 -2.8524966750669775e-02 -5.3843437145350104e-01 +5.3672834915045112e-03
6.8999999999999915e+00 +7.9186526993028883e+00 +0.0000000000000000e+00 +6.8999998246163852e+00 -2.8524861747092078e-02 -5.3843471953018762e-01 +5.3673154947041588e-03
6.9999999999999911e+00 +7.9186133640031509e+00 +0.0000000000000000e+00 +6.9999998168799227e+00 -2.8524755835918535e-02 -5.3843506417108877e-01 +5.3673492783880127e-03
7.0999999999999908e+00 +7.9185734627189683e+00 +0.0000000000000000e+00 +7.0999998089192262e+00 -2.8524651012178152e-02 -5.3843540490360531e-01 +5.3673849178613817e-03
7.1999999999999904e+00 +7.9185329954499837e+00 +0.0000000000000000e+00 +7.1999998007310930e+00 -2.8524549270982382e-02 -5.3843574125523797e-01 +5.3674224884342715e-03
7.2999999999999901e+00 +7.9184919621958452e+00 +0.0000000000000000e+00 +7.2999997923123194e+00 -2.8524452607528030e-02 -5.3843607275359051e-01 +5.3674620654215318e-03
7.3999999999999897e+00 +7.9184503629562055e+00 +0.0000000000000000e+00 +7.3999997836597018e+00 -2.8524363017100287e-02 -5.3843639892637507e-01 +5.3675037241429991e-03
7.4999999999999893e+00 +7.9184081977307228e+00 +0.0000000000000000e+00 +7.4999997747700364e+00 -2.8524282495075604e-02 -5.3843671930141446e-01 +5.3675475399236287e-03
7.5999999999999890e+00 +7.9183654665190613e+00 +0.0000000000000000e+00 +7.5999997656401206e+00 -2.8524213036924664e-02 -5.3843703340664706e-01 +5.3675935880936410e-03
7.6999999999999886e+00 +7.9183221693208932e+00 +0.0000000000000000e+00 +7.6999997562667497e+00 -2.8524156638215368e-02 -5.3843734077012995e-01 +5.3676419439886618e-03
7.7999999999999883e+00 +7.9182783061358961e+00 +0.0000000000000000e+00 +7.7999997466467210e+00 -2.8524115294615727e-02 -5.3843764092004387e-01 +5.3676926829498532e-03
7.8999999999999879e+00 +7.9182338769637566e+00 +0.0000000000000000e+00 +7.8999997367768300e+00 -2.8524091001896852e-02 -5.3843793338469625e-01 +5.3677458803240655e-03
7.9999999999999876e+00 +7.9181888818041681e+00 +0.0000000000000000e+00 +7.9999997266538738e+00 -2.8524085755935909e-02 -5.3843821769252520e-01 +5.3678016114639699e-03
8.0999999999999872e+00 +7.9181433206568341e+00 +0.0000000000000000e+00 +8.0999997162746489e+00 -2.8524100970162690e-02 -5.3843849358735818e-01 +5.3678599279730144e-03
8.1999999999999869e+00 +7.9180971935214650e+00 +0.0000000000000000e+00 +8.1999997056359515e+00 -2.8524135727817992e-02 -5.3843876167414428e-01 +5.3679207864360413e-03
8.2999999999999865e+00 +7.9180505003977810e+00 +0.0000000000000000e+00 +8.2999996947345789e+00 -2.8524188529534044e-02 -5.3843902277311406e-01 +5.3679841196796483e-03
8.3999999999999861e+00 +7.9180032412855086e+00 +0.0000000000000000e+00 +8.3999996835673265e+00 -2.8524257875884314e-02 -5.3843927770451039e-01 +5.3680498605268136e-03
8.4999999999999858e+00 +7.9179554161843813e+00 +0.0000000000000000e+00 +8.4999996721309916e+00 -2.8524342267381302e-02 -5.3843952728858802e-01 +5.3681179417967555e-03
8.5999999999999854e+00 +7.9179070250941388e+00 +0.0000000000000000e+00 +8.5999996604223696e+00 -2.8524440204474241e-02 -5.3843977234561491e-01 +5.3681882963047675e-03
8.6999999999999851e+00 +7.9178580680145245e+00 +0.0000000000000000e+00 +8.6999996484382578e+00 -2.8524550187546894e-02 -5.3844001369587058e-01 +5.3682608568620749e-03
8.7999999999999847e+00 +7.9178085449452862e+00 +0.0000000000000000e+00 +8.7999996361754516e+00 -2.8524670716915324e-02 -5.3844025215964708e-01 +5.3683355562756810e-03
8.8999999999999844e+00 +7.9177584558861751e+00 +0.0000000000000000e+00 +8.8999996236307481e+00 -2.8524800292825610e-02 -5.3844048855724802e-01 +5.3684123273482097e-03
8.9999999999999840e+00 +7.9177078008369435e+00 +0.0000000000000000e+00 +8.9999996108009430e+00 -2.8524937415451663e-02 -5.3844072370899032e-01 +5.3684911028777553e-03
9.0999999999999837e+00 +7.9176565797973470e+00 +0.0000000000000000e+00 +9.0999995976828334e+00 -2.8525080584892930e-02 -5.3844095843520146e-01 +5.3685718156577305e-03
9.1999999999999833e+00 +7.9176047927671398e+00 +0.0000000000000000e+00 +9.1999995842732165e+00 -2.8525228301172198e-02 -5.3844119355622200e-01 +5.3686543984767130e-03
9.2999999999999829e+00 +7.9175524397460757e+00 +0.0000000000000000e+00 +9.2999995705688878e+00 -2.8525379064233348e-02 -5.3844142989240407e-01 +5.3687387841182977e-03
9.3999999999999826e+00 +7.9174995207339087e+00 +0.0000000000000000e+00 +9.3999995565666445e+00 -2.8525531373939091e-02 -5.3844166826411166e-01 +5.3688249053609350e-03
9.4999999999999822e+00 +7.9174460357303893e+00 +0.0000000000000000e+00 +9.4999995422632821e+00 -2.8525683730068755e-02 -5.3844190949172055e-01 +5.3689126949777862e-03
9.5999999999999819e+00 +7.9173919847352661e+00 +0.0000000000000000e+00 +9.5999995276555978e+00 -2.8525834632316043e-02 -5.3844215439561860e-01 +5.3690020857365709e-03
9.6999999999999815e+00 +7.9173373677482832e+00 +0.0000000000000000e+00 +9.6999995127403871e+00 -2.8525982580286779e-02 -5.3844240379620500e-01 +5.3690930103994063e-03
9.7999999999999812e+00 +7.9172821847691797e+00 +0.0000000000000000e+00 +9.7999994975144471e+00 -2.8526126073496690e-02 -5.3844265851389073e-01 +5.3691854017226710e-03
9.8999999999999808e+00 +7.9172264357976898e+00 +0.0000000000000000e+00 +9.8999994819745734e+00 -2.8526263611369153e-02 -5.3844291936909860e-01 +5.3692791924568346e-03
9.9999999999999805e+00 +7.9171701208335410e+00 +0.0000000000000000e+00 +9.9999994661175631e+00 -2.8526393693232972e-02 -5.3844318718226269e-01 +5.3693743153463164e-03
1.0099999999999980e+01 +7.9171132398764534e+00 +0.0000000000000000e+00 +1.0099999449940212e+01 -2.8526515090129947e-02 -5.3844346265385801e-01 +5.3694706973385249e-03
1.0199999999999980e+01 +7.9170557929261394e+00 +0.0000000000000000e+00 +1.0199999433439316e+01 -2.8526627660302301e-02 -5.3844374600445810e-01 +5.3695682422115285e-03
1.0299999999999979e+01 +7.9169977799823030e+00 +0.0000000000000000e+00 +1.0299999416611673e+01 -2.8526731533828408e-02 -5.3844403733461121e-01 +5.3696668479477298e-03
1.0399999999999979e+01 +7.9169392010446398e+00 +0.0000000000000000e+00 +1.0399999399454078e+01 -2.8526826840815693e-02 -5.3844433674480907e-01 +5.3697664125249064e-03
1.0499999999999979e+01 +7.9168800561128370e+00 +0.0000000000000000e+00 +1.0499999381963327e+01 -2.8526913711401553e-02 -5.3844464433548300e-01 +5.3698668339161133e-03
1.0599999999999978e+01 +7.9168203451865731e+00 +0.0000000000000000e+00 +1.0599999364136218e+01 -2.8526992275754271e-02 -5.3844496020700450e-01 +5.3699680100895838e-03
1.0699999999999978e+01 +7.9167600682655177e+00 +0.0000000000000000e+00 +1.0699999345969548e+01 -2.8527062664073909e-02 -5.3844528445968187e-01 +5.3700698390086194e-03
1.0799999999999978e+01 +7.9166992253493325e+00 +0.0000000000000000e+00 +1.0799999327460110e+01 -2.8527125006593174e-02 -5.3844561719375938e-01 +5.3701722186314926e-03
1.0899999999999977e+01 +7.9166378164376692e+00 +0.0000000000000000e+00 +1.0899999308604702e+01 -2.8527179433578454e-02 -5.3844595850941568e-01 +5.3702750469113427e-03
1.0999999999999977e+01 +7.9165758415301717e+00 +0.0000000000000000e+00 +1.0999999289400121e+01 -2.8527226075330592e-02 -5.3844630850676134e-01 +5.3703782217960705e-03
1.1099999999999977e+01 +7.9165133006264732e+00 +0.0000000000000000e+00 +1.1099999269843162e+01 -2.8527265062185832e-02 -5.3844666728583734e-01 +5.3704816412282388e-03
1.1199999999999976e+01 +7.9164501937261988e+00 +0.0000000000000000e+00 +1.1199999249930622e+01 -2.8527296524516754e-02 -5.3844703494661417e-01 +5.3705852031449685e-03
1.1299999999999976e+01 +7.9163865208289641e+00 +0.0000000000000000e+00 +1.1299999229659297e+01 -2.8527320592733184e-02 -5.3844741158898934e-01 +5.3706888054778339e-03
1.1399999999999975e+01 +7.9163222819343755e+00 +0.0000000000000000e+00 +1.1399999209025983e+01 -2.8527337397283033e-02 -5.3844779731278580e-01 +5.3707923461527723e-03
1.1499999999999975e+01 +7.9162574770420289e+00 +0.0000000000000000e+00 +1.1499999188027477e+01 -2.8527347068653269e-02 -5.3844819221775031e-01 +5.3708957230899582e-03
1.1599999999999975e+01 +7.9161921061515113e+00 +0.0000000000000000e+00 +1.1599999166660574e+01 -2.8527349737370797e-02 -5.3844859640355192e-01 +5.3709988342037236e-03
1.1699999999999974e+01 +7.9161261692624008e+00 +0.0000000000000000e+00 +1.1699999144922071e+01 -2.8527345534003368e-02 -5.3844900996978029e-01 +5.3711015774024458e-03
1.1799999999999974e+01 +7.9160596663742639e+00 +0.0000000000000000e+00 +1.1799999122808764e+01 -2.8527334589160451e-02 -5.3844943301594328e-01 +5.3712038505884475e-03
