# field on trajectory
# s[mm] rx[mm] ry[mm] rz[mm] bx[T] by[T] bz[T]
-0.0000000000000000e+00 +8.1530000000000094e+00 +0.0000000000000000e+00 -0.0000000000000000e+00 -2.9947278131042549e-02 -5.6473351874078015e-01 +5.6437225171499456e-03
-1.0000000000000001e-01 +8.1529997159377707e+00 +0.0000000000000000e+00 -1.0008006405070299e-01 -2.9947225012644414e-02 -5.6473354785697394e-01 +5.6437842498342460e-03
-2.0000000000000001e-01 +8.1529988637557800e+00 +0.0000000000000000e+00 -2.0016012809818201e-01 -2.9947174643353450e-02 -5.6473359121828159e-01 +5.6438466859757416e-03
-2.9999999999999999e-01 +8.1529974434524792e+00 +0.0000000000000000e+00 -3.0024019213920999e-01 -2.9947126761358300e-02 -5.6473364782980429e-01 +5.6439099411346363e-03
-4.0000000000000002e-01 +8.1529954550242092e+00 +0.0000000000000000e+00 -4.0032025617056399e-01 -2.9947081104852613e-02 -5.6473371669664685e-01 +5.6439741308711667e-03
-5.0000000000000000e-01 +8.1529928984782600e+00 +0.0000000000000000e+00 -5.0040032018901703e-01 -2.9947037412029833e-02 -5.6473379682381997e-01 +5.6440393707446008e-03
-5.9999999999999998e-01 +8.1529897738146193e+00 +0.0000000000000000e+00 -6.0048038419134497e-01 -2.9946995421091499e-02 -5.6473388721638174e-01 +5.6441057763147217e-03
-6.9999999999999996e-01 +8.1529860810223909e+00 +0.0000000000000000e+00 -7.0056044817432195e-01 -2.9946954870249204e-02 -5.6473398687946663e-01 +5.6441734631421424e-03
-8.0000000000000004e-01 +8.1529818201124709e+00 +0.0000000000000000e+00 -8.0064051213472498e-01 -2.9946915497710863e-02 -5.6473409481803571e-01 +5.6442425467857675e-03
-9.0000000000000002e-01 +8.1529769910812302e+00 +0.0000000000000000e+00 -9.0072057606932698e-01 -2.9946877041696841e-02 -5.6473421003715707e-01 +5.6443131428056950e-03
-1.0000000000000000e+00 +8.1529715939250291e+00 +0.0000000000000000e+00 -1.0008006399749001e+00 -2.9946839240434071e-02 -5.6473433154189645e-01 +5.6443853667621164e-03
-1.1000000000000001e+00 +8.1529656286511507e+00 +0.0000000000000000e+00 -1.1008807038482300e+00 -2.9946801832151745e-02 -5.6473445833723357e-01 +5.6444593342144704e-03
-1.2000000000000000e+00 +8.1529590952522994e+00 +0.0000000000000000e+00 -1.2009607676860801e+00 -2.9946764555092747e-02 -5.6473458942826049e-01 +5.6445351607235196e-03
-1.3000000000000000e+00 +8.1529519937357708e+00 +0.0000000000000000e+00 -1.3010408314852300e+00 -2.9946727147501444e-02 -5.6473472381995771e-01 +5.6446129618490572e-03
-1.3999999999999999e+00 +8.1529443240979198e+00 +0.0000000000000000e+00 -1.4011208952424601e+00 -2.9946689347635135e-02 -5.6473486051739341e-01 +5.6446928531519829e-03
-1.5000000000000000e+00 +8.1529360863350995e+00 +0.0000000000000000e+00 -1.5012009589545301e+00 -2.9946650893759731e-02 -5.6473499852563991e-01 +5.6447749501934655e-03
-1.6000000000000001e+00 +8.1529272804509691e+00 +0.0000000000000000e+00 -1.6012810226182299e+00 -2.9946611524147029e-02 -5.6473513684971943e-01 +5.6448593685344012e-03
-1.7000000000000000e+00 +8.1529179064491508e+00 +0.0000000000000000e+00 -1.7013610862303301e+00 -2.9946570977078257e-02 -5.6473527449465977e-01 +5.6449462237360372e-03
-1.8000000000000000e+00 +8.1529079643223703e+00 +0.0000000000000000e+00 -1.8014411497875999e+00 -2.9946528990849167e-02 -5.6473541046558340e-01 +5.6450356313608573e-03
-1.8999999999999999e+00 +8.1528974540779000e+00 +0.0000000000000000e+00 -1.9015212132868200e+00 -2.9946485303759499e-02 -5.6473554376750967e-01 +5.6451277069706207e-03
-2.0000000000000000e+00 +8.1528863757084800e+00 +0.0000000000000000e+00 -2.0016012767247702e+00 -2.9946439654126369e-02 -5.6473567340558251e-01 +5.6452225661285582e-03
-2.1000000000000001e+00 +8.1528747292177304e+00 +0.0000000000000000e+00 -2.1016813400982199e+00 -2.9946391888728722e-02 -5.6473579865580226e-01 +5.6453202908169050e-03
-2.2000000000000002e+00 +8.1528625146056601e+00 +0.0000000000000000e+00 -2.2017614034039301e+00 -2.9946342267851495e-02 -5.6473591982714810e-01 +5.6454208349897804e-03
-2.2999999999999998e+00 +8.1528497318759001e+00 +0.0000000000000000e+00 -2.3018414666387002e+00 -2.9946291150308377e-02 -5.6473603747471834e-01 +5.6455241220951897e-03
-2.3999999999999999e+00 +8.1528363810211903e+00 +0.0000000000000000e+00 -2.4019215297993002e+00 -2.9946238894917876e-02 -5.6473615215371520e-01 +5.6456300755833681e-03
-2.5000000000000000e+00 +8.1528224620451493e+00 +0.0000000000000000e+00 -2.5020015928824901e+00 -2.9946185860493045e-02 -5.6473626441927804e-01 +5.6457386189051597e-03
-2.6000000000000001e+00 +8.1528079749477893e+00 +0.0000000000000000e+00 -2.6020816558850601e+00 -2.9946132405846995e-02 -5.6473637482659667e-01 +5.6458496755132830e-03
-2.7000000000000002e+00 +8.1527929197291105e+00 +0.0000000000000000e+00 -2.7021617188037701e+00 -2.9946078889790437e-02 -5.6473648393088649e-01 +5.6459631688621581e-03
-2.7999999999999998e+00 +8.1527772963891003e+00 +0.0000000000000000e+00 -2.8022417816354102e+00 -2.9946025671130971e-02 -5.6473659228738804e-01 +5.6460790224080156e-03
-2.8999999999999999e+00 +8.1527611049277802e+00 +0.0000000000000000e+00 -2.9023218443767500e+00 -2.9945973108672214e-02 -5.6473670045137048e-01 +5.6461971596090113e-03
-3.0000000000000000e+00 +8.1527443453451305e+00 +0.0000000000000000e+00 -3.0024019070245598e+00 -2.9945921561212983e-02 -5.6473680897813283e-01 +5.6463175039253403e-03
-3.1000000000000001e+00 +8.1527270176411495e+00 +0.0000000000000000e+00 -3.1024819695756198e+00 -2.9945871387546497e-02 -5.6473691842300466e-01 +5.6464399788193499e-03
-3.2000000000000002e+00 +8.1527091218158603e+00 +0.0000000000000000e+00 -3.2025620320267101e+00 -2.9945822946459592e-02 -5.6473702934134928e-01 +5.6465645077556454e-03
-3.2999999999999998e+00 +8.1526906578692397e+00 +0.0000000000000000e+00 -3.3026420943745900e+00 -2.9945776596731862e-02 -5.6473714228856409e-01 +5.6466910142012102e-03
-3.3999999999999999e+00 +8.1526716258013003e+00 +0.0000000000000000e+00 -3.4027221566160502e+00 -2.9945732697134866e-02 -5.6473725782008288e-01 +5.6468194216255149e-03
-3.5000000000000000e+00 +8.1526520256120403e+00 +0.0000000000000000e+00 -3.5028022187478500e+00 -2.9945691606431363e-02 -5.6473737649137812e-01 +5.6469496535006417e-03
-3.6000000000000001e+00 +8.1526318572978198e+00 +0.0000000000000000e+00 -3.6028822807667802e+00 -2.9945653683375973e-02 -5.6473749885798941e-01 +5.6470816333016568e-03
-3.7000000000000002e+00 +8.1526111208659096e+00 +0.0000000000000000e+00 -3.7029623426696099e+00 -2.9945619286708171e-02 -5.6473762547541362e-01 +5.6472152845056097e-03
-3.7999999999999998e+00 +8.1525898163126804e+00 +0.0000000000000000e+00 -3.8030424044531101e+00 -2.9945588775160834e-02 -5.6473775689927497e-01 +5.6473505305933338e-03
-3.8999999999999999e+00 +8.1525679436344909e+00 +0.0000000000000000e+00 -3.9031224661140600e+00 -2.9945562507454785e-02 -5.6473789368524274e-01 +5.6474872950487290e-03
-4.0000000000000000e+00 +8.1525455028386205e+00 +0.0000000000000000e+00 -4.0032025276492398e+00 -2.9945540842290598e-02 -5.6473803638894449e-01 +5.6476255013581883e-03
-4.0999999999999996e+00 +8.1525224939177896e+00 +0.0000000000000000e+00 -4.1032825890554099e+00 -2.9945524051020016e-02 -5.6473818545562149e-01 +5.6477650795771746e-03
-4.2000000000000002e+00 +8.1524989168792708e+00 +0.0000000000000000e+00 -4.2033626503293604e+00 -2.9945512087549385e-02 -5.6473834092866315e-01 +5.6479059836189146e-03
-4.2999999999999998e+00 +8.1524747717157897e+00 +0.0000000000000000e+00 -4.3034427114678504e+00 -2.9945504833680130e-02 -5.6473850276029525e-01 +5.6480481728136793e-03
-4.4000000000000004e+00 +8.1524500584346207e+00 +0.0000000000000000e+00 -4.4035227724676700e+00 -2.9945502171181752e-02 -5.6473867090258489e-01 +5.6481916064876460e-03
-4.5000000000000000e+00 +8.1524247770285001e+00 +0.0000000000000000e+00 -4.5036028333255800e+00 -2.9945503981802991e-02 -5.6473884530766150e-01 +5.6483362439649501e-03
-4.5999999999999996e+00 +8.1523989275046898e+00 +0.0000000000000000e+00 -4.6036828940383696e+00 -2.9945510147257954e-02 -5.6473902592748848e-01 +5.6484820445651335e-03
-4.7000000000000002e+00 +8.1523725098559208e+00 +0.0000000000000000e+00 -4.7037629546028104e+00 -2.9945520549237291e-02 -5.6473921271408356e-01 +5.6486289676051819e-03
-4.7999999999999998e+00 +8.1523455240894709e+00 +0.0000000000000000e+00 -4.8038430150156701e+00 -2.9945535069394406e-02 -5.6473940561929037e-01 +5.6487769723970026e-03
-4.9000000000000004e+00 +8.1523179701980606e+00 +0.0000000000000000e+00 -4.9039230752737302e+00 -2.9945553589356577e-02 -5.6473960459500117e-01 +5.6489260182494352e-03
-5.0000000000000000e+00 +8.1522898481889605e+00 +0.0000000000000000e+00 -5.0040031353737602e+00 -2.9945575990711015e-02 -5.6473980959292325e-01 +5.6490760644657273e-03
-5.0999999999999996e+00 +8.1522611580549000e+00 +0.0000000000000000e+00 -5.1040831953125396e+00 -2.9945602155016269e-02 -5.6474002056480677e-01 +5.6492270703455815e-03
-5.2000000000000002e+00 +8.1522318997995207e+00 +0.0000000000000000e+00 -5.2041632550868497e+00 -2.9945631963789719e-02 -5.6474023746223878e-01 +5.6493789951828832e-03
-5.2999999999999998e+00 +8.1522020734228100e+00 +0.0000000000000000e+00 -5.3042433146934496e+00 -2.9945665298512593e-02 -5.6474046023675439e-01 +5.6495317982665962e-03
-5.4000000000000004e+00 +8.1521716789247893e+00 +0.0000000000000000e+00 -5.4043233741291203e+00 -2.9945702040627055e-02 -5.6474068883980322e-01 +5.6496854388802384e-03
-5.5000000000000000e+00 +8.1521407163090807e+00 +0.0000000000000000e+00 -5.5044034333906504e+00 -2.9945742071533266e-02 -5.6474092322271918e-01 +5.6498398763013321e-03
-5.5999999999999996e+00 +8.1521091855684098e+00 +0.0000000000000000e+00 -5.6044834924747899e+00 -2.9945785272594401e-02 -5.6474116333682856e-01 +5.6499950698023172e-03
-5.7000000000000002e+00 +8.1520770867064094e+00 +0.0000000000000000e+00 -5.7045635513783299e+00 -2.9945831525125817e-02 -5.6474140913327631e-01 +5.6501509786485481e-03
-5.7999999999999998e+00 +8.1520444197231008e+00 +0.0000000000000000e+00 -5.8046436100980499e+00 -2.9945880710399990e-02 -5.6474166056313591e-01 +5.6503075620992164e-03
-5.9000000000000004e+00 +8.1520111846184609e+00 +0.0000000000000000e+00 -5.9047236686307096e+00 -2.9945932709643679e-02 -5.6474191757737702e-01 +5.6504647794068143e-03
-5.9999999999999902e+00 +8.1519773813925003e+00 +0.0000000000000000e+00 -6.0048037269731003e+00 -2.9945987404036256e-02 -5.6474218012685906e-01 +5.6506225898146478e-03
-6.0999999999999899e+00 +8.1519430100452208e+00 +0.0000000000000000e+00 -6.1048837851219799e+00 -2.9946044671648058e-02 -5.6474244813067442e-01 +5.6507809294537832e-03
-6.1999999999999904e+00 +8.1519080705766100e+00 +0.0000000000000000e+00 -6.2049638430741396e+00 -2.9946104379927199e-02 -5.6474272139817028e-01 +5.6509396543973564e-03
-6.2999999999999901e+00 +8.1518725629866804e+00 +0.0000000000000000e+00 -6.3050439008263499e+00 -2.9946166394059424e-02 -5.6474299971495834e-01 +5.6510986033941543e-03
-6.3999999999999897e+00 +8.1518364872754301e+00 +0.0000000000000000e+00 -6.4051239583753699e+00 -2.9946230579271788e-02 -5.6474328286666642e-01 +5.6512576151957258e-03
-6.4999999999999902e+00 +8.1517998434428591e+00 +0.0000000000000000e+00 -6.5052040157180002e+00 -2.9946296800834802e-02 -5.6474357063893621e-01 +5.6514165285565130e-03
-6.5999999999999899e+00 +8.1517626314889604e+00 +0.0000000000000000e+00 -6.6052840728510001e+00 -2.9946364924064790e-02 -5.6474386281742650e-01 +5.6515751822340246e-03
-6.6999999999999904e+00 +8.1517248514137499e+00 +0.0000000000000000e+00 -6.7053641297711399e+00 -2.9946434814326087e-02 -5.6474415918781562e-01 +5.6517334149890006e-03
-6.7999999999999901e+00 +8.1516865032135701e+00 +0.0000000000000000e+00 -6.8054441864752100e+00 -2.9946506337034915e-02 -5.6474445953582841e-01 +5.6518910655858510e-03
-6.8999999999999897e+00 +8.1516475868957095e+00 +0.0000000000000000e+00 -6.9055242429599701e+00 -2.9946579357655306e-02 -5.6474476364712733e-01 +5.6520479727916687e-03
-6.9999999999999902e+00 +8.1516081024565192e+00 +0.0000000000000000e+00 -7.0056042992222096e+00 -2.9946653741710818e-02 -5.6474507130748142e-01 +5.6522039753781261e-03
-7.0999999999999899e+00 +8.1515680498960101e+00 +0.0000000000000000e+00 -7.1056843552586999e+00 -2.9946729354780564e-02 -5.6474538230265647e-01 +5.6523589121204709e-03
-7.1999999999999904e+00 +8.1515274292141804e+00 +0.0000000000000000e+00 -7.2057644110662000e+00 -2.9946806062502940e-02 -5.6474569641844286e-01 +5.6525126217979874e-03
-7.2999999999999901e+00 +8.1514862404073902e+00 +0.0000000000000000e+00 -7.3058444666415099e+00 -2.9946883730579524e-02 -5.6474601344068642e-01 +5.6526649431944331e-03
-7.3999999999999897e+00 +8.1514444834829192e+00 +0.0000000000000000e+00 -7.4059245219813796e+00 -2.9946962224771053e-02 -5.6474633315517697e-01 +5.6528157150970626e-03
-7.4999999999999902e+00 +8.1514021584334806e+00 +0.0000000000000000e+00 -7.5060045770826100e+00 -2.9947041410910695e-02 -5.6474665534784718e-01 +5.6529647762987916e-03
-7.5999999999999899e+00 +8.1513592652663593e+00 +0.0000000000000000e+00 -7.6060846319419504e+00 -2.9947121154893636e-02 -5.6474697980454791e-01 +5.6531119655960646e-03
-7.6999999999999904e+00 +8.1513158039779192e+00 +0.0000000000000000e+00 -7.7061646865561997e+00 -2.9947201322690468e-02 -5.6474730631124681e-01 +5.6532571217910192e-03
-7.7999999999999901e+00 +8.1512717745681602e+00 +0.0000000000000000e+00 -7.8062447409221098e+00 -2.9947281780343137e-02 -5.6474763465391864e-01 +5.6534000836905166e-03
-7.8999999999999897e+00 +8.1512271770334301e+00 +0.0000000000000000e+00 -7.9063247950364799e+00 -2.9947362393970257e-02 -5.6474796461860033e-01 +5.6535406901068565e-03
-7.9999999999999902e+00 +8.1511820113773901e+00 +0.0000000000000000e+00 -8.0064048488960609e+00 -2.9947443029758068e-02 -5.6474829599132648e-01 +5.6536787798714769e-03
-8.0999999999999908e+00 +8.1511362776036496e+00 +0.0000000000000000e+00 -8.1064849024976393e+00 -2.9947523523065393e-02 -5.6474862862887387e-01 +5.6538142578792631e-03
-8.1999999999999904e+00 +8.1510899757086008e+00 +0.0000000000000000e+00 -8.2065649558379903e+00 -2.9947603607191588e-02 -5.6474896262173913e-01 +5.6539472472763707e-03
-8.2999999999999901e+00 +8.1510431056885899e+00 +0.0000000000000000e+00 -8.3066450089139003e+00 -2.9947682994381018e-02 -5.6474929810869479e-01 +5.6540779162160054e-03
-8.3999999999999897e+00 +8.1509956675508892e+00 +0.0000000000000000e+00 -8.4067250617221205e+00 -2.9947761396871723e-02 -5.6474963522853616e-01 +5.6542064328463666e-03
-8.4999999999999893e+00 +8.1509476612882299e+00 +0.0000000000000000e+00 -8.5068051142594392e+00 -2.9947838526906110e-02 -5.6474997412028127e-01 +5.6543329653124990e-03
-8.5999999999999908e+00 +8.1508990869078808e+00 +0.0000000000000000e+00 -8.6068851665226305e+00 -2.9947914096718004e-02 -5.6475031492294836e-01 +5.6544576817538520e-03
-8.6999999999999904e+00 +8.1508499444025801e+00 +0.0000000000000000e+00 -8.7069652185084596e+00 -2.9947987818544963e-02 -5.6475065777578581e-01 +5.6545807503064682e-03
-8.7999999999999794e+00 +8.1508002337759500e+00 +0.0000000000000000e+00 -8.8070452702137203e+00 -2.9948059404616929e-02 -5.6475100281807822e-01 +5.6547023391007997e-03
-8.8999999999999808e+00 +8.1507499550316407e+00 +0.0000000000000000e+00 -8.9071253216351796e+00 -2.9948128567160566e-02 -5.6475135018923162e-01 +5.6548226162624589e-03
-8.9999999999999805e+00 +8.1506991081623692e+00 +0.0000000000000000e+00 -9.0072053727696098e+00 -2.9948195018403741e-02 -5.6475170002886577e-01 +5.6549417499129348e-03
-9.0999999999999801e+00 +8.1506476931717806e+00 +0.0000000000000000e+00 -9.1072854236137797e+00 -2.9948258470565696e-02 -5.6475205247664473e-01 +5.6550599081677203e-03
-9.1999999999999797e+00 +8.1505957100635005e+00 +0.0000000000000000e+00 -9.2073654741644795e+00 -2.9948318635861480e-02 -5.6475240767236579e-01 +5.6551772591370512e-03
-9.2999999999999794e+00 +8.1505431588302599e+00 +0.0000000000000000e+00 -9.3074455244184708e+00 -2.9948375226506323e-02 -5.6475276575604838e-01 +5.6552939709266269e-03
-9.3999999999999808e+00 +8.1504900394757005e+00 +0.0000000000000000e+00 -9.4075255743725297e+00 -2.9948427954705849e-02 -5.6475312686776680e-01 +5.6554102116357363e-03
-9.4999999999999805e+00 +8.1504363520034495e+00 +0.0000000000000000e+00 -9.5076056240234408e+00 -2.9948476532660560e-02 -5.6475349114773910e-01 +5.6555261493579888e-03
-9.5999999999999801e+00 +8.1503820964062506e+00 +0.0000000000000000e+00 -9.6076856733679694e+00 -2.9948520672570127e-02 -5.6475385873641437e-01 +5.6556419521820592e-03
-9.6999999999999797e+00 +8.1503272726913600e+00 +0.0000000000000000e+00 -9.7077657224029004e+00 -2.9948560086622104e-02 -5.6475422977427892e-01 +5.6557577881894902e-03
-9.7999999999999794e+00 +8.1502718808515109e+00 +0.0000000000000000e+00 -9.8078457711250007e+00 -2.9948594487004182e-02 -5.6475460440208536e-01 +5.6558738254569030e-03
-9.8999999999999808e+00 +8.1502159208903304e+00 +0.0000000000000000e+00 -9.9079258195310498e+00 -2.9948623585892870e-02 -5.6475498276065861e-01 +5.6559902320538107e-03
-9.9999999999999805e+00 +8.1501593928078400e+00 +0.0000000000000000e+00 -1.0008005867617801e+01 -2.9948647095531220e-02 -5.6475536499095691e-01 +5.6561071760243302e-03
-1.0100000000000000e+01 +8.1501022966040200e+00 +0.0000000000000000e+00 -1.0108085915382100e+01 -2.9948664904567737e-02 -5.6475575110174414e-01 +5.6562247779559718e-03
-1.0199999999999999e+01 +8.1500446322825209e+00 +0.0000000000000000e+00 -1.0208165962820599e+01 -2.9948677457562092e-02 -5.6475614068470326e-01 +5.6563430089056361e-03
-1.0300000000000001e+01 +8.1499863998360507e+00 +0.0000000000000000e+00 -1.0308246009930199e+01 -2.9948685308307039e-02 -5.6475653324951680e-01 +5.6564618105518424e-03
-1.0400000000000000e+01 +8.1499275992682705e+00 +0.0000000000000000e+00 -1.0408326056707599e+01 -2.9948689010589096e-02 -5.6475692830562407e-01 +5.6565811245733915e-03
-1.0500000000000000e+01 +8.1498682305791608e+00 +0.0000000000000000e+00 -1.0508406103149600e+01 -2.9948689118194701e-02 -5.6475732536232970e-01 +5.6567008926506025e-03
-1.0600000000000000e+01 +8.1498082937723701e+00 +0.0000000000000000e+00 -1.0608486149253000e+01 -2.9948686184906884e-02 -5.6475772392874390e-01 +5.6568210564647810e-03
-1.0699999999999999e+01 +8.1497477888406102e+00 +0.0000000000000000e+00 -1.0708566195014500e+01 -2.9948680764511359e-02 -5.6475812351388843e-01 +5.6569415576994304e-03
-1.0800000000000001e+01 +8.1496867157875403e+00 +0.0000000000000000e+00 -1.0808646240430900e+01 -2.9948673410786979e-02 -5.6475852362652490e-01 +5.6570623380385729e-03
-1.0900000000000000e+01 +8.1496250746131391e+00 +0.0000000000000000e+00 -1.0908726285499000e+01 -2.9948664677511824e-02 -5.6475892377526227e-01 +5.6571833391679729e-03
-1.1000000000000000e+01 +8.1495628653174208e+00 +0.0000000000000000e+00 -1.1008806330215601e+01 -2.9948655118461450e-02 -5.6475932346852342e-01 +5.6573045027748783e-03
-1.1100000000000000e+01 +8.1495000879040198e+00 +0.0000000000000000e+00 -1.1108886374577500e+01 -2.9948645287407132e-02 -5.6475972221451332e-01 +5.6574257705478146e-03
-1.1199999999999999e+01 +8.1494367423620098e+00 +0.0000000000000000e+00 -1.1208966418581401e+01 -2.9948635738123633e-02 -5.6476011952135463e-01 +5.6575470841780731e-03
-1.1300000000000001e+01 +8.1493728287059604e+00 +0.0000000000000000e+00 -1.1309046462224000e+01 -2.9948627024371652e-02 -5.6476051489677448e-01 +5.6576683853565846e-03
-1.1400000000000000e+01 +8.1493083469249505e+00 +0.0000000000000000e+00 -1.1409126505502300e+01 -2.9948619699919705e-02 -5.6476090784849220e-01 +5.6577896157780309e-03
-1.1500000000000000e+01 +8.1492432970226201e+00 +0.0000000000000000e+00 -1.1509206548412800e+01 -2.9948614318526679e-02 -5.6476129788390628e-01 +5.6579107171377081e-03
-1.1600000000000000e+01 +8.1491776789989707e+00 +0.0000000000000000e+00 -1.1609286590952600e+01 -2.9948611433949463e-02 -5.6476168451023134e-01 +5.6580316311330460e-03
-1.1699999999999999e+01 +8.1491114928576298e+00 +0.0000000000000000e+00 -1.1709366633118099e+01 -2.9948611599939706e-02 -5.6476206723443456e-01 +5.6581522994630720e-03
