# field on trajectory
# s[mm] rx[mm] ry[mm] rz[mm] bx[T] by[T] bz[T]
-0.0000000000000000e+00 +8.1530000000000005e+00 +0.0000000000000000e+00 -0.0000000000000000e+00 -2.9947278131042549e-02 -5.6473351874078026e-01 +5.6437225171499473e-03
-1.0000000000000001e-01 +8.1529997163961507e+00 +0.0000000000000000e+00 -9.9999999999463796e-02 -2.9947225054003698e-02 -5.6473354782782326e-01 +5.6437842001820270e-03
-2.0000000000000001e-01 +8.1529988655856904e+00 +0.0000000000000000e+00 -1.9999999999571000e-01 -2.9947174721882380e-02 -5.6473359113795729e-01 +5.6438465854535642e-03
-2.9999999999999999e-01 +8.1529974475670297e+00 +0.0000000000000000e+00 -2.9999999998552201e-01 -2.9947126873495076e-02 -5.6473364767866874e-01 +5.6439097882476459e-03
-4.0000000000000002e-01 +8.1529954623438208e+00 +0.0000000000000000e+00 -3.9999999996568297e-01 -2.9947081247660115e-02 -5.6473371645739256e-01 +5.6439739238468021e-03
-5.0000000000000000e-01 +8.1529929099124292e+00 +0.0000000000000000e+00 -4.9999999993297400e-01 -2.9947037583203481e-02 -5.6473379648160948e-01 +5.6440391075340476e-03
-5.9999999999999998e-01 +8.1529897902728408e+00 +0.0000000000000000e+00 -5.9999999988417896e-01 -2.9946995618954499e-02 -5.6473388675876335e-01 +5.6441054545920402e-03
-6.9999999999999996e-01 +8.1529861034287006e+00 +0.0000000000000000e+00 -6.9999999981608096e-01 -2.9946955093746248e-02 -5.6473398629626292e-01 +5.6441730803031250e-03
-8.0000000000000004e-01 +8.1529818493763706e+00 +0.0000000000000000e+00 -7.9999999972546199e-01 -2.9946915746420690e-02 -5.6473409410156694e-01 +5.6442420999502328e-03
-9.0000000000000002e-01 +8.1529770281158598e+00 +0.0000000000000000e+00 -8.9999999960910604e-01 -2.9946877315824353e-02 -5.6473420918210238e-01 +5.6443126288160568e-03
-1.0000000000000000e+00 +8.1529716396507901e+00 +0.0000000000000000e+00 -9.9999999946379403e-01 -2.9946839540808744e-02 -5.6473433054526367e-01 +5.6443847821830827e-03
-1.1000000000000001e+00 +8.1529656839775306e+00 +0.0000000000000000e+00 -1.0999999992863101e+00 -2.9946802160235445e-02 -5.6473445719850179e-01 +5.6444586753344964e-03
-1.2000000000000000e+00 +8.1529591610960797e+00 +0.0000000000000000e+00 -1.1999999990734400e+00 -2.9946764912971852e-02 -5.6473458814923738e-01 +5.6445344235533526e-03
-1.3000000000000000e+00 +8.1529520710100805e+00 +0.0000000000000000e+00 -1.2999999988219599e+00 -2.9946727537891547e-02 -5.6473472240486644e-01 +5.6446121421226143e-03
-1.3999999999999999e+00 +8.1529444137122500e+00 +0.0000000000000000e+00 -1.3999999985286500e+00 -2.9946689773880993e-02 -5.6473485897287035e-01 +5.6446919463263396e-03
-1.5000000000000000e+00 +8.1529361892135093e+00 +0.0000000000000000e+00 -1.4999999981903001e+00 -2.9946651359827381e-02 -5.6473499686059558e-01 +5.6447739514474179e-03
-1.6000000000000001e+00 +8.1529273975065699e+00 +0.0000000000000000e+00 -1.5999999978037001e+00 -2.9946612034634775e-02 -5.6473513507553352e-01 +5.6448582727704867e-03
-1.7000000000000000e+00 +8.1529180385914497e+00 +0.0000000000000000e+00 -1.6999999973656199e+00 -2.9946571537213421e-02 -5.6473527262512724e-01 +5.6449450255799420e-03
-1.8000000000000000e+00 +8.1529081124681397e+00 +0.0000000000000000e+00 -1.7999999968728499e+00 -2.9946529606483439e-02 -5.6473540851682735e-01 +5.6450343251605636e-03
-1.8999999999999999e+00 +8.1528976191402798e+00 +0.0000000000000000e+00 -1.8999999963221601e+00 -2.9946485981373568e-02 -5.6473554175806817e-01 +5.6451262867972642e-03
-2.0000000000000000e+00 +8.1528865586042194e+00 +0.0000000000000000e+00 -1.9999999957103500e+00 -2.9946440400826276e-02 -5.6473567135634983e-01 +5.6452210257759801e-03
-2.1000000000000001e+00 +8.1528749308599799e+00 +0.0000000000000000e+00 -2.0999999950341901e+00 -2.9946392706959039e-02 -5.6473579657687101e-01 +5.6453186254401527e-03
-2.2000000000000002e+00 +8.1528627359111905e+00 +0.0000000000000000e+00 -2.1999999942904802e+00 -2.9946343154557825e-02 -5.6473591771566778e-01 +5.6454190413628598e-03
-2.2999999999999998e+00 +8.1528499737542006e+00 +0.0000000000000000e+00 -2.2999999934759798e+00 -2.9946292101578991e-02 -5.6473603532656302e-01 +5.6455221971762381e-03
-2.3999999999999999e+00 +8.1528366443890299e+00 +0.0000000000000000e+00 -2.3999999925874800e+00 -2.9946239905977435e-02 -5.6473614996337151e-01 +5.6456280165134961e-03
-2.5000000000000000e+00 +8.1528227478193003e+00 +0.0000000000000000e+00 -2.4999999916217801e+00 -2.9946186925705772e-02 -5.6473626217990036e-01 +5.6457364230090195e-03
-2.6000000000000001e+00 +8.1528082840413791e+00 +0.0000000000000000e+00 -2.5999999905756401e+00 -2.9946133518718249e-02 -5.6473637253003628e-01 +5.6458473402993510e-03
-2.7000000000000002e+00 +8.1527932530552807e+00 +0.0000000000000000e+00 -2.6999999894458502e+00 -2.9946080042965197e-02 -5.6473648156766199e-01 +5.6459606920224326e-03
-2.7999999999999998e+00 +8.1527776548646198e+00 +0.0000000000000000e+00 -2.7999999882291999e+00 -2.9946026856392249e-02 -5.6473658984665831e-01 +5.6460764018177309e-03
-2.8999999999999999e+00 +8.1527614894657692e+00 +0.0000000000000000e+00 -2.8999999869224702e+00 -2.9945974316944242e-02 -5.6473669792099024e-01 +5.6461943933271957e-03
-3.0000000000000000e+00 +8.1527447568587394e+00 +0.0000000000000000e+00 -2.9999999855224302e+00 -2.9945922782559690e-02 -5.6473680634462409e-01 +5.6463145901945273e-03
-3.1000000000000001e+00 +8.1527274570471508e+00 +0.0000000000000000e+00 -3.0999999840258798e+00 -2.9945872611169978e-02 -5.6473691567152939e-01 +5.6464369160652682e-03
-3.2000000000000002e+00 +8.1527095900273707e+00 +0.0000000000000000e+00 -3.1999999824295902e+00 -2.9945824160703263e-02 -5.6473702645576440e-01 +5.6465612945877973e-03
-3.2999999999999998e+00 +8.1526911557994008e+00 +0.0000000000000000e+00 -3.2999999807303602e+00 -2.9945777789078951e-02 -5.6473713925139402e-01 +5.6466876494125724e-03
-3.3999999999999999e+00 +8.1526721543668792e+00 +0.0000000000000000e+00 -3.3999999789249502e+00 -2.9945733854206919e-02 -5.6473725461249136e-01 +5.6468159041922370e-03
-3.5000000000000000e+00 +8.1526525857261696e+00 +0.0000000000000000e+00 -3.4999999770101602e+00 -2.9945692713991331e-02 -5.6473737309322314e-01 +5.6469459825825991e-03
-3.6000000000000001e+00 +8.1526324498772702e+00 +0.0000000000000000e+00 -3.5999999749827598e+00 -2.9945654726325245e-02 -5.6473749524776773e-01 +5.6470778082418870e-03
-3.7000000000000002e+00 +8.1526117468238208e+00 +0.0000000000000000e+00 -3.6999999728395401e+00 -2.9945620249089720e-02 -5.6473762163031727e-01 +5.6472113048308533e-03
-3.7999999999999998e+00 +8.1525904765621799e+00 +0.0000000000000000e+00 -3.7999999705772902e+00 -2.9945589640157706e-02 -5.6473775279516192e-01 +5.6473463960137506e-03
-3.8999999999999999e+00 +8.1525686390959908e+00 +0.0000000000000000e+00 -3.8999999681927799e+00 -2.9945563257386981e-02 -5.6473788929658053e-01 +5.6474830054572970e-03
-4.0000000000000000e+00 +8.1525462344179704e+00 +0.0000000000000000e+00 -3.9999999656827998e+00 -2.9945541458627257e-02 -5.6473803168898296e-01 +5.6476210568322319e-03
-4.0999999999999996e+00 +8.1525232625354001e+00 +0.0000000000000000e+00 -4.0999999630441302e+00 -2.9945524522423425e-02 -5.6473818042636403e-01 +5.6477604797705071e-03
-4.2000000000000002e+00 +8.1524997234482708e+00 +0.0000000000000000e+00 -4.1999999602735496e+00 -2.9945512410166585e-02 -5.6473833556139441e-01 +5.6479012277425135e-03
-4.2999999999999998e+00 +8.1524756171529607e+00 +0.0000000000000000e+00 -4.2999999573678496e+00 -2.9945505003940876e-02 -5.6473849704638757e-01 +5.6480432601758541e-03
-4.4000000000000004e+00 +8.1524509436494608e+00 +0.0000000000000000e+00 -4.3999999543238104e+00 -2.9945502185803365e-02 -5.6473866483358404e-01 +5.6481865364949296e-03
-4.5000000000000000e+00 +8.1524257029377605e+00 +0.0000000000000000e+00 -4.4999999511382098e+00 -2.9945503837784198e-02 -5.6473883887517340e-01 +5.6483310161209574e-03
-4.5999999999999996e+00 +8.1523998950215208e+00 +0.0000000000000000e+00 -4.5999999478078299e+00 -2.9945509841883697e-02 -5.6473901912326341e-01 +5.6484766584714409e-03
-4.7000000000000002e+00 +8.1523735198970808e+00 +0.0000000000000000e+00 -4.6999999443294600e+00 -2.9945520080075849e-02 -5.6473920552996237e-01 +5.6486234229607942e-03
-4.7999999999999998e+00 +8.1523465775644599e+00 +0.0000000000000000e+00 -4.7999999406998803e+00 -2.9945534434302104e-02 -5.6473939804728712e-01 +5.6487712689992061e-03
-4.9000000000000004e+00 +8.1523190680272801e+00 +0.0000000000000000e+00 -4.8999999369158704e+00 -2.9945552786470146e-02 -5.6473959662716300e-01 +5.6489201559924082e-03
-5.0000000000000000e+00 +8.1522909912819195e+00 +0.0000000000000000e+00 -4.9999999329742204e+00 -2.9945575018457276e-02 -5.6473980122150214e-01 +5.6490700433422854e-03
-5.0999999999999996e+00 +8.1522623473319999e+00 +0.0000000000000000e+00 -5.0999999288717000e+00 -2.9945601012102696e-02 -5.6474001178208710e-01 +5.6492208904454612e-03
-5.2000000000000002e+00 +8.1522331361738907e+00 +0.0000000000000000e+00 -5.1999999246051098e+00 -2.9945630649212594e-02 -5.6474022826068115e-01 +5.6493726566942204e-03
-5.2999999999999998e+00 +8.1522033578075899e+00 +0.0000000000000000e+00 -5.2999999201712198e+00 -2.9945663811553988e-02 -5.6474045060893885e-01 +5.6495253014753784e-03
-5.4000000000000004e+00 +8.1521730122331100e+00 +0.0000000000000000e+00 -5.3999999155668199e+00 -2.9945700380855020e-02 -5.6474067877843026e-01 +5.6496787841703250e-03
-5.5000000000000000e+00 +8.1521420994540694e+00 +0.0000000000000000e+00 -5.4999999107886799e+00 -2.9945740238802025e-02 -5.6474091272060978e-01 +5.6498330641544916e-03
-5.5999999999999996e+00 +8.1521106194668391e+00 +0.0000000000000000e+00 -5.5999999058335996e+00 -2.9945783267042975e-02 -5.6474115238689582e-01 +5.6499881007979515e-03
-5.7000000000000002e+00 +8.1520785722750606e+00 +0.0000000000000000e+00 -5.6999999006983604e+00 -2.9945829347179740e-02 -5.6474139772855514e-01 +5.6501438534640337e-03
-5.7999999999999998e+00 +8.1520459578750906e+00 +0.0000000000000000e+00 -5.7999998953797300e+00 -2.9945878360773160e-02 -5.6474164869681176e-01 +5.6503002815102184e-03
-5.9000000000000004e+00 +8.1520127762669308e+00 +0.0000000000000000e+00 -5.8999998898744996e+00 -2.9945930189336958e-02 -5.6474190524275747e-01 +5.6504573442870219e-03
-5.9999999999999902e+00 +8.1519790274505795e+00 +0.0000000000000000e+00 -5.9999998841794504e+00 -2.9945984714337962e-02 -5.6474216731737725e-01 +5.6506150011380327e-03
-6.0999999999999899e+00 +8.1519447114296799e+00 +0.0000000000000000e+00 -6.0999998782913698e+00 -2.9946041814539380e-02 -5.6474243484407094e-01 +5.6507731913663208e-03
-6.1999999999999904e+00 +8.1519098282005906e+00 +0.0000000000000000e+00 -6.1999998722070400e+00 -2.9946101358072155e-02 -5.6474270763643719e-01 +5.6509317741389913e-03
-6.2999999999999901e+00 +8.1518743777669407e+00 +0.0000000000000000e+00 -6.2999998659232403e+00 -2.9946163210441825e-02 -5.6474298548057422e-01 +5.6510905885911048e-03
-6.3999999999999897e+00 +8.1518383601214701e+00 +0.0000000000000000e+00 -6.3999998594367504e+00 -2.9946227237199641e-02 -5.6474326816267806e-01 +5.6512494738613327e-03
-6.4999999999999902e+00 +8.1518017752750893e+00 +0.0000000000000000e+00 -6.4999998527443603e+00 -2.9946293303932253e-02 -5.6474355546881971e-01 +5.6514082690897784e-03
-6.5999999999999899e+00 +8.1517646232205205e+00 +0.0000000000000000e+00 -6.5999998458428504e+00 -2.9946361276279695e-02 -5.6474384718522797e-01 +5.6515668134210408e-03
-6.6999999999999904e+00 +8.1517269039541098e+00 +0.0000000000000000e+00 -6.6999998387290001e+00 -2.9946431019928190e-02 -5.6474414309812160e-01 +5.6517249460026377e-03
-6.7999999999999901e+00 +8.1516886174867995e+00 +0.0000000000000000e+00 -6.7999998313996004e+00 -2.9946502400607627e-02 -5.6474444299362547e-01 +5.6518825059842983e-03
-6.8999999999999897e+00 +8.1516497638112906e+00 +0.0000000000000000e+00 -6.8999998238514202e+00 -2.9946575284108112e-02 -5.6474474665802787e-01 +5.6520393325207282e-03
-6.9999999999999902e+00 +8.1516103429239593e+00 +0.0000000000000000e+00 -6.9999998160812602e+00 -2.9946649536272640e-02 -5.6474505387761065e-01 +5.6521952647700267e-03
-7.0999999999999899e+00 +8.1515703548320708e+00 +0.0000000000000000e+00 -7.0999998080858804e+00 -2.9946725022996262e-02 -5.6474536443859458e-01 +5.6523501418932710e-03
-7.1999999999999904e+00 +8.1515297995356395e+00 +0.0000000000000000e+00 -7.1999997998620904e+00 -2.9946801610236211e-02 -5.6474567812728316e-01 +5.6525038030561412e-03
-7.2999999999999901e+00 +8.1514886770310095e+00 +0.0000000000000000e+00 -7.2999997914066501e+00 -2.9946879164012542e-02 -5.6474599473003384e-01 +5.6526560874287594e-03
-7.3999999999999897e+00 +8.1514469873182005e+00 +0.0000000000000000e+00 -7.3999997827163604e+00 -2.9946957550407285e-02 -5.6474631403320508e-01 +5.6528068341852962e-03
-7.4999999999999902e+00 +8.1514047304008308e+00 +0.0000000000000000e+00 -7.4999997737879900e+00 -2.9947036635566672e-02 -5.6474663582315687e-01 +5.6529558825041274e-03
-7.5999999999999899e+00 +8.1513619062752696e+00 +0.0000000000000000e+00 -7.5999997646183202e+00 -2.9947116285708085e-02 -5.6474695988633494e-01 +5.6531030715688511e-03
-7.6999999999999904e+00 +8.1513185149451601e+00 +0.0000000000000000e+00 -7.6999997552041499e+00 -2.9947196367116055e-02 -5.6474728600916324e-01 +5.6532482405673035e-03
-7.7999999999999901e+00 +8.1512745564032194e+00 +0.0000000000000000e+00 -7.7999997455422498e+00 -2.9947276746152388e-02 -5.6474761397818296e-01 +5.6533912286931649e-03
-7.8999999999999897e+00 +8.1512300306567305e+00 +0.0000000000000000e+00 -7.8999997356294100e+00 -2.9947357289247321e-02 -5.6474794357985825e-01 +5.6535318751440855e-03
-7.9999999999999902e+00 +8.1511849377056897e+00 +0.0000000000000000e+00 -7.9999997254624002e+00 -2.9947437862911336e-02 -5.6474827460074695e-01 +5.6536700191235937e-03
-8.0999999999999908e+00 +8.1511392775464593e+00 +0.0000000000000000e+00 -8.0999997150380096e+00 -2.9947518308116622e-02 -5.6474860688608042e-01 +5.6538055545974700e-03
-8.1999999999999904e+00 +8.1510930501790408e+00 +0.0000000000000000e+00 -8.1999997043530293e+00 -2.9947598363410051e-02 -5.6474894051555680e-01 +5.6539385945614667e-03
-8.2999999999999901e+00 +8.1510462556034309e+00 +0.0000000000000000e+00 -8.2999996934042404e+00 -2.9947677741724570e-02 -5.6474927562758093e-01 +5.6540693067655282e-03
-8.3999999999999897e+00 +8.1509988938232691e+00 +0.0000000000000000e+00 -8.3999996821884100e+00 -2.9947756155989984e-02 -5.6474961236063592e-01 +5.6541978589551819e-03
-8.4999999999999893e+00 +8.1509509648349194e+00 +0.0000000000000000e+00 -8.4999996707023406e+00 -2.9947833319137286e-02 -5.6474995085337087e-01 +5.6543244188722438e-03
-8.5999999999999908e+00 +8.1509024686420197e+00 +0.0000000000000000e+00 -8.5999996589427994e+00 -2.9947908944092178e-02 -5.6475029124449128e-01 +5.6544491542535576e-03
-8.6999999999999904e+00 +8.1508534052409196e+00 +0.0000000000000000e+00 -8.6999996469065692e+00 -2.9947982743780879e-02 -5.6475063367287537e-01 +5.6545722328319795e-03
-8.7999999999999794e+00 +8.1508037746316404e+00 +0.0000000000000000e+00 -8.7999996345904599e+00 -2.9948054431125207e-02 -5.6475097827749277e-01 +5.6546938223353957e-03
-8.8999999999999808e+00 +8.1507535768178094e+00 +0.0000000000000000e+00 -8.8999996219912205e+00 -2.9948123719042184e-02 -5.6475132519740778e-01 +5.6548140904865802e-03
-8.9999999999999805e+00 +8.1507028117957798e+00 +0.0000000000000000e+00 -8.9999996091056396e+00 -2.9948190320448449e-02 -5.6475167457186715e-01 +5.6549332050039218e-03
-9.0999999999999801e+00 +8.1506514795655693e+00 +0.0000000000000000e+00 -9.0999995959305195e+00 -2.9948253948255222e-02 -5.6475202654021850e-01 +5.6550513336004245e-03
-9.1999999999999797e+00 +8.1505995801308000e+00 +0.0000000000000000e+00 -9.1999995824626293e+00 -2.9948314315367999e-02 -5.6475238124191507e-01 +5.6551686439835613e-03
-9.2999999999999794e+00 +8.1505471134878498e+00 +0.0000000000000000e+00 -9.2999995686987500e+00 -2.9948371134690909e-02 -5.6475273881660115e-01 +5.6552853038560119e-03
-9.3999999999999808e+00 +8.1504940796366991e+00 +0.0000000000000000e+00 -9.3999995546356701e+00 -2.9948424119121700e-02 -5.6475309940403384e-01 +5.6554014809146579e-03
-9.4999999999999805e+00 +8.1504404785773694e+00 +0.0000000000000000e+00 -9.4999995402701707e+00 -2.9948472981552950e-02 -5.6475346314411135e-01 +5.6555173428507240e-03
-9.5999999999999801e+00 +8.1503863103171206e+00 +0.0000000000000000e+00 -9.5999995255990296e+00 -2.9948517434868680e-02 -5.6475383017682279e-01 +5.6556330573490762e-03
-9.6999999999999797e+00 +8.1503315748450404e+00 +0.0000000000000000e+00 -9.6999995106190298e+00 -2.9948557191954932e-02 -5.6475420064244641e-01 +5.6557487920900979e-03
-9.7999999999999794e+00 +8.1502762721684103e+00 +0.0000000000000000e+00 -9.7999994953269702e+00 -2.9948591965683814e-02 -5.6475457468127288e-01 +5.6558647147466621e-03
-9.8999999999999808e+00 +8.1502204022835905e+00 +0.0000000000000000e+00 -9.8999994797196091e+00 -2.9948621468925709e-02 -5.6475495243383333e-01 +5.6559809929863109e-03
-9.9999999999999805e+00 +8.1501639651905897e+00 +0.0000000000000000e+00 -9.9999994637937508e+00 -2.9948645414542629e-02 -5.6475533404078926e-01 +5.6560977944699522e-03
-1.0100000000000000e+01 +8.1501069608966592e+00 +0.0000000000000000e+00 -1.0099999447546200e+01 -2.9948663655319840e-02 -5.6475571953792048e-01 +5.6562152492131883e-03
-1.0199999999999999e+01 +8.1500493893909205e+00 +0.0000000000000000e+00 -1.0199999430973600e+01 -2.9948676603787642e-02 -5.6475610854124392e-01 +5.6563333366735878e-03
-1.0300000000000001e+01 +8.1499912506769796e+00 +0.0000000000000000e+00 -1.0299999414073000e+01 -2.9948684812406173e-02 -5.6475650056154603e-01 +5.6564519986685661e-03
-1.0400000000000000e+01 +8.1499325447584905e+00 +0.0000000000000000e+00 -1.0399999396840901e+01 -2.9948688833634014e-02 -5.6475689510945526e-01 +5.6565711770166895e-03
-1.0500000000000000e+01 +8.1498732716317992e+00 +0.0000000000000000e+00 -1.0499999379274200e+01 -2.9948689219931327e-02 -5.6475729169549527e-01 +5.6566908135383164e-03
-1.0600000000000000e+01 +8.1498134313005703e+00 +0.0000000000000000e+00 -1.0599999361369800e+01 -2.9948686523753248e-02 -5.6475768982996677e-01 +5.6568108500544972e-03
-1.0699999999999999e+01 +8.1497530237611500e+00 +0.0000000000000000e+00 -1.0699999343124301e+01 -2.9948681297556103e-02 -5.6475808902305624e-01 +5.6569312283881795e-03
-1.0800000000000001e+01 +8.1496920490171796e+00 +0.0000000000000000e+00 -1.0799999324534600e+01 -2.9948674093790918e-02 -5.6475848878471824e-01 +5.6570518903631172e-03
-1.0900000000000000e+01 +8.1496305070650106e+00 +0.0000000000000000e+00 -1.0899999305597399e+01 -2.9948665464909541e-02 -5.6475888862478407e-01 +5.6571727778050732e-03
-1.1000000000000000e+01 +8.1495683979046607e+00 +0.0000000000000000e+00 -1.0999999286309500e+01 -2.9948655963359737e-02 -5.6475928805287134e-01 +5.6572938325410056e-03
-1.1100000000000000e+01 +8.1495057215361193e+00 +0.0000000000000000e+00 -1.1099999266667700e+01 -2.9948646141586644e-02 -5.6475968657840969e-01 +5.6574149963994251e-03
-1.1199999999999999e+01 +8.1494424779630208e+00 +0.0000000000000000e+00 -1.1199999246668799e+01 -2.9948636552030981e-02 -5.6476008371060660e-01 +5.6575362112101556e-03
-1.1300000000000001e+01 +8.1493786671817396e+00 +0.0000000000000000e+00 -1.1299999226309600e+01 -2.9948627747133603e-02 -5.6476047895852710e-01 +5.6576574188052465e-03
-1.1400000000000000e+01 +8.1493142891922599e+00 +0.0000000000000000e+00 -1.1399999205586900e+01 -2.9948620279330637e-02 -5.6476087183100609e-01 +5.6577785610181794e-03
-1.1500000000000000e+01 +8.1492493440018698e+00 +0.0000000000000000e+00 -1.1499999184497300e+01 -2.9948614701051743e-02 -5.6476126183661446e-01 +5.6578995796836198e-03
-1.1600000000000000e+01 +8.1491838315996592e+00 +0.0000000000000000e+00 -1.1599999163037801e+01 -2.9948611564730887e-02 -5.6476164848385169e-01 +5.6580204166395047e-03
-1.1699999999999999e+01 +8.1491177519928897e+00 +0.0000000000000000e+00 -1.1699999141205099e+01 -2.9948611422790577e-02 -5.6476203128086022e-01 +5.6581410137242069e-03
