# trajectory
# s[mm] rx[mm] ry[mm] rz[mm] px[rad] py[rad] pz[rad]
0.0000000000000000e+00 +8.1649999999999991e+00 +0.0000000000000000e+00 +0.0000000000000000e+00 +0.0000000000000000e+00 +0.0000000000000000e+00 +1.0000000000000000e+00
1.0000000000000001e-01 +8.1649997165700778e+00 +0.0000000000000000e+00 +9.9999999999464462e-02 -5.6685994098630149e-06 +0.0000000000000000e+00 +9.9999999998393352e-01
2.0000000000000001e-01 +8.1649988662799213e+00 +0.0000000000000000e+00 +1.9999999999571560e-01 -1.1337204689564789e-05 +0.0000000000000000e+00 +9.9999999993573396e-01
3.0000000000000004e-01 +8.1649974491289452e+00 +0.0000000000000000e+00 +2.9999999998554011e-01 -1.7005815784641334e-05 +0.0000000000000000e+00 +9.9999999985540122e-01
4.0000000000000002e-01 +8.1649954651165721e+00 +0.0000000000000000e+00 +3.9999999996572472e-01 -2.2674432644624445e-05 +0.0000000000000000e+00 +9.9999999974293519e-01
5.0000000000000000e-01 +8.1649929142422266e+00 +0.0000000000000000e+00 +4.9999999993305605e-01 -2.8343055223041722e-05 +0.0000000000000000e+00 +9.9999999959833574e-01
5.9999999999999998e-01 +8.1649897965053384e+00 +0.0000000000000000e+00 +5.9999999988432073e-01 -3.4011683477416628e-05 +0.0000000000000000e+00 +9.9999999942160278e-01
6.9999999999999996e-01 +8.1649861119053426e+00 +0.0000000000000000e+00 +6.9999999981630545e-01 -3.9680317369268581e-05 +0.0000000000000000e+00 +9.9999999921273630e-01
7.9999999999999993e-01 +8.1649818604416780e+00 +0.0000000000000000e+00 +7.9999999972579683e-01 -4.5348956864113037e-05 +0.0000000000000000e+00 +9.9999999897173619e-01
8.9999999999999991e-01 +8.1649770421137848e+00 +0.0000000000000000e+00 +8.9999999960958155e-01 -5.1017601931461661e-05 +0.0000000000000000e+00 +9.9999999869860223e-01
9.9999999999999989e-01 +8.1649716569211073e+00 +0.0000000000000000e+00 +9.9999999946444618e-01 -5.6686252544822456e-05 +0.0000000000000000e+00 +9.9999999839333442e-01
1.0999999999999999e+00 +8.1649657048630910e+00 +0.0000000000000000e+00 +1.0999999992871774e+00 -6.2354908681699973e-05 +0.0000000000000000e+00 +9.9999999805593276e-01
1.2000000000000000e+00 +8.1649591859391872e+00 +0.0000000000000000e+00 +1.1999999990745618e+00 -6.8023570323595529e-05 +0.0000000000000000e+00 +9.9999999768639702e-01
1.3000000000000000e+00 +8.1649521001488434e+00 +0.0000000000000000e+00 +1.2999999988233857e+00 -7.3692237456007424e-05 +0.0000000000000000e+00 +9.9999999728472710e-01
1.4000000000000001e+00 +8.1649444474915125e+00 +0.0000000000000000e+00 +1.3999999985304359e+00 -7.9360910068431245e-05 +0.0000000000000000e+00 +9.9999999685092300e-01
1.5000000000000002e+00 +8.1649362279666473e+00 +0.0000000000000000e+00 +1.4999999981924990e+00 -8.5029588154360137e-05 +0.0000000000000000e+00 +9.9999999638498460e-01
1.6000000000000003e+00 +8.1649274415736990e+00 +0.0000000000000000e+00 +1.5999999978063615e+00 -9.0698271711285136e-05 +0.0000000000000000e+00 +9.9999999588691180e-01
1.7000000000000004e+00 +8.1649180883121222e+00 +0.0000000000000000e+00 +1.6999999973688100e+00 -9.6366960740695514e-05 +0.0000000000000000e+00 +9.9999999535670447e-01
1.8000000000000005e+00 +8.1649081681813680e+00 +0.0000000000000000e+00 +1.7999999968766311e+00 -1.0203565524807917e-04 +0.0000000000000000e+00 +9.9999999479436252e-01
1.9000000000000006e+00 +8.1648976811808893e+00 +0.0000000000000000e+00 +1.8999999963266114e+00 -1.0770435524292299e-04 +0.0000000000000000e+00 +9.9999999419988594e-01
2.0000000000000004e+00 +8.1648866273101355e+00 +0.0000000000000000e+00 +1.9999999957155372e+00 -1.1337306073871338e-04 +0.0000000000000000e+00 +9.9999999357327451e-01
2.1000000000000005e+00 +8.1648750065685576e+00 +0.0000000000000000e+00 +2.0999999950401951e+00 -1.1904177175271584e-04 +0.0000000000000000e+00 +9.9999999291452824e-01
2.2000000000000006e+00 +8.1648628189556014e+00 +0.0000000000000000e+00 +2.1999999942973716e+00 -1.2471048830354744e-04 +0.0000000000000000e+00 +9.9999999222364699e-01
2.3000000000000007e+00 +8.1648500644707127e+00 +0.0000000000000000e+00 +2.2999999934838531e+00 -1.3037921040874871e-04 +0.0000000000000000e+00 +9.9999999150063068e-01
2.4000000000000008e+00 +8.1648367431133337e+00 +0.0000000000000000e+00 +2.3999999925964266e+00 -1.3604793808456292e-04 +0.0000000000000000e+00 +9.9999999074547918e-01
2.5000000000000009e+00 +8.1648228548829085e+00 +0.0000000000000000e+00 +2.4999999916318778e+00 -1.4171667134593580e-04 +0.0000000000000000e+00 +9.9999998995819239e-01
2.6000000000000010e+00 +8.1648083997788774e+00 +0.0000000000000000e+00 +2.5999999905869937e+00 -1.4738541020651536e-04 +0.0000000000000000e+00 +9.9999998913877031e-01
2.7000000000000011e+00 +8.1647933778006792e+00 +0.0000000000000000e+00 +2.6999999894585605e+00 -1.5305415467865163e-04 +0.0000000000000000e+00 +9.9999998828721270e-01
2.8000000000000012e+00 +8.1647777889477542e+00 +0.0000000000000000e+00 +2.7999999882433650e+00 -1.5872290477339637e-04 +0.0000000000000000e+00 +9.9999998740351959e-01
2.9000000000000012e+00 +8.1647616332195376e+00 +0.0000000000000000e+00 +2.8999999869381932e+00 -1.6439166050050271e-04 +0.0000000000000000e+00 +9.9999998648769084e-01
3.0000000000000013e+00 +8.1647449106154664e+00 +0.0000000000000000e+00 +2.9999999855398318e+00 -1.7006042186842478e-04 +0.0000000000000000e+00 +9.9999998553972635e-01
3.1000000000000014e+00 +8.1647276211349755e+00 +0.0000000000000000e+00 +3.0999999840450672e+00 -1.7572918888431724e-04 +0.0000000000000000e+00 +9.9999998455962602e-01
3.2000000000000015e+00 +8.1647097647775002e+00 +0.0000000000000000e+00 +3.1999999824506857e+00 -1.8139796155403483e-04 +0.0000000000000000e+00 +9.9999998354738973e-01
3.3000000000000016e+00 +8.1646913415424756e+00 +0.0000000000000000e+00 +3.2999999807534737e+00 -1.8706673988213185e-04 +0.0000000000000000e+00 +9.9999998250301736e-01
3.4000000000000017e+00 +8.1646723514293349e+00 +0.0000000000000000e+00 +3.3999999789502180e+00 -1.9273552387186164e-04 +0.0000000000000000e+00 +9.9999998142650881e-01
3.5000000000000018e+00 +8.1646527944375116e+00 +0.0000000000000000e+00 +3.4999999770377044e+00 -1.9840431352517585e-04 +0.0000000000000000e+00 +9.9999998031786408e-01
3.6000000000000019e+00 +8.1646326705664407e+00 +0.0000000000000000e+00 +3.5999999750127194e+00 -2.0407310884272393e-04 +0.0000000000000000e+00 +9.9999997917708294e-01
3.7000000000000020e+00 +8.1646119798155539e+00 +0.0000000000000000e+00 +3.6999999728720496e+00 -2.0974190982385235e-04 +0.0000000000000000e+00 +9.9999997800416540e-01
3.8000000000000020e+00 +8.1645907221842862e+00 +0.0000000000000000e+00 +3.7999999706124812e+00 -2.1541071646660390e-04 +0.0000000000000000e+00 +9.9999997679911135e-01
3.9000000000000021e+00 +8.1645688976720709e+00 +0.0000000000000000e+00 +3.8999999682308006e+00 -2.2107952876771690e-04 +0.0000000000000000e+00 +9.9999997556192066e-01
4.0000000000000018e+00 +8.1645465062783433e+00 +0.0000000000000000e+00 +3.9999999657237941e+00 -2.2674834672262438e-04 +0.0000000000000000e+00 +9.9999997429259324e-01
4.1000000000000014e+00 +8.1645235480025384e+00 +0.0000000000000000e+00 +4.0999999630882478e+00 -2.3241717032590698e-04 +0.0000000000000000e+00 +9.9999997299112908e-01
4.2000000000000011e+00 +8.1645000228440896e+00 +0.0000000000000000e+00 +4.1999999603209481e+00 -2.3808599957628331e-04 +0.0000000000000000e+00 +9.9999997165752796e-01
4.3000000000000007e+00 +8.1644759308024337e+00 +0.0000000000000000e+00 +4.2999999574186818e+00 -2.4375483448160122e-04 +0.0000000000000000e+00 +9.9999997029178989e-01
4.4000000000000004e+00 +8.1644512718770041e+00 +0.0000000000000000e+00 +4.3999999543782344e+00 -2.4942367505929159e-04 +0.0000000000000000e+00 +9.9999996889391463e-01
4.5000000000000000e+00 +8.1644260460672324e+00 +0.0000000000000000e+00 +4.4999999511963935e+00 -2.5509252133636883e-04 +0.0000000000000000e+00 +9.9999996746390218e-01
4.5999999999999996e+00 +8.1644002533725466e+00 +0.0000000000000000e+00 +4.5999999478699438e+00 -2.6076137334943099e-04 +0.0000000000000000e+00 +9.9999996600175245e-01
4.6999999999999993e+00 +8.1643738937923711e+00 +0.0000000000000000e+00 +4.6999999443956728e+00 -2.6643023114466033e-04 +0.0000000000000000e+00 +9.9999996450746531e-01
4.7999999999999989e+00 +8.1643469673261233e+00 +0.0000000000000000e+00 +4.7999999407703662e+00 -2.7209909477782354e-04 +0.0000000000000000e+00 +9.9999996298104055e-01
4.8999999999999986e+00 +8.1643194739732188e+00 +0.0000000000000000e+00 +4.8999999369908096e+00 -2.7776796431427220e-04 +0.0000000000000000e+00 +9.9999996142247816e-01
4.9999999999999982e+00 +8.1642914137330624e+00 +0.0000000000000000e+00 +4.9999999330537905e+00 -2.8343683982894334e-04 +0.0000000000000000e+00 +9.9999995983177803e-01
5.0999999999999979e+00 +8.1642627866050521e+00 +0.0000000000000000e+00 +5.0999999289560947e+00 -2.8910572140635973e-04 +0.0000000000000000e+00 +9.9999995820893994e-01
5.1999999999999975e+00 +8.1642335925885767e+00 +0.0000000000000000e+00 +5.1999999246945077e+00 -2.9477460914063044e-04 +0.0000000000000000e+00 +9.9999995655396390e-01
5.2999999999999972e+00 +8.1642038316830163e+00 +0.0000000000000000e+00 +5.2999999202658161e+00 -3.0044350313545144e-04 +0.0000000000000000e+00 +9.9999995486684967e-01
5.3999999999999968e+00 +8.1641735038877385e+00 +0.0000000000000000e+00 +5.3999999156668066e+00 -3.0611240350410614e-04 +0.0000000000000000e+00 +9.9999995314759704e-01
5.4999999999999964e+00 +8.1641426092021003e+00 +0.0000000000000000e+00 +5.4999999108942648e+00 -3.1178131036946587e-04 +0.0000000000000000e+00 +9.9999995139620601e-01
5.5999999999999961e+00 +8.1641111476254444e+00 +0.0000000000000000e+00 +5.5999999059449763e+00 -3.1745022386399060e-04 +0.0000000000000000e+00 +9.9999994961267635e-01
5.6999999999999957e+00 +8.1640791191571012e+00 +0.0000000000000000e+00 +5.6999999008157287e+00 -3.2311914412972955e-04 +0.0000000000000000e+00 +9.9999994779700796e-01
5.7999999999999954e+00 +8.1640465237963866e+00 +0.0000000000000000e+00 +5.7999998955033067e+00 -3.2878807131832185e-04 +0.0000000000000000e+00 +9.9999994594920061e-01
5.8999999999999950e+00 +8.1640133615426009e+00 +0.0000000000000000e+00 +5.8999998900044970e+00 -3.3445700559099731e-04 +0.0000000000000000e+00 +9.9999994406925408e-01
5.9999999999999947e+00 +8.1639796323950264e+00 +0.0000000000000000e+00 +5.9999998843160860e+00 -3.4012594711857713e-04 +0.0000000000000000e+00 +9.9999994215716836e-01
6.0999999999999943e+00 +8.1639453363529295e+00 +0.0000000000000000e+00 +6.0999998784348595e+00 -3.4579489608032145e-04 +0.0000000000000000e+00 +9.9999994021294314e-01
6.1999999999999940e+00 +8.1639104734155570e+00 +0.0000000000000000e+00 +6.1999998723576031e+00 -3.5146385265124642e-04 +0.0000000000000000e+00 +9.9999993823657829e-01
6.2999999999999936e+00 +8.1638750435821397e+00 +0.0000000000000000e+00 +6.2999998660811034e+00 -3.5713281698944059e-04 +0.0000000000000000e+00 +9.9999993622807359e-01
6.3999999999999932e+00 +8.1638390468518942e+00 +0.0000000000000000e+00 +6.3999998596021461e+00 -3.6280178923491191e-04 +0.0000000000000000e+00 +9.9999993418742883e-01
6.4999999999999929e+00 +8.1638024832240248e+00 +0.0000000000000000e+00 +6.4999998529175178e+00 -3.6847076950958786e-04 +0.0000000000000000e+00 +9.9999993211464389e-01
6.5999999999999925e+00 +8.1637653526977214e+00 +0.0000000000000000e+00 +6.5999998460240041e+00 -3.7413975791731534e-04 +0.0000000000000000e+00 +9.9999993000971854e-01
6.6999999999999922e+00 +8.1637276552721669e+00 +0.0000000000000000e+00 +6.6999998389183908e+00 -3.7980875454386080e-04 +0.0000000000000000e+00 +9.9999992787265257e-01
6.7999999999999918e+00 +8.1636893909465353e+00 +0.0000000000000000e+00 +6.7999998315974635e+00 -3.8547775945691040e-04 +0.0000000000000000e+00 +9.9999992570344587e-01
6.8999999999999915e+00 +8.1636505597199971e+00 +0.0000000000000000e+00 +6.8999998240580087e+00 -3.9114677270606990e-04 +0.0000000000000000e+00 +9.9999992350209832e-01
6.9999999999999911e+00 +8.1636111615917155e+00 +0.0000000000000000e+00 +6.9999998162968122e+00 -3.9681579432286471e-04 +0.0000000000000000e+00 +9.9999992126860970e-01
7.0999999999999908e+00 +8.1635711965608539e+00 +0.0000000000000000e+00 +7.0999998083106597e+00 -4.0248482432074002e-04 +0.0000000000000000e+00 +9.9999991900297991e-01
7.1999999999999904e+00 +8.1635306646265722e+00 +0.0000000000000000e+00 +7.1999998000963368e+00 -4.0815386269506081e-04 +0.0000000000000000e+00 +9.9999991670520882e-01
7.2999999999999901e+00 +8.1634895657880353e+00 +0.0000000000000000e+00 +7.2999997916506301e+00 -4.1382290942311185e-04 +0.0000000000000000e+00 +9.9999991437529623e-01
7.3999999999999897e+00 +8.1634479000444102e+00 +0.0000000000000000e+00 +7.3999997829703252e+00 -4.1949196446409775e-04 +0.0000000000000000e+00 +9.9999991201324212e-01
7.4999999999999893e+00 +8.1634056673948674e+00 +0.0000000000000000e+00 +7.4999997740522071e+00 -4.2516102775914309e-04 +0.0000000000000000e+00 +9.9999990961904628e-01
7.5999999999999890e+00 +8.1633628678385861e+00 +0.0000000000000000e+00 +7.5999997648930631e+00 -4.3083009923129228e-04 +0.0000000000000000e+00 +9.9999990719270859e-01
7.6999999999999886e+00 +8.1633195013747528e+00 +0.0000000000000000e+00 +7.6999997554896780e+00 -4.3649917878550964e-04 +0.0000000000000000e+00 +9.9999990473422906e-01
7.7999999999999883e+00 +8.1632755680025646e+00 +0.0000000000000000e+00 +7.7999997458388375e+00 -4.4216826630867959e-04 +0.0000000000000000e+00 +9.9999990224360746e-01
7.8999999999999879e+00 +8.1632310677212310e+00 +0.0000000000000000e+00 +7.8999997359373282e+00 -4.4783736166960640e-04 +0.0000000000000000e+00 +9.9999989972084380e-01
7.9999999999999876e+00 +8.1631860005299757e+00 +0.0000000000000000e+00 +7.9999997257819349e+00 -4.5350646471901447e-04 +0.0000000000000000e+00 +9.9999989716593807e-01
8.0999999999999872e+00 +8.1631403664280366e+00 +0.0000000000000000e+00 +8.0999997153694441e+00 -4.5917557529071999e-04 +0.0000000000000000e+00 +9.9999989457889005e-01
8.1999999999999869e+00 +8.1630941654146714e+00 +0.0000000000000000e+00 +8.1999997046966406e+00 -4.6484469321452182e-04 +0.0000000000000000e+00 +9.9999989195969985e-01
8.2999999999999865e+00 +8.1630473974891533e+00 +0.0000000000000000e+00 +8.2999996937603111e+00 -4.7051381832909165e-04 +0.0000000000000000e+00 +9.9999988930836736e-01
8.3999999999999861e+00 +8.1630000626507702e+00 +0.0000000000000000e+00 +8.3999996825572421e+00 -4.7618295048314544e-04 +0.0000000000000000e+00 +9.9999988662489248e-01
8.4999999999999858e+00 +8.1629521608988256e+00 +0.0000000000000000e+00 +8.4999996710842183e+00 -4.8185208953544303e-04 +0.0000000000000000e+00 +9.9999988390927519e-01
8.5999999999999854e+00 +8.1629036922326375e+00 +0.0000000000000000e+00 +8.5999996593380263e+00 -4.8752123535478724e-04 +0.0000000000000000e+00 +9.9999988116151550e-01
8.6999999999999851e+00 +8.1628546566515343e+00 +0.0000000000000000e+00 +8.6999996473154511e+00 -4.9319038782002361e-04 +0.0000000000000000e+00 +9.9999987838161331e-01
8.7999999999999847e+00 +8.1628050541548571e+00 +0.0000000000000000e+00 +8.7999996350132772e+00 -4.9885954682003949e-04 +0.0000000000000000e+00 +9.9999987556956860e-01
8.8999999999999844e+00 +8.1627548847419575e+00 +0.0000000000000000e+00 +8.8999996224282931e+00 -5.0452871225376364e-04 +0.0000000000000000e+00 +9.9999987272538127e-01
8.9999999999999840e+00 +8.1627041484121960e+00 +0.0000000000000000e+00 +8.9999996095572818e+00 -5.1019788403016536e-04 +0.0000000000000000e+00 +9.9999986984905120e-01
9.0999999999999837e+00 +8.1626528451649438e+00 +0.0000000000000000e+00 +9.0999995963970317e+00 -5.1586706206825411e-04 +0.0000000000000000e+00 +9.9999986694057841e-01
9.1999999999999833e+00 +8.1626009749995774e+00 +0.0000000000000000e+00 +9.1999995829443275e+00 -5.2153624629707851e-04 +0.0000000000000000e+00 +9.9999986399996277e-01
9.2999999999999829e+00 +8.1625485379154803e+00 +0.0000000000000000e+00 +9.2999995691959541e+00 -5.2720543665572578e-04 +0.0000000000000000e+00 +9.9999986102720428e-01
9.3999999999999826e+00 +8.1624955339120433e+00 +0.0000000000000000e+00 +9.3999995551486979e+00 -5.3287463309332106e-04 +0.0000000000000000e+00 +9.9999985802230273e-01
9.4999999999999822e+00 +8.1624419629886606e+00 +0.0000000000000000e+00 +9.4999995407993438e+00 -5.3854383556902667e-04 +0.0000000000000000e+00 +9.9999985498525823e-01
9.5999999999999819e+00 +8.1623878251447302e+00 +0.0000000000000000e+00 +9.5999995261446784e+00 -5.4421304405204108e-04 +0.0000000000000000e+00 +9.9999985191607055e-01
9.6999999999999815e+00 +8.1623331203796514e+00 +0.0000000000000000e+00 +9.6999995111814865e+00 -5.4988225852159846e-04 +0.0000000000000000e+00 +9.9999984881473958e-01
9.7999999999999812e+00 +8.1622778486928276e+00 +0.0000000000000000e+00 +9.7999994959065546e+00 -5.5555147896696781e-04 +0.0000000000000000e+00 +9.9999984568126532e-01
9.8999999999999808e+00 +8.1622220100836600e+00 +0.0000000000000000e+00 +9.8999994803166675e+00 -5.6122070538745198e-04 +0.0000000000000000e+00 +9.9999984251564766e-01
9.9999999999999805e+00 +8.1621656045515518e+00 +0.0000000000000000e+00 +9.9999994644086119e+00 -5.6688993779238693e-04 +0.0000000000000000e+00 +9.9999983931788650e-01
1.0099999999999980e+01 +8.1621086320959026e+00 +0.0000000000000000e+00 +1.0099999448179172e+01 -5.7255917620066652e-04 +0.0000000000000000e+00 +9.9999983608798160e-01
1.0199999999999980e+01 +8.1620510927161103e+00 +0.0000000000000000e+00 +1.0199999431625136e+01 -5.7822842063552377e-04 +0.0000000000000000e+00 +9.9999983282593297e-01
1.0299999999999979e+01 +8.1619929864115726e+00 +0.0000000000000000e+00 +1.0299999414743287e+01 -5.8389767111931236e-04 +0.0000000000000000e+00 +9.9999982953174049e-01
1.0399999999999979e+01 +8.1619343131816837e+00 +0.0000000000000000e+00 +1.0399999397530411e+01 -5.8956692767303195e-04 +0.0000000000000000e+00 +9.9999982620540395e-01
1.0499999999999979e+01 +8.1618750730258345e+00 +0.0000000000000000e+00 +1.0499999379983295e+01 -5.9523619031632852e-04 +0.0000000000000000e+00 +9.9999982284692335e-01
1.0599999999999978e+01 +8.1618152659434156e+00 +0.0000000000000000e+00 +1.0599999362098725e+01 -6.0090545906749365e-04 +0.0000000000000000e+00 +9.9999981945629846e-01
1.0699999999999978e+01 +8.1617548919338159e+00 +0.0000000000000000e+00 +1.0699999343873484e+01 -6.0657473394346473e-04 +0.0000000000000000e+00 +9.9999981603352928e-01
1.0799999999999978e+01 +8.1616939509964226e+00 +0.0000000000000000e+00 +1.0799999325304359e+01 -6.1224401495982479e-04 +0.0000000000000000e+00 +9.9999981257861559e-01
1.0899999999999977e+01 +8.1616324431306193e+00 +0.0000000000000000e+00 +1.0899999306388136e+01 -6.1791330213080225e-04 +0.0000000000000000e+00 +9.9999980909155739e-01
1.0999999999999977e+01 +8.1615703683357914e+00 +0.0000000000000000e+00 +1.0999999287121598e+01 -6.2358259546927092e-04 +0.0000000000000000e+00 +9.9999980557235446e-01
1.1099999999999977e+01 +8.1615077266113207e+00 +0.0000000000000000e+00 +1.1099999267501534e+01 -6.2925189498674980e-04 +0.0000000000000000e+00 +9.9999980202100680e-01
1.1199999999999976e+01 +8.1614445179565891e+00 +0.0000000000000000e+00 +1.1199999247524728e+01 -6.3492120069340286e-04 +0.0000000000000000e+00 +9.9999979843751419e-01
1.1299999999999976e+01 +8.1613807423709765e+00 +0.0000000000000000e+00 +1.1299999227187966e+01 -6.4059051259803912e-04 +0.0000000000000000e+00 +9.9999979482187662e-01
1.1399999999999975e+01 +8.1613163998538631e+00 +0.0000000000000000e+00 +1.1399999206488033e+01 -6.4625983070811216e-04 +0.0000000000000000e+00 +9.9999979117409388e-01
1.1499999999999975e+01 +8.1612514904046272e+00 +0.0000000000000000e+00 +1.1499999185421714e+01 -6.5192915502972049e-04 +0.0000000000000000e+00 +9.9999978749416596e-01
1.1599999999999975e+01 +8.1611860140226486e+00 +0.0000000000000000e+00 +1.1599999163985794e+01 -6.5759848556760686e-04 +0.0000000000000000e+00 +9.9999978378209264e-01
1.1699999999999974e+01 +8.1611199707073059e+00 +0.0000000000000000e+00 +1.1699999142177061e+01 -6.6326782232515864e-04 +0.0000000000000000e+00 +9.9999978003787382e-01
1.1799999999999974e+01 +8.1610533604579771e+00 +0.0000000000000000e+00 +1.1799999119992298e+01 -6.6893716530440730e-04 +0.0000000000000000e+00 +9.9999977626150949e-01
