# multipoles
# s[mm] polynom_b[n=0][T/m^n] polynom_b[n=1][T/m^n] polynom_b[n=2][T/m^n] polynom_b[n=3][T/m^n] polynom_b[n=4][T/m^n] polynom_b[n=5][T/m^n] polynom_b[n=6][T/m^n] 
-0.0000000000000000e+00 -5.3690865340534777e-01 +7.3556333435533148e+00 -6.1727961453279456e-01 +5.9141980772455923e+01 +3.4654958197137807e+03 -4.6234082368501916e+05 -1.7419828862590760e+07 
-1.0000000000000001e-01 -5.3690872089735653e-01 +7.3556255988478805e+00 -6.1577683400519168e-01 +5.9609572809676756e+01 +3.4084965610700856e+03 -4.6555817072298710e+05 -1.7132668991386317e+07 
-2.0000000000000001e-01 -5.3690877903965917e-01 +7.3556215157287115e+00 -6.1471862839356917e-01 +6.0015027838916858e+01 +3.3573359321654261e+03 -4.6844720898734627e+05 -1.6872079083009847e+07 
-2.9999999999999999e-01 -5.3690882891762060e-01 +7.3556209290100947e+00 -6.1407888735845684e-01 +6.0360144728958723e+01 +3.3116408877994718e+03 -4.7101654187261633e+05 -1.6635836152097793e+07 
-4.0000000000000002e-01 -5.3690887161660328e-01 +7.3556236735138354e+00 -6.1383150333542646e-01 +6.0646722154621834e+01 +3.2710384373993634e+03 -4.7327477169251459e+05 -1.6421717480324456e+07 
-5.0000000000000000e-01 -5.3690890822191106e-01 +7.3556295840590362e+00 -6.1395036669859293e-01 +6.0876558885221421e+01 +3.2351555556795083e+03 -4.7523050134698732e+05 -1.6227500199234691e+07 
-5.9999999999999998e-01 -5.3690893981892918e-01 +7.3556384954694378e+00 -6.1440936497998644e-01 +6.1051453574201489e+01 +3.2036191646762422e+03 -4.7689233312807570e+05 -1.6050961194236616e+07 
-6.9999999999999996e-01 -5.3690896749310080e-01 +7.3556502425643320e+00 -6.1518238808319758e-01 +6.1173205018273961e+01 +3.1760562307931887e+03 -4.7826887022277189e+05 -1.5889877564445829e+07 
-8.0000000000000004e-01 -5.3690899232974754e-01 +7.3556646601723674e+00 -6.1624332246339952e-01 +6.1243611744556866e+01 +3.1520936623425137e+03 -4.7936871430208045e+05 -1.5742026151981706e+07 
-9.0000000000000002e-01 -5.3690901541429881e-01 +7.3556815831163096e+00 -6.1756605404919374e-01 +6.1264472459197599e+01 +3.1313583554896377e+03 -4.8020046815588715e+05 -1.5605183738959014e+07 
-1.0000000000000000e+00 -5.3690903783220134e-01 +7.3557008462258606e+00 -6.1912446663882514e-01 +6.1237585667585670e+01 +3.1134771655932395e+03 -4.8077273348540638e+05 -1.5477126913313193e+07 
-1.1000000000000001e+00 -5.3690906066878863e-01 +7.3557222843293539e+00 -6.2089244863797899e-01 +6.1164749910052983e+01 +3.0980770412834099e+03 -4.8109411227225536e+05 -1.5355632724569025e+07 
-1.2000000000000000e+00 -5.3690908500956380e-01 +7.3557457322566346e+00 -6.2284388011316316e-01 +6.1047763675452643e+01 +3.0847847679860915e+03 -4.8117320628360769e+05 -1.5238477433584778e+07 
-1.3000000000000000e+00 -5.3690911193989377e-01 +7.3557710248372947e+00 -6.2495264512032633e-01 +6.0888425448903604e+01 +3.0732272121550041e+03 -4.8101861735613912e+05 -1.5123437702960348e+07 
-1.3999999999999999e+00 -5.3690914254523414e-01 +7.3557979969095841e+00 -6.2719262603259385e-01 +6.0688533451013626e+01 +3.0630312039156684e+03 -4.8063894589435536e+05 -1.5008290011155611e+07 
-1.5000000000000000e+00 -5.3690917791105375e-01 +7.3558264833058100e+00 -6.2953770371117668e-01 +6.0449886053916423e+01 +3.0538235492569156e+03 -4.8004279327802471e+05 -1.4890810736779327e+07 
-1.6000000000000001e+00 -5.3690921912276213e-01 +7.3558563188615853e+00 -6.3196175897015838e-01 +6.0174281513765308e+01 +3.0452310478008280e+03 -4.7923876032707968e+05 -1.4768776211990679e+07 
-1.7000000000000000e+00 -5.3690926726577415e-01 +7.3558873384191692e+00 -6.3443867189167102e-01 +5.9863517866874545e+01 +3.0368804890605015e+03 -4.7823544670146704e+05 -1.4639962733942924e+07 
-1.8000000000000000e+00 -5.3690932342557385e-01 +7.3559193768121505e+00 -6.3694232291646435e-01 +5.9519393366005325e+01 +3.0283986643368430e+03 -4.7704145341611514e+05 -1.4502146595341718e+07 
-1.8999999999999999e+00 -5.3690938868755667e-01 +7.3559522688866288e+00 -6.3944659033273821e-01 +5.9143705871982668e+01 +3.0194123275045677e+03 -4.7566537935456733e+05 -1.4353103919681415e+07 
-2.0000000000000000e+00 -5.3690946413720209e-01 +7.3559858494847461e+00 -6.4192535355089286e-01 +5.8738253329076279e+01 +3.0095482461256274e+03 -4.7411582402916974e+05 -1.4190610876845103e+07 
-2.1000000000000001e+00 -5.3690955072527613e-01 +7.3560199352139177e+00 -6.4435592249433349e-01 +5.8305286497969099e+01 +2.9985447735732546e+03 -4.7240303814857441e+05 -1.4013271283565314e+07 
-2.2000000000000002e+00 -5.3690964888781501e-01 +7.3560542742459081e+00 -6.4672865531130475e-01 +5.7848654671407196e+01 +2.9865641413238454e+03 -4.7054244727213803e+05 -1.3822845174046684e+07 
-2.2999999999999998e+00 -5.3690975893782744e-01 +7.3560885987027733e+00 -6.4903701148340043e-01 +5.7372557427300372e+01 +2.9738692881946386e+03 -4.6855044075065467e+05 -1.3621845597617786e+07 
-2.3999999999999999e+00 -5.3690988118842653e-01 +7.3561226407011260e+00 -6.5127444661842093e-01 +5.6881194450740551e+01 +2.9607230762451281e+03 -4.6644340838203032e+05 -1.3412785238369279e+07 
-2.5000000000000000e+00 -5.3691001595260457e-01 +7.3561561323570528e+00 -6.5343441996818397e-01 +5.6378765376063235e+01 +2.9473884280761558e+03 -4.6423773943576828e+05 -1.3198177053540096e+07 
-2.6000000000000001e+00 -5.3691016354335819e-01 +7.3561888057820211e+00 -6.5551039194499594e-01 +5.5869469905135681e+01 +2.9341282813423823e+03 -4.6194982332109602e+05 -1.2980534064043971e+07 
-2.7000000000000002e+00 -5.3691032427368668e-01 +7.3562203930872343e+00 -6.5749582124868766e-01 +5.5357507675844083e+01 +2.9212055323261916e+03 -4.5959604878560576e+05 -1.2762369079217954e+07 
-2.7999999999999998e+00 -5.3691049845656003e-01 +7.3562506263731713e+00 -6.5938416842206105e-01 +5.4847078561182514e+01 +2.9088831036153592e+03 -4.5719280563356052e+05 -1.2546195022069437e+07 
-2.8999999999999999e+00 -5.3691068640490891e-01 +7.3562792377424904e+00 -6.6116889733834650e-01 +5.4342382289714926e+01 +2.8974239737272896e+03 -4.5475648248171661e+05 -1.2334525074425735e+07 
-3.0000000000000000e+00 -5.3691088843167434e-01 +7.3563059592897737e+00 -6.6284346834837304e-01 +5.3847618743411530e+01 +2.8870910389318783e+03 -4.5230346847002709e+05 -1.2129871996297454e+07 
-3.1000000000000001e+00 -5.3691110484973914e-01 +7.3563305231015219e+00 -6.6440134788730543e-01 +5.3366987939715649e+01 +2.8781473086289957e+03 -4.4985015310142213e+05 -1.1934749094519569e+07 
-3.2000000000000002e+00 -5.3691133597196972e-01 +7.3563526612659569e+00 -6.6583600131098730e-01 +5.2904689767510014e+01 +2.8708557519423812e+03 -4.4741292473943904e+05 -1.1751669443778103e+07 
-3.2999999999999998e+00 -5.3691158211121826e-01 +7.3563721058592426e+00 -6.6714089416647915e-01 +5.2464924358151933e+01 +2.8654793333615330e+03 -4.4500817266413470e+05 -1.1583146090013670e+07 
-3.3999999999999999e+00 -5.3691184358028110e-01 +7.3563885889515852e+00 -6.6830949687100039e-01 +5.2051891917015361e+01 +2.8622810998499394e+03 -4.4265228610900079e+05 -1.1431692459445845e+07 
-3.5000000000000000e+00 -5.3691212069193195e-01 +7.3564018426082862e+00 -6.6933527985473251e-01 +5.1669792681534084e+01 +2.8615240801624086e+03 -4.4036165395705751e+05 -1.1299821857572671e+07 
-3.6000000000000001e+00 -5.3691241375895304e-01 +7.3564115988873171e+00 -6.7021171342097863e-01 +5.1322826999738943e+01 +2.8634712904868561e+03 -4.3815266521221708e+05 -1.1190047521431154e+07 
-3.7000000000000002e+00 -5.3691272309397042e-01 +7.3564175898344084e+00 -6.7093227488755613e-01 +5.1015195449204050e+01 +2.8683858642101759e+03 -4.3604170960254449e+05 -1.1104883217951013e+07 
-3.7999999999999998e+00 -5.3691304900969283e-01 +7.3564195474964009e+00 -6.7149043863320468e-01 +5.0751098463176312e+01 +2.8765308648603864e+03 -4.3404517542980361e+05 -1.1046842362946009e+07 
-3.8999999999999999e+00 -5.3691339181876907e-01 +7.3564172039025681e+00 -6.7187968335576043e-01 +5.0534736858299020e+01 +2.8881694209718571e+03 -4.3217945257687592e+05 -1.1018438655567082e+07 
-4.0000000000000000e+00 -5.3691375183370560e-01 +7.3564102910839448e+00 -6.7209349082139724e-01 +5.0370311353283078e+01 +2.9035647004676366e+03 -4.3046092987090995e+05 -1.1022185955817375e+07 
-4.0999999999999996e+00 -5.3691412900241786e-01 +7.3563986554015459e+00 -6.7212894057965655e-01 +5.0260704839181010e+01 +2.9228563391291977e+03 -4.2890249414201657e+05 -1.1059612828250851e+07 
-4.2000000000000002e+00 -5.3691452194777578e-01 +7.3563825434196151e+00 -6.7199889372169774e-01 +5.0204495134207583e+01 +2.9457646834024117e+03 -4.2750711149484821e+05 -1.1128737981483297e+07 
-4.2999999999999998e+00 -5.3691492899191662e-01 +7.3563622891150153e+00 -6.7172039584876364e-01 +5.0199395607488668e+01 +2.9719209993498980e+03 -4.2627615660040785e+05 -1.1226795455146624e+07 
-4.4000000000000004e+00 -5.3691534845690259e-01 +7.3563382264710580e+00 -6.7131049151530175e-01 +5.0243119583960009e+01 +3.0009565471402343e+03 -4.2521100421797944e+05 -1.1351019276900982e+07 
-4.5000000000000000e+00 -5.3691577866492235e-01 +7.3563106894756034e+00 -6.7078622519177422e-01 +5.0333380420049131e+01 +3.0325025973980114e+03 -4.2431302968676924e+05 -1.1498643533895336e+07 
-4.5999999999999996e+00 -5.3691621793807043e-01 +7.3562800121175984e+00 -6.7016464257166508e-01 +5.0467891609227962e+01 +3.0661904564013471e+03 -4.2358360954851925e+05 -1.1666902490983872e+07 
-4.7000000000000002e+00 -5.3691666459855580e-01 +7.3562465283898915e+00 -6.6946279129611008e-01 +5.0644366717850083e+01 +3.1016514834861932e+03 -4.2302412123224582e+05 -1.1853030684348315e+07 
-4.7999999999999998e+00 -5.3691711696851474e-01 +7.3562105722953248e+00 -6.6869771833461189e-01 +5.0860519212248150e+01 +3.1385170414162981e+03 -4.2263594205729308e+05 -1.2054262679889668e+07 
-4.9000000000000004e+00 -5.3691757337019586e-01 +7.3561724778385029e+00 -6.6788647316483896e-01 +5.1114062721276021e+01 +3.1764185562073899e+03 -4.2242045082729118e+05 -1.2267833357752722e+07 
-5.0000000000000000e+00 -5.3691803212576827e-01 +7.3561325790299730e+00 -6.6704610550813348e-01 +5.1402710920689024e+01 +3.2149874769428648e+03 -4.2237902716921951e+05 -1.2490977725755896e+07 
-5.0999999999999996e+00 -5.3691849155754345e-01 +7.3560912098871496e+00 -6.6619366479177233e-01 +5.1724177509298421e+01 +3.2538552682638060e+03 -4.2251305141145928e+05 -1.2720930889591077e+07 
-5.2000000000000002e+00 -5.3691894998774914e-01 +7.3560487044334861e+00 -6.6534620468676675e-01 +5.2076176263149591e+01 +3.2926534919702317e+03 -4.2282390497670596e+05 -1.2954928426600384e+07 
-5.2999999999999998e+00 -5.3691940573870200e-01 +7.3560053966986381e+00 -6.6452077557240241e-01 +5.2456421026067254e+01 +3.3310136710203692e+03 -4.2331297031769966e+05 -1.3190205756632764e+07 
-5.4000000000000004e+00 -5.3691985713272783e-01 +7.3559616207211658e+00 -6.6373443127278076e-01 +5.2862625654442077e+01 +3.3685674157348981e+03 -4.2398163066051702e+05 -1.3423998735494534e+07 
-5.5000000000000000e+00 -5.3692030249214229e-01 +7.3559177105448939e+00 -6.6300422815733095e-01 +5.3292504136902167e+01 +3.4049464077536272e+03 -4.2483127074094827e+05 -1.3653543580967603e+07 
-5.5999999999999996e+00 -5.3692074013941127e-01 +7.3558740002257590e+00 -6.6234721884894232e-01 +5.3743770385492425e+01 +3.4397822818829259e+03 -4.2586327555883472e+05 -1.3876076310686344e+07 
-5.7000000000000002e+00 -5.3692116839692450e-01 +7.3558308238197485e+00 -6.6178046053821948e-01 +5.4214138624857206e+01 +3.4727067849566620e+03 -4.2707903275440843e+05 -1.4088833500503687e+07 
-5.7999999999999998e+00 -5.3692158558713388e-01 +7.3557885154006293e+00 -6.6132101131715060e-01 +5.4701322877458971e+01 +3.5033517062297178e+03 -4.2847992961585970e+05 -1.4289051950476691e+07 
-5.9000000000000004e+00 -5.3692199003254815e-01 +7.3557474090462378e+00 -6.6098592833732617e-01 +5.5203037367730509e+01 +3.5313488497757639e+03 -4.3006735544430051e+05 -1.4473968572870398e+07 
-5.9999999999999902e+00 -5.3692238005573056e-01 +7.3557078388249488e+00 -6.6079227551636155e-01 +5.5716996503907758e+01 +3.5563301631840777e+03 -4.3184270019767503e+05 -1.4640820885044627e+07 
-6.0999999999999899e+00 -5.3692275448711291e-01 +7.3556700852223420e+00 -6.6075996286600691e-01 +5.6240662059763295e+01 +3.5781601795808592e+03 -4.3380227038370183e+05 -1.4788082650284648e+07 
-6.1999999999999904e+00 -5.3692311392829950e-01 +7.3556342724337220e+00 -6.6091538850121700e-01 +5.6770001327899536e+01 +3.5974879133317440e+03 -4.3592239010887349e+05 -1.4918535578904446e+07 
-6.2999999999999901e+00 -5.3692345936671437e-01 +7.3556004973144589e+00 -6.6128568812409827e-01 +5.7300514370003619e+01 +3.6151290630666012e+03 -4.3817448264664429e+05 -1.5035905682035917e+07 
-6.3999999999999897e+00 -5.3692379178979743e-01 +7.3555688567255553e+00 -6.6189799588211140e-01 +5.7827700938304233e+01 +3.6318993056359245e+03 -4.4052996928688686e+05 -1.5143918900005694e+07 
-6.4999999999999902e+00 -5.3692411218503688e-01 +7.3555394475341291e+00 -6.6277943976316456e-01 +5.8347060450056986e+01 +3.6486142072868006e+03 -4.4296026915561286e+05 -1.5246300679812727e+07 
-6.5999999999999899e+00 -5.3692442153994502e-01 +7.3555123666178277e+00 -6.6395714469388201e-01 +5.8854091861678533e+01 +3.6660892821800776e+03 -4.4543679851038969e+05 -1.5346776252856851e+07 
-6.6999999999999904e+00 -5.3692472084207254e-01 +7.3554877108568402e+00 -6.6545823057502551e-01 +5.9344293878976558e+01 +3.6851399548802988e+03 -4.4793097190662834e+05 -1.5449070455909373e+07 
-6.7999999999999901e+00 -5.3692501107902590e-01 +7.3554655771435069e+00 -6.6730981408075019e-01 +5.9813164686205283e+01 +3.7065815989956677e+03 -4.5041420065644931e+05 -1.5556907929473674e+07 
-6.8999999999999897e+00 -5.3692529323837412e-01 +7.3554460623721889e+00 -6.6953900610635675e-01 +6.0256202208813825e+01 +3.7312294834699237e+03 -4.5285789428034559e+05 -1.5674012848346656e+07 
-6.9999999999999902e+00 -5.3692556830780735e-01 +7.3554292634518958e+00 -6.7217291203283180e-01 +6.0668903761958205e+01 +3.7598987773587860e+03 -4.5523345851799793e+05 -1.5804108944299174e+07 
-7.0999999999999899e+00 -5.3692583727503684e-01 +7.3554152772957027e+00 -6.7523863159470399e-01 +6.1046766337329920e+01 +3.7934045526015366e+03 -4.5751229694727418e+05 -1.5950919534194488e+07 
-7.1999999999999904e+00 -5.3692610112777317e-01 +7.3554042008279401e+00 -6.7876326374445506e-01 +6.1385286388107737e+01 +3.8325618720038142e+03 -4.5966580972725432e+05 -1.6118167930248542e+07 
-7.2999999999999901e+00 -5.3692636085384882e-01 +7.3553961309759135e+00 -6.8277389554119106e-01 +6.1679960050782867e+01 +3.8781855786398537e+03 -4.6166539484972379e+05 -1.6309576436270691e+07 
-7.3999999999999897e+00 -5.3692661744101666e-01 +7.3553911646828602e+00 -6.8729761391826982e-01 +6.1926282788214728e+01 +3.9310905238262712e+03 -4.6348244612111058e+05 -1.6528867448079513e+07 
-7.4999999999999902e+00 -5.3692687187721611e-01 +7.3553893988963441e+00 -6.9236149476159525e-01 +6.2119749676794882e+01 +3.9920913503982147e+03 -4.6508835471624928e+05 -1.6779762397439938e+07 
-7.5999999999999899e+00 -5.3692712515027596e-01 +7.3553909305756999e+00 -6.9799261489674658e-01 +6.2255855228819890e+01 +4.0620027336872254e+03 -4.6645450825287239e+05 -1.7065982935050964e+07 
-7.6999999999999904e+00 -5.3692737824822112e-01 +7.3553958566861466e+00 -7.0421803564108110e-01 +6.2330093513666739e+01 +4.1416390569283358e+03 -4.6755229137079307e+05 -1.7391249355190210e+07 
-7.7999999999999901e+00 -5.3692763215902373e-01 +7.3554042742078254e+00 -7.1106482079160394e-01 +6.2337957912908934e+01 +4.2318147565050785e+03 -4.6835308437065547e+05 -1.7759282248096023e+07 
-7.8999999999999897e+00 -5.3692788787077439e-01 +7.3554162801279830e+00 -7.1856002289878695e-01 +6.2274941329614379e+01 +4.3333440683165300e+03 -4.6882826438939723e+05 -1.8173801314167947e+07 
-7.9999999999999902e+00 -5.3692814637158792e-01 +7.3554319714384757e+00 -7.2673068116555195e-01 +6.2136536653103967e+01 +4.4470410233029306e+03 -4.6894920967391133e+05 -1.8638525533660948e+07 
-8.0999999999999908e+00 -5.3692840869479741e-01 +7.3554513486038307e+00 -7.3557383547082900e-01 +6.1920524885461553e+01 +4.5732026359036008e+03 -4.6869926971362525e+05 -1.9155093722546499e+07 
-8.1999999999999904e+00 -5.3692867600771998e-01 +7.3554740699892136e+00 -7.4498514610638555e-01 +6.1632422947510754e+01 +4.7103592535564030e+03 -4.6810060577196541e+05 -1.9717965707016818e+07 
-8.2999999999999901e+00 -5.3692894950244241e-01 +7.3554997182581925e+00 -7.5483876489651436e-01 +6.1279387094505374e+01 +4.8566627803140591e+03 -4.6718326238997222e+05 -2.0320051583634481e+07 
-8.3999999999999897e+00 -5.3692923037090867e-01 +7.3555278760373604e+00 -7.6500884687923887e-01 +6.0868574550853324e+01 +5.0102651489538921e+03 -4.6597728913048760e+05 -2.0954261512888473e+07 
-8.4999999999999893e+00 -5.3692951980508175e-01 +7.3555581259127081e+00 -7.7536955281627640e-01 +6.0407143620398585e+01 +5.1693183614897644e+03 -4.6451274122470472e+05 -2.1613505891284756e+07 
-8.5999999999999908e+00 -5.3692981899673498e-01 +7.3555900504323484e+00 -7.8579504895013319e-01 +5.9902253614830471e+01 +5.3319744878872407e+03 -4.6281967916627065e+05 -2.2290695354777604e+07 
-8.6999999999999904e+00 -5.3693012913769600e-01 +7.3556232321045947e+00 -7.9615950247087963e-01 +5.9361064883118623e+01 +5.4963855764837308e+03 -4.6092816879459022e+05 -2.2978740344814945e+07 
-8.7999999999999794e+00 -5.3693045141960105e-01 +7.3556572533934599e+00 -8.0633708905871015e-01 +5.8790738968661650e+01 +5.6607037956274389e+03 -4.5886828227455128e+05 -2.3670551777008951e+07 
-8.8999999999999808e+00 -5.3693078703401809e-01 +7.3556916967172397e+00 -8.1620198747621830e-01 +5.8198438622154676e+01 +5.8230813323986094e+03 -4.5667009807450982e+05 -2.4359040563505810e+07 
-8.9999999999999805e+00 -5.3693113717248298e-01 +7.3557261444592665e+00 -8.2562838442304454e-01 +5.7591327511949792e+01 +5.9816704796750109e+03 -4.5436369934506138e+05 -2.5037118014279682e+07 
-9.0999999999999801e+00 -5.3693150302638581e-01 +7.3557601789442089e+00 -8.3449046909367952e-01 +5.6976570886073226e+01 +6.1346235361445933e+03 -4.5197917767054017e+05 -2.5697695370625693e+07 
-9.1999999999999797e+00 -5.3693188578701689e-01 +7.3557933824584039e+00 -8.4266243679619335e-01 +5.6361335000312899e+01 +6.2800928688852036e+03 -4.4954662979817478e+05 -2.6333684086765539e+07 
-9.2999999999999794e+00 -5.3693228664564696e-01 +7.3558253372381648e+00 -8.5001848902913624e-01 +5.5752787441986960e+01 +6.4162309172451914e+03 -4.4709615945162222e+05 -2.6937995855699297e+07 
-9.3999999999999808e+00 -5.3693270679336225e-01 +7.3558556254696050e+00 -8.5643283412044147e-01 +5.5158097138549437e+01 +6.5411902034958066e+03 -4.4465787739220198e+05 -2.7503542654742531e+07 
-9.4999999999999805e+00 -5.3693314742113929e-01 +7.3558838292864941e+00 -8.6177968728801924e-01 +5.4584434419040377e+01 +6.6531233303249455e+03 -4.4226190174947592e+05 -2.8023236725513611e+07 
-9.5999999999999801e+00 -5.3693360971998516e-01 +7.3559095307751576e+00 -8.6593326302485529e-01 +5.4038970864385924e+01 +6.7501828365095453e+03 -4.3993835712910589e+05 -2.8489989888872195e+07 
-9.6999999999999797e+00 -5.3693409488061872e-01 +7.3559323119674751e+00 -8.6876779199510190e-01 +5.3528879511679193e+01 +6.8305215186238238e+03 -4.3771737579070689e+05 -2.8896715075905215e+07 
-9.7999999999999794e+00 -5.3693460409379801e-01 +7.3559517548378892e+00 -8.7015750572818695e-01 +5.3061334945188634e+01 +6.8922921339239419e+03 -4.3562909817159461e+05 -2.9236324899402957e+07 
-9.8999999999999808e+00 -5.3693513855008024e-01 +7.3559674413099412e+00 -8.6997664396948438e-01 +5.2643513094286988e+01 +6.9336475448161018e+03 -4.3370367167149350e+05 -2.9501732354047284e+07 
-9.9999999999999805e+00 -5.3693569943962094e-01 +7.3559789533220883e+00 -8.6809946546869010e-01 +5.2282589496585935e+01 +6.9527407814677563e+03 -4.3197124090987782e+05 -2.9685850768547907e+07 
-1.0100000000000000e+01 -5.3693628724568931e-01 +7.3559860158839365e+00 -8.6445083956502899e-01 +5.1983401772046456e+01 +6.9483830752628564e+03 -4.3045225185581291e+05 -2.9783956639757715e+07 
