# multipoles
# s[mm] polynom_b[n=0][T/m^n] polynom_b[n=1][T/m^n] polynom_b[n=2][T/m^n] polynom_b[n=3][T/m^n] polynom_b[n=4][T/m^n] polynom_b[n=5][T/m^n] polynom_b[n=6][T/m^n] 
-0.0000000000000000e+00 -5.3659454983087540e-01 +7.3450329178083935e+00 -7.6750227670094118e-01 +6.5856131062008572e+01 +4.2261021494188708e+03 -5.2163560754197452e+05 -1.5841837407562600e+07 
-1.0000000000000001e-01 -5.3659452025724108e-01 +7.3450160137978564e+00 -7.6578893993738306e-01 +6.6055731503548529e+01 +4.1815982925004837e+03 -5.2222060891516897e+05 -1.5625954728565048e+07 
-2.0000000000000001e-01 -5.3659449333013387e-01 +7.3450044500542946e+00 -7.6444064782564991e-01 +6.6160157271118848e+01 +4.1427215707280784e+03 -5.2245526956340304e+05 -1.5429517564677471e+07 
-2.9999999999999999e-01 -5.3659446929736632e-01 +7.3449979439073516e+00 -7.6345390234279487e-01 +6.6173737864825213e+01 +4.1095917510512472e+03 -5.2235095007934450e+05 -1.5253620229908155e+07 
-4.0000000000000002e-01 -5.3659444840688231e-01 +7.3449962126925774e+00 -7.6282520232591922e-01 +6.6100802604958247e+01 +4.0823285526199502e+03 -5.2191901003635995e+05 -1.5099356837215969e+07 
-5.0000000000000000e-01 -5.3659443090655434e-01 +7.3449989737496049e+00 -7.6255104606937862e-01 +6.5945680686004252e+01 +4.0610516922634451e+03 -5.2117080829407193e+05 -1.4967821508049939e+07 
-5.9999999999999998e-01 -5.3659441704433775e-01 +7.3450059444144271e+00 -7.6262792946571312e-01 +6.5712701389681357e+01 +4.0458808496734655e+03 -5.2011770419968729e+05 -1.4860108205904903e+07 
-6.9999999999999996e-01 -5.3659440706811312e-01 +7.3450168420287341e+00 -7.6305235134723859e-01 +6.5406193815434094e+01 +4.0369357670408585e+03 -5.1877105602699379e+05 -1.4777311208990410e+07 
-8.0000000000000004e-01 -5.3659440122583135e-01 +7.3450313839381174e+00 -7.6382080585335266e-01 +6.5030486934525285e+01 +4.0343361017635557e+03 -5.1714222128611675e+05 -1.4720524402536141e+07 
-9.0000000000000002e-01 -5.3659439976543366e-01 +7.3450492874853941e+00 -7.6492978897725672e-01 +6.4589909776841864e+01 +4.0382015538636506e+03 -5.1524255778577819e+05 -1.4690841895752463e+07 
-1.0000000000000000e+00 -5.3659440293487093e-01 +7.3450702700171613e+00 -7.6637579496981478e-01 +6.4088791239609293e+01 +4.0486517866039562e+03 -5.1308342251047888e+05 -1.4689357613791239e+07 
-1.1000000000000001e+00 -5.3659441098217486e-01 +7.3450940488786127e+00 -7.6815531567075923e-01 +6.3531460238691821e+01 +4.0658064258533946e+03 -5.1067617250116571e+05 -1.4717165329843229e+07 
-1.2000000000000000e+00 -5.3659442415521652e-01 +7.3451203414166555e+00 -7.7026484603247969e-01 +6.2922245609852006e+01 +4.0897851543416064e+03 -5.0803216425383475e+05 -1.4775359084737150e+07 
-1.3000000000000000e+00 -5.3659444270200041e-01 +7.3451488649842105e+00 -7.7270087722118252e-01 +6.2265475993392819e+01 +4.1207075803902544e+03 -5.0516275306812959e+05 -1.4865032563275520e+07 
-1.3999999999999999e+00 -5.3659446687050727e-01 +7.3451793369239802e+00 -7.7545990338473425e-01 +6.1565480289382009e+01 +4.1586933690173501e+03 -5.0207929563858156e+05 -1.4987279726092879e+07 
-1.5000000000000000e+00 -5.3659449690871286e-01 +7.3452114745872734e+00 -7.7853841239671662e-01 +6.0826587118660044e+01 +4.2038620625161675e+03 -4.9879314694595971e+05 -1.5143193946268814e+07 
-1.6000000000000001e+00 -5.3659453306456828e-01 +7.3452449953234193e+00 -7.8193289755603523e-01 +6.0053125123950679e+01 +4.2563333003799135e+03 -4.9531566198201920e+05 -1.5333869052421354e+07 
-1.7000000000000000e+00 -5.3659457558605494e-01 +7.3452796164804077e+00 -7.8563984809575682e-01 +5.9249422952423544e+01 +4.3162266411292685e+03 -4.9165819564419932e+05 -1.5560398485724369e+07 
-1.8000000000000000e+00 -5.3659462472115627e-01 +7.3453150554063296e+00 -7.8965575525744125e-01 +5.8419809210294758e+01 +4.3836616717381758e+03 -4.8783210245849565e+05 -1.5823875806894645e+07 
-1.8999999999999999e+00 -5.3659468071780647e-01 +7.3453510294514821e+00 -7.9397710893296325e-01 +5.7568612395222310e+01 +4.4587579471705494e+03 -4.8384873616279539e+05 -1.6125394417843152e+07 
-2.0000000000000000e+00 -5.3659474382399119e-01 +7.3453872559588600e+00 -7.9860039799789129e-01 +5.6700161182556784e+01 +4.5416349920787461e+03 -4.7971945139493753e+05 -1.6466047558760047e+07 
-2.1000000000000001e+00 -5.3659481427077660e-01 +7.3454234967128507e+00 -8.0351537446381815e-01 +5.5818241408035178e+01 +4.6322503209307306e+03 -4.7545521006875008e+05 -1.6846111280465499e+07 
-2.2000000000000002e+00 -5.3659489222008638e-01 +7.3454596880807843e+00 -8.0868571170037162e-01 +5.4924556263368935e+01 +4.7299261176193531e+03 -4.7106587257554679e+05 -1.7262624515263148e+07 
-2.2999999999999998e+00 -5.3659497781601073e-01 +7.3454958092898233e+00 -8.1406877451790138e-01 +5.4020310596068732e+01 +4.8338287685648174e+03 -4.6656114447533333e+05 -1.7711824105036370e+07 
-2.3999999999999999e+00 -5.3659507120267791e-01 +7.3455318395649227e+00 -8.1962192885339658e-01 +5.3106709311179934e+01 +4.9431246771941196e+03 -4.6195073161109531e+05 -1.8189946963437751e+07 
-2.5000000000000000e+00 -5.3659517252416888e-01 +7.3455677581297234e+00 -8.2530254038375339e-01 +5.2184957350346089e+01 +5.0569802454776191e+03 -4.5724434000662493e+05 -1.8693230006821334e+07 
-2.6000000000000001e+00 -5.3659528192456996e-01 +7.3456035442026391e+00 -8.3106797399797760e-01 +5.1256259815202647e+01 +5.1745618593128511e+03 -4.5245167659900599e+05 -1.9217910073038876e+07 
-2.7000000000000002e+00 -5.3659539954805624e-01 +7.3456391769981932e+00 -8.3687559672857792e-01 +5.0321821911999976e+01 +5.2950359450449005e+03 -4.4758244887815183e+05 -1.9760224191354495e+07 
-2.7999999999999998e+00 -5.3659552553862544e-01 +7.3456746357332170e+00 -8.4268277773875033e-01 +4.9382848789242409e+01 +5.4175689688459579e+03 -4.4264636398615059e+05 -2.0316409578565486e+07 
-2.8999999999999999e+00 -5.3659566004044901e-01 +7.3457098996139809e+00 -8.4844688136288304e-01 +4.8440545917089587e+01 +5.5413273079516257e+03 -4.3765313093359862e+05 -2.0882703035344653e+07 
-3.0000000000000000e+00 -5.3659580319758304e-01 +7.3457449478455930e+00 -8.5412527641341907e-01 +4.7496118797573530e+01 +5.6654774233863127e+03 -4.3261245887156407e+05 -2.1455341755471967e+07 
-3.1000000000000001e+00 -5.3659595515410363e-01 +7.3457797596274981e+00 -8.5967533263146889e-01 +4.6550773121545092e+01 +5.7891857966031357e+03 -4.2753405806902604e+05 -2.2030563037188377e+07 
-3.2000000000000002e+00 -5.3659611605411928e-01 +7.3458143141582797e+00 -8.6505441889577084e-01 +4.5605714616126939e+01 +5.9116188902717349e+03 -4.2242763899179915e+05 -2.2604604079250168e+07 
-3.2999999999999998e+00 -5.3659628604165210e-01 +7.3458485906253150e+00 -8.7021990526050641e-01 +4.4662149352262588e+01 +6.0319431935629846e+03 -4.1730291410343710e+05 -2.3173702216786817e+07 
-3.3999999999999999e+00 -5.3659646526085336e-01 +7.3458825682163100e+00 -8.7512916259569917e-01 +4.3721283407705215e+01 +6.1493252119995568e+03 -4.1216959590511513e+05 -2.3734094860117570e+07 
-3.5000000000000000e+00 -5.3659665385570587e-01 +7.3459162261122017e+00 -8.7973956281907573e-01 +4.2784323092363771e+01 +6.2629314728881418e+03 -4.0703739829271293e+05 -2.4282019527198691e+07 
-3.6000000000000001e+00 -5.3659685197031637e-01 +7.3459495434853057e+00 -8.8400847898809087e-01 +4.1852474980199247e+01 +6.3719285239474884e+03 -4.0191603667783318e+05 -2.4813713824504871e+07 
-3.7000000000000002e+00 -5.3659705974869798e-01 +7.3459824995054035e+00 -8.8789328649732058e-01 +4.0926945755326862e+01 +6.4754829623213045e+03 -3.9681522715334210e+05 -2.5325415602866575e+07 
-3.7999999999999998e+00 -5.3659727733490858e-01 +7.3460150733333984e+00 -8.9135135856615455e-01 +4.0008942382356345e+01 +6.5727613450443469e+03 -3.9174468745145755e+05 -2.5813362521798354e+07 
-3.8999999999999999e+00 -5.3659750487297408e-01 +7.3460472441245264e+00 -8.9434007257460035e-01 +3.9099672030351371e+01 +6.6629303089436698e+03 -3.8671413653680013e+05 -2.6273792616365798e+07 
-4.0000000000000000e+00 -5.3659774250694559e-01 +7.3460789910263546e+00 -8.9681680644973816e-01 +3.8200342130557694e+01 +6.7451565056539293e+03 -3.8173329494086717e+05 -2.6702943999152590e+07 
-4.0999999999999996e+00 -5.3659799024475596e-01 +7.3461102997726568e+00 -8.9875268873018699e-01 +3.7312111739895521e+01 +6.8188117445997104e+03 -3.7681162665530673e+05 -2.7097855596658256e+07 
-4.2000000000000002e+00 -5.3659824755101704e-01 +7.3461411845056812e+00 -9.0017390960238097e-01 +3.6435970395174024e+01 +6.8840871163045713e+03 -3.7195794080629281e+05 -2.7458762494663600e+07 
-4.2999999999999998e+00 -5.3659851375463541e-01 +7.3461716669906645e+00 -9.0112044478740738e-01 +3.5572871453004609e+01 +6.9413781964507716e+03 -3.6718097602199897e+05 -2.7786696638567798e+07 
-4.4000000000000004e+00 -5.3659878818459750e-01 +7.3462017689955950e+00 -9.0163227415590008e-01 +3.4723768259568594e+01 +6.9910806413845339e+03 -3.6248947112154716e+05 -2.8082690351010539e+07 
-4.5000000000000000e+00 -5.3659907016979891e-01 +7.3462315122984290e+00 -9.0174938007836813e-01 +3.3889613952394427e+01 +7.0335901604698402e+03 -3.5789216398928262e+05 -2.8347776210225467e+07 
-4.5999999999999996e+00 -5.3659935903918543e-01 +7.3462609186793806e+00 -9.0151174215827756e-01 +3.3071361680155611e+01 +7.0693024083583432e+03 -3.5339779285263107e+05 -2.8582986516138867e+07 
-4.7000000000000002e+00 -5.3659965412170918e-01 +7.3462900099284525e+00 -9.0095934426182145e-01 +3.2269964396625916e+01 +7.0986131288659562e+03 -3.4901509512373118e+05 -2.8789354000659224e+07 
-4.7999999999999998e+00 -5.3659995474627353e-01 +7.3463188078411905e+00 -9.0013216952061059e-01 +3.1486374982095985e+01 +7.1219180463380171e+03 -3.4475280810297001e+05 -2.8967911274832588e+07 
-4.9000000000000004e+00 -5.3660026024179430e-01 +7.3463473342246779e+00 -8.9907020471950494e-01 +3.0721546070430051e+01 +7.1396129658919153e+03 -3.4061966798814561e+05 -2.9119691350721329e+07 
-5.0000000000000000e+00 -5.3660056993716809e-01 +7.3463756108872991e+00 -8.9781343937632130e-01 +2.9976430357502512e+01 +7.1520937411182540e+03 -3.3662441168870300e+05 -2.9245727445800453e+07 
-5.0999999999999996e+00 -5.3660088316137122e-01 +7.3464036596537934e+00 -8.9640185783154258e-01 +2.9251980173111413e+01 +7.1597561331811730e+03 -3.3277577438383811e+05 -2.9347052337591138e+07 
-5.2000000000000002e+00 -5.3660119924326344e-01 +7.3464315023522930e+00 -8.9487545323083106e-01 +2.8549147836185536e+01 +7.1629960735671675e+03 -3.2908249152419053e+05 -2.9424699606250916e+07 
-5.2999999999999998e+00 -5.3660151751175800e-01 +7.3464591608247654e+00 -8.9327421621462266e-01 +2.7868885386111810e+01 +7.1622094469095728e+03 -3.2555329737229832e+05 -2.9479702594272565e+07 
-5.4000000000000004e+00 -5.3660183729578093e-01 +7.3464866569196898e+00 -8.9163814076350723e-01 +2.7212144783361808e+01 +7.1577922076202722e+03 -3.2219692614238150e+05 -2.9513094974087112e+07 
-5.5000000000000000e+00 -5.3660215792416954e-01 +7.3465140125003270e+00 -8.9000722302730439e-01 +2.6579877673385873e+01 +7.1501403545795711e+03 -3.1902211064310721e+05 -2.9525910621147227e+07 
-5.5999999999999996e+00 -5.3660247872591271e-01 +7.3465412494373812e+00 -8.8842145759532498e-01 +2.5973035607013131e+01 +7.1396498563104997e+03 -3.1603758357869904e+05 -2.9519183244648799e+07 
-5.7000000000000002e+00 -5.3660279902980490e-01 +7.3465683896139158e+00 -8.8692084533721982e-01 +2.5392569908197583e+01 +7.1267168105056417e+03 -3.1325207682465191e+05 -2.9493947175870534e+07 
-5.7999999999999998e+00 -5.3660311816480533e-01 +7.3465954549286208e+00 -8.8554538418065776e-01 +2.4839431566368891e+01 +7.1117372582293519e+03 -3.1067432076167222e+05 -2.9451236453229137e+07 
-5.9000000000000004e+00 -5.3660343545970812e-01 +7.3466224672871299e+00 -8.8433508053275101e-01 +2.4314571502532587e+01 +7.0951074079356113e+03 -3.0831304587375023e+05 -2.9392085909138430e+07 
-5.9999999999999902e+00 -5.3660375024350360e-01 +7.3466494486104263e+00 -8.8332993466437904e-01 +2.3818940337367291e+01 +7.0772233532811861e+03 -3.0617698141219723e+05 -2.9317529808710311e+07 
-6.0999999999999899e+00 -5.3660406201987343e-01 +7.3466764047090143e+00 -8.8255834329717486e-01 +2.3353220140050986e+01 +7.0583801487991459e+03 -3.0427177766248677e+05 -2.9228379080311269e+07 
-6.1999999999999904e+00 -5.3660437099947234e-01 +7.3467032816928013e+00 -8.8200059590781588e-01 +2.2916681851306283e+01 +7.0384599479375383e+03 -3.0258874776430597e+05 -2.9124581393896826e+07 
-6.2999999999999901e+00 -5.3660467757154440e-01 +7.3467300119900356e+00 -8.8162454139381952e-01 +2.2508153257830383e+01 +7.0172403040079989e+03 -3.0111507173708722e+05 -2.9005881066041961e+07 
-6.3999999999999897e+00 -5.3660498212532126e-01 +7.3467565280177247e+00 -8.8139802576631698e-01 +2.2126462383726135e+01 +6.9944987131087964e+03 -2.9983793070266023e+05 -2.8872022149562299e+07 
-6.4999999999999902e+00 -5.3660528504997040e-01 +7.3467827621864634e+00 -8.8128889352882456e-01 +2.1770437357810870e+01 +6.9700126289055625e+03 -2.9874450611329009e+05 -2.8722748476329222e+07 
-6.5999999999999899e+00 -5.3660558673477565e-01 +7.3468086468948464e+00 -8.8126498680740151e-01 +2.1438906565813177e+01 +6.9435594554002064e+03 -2.9782198059647001e+05 -2.8557803648249798e+07 
-6.6999999999999904e+00 -5.3660588756890704e-01 +7.3468341145360032e+00 -8.8129414905491354e-01 +2.1130698472475029e+01 +6.9149166080739806e+03 -2.9705753695732082e+05 -2.8376931303976320e+07 
-6.7999999999999901e+00 -5.3660618794158299e-01 +7.3468590974883030e+00 -8.8134421952014019e-01 +2.0844641869912486e+01 +6.8838614177615291e+03 -2.9643835955617437e+05 -2.8179874688303549e+07 
-6.8999999999999897e+00 -5.3660648824201507e-01 +7.3468835281204896e+00 -8.8138303588512756e-01 +2.0579565729770053e+01 +6.8501711730923653e+03 -2.9595163344728394e+05 -2.7966376831116080e+07 
-6.9999999999999902e+00 -5.3660678885942459e-01 +7.3469073387923540e+00 -8.8137843535829308e-01 +2.0334299178309731e+01 +6.8136231438760105e+03 -2.9558454422180727e+05 -2.7736180670723185e+07 
-7.0999999999999899e+00 -5.3660709018299690e-01 +7.3469304618516702e+00 -8.8129825088458713e-01 +2.0107671586569296e+01 +6.7739945089499788e+03 -2.9532427852851315e+05 -2.7489028707215860e+07 
-7.1999999999999904e+00 -5.3660739260191848e-01 +7.3469528296296751e+00 -8.8111031562203623e-01 +1.9898512680979231e+01 +6.7310624379879464e+03 -2.9515802465509367e+05 -2.7224663386688512e+07 
-7.2999999999999901e+00 -5.3660769650541296e-01 +7.3469743744537181e+00 -8.8078245931872612e-01 +1.9705652194703905e+01 +6.6846040272403725e+03 -2.9507297055456100e+05 -2.6942826806859627e+07 
-7.3999999999999897e+00 -5.3660800228260486e-01 +7.3469950286301966e+00 -8.8028251079063946e-01 +1.9527920335297406e+01 +6.6343963408708069e+03 -2.9505630647856719e+05 -2.6643260901557732e+07 
-7.4999999999999902e+00 -5.3660831032276657e-01 +7.3470147244569652e+00 -8.7957829488168948e-01 +1.9364147434937493e+01 +6.5802163579345106e+03 -2.9509522297483380e+05 -2.6325707198760897e+07 
-7.5999999999999899e+00 -5.3660862101499052e-01 +7.3470333942163339e+00 -8.7863763567922282e-01 +1.9213164140184919e+01 +6.5218410296137927e+03 -2.9517691194667883e+05 -2.5989907086673450e+07 
-7.6999999999999904e+00 -5.3660893474849591e-01 +7.3470509701780822e+00 -8.7742835199179037e-01 +1.9073801326230274e+01 +6.4590471941675878e+03 -2.9528856615586736e+05 -2.5635601410189316e+07 
-7.7999999999999901e+00 -5.3660925191246256e-01 +7.3470673845953662e+00 -8.7591826421153640e-01 +1.8944890210432202e+01 +6.3916117057071942e+03 -2.9541737986985536e+05 -2.5262531081581991e+07 
-7.8999999999999897e+00 -5.3660957289603073e-01 +7.3470825697100031e+00 -8.7407518785797300e-01 +1.8825262183790461e+01 +6.3193113125970913e+03 -2.9555054782889754e+05 -2.4870436505178068e+07 
-7.9999999999999902e+00 -5.3660989808841086e-01 +7.3470964577419471e+00 -8.7186693351373623e-01 +1.8713749132313914e+01 +6.2419226579587039e+03 -2.9567526714088506e+05 -2.4459057583893955e+07 
-8.0999999999999908e+00 -5.3661022780409606e-01 +7.3471089753899710e+00 -8.6926815273002012e-01 +1.8610020002047641e+01 +6.1593036865167160e+03 -2.9578421834094892e+05 -2.4028421835269101e+07 
-8.1999999999999904e+00 -5.3661056204796331e-01 +7.3471200270384411e+00 -8.6628216030494021e-01 +1.8517237094795078e+01 +6.0716235090021682e+03 -2.9589283699441003e+05 -2.3579564138892159e+07 
-8.2999999999999901e+00 -5.3661090074434858e-01 +7.3471295112560417e+00 -8.6291978783305634e-01 +1.8439484817956046e+01 +5.9791254751036931e+03 -2.9602252179986768e+05 -2.3113734725190312e+07 
-8.3999999999999897e+00 -5.3661124381761183e-01 +7.3471373266100315e+00 -8.5919186755627663e-01 +1.8380847604087286e+01 +5.8820529290336290e+03 -2.9619467136918503e+05 -2.2632183747129865e+07 
-8.4999999999999893e+00 -5.3661159119209489e-01 +7.3471433716703318e+00 -8.5510923654060633e-01 +1.8345409765880099e+01 +5.7806492832590611e+03 -2.9643068341458548e+05 -2.2136161606790476e+07 
-8.5999999999999908e+00 -5.3661194279205005e-01 +7.3471475450021719e+00 -8.5068273675239658e-01 +1.8337255708665374e+01 +5.6751580276158538e+03 -2.9675195598012861e+05 -2.1626919019695733e+07 
-8.6999999999999904e+00 -5.3661229854173453e-01 +7.3471497451698289e+00 -8.4592321262950521e-01 +1.8360469818596311e+01 +5.5658226786371879e+03 -2.9717988678107504e+05 -2.1105706761332698e+07 
-8.7999999999999794e+00 -5.3661265836536054e-01 +7.3471498707381322e+00 -8.4084151361299908e-01 +1.8419136431586765e+01 +5.4528868251960857e+03 -2.9773587305615190e+05 -2.0573775877956502e+07 
-8.8999999999999808e+00 -5.3661302218713069e-01 +7.3471478202699778e+00 -8.3544849438797519e-01 +1.8517339878909553e+01 +5.3365941384470634e+03 -2.9844131175160443e+05 -2.0032377744873662e+07 
-8.9999999999999805e+00 -5.3661338993116170e-01 +7.3471434923263752e+00 -8.2975501266122687e-01 +1.8659164509632713e+01 +5.2171883215845055e+03 -2.9931759972251765e+05 -1.9482763809153382e+07 
-9.0999999999999801e+00 -5.3661376152156892e-01 +7.3471367854694840e+00 -8.2377193043813268e-01 +1.8848694591798459e+01 +5.0949131439095518e+03 -3.0038613312722318e+05 -1.8926185776202664e+07 
-9.1999999999999797e+00 -5.3661413688242066e-01 +7.3471275982565318e+00 -8.1751011486599201e-01 +1.9090014486316530e+01 +4.9700124438646308e+03 -3.0166830842231237e+05 -1.8363895586523339e+07 
-9.2999999999999794e+00 -5.3661451593776066e-01 +7.3471158292468335e+00 -8.1098043981624957e-01 +1.9387208442644145e+01 +4.8427301704150177e+03 -3.0318552117448143e+05 -1.7797145647131171e+07 
-9.3999999999999808e+00 -5.3661489861156486e-01 +7.3471013769999303e+00 -8.0419378072223680e-01 +1.9744360653563298e+01 +4.7133102762007575e+03 -3.0495916638133372e+05 -1.7227188294991214e+07 
-9.4999999999999805e+00 -5.3661528482777709e-01 +7.3470841400696587e+00 -7.9716102014122403e-01 +2.0165555429293541e+01 +4.5819968256007433e+03 -3.0701063948202733e+05 -1.6655276319723507e+07 
-9.5999999999999801e+00 -5.3661567451030978e-01 +7.3470640170138761e+00 -7.8989304498782242e-01 +2.0654876904978209e+01 +4.4490339444482743e+03 -3.0936133463120321e+05 -1.6082662728779038e+07 
-9.6999999999999797e+00 -5.3661606758305525e-01 +7.3470409063884565e+00 -7.8240074751022259e-01 +2.1216409231136538e+01 +4.3146658329112852e+03 -3.1203264584852633e+05 -1.5510600793550851e+07 
-9.7999999999999794e+00 -5.3661646396981111e-01 +7.3470147067453579e+00 -7.7469502547299107e-01 +2.1854236604086537e+01 +4.1791367732175768e+03 -3.1504596711645974e+05 -1.4940344097100839e+07 
-9.8999999999999808e+00 -5.3661686359435434e-01 +7.3469853166379639e+00 -7.6678678236994202e-01 +2.2572443131586756e+01 +4.0426911301468153e+03 -3.1842269166174735e+05 -1.4373146526116509e+07 
-9.9999999999999805e+00 -5.3661726638044449e-01 +7.3469526346229879e+00 -7.5868692716150554e-01 +2.3375112730730041e+01 +3.9055733397265230e+03 -3.2218421151315345e+05 -1.3810262220434474e+07 
-1.0100000000000000e+01 -5.3661767225052837e-01 +7.3469166076476808e+00 -7.5041282118624453e-01 +2.4264490993732849e+01 +3.7680846039423159e+03 -3.2634222739707929e+05 -1.3253058037651405e+07 
