# multipoles
# s[mm] polynom_b[n=0][T/m^n] polynom_b[n=1][T/m^n] polynom_b[n=2][T/m^n] polynom_b[n=3][T/m^n] polynom_b[n=4][T/m^n] polynom_b[n=5][T/m^n] polynom_b[n=6][T/m^n] 
+0.0000000000000000e+00 -5.6466570593178012e-01 +7.7352289571758197e+00 -5.4878226673338759e-01 -1.6131154565578953e+01 +5.2498009474216124e+03 -5.3462626756327933e+04 -2.8083271759201545e+07 
+1.0000000000000001e-01 -5.6466549178916259e-01 +7.7352224867680350e+00 -5.5310136273377475e-01 -1.5982694650119186e+01 +5.3425257829297734e+03 -5.4944230598328104e+04 -2.8489974641028844e+07 
+2.0000000000000001e-01 -5.6466528278543027e-01 +7.7352142934168704e+00 -5.5732610499235757e-01 -1.5782094400364757e+01 +5.4341271839890414e+03 -5.6714892701737110e+04 -2.8893651557367176e+07 
+2.9999999999999999e-01 -5.6466507940867061e-01 +7.7352044385523167e+00 -5.6141985671643080e-01 -1.5530524394368607e+01 +5.5238094543794905e+03 -5.8767894169147752e+04 -2.9290408899113782e+07 
+4.0000000000000002e-01 -5.6466488214691535e-01 +7.7351929836083642e+00 -5.6534598278187786e-01 -1.5229155337754175e+01 +5.6107769245679519e+03 -6.1096515313537544e+04 -2.9676353165839422e+07 
+5.0000000000000000e-01 -5.6466469148824361e-01 +7.7351799900106837e+00 -5.6906784921404119e-01 -1.4879157681963182e+01 +5.6942339463500057e+03 -6.3694037960378359e+04 -3.0047590954596628e+07 
+5.9999999999999998e-01 -5.6466450792071543e-01 +7.7351655191870607e+00 -5.7254882115798456e-01 -1.4481701925804956e+01 +5.7733848523941306e+03 -6.6553743691621406e+04 -3.0400228759579185e+07 
+6.9999999999999996e-01 -5.6466433193232535e-01 +7.7351496325607902e+00 -5.7575226808709179e-01 -1.4037958433198316e+01 +5.8474340535648025e+03 -6.9668914889359992e+04 -3.0730373432476003e+07 
+8.0000000000000004e-01 -5.6466416401114472e-01 +7.7351323915614323e+00 -5.7864155675923823e-01 -1.3549097729273729e+01 +5.9155859065304612e+03 -7.3032833057898140e+04 -3.1034131557858348e+07 
+9.0000000000000002e-01 -5.6466400464519717e-01 +7.7351138576069438e+00 -5.8118005703623155e-01 -1.3016289986942866e+01 +5.9770448268604514e+03 -7.6638781791034125e+04 -3.1307609994487338e+07 
+1.0000000000000000e+00 -5.6466385432248800e-01 +7.7350940921178148e+00 -5.8333113703610184e-01 -1.2440705427141058e+01 +6.0310151913843047e+03 -8.0480044487503052e+04 -3.1546915399185259e+07 
+1.1000000000000001e+00 -5.6466371353105493e-01 +7.7350731565137840e+00 -5.8505816823308143e-01 -1.1823514230684271e+01 +6.0767014406498993e+03 -8.4549904832438420e+04 -3.1748154727731809e+07 
+1.2000000000000000e+00 -5.6466358275892536e-01 +7.7350511122108925e+00 -5.8632451979056577e-01 -1.1165886438946899e+01 +6.1133079683341102e+03 -8.8841647425076415e+04 -3.1907434702198748e+07 
+1.3000000000000000e+00 -5.6466346249407751e-01 +7.7350280206185849e+00 -5.8709356390431489e-01 -1.0468991867422337e+01 +6.1400392240058409e+03 -9.3348558286956191e+04 -3.2020862301766988e+07 
+1.3999999999999999e+00 -5.6466335322458161e-01 +7.7350039431496960e+00 -5.8732867138824674e-01 -9.7340004073889546e+00 +6.1560996265380982e+03 -9.8063923075004699e+04 -3.2084544344538979e+07 
+1.5000000000000000e+00 -5.6466325543837059e-01 +7.7349789412121970e+00 -5.8699321319983833e-01 -8.9620817608246330e+00 +6.1606935977137546e+03 -1.0298102870099425e+05 -3.2094587660209522e+07 
+1.6000000000000001e+00 -5.6466316962350338e-01 +7.7349530762092309e+00 -5.8605056216563933e-01 -8.1544054549878933e+00 +6.1530255907931441e+03 -1.0809316320596830e+05 -3.2047099213042241e+07 
+1.7000000000000000e+00 -5.6466309626797206e-01 +7.7349264095439088e+00 -5.8446409255178555e-01 -7.3121409747707702e+00 +6.1323000858887663e+03 -1.1339361501840553e+05 -3.1938186091878306e+07 
+1.8000000000000000e+00 -5.6466303585980093e-01 +7.7348990026121403e+00 -5.8219717486839007e-01 -6.4364575477923278e+00 +6.0977214890060186e+03 -1.1887567421616112e+05 -3.1763955021815535e+07 
+1.8999999999999999e+00 -5.6466298888696786e-01 +7.7348709168104852e+00 -5.7921318171719327e-01 -5.5285243698578128e+00 +6.0484942411654938e+03 -1.2453263123384942e+05 -3.1520512879367266e+07 
+2.0000000000000000e+00 -5.6466295583749671e-01 +7.7348422135295580e+00 -5.7547548785902791e-01 -4.5895104161544538e+00 +5.9838228279204332e+03 -1.3035777795100340e+05 -3.1203966759748600e+07 
+2.1000000000000001e+00 -5.6466293693537939e-01 +7.7348129547657747e+00 -5.7096477872483942e-01 -3.6210467248198910e+00 +5.9032516031426067e+03 -1.3634171344630863e+05 -3.0812059784665685e+07 
+2.2000000000000002e+00 -5.6466293134847756e-01 +7.7347832072680749e+00 -5.6573100743490046e-01 -2.6267368882585913e+00 +5.8076911812552335e+03 -1.4246355759075019e+05 -3.0349118531487696e+07 
+2.2999999999999998e+00 -5.6466293798071898e-01 +7.7347530395598554e+00 -5.5984144468581787e-01 -1.6107090418832246e+00 +5.6983953902168951e+03 -1.4869938244605449e+05 -2.9821125117084295e+07 
+2.3999999999999999e+00 -5.6466295573598024e-01 +7.7347225201646683e+00 -5.5336336315918655e-01 -5.7709131568624206e-01 +5.5766180948827759e+03 -1.5502526007612245e+05 -2.9234061838676527e+07 
+2.5000000000000000e+00 -5.6466298351811972e-01 +7.7346917176077845e+00 -5.4636403470399930e-01 +4.6998813209184204e-01 +5.4436131496475291e+03 -1.6141726238294554e+05 -2.8593910964637402e+07 
+2.6000000000000001e+00 -5.6466302023105341e-01 +7.7346607004192629e+00 -5.3891073052987870e-01 +1.5264010153166565e+00 +5.3006343997248578e+03 -1.6785146047852639e+05 -2.7906654736777328e+07 
+2.7000000000000002e+00 -5.6466306477870098e-01 +7.7346295371257767e+00 -5.3107071716755105e-01 +2.5880191568112205e+00 +5.1489356027294698e+03 -1.7430392606040937e+05 -2.7178274993550319e+07 
+2.7999999999999998e+00 -5.6466311606491526e-01 +7.7345982962613116e+00 -5.2291126616690820e-01 +3.6507141769482869e+00 +4.9897706154703565e+03 -1.8075072958682827e+05 -2.6414754063225575e+07 
+2.8999999999999999e+00 -5.6466317299365498e-01 +7.7345670463601435e+00 -5.1449964196307563e-01 +4.7103577007165383e+00 +4.8243931632939702e+03 -1.8716794149265229e+05 -2.5622073672540195e+07 
+3.0000000000000000e+00 -5.6466323446882127e-01 +7.7345358559600887e+00 -5.0590311229048113e-01 +5.7628212488627053e+00 +4.6540570387914067e+03 -1.9353163149321356e+05 -2.4806215892008856e+07 
+3.1000000000000001e+00 -5.6466329939433502e-01 +7.7345047936020999e+00 -4.9718893877369036e-01 +6.8039762654844997e+00 +4.4800159239559762e+03 -1.9981786879467964e+05 -2.3973162293103501e+07 
+3.2000000000000002e+00 -5.6466336667414319e-01 +7.7344739278320684e+00 -4.8842438617145673e-01 +7.8296940449783756e+00 +4.3035235648996186e+03 -2.0600272159930327e+05 -2.3128894778562088e+07 
+3.2999999999999998e+00 -5.6466343521218709e-01 +7.7344433271986341e+00 -4.7967671525703454e-01 +8.8358458086152343e+00 +4.1258336347721934e+03 -2.1206225757759315e+05 -2.2279394927920453e+07 
+3.3999999999999999e+00 -5.6466350391241216e-01 +7.7344130602555676e+00 -4.7101318301314510e-01 +9.8183026303068122e+00 +3.9481997452107371e+03 -2.1797254341936242e+05 -2.1430644071666554e+07 
+3.5000000000000000e+00 -5.6466357167879300e-01 +7.7343831955652549e+00 -4.6250104889732285e-01 +1.0772935332267215e+01 +3.7718755586582060e+03 -2.2370964420842027e+05 -2.0588623808506284e+07 
+3.6000000000000001e+00 -5.6466363741531667e-01 +7.7343538016881963e+00 -4.5420756654577288e-01 +1.1695614779699213e+01 +3.5981146347609752e+03 -2.2924962510091453e+05 -1.9759315288168143e+07 
+3.7000000000000002e+00 -5.6466370002595123e-01 +7.7343249471963995e+00 -4.4619998766839764e-01 +1.2582211507143194e+01 +3.4281705024269968e+03 -2.3456854919051062e+05 -1.8948699548754759e+07 
+3.7999999999999998e+00 -5.6466375841469252e-01 +7.7342967006661523e+00 -4.3854556691545543e-01 +1.3428595915815398e+01 +3.2632967532351563e+03 -2.3964247860438176e+05 -1.8162757963718563e+07 
+3.8999999999999999e+00 -5.6466381148555256e-01 +7.7342691306795972e+00 -4.3131154942641403e-01 +1.4230638227457181e+01 +3.1047468100602418e+03 -2.4444747424058954e+05 -1.7407471158164926e+07 
+4.0000000000000000e+00 -5.6466385814260434e-01 +7.7342423058273022e+00 -4.2456518173521895e-01 +1.4984208409255951e+01 +2.9537741254556749e+03 -2.4895959529969931e+05 -1.6688819927551672e+07 
+4.0999999999999996e+00 -5.6466389762754554e-01 +7.7342162822645895e+00 -4.1835907366384961e-01 +1.5686087112586986e+01 +2.8114058668180182e+03 -2.5315965781754086e+05 -1.6011756074038077e+07 
+4.2000000000000002e+00 -5.6466393053293362e-01 +7.7341910680551447e+00 -4.1268697478325678e-01 +1.6336756625272848e+01 +2.6777393969140667e+03 -2.5704806996582271e+05 -1.5376985352077238e+07 
+4.2999999999999998e+00 -5.6466395778909684e-01 +7.7341666596052114e+00 -4.0752783271076842e-01 +1.6937641989320653e+01 +2.5526331377024367e+03 -2.6063028753756909e+05 -1.4784117491061473e+07 
+4.4000000000000004e+00 -5.6466398032632159e-01 +7.7341430533044297e+00 -4.0286059725993062e-01 +1.7490168679128086e+01 +2.4359455491688786e+03 -2.6391176867835037e+05 -1.4232762394061526e+07 
+4.5000000000000000e+00 -5.6466399907491771e-01 +7.7341202455497244e+00 -3.9866421499085902e-01 +1.7995761894365245e+01 +2.3275350209131020e+03 -2.6689796976571192e+05 -1.3722529609913571e+07 
+4.5999999999999996e+00 -5.6466401496518059e-01 +7.7340982327367032e+00 -3.9491763080728232e-01 +1.8455846805031619e+01 +2.2272599049979290e+03 -2.6959434682497254e+05 -1.3253028494454104e+07 
+4.7000000000000002e+00 -5.6466402892745404e-01 +7.7340770112536363e+00 -3.9159979045871235e-01 +1.8871848714804912e+01 +2.1349785614595339e+03 -2.7200635644435033e+05 -1.2823868422674574e+07 
+4.7999999999999998e+00 -5.6466404189206321e-01 +7.7340565774848278e+00 -3.8868963839250503e-01 +1.9245192978431788e+01 +2.0505493183072799e+03 -2.7413945534297760e+05 -1.2434658600452174e+07 
+4.9000000000000004e+00 -5.6466405478933202e-01 +7.7340369278200312e+00 -3.8616611595432759e-01 +1.9577304702531666e+01 +1.9738304355014047e+03 -2.7599909857249109e+05 -1.2085007885433123e+07 
+5.0000000000000000e+00 -5.6466406854961593e-01 +7.7340180586338976e+00 -3.8400816718089492e-01 +1.9869609344495924e+01 +1.9046802143439968e+03 -2.7759074299139116e+05 -1.1774525308399536e+07 
+5.0999999999999996e+00 -5.6466408410325619e-01 +7.7339999663072900e+00 -3.8219473076211125e-01 +2.0123532103074538e+01 +1.8429568443314517e+03 -2.7891984377030435e+05 -1.1502819342134587e+07 
+5.2000000000000002e+00 -5.6466410238065479e-01 +7.7339826472124376e+00 -3.8070474533308990e-01 +2.0340498324202322e+01 +1.7885185060603762e+03 -2.7999185667070275e+05 -1.1269498396000806e+07 
+5.2999999999999998e+00 -5.6466412431217161e-01 +7.7339660977187945e+00 -3.7951715102188316e-01 +2.0521933346777516e+01 +1.7412233976884877e+03 -2.8081223721007037e+05 -1.1074170935131831e+07 
+5.4000000000000004e+00 -5.6466415082820165e-01 +7.7339503141943178e+00 -3.7861088325314513e-01 +2.0669262443432089e+01 +1.7009296136442565e+03 -2.8138644024468807e+05 -1.0916444893132053e+07 
+5.5000000000000000e+00 -5.6466418285910491e-01 +7.7339352929970362e+00 -3.7796487880274132e-01 +2.0783911078346531e+01 +1.6674952656450482e+03 -2.8171992152324691e+05 -1.0795928262614777e+07 
+5.5999999999999996e+00 -5.6466422133529304e-01 +7.7339210304843595e+00 -3.7755807493329296e-01 +2.0867304618399327e+01 +1.6407784617640975e+03 -2.8181813594963931e+05 -1.0712228984202104e+07 
+5.7000000000000002e+00 -5.6466426718717866e-01 +7.7339075230100427e+00 -3.7736940169840705e-01 +2.0920868425058984e+01 +1.6206371604735166e+03 -2.8168653813643509e+05 -1.0664954253967425e+07 
+5.7999999999999998e+00 -5.6466432134519784e-01 +7.7338947669203284e+00 -3.7737779344687067e-01 +2.0946027959780100e+01 +1.6069293892665735e+03 -2.8133058300270874e+05 -1.0653711559647998e+07 
+5.9000000000000004e+00 -5.6466438473978342e-01 +7.7338827585542722e+00 -3.7756218129399233e-01 +2.0944208771113697e+01 +1.5995130985720573e+03 -2.8075572568733408e+05 -1.0678107979992228e+07 
+5.9999999999999902e+00 -5.6466445830137457e-01 +7.7338714942531235e+00 -3.7790149593531824e-01 +2.0916836228343666e+01 +1.5982462205352872e+03 -2.7996742006955273e+05 -1.0737750481963722e+07 
+6.0999999999999899e+00 -5.6466454275922473e-01 +7.7338609775467200e+00 -3.7837317014190264e-01 +2.0864952458697271e+01 +1.6029044303007711e+03 -2.7897040219384653e+05 -1.0831764613742918e+07 
+6.1999999999999904e+00 -5.6466463803117950e-01 +7.7338512274869116e+00 -3.7894983873829396e-01 +2.0788316921460641e+01 +1.6129684064944133e+03 -2.7776790304366156e+05 -1.0957470110346358e+07 
+6.2999999999999901e+00 -5.6466474383045195e-01 +7.7338422637479347e+00 -3.7960320258152924e-01 +2.0686429310184778e+01 +1.6278529608214910e+03 -2.7636313329155132e+05 -1.1111761670693474e+07 
+6.3999999999999897e+00 -5.6466485987032489e-01 +7.7338341059950224e+00 -3.8030496450809165e-01 +2.0558789568655634e+01 +1.6469729523061571e+03 -2.7475930525539781e+05 -1.1291534232831141e+07 
+6.4999999999999902e+00 -5.6466498586397451e-01 +7.7338267738999793e+00 -3.8102682391147075e-01 +2.0404897419590839e+01 +1.6697431919240973e+03 -2.7295963006603834e+05 -1.1493682547227643e+07 
+6.5999999999999899e+00 -5.6466512152469417e-01 +7.7338202871276867e+00 -3.8174048381539299e-01 +2.0224252762330206e+01 +1.6955785713573259e+03 -2.7096731997553137e+05 -1.1715101771499289e+07 
+6.6999999999999904e+00 -5.6466526656575666e-01 +7.7338146653472268e+00 -3.8241764603850886e-01 +2.0016355354870182e+01 +1.7238939707187978e+03 -2.6878558655341750e+05 -1.1952687033322565e+07 
+6.7999999999999901e+00 -5.6466542070032621e-01 +7.7338099282209312e+00 -3.8303001333964420e-01 +1.9780705121765717e+01 +1.7541043070399214e+03 -2.6641764243573596e+05 -1.2203333677785404e+07 
+6.8999999999999897e+00 -5.6466558364169417e-01 +7.7338060954109613e+00 -3.8354929032289153e-01 +1.9516801980792831e+01 +1.7856245452939811e+03 -2.6386670039218047e+05 -1.2463937305710867e+07 
+6.9999999999999902e+00 -5.6466575510313932e-01 +7.7338031865830050e+00 -3.8394718020616359e-01 +1.9224145712593209e+01 +1.8178696396918631e+03 -2.6113597249839426e+05 -1.2731393499527590e+07 
+7.0999999999999899e+00 -5.6466593479785043e-01 +7.7338012213956242e+00 -3.8419538790656238e-01 +1.8902236295064895e+01 +1.8502545958371006e+03 -2.5822867216175504e+05 -1.3002598128973598e+07 
+7.1999999999999904e+00 -5.6466612243907099e-01 +7.7338002195096944e+00 -3.8426561865107789e-01 +1.8550573607478618e+01 +1.8821944386447742e+03 -2.5514801234730729e+05 -1.3274447182319531e+07 
+7.2999999999999901e+00 -5.6466631774007192e-01 +7.7338002005829898e+00 -3.8412957879398840e-01 +1.8168657597856221e+01 +1.9131042339500573e+03 -2.5189720658779319e+05 -1.3543836884634931e+07 
+7.3999999999999897e+00 -5.6466652041409338e-01 +7.7338011842750092e+00 -3.8375897559160255e-01 +1.7755988156999958e+01 +1.9423990826510990e+03 -2.4847946829432374e+05 -1.3807663666791661e+07 
+7.4999999999999902e+00 -5.6466673017434410e-01 +7.7338031902374142e+00 -3.8312551755039059e-01 +1.7312065366591828e+01 +1.9694941289415390e+03 -2.4489801212443094e+05 -1.4062824206453133e+07 
+7.5999999999999899e+00 -5.6466694673409257e-01 +7.7338062381281567e+00 -3.8220091342607410e-01 +1.6836389117127290e+01 +1.9938045404689310e+03 -2.4115605185390849e+05 -1.4306215332416555e+07 
+7.6999999999999904e+00 -5.6466716980654597e-01 +7.7338103476003113e+00 -3.8095687345518559e-01 +1.6328459415900259e+01 +2.0147455349063318e+03 -2.3725680211362065e+05 -1.4534734160044076e+07 
+7.7999999999999901e+00 -5.6466739910500641e-01 +7.7338155383016121e+00 -3.7936510702275350e-01 +1.5787776413906832e+01 +2.0317323290997156e+03 -2.3320347860522624e+05 -1.4745277828119334e+07 
+7.8999999999999897e+00 -5.6466763434263834e-01 +7.7338218298878099e+00 -3.7739732782391505e-01 +1.5213839995598434e+01 +2.0441802495126574e+03 -2.2899929565738019e+05 -1.4934744061298922e+07 
+7.9999999999999902e+00 -5.6466787523267759e-01 +7.7338292420035977e+00 -3.7502524850760777e-01 +1.4606150361754922e+01 +2.0515046206524112e+03 -2.2464746973895715e+05 -1.5100030612426044e+07 
+8.0999999999999908e+00 -5.6466812148290335e-01 +7.7338377798205205e+00 -3.7223481018398097e-01 +1.3964859187799389e+01 +2.0533310783740412e+03 -2.2015425573880514e+05 -1.5238965688209726e+07 
+8.1999999999999904e+00 -5.6466837277788406e-01 +7.7338474034141784e+00 -3.6906834392296611e-01 +1.3292697138326744e+01 +2.0500947021165475e+03 -2.1553742297241418e+05 -1.5352955385615554e+07 
+8.2999999999999901e+00 -5.6466862879612145e-01 +7.7338580646749051e+00 -3.6558218534172993e-01 +1.2593038554141332e+01 +2.0424249696408760e+03 -2.1081746407537101e+05 -1.5444266044497235e+07 
+8.3999999999999897e+00 -5.6466888921603542e-01 +7.7338697155081775e+00 -3.6183267852727635e-01 +1.1869257527905127e+01 +2.0309515138852221e+03 -2.0601487056125465e+05 -1.5515164722186839e+07 
+8.4999999999999893e+00 -5.6466915371612836e-01 +7.7338823078408501e+00 -3.5787616605972833e-01 +1.1124727701762948e+01 +2.0163039400951204e+03 -2.0115013184286086e+05 -1.5567918323463220e+07 
+8.5999999999999908e+00 -5.6466942197480241e-01 +7.7338957936102073e+00 -3.5376899757290359e-01 +1.0362822617735793e+01 +1.9991119846933632e+03 -1.9624373735034440e+05 -1.5604794343756475e+07 
+8.6999999999999904e+00 -5.6466969367049824e-01 +7.7339101247695456e+00 -3.4956752652448109e-01 +9.5869155466622988e+00 +1.9800054542996570e+03 -1.9131617551898022e+05 -1.5628060581052771e+07 
+8.7999999999999794e+00 -5.6466996848163220e-01 +7.7339252532944140e+00 -3.4532810752304083e-01 +8.8003793087721380e+00 +1.9596141750720301e+03 -1.8638793274467677e+05 -1.5639984893170726e+07 
+8.8999999999999808e+00 -5.6467024608653715e-01 +7.7339411311732054e+00 -3.4110710420324830e-01 +8.0065865656896378e+00 +1.9385681438986846e+03 -1.8147949513714341e+05 -1.5642835921255784e+07 
+8.9999999999999805e+00 -5.6467052616361435e-01 +7.7339577104168766e+00 -3.3696088028924515e-01 +7.2089095385229518e+00 +1.9174973556123455e+03 -1.7661134688094724e+05 -1.5638882258785581e+07 
+9.0999999999999801e+00 -5.6467080839119932e-01 +7.7339749430520115e+00 -3.3294580602481733e-01 +6.4107202141232680e+00 +1.8970319264562740e+03 -1.7180397144232356e+05 -1.5630393041706109e+07 
+9.1999999999999797e+00 -5.6467109244758618e-01 +7.7339927811238578e+00 -3.2911825518159515e-01 +5.6153902628431709e+00 +1.8778020358137912e+03 -1.6707785111505620e+05 -1.5619637666684935e+07 
+9.2999999999999794e+00 -5.6467137801108813e-01 +7.7340111766998154e+00 -3.2553460833577552e-01 +4.8262909457893279e+00 +1.8604379924068066e+03 -1.6245346649676998e+05 -1.5608886116379600e+07 
+9.3999999999999808e+00 -5.6467166475998543e-01 +7.7340300818663428e+00 -3.2225124860633181e-01 +4.0467932031619291e+00 +1.8455701480857169e+03 -1.5795129700548452e+05 -1.5600408533962045e+07 
+9.4999999999999805e+00 -5.6467195237252887e-01 +7.7340494487277782e+00 -3.1932456452269364e-01 +3.2802677171623573e+00 +1.8338289533846482e+03 -1.5359182131544317e+05 -1.5596475489602987e+07 
+9.5999999999999801e+00 -5.6467224052688947e-01 +7.7340692294145388e+00 -3.1681095013070654e-01 +2.5300846511474719e+00 +1.8258449625112232e+03 -1.4939551578563452e+05 -1.5599358011606712e+07 
+9.6999999999999797e+00 -5.6467252890135189e-01 +7.7340893760744578e+00 -3.1476680435837656e-01 +1.7996139176712289e+00 +1.8222488168470202e+03 -1.4538285606011320e+05 -1.5611327496634545e+07 
+9.7999999999999794e+00 -5.6467281717404016e-01 +7.7341098408795643e+00 -3.1324853147811982e-01 +1.0922250019582940e+00 +1.8236712575964277e+03 -1.4157431609249508e+05 -1.5634655776237795e+07 
+9.8999999999999808e+00 -5.6467310502312851e-01 +7.7341305760212320e+00 -3.1231254162021865e-01 +4.1128708823668059e-01 +1.8307431312537344e+03 -1.3799036884595774e+05 -1.5671615134925773e+07 
+9.9999999999999805e+00 -5.6467339212674617e-01 +7.7341515337197775e+00 -3.1201524955124454e-01 -2.3983119581598111e-01 +1.8440953704981537e+03 -1.3465148475864728e+05 -1.5724478216087202e+07 
+1.0100000000000000e+01 -5.6467367830917636e-01 +7.7341726466918699e+00 -3.1239840586923950e-01 -8.5785127676794903e-01 +1.8642013527950746e+03 -1.3157623447987082e+05 -1.5795025162273167e+07 
