# trajectory
# s[mm] rx[mm] ry[mm] rz[mm] px[rad] py[rad] pz[rad]
0.0000000000000000e+00 +7.9199999999999999e+00 +0.0000000000000000e+00 +0.0000000000000000e+00 +0.0000000000000000e+00 +0.0000000000000000e+00 +1.0000000000000000e+00
1.0000000000000001e-01 +7.9199997168812386e+00 +0.0000000000000000e+00 +9.9999999999465614e-02 -5.6623753408758932e-06 +0.0000000000000000e+00 +9.9999999998396871e-01
2.0000000000000001e-01 +7.9199988675249084e+00 +0.0000000000000000e+00 +1.9999999999572499e-01 -1.1324751390306019e-05 +0.0000000000000000e+00 +9.9999999993587496e-01
3.0000000000000004e-01 +7.9199974519309366e+00 +0.0000000000000000e+00 +2.9999999998557186e-01 -1.6987128177607825e-05 +0.0000000000000000e+00 +9.9999999985571875e-01
4.0000000000000002e-01 +7.9199954700992476e+00 +0.0000000000000000e+00 +3.9999999996579999e-01 -2.2649505725561725e-05 +0.0000000000000000e+00 +9.9999999974349996e-01
5.0000000000000000e-01 +7.9199929220297651e+00 +0.0000000000000000e+00 +4.9999999993320310e-01 -2.8311884050411076e-05 +0.0000000000000000e+00 +9.9999999959921859e-01
5.9999999999999998e-01 +7.9199898077224109e+00 +0.0000000000000000e+00 +5.9999999988457497e-01 -3.3974263161862179e-05 +0.0000000000000000e+00 +9.9999999942287465e-01
6.9999999999999996e-01 +7.9199861271771059e+00 +0.0000000000000000e+00 +6.9999999981670935e-01 -3.9636643063084300e-05 +0.0000000000000000e+00 +9.9999999921446825e-01
7.9999999999999993e-01 +7.9199818803937720e+00 +0.0000000000000000e+00 +7.9999999972639990e-01 -4.5299023750709693e-05 +0.0000000000000000e+00 +9.9999999897399916e-01
8.9999999999999991e-01 +7.9199770673723302e+00 +0.0000000000000000e+00 +8.9999999961044042e-01 -5.0961405214833681e-05 +0.0000000000000000e+00 +9.9999999870146750e-01
9.9999999999999989e-01 +7.9199716881127040e+00 +0.0000000000000000e+00 +9.9999999946562468e-01 -5.6623787439014713e-05 +0.0000000000000000e+00 +9.9999999839687326e-01
1.0999999999999999e+00 +7.9199657426148180e+00 +0.0000000000000000e+00 +1.0999999992887464e+00 -6.2286170400274463e-05 +0.0000000000000000e+00 +9.9999999806021644e-01
1.2000000000000000e+00 +7.9199592308786002e+00 +0.0000000000000000e+00 +1.1999999990765993e+00 -6.7948554069097983e-05 +0.0000000000000000e+00 +9.9999999769149694e-01
1.3000000000000000e+00 +7.9199521529039814e+00 +0.0000000000000000e+00 +1.2999999988259769e+00 -7.3610938409433800e-05 +0.0000000000000000e+00 +9.9999999729071487e-01
1.4000000000000001e+00 +7.9199445086908966e+00 +0.0000000000000000e+00 +1.3999999985336733e+00 -7.9273323378694087e-05 +0.0000000000000000e+00 +9.9999999685787011e-01
1.5000000000000002e+00 +7.9199362982392856e+00 +0.0000000000000000e+00 +1.4999999981964822e+00 -8.4935708927754851e-05 +0.0000000000000000e+00 +9.9999999639296266e-01
1.6000000000000003e+00 +7.9199275215490932e+00 +0.0000000000000000e+00 +1.5999999978111972e+00 -9.0598095000956133e-05 +0.0000000000000000e+00 +9.9999999589599253e-01
1.7000000000000004e+00 +7.9199181786202697e+00 +0.0000000000000000e+00 +1.6999999973746120e+00 -9.6260481536102229e-05 +0.0000000000000000e+00 +9.9999999536695983e-01
1.8000000000000005e+00 +7.9199082694527725e+00 +0.0000000000000000e+00 +1.7999999968835205e+00 -1.0192286846446192e-04 +0.0000000000000000e+00 +9.9999999480586443e-01
1.9000000000000006e+00 +7.9198977940465660e+00 +0.0000000000000000e+00 +1.8999999963347163e+00 -1.0758525571076873e-04 +0.0000000000000000e+00 +9.9999999421270636e-01
2.0000000000000004e+00 +7.9198867524016228e+00 +0.0000000000000000e+00 +1.9999999957249930e+00 -1.1324764319322123e-04 +0.0000000000000000e+00 +9.9999999358748559e-01
2.1000000000000005e+00 +7.9198751445179232e+00 +0.0000000000000000e+00 +2.0999999950511445e+00 -1.1891003082406946e-04 +0.0000000000000000e+00 +9.9999999293020225e-01
2.2000000000000006e+00 +7.9198629703954566e+00 +0.0000000000000000e+00 +2.1999999943099646e+00 -1.2457241851606296e-04 +0.0000000000000000e+00 +9.9999999224085623e-01
2.3000000000000007e+00 +7.9198502300342213e+00 +0.0000000000000000e+00 +2.2999999934982469e+00 -1.3023480618889856e-04 +0.0000000000000000e+00 +9.9999999151944763e-01
2.4000000000000008e+00 +7.9198369234342225e+00 +0.0000000000000000e+00 +2.3999999926127855e+00 -1.3589719376980644e-04 +0.0000000000000000e+00 +9.9999999076597634e-01
2.5000000000000009e+00 +7.9198230505954728e+00 +0.0000000000000000e+00 +2.4999999916503737e+00 -1.4155958119355016e-04 +0.0000000000000000e+00 +9.9999998998044248e-01
2.6000000000000010e+00 +7.9198086115179906e+00 +0.0000000000000000e+00 +2.5999999906078051e+00 -1.4722196840242651e-04 +0.0000000000000000e+00 +9.9999998916284605e-01
2.7000000000000011e+00 +7.9197936062018011e+00 +0.0000000000000000e+00 +2.6999999894818738e+00 -1.5288435534626540e-04 +0.0000000000000000e+00 +9.9999998831318693e-01
2.8000000000000012e+00 +7.9197780346469315e+00 +0.0000000000000000e+00 +2.7999999882693736e+00 -1.5854674198242978e-04 +0.0000000000000000e+00 +9.9999998743146523e-01
2.9000000000000012e+00 +7.9197618968534158e+00 +0.0000000000000000e+00 +2.8999999869670980e+00 -1.6420912827581547e-04 +0.0000000000000000e+00 +9.9999998651768096e-01
3.0000000000000013e+00 +7.9197451928212885e+00 +0.0000000000000000e+00 +2.9999999855718409e+00 -1.6987151419885088e-04 +0.0000000000000000e+00 +9.9999998557183423e-01
3.1000000000000014e+00 +7.9197279225505888e+00 +0.0000000000000000e+00 +3.0999999840803962e+00 -1.7553389973149698e-04 +0.0000000000000000e+00 +9.9999998459392492e-01
3.2000000000000015e+00 +7.9197100860413556e+00 +0.0000000000000000e+00 +3.1999999824895573e+00 -1.8119628486124695e-04 +0.0000000000000000e+00 +9.9999998358395303e-01
3.3000000000000016e+00 +7.9196916832936299e+00 +0.0000000000000000e+00 +3.2999999807961182e+00 -1.8685866958312607e-04 +0.0000000000000000e+00 +9.9999998254191869e-01
3.4000000000000017e+00 +7.9196727143074526e+00 +0.0000000000000000e+00 +3.3999999789968722e+00 -1.9252105389969126e-04 +0.0000000000000000e+00 +9.9999998146782176e-01
3.5000000000000018e+00 +7.9196531790828635e+00 +0.0000000000000000e+00 +3.4999999770886134e+00 -1.9818343782103100e-04 +0.0000000000000000e+00 +9.9999998036166238e-01
3.6000000000000019e+00 +7.9196330776199009e+00 +0.0000000000000000e+00 +3.5999999750681360e+00 -2.0384582136476486e-04 +0.0000000000000000e+00 +9.9999997922344042e-01
3.7000000000000020e+00 +7.9196124099186020e+00 +0.0000000000000000e+00 +3.6999999729322330e+00 -2.0950820455604326e-04 +0.0000000000000000e+00 +9.9999997805315599e-01
3.8000000000000020e+00 +7.9195911759790008e+00 +0.0000000000000000e+00 +3.7999999706776983e+00 -2.1517058742754713e-04 +0.0000000000000000e+00 +9.9999997685080899e-01
3.9000000000000021e+00 +7.9195693758011263e+00 +0.0000000000000000e+00 +3.8999999683013260e+00 -2.2083297001948744e-04 +0.0000000000000000e+00 +9.9999997561639953e-01
4.0000000000000018e+00 +7.9195470093850044e+00 +0.0000000000000000e+00 +3.9999999657999097e+00 -2.2649535237960486e-04 +0.0000000000000000e+00 +9.9999997434992749e-01
4.1000000000000014e+00 +7.9195240767306565e+00 +0.0000000000000000e+00 +4.0999999631702426e+00 -2.3215773456297496e-04 +0.0000000000000000e+00 +9.9999997305139288e-01
4.2000000000000011e+00 +7.9195005778380958e+00 +0.0000000000000000e+00 +4.1999999604091194e+00 -2.3782011662986922e-04 +0.0000000000000000e+00 +9.9999997172079580e-01
4.3000000000000007e+00 +7.9194765127073321e+00 +0.0000000000000000e+00 +4.2999999575133332e+00 -2.4348249864361639e-04 +0.0000000000000000e+00 +9.9999997035813615e-01
4.4000000000000004e+00 +7.9194518813383672e+00 +0.0000000000000000e+00 +4.3999999544796777e+00 -2.4914488067040799e-04 +0.0000000000000000e+00 +9.9999996896341392e-01
4.5000000000000000e+00 +7.9194266837311957e+00 +0.0000000000000000e+00 +4.4999999513049467e+00 -2.5480726277929866e-04 +0.0000000000000000e+00 +9.9999996753662912e-01
4.5999999999999996e+00 +7.9194009198858062e+00 +0.0000000000000000e+00 +4.5999999479859346e+00 -2.6046964504220589e-04 +0.0000000000000000e+00 +9.9999996607778163e-01
4.6999999999999993e+00 +7.9193745898021799e+00 +0.0000000000000000e+00 +4.6999999445194343e+00 -2.6613202753391030e-04 +0.0000000000000000e+00 +9.9999996458687157e-01
4.7999999999999989e+00 +7.9193476934802893e+00 +0.0000000000000000e+00 +4.7999999409022402e+00 -2.7179441033205572e-04 +0.0000000000000000e+00 +9.9999996306389882e-01
4.8999999999999986e+00 +7.9193202309201007e+00 +0.0000000000000000e+00 +4.8999999371311453e+00 -2.7745679351714927e-04 +0.0000000000000000e+00 +9.9999996150886339e-01
4.9999999999999982e+00 +7.9192922021215706e+00 +0.0000000000000000e+00 +4.9999999332029441e+00 -2.8311917717256137e-04 +0.0000000000000000e+00 +9.9999995992176527e-01
5.0999999999999979e+00 +7.9192636070846474e+00 +0.0000000000000000e+00 +5.0999999291144293e+00 -2.8878156138452605e-04 +0.0000000000000000e+00 +9.9999995830260435e-01
5.1999999999999975e+00 +7.9192344458092716e+00 +0.0000000000000000e+00 +5.1999999248623956e+00 -2.9444394624214088e-04 +0.0000000000000000e+00 +9.9999995665138064e-01
5.2999999999999972e+00 +7.9192047182953740e+00 +0.0000000000000000e+00 +5.2999999204436365e+00 -3.0010633183736717e-04 +0.0000000000000000e+00 +9.9999995496809413e-01
5.3999999999999968e+00 +7.9191744245428763e+00 +0.0000000000000000e+00 +5.3999999158549459e+00 -3.0576871826503013e-04 +0.0000000000000000e+00 +9.9999995325274471e-01
5.4999999999999964e+00 +7.9191435645516899e+00 +0.0000000000000000e+00 +5.4999999110931173e+00 -3.1143110562281906e-04 +0.0000000000000000e+00 +9.9999995150533239e-01
5.5999999999999961e+00 +7.9191121383217169e+00 +0.0000000000000000e+00 +5.5999999061549435e+00 -3.1709349401128745e-04 +0.0000000000000000e+00 +9.9999994972585715e-01
5.6999999999999957e+00 +7.9190801458528499e+00 +0.0000000000000000e+00 +5.6999999010372191e+00 -3.2275588353385310e-04 +0.0000000000000000e+00 +9.9999994791431890e-01
5.7999999999999954e+00 +7.9190475871449690e+00 +0.0000000000000000e+00 +5.7999998957367378e+00 -3.2841827429679835e-04 +0.0000000000000000e+00 +9.9999994607071752e-01
5.8999999999999950e+00 +7.9190144621979455e+00 +0.0000000000000000e+00 +5.8999998902502933e+00 -3.3408066640927032e-04 +0.0000000000000000e+00 +9.9999994419505300e-01
5.9999999999999947e+00 +7.9189807710116389e+00 +0.0000000000000000e+00 +5.9999998845746791e+00 -3.3974305998328097e-04 +0.0000000000000000e+00 +9.9999994228732536e-01
6.0999999999999943e+00 +7.9189465135858965e+00 +0.0000000000000000e+00 +6.0999998787066891e+00 -3.4540545513369524e-04 +0.0000000000000000e+00 +9.9999994034753448e-01
6.1999999999999940e+00 +7.9189116899205558e+00 +0.0000000000000000e+00 +6.1999998726431169e+00 -3.5106785197809695e-04 +0.0000000000000000e+00 +9.9999993837568024e-01
6.2999999999999936e+00 +7.9188763000154410e+00 +0.0000000000000000e+00 +6.2999998663807562e+00 -3.5673025063665486e-04 +0.0000000000000000e+00 +9.9999993637176265e-01
6.3999999999999932e+00 +7.9188403438703645e+00 +0.0000000000000000e+00 +6.3999998599164005e+00 -3.6239265123211013e-04 +0.0000000000000000e+00 +9.9999993433578160e-01
6.4999999999999929e+00 +7.9188038214851257e+00 +0.0000000000000000e+00 +6.4999998532468437e+00 -3.6805505388977659e-04 +0.0000000000000000e+00 +9.9999993226773698e-01
6.5999999999999925e+00 +7.9187667328595133e+00 +0.0000000000000000e+00 +6.5999998463688794e+00 -3.7371745873754039e-04 +0.0000000000000000e+00 +9.9999993016762867e-01
6.6999999999999922e+00 +7.9187290779933006e+00 +0.0000000000000000e+00 +6.6999998392793012e+00 -3.7937986590586014e-04 +0.0000000000000000e+00 +9.9999992803545668e-01
6.7999999999999918e+00 +7.9186908568862497e+00 +0.0000000000000000e+00 +6.7999998319749020e+00 -3.8504227552776666e-04 +0.0000000000000000e+00 +9.9999992587122088e-01
6.8999999999999915e+00 +7.9186520695381084e+00 +0.0000000000000000e+00 +6.8999998244524763e+00 -3.9070468773886300e-04 +0.0000000000000000e+00 +9.9999992367492119e-01
6.9999999999999911e+00 +7.9186127159486110e+00 +0.0000000000000000e+00 +6.9999998167088178e+00 -3.9636710267732433e-04 +0.0000000000000000e+00 +9.9999992144655747e-01
7.0999999999999908e+00 +7.9185727961174779e+00 +0.0000000000000000e+00 +7.0999998087407192e+00 -4.0202952048389793e-04 +0.0000000000000000e+00 +9.9999991918612963e-01
7.1999999999999904e+00 +7.9185323100444140e+00 +0.0000000000000000e+00 +7.1999998005449743e+00 -4.0769194130190297e-04 +0.0000000000000000e+00 +9.9999991689363765e-01
7.2999999999999901e+00 +7.9184912577291122e+00 +0.0000000000000000e+00 +7.2999997921183777e+00 -4.1335436527723055e-04 +0.0000000000000000e+00 +9.9999991456908133e-01
7.3999999999999897e+00 +7.9184496391712482e+00 +0.0000000000000000e+00 +7.3999997834577220e+00 -4.1901679255834358e-04 +0.0000000000000000e+00 +9.9999991221246054e-01
7.4999999999999893e+00 +7.9184074543704845e+00 +0.0000000000000000e+00 +7.4999997745598010e+00 -4.2467922329627656e-04 +0.0000000000000000e+00 +9.9999990982377518e-01
7.5999999999999890e+00 +7.9183647033264686e+00 +0.0000000000000000e+00 +7.5999997654214084e+00 -4.3034165764463563e-04 +0.0000000000000000e+00 +9.9999990740302513e-01
7.6999999999999886e+00 +7.9183213860388308e+00 +0.0000000000000000e+00 +7.6999997560393378e+00 -4.3600409575959847e-04 +0.0000000000000000e+00 +9.9999990495021029e-01
7.7999999999999883e+00 +7.9182775025071859e+00 +0.0000000000000000e+00 +7.7999997464103821e+00 -4.4166653779991410e-04 +0.0000000000000000e+00 +9.9999990246533055e-01
7.8999999999999879e+00 +7.9182330527311340e+00 +0.0000000000000000e+00 +7.8999997365313348e+00 -4.4732898392690283e-04 +0.0000000000000000e+00 +9.9999989994838567e-01
7.9999999999999876e+00 +7.9181880367102586e+00 +0.0000000000000000e+00 +7.9999997263989897e+00 -4.5299143430445620e-04 +0.0000000000000000e+00 +9.9999989739937556e-01
8.0999999999999872e+00 +7.9181424544441263e+00 +0.0000000000000000e+00 +8.0999997160101405e+00 -4.5865388909839544e-04 +0.0000000000000000e+00 +9.9999989481830009e-01
8.1999999999999869e+00 +7.9180963059322869e+00 +0.0000000000000000e+00 +8.1999997053615807e+00 -4.6431634846941683e-04 +0.0000000000000000e+00 +9.9999989220515906e-01
8.2999999999999865e+00 +7.9180495911742748e+00 +0.0000000000000000e+00 +8.2999996944501042e+00 -4.6997881256603715e-04 +0.0000000000000000e+00 +9.9999988955995234e-01
8.3999999999999861e+00 +7.9180023101696113e+00 +0.0000000000000000e+00 +8.3999996832725028e+00 -4.7564128152395243e-04 +0.0000000000000000e+00 +9.9999988688267982e-01
8.4999999999999858e+00 +7.9179544629178036e+00 +0.0000000000000000e+00 +8.4999996718255719e+00 -4.8130375546603818e-04 +0.0000000000000000e+00 +9.9999988417334129e-01
8.5999999999999854e+00 +7.9179060494183480e+00 +0.0000000000000000e+00 +8.5999996601061035e+00 -4.8696623450234959e-04 +0.0000000000000000e+00 +9.9999988143193674e-01
8.6999999999999851e+00 +7.9178570696707302e+00 +0.0000000000000000e+00 +8.6999996481108912e+00 -4.9262871873012170e-04 +0.0000000000000000e+00 +9.9999987865846596e-01
8.7999999999999847e+00 +7.9178075236744263e+00 +0.0000000000000000e+00 +8.7999996358367287e+00 -4.9829120823376952e-04 +0.0000000000000000e+00 +9.9999987585292882e-01
8.8999999999999844e+00 +7.9177574114289051e+00 +0.0000000000000000e+00 +8.8999996232804079e+00 -5.0395370308488829e-04 +0.0000000000000000e+00 +9.9999987301532511e-01
8.9999999999999840e+00 +7.9177067329336293e+00 +0.0000000000000000e+00 +8.9999996104387243e+00 -5.0961620334225390e-04 +0.0000000000000000e+00 +9.9999987014565483e-01
9.0999999999999837e+00 +7.9176554881880552e+00 +0.0000000000000000e+00 +9.0999995973084697e+00 -5.1527870905182266e-04 +0.0000000000000000e+00 +9.9999986724391776e-01
9.1999999999999833e+00 +7.9176036771916358e+00 +0.0000000000000000e+00 +9.1999995838864379e+00 -5.2094122024673201e-04 +0.0000000000000000e+00 +9.9999986431011390e-01
9.2999999999999829e+00 +7.9175512999438222e+00 +0.0000000000000000e+00 +9.2999995701694225e+00 -5.2660373694730033e-04 +0.0000000000000000e+00 +9.9999986134424312e-01
9.3999999999999826e+00 +7.9174983564440629e+00 +0.0000000000000000e+00 +9.3999995561542171e+00 -5.3226625916102748e-04 +0.0000000000000000e+00 +9.9999985834630523e-01
9.4999999999999822e+00 +7.9174448466918061e+00 +0.0000000000000000e+00 +9.4999995418376137e+00 -5.3792878688259480e-04 +0.0000000000000000e+00 +9.9999985531630020e-01
9.5999999999999819e+00 +7.9173907706865032e+00 +0.0000000000000000e+00 +9.5999995272164078e+00 -5.4359132009386554e-04 +0.0000000000000000e+00 +9.9999985225422794e-01
9.6999999999999815e+00 +7.9173361284276060e+00 +0.0000000000000000e+00 +9.6999995122873912e+00 -5.4925385876388507e-04 +0.0000000000000000e+00 +9.9999984916008844e-01
9.7999999999999812e+00 +7.9172809199145702e+00 +0.0000000000000000e+00 +9.7999994970473576e+00 -5.5491640284888112e-04 +0.0000000000000000e+00 +9.9999984603388159e-01
9.8999999999999808e+00 +7.9172251451468574e+00 +0.0000000000000000e+00 +9.8999994814930989e+00 -5.6057895229226398e-04 +0.0000000000000000e+00 +9.9999984287560728e-01
9.9999999999999805e+00 +7.9171688041239356e+00 +0.0000000000000000e+00 +9.9999994656214106e+00 -5.6624150702462692e-04 +0.0000000000000000e+00 +9.9999983968526551e-01
1.0099999999999980e+01 +7.9171118968452792e+00 +0.0000000000000000e+00 +1.0099999449429085e+01 -5.7190406696446450e-04 +0.0000000000000000e+00 +9.9999983646285617e-01
1.0199999999999980e+01 +7.9170544233103719e+00 +0.0000000000000000e+00 +1.0199999432912914e+01 -5.7756663202607422e-04 +0.0000000000000000e+00 +9.9999983320837937e-01
1.0299999999999979e+01 +7.9169963835187058e+00 +0.0000000000000000e+00 +1.0299999416069692e+01 -5.8322920212745767e-04 +0.0000000000000000e+00 +9.9999982992183489e-01
1.0399999999999979e+01 +7.9169377774697809e+00 +0.0000000000000000e+00 +1.0399999398896213e+01 -5.8889177719103833e-04 +0.0000000000000000e+00 +9.9999982660322284e-01
1.0499999999999979e+01 +7.9168786051631050e+00 +0.0000000000000000e+00 +1.0499999381389269e+01 -5.9455435714366118e-04 +0.0000000000000000e+00 +9.9999982325254311e-01
1.0599999999999978e+01 +7.9168188665981916e+00 +0.0000000000000000e+00 +1.0599999363545653e+01 -6.0021694191659224e-04 +0.0000000000000000e+00 +9.9999981986979558e-01
1.0699999999999978e+01 +7.9167585617745626e+00 +0.0000000000000000e+00 +1.0699999345362158e+01 -6.0587953144551837e-04 +0.0000000000000000e+00 +9.9999981645498037e-01
1.0799999999999978e+01 +7.9166976906917457e+00 +0.0000000000000000e+00 +1.0799999326835579e+01 -6.1154212567054653e-04 +0.0000000000000000e+00 +9.9999981300809726e-01
1.0899999999999977e+01 +7.9166362533492736e+00 +0.0000000000000000e+00 +1.0899999307962709e+01 -6.1720472453620360e-04 +0.0000000000000000e+00 +9.9999980952914636e-01
1.0999999999999977e+01 +7.9165742497466853e+00 +0.0000000000000000e+00 +1.0999999288740339e+01 -6.2286732799143559e-04 +0.0000000000000000e+00 +9.9999980601812755e-01
1.1099999999999977e+01 +7.9165116798835236e+00 +0.0000000000000000e+00 +1.1099999269165265e+01 -6.2852993598960750e-04 +0.0000000000000000e+00 +9.9999980247504072e-01
1.1199999999999976e+01 +7.9164485437593370e+00 +0.0000000000000000e+00 +1.1199999249234278e+01 -6.3419254848850277e-04 +0.0000000000000000e+00 +9.9999979889988599e-01
1.1299999999999976e+01 +7.9163848413736773e+00 +0.0000000000000000e+00 +1.1299999228944172e+01 -6.3985516545032254e-04 +0.0000000000000000e+00 +9.9999979529266314e-01
1.1399999999999975e+01 +7.9163205727260992e+00 +0.0000000000000000e+00 +1.1399999208291741e+01 -6.4551778684168531e-04 +0.0000000000000000e+00 +9.9999979165337216e-01
1.1499999999999975e+01 +7.9162557378161624e+00 +0.0000000000000000e+00 +1.1499999187273778e+01 -6.5118041263362660e-04 +0.0000000000000000e+00 +9.9999978798201306e-01
1.1599999999999975e+01 +7.9161903366434272e+00 +0.0000000000000000e+00 +1.1599999165887075e+01 -6.5684304280159815e-04 +0.0000000000000000e+00 +9.9999978427858571e-01
1.1699999999999974e+01 +7.9161243692074574e+00 +0.0000000000000000e+00 +1.1699999144128427e+01 -6.6250567732546739e-04 +0.0000000000000000e+00 +9.9999978054309013e-01
1.1799999999999974e+01 +7.9160578355078179e+00 +0.0000000000000000e+00 +1.1799999121994624e+01 -6.6816831618951719e-04 +0.0000000000000000e+00 +9.9999977677552621e-01
