# field on trajectory
# s[mm] rx[mm] ry[mm] rz[mm] bx[T] by[T] bz[T]
0.0000000000000000e+00 +8.1530000000000094e+00 +0.0000000000000000e+00 +0.0000000000000000e+00 -2.9624538573063280e-02 -5.6566140801218834e-01 +5.6952758035253249e-03
1.0000000000000001e-01 +8.1529997159377707e+00 +0.0000000000000000e+00 +1.0008006405070299e-01 -2.9624421069256605e-02 -5.6566117392082560e-01 +5.6952172529073372e-03
2.0000000000000001e-01 +8.1529988637557800e+00 +0.0000000000000000e+00 +2.0016012809818201e-01 -2.9624292795256548e-02 -5.6566094159202029e-01 +5.6951614336926640e-03
2.9999999999999999e-01 +8.1529974434524792e+00 +0.0000000000000000e+00 +3.0024019213920999e-01 -2.9624155654549067e-02 -5.6566071150395092e-01 +5.6951083365785592e-03
4.0000000000000002e-01 +8.1529954550242092e+00 +0.0000000000000000e+00 +4.0032025617056399e-01 -2.9624011550630613e-02 -5.6566048413481029e-01 +5.6950579522640392e-03
5.0000000000000000e-01 +8.1529928984782600e+00 +0.0000000000000000e+00 +5.0040032018901703e-01 -2.9623862387002212e-02 -5.6566025996270308e-01 +5.6950102714486434e-03
5.9999999999999998e-01 +8.1529897738146193e+00 +0.0000000000000000e+00 +6.0048038419134497e-01 -2.9623710067176515e-02 -5.6566003946578847e-01 +5.6949652848337423e-03
6.9999999999999996e-01 +8.1529860810223909e+00 +0.0000000000000000e+00 +7.0056044817432195e-01 -2.9623556494678793e-02 -5.6565982312230734e-01 +5.6949229831226309e-03
8.0000000000000004e-01 +8.1529818201124709e+00 +0.0000000000000000e+00 +8.0064051213472498e-01 -2.9623403573032961e-02 -5.6565961141032983e-01 +5.6948833570177248e-03
9.0000000000000002e-01 +8.1529769910812302e+00 +0.0000000000000000e+00 +9.0072057606932698e-01 -2.9623253205776030e-02 -5.6565940480803556e-01 +5.6948463972232863e-03
1.0000000000000000e+00 +8.1529715939250291e+00 +0.0000000000000000e+00 +1.0008006399749001e+00 -2.9623107296451682e-02 -5.6565920379360324e-01 +5.6948120944441067e-03
1.1000000000000001e+00 +8.1529656286511507e+00 +0.0000000000000000e+00 +1.1008807038482300e+00 -2.9622967748605254e-02 -5.6565900884512377e-01 +5.6947804393844082e-03
1.2000000000000000e+00 +8.1529590952522994e+00 +0.0000000000000000e+00 +1.2009607676860801e+00 -2.9622836465793723e-02 -5.6565882044079974e-01 +5.6947514227497480e-03
1.3000000000000000e+00 +8.1529519937357708e+00 +0.0000000000000000e+00 +1.3010408314852300e+00 -2.9622715351573251e-02 -5.6565863905871794e-01 +5.6947250352444674e-03
1.3999999999999999e+00 +8.1529443240979198e+00 +0.0000000000000000e+00 +1.4011208952424601e+00 -2.9622606309509122e-02 -5.6565846517704910e-01 +5.6947012675735735e-03
1.5000000000000000e+00 +8.1529360863350995e+00 +0.0000000000000000e+00 +1.5012009589545301e+00 -2.9622511243170863e-02 -5.6565829927396072e-01 +5.6946801104416824e-03
1.6000000000000001e+00 +8.1529272804509691e+00 +0.0000000000000000e+00 +1.6012810226182299e+00 -2.9622432056128613e-02 -5.6565814182756413e-01 +5.6946615545522454e-03
1.7000000000000000e+00 +8.1529179064491508e+00 +0.0000000000000000e+00 +1.7013610862303301e+00 -2.9622370651955769e-02 -5.6565799331596722e-01 +5.6946455906079566e-03
1.8000000000000000e+00 +8.1529079643223703e+00 +0.0000000000000000e+00 +1.8014411497875999e+00 -2.9622328934232861e-02 -5.6565785421736181e-01 +5.6946322093114499e-03
1.8999999999999999e+00 +8.1528974540779000e+00 +0.0000000000000000e+00 +1.9015212132868200e+00 -2.9622308806536678e-02 -5.6565772500982514e-01 +5.6946214013630673e-03
2.0000000000000000e+00 +8.1528863757084800e+00 +0.0000000000000000e+00 +2.0016012767247702e+00 -2.9622312172448990e-02 -5.6565760617154548e-01 +5.6946131574629778e-03
2.1000000000000001e+00 +8.1528747292177304e+00 +0.0000000000000000e+00 +2.1016813400982199e+00 -2.9622340250520410e-02 -5.6565749800251286e-01 +5.6946074547359980e-03
2.2000000000000002e+00 +8.1528625146056601e+00 +0.0000000000000000e+00 +2.2017614034039301e+00 -2.9622391647569263e-02 -5.6565740012367982e-01 +5.6946042185570794e-03
2.2999999999999998e+00 +8.1528497318759001e+00 +0.0000000000000000e+00 +2.3018414666387002e+00 -2.9622464348075660e-02 -5.6565731199416436e-01 +5.6946033619675899e-03
2.3999999999999999e+00 +8.1528363810211903e+00 +0.0000000000000000e+00 +2.4019215297993002e+00 -2.9622556336513155e-02 -5.6565723307317339e-01 +5.6946047980068176e-03
2.5000000000000000e+00 +8.1528224620451493e+00 +0.0000000000000000e+00 +2.5020015928824901e+00 -2.9622665597338300e-02 -5.6565716281983547e-01 +5.6946084397099320e-03
2.6000000000000001e+00 +8.1528079749477893e+00 +0.0000000000000000e+00 +2.6020816558850601e+00 -2.9622790114994992e-02 -5.6565710069331276e-01 +5.6946142001088901e-03
2.7000000000000002e+00 +8.1527929197291105e+00 +0.0000000000000000e+00 +2.7021617188037701e+00 -2.9622927873911419e-02 -5.6565704615277423e-01 +5.6946219922318561e-03
2.7999999999999998e+00 +8.1527772963891003e+00 +0.0000000000000000e+00 +2.8022417816354102e+00 -2.9623076858498524e-02 -5.6565699865739583e-01 +5.6946317291029450e-03
2.8999999999999999e+00 +8.1527611049277802e+00 +0.0000000000000000e+00 +2.9023218443767500e+00 -2.9623235053148386e-02 -5.6565695766636159e-01 +5.6946433237419275e-03
3.0000000000000000e+00 +8.1527443453451305e+00 +0.0000000000000000e+00 +3.0024019070245598e+00 -2.9623400442232738e-02 -5.6565692263886458e-01 +5.6946566891639700e-03
3.1000000000000001e+00 +8.1527270176411495e+00 +0.0000000000000000e+00 +3.1024819695756198e+00 -2.9623571010101324e-02 -5.6565689303410627e-01 +5.6946717383793560e-03
3.2000000000000002e+00 +8.1527091218158603e+00 +0.0000000000000000e+00 +3.2025620320267101e+00 -2.9623744741080350e-02 -5.6565686831129858e-01 +5.6946883843932046e-03
3.2999999999999998e+00 +8.1526906578692397e+00 +0.0000000000000000e+00 +3.3026420943745900e+00 -2.9623919619470938e-02 -5.6565684792966375e-01 +5.6947065402052095e-03
3.3999999999999999e+00 +8.1526716258013003e+00 +0.0000000000000000e+00 +3.4027221566160502e+00 -2.9624093629547568e-02 -5.6565683134843492e-01 +5.6947261188093493e-03
3.5000000000000000e+00 +8.1526520256120403e+00 +0.0000000000000000e+00 +3.5028022187478500e+00 -2.9624264755556476e-02 -5.6565681802685797e-01 +5.6947470331936258e-03
3.6000000000000001e+00 +8.1526318572978198e+00 +0.0000000000000000e+00 +3.6028822807667802e+00 -2.9624430981715640e-02 -5.6565680742421820e-01 +5.6947691963400724e-03
3.7000000000000002e+00 +8.1526111208659096e+00 +0.0000000000000000e+00 +3.7029623426696099e+00 -2.9624590292207161e-02 -5.6565679899973098e-01 +5.6947925212233160e-03
3.7999999999999998e+00 +8.1525898163126804e+00 +0.0000000000000000e+00 +3.8030424044531101e+00 -2.9624740671184726e-02 -5.6565679221270804e-01 +5.6948169208120483e-03
3.8999999999999999e+00 +8.1525679436344909e+00 +0.0000000000000000e+00 +3.9031224661140600e+00 -2.9624880102767551e-02 -5.6565678652247775e-01 +5.6948423080678866e-03
4.0000000000000000e+00 +8.1525455028386205e+00 +0.0000000000000000e+00 +4.0032025276492398e+00 -2.9625006571048232e-02 -5.6565678138830078e-01 +5.6948685959447758e-03
4.0999999999999996e+00 +8.1525224939177896e+00 +0.0000000000000000e+00 +4.1032825890554099e+00 -2.9625118526817887e-02 -5.6565677638895329e-01 +5.6948957163559209e-03
4.2000000000000002e+00 +8.1524989168792708e+00 +0.0000000000000000e+00 +4.2033626503293604e+00 -2.9625216117062547e-02 -5.6565677153698579e-01 +5.6949236701373113e-03
4.2999999999999998e+00 +8.1524747717157897e+00 +0.0000000000000000e+00 +4.3034427114678504e+00 -2.9625299874005830e-02 -5.6565676694358691e-01 +5.6949524737862269e-03
4.4000000000000004e+00 +8.1524500584346207e+00 +0.0000000000000000e+00 +4.4035227724676700e+00 -2.9625370329886113e-02 -5.6565676271982002e-01 +5.6949821438072850e-03
4.5000000000000000e+00 +8.1524247770285001e+00 +0.0000000000000000e+00 +4.5036028333255800e+00 -2.9625428016970424e-02 -5.6565675897684686e-01 +5.6950126967154685e-03
4.5999999999999996e+00 +8.1523989275046898e+00 +0.0000000000000000e+00 +4.6036828940383696e+00 -2.9625473467544385e-02 -5.6565675582570274e-01 +5.6950441490344270e-03
4.7000000000000002e+00 +8.1523725098559208e+00 +0.0000000000000000e+00 +4.7037629546028104e+00 -2.9625507213926108e-02 -5.6565675337751853e-01 +5.6950765172994969e-03
4.7999999999999998e+00 +8.1523455240894709e+00 +0.0000000000000000e+00 +4.8038430150156701e+00 -2.9625529788456253e-02 -5.6565675174329566e-01 +5.6951098180560338e-03
4.9000000000000004e+00 +8.1523179701980606e+00 +0.0000000000000000e+00 +4.9039230752737302e+00 -2.9625541723511801e-02 -5.6565675103413104e-01 +5.6951440678624137e-03
5.0000000000000000e+00 +8.1522898481889605e+00 +0.0000000000000000e+00 +5.0040031353737602e+00 -2.9625543551496106e-02 -5.6565675136098881e-01 +5.6951792832883484e-03
5.0999999999999996e+00 +8.1522611580549000e+00 +0.0000000000000000e+00 +5.1040831953125396e+00 -2.9625535804852780e-02 -5.6565675283492634e-01 +5.6952154809179227e-03
5.2000000000000002e+00 +8.1522318997995207e+00 +0.0000000000000000e+00 +5.2041632550868497e+00 -2.9625519016057138e-02 -5.6565675556689443e-01 +5.6952526773481850e-03
5.2999999999999998e+00 +8.1522020734228100e+00 +0.0000000000000000e+00 +5.3042433146934496e+00 -2.9625493717624157e-02 -5.6565675966785123e-01 +5.6952908891910008e-03
5.4000000000000004e+00 +8.1521716789247893e+00 +0.0000000000000000e+00 +5.4043233741291203e+00 -2.9625460442108859e-02 -5.6565676524873054e-01 +5.6953301330734197e-03
5.5000000000000000e+00 +8.1521407163090807e+00 +0.0000000000000000e+00 +5.5044034333906504e+00 -2.9625419722106815e-02 -5.6565677242041412e-01 +5.6953704256380577e-03
5.5999999999999996e+00 +8.1521091855684098e+00 +0.0000000000000000e+00 +5.6044834924747899e+00 -2.9625372090262021e-02 -5.6565678129384345e-01 +5.6954117835449278e-03
5.7000000000000002e+00 +8.1520770867064094e+00 +0.0000000000000000e+00 +5.7045635513783299e+00 -2.9625318079259881e-02 -5.6565679197984797e-01 +5.6954542234703602e-03
5.7999999999999998e+00 +8.1520444197231008e+00 +0.0000000000000000e+00 +5.8046436100980499e+00 -2.9625258221835107e-02 -5.6565680458925849e-01 +5.6954977621088291e-03
5.9000000000000004e+00 +8.1520111846184609e+00 +0.0000000000000000e+00 +5.9047236686307096e+00 -2.9625193050772190e-02 -5.6565681923287747e-01 +5.6955424161733385e-03
5.9999999999999902e+00 +8.1519773813925003e+00 +0.0000000000000000e+00 +6.0048037269731003e+00 -2.9625123098913460e-02 -5.6565683602147743e-01 +5.6955882023958654e-03
6.0999999999999899e+00 +8.1519430100452208e+00 +0.0000000000000000e+00 +6.1048837851219799e+00 -2.9625048963044801e-02 -5.6565685505712604e-01 +5.6956351352619649e-03
6.1999999999999904e+00 +8.1519080705766100e+00 +0.0000000000000000e+00 +6.2049638430741396e+00 -2.9624971461352231e-02 -5.6565687641183082e-01 +5.6956832214153548e-03
6.2999999999999901e+00 +8.1518725629866804e+00 +0.0000000000000000e+00 +6.3050439008263499e+00 -2.9624891459934580e-02 -5.6565690015111536e-01 +5.6957324657945837e-03
6.3999999999999897e+00 +8.1518364872754301e+00 +0.0000000000000000e+00 +6.4051239583753699e+00 -2.9624809824888736e-02 -5.6565692634053022e-01 +5.6957828733300228e-03
6.4999999999999902e+00 +8.1517998434428591e+00 +0.0000000000000000e+00 +6.5052040157180002e+00 -2.9624727422309108e-02 -5.6565695504565328e-01 +5.6958344489433741e-03
6.5999999999999899e+00 +8.1517626314889604e+00 +0.0000000000000000e+00 +6.6052840728510001e+00 -2.9624645118287288e-02 -5.6565698633209061e-01 +5.6958871975471810e-03
6.6999999999999904e+00 +8.1517248514137499e+00 +0.0000000000000000e+00 +6.7053641297711399e+00 -2.9624563778911549e-02 -5.6565702026547893e-01 +5.6959411240443472e-03
6.7999999999999901e+00 +8.1516865032135701e+00 +0.0000000000000000e+00 +6.8054441864752100e+00 -2.9624484270267946e-02 -5.6565705691151447e-01 +5.6959962333279438e-03
6.8999999999999897e+00 +8.1516475868957095e+00 +0.0000000000000000e+00 +6.9055242429599701e+00 -2.9624407458433859e-02 -5.6565709633584049e-01 +5.6960525302795269e-03
6.9999999999999902e+00 +8.1516081024565192e+00 +0.0000000000000000e+00 +7.0056042992222096e+00 -2.9624334209486559e-02 -5.6565713860422007e-01 +5.6961100197704508e-03
7.0999999999999899e+00 +8.1515680498960101e+00 +0.0000000000000000e+00 +7.1056843552586999e+00 -2.9624265389496772e-02 -5.6565718378242158e-01 +5.6961687066601676e-03
7.1999999999999904e+00 +8.1515274292141804e+00 +0.0000000000000000e+00 +7.2057644110662000e+00 -2.9624201864529767e-02 -5.6565723193625128e-01 +5.6962285957960629e-03
7.2999999999999901e+00 +8.1514862404073902e+00 +0.0000000000000000e+00 +7.3058444666415099e+00 -2.9624144500646342e-02 -5.6565728313157992e-01 +5.6962896920132334e-03
7.3999999999999897e+00 +8.1514444834829192e+00 +0.0000000000000000e+00 +7.4059245219813796e+00 -2.9624094163896449e-02 -5.6565733743423263e-01 +5.6963520001328521e-03
7.4999999999999902e+00 +8.1514021584334806e+00 +0.0000000000000000e+00 +7.5060045770826100e+00 -2.9624051720329263e-02 -5.6565739491018874e-01 +5.6964155249637303e-03
7.5999999999999899e+00 +8.1513592652663593e+00 +0.0000000000000000e+00 +7.6060846319419504e+00 -2.9624018035980668e-02 -5.6565745562535463e-01 +5.6964802712994589e-03
7.6999999999999904e+00 +8.1513158039779192e+00 +0.0000000000000000e+00 +7.7061646865561997e+00 -2.9623993976883357e-02 -5.6565751964576472e-01 +5.6965462439200086e-03
7.7999999999999901e+00 +8.1512717745681602e+00 +0.0000000000000000e+00 +7.8062447409221098e+00 -2.9623980409060408e-02 -5.6565758703746916e-01 +5.6966134475900446e-03
7.8999999999999897e+00 +8.1512271770334301e+00 +0.0000000000000000e+00 +7.9063247950364799e+00 -2.9623978198527762e-02 -5.6565765786659061e-01 +5.6966818870590376e-03
7.9999999999999902e+00 +8.1511820113773901e+00 +0.0000000000000000e+00 +8.0064048488960609e+00 -2.9623988211208225e-02 -5.6565773219926652e-01 +5.6967515670599640e-03
8.0999999999999908e+00 +8.1511362776036496e+00 +0.0000000000000000e+00 +8.1064849024976393e+00 -2.9624010940454918e-02 -5.6565781021005546e-01 +5.6968224926466750e-03
8.1999999999999904e+00 +8.1510899757086008e+00 +0.0000000000000000e+00 +8.2065649558379903e+00 -2.9624045648708450e-02 -5.6565789243164888e-01 +5.6968946699784261e-03
8.2999999999999901e+00 +8.1510431056885899e+00 +0.0000000000000000e+00 +8.3066450089139003e+00 -2.9624091344530000e-02 -5.6565797947056407e-01 +5.6969681054456498e-03
8.3999999999999897e+00 +8.1509956675508892e+00 +0.0000000000000000e+00 +8.4067250617221205e+00 -2.9624147036449180e-02 -5.6565807193320816e-01 +5.6970428054406580e-03
8.4999999999999893e+00 +8.1509476612882299e+00 +0.0000000000000000e+00 +8.5068051142594392e+00 -2.9624211732973551e-02 -5.6565817042607525e-01 +5.6971187763598247e-03
8.5999999999999908e+00 +8.1508990869078808e+00 +0.0000000000000000e+00 +8.6068851665226305e+00 -2.9624284442575789e-02 -5.6565827555551995e-01 +5.6971960246013495e-03
8.6999999999999904e+00 +8.1508499444025801e+00 +0.0000000000000000e+00 +8.7069652185084596e+00 -2.9624364173704766e-02 -5.6565838792798195e-01 +5.6972745565677428e-03
8.7999999999999794e+00 +8.1508002337759500e+00 +0.0000000000000000e+00 +8.8070452702137203e+00 -2.9624449934774144e-02 -5.6565850814978735e-01 +5.6973543786638728e-03
8.8999999999999808e+00 +8.1507499550316407e+00 +0.0000000000000000e+00 +8.9071253216351796e+00 -2.9624540734165983e-02 -5.6565863682723283e-01 +5.6974354972979787e-03
8.9999999999999805e+00 +8.1506991081623692e+00 +0.0000000000000000e+00 +9.0072053727696098e+00 -2.9624635580234378e-02 -5.6565877456666847e-01 +5.6975179188826740e-03
9.0999999999999801e+00 +8.1506476931717806e+00 +0.0000000000000000e+00 +9.1072854236137797e+00 -2.9624733481295500e-02 -5.6565892197432832e-01 +5.6976016498333009e-03
9.1999999999999797e+00 +8.1505957100635005e+00 +0.0000000000000000e+00 +9.2073654741644795e+00 -2.9624833445631264e-02 -5.6565907965641427e-01 +5.6976866965689297e-03
9.2999999999999794e+00 +8.1505431588302599e+00 +0.0000000000000000e+00 +9.3074455244184708e+00 -2.9624934481492910e-02 -5.6565924821917735e-01 +5.6977730655133662e-03
9.3999999999999808e+00 +8.1504900394757005e+00 +0.0000000000000000e+00 +9.4075255743725297e+00 -2.9625035597091096e-02 -5.6565942826875126e-01 +5.6978607630935050e-03
9.4999999999999805e+00 +8.1504363520034495e+00 +0.0000000000000000e+00 +9.5076056240234408e+00 -2.9625135800599580e-02 -5.6565962041123319e-01 +5.6979497957403390e-03
9.5999999999999801e+00 +8.1503820964062506e+00 +0.0000000000000000e+00 +9.6076856733679694e+00 -2.9625234100158732e-02 -5.6565982525276803e-01 +5.6980401698899542e-03
9.6999999999999797e+00 +8.1503272726913600e+00 +0.0000000000000000e+00 +9.7077657224029004e+00 -2.9625329503864213e-02 -5.6566004339935039e-01 +5.6981318919816001e-03
9.7999999999999794e+00 +8.1502718808515109e+00 +0.0000000000000000e+00 +9.8078457711250007e+00 -2.9625421019778077e-02 -5.6566027545704922e-01 +5.6982249684601567e-03
9.8999999999999808e+00 +8.1502159208903304e+00 +0.0000000000000000e+00 +9.9079258195310498e+00 -2.9625507655917371e-02 -5.6566052203180917e-01 +5.6983194057741949e-03
9.9999999999999805e+00 +8.1501593928078400e+00 +0.0000000000000000e+00 +1.0008005867617801e+01 -2.9625588420377862e-02 -5.6566078372947626e-01 +5.6984152103750508e-03
1.0100000000000000e+01 +8.1501022966040200e+00 +0.0000000000000000e+00 +1.0108085915382100e+01 -2.9625662612596561e-02 -5.6566106094574231e-01 +5.6985123832270527e-03
1.0199999999999999e+01 +8.1500446322825209e+00 +0.0000000000000000e+00 +1.0208165962820599e+01 -2.9625730450214049e-02 -5.6566135341413204e-01 +5.6986109079900623e-03
1.0300000000000001e+01 +8.1499863998360507e+00 +0.0000000000000000e+00 +1.0308246009930199e+01 -2.9625792331323630e-02 -5.6566166073817603e-01 +5.6987107649217258e-03
1.0400000000000000e+01 +8.1499275992682705e+00 +0.0000000000000000e+00 +1.0408326056707599e+01 -2.9625848654051320e-02 -5.6566198252134225e-01 +5.6988119342754858e-03
1.0500000000000000e+01 +8.1498682305791608e+00 +0.0000000000000000e+00 +1.0508406103149600e+01 -2.9625899816562912e-02 -5.6566231836714986e-01 +5.6989143963016922e-03
1.0600000000000000e+01 +8.1498082937723701e+00 +0.0000000000000000e+00 +1.0608486149253000e+01 -2.9625946217062014e-02 -5.6566266787911446e-01 +5.6990181312469215e-03
1.0699999999999999e+01 +8.1497477888406102e+00 +0.0000000000000000e+00 +1.0708566195014500e+01 -2.9625988253797080e-02 -5.6566303066085888e-01 +5.6991231193550713e-03
1.0800000000000001e+01 +8.1496867157875403e+00 +0.0000000000000000e+00 +1.0808646240430900e+01 -2.9626026325053480e-02 -5.6566340631594747e-01 +5.6992293408655139e-03
1.0900000000000000e+01 +8.1496250746131391e+00 +0.0000000000000000e+00 +1.0908726285499000e+01 -2.9626060829160538e-02 -5.6566379444799808e-01 +5.6993367760141975e-03
1.1000000000000000e+01 +8.1495628653174208e+00 +0.0000000000000000e+00 +1.1008806330215601e+01 -2.9626092164491101e-02 -5.6566419466065476e-01 +5.6994454050332613e-03
1.1100000000000000e+01 +8.1495000879040198e+00 +0.0000000000000000e+00 +1.1108886374577500e+01 -2.9626120729461022e-02 -5.6566460655755990e-01 +5.6995552081506636e-03
1.1199999999999999e+01 +8.1494367423620098e+00 +0.0000000000000000e+00 +1.1208966418581401e+01 -2.9626146922537757e-02 -5.6566502974249600e-01 +5.6996661655915725e-03
1.1300000000000001e+01 +8.1493728287059604e+00 +0.0000000000000000e+00 +1.1309046462224000e+01 -2.9626171142224930e-02 -5.6566546381907634e-01 +5.6997782575750342e-03
1.1400000000000000e+01 +8.1493083469249505e+00 +0.0000000000000000e+00 +1.1409126505502300e+01 -2.9626193787084275e-02 -5.6566590839114061e-01 +5.6998914643180331e-03
1.1500000000000000e+01 +8.1492432970226201e+00 +0.0000000000000000e+00 +1.1509206548412800e+01 -2.9626215255720328e-02 -5.6566636306244411e-01 +5.7000057660321493e-03
1.1600000000000000e+01 +8.1491776789989707e+00 +0.0000000000000000e+00 +1.1609286590952600e+01 -2.9626235946788832e-02 -5.6566682743680075e-01 +5.7001211429249616e-03
1.1699999999999999e+01 +8.1491114928576298e+00 +0.0000000000000000e+00 +1.1709366633118099e+01 -2.9626256258994860e-02 -5.6566730111802654e-01 +5.7002375751993703e-03
1.1800000000000001e+01 +8.1490447385876905e+00 +0.0000000000000000e+00 +1.1809446674906400e+01 -2.9626276591101348e-02 -5.6566778371008175e-01 +5.7003550430549926e-03
