# field on trajectory
# s[mm] rx[mm] ry[mm] rz[mm] bx[T] by[T] bz[T]
0.0000000000000000e+00 +7.9199999999999999e+00 +0.0000000000000000e+00 +0.0000000000000000e+00 -3.1130948656787911e-02 -5.9495197131681210e-01 +5.9682029976334790e-03
-1.0000000000000001e-01 +7.9199997167056138e+00 +0.0000000000000000e+00 -9.9999999999464961e-02 -3.1130895355407844e-02 -5.9495224341679687e-01 +5.9681214417411305e-03
-2.0000000000000001e-01 +7.9199988668222812e+00 +0.0000000000000000e+00 -1.9999999999571969e-01 -3.1130852115611330e-02 -5.9495251439199381e-01 +5.9680392682125542e-03
-3.0000000000000004e-01 +7.9199974503497454e+00 +0.0000000000000000e+00 -2.9999999998555393e-01 -3.1130818228685162e-02 -5.9495278359433723e-01 +5.9679566306069590e-03
-4.0000000000000002e-01 +7.9199954672877491e+00 +0.0000000000000000e+00 -3.9999999996575752e-01 -3.1130792985915676e-02 -5.9495305037576474e-01 +5.9678736824848796e-03
-5.0000000000000000e-01 +7.9199929176360389e+00 +0.0000000000000000e+00 -4.9999999993312016e-01 -3.1130775678588889e-02 -5.9495331408821828e-01 +5.9677905774081176e-03
-5.9999999999999998e-01 +7.9199898013943644e+00 +0.0000000000000000e+00 -5.9999999988443165e-01 -3.1130765597990773e-02 -5.9495357408364391e-01 +5.9677074689396606e-03
-6.9999999999999996e-01 +7.9199861185624769e+00 +0.0000000000000000e+00 -6.9999999981648164e-01 -3.1130762035407409e-02 -5.9495382971399324e-01 +5.9676245106436328e-03
-7.9999999999999993e-01 +7.9199818691401340e+00 +0.0000000000000000e+00 -7.9999999972605995e-01 -3.1130764282125200e-02 -5.9495408033122055e-01 +5.9675418560852086e-03
-8.9999999999999991e-01 +7.9199770531270968e+00 +0.0000000000000000e+00 -8.9999999960995625e-01 -3.1130771629431071e-02 -5.9495432528728531e-01 +5.9674596588305427e-03
-9.9999999999999989e-01 +7.9199716705231324e+00 +0.0000000000000000e+00 -9.9999999946496032e-01 -3.1130783368612705e-02 -5.9495456393415180e-01 +5.9673780724467168e-03
-1.0999999999999999e+00 +7.9199657213280137e+00 +0.0000000000000000e+00 -1.0999999992878620e+00 -3.1130798790958692e-02 -5.9495479562378828e-01 +5.9672972505016575e-03
-1.2000000000000000e+00 +7.9199592055415202e+00 +0.0000000000000000e+00 -1.1999999990754509e+00 -3.1130817187758751e-02 -5.9495501970816755e-01 +5.9672173465640738e-03
-1.3000000000000000e+00 +7.9199521231634389e+00 +0.0000000000000000e+00 -1.2999999988245168e+00 -3.1130837850303968e-02 -5.9495523553926744e-01 +5.9671385142033807e-03
-1.4000000000000001e+00 +7.9199444741935645e+00 +0.0000000000000000e+00 -1.3999999985318492e+00 -3.1130860069886936e-02 -5.9495544246906984e-01 +5.9670609069896368e-03
-1.5000000000000002e+00 +7.9199362586317008e+00 +0.0000000000000000e+00 -1.4999999981942382e+00 -3.1130883137801994e-02 -5.9495563984956168e-01 +5.9669846784934704e-03
-1.6000000000000003e+00 +7.9199274764776595e+00 +0.0000000000000000e+00 -1.5999999978084734e+00 -3.1130906345345429e-02 -5.9495582703273486e-01 +5.9669099822860193e-03
-1.7000000000000004e+00 +7.9199181277312629e+00 +0.0000000000000000e+00 -1.6999999973713442e+00 -3.1130928983815691e-02 -5.9495600337058530e-01 +5.9668369719388520e-03
-1.8000000000000005e+00 +7.9199082123923432e+00 +0.0000000000000000e+00 -1.7999999968796407e+00 -3.1130950344513540e-02 -5.9495616821511410e-01 +5.9667658010239006e-03
-1.9000000000000006e+00 +7.9198977304607441e+00 +0.0000000000000000e+00 -1.8999999963301526e+00 -3.1130969718742310e-02 -5.9495632091832795e-01 +5.9666966231133973e-03
-2.0000000000000004e+00 +7.9198866819363198e+00 +0.0000000000000000e+00 -1.9999999957196692e+00 -3.1130986397808084e-02 -5.9495646083223697e-01 +5.9666295917797938e-03
-2.1000000000000005e+00 +7.9198750668189382e+00 +0.0000000000000000e+00 -2.0999999950449806e+00 -3.1130999723574769e-02 -5.9495658764163639e-01 +5.9665648169229691e-03
-2.2000000000000006e+00 +7.9198628851084791e+00 +0.0000000000000000e+00 -2.1999999943028765e+00 -3.1131009240128651e-02 -5.9495670236243847e-01 +5.9665022337517552e-03
-2.3000000000000007e+00 +7.9198501368048326e+00 +0.0000000000000000e+00 -2.2999999934901467e+00 -3.1131014542113047e-02 -5.9495680634332548e-01 +5.9664417338017826e-03
-2.4000000000000008e+00 +7.9198368219079009e+00 +0.0000000000000000e+00 -2.3999999926035804e+00 -3.1131015224173438e-02 -5.9495690093296838e-01 +5.9663832086080627e-03
-2.5000000000000009e+00 +7.9198229404175935e+00 +0.0000000000000000e+00 -2.4999999916399678e+00 -3.1131010880957471e-02 -5.9495698748002535e-01 +5.9663265497048677e-03
-2.6000000000000010e+00 +7.9198084923338286e+00 +0.0000000000000000e+00 -2.5999999905960984e+00 -3.1131001107115058e-02 -5.9495706733313969e-01 +5.9662716486255964e-03
-2.7000000000000011e+00 +7.9197934776565306e+00 +0.0000000000000000e+00 -2.6999999894687621e+00 -3.1130985497298438e-02 -5.9495714184093940e-01 +5.9662183969026545e-03
-2.8000000000000012e+00 +7.9197778963856287e+00 +0.0000000000000000e+00 -2.7999999882547484e+00 -3.1130963646162191e-02 -5.9495721235203380e-01 +5.9661666860673307e-03
-2.9000000000000012e+00 +7.9197617485210561e+00 +0.0000000000000000e+00 -2.8999999869508470e+00 -3.1130935148363351e-02 -5.9495728021501371e-01 +5.9661164076496654e-03
-3.0000000000000013e+00 +7.9197450340627489e+00 +0.0000000000000000e+00 -2.9999999855538477e+00 -3.1130899598561464e-02 -5.9495734677844825e-01 +5.9660674531783241e-03
-3.1000000000000014e+00 +7.9197277530106440e+00 +0.0000000000000000e+00 -3.0999999840605401e+00 -3.1130856591418603e-02 -5.9495741339088459e-01 +5.9660197141804799e-03
-3.2000000000000015e+00 +7.9197099053646784e+00 +0.0000000000000000e+00 -3.1999999824677139e+00 -3.1130805721599486e-02 -5.9495748140084581e-01 +5.9659730821816819e-03
-3.3000000000000016e+00 +7.9196914911247882e+00 +0.0000000000000000e+00 -3.2999999807721587e+00 -3.1130746583771508e-02 -5.9495755215682933e-01 +5.9659274487057316e-03
-3.4000000000000017e+00 +7.9196725102909058e+00 +0.0000000000000000e+00 -3.3999999789706647e+00 -3.1130678772604805e-02 -5.9495762700730515e-01 +5.9658827052745493e-03
-3.5000000000000018e+00 +7.9196529628629602e+00 +0.0000000000000000e+00 -3.4999999770600212e+00 -3.1130601882772328e-02 -5.9495770730071440e-01 +5.9658387434080654e-03
-3.6000000000000019e+00 +7.9196328488408767e+00 +0.0000000000000000e+00 -3.5999999750370177e+00 -3.1130515508949897e-02 -5.9495779438546814e-01 +5.9657954546240809e-03
-3.7000000000000020e+00 +7.9196121682245719e+00 +0.0000000000000000e+00 -3.6999999728984445e+00 -3.1130419245816290e-02 -5.9495788960994478e-01 +5.9657527304381426e-03
-3.8000000000000020e+00 +7.9195909210139561e+00 +0.0000000000000000e+00 -3.7999999706410907e+00 -3.1130312688053226e-02 -5.9495799432249019e-01 +5.9657104623634270e-03
-3.9000000000000021e+00 +7.9195691072089298e+00 +0.0000000000000000e+00 -3.8999999682617466e+00 -3.1130195430345571e-02 -5.9495810987141418e-01 +5.9656685419106044e-03
-4.0000000000000018e+00 +7.9195467268093838e+00 +0.0000000000000000e+00 -3.9999999657572012e+00 -3.1130067067381254e-02 -5.9495823760498989e-01 +5.9656268605877208e-03
-4.1000000000000014e+00 +7.9195237798151972e+00 +0.0000000000000000e+00 -4.0999999631242448e+00 -3.1129927313694138e-02 -5.9495837866416523e-01 +5.9655853230689325e-03
-4.2000000000000011e+00 +7.9195002662262359e+00 +0.0000000000000000e+00 -4.1999999603596665e+00 -3.1129776363195742e-02 -5.9495853336071181e-01 +5.9655438867028260e-03
-4.3000000000000007e+00 +7.9194761860423535e+00 +0.0000000000000000e+00 -4.2999999574602565e+00 -3.1129614529652509e-02 -5.9495870179910726e-01 +5.9655025220088668e-03
-4.4000000000000004e+00 +7.9194515392633908e+00 +0.0000000000000000e+00 -4.3999999544228041e+00 -3.1129442126844108e-02 -5.9495888408382658e-01 +5.9654611995091332e-03
-4.5000000000000000e+00 +7.9194263258891748e+00 +0.0000000000000000e+00 -4.4999999512440993e+00 -3.1129259468564197e-02 -5.9495908031934353e-01 +5.9654198897285101e-03
-4.5999999999999996e+00 +7.9194005459195189e+00 +0.0000000000000000e+00 -4.5999999479209315e+00 -3.1129066868620880e-02 -5.9495929061013009e-01 +5.9653785631948765e-03
-4.6999999999999993e+00 +7.9193741993542242e+00 +0.0000000000000000e+00 -4.6999999444500897e+00 -3.1128864640837403e-02 -5.9495951506065792e-01 +5.9653371904393069e-03
-4.7999999999999989e+00 +7.9193472861930774e+00 +0.0000000000000000e+00 -4.7999999408283642e+00 -3.1128653099052737e-02 -5.9495975377539867e-01 +5.9652957419962507e-03
-4.8999999999999986e+00 +7.9193198064358530e+00 +0.0000000000000000e+00 -4.8999999370525451e+00 -3.1128432557122197e-02 -5.9496000685882511e-01 +5.9652541884037437e-03
-4.9999999999999982e+00 +7.9192917600823094e+00 +0.0000000000000000e+00 -4.9999999331194216e+00 -3.1128203328918060e-02 -5.9496027441541111e-01 +5.9652125002035922e-03
-5.0999999999999979e+00 +7.9192631471321935e+00 +0.0000000000000000e+00 -5.0999999290257829e+00 -3.1127965728330129e-02 -5.9496055654963276e-01 +5.9651706479415603e-03
-5.1999999999999975e+00 +7.9192339675852379e+00 +0.0000000000000000e+00 -5.1999999247684192e+00 -3.1127720069266413e-02 -5.9496085336596882e-01 +5.9651286021675789e-03
-5.2999999999999972e+00 +7.9192042214411602e+00 +0.0000000000000000e+00 -5.2999999203441197e+00 -3.1127466665653705e-02 -5.9496116496890172e-01 +5.9650863334359252e-03
-5.3999999999999968e+00 +7.9191739086996646e+00 +0.0000000000000000e+00 -5.3999999157496745e+00 -3.1127205831438107e-02 -5.9496149146291777e-01 +5.9650438123054206e-03
-5.4999999999999964e+00 +7.9191430293604412e+00 +0.0000000000000000e+00 -5.4999999109818729e+00 -3.1126937880585813e-02 -5.9496183295250749e-01 +5.9650010093396317e-03
-5.5999999999999961e+00 +7.9191115834231667e+00 +0.0000000000000000e+00 -5.5999999060375041e+00 -3.1126663127083554e-02 -5.9496218954216795e-01 +5.9649578951070535e-03
-5.6999999999999957e+00 +7.9190795708875017e+00 +0.0000000000000000e+00 -5.6999999009133582e+00 -3.1126381884939300e-02 -5.9496256133640157e-01 +5.9649144401813028e-03
-5.7999999999999954e+00 +7.9190469917530928e+00 +0.0000000000000000e+00 -5.7999998956062244e+00 -3.1126094468182795e-02 -5.9496294843971687e-01 +5.9648706151413248e-03
-5.8999999999999950e+00 +7.9190138460195731e+00 +0.0000000000000000e+00 -5.8999998901128921e+00 -3.1125801190866248e-02 -5.9496335095663089e-01 +5.9648263905715728e-03
-5.9999999999999947e+00 +7.9189801336865600e+00 +0.0000000000000000e+00 -5.9999998844301512e+00 -3.1125502367064860e-02 -5.9496376899166814e-01 +5.9647817370622105e-03
-6.0999999999999943e+00 +7.9189458547536562e+00 +0.0000000000000000e+00 -6.0999998785547911e+00 -3.1125198432988933e-02 -5.9496420244633519e-01 +5.9647366513019204e-03
-6.1999999999999940e+00 +7.9189110092204507e+00 +0.0000000000000000e+00 -6.1999998724836010e+00 -3.1124890313293196e-02 -5.9496465041005497e-01 +5.9646912343535663e-03
-6.2999999999999936e+00 +7.9188755970865170e+00 +0.0000000000000000e+00 -6.2999998662133709e+00 -3.1124579054693038e-02 -5.9496511176927458e-01 +5.9646456133713565e-03
-6.3999999999999932e+00 +7.9188396183514183e+00 +0.0000000000000000e+00 -6.3999998597408903e+00 -3.1124265703842798e-02 -5.9496558541049671e-01 +5.9645999155072144e-03
-6.4999999999999929e+00 +7.9188030730147041e+00 +0.0000000000000000e+00 -6.4999998530629481e+00 -3.1123951307333066e-02 -5.9496607022028447e-01 +5.9645542679106472e-03
-6.5999999999999925e+00 +7.9187659610759136e+00 +0.0000000000000000e+00 -6.5999998461763338e+00 -3.1123636911687964e-02 -5.9496656508526247e-01 +5.9645087977285953e-03
-6.6999999999999922e+00 +7.9187282825345777e+00 +0.0000000000000000e+00 -6.6999998390778375e+00 -3.1123323563362448e-02 -5.9496706889211959e-01 +5.9644636321052880e-03
-6.7999999999999918e+00 +7.9186900373902178e+00 +0.0000000000000000e+00 -6.7999998317642483e+00 -3.1123012308739529e-02 -5.9496758052761145e-01 +5.9644188981820999e-03
-6.8999999999999915e+00 +7.9186512256423471e+00 +0.0000000000000000e+00 -6.8999998242323555e+00 -3.1122704194127594e-02 -5.9496809887856317e-01 +5.9643747230974046e-03
-6.9999999999999911e+00 +7.9186118472904736e+00 +0.0000000000000000e+00 -6.9999998164789483e+00 -3.1122400265757681e-02 -5.9496862283187069e-01 +5.9643312339864359e-03
-7.0999999999999908e+00 +7.9185719023341008e+00 +0.0000000000000000e+00 -7.0999998085008169e+00 -3.1122101569780760e-02 -5.9496915127450467e-01 +5.9642885579811369e-03
-7.1999999999999904e+00 +7.9185313907727259e+00 +0.0000000000000000e+00 -7.1999998002947496e+00 -3.1121809152264993e-02 -5.9496968309351239e-01 +5.9642468222100148e-03
-7.2999999999999901e+00 +7.9184903126058437e+00 +0.0000000000000000e+00 -7.2999997918575366e+00 -3.1121524059192992e-02 -5.9497021717601872e-01 +5.9642061537980009e-03
-7.3999999999999897e+00 +7.9184486678329469e+00 +0.0000000000000000e+00 -7.3999997831859670e+00 -3.1121247336459192e-02 -5.9497075240923203e-01 +5.9641666798663107e-03
-7.4999999999999893e+00 +7.9184064564535275e+00 +0.0000000000000000e+00 -7.4999997742768301e+00 -3.1120980029867001e-02 -5.9497128768044261e-01 +5.9641285275322765e-03
-7.5999999999999890e+00 +7.9183636784670774e+00 +0.0000000000000000e+00 -7.5999997651269151e+00 -3.1120723185126157e-02 -5.9497182187702780e-01 +5.9640918239092285e-03
-7.6999999999999886e+00 +7.9183203338730888e+00 +0.0000000000000000e+00 -7.6999997557330113e+00 -3.1120477847849989e-02 -5.9497235388645331e-01 +5.9640566961063389e-03
-7.7999999999999883e+00 +7.9182764226710569e+00 +0.0000000000000000e+00 -7.7999997460919088e+00 -3.1120245063552675e-02 -5.9497288259627645e-01 +5.9640232712284682e-03
-7.8999999999999879e+00 +7.9182319448604792e+00 +0.0000000000000000e+00 -7.8999997362003960e+00 -3.1120025877646534e-02 -5.9497340689414702e-01 +5.9639916763760351e-03
-7.9999999999999876e+00 +7.9181869004408592e+00 +0.0000000000000000e+00 -7.9999997260552629e+00 -3.1119821335439311e-02 -5.9497392566781204e-01 +5.9639620386448614e-03
-8.0999999999999872e+00 +7.9181412894117029e+00 +0.0000000000000000e+00 -8.0999997156532988e+00 -3.1119632141877046e-02 -5.9497443806556272e-01 +5.9639344515226246e-03
-8.1999999999999869e+00 +7.9180951117725247e+00 +0.0000000000000000e+00 -8.1999997049912920e+00 -3.1119457640831679e-02 -5.9497494427752728e-01 +5.9639088740773309e-03
-8.2999999999999865e+00 +7.9180483675228430e+00 +0.0000000000000000e+00 -8.2999996940660328e+00 -3.1119296835982520e-02 -5.9497544475422426e-01 +5.9638852317678596e-03
-8.3999999999999861e+00 +7.9180010566621837e+00 +0.0000000000000000e+00 -8.3999996828743111e+00 -3.1119148731095336e-02 -5.9497593994609532e-01 +5.9638634500477662e-03
-8.4999999999999858e+00 +7.9179531791900759e+00 +0.0000000000000000e+00 -8.4999996714129153e+00 -3.1119012330025564e-02 -5.9497643030350256e-01 +5.9638434543651262e-03
-8.5999999999999854e+00 +7.9179047351060552e+00 +0.0000000000000000e+00 -8.5999996596786339e+00 -3.1118886636721535e-02 -5.9497691627672433e-01 +5.9638251701624005e-03
-8.6999999999999851e+00 +7.9178557244096597e+00 +0.0000000000000000e+00 -8.6999996476682568e+00 -3.1118770655227692e-02 -5.9497739831595375e-01 +5.9638085228762719e-03
-8.7999999999999847e+00 +7.9178061471004311e+00 +0.0000000000000000e+00 -8.7999996353785743e+00 -3.1118663389687804e-02 -5.9497787687129444e-01 +5.9637934379375111e-03
-8.8999999999999844e+00 +7.9177560031779164e+00 +0.0000000000000000e+00 -8.8999996228063747e+00 -3.1118563844348260e-02 -5.9497835239275920e-01 +5.9637798407708191e-03
-8.9999999999999840e+00 +7.9177052926416636e+00 +0.0000000000000000e+00 -8.9999996099484481e+00 -3.1118471023561238e-02 -5.9497882533026514e-01 +5.9637676567946820e-03
-9.0999999999999837e+00 +7.9176540154912241e+00 +0.0000000000000000e+00 -9.0999995968015828e+00 -3.1118383931787962e-02 -5.9497929613363232e-01 +5.9637568114212286e-03
-9.1999999999999833e+00 +7.9176021717261511e+00 +0.0000000000000000e+00 -9.1999995833625690e+00 -3.1118301573601927e-02 -5.9497976525257978e-01 +5.9637472300560794e-03
-9.2999999999999829e+00 +7.9175497613459997e+00 +0.0000000000000000e+00 -9.2999995696281950e+00 -3.1118222953692147e-02 -5.9498023313672388e-01 +5.9637388380981930e-03
-9.3999999999999826e+00 +7.9174967843503259e+00 +0.0000000000000000e+00 -9.3999995555952491e+00 -3.1118147076866356e-02 -5.9498070023557392e-01 +5.9637315609397321e-03
-9.4999999999999822e+00 +7.9174432407386863e+00 +0.0000000000000000e+00 -9.4999995412605234e+00 -3.1118072948054305e-02 -5.9498116699853032e-01 +5.9637253239659049e-03
-9.5999999999999819e+00 +7.9173891305106388e+00 +0.0000000000000000e+00 -9.5999995266208042e+00 -3.1117999572310907e-02 -5.9498163387488068e-01 +5.9637200525548221e-03
-9.6999999999999815e+00 +7.9173344536657400e+00 +0.0000000000000000e+00 -9.6999995116728819e+00 -3.1117925954819547e-02 -5.9498210131379814e-01 +5.9637156720773474e-03
-9.7999999999999812e+00 +7.9172792102035459e+00 +0.0000000000000000e+00 -9.7999994964135464e+00 -3.1117851100895315e-02 -5.9498256976433717e-01 +5.9637121078969591e-03
-9.8999999999999808e+00 +7.9172234001236124e+00 +0.0000000000000000e+00 -9.8999994808395861e+00 -3.1117774015988184e-02 -5.9498303967543154e-01 +5.9637092853695867e-03
-9.9999999999999805e+00 +7.9171670234254945e+00 +0.0000000000000000e+00 -9.9999994649477912e+00 -3.1117693705686320e-02 -5.9498351149589090e-01 +5.9637071298434801e-03
-1.0099999999999980e+01 +7.9171100801087437e+00 +0.0000000000000000e+00 -1.0099999448734950e+01 -3.1117609416214446e-02 -5.9498398565742172e-01 +5.9637055745661036e-03
-1.0199999999999980e+01 +7.9170525701729106e+00 +0.0000000000000000e+00 -1.0199999432197851e+01 -3.1117521355871390e-02 -5.9498446252374360e-01 +5.9637045844121404e-03
-1.0299999999999979e+01 +7.9169944936175431e+00 +0.0000000000000000e+00 -1.0299999415333284e+01 -3.1117429973421366e-02 -5.9498494244160338e-01 +5.9637041321735839e-03
-1.0399999999999979e+01 +7.9169358504421856e+00 +0.0000000000000000e+00 -1.0399999398138039e+01 -3.1117335717572994e-02 -5.9498542575776758e-01 +5.9637041906543632e-03
-1.0499999999999979e+01 +7.9168766406463806e+00 +0.0000000000000000e+00 -1.0499999380608905e+01 -3.1117239036977544e-02 -5.9498591281902002e-01 +5.9637047326706804e-03
-1.0599999999999978e+01 +7.9168168642296655e+00 +0.0000000000000000e+00 -1.0599999362742670e+01 -3.1117140380227302e-02 -5.9498640397216573e-01 +5.9637057310513407e-03
-1.0699999999999978e+01 +7.9167565211915738e+00 +0.0000000000000000e+00 -1.0699999344536124e+01 -3.1117040195853811e-02 -5.9498689956402850e-01 +5.9637071586380900e-03
-1.0799999999999978e+01 +7.9166956115316367e+00 +0.0000000000000000e+00 -1.0799999325986056e+01 -3.1116938932326164e-02 -5.9498739994145389e-01 +5.9637089882859330e-03
-1.0899999999999977e+01 +7.9166341352493790e+00 +0.0000000000000000e+00 -1.0899999307089253e+01 -3.1116837038049357e-02 -5.9498790545130942e-01 +5.9637111928634839e-03
-1.0999999999999977e+01 +7.9165720923443210e+00 +0.0000000000000000e+00 -1.0999999287842506e+01 -3.1116734961362479e-02 -5.9498841644048461e-01 +5.9637137452532860e-03
-1.1099999999999977e+01 +7.9165094828159779e+00 +0.0000000000000000e+00 -1.1099999268242605e+01 -3.1116633150537077e-02 -5.9498893325589230e-01 +5.9637166183521420e-03
-1.1199999999999976e+01 +7.9164463066638602e+00 +0.0000000000000000e+00 -1.1199999248286339e+01 -3.1116532053775472e-02 -5.9498945624446942e-01 +5.9637197850714585e-03
-1.1299999999999976e+01 +7.9163825638874714e+00 +0.0000000000000000e+00 -1.1299999227970495e+01 -3.1116432119208937e-02 -5.9498998575317708e-01 +5.9637232183375631e-03
-1.1399999999999975e+01 +7.9163182544863089e+00 +0.0000000000000000e+00 -1.1399999207291865e+01 -3.1116333794896093e-02 -5.9499052212900183e-01 +5.9637268910920395e-03
-1.1499999999999975e+01 +7.9162533784598645e+00 +0.0000000000000000e+00 -1.1499999186247235e+01 -3.1116237528821145e-02 -5.9499106571895699e-01 +5.9637307762920710e-03
-1.1599999999999975e+01 +7.9161879358076224e+00 +0.0000000000000000e+00 -1.1599999164833395e+01 -3.1116143768892192e-02 -5.9499161687008184e-01 +5.9637348469107569e-03
-1.1699999999999974e+01 +7.9161219265290601e+00 +0.0000000000000000e+00 -1.1699999143047135e+01 -3.1116052962939501e-02 -5.9499217592944342e-01 +5.9637390759374499e-03
