# multipoles
# s[mm] polynom_b[n=0][T/m^n] polynom_b[n=1][T/m^n] polynom_b[n=2][T/m^n] polynom_b[n=3][T/m^n] polynom_b[n=4][T/m^n] polynom_b[n=5][T/m^n] polynom_b[n=6][T/m^n] 
+0.0000000000000000e+00 -5.6446665739364721e-01 +7.7254630210163349e+00 -4.2706376366273852e-01 +7.8946712263200055e+01 +5.5678394516901299e+03 -6.6917331319090724e+05 -3.5161421613971151e+07 
+1.0000000000000001e-01 -5.6446665347303671e-01 +7.7254773234143990e+00 -4.2505570026327416e-01 +7.8824146090682490e+01 +5.5381163431526656e+03 -6.6885991314114642e+05 -3.5076988219034232e+07 
+2.0000000000000001e-01 -5.6446665562718412e-01 +7.7254914230853631e+00 -4.2278709909432377e-01 +7.8661622773442417e+01 +5.5042727237827366e+03 -6.6823130825089419e+05 -3.4974557951805159e+07 
+3.0000000000000004e-01 -5.6446666368277942e-01 +7.7255052856247950e+00 -4.2028233335300513e-01 +7.8462210779046316e+01 +5.4666130574961553e+03 -6.6731061335053458e+05 -3.4855218512034871e+07 
+4.0000000000000002e-01 -5.6446667746650303e-01 +7.7255188766204137e+00 -4.1756577720668542e-01 +7.8228978800151353e+01 +5.4254418254518969e+03 -6.6612094458519761e+05 -3.4720057684294619e+07 
+5.0000000000000000e-01 -5.6446669680505279e-01 +7.7255321616638808e+00 -4.1466180106829120e-01 +7.7964995419530922e+01 +5.3810634307895898e+03 -6.6468541749084031e+05 -3.4570162871853314e+07 
+5.9999999999999998e-01 -5.6446672152511812e-01 +7.7255451063453897e+00 -4.1159477690796958e-01 +7.7673329266590230e+01 +5.3337823099187135e+03 -6.6302714789120562e+05 -3.4406621650567368e+07 
+6.9999999999999996e-01 -5.6446675145336977e-01 +7.7255576762515963e+00 -4.0838907788342821e-01 +7.7357049074910307e+01 +5.2839029170296108e+03 -6.6116925224336272e+05 -3.4230521673265941e+07 
+7.9999999999999993e-01 -5.6446678641652781e-01 +7.7255698369766161e+00 -4.0506907074072918e-01 +7.7019223372086714e+01 +5.2317295849969223e+03 -6.5913484585326025e+05 -3.4042950021242537e+07 
+8.9999999999999991e-01 -5.6446682624126221e-01 +7.7255815541065465e+00 -4.0165912799731490e-01 +7.6662920928418202e+01 +5.1775667537439613e+03 -6.5694704548503587e+05 -3.3844994280325592e+07 
+9.9999999999999989e-01 -5.6446687075426460e-01 +7.7255927932340880e+00 -3.9818361959742382e-01 +7.6291210327818817e+01 +5.1217188169731326e+03 -6.5462896685848548e+05 -3.3637741825666077e+07 
+1.0999999999999999e+00 -5.6446691978223562e-01 +7.7256035199505302e+00 -3.9466691365382928e-01 +7.5907160217027780e+01 +5.0644901310627047e+03 -6.5220372614144580e+05 -3.3422279849780958e+07 
+1.2000000000000000e+00 -5.6446697315183803e-01 +7.7256136998462193e+00 -3.9113338277088233e-01 +7.5513839273692497e+01 +5.0061851364787117e+03 -6.4969443972006475e+05 -3.3199695941477586e+07 
+1.3000000000000000e+00 -5.6446703068975135e-01 +7.7256232985154787e+00 -3.8760739774541070e-01 +7.5114316082336458e+01 +4.9471082431524183e+03 -6.4712422352812323e+05 -3.2971077553831089e+07 
+1.4000000000000001e+00 -5.6446709222267055e-01 +7.7256322815507410e+00 -3.8411332736215675e-01 +7.4711659303844954e+01 +4.8875638235209226e+03 -6.4451619403489737e+05 -3.2737511962195925e+07 
+1.5000000000000002e+00 -5.6446715757723587e-01 +7.7256406145510557e+00 -3.8067554693316902e-01 +7.4308937416271988e+01 +4.8278563718389987e+03 -6.4189346670224832e+05 -3.2500087012441192e+07 
+1.6000000000000003e+00 -5.6446722658013504e-01 +7.7256482631100925e+00 -3.7731842618632577e-01 +7.3909219085683546e+01 +4.7682902809532361e+03 -6.3927915821257827e+05 -3.2259890077890266e+07 
+1.7000000000000004e+00 -5.6446729905800230e-01 +7.7256551928305681e+00 -3.7406634142702205e-01 +7.3515572729037473e+01 +4.7091700678314128e+03 -6.3669638386881771e+05 -3.2018009115222465e+07 
+1.8000000000000005e+00 -5.6446737483747622e-01 +7.7256613693126610e+00 -3.7094366897898484e-01 +7.3131066873387127e+01 +4.6508002542096328e+03 -6.3416825975968246e+05 -3.1775532109967865e+07 
+1.9000000000000006e+00 -5.6446745374522200e-01 +7.7256667581623688e+00 -3.6797478181411669e-01 +7.2758769895602086e+01 +4.5934852997857379e+03 -6.3171790118474758e+05 -3.1533546752479464e+07 
+2.0000000000000004e+00 -5.6446753560784124e-01 +7.7256713249846571e+00 -3.6518406108620910e-01 +7.2401750229873969e+01 +4.5375298193366780e+03 -6.2936842390166328e+05 -3.1293141460202109e+07 
+2.1000000000000005e+00 -5.6446762022980757e-01 +7.7256750608239626e+00 -3.6259158937721198e-01 +7.2062055330118042e+01 +4.4831999051129269e+03 -6.2713593242730212e+05 -3.1055299771494698e+07 
+2.2000000000000006e+00 -5.6446770733226093e-01 +7.7256780578024555e+00 -3.6019986070761412e-01 +7.1737612497026831e+01 +4.4306064991911217e+03 -6.2500829554312793e+05 -3.0820607019043244e+07 
+2.3000000000000007e+00 -5.6446779661674351e-01 +7.7256804331569180e+00 -3.5800688194273395e-01 +7.1425309139762845e+01 +4.3798217085822826e+03 -6.2296626927389542e+05 -3.0589555396226607e+07 
+2.4000000000000008e+00 -5.6446788778483226e-01 +7.7256823041259102e+00 -3.5601065513760122e-01 +7.1122032614184050e+01 +4.3309175464702730e+03 -6.2099060934679664e+05 -3.0362636645190738e+07 
+2.5000000000000009e+00 -5.6446798053811997e-01 +7.7256837879507634e+00 -3.5420918090424747e-01 +7.0824670185024701e+01 +4.2839660042296919e+03 -6.1906207093438413e+05 -3.0140342423758548e+07 
+2.6000000000000010e+00 -5.6446807457817627e-01 +7.7256850018736571e+00 -3.5260046210619855e-01 +7.0530109074593511e+01 +4.2390391116515175e+03 -6.1716140892629500e+05 -2.9923164563172683e+07 
+2.7000000000000011e+00 -5.6446816960661328e-01 +7.7256860631337796e+00 -3.5118249670759177e-01 +7.0235236574756485e+01 +4.1962088079021742e+03 -6.1526937856546592e+05 -2.9711594473393504e+07 
+2.8000000000000012e+00 -5.6446826532505123e-01 +7.7256870889791998e+00 -3.4995328155374139e-01 +6.9936939711837098e+01 +4.1555470117817213e+03 -6.1336673354252067e+05 -2.9506123474144649e+07 
+2.9000000000000012e+00 -5.6446836143509294e-01 +7.7256881966563711e+00 -3.4891081575073390e-01 +6.9632105513556652e+01 +4.1171256861674874e+03 -6.1143422742255556e+05 -2.9307243102691256e+07 
+3.0000000000000013e+00 -5.6446845763837727e-01 +7.7256895034133777e+00 -3.4805309379162064e-01 +6.9317620965564075e+01 +4.0810167056868004e+03 -6.0945261354763107e+05 -2.9115444479370032e+07 
+3.1000000000000014e+00 -5.6446855363655479e-01 +7.7256911264966348e+00 -3.4737810875270025e-01 +6.8990373049898054e+01 +4.0472919186714585e+03 -6.0740264508746483e+05 -2.8931218606132243e+07 
+3.2000000000000015e+00 -5.6446864913129047e-01 +7.7256931831578983e+00 -3.4688385210199357e-01 +6.8647248573949653e+01 +4.0160231452408411e+03 -6.0526507413590734e+05 -2.8755056362893786e+07 
+3.3000000000000016e+00 -5.6446874382424750e-01 +7.7256957906500165e+00 -3.4656831504195751e-01 +6.8285134281598900e+01 +3.9872821961437662e+03 -6.0302065232771973e+05 -2.8587448578781027e+07 
+3.4000000000000017e+00 -5.6446883741715237e-01 +7.7256990662261886e+00 -3.4642948166539833e-01 +6.7900916870191281e+01 +3.9611407541557287e+03 -6.0065013091565296e+05 -2.8428885500406962e+07 
+3.5000000000000018e+00 -5.6446892961168726e-01 +7.7257031271415402e+00 -3.4646534118209260e-01 +6.7491482944954171e+01 +3.9376705960019699e+03 -5.9813426050438418e+05 -2.8279857818693321e+07 
+3.6000000000000019e+00 -5.6446902010960576e-01 +7.7257080906518825e+00 -3.4667387382229820e-01 +6.7053719041310487e+01 +3.9169433284689367e+03 -5.9545379114197963e+05 -2.8140855425934769e+07 
+3.7000000000000020e+00 -5.6446910861266097e-01 +7.7257140740162606e+00 -3.4705305997290764e-01 +6.6584511570433818e+01 +3.8990305608937301e+03 -5.9258947206202406e+05 -2.8012368232246719e+07 
+3.8000000000000020e+00 -5.6446919482261770e-01 +7.7257211944965327e+00 -3.4760087878858198e-01 +6.6080746810129625e+01 +3.8840038812762355e+03 -5.8952205155411921e+05 -2.7894886059792187e+07 
+3.9000000000000021e+00 -5.6446927844129746e-01 +7.7257295693508938e+00 -3.4831530247749770e-01 +6.5539311093674399e+01 +3.8719347468551973e+03 -5.8623227807874058e+05 -2.7788898120706063e+07 
+4.0000000000000018e+00 -5.6446935917049057e-01 +7.7257393158444456e+00 -3.4919430680256769e-01 +6.4957090506122697e+01 +3.8628946807398129e+03 -5.8270089850668737e+05 -2.7694893946136642e+07 
+4.1000000000000014e+00 -5.6446943696779839e-01 +7.7257505245645302e+00 -3.5022963213854080e-01 +6.4331705621745911e+01 +3.8568668817722905e+03 -5.7891333228320593e+05 -2.7613024256636463e+07 
+4.2000000000000011e+00 -5.6446951280662572e-01 +7.7257631838571870e+00 -3.5138841611540356e-01 +6.3663696162127351e+01 +3.8534825252473629e+03 -5.7487351479695726e+05 -2.7542062735238519e+07 
+4.3000000000000007e+00 -5.6446958791267909e-01 +7.7257772576035153e+00 -3.5263171073468780e-01 +6.2954328023823116e+01 +3.8522846033984079e+03 -5.7058997691089823e+05 -2.7480431101705473e+07 
+4.4000000000000004e+00 -5.6446966351163141e-01 +7.7257927096719277e+00 -3.5392057224320694e-01 +6.2204867409132262e+01 +3.8528161925381214e+03 -5.6607125109094731e+05 -2.7426551487254649e+07 
+4.5000000000000000e+00 -5.6446974082919454e-01 +7.7258095039283639e+00 -3.5521605229314318e-01 +6.1416580533717323e+01 +3.8546202833689108e+03 -5.6132586972416320e+05 -2.7378845619101070e+07 
+4.5999999999999996e+00 -5.6446982109104760e-01 +7.7258276042314415e+00 -3.5647920713504633e-01 +6.0590733753907180e+01 +3.8572399591185458e+03 -5.5636236581986630e+05 -2.7335735679724220e+07 
+4.6999999999999993e+00 -5.6446990552286103e-01 +7.7258469744280109e+00 -3.5767109385010315e-01 +5.9728593708412021e+01 +3.8602183183689344e+03 -5.5118927387715492e+05 -2.7295643922656152e+07 
+4.7999999999999989e+00 -5.6446999535034303e-01 +7.7258675783629798e+00 -3.5875276545796286e-01 +5.8831427014683825e+01 +3.8630983879420000e+03 -5.4581512805264187e+05 -2.7256992274805766e+07 
+4.8999999999999986e+00 -5.6447009179916685e-01 +7.7258893798676471e+00 -3.5968527937159395e-01 +5.7900500616527999e+01 +3.8654232795653102e+03 -5.4024846422410558e+05 -2.7218203070397131e+07 
+4.9999999999999982e+00 -5.6447019609502325e-01 +7.7259123427663940e+00 -3.6042969096224503e-01 +5.6937081583345304e+01 +3.8667360694680415e+03 -5.3449781879005278e+05 -2.7177698483205572e+07 
+5.0999999999999979e+00 -5.6447030946358179e-01 +7.7259364308745369e+00 -3.6094705897970419e-01 +5.5942437174099211e+01 +3.8665799028977276e+03 -5.2857172906165919e+05 -2.7133901027310424e+07 
+5.1999999999999975e+00 -5.6447043313052048e-01 +7.7259616079964726e+00 -3.6119844101863785e-01 +5.4917834870468113e+01 +3.8644979055180174e+03 -5.2247873337498988e+05 -2.7085233129776873e+07 
+5.2999999999999972e+00 -5.6447056832150810e-01 +7.7259878379294662e+00 -3.6114489613445494e-01 +5.3864542292650405e+01 +3.8600332326761577e+03 -5.1622737070024072e+05 -2.7030117362399306e+07 
+5.3999999999999968e+00 -5.6447071626220813e-01 +7.7260150844543638e+00 -3.6074748460505135e-01 +5.2783827448232316e+01 +3.8527290693118666e+03 -5.0982618200862751e+05 -2.6966976454602074e+07 
+5.4999999999999964e+00 -5.6447087817828112e-01 +7.7260433113456770e+00 -3.5996726701828019e-01 +5.1676958430679996e+01 +3.8421286067413612e+03 -5.0328370851026708e+05 -2.6894233165187109e+07 
+5.5999999999999961e+00 -5.6447105529538033e-01 +7.7260724823678979e+00 -3.5876530562748110e-01 +5.0545203552968474e+01 +3.8277750745643243e+03 -4.9660849249592290e+05 -2.6810310452283498e+07 
+5.6999999999999957e+00 -5.6447124883916033e-01 +7.7261025612637768e+00 -3.5710266265917723e-01 +4.9389831645717081e+01 +3.8092117045678424e+03 -4.8980907895576936e+05 -2.6713631289521776e+07 
+5.7999999999999954e+00 -5.6447146003527326e-01 +7.7261335117784595e+00 -3.5494040112296166e-01 +4.8212111386587608e+01 +3.7859817476747612e+03 -4.8289401176360692e+05 -2.6602618751411546e+07 
+5.8999999999999950e+00 -5.6447169010933163e-01 +7.7261652976310407e+00 -3.5223958895814717e-01 +4.7013312109570514e+01 +3.7576285506489294e+03 -4.7587183834229904e+05 -2.6475696372823592e+07 
+5.9999999999999947e+00 -5.6447194028697811e-01 +7.7261978825367210e+00 -3.4896129113628455e-01 +4.5794703166201586e+01 +3.7236954104118709e+03 -4.6875110594840581e+05 -2.6331287466385048e+07 
+6.0999999999999943e+00 -5.6447221130664271e-01 +7.7262312267426880e+00 -3.4508352946355247e-01 +4.4557940730475210e+01 +3.6838906639162788e+03 -4.6154249421899021e+05 -2.6168349700348269e+07 
+6.1999999999999940e+00 -5.6447250195667531e-01 +7.7262652624985293e+00 -3.4065211094041853e-01 +4.3306573382844235e+01 +3.6385687336012188e+03 -4.5426674475390720e+05 -2.5987900479660928e+07 
+6.2999999999999936e+00 -5.6447281053755560e-01 +7.7262999114577058e+00 -3.3572975119887993e-01 +4.2044712441635681e+01 +3.5882413516172428e+03 -4.4694751047916157e+05 -2.5791449774610765e+07 
+6.3999999999999932e+00 -5.6447313534971455e-01 +7.7263350952797474e+00 -3.3037917239397779e-01 +4.0776469277227925e+01 +3.5334203610811551e+03 -4.3960844507419242e+05 -2.5580508034586310e+07 
+6.4999999999999929e+00 -5.6447347469356712e-01 +7.7263707356448377e+00 -3.2466309986572917e-01 +3.9505954876780251e+01 +3.4746176630190544e+03 -4.3227320043552661e+05 -2.5356585962406375e+07 
+6.5999999999999925e+00 -5.6447382686950864e-01 +7.7264067542375434e+00 -3.1864426269150731e-01 +3.8237280354125204e+01 +3.4123452233674079e+03 -4.2496542974865407e+05 -2.5121194534305699e+07 
+6.6999999999999922e+00 -5.6447419017793432e-01 +7.7264430727647220e+00 -3.1238539083179201e-01 +3.6974556413195998e+01 +3.3471150165710883e+03 -4.1770878431143030e+05 -2.4875844727371462e+07 
+6.7999999999999918e+00 -5.6447456291918097e-01 +7.7264796129442175e+00 -3.0594922310637251e-01 +3.5721893701574771e+01 +3.2794391815517179e+03 -4.1052691565176734e+05 -2.4622048271353029e+07 
+6.8999999999999915e+00 -5.6447494339359383e-01 +7.7265162965047658e+00 -2.9939849817350322e-01 +3.4483402815381986e+01 +3.2098298452955551e+03 -4.0344347555995709e+05 -2.4361316796721205e+07 
+6.9999999999999911e+00 -5.6447532990149207e-01 +7.7265530452031594e+00 -2.9279595908436218e-01 +3.3263193816756733e+01 +3.1387992098624095e+03 -3.9648211332329392e+05 -2.4095162247665599e+07 
+7.0999999999999908e+00 -5.6447572074316754e-01 +7.7265897808016444e+00 -2.8620435411344713e-01 +3.2065376895835854e+01 +3.0668595719950822e+03 -3.8966647957904317e+05 -2.3825096984986998e+07 
+7.1999999999999904e+00 -5.6447611421888289e-01 +7.7266264250831540e+00 -2.7968643592035675e-01 +3.0894061949292549e+01 +2.9945233014668111e+03 -3.8302022392122919e+05 -2.3552633669557478e+07 
+7.2999999999999901e+00 -5.6447650862885612e-01 +7.7266628998504032e+00 -2.7330496411759958e-01 +2.9753358596912722e+01 +2.9223028918331247e+03 -3.7656699495674745e+05 -2.3279285505337123e+07 
+7.3999999999999897e+00 -5.6447690227333969e-01 +7.7266991269220258e+00 -2.6712269582726539e-01 +2.8647376318091741e+01 +2.8507107833937798e+03 -3.7033044117299101e+05 -2.3006565404367354e+07 
+7.4999999999999893e+00 -5.6447729345249298e-01 +7.7267350281373650e+00 -2.6120240091985458e-01 +2.7580224330108734e+01 +2.7802596481753758e+03 -3.6433421026369190e+05 -2.2735987328775957e+07 
+7.5999999999999890e+00 -5.6447768046649593e-01 +7.7267705253543424e+00 -2.5560684797699068e-01 +2.6556011631377750e+01 +2.7114621236869702e+03 -3.5860194932256243e+05 -2.2469065025884122e+07 
+7.6999999999999886e+00 -5.6447806161547143e-01 +7.7268055404525651e+00 -2.5039881457778151e-01 +2.5578846953135574e+01 +2.6448310123145257e+03 -3.5315730467455479e+05 -2.2207312985898957e+07 
+7.7999999999999883e+00 -5.6447843519952312e-01 +7.7268399953304385e+00 -2.4564108164400159e-01 +2.4652838843417744e+01 +2.5808791652856953e+03 -3.4802392236275360e+05 -2.1952245866040055e+07 
+7.8999999999999879e+00 -5.6447879951872493e-01 +7.7268738119105471e+00 -2.4139643597082880e-01 +2.3782095504447557e+01 +2.5201195415665211e+03 -3.4322544717257650e+05 -2.1705378800179083e+07 
+7.9999999999999876e+00 -5.6447915287313366e-01 +7.7269069121346012e+00 -2.3772766752710389e-01 +2.2970724949110711e+01 +2.4630651431792699e+03 -3.3878552353484172e+05 -2.1468227048272278e+07 
+8.0999999999999872e+00 -5.6447949396108965e-01 +7.7269392157548307e+00 -2.3468837905294979e-01 +2.2221956915187867e+01 +2.4102075649163676e+03 -3.3472201882099314e+05 -2.1242327209840138e+07 
+8.1999999999999869e+00 -5.6447982308668376e-01 +7.7269706559741431e+00 -2.3229366600621176e-01 +2.1534962792207043e+01 +2.3619679562780207e+03 -3.3102811555038282e+05 -2.1029446502025824e+07 
+8.2999999999999865e+00 -5.6448014095844012e-01 +7.7270011751098089e+00 -2.3054865583910192e-01 +2.0907748918059877e+01 +2.3187560207840065e+03 -3.2769036720467935e+05 -2.0831454066118360e+07 
+8.3999999999999861e+00 -5.6448044828482569e-01 +7.7270307154856610e+00 -2.2945847952491591e-01 +2.0338321276885431e+01 +2.2809815238831029e+03 -3.2469532538550993e+05 -2.0650219317076400e+07 
+8.4999999999999858e+00 -5.6448074577431440e-01 +7.7270592194286367e+00 -2.2902826514396407e-01 +1.9824685577968133e+01 +2.2490541758726067e+03 -3.2202953996119485e+05 -2.0487611417241160e+07 
+8.5999999999999854e+00 -5.6448103413539352e-01 +7.7270866292758953e+00 -2.2926313663621919e-01 +1.9364847049514211e+01 +2.2233836087715645e+03 -3.1967955788663775e+05 -2.0345499170644023e+07 
+8.6999999999999851e+00 -5.6448131407651969e-01 +7.7271128873620389e+00 -2.3016821835281048e-01 +1.8956810815283799e+01 +2.2043794544573848e+03 -3.1763192541132710e+05 -2.0225751371459078e+07 
+8.7999999999999847e+00 -5.6448158630614942e-01 +7.7271379360315073e+00 -2.3174863239262403e-01 +1.8598581499500824e+01 +2.1924513045845320e+03 -3.1587318570845900e+05 -2.0130236643205807e+07 
+8.8999999999999844e+00 -5.6448185153272090e-01 +7.7271617176290359e+00 -2.3400949966863271e-01 +1.8288163529077341e+01 +2.1880087232200567e+03 -3.1438988070761593e+05 -2.0060823479425270e+07 
+8.9999999999999840e+00 -5.6448211046468011e-01 +7.7271841745070979e+00 -2.3695593732452103e-01 +1.8023560886468839e+01 +2.1914612011766044e+03 -3.1316854958631459e+05 -2.0019380034014266e+07 
+9.0999999999999837e+00 -5.6448236381043904e-01 +7.7272052490236129e+00 -2.4059306333439739e-01 +1.7802777174655589e+01 +2.2032182413456312e+03 -3.1219572915697674e+05 -2.0007774524721224e+07 
+9.1999999999999833e+00 -5.6448261227842866e-01 +7.7272248835384776e+00 -2.4492599045016397e-01 +1.7623815719622034e+01 +2.2236892473606813e+03 -3.1145795447777654e+05 -2.0027874711161248e+07 
+9.2999999999999829e+00 -5.6448285657706043e-01 +7.7272430204151341e+00 -2.4995983019634638e-01 +1.7484679509987743e+01 +2.2532835946901987e+03 -3.1094175847512356e+05 -2.0081548223101534e+07 
+9.3999999999999826e+00 -5.6448309741471636e-01 +7.7272596020300846e+00 -2.5569969435260853e-01 +1.7383370908432301e+01 +2.2924106616854119e+03 -3.1063367024573340e+05 -2.0170662715384051e+07 
+9.4999999999999822e+00 -5.6448333549979446e-01 +7.7272745707545329e+00 -2.6215068919238810e-01 +1.7317892191385287e+01 +2.3414797191938906e+03 -3.1052021822248335e+05 -2.0297085340518247e+07 
+9.5999999999999819e+00 -5.6448357154067352e-01 +7.7272878689694684e+00 -2.6931792011962852e-01 +1.7286245091616784e+01 +2.4009000206846626e+03 -3.1058792747297627e+05 -2.0462683183712788e+07 
+9.6999999999999815e+00 -5.6448380624573169e-01 +7.7272994390584673e+00 -2.7720648816257387e-01 +1.7286431008696425e+01 +2.4710807301510063e+03 -3.1082332094402361e+05 -2.0669322906434722e+07 
+9.7999999999999812e+00 -5.6448404032332034e-01 +7.7273092234169827e+00 -2.8582149460068224e-01 +1.7316450719735492e+01 +2.5524310172141286e+03 -3.1121291773626587e+05 -2.0918871216924716e+07 
+9.8999999999999808e+00 -5.6448427448179295e-01 +7.7273171644316969e+00 -2.9516803641919293e-01 +1.7374304992663294e+01 +2.6453599670924782e+03 -3.1174323671822966e+05 -2.1213194434996720e+07 
+9.9999999999999805e+00 -5.6448450942950668e-01 +7.7273232045066758e+00 -3.0525120570514519e-01 +1.7457993859493271e+01 +2.7502765730844608e+03 -3.1240079238098883e+05 -2.1554158469858553e+07 
+1.0099999999999980e+01 -5.6448474591668296e-01 +7.7273273100259026e+00 -3.1605471985271361e-01 +1.7565724171086444e+01 +2.8672341200053966e+03 -3.1317419470285997e+05 -2.1942258069432702e+07 
