# multipoles
# s[mm] polynom_b[n=0][T/m^n] polynom_b[n=1][T/m^n] polynom_b[n=2][T/m^n] polynom_b[n=3][T/m^n] polynom_b[n=4][T/m^n] polynom_b[n=5][T/m^n] polynom_b[n=6][T/m^n] 
+0.0000000000000000e+00 -5.3688977980263908e-01 +7.3542197697329970e+00 -1.0062077802144506e-01 +8.3976531796095111e-01 -1.1830593041904256e+03 -1.4952548992844822e+05 -1.3293545470974417e+05 
+1.0000000000000001e-01 -5.3688988490094336e-01 +7.3542141736617390e+00 -9.6724163580163475e-02 +9.7402420328703432e-01 -1.2894868666800969e+03 -1.4982992723960502e+05 +3.8422335863381007e+05 
+2.0000000000000001e-01 -5.3688999766774059e-01 +7.3542087215144631e+00 -9.2883456398880876e-02 +1.1044708832553176e+00 -1.3948628882052324e+03 -1.5015452890435772e+05 +8.9631526743300422e+05 
+3.0000000000000004e-01 -5.3689011825922606e-01 +7.3542035169852946e+00 -8.9104341111654314e-02 +1.2286516718986826e+00 -1.4988488373479222e+03 -1.5048461700159023e+05 +1.4015202256344436e+06 
+4.0000000000000002e-01 -5.3689024683160158e-01 +7.3541986637679910e+00 -8.5392501810058224e-02 +1.3441129012896247e+00 -1.6011061892658281e+03 -1.5080551373874178e+05 +1.8980182105322892e+06 
+5.0000000000000000e-01 -5.3689038354104301e-01 +7.3541942655615102e+00 -8.1753625892879295e-02 +1.4484007321835848e+00 -1.7012963535954902e+03 -1.5110254028507852e+05 +2.3839888795135091e+06 
+5.9999999999999998e-01 -5.3689052854377062e-01 +7.3541904260610336e+00 -7.8193395358402876e-02 +1.5390614227524724e+00 -1.7990808398715953e+03 -1.5136101835025911e+05 +2.8576123599191862e+06 
+6.9999999999999996e-01 -5.3689068199596945e-01 +7.3541872489589188e+00 -7.4717496373198161e-02 +1.6136413003571888e+00 -1.8941210790689938e+03 -1.5156627001937211e+05 +3.3170684060894884e+06 
+7.9999999999999993e-01 -5.3689084405385379e-01 +7.3541848379515873e+00 -7.1331612434879454e-02 +1.6696865424444716e+00 -1.9860785447569201e+03 -1.5170361643692097e+05 +3.7605369545468702e+06 
+8.9999999999999991e-01 -5.3689101487362001e-01 +7.3541832967340319e+00 -6.8041428695854098e-02 +1.7047433421519342e+00 -2.0746146798607638e+03 -1.5175837877378109e+05 +4.1861977954846122e+06 
+9.9999999999999989e-01 -5.3689119461150769e-01 +7.3541827290005859e+00 -6.4852625961028115e-02 +1.7163578819186422e+00 -2.1593910024189795e+03 -1.5171587807974892e+05 +4.5922310567138726e+06 
+1.0999999999999999e+00 -5.3689138342370979e-01 +7.3541832384459491e+00 -6.1770890188678027e-02 +1.7020762850627944e+00 -2.2400689356652251e+03 -1.5156143493933545e+05 +4.9768164213599134e+06 
+1.2000000000000000e+00 -5.3689158146647165e-01 +7.3541849287633507e+00 -5.8801901673566512e-02 +1.6594446868148656e+00 -2.3163100022515509e+03 -1.5128036994366857e+05 +5.3381340221085278e+06 
+1.3000000000000000e+00 -5.3689178889603584e-01 +7.3541879036472544e+00 -5.5951340962719510e-02 +1.5860091253234219e+00 -2.3877757200127021e+03 -1.5085800296647928e+05 +5.6743639668786647e+06 
+1.4000000000000001e+00 -5.3689200586863084e-01 +7.3541922667908981e+00 -5.3224891207816961e-02 +1.4793156293384948e+00 -2.4541275491117590e+03 -1.5027965372911276e+05 +5.9836860641201222e+06 
+1.5000000000000002e+00 -5.3689223254052132e-01 +7.3541981218885386e+00 -5.0628230422601485e-02 +1.3369101413957825e+00 -2.5150270507478995e+03 -1.4953064131577665e+05 +6.2642806095854528e+06 
+1.6000000000000003e+00 -5.3689246906797439e-01 +7.3542055726302573e+00 -4.8167037448374493e-02 +1.1563386517485290e+00 -2.5701357612989700e+03 -1.4859628490695078e+05 +6.5143277532498790e+06 
+1.7000000000000004e+00 -5.3689271560727336e-01 +7.3542147227121628e+00 -4.5846989099539805e-02 +9.3514692095162699e-01 -2.6191152536383070e+03 -1.4746190223075773e+05 +6.7320078096717279e+06 
+1.8000000000000005e+00 -5.3689297231470556e-01 +7.3542256758237734e+00 -4.3673762034332070e-02 +6.7088081923222431e-01 -2.6616271008916842e+03 -1.4611281144788279e+05 +6.9155010836766455e+06 
+1.9000000000000006e+00 -5.3689323934658117e-01 +7.3542385356574265e+00 -4.1653030364327000e-02 +3.6108605647729741e-01 -2.6973329203384569e+03 -1.4453432960126520e+05 +7.0629880744320648e+06 
+2.0000000000000004e+00 -5.3689351685921216e-01 +7.3542534059074036e+00 -3.9790468454596079e-02 +3.3082128625713711e-03 -2.7258943203341437e+03 -1.4271177281152655e+05 +7.1726492225462170e+06 
+2.1000000000000005e+00 -5.3689380482371374e-01 +7.3542703337884294e+00 -3.8092474935646242e-02 -4.0347186567068610e-01 -2.7470587460483616e+03 -1.4063839430679599e+05 +7.2432146830200190e+06 
+2.2000000000000006e+00 -5.3689410246684011e-01 +7.3542891361064582e+00 -3.6568073712124484e-02 -8.5440177149510943e-01 -2.7609265466452021e+03 -1.3833982035223863e+05 +7.2756721320855757e+06 
+2.3000000000000007e+00 -5.3689440882836281e-01 +7.3543095709149648e+00 -3.5226873444614198e-02 -1.3431277478701442e+00 -2.7676887962516284e+03 -1.3584993178980090e+05 +7.2715888270326378e+06 
+2.4000000000000008e+00 -5.3689472294805185e-01 +7.3543313962685737e+00 -3.4078483273053940e-02 -1.8632960830538876e+00 -2.7675365594494115e+03 -1.3320260920527231e+05 +7.2325319830806479e+06 
+2.5000000000000009e+00 -5.3689504386566311e-01 +7.3543543702291592e+00 -3.3132513700232485e-02 -2.4085532563257783e+00 -2.7606608783386096e+03 -1.3043173216651735e+05 +7.1600687200465631e+06 
+2.6000000000000010e+00 -5.3689537062093096e-01 +7.3543782508569162e+00 -3.2398577651301344e-02 -2.9725456929653000e+00 -2.7472527552213542e+03 -1.2757118061257302e+05 +7.0557659912773389e+06 
+2.7000000000000011e+00 -5.3689570225359029e-01 +7.3544027962185963e+00 -3.1886288253763412e-02 -3.5489199865432339e+00 -2.7275031887376472e+03 -1.2465483360674267e+05 +6.9211907379146749e+06 
+2.8000000000000012e+00 -5.3689603780335782e-01 +7.3544277643832885e+00 -3.1605260336982202e-02 -4.1313227688015104e+00 -2.7016031529641746e+03 -1.2171657011890906e+05 +6.7579098121544542e+06 
+2.9000000000000012e+00 -5.3689637630991616e-01 +7.3544529134240717e+00 -3.1565112823375284e-02 -4.7134007693343474e+00 -2.6697435479377741e+03 -1.1879026864265821e+05 +6.5674897294134600e+06 
+3.0000000000000013e+00 -5.3689671681294504e-01 +7.3544780014179274e+00 -3.1775464376674743e-02 -5.2888007893140143e+00 -2.6321152877480945e+03 -1.1590980742360310e+05 +6.3514971042880341e+06 
+3.1000000000000014e+00 -5.3689705835208967e-01 +7.3545027864465924e+00 -3.2245938642602605e-02 -5.8511697299379444e+00 -2.5889091915951026e+03 -1.1310906427878651e+05 +6.1114981077752551e+06 
+3.2000000000000015e+00 -5.3689739996696639e-01 +7.3545270265961884e+00 -3.2986161105508997e-02 -6.3941545702686042e+00 -2.5403160594608089e+03 -1.1042191675871961e+05 +5.8490588691018187e+06 
+3.3000000000000016e+00 -5.3689774069718910e-01 +7.3545504799594426e+00 -3.4005758404173324e-02 -6.9114024336504043e+00 -2.4865266697859661e+03 -1.0788224176388119e+05 +5.5657454261924932e+06 
+3.4000000000000017e+00 -5.3689807958232183e-01 +7.3545729046316861e+00 -3.5314362262296749e-02 -7.3965604581148572e+00 -2.4277317170462261e+03 -1.0552391632437223e+05 +5.2631234604974212e+06 
+3.5000000000000018e+00 -5.3689841566190644e-01 +7.3545940587163177e+00 -3.6921606747366546e-02 -7.8432759555439686e+00 -2.3641218591620341e+03 -1.0338081669271251e+05 +4.9427585114813643e+06 
+3.6000000000000019e+00 -5.3689874797545067e-01 +7.3546137003217789e+00 -3.8837129915291660e-02 -8.2451963141796156e+00 -2.2958876867936983e+03 -1.0148681892123191e+05 +4.6062158326206794e+06 
+3.7000000000000020e+00 -5.3689907556242744e-01 +7.3546315875608252e+00 -4.1070573605899469e-02 -8.5959689765620020e+00 -2.2232197286626774e+03 -9.9875799006560541e+04 +4.2550604207936190e+06 
+3.8000000000000020e+00 -5.3689939746228355e-01 +7.3546474785582729e+00 -4.3631582279217436e-02 -8.8892416518967572e+00 -2.1463084749883806e+03 -9.8581631686004592e+04 +3.8908571321835178e+06 
+3.9000000000000021e+00 -5.3689971271441372e-01 +7.3546611314381458e+00 -4.6529806006959613e-02 -9.1186619460468918e+00 -2.0653443220046211e+03 -9.7638192580449540e+04 +3.5151704224076923e+06 
+4.0000000000000018e+00 -5.3690002035819651e-01 +7.3546723043350637e+00 -4.9774896653496596e-02 -9.2778776806491674e+00 -1.9805176414564221e+03 -9.7079356384166065e+04 +3.1295646699319948e+06 
+4.1000000000000014e+00 -5.3690031975341246e-01 +7.3546808129425845e+00 -5.3365159668158010e-02 -9.3620782054613816e+00 -1.8921418350198780e+03 -9.6930342955748187e+04 +2.7359230009217230e+06 
+4.2000000000000011e+00 -5.3690061155022195e-01 +7.3546867097264252e+00 -5.7253865059310217e-02 -9.3727930703883526e+00 -1.8010048962401152e+03 -9.7180445249420372e+04 +2.3372871054626331e+06 
+4.3000000000000007e+00 -5.3690089672356900e-01 +7.3546901080387768e+00 -6.1383121400317660e-02 -9.3131826703807583e+00 -1.7080088337670209e+03 -9.7809631860636859e+04 +1.9369572716418391e+06 
+4.4000000000000004e+00 -5.3690117624841371e-01 +7.3546911212219728e+00 -6.5695035166125584e-02 -9.1864070743826165e+00 -1.6140556995208988e+03 -9.8797873236864732e+04 +1.5382339977297687e+06 
+4.5000000000000000e+00 -5.3690145109972254e-01 +7.3546898626156754e+00 -7.0131711926567974e-02 -8.9956262295533396e+00 -1.5200475672522971e+03 -1.0012514050697336e+05 +1.1444178935529187e+06 
+4.5999999999999996e+00 -5.3690172225245281e-01 +7.3546864455404970e+00 -7.4635258123685461e-02 -8.7439994892770727e+00 -1.4268864985434466e+03 -1.0177140819648074e+05 +7.5880951752735290e+05 
+4.6999999999999993e+00 -5.3690199068159783e-01 +7.3546809833122966e+00 -7.9147775408424506e-02 -8.4346860309343850e+00 -1.3354746518864092e+03 -1.0371665178734616e+05 +3.8470989917806041e+05 
+4.7999999999999989e+00 -5.3690225736216091e-01 +7.3546735892350750e+00 -8.3611364650408776e-02 -8.0708446292023766e+00 -1.2467142001416373e+03 -1.0594084908379929e+05 +2.5420129153512196e+04 
+4.8999999999999986e+00 -5.3690252326914267e-01 +7.3546643765980342e+00 -8.7968126233225905e-02 -7.6556335942099016e+00 -1.1615073344609079e+03 -1.0842398048493045e+05 -3.1575859773131600e+05 
+4.9999999999999982e+00 -5.3690278937755131e-01 +7.3546534586775882e+00 -9.2160159368031985e-02 -7.1922108066068526e+00 -1.0807562727935467e+03 -1.1114602885077092e+05 -6.3552495419916685e+05 
+5.0999999999999979e+00 -5.3690305666243776e-01 +7.3546409487391777e+00 -9.6129558845399241e-02 -6.6837337853226986e+00 -1.0053633164653785e+03 -1.1408697904443830e+05 -9.3057722420360288e+05 
+5.1999999999999975e+00 -5.3690332609883384e-01 +7.3546269600328813e+00 -9.9818420203384384e-02 -6.1333595494049069e+00 -9.3623076341426111e+02 -1.1722681876272513e+05 -1.1976136897602656e+06 
+5.2999999999999972e+00 -5.3690359866182136e-01 +7.3546116057919271e+00 -1.0316883383497492e-01 -5.5442445715233690e+00 -8.7426100908212857e+02 -1.2054553879604425e+05 -1.4333321756920952e+06 
+5.3999999999999968e+00 -5.3690387532648232e-01 +7.3545949992386692e+00 -1.0612288912475169e-01 -4.9195449596771770e+00 -8.2035647554093168e+02 -1.2402313195156377e+05 -1.6344303713483489e+06 
+5.4999999999999964e+00 -5.3690415706791228e-01 +7.3545772535737335e+00 -1.0862267422964859e-01 -4.2624161347111258e+00 -7.7541961041128036e+02 -1.2763959492780124e+05 -1.7976058464729493e+06 
+5.5999999999999961e+00 -5.3690444486124622e-01 +7.3545584819836218e+00 -1.1061027164494688e-01 -3.5760130423773626e+00 -7.4035297643289380e+02 -1.3137492709802199e+05 -1.9195556148064253e+06 
+5.6999999999999957e+00 -5.3690473968161023e-01 +7.3545387976403793e+00 -1.1202776547272585e-01 -2.8634901584806634e+00 -7.1605910634475333e+02 -1.3520913043557666e+05 -1.9969768407682593e+06 
+5.7999999999999954e+00 -5.3690504250418702e-01 +7.3545183136917380e+00 -1.1281723211216173e-01 -2.1280011859978689e+00 -7.0344068824724934e+02 -1.3912221129812405e+05 -2.0265659371687395e+06 
+5.8999999999999950e+00 -5.3690535430415742e-01 +7.3544971432716331e+00 -1.1292074812181928e-01 -1.3726993708088104e+00 -7.0340040913532562e+02 -1.4309417856700558e+05 -2.0050193292719624e+06 
+5.9999999999999947e+00 -5.3690567605673734e-01 +7.3544753994915109e+00 -1.1228038563764928e-01 -6.0073724063647682e-01 -7.1684104693278618e+02 -1.4710504515540163e+05 -1.9290330009464077e+06 
+6.0999999999999943e+00 -5.3690600844404612e-01 +7.3544532080023890e+00 -1.1086133378779549e-01 +1.8422658020788429e-01 -7.4428063483693620e+02 -1.5113293688830172e+05 -1.7968559534528707e+06 
+6.1999999999999940e+00 -5.3690635097317840e-01 +7.3544307496053962e+00 -1.0872215871108380e-01 +9.7642644877261464e-01 -7.8466963971767564e+02 -1.5514897414538890e+05 -1.6130605731068107e+06 
+6.2999999999999936e+00 -5.3690670285654907e-01 +7.3544082202065768e+00 -1.0594504934831149e-01 +1.7695471468379829e+00 -8.3655847543658558e+02 -1.5912266827416603e+05 -1.3838305499327679e+06 
+6.3999999999999932e+00 -5.3690706330661842e-01 +7.3543858157194704e+00 -1.0261218978605291e-01 +2.5572732093766528e+00 -8.9849762604990008e+02 -1.6302352927198782e+05 -1.1153493019653861e+06 
+6.4999999999999929e+00 -5.3690743153588261e-01 +7.3543637320731348e+00 -9.8805759530098403e-02 +3.3332886722890556e+00 -9.6903764356192062e+02 -1.6682106418350141e+05 -8.1379998805553699e+05 
+6.5999999999999925e+00 -5.3690780675687344e-01 +7.3543421652131844e+00 -9.4607933922407045e-02 +4.0912770568780186e+00 -1.0467291390038481e+03 -1.7048477704985390e+05 -4.8536555178638984e+05 
+6.6999999999999922e+00 -5.3690818818216035e-01 +7.3543213110937247e+00 -9.0100884111339805e-02 +4.8249215737178410e+00 -1.1301227799475578e+03 -1.7398417001942443e+05 -1.3622874207143247e+05 
+6.7999999999999918e+00 -5.3690857502437617e-01 +7.3543013656889622e+00 -8.5366773707366797e-02 +5.5279048167233604e+00 -1.2177693532858837e+03 -1.7728874166056036e+05 +2.2742818124659348e+05 
+6.8999999999999915e+00 -5.3690896649614772e-01 +7.3542825249859503e+00 -8.0487767190133980e-02 +6.1939089407326522e+00 -1.3082196080635385e+03 -1.8036798790959312e+05 +5.9942270883640123e+05 
+6.9999999999999911e+00 -5.3690936181020399e-01 +7.3542649849903610e+00 -7.5546016622214357e-02 +6.8166155122376519e+00 -1.4000245033964586e+03 -1.8319140125917314e+05 +9.7357324608015118e+05 
+7.0999999999999908e+00 -5.3690976017928560e-01 +7.3542489417190495e+00 -7.0623673597276115e-02 +7.3897057120537202e+00 -1.4917349782008653e+03 -1.8572847190144850e+05 +1.3436980106489963e+06 
+7.1999999999999904e+00 -5.3691016081616560e-01 +7.3542345912130900e+00 -6.5802885009775242e-02 +7.9068599521780722e+00 -1.5819020421636687e+03 -1.8794868550227321e+05 +1.7036154925328605e+06 
+7.2999999999999901e+00 -5.3691056293370654e-01 +7.3542221295298233e+00 -6.1165788093603013e-02 +8.3617581162131991e+00 -1.6690768517583010e+03 -1.8982152462702116e+05 +2.0471447657665003e+06 
+7.3999999999999897e+00 -5.3691096574479635e-01 +7.3542117527461279e+00 -5.6794516504342057e-02 +8.7480794487876530e+00 -1.7518106100747154e+03 -1.9131646805780262e+05 +2.3681050533568920e+06 
+7.4999999999999893e+00 -5.3691136846237375e-01 +7.3542036569545255e+00 -5.2771198366814945e-02 +9.0595026750287033e+00 -1.8286545930723776e+03 -1.9240299151115521e+05 +2.6603158228417770e+06 
+7.5999999999999890e+00 -5.3691177029942327e-01 +7.3541980382721288e+00 -4.9177956667830161e-02 +9.2897057247993402e+00 -1.8981601431936276e+03 -1.9305056600622117e+05 +2.9175967574378811e+06 
+7.6999999999999886e+00 -5.3691217046900264e-01 +7.3541950928364557e+00 -4.6096905411712873e-02 +9.4323658705752820e+00 -1.9588787455015477e+03 -1.9322865870526200e+05 +3.1337681283120629e+06 
+7.7999999999999883e+00 -5.3691256818421385e-01 +7.3541950168047840e+00 -4.3610153776404564e-02 +9.4811597291285139e+00 -2.0093619420366072e+03 -1.9290673288997615e+05 +3.3026503657764029e+06 
+7.8999999999999879e+00 -5.3691296265820665e-01 +7.3541980063580867e+00 -4.1799805188348679e-02 +9.4297631537855757e+00 -2.0481613540116678e+03 -1.9205424735685109e+05 +3.4180641788056791e+06 
+7.9999999999999876e+00 -5.3691335310420973e-01 +7.3542042576977957e+00 -4.0747954304885044e-02 +9.2718513235771507e+00 -2.0738287295342398e+03 -1.9064065681468690e+05 +3.4738307646510620e+06 
+8.0999999999999872e+00 -5.3691373902610284e-01 +7.3542138964670665e+00 -4.0511584691875602e-02 +9.0035314111725100e+00 -2.0853382655391879e+03 -1.8864802563141566e+05 +3.4656351131316447e+06 
+8.1999999999999869e+00 -5.3691412107391978e-01 +7.3542267540343156e+00 -4.1045652093109855e-02 +8.6309468309670745e+00 -2.0834410475963423e+03 -1.8611029959310833e+05 +3.3970794761077785e+06 
+8.2999999999999865e+00 -5.3691450018025755e-01 +7.3542425847338659e+00 -4.2279145093194373e-02 +8.1628463196387955e+00 -2.0693557473516194e+03 -1.8307483144884955e+05 +3.2738684445911585e+06 
+8.3999999999999861e+00 -5.3691487727766529e-01 +7.3542611428858491e+00 -4.4141059000623324e-02 +7.6079789991823619e+00 -2.0443009308439316e+03 -1.7958897610938267e+05 +3.1017061808812241e+06 
+8.4999999999999858e+00 -5.3691525329867651e-01 +7.3542821828040381e+00 -4.6560391107196307e-02 +6.9750941287986805e+00 -2.0094951481975240e+03 -1.7570008934467123e+05 +2.8862968570310902e+06 
+8.5999999999999854e+00 -5.3691562917572300e-01 +7.3543054587929868e+00 -4.9466152120872867e-02 +6.2729411930499195e+00 -1.9661567147301785e+03 -1.7145552831151622e+05 +2.6333436105088228e+06 
+8.6999999999999851e+00 -5.3691600584119126e-01 +7.3543307251476309e+00 -5.2787358992646728e-02 +5.5102699175153012e+00 -1.9155038495523324e+03 -1.6690265166499498e+05 +2.3485492120997836e+06 
+8.7999999999999847e+00 -5.3691638422742360e-01 +7.3543577361549719e+00 -5.6453034703713455e-02 +4.6958302010707218e+00 -1.8587546798252120e+03 -1.6208881911090240e+05 +2.0376160863831290e+06 
+8.8999999999999844e+00 -5.3691676526665999e-01 +7.3543862460902663e+00 -6.0392215526867271e-02 +3.8383722411948851e+00 -1.7971271034082979e+03 -1.5706139219274672e+05 +1.7062456605035099e+06 
+8.9999999999999840e+00 -5.3691714989110617e-01 +7.3544160092161590e+00 -6.4533942953556397e-02 +2.9466465559563759e+00 -1.7318389425221110e+03 -1.5186773439923921e+05 +1.3601390994088894e+06 
+9.0999999999999837e+00 -5.3691753903290529e-01 +7.3544467797913420e+00 -6.8807266256707619e-02 +2.0294037229152004e+00 -1.6641078986130187e+03 -1.4655520964583961e+05 +1.0049970977714777e+06 
+9.1999999999999833e+00 -5.3691793362409013e-01 +7.3544783120573207e+00 -7.3141249749745910e-02 +1.0953947726276285e+00 -1.5951514107673306e+03 -1.4117118457509787e+05 +6.4651920151085884e+05 
+9.2999999999999829e+00 -5.3691833459665994e-01 +7.3545103602468727e+00 -7.7464962198081300e-02 +1.5337093520594047e-01 -1.5261868610764136e+03 -1.3576302707885232e+05 +2.9040479381069267e+05 
+9.3999999999999826e+00 -5.3691874288253172e-01 +7.3545426785801267e+00 -8.1707483333630759e-02 -7.8791624755893230e-01 -1.4584314513088605e+03 -1.3037810694588668e+05 -5.7647487450913992e+04 
+9.4999999999999822e+00 -5.3691915941353996e-01 +7.3545750212651830e+00 -8.5797904033522832e-02 -1.7197149368496534e+00 -1.3931021978472577e+03 -1.2506379579471957e+05 -3.9193977799505758e+05 
+9.5999999999999819e+00 -5.3691958512143045e-01 +7.3546071425010071e+00 -8.9665326895134442e-02 -2.6332730859484546e+00 -1.3314159236408509e+03 -1.1986746654486145e+05 -7.0677501664205652e+05 
+9.6999999999999815e+00 -5.3692002093789271e-01 +7.3546387964696072e+00 -9.3238861884906765e-02 -3.5198382068043865e+00 -1.2745893439996310e+03 -1.1483649479967107e+05 -9.9645652791236457e+05 
+9.7999999999999812e+00 -5.3692046779452041e-01 +7.3546697373420393e+00 -9.6447632282373519e-02 -4.3706575594554016e+00 -1.2238389463551985e+03 -1.1001825770518470e+05 -1.2552886130797523e+06 
+9.8999999999999808e+00 -5.3692092662281732e-01 +7.3546997192769021e+00 -9.9220772664215459e-02 -5.1769780941872581e+00 -1.1803810400763191e+03 -1.0546013433188893e+05 -1.4775762800604911e+06 
+9.9999999999999805e+00 -5.3692139835419905e-01 +7.3547284964173558e+00 -1.0148742988694655e-01 -5.9300463877075602e+00 -1.1454317322213476e+03 -1.0120950618339362e+05 -1.6576253888728274e+06 
+1.0099999999999980e+01 -5.3692188369948213e-01 +7.3547558555250383e+00 -1.0319089973783485e-01 -6.6225831612301658e+00 -1.1199787957077581e+03 -9.7305459487358850e+04 -1.7907960692487622e+06 
