# trajectory
# s[mm] rx[mm] ry[mm] rz[mm] px[rad] py[rad] pz[rad]
0.0000000000000000e+00 +8.1529999999999987e+00 +0.0000000000000000e+00 +0.0000000000000000e+00 +0.0000000000000000e+00 +0.0000000000000000e+00 +1.0000000000000000e+00
1.0000000000000001e-01 +8.1529997168286670e+00 +0.0000000000000000e+00 +9.9999999999465433e-02 -5.6634264185650927e-06 +0.0000000000000000e+00 +9.9999999998396283e-01
2.0000000000000001e-01 +8.1529988673147624e+00 +0.0000000000000000e+00 +1.9999999999572343e-01 -1.1326851453496647e-05 +0.0000000000000000e+00 +9.9999999993585120e-01
3.0000000000000004e-01 +8.1529974514584254e+00 +0.0000000000000000e+00 +2.9999999998556653e-01 -1.6990275057521476e-05 +0.0000000000000000e+00 +9.9999999985566523e-01
4.0000000000000002e-01 +8.1529954692597997e+00 +0.0000000000000000e+00 +3.9999999996578733e-01 -2.2653697191516543e-05 +0.0000000000000000e+00 +9.9999999974340492e-01
5.0000000000000000e-01 +8.1529929207190364e+00 +0.0000000000000000e+00 +4.9999999993317840e-01 -2.8317117824508928e-05 +0.0000000000000000e+00 +9.9999999959907038e-01
5.9999999999999998e-01 +8.1529898058362864e+00 +0.0000000000000000e+00 +5.9999999988453223e-01 -3.3980536933675808e-05 +0.0000000000000000e+00 +9.9999999942266149e-01
6.9999999999999996e-01 +8.1529861246117008e+00 +0.0000000000000000e+00 +6.9999999981664152e-01 -3.9643954504344426e-05 +0.0000000000000000e+00 +9.9999999921417837e-01
7.9999999999999993e-01 +8.1529818770454359e+00 +0.0000000000000000e+00 +7.9999999972629876e-01 -4.5307370529992110e-05 +0.0000000000000000e+00 +9.9999999897362102e-01
8.9999999999999991e-01 +8.1529770631376461e+00 +0.0000000000000000e+00 +8.9999999961029653e-01 -5.0970785012246249e-05 +0.0000000000000000e+00 +9.9999999870098943e-01
9.9999999999999989e-01 +8.1529716828884844e+00 +0.0000000000000000e+00 +9.9999999946542750e-01 -5.6634197960884305e-05 +0.0000000000000000e+00 +9.9999999839628373e-01
1.0999999999999999e+00 +8.1529657362981034e+00 +0.0000000000000000e+00 +1.0999999992884841e+00 -6.2297609393833819e-05 +0.0000000000000000e+00 +9.9999999805950390e-01
1.2000000000000000e+00 +8.1529592233666541e+00 +0.0000000000000000e+00 +1.1999999990762591e+00 -6.7961019337172429e-05 +0.0000000000000000e+00 +9.9999999769064984e-01
1.3000000000000000e+00 +8.1529521440942840e+00 +0.0000000000000000e+00 +1.2999999988255451e+00 -7.3624427825127889e-05 +0.0000000000000000e+00 +9.9999999728972178e-01
1.4000000000000001e+00 +8.1529444984811370e+00 +0.0000000000000000e+00 +1.3999999985331344e+00 -7.9287834900078124e-05 +0.0000000000000000e+00 +9.9999999685671959e-01
1.5000000000000002e+00 +8.1529362865273498e+00 +0.0000000000000000e+00 +1.4999999981958199e+00 -8.4951240612551226e-05 +0.0000000000000000e+00 +9.9999999639164328e-01
1.6000000000000003e+00 +8.1529275082330575e+00 +0.0000000000000000e+00 +1.5999999978103940e+00 -9.0614645021225542e-05 +0.0000000000000000e+00 +9.9999999589449295e-01
1.7000000000000004e+00 +8.1529181635983861e+00 +0.0000000000000000e+00 +1.6999999973736495e+00 -9.6278048192929684e-05 +0.0000000000000000e+00 +9.9999999536526862e-01
1.8000000000000005e+00 +8.1529082526234564e+00 +0.0000000000000000e+00 +1.7999999968823788e+00 -1.0194145020264261e-04 +0.0000000000000000e+00 +9.9999999480397028e-01
1.9000000000000006e+00 +8.1528977753083804e+00 +0.0000000000000000e+00 +1.8999999963333745e+00 -1.0760485113349368e-04 +0.0000000000000000e+00 +9.9999999421059793e-01
2.0000000000000004e+00 +8.1528867316532629e+00 +0.0000000000000000e+00 +1.9999999957234291e+00 -1.1326825107676272e-04 +0.0000000000000000e+00 +9.9999999358515157e-01
2.1000000000000005e+00 +8.1528751216581963e+00 +0.0000000000000000e+00 +2.0999999950493358e+00 -1.1893165013134347e-04 +0.0000000000000000e+00 +9.9999999292763120e-01
2.2000000000000006e+00 +8.1528629453232639e+00 +0.0000000000000000e+00 +2.1999999943078863e+00 -1.2459504839784047e-04 +0.0000000000000000e+00 +9.9999999223803682e-01
2.3000000000000007e+00 +8.1528502026485405e+00 +0.0000000000000000e+00 +2.2999999934958737e+00 -1.3025844597266601e-04 +0.0000000000000000e+00 +9.9999999151636842e-01
2.4000000000000008e+00 +8.1528368936340900e+00 +0.0000000000000000e+00 +2.3999999926100908e+00 -1.3592184294750349e-04 +0.0000000000000000e+00 +9.9999999076262613e-01
2.5000000000000009e+00 +8.1528230182799675e+00 +0.0000000000000000e+00 +2.4999999916473299e+00 -1.4158523940930763e-04 +0.0000000000000000e+00 +9.9999998997680983e-01
2.6000000000000010e+00 +8.1528085765862226e+00 +0.0000000000000000e+00 +2.5999999906043838e+00 -1.4724863544030440e-04 +0.0000000000000000e+00 +9.9999998915891952e-01
2.7000000000000011e+00 +8.1527935685528927e+00 +0.0000000000000000e+00 +2.6999999894780449e+00 -1.5291203111799127e-04 +0.0000000000000000e+00 +9.9999998830895520e-01
2.8000000000000012e+00 +8.1527779941800098e+00 +0.0000000000000000e+00 +2.7999999882651059e+00 -1.5857542651513719e-04 +0.0000000000000000e+00 +9.9999998742691687e-01
2.9000000000000012e+00 +8.1527618534675970e+00 +0.0000000000000000e+00 +2.8999999869623592e+00 -1.6423882169978277e-04 +0.0000000000000000e+00 +9.9999998651280453e-01
3.0000000000000013e+00 +8.1527451464156737e+00 +0.0000000000000000e+00 +2.9999999855665975e+00 -1.6990221673524031e-04 +0.0000000000000000e+00 +9.9999998556661818e-01
3.1000000000000014e+00 +8.1527278730242525e+00 +0.0000000000000000e+00 +3.0999999840746137e+00 -1.7556561168009400e-04 +0.0000000000000000e+00 +9.9999998458835782e-01
3.2000000000000015e+00 +8.1527100332933387e+00 +0.0000000000000000e+00 +3.1999999824832002e+00 -1.8122900658820002e-04 +0.0000000000000000e+00 +9.9999998357802333e-01
3.3000000000000016e+00 +8.1526916272229339e+00 +0.0000000000000000e+00 +3.2999999807891491e+00 -1.8689240150868659e-04 +0.0000000000000000e+00 +9.9999998253561484e-01
3.4000000000000017e+00 +8.1526726548130348e+00 +0.0000000000000000e+00 +3.3999999789892539e+00 -1.9255579648595419e-04 +0.0000000000000000e+00 +9.9999998146113234e-01
3.5000000000000018e+00 +8.1526531160636342e+00 +0.0000000000000000e+00 +3.4999999770803067e+00 -1.9821919155967564e-04 +0.0000000000000000e+00 +9.9999998035457571e-01
3.6000000000000019e+00 +8.1526330109747196e+00 +0.0000000000000000e+00 +3.5999999750591001e+00 -2.0388258676479627e-04 +0.0000000000000000e+00 +9.9999997921594508e-01
3.7000000000000020e+00 +8.1526123395462768e+00 +0.0000000000000000e+00 +3.6999999729224267e+00 -2.0954598213153400e-04 +0.0000000000000000e+00 +9.9999997804524032e-01
3.8000000000000020e+00 +8.1525911017782882e+00 +0.0000000000000000e+00 +3.7999999706670788e+00 -2.1520937768537959e-04 +0.0000000000000000e+00 +9.9999997684246145e-01
3.9000000000000021e+00 +8.1525692976707340e+00 +0.0000000000000000e+00 +3.8999999682898494e+00 -2.2087277344709667e-04 +0.0000000000000000e+00 +9.9999997560760856e-01
4.0000000000000018e+00 +8.1525469272235913e+00 +0.0000000000000000e+00 +3.9999999657875311e+00 -2.2653616943272200e-04 +0.0000000000000000e+00 +9.9999997434068155e-01
4.1000000000000014e+00 +8.1525239904368387e+00 +0.0000000000000000e+00 +4.0999999631569164e+00 -2.3219956565392281e-04 +0.0000000000000000e+00 +9.9999997304168042e-01
4.2000000000000011e+00 +8.1525004873104514e+00 +0.0000000000000000e+00 +4.1999999603947984e+00 -2.3786296212192668e-04 +0.0000000000000000e+00 +9.9999997171060517e-01
4.3000000000000007e+00 +8.1524764178444045e+00 +0.0000000000000000e+00 +4.2999999574979686e+00 -2.4352635885145117e-04 +0.0000000000000000e+00 +9.9999997034745580e-01
4.4000000000000004e+00 +8.1524517820386713e+00 +0.0000000000000000e+00 +4.3999999544632207e+00 -2.4918975586106095e-04 +0.0000000000000000e+00 +9.9999996895223231e-01
4.5000000000000000e+00 +8.1524265798932216e+00 +0.0000000000000000e+00 +4.4999999512873465e+00 -2.5485315317316765e-04 +0.0000000000000000e+00 +9.9999996752493459e-01
4.5999999999999996e+00 +8.1524008114080253e+00 +0.0000000000000000e+00 +4.5999999479671390e+00 -2.6051655081402977e-04 +0.0000000000000000e+00 +9.9999996606556274e-01
4.6999999999999993e+00 +8.1523744765830468e+00 +0.0000000000000000e+00 +4.6999999444993898e+00 -2.6617994881375241e-04 +0.0000000000000000e+00 +9.9999996457411677e-01
4.7999999999999989e+00 +8.1523475754182488e+00 +0.0000000000000000e+00 +4.7999999408808929e+00 -2.7184334720628712e-04 +0.0000000000000000e+00 +9.9999996305059657e-01
4.8999999999999986e+00 +8.1523201079135905e+00 +0.0000000000000000e+00 +4.8999999371084400e+00 -2.7750674602943182e-04 +0.0000000000000000e+00 +9.9999996149500214e-01
4.9999999999999982e+00 +8.1522920740690274e+00 +0.0000000000000000e+00 +4.9999999331788239e+00 -2.8317014532483031e-04 +0.0000000000000000e+00 +9.9999995990733348e-01
5.0999999999999979e+00 +8.1522634738845081e+00 +0.0000000000000000e+00 +5.0999999290888374e+00 -2.8883354513797242e-04 +0.0000000000000000e+00 +9.9999995828759058e-01
5.1999999999999975e+00 +8.1522343073599810e+00 +0.0000000000000000e+00 +5.1999999248352733e+00 -2.9449694551819347e-04 +0.0000000000000000e+00 +9.9999995663577346e-01
5.2999999999999972e+00 +8.1522045744953839e+00 +0.0000000000000000e+00 +5.2999999204149235e+00 -3.0016034651867416e-04 +0.0000000000000000e+00 +9.9999995495188199e-01
5.3999999999999968e+00 +8.1521742752906547e+00 +0.0000000000000000e+00 +5.3999999158245808e+00 -3.0582374819644034e-04 +0.0000000000000000e+00 +9.9999995323591628e-01
5.4999999999999964e+00 +8.1521434097457206e+00 +0.0000000000000000e+00 +5.4999999110610380e+00 -3.1148715061236269e-04 +0.0000000000000000e+00 +9.9999995148787624e-01
5.5999999999999961e+00 +8.1521119778605051e+00 +0.0000000000000000e+00 +5.5999999061210870e+00 -3.1715055383115638e-04 +0.0000000000000000e+00 +9.9999994970776174e-01
5.6999999999999957e+00 +8.1520799796349248e+00 +0.0000000000000000e+00 +5.6999999010015214e+00 -3.2281395792138086e-04 +0.0000000000000000e+00 +9.9999994789557278e-01
5.7999999999999954e+00 +8.1520474150688891e+00 +0.0000000000000000e+00 +5.7999998956991332e+00 -3.2847736295543955e-04 +0.0000000000000000e+00 +9.9999994605130937e-01
5.8999999999999950e+00 +8.1520142841623002e+00 +0.0000000000000000e+00 +5.8999998902107142e+00 -3.3414076900957951e-04 +0.0000000000000000e+00 +9.9999994417497151e-01
5.9999999999999947e+00 +8.1519805869150517e+00 +0.0000000000000000e+00 +5.9999998845330582e+00 -3.3980417616389107e-04 +0.0000000000000000e+00 +9.9999994226655908e-01
6.0999999999999943e+00 +8.1519463233270280e+00 +0.0000000000000000e+00 +6.0999998786629570e+00 -3.4546758450224361e-04 +0.0000000000000000e+00 +9.9999994032607209e-01
6.1999999999999940e+00 +8.1519114933981083e+00 +0.0000000000000000e+00 +6.1999998725972034e+00 -3.5113099411158332e-04 +0.0000000000000000e+00 +9.9999993835351042e-01
6.2999999999999936e+00 +8.1518760971281612e+00 +0.0000000000000000e+00 +6.2999998663325902e+00 -3.5679440508123094e-04 +0.0000000000000000e+00 +9.9999993634887407e-01
6.3999999999999932e+00 +8.1518401345170446e+00 +0.0000000000000000e+00 +6.3999998598659094e+00 -3.6245781750281783e-04 +0.0000000000000000e+00 +9.9999993431216294e-01
6.4999999999999929e+00 +8.1518036055646093e+00 +0.0000000000000000e+00 +6.4999998531939536e+00 -3.6812123147028593e-04 +0.0000000000000000e+00 +9.9999993224337702e-01
6.5999999999999925e+00 +8.1517665102706953e+00 +0.0000000000000000e+00 +6.5999998463135157e+00 -3.7378464707988783e-04 +0.0000000000000000e+00 +9.9999993014251620e-01
6.6999999999999922e+00 +8.1517288486351340e+00 +0.0000000000000000e+00 +6.6999998392213875e+00 -3.7944806443018667e-04 +0.0000000000000000e+00 +9.9999992800958049e-01
6.7999999999999918e+00 +8.1516906206577477e+00 +0.0000000000000000e+00 +6.7999998319143620e+00 -3.8511148362205608e-04 +0.0000000000000000e+00 +9.9999992584456976e-01
6.8999999999999915e+00 +8.1516518263383446e+00 +0.0000000000000000e+00 +6.8999998243892318e+00 -3.9077490475868023e-04 +0.0000000000000000e+00 +9.9999992364748391e-01
6.9999999999999911e+00 +8.1516124656767275e+00 +0.0000000000000000e+00 +6.9999998166427897e+00 -3.9643832794555368e-04 +0.0000000000000000e+00 +9.9999992141832295e-01
7.0999999999999908e+00 +8.1515725386726849e+00 +0.0000000000000000e+00 +7.0999998086718277e+00 -4.0210175329048140e-04 +0.0000000000000000e+00 +9.9999991915708675e-01
7.1999999999999904e+00 +8.1515320453259950e+00 +0.0000000000000000e+00 +7.1999998004731385e+00 -4.0776518090357883e-04 +0.0000000000000000e+00 +9.9999991686377521e-01
7.2999999999999901e+00 +8.1514909856364248e+00 +0.0000000000000000e+00 +7.2999997920435140e+00 -4.1342861089727176e-04 +0.0000000000000000e+00 +9.9999991453838821e-01
7.3999999999999897e+00 +8.1514493596037312e+00 +0.0000000000000000e+00 +7.3999997833797471e+00 -4.1909204338629627e-04 +0.0000000000000000e+00 +9.9999991218092577e-01
7.4999999999999893e+00 +8.1514071672276600e+00 +0.0000000000000000e+00 +7.4999997744786304e+00 -4.2475547848769881e-04 +0.0000000000000000e+00 +9.9999990979138775e-01
7.5999999999999890e+00 +8.1513644085079431e+00 +0.0000000000000000e+00 +7.5999997653369560e+00 -4.3041891632083606e-04 +0.0000000000000000e+00 +9.9999990736977407e-01
7.6999999999999886e+00 +8.1513210834443015e+00 +0.0000000000000000e+00 +7.6999997559515165e+00 -4.3608235700737496e-04 +0.0000000000000000e+00 +9.9999990491608459e-01
7.7999999999999883e+00 +8.1512771920364422e+00 +0.0000000000000000e+00 +7.7999997463191040e+00 -4.4174580067129273e-04 +0.0000000000000000e+00 +9.9999990243031922e-01
7.8999999999999879e+00 +8.1512327342840631e+00 +0.0000000000000000e+00 +7.8999997364365111e+00 -4.4740924743887680e-04 +0.0000000000000000e+00 +9.9999989991247784e-01
7.9999999999999876e+00 +8.1511877101868464e+00 +0.0000000000000000e+00 +7.9999997263005307e+00 -4.5307269743872478e-04 +0.0000000000000000e+00 +9.9999989736256034e-01
8.0999999999999872e+00 +8.1511421197444633e+00 +0.0000000000000000e+00 +8.0999997159079538e+00 -4.5873615080116242e-04 +0.0000000000000000e+00 +9.9999989478056661e-01
8.1999999999999869e+00 +8.1510959629565711e+00 +0.0000000000000000e+00 +8.1999997052555749e+00 -4.6439960765184176e-04 +0.0000000000000000e+00 +9.9999989216649654e-01
8.2999999999999865e+00 +8.1510492398228145e+00 +0.0000000000000000e+00 +8.2999996943401850e+00 -4.7006306810533935e-04 +0.0000000000000000e+00 +9.9999988952035002e-01
8.3999999999999861e+00 +8.1510019503428275e+00 +0.0000000000000000e+00 +8.3999996831585761e+00 -4.7572653226457448e-04 +0.0000000000000000e+00 +9.9999988684212693e-01
8.4999999999999858e+00 +8.1509540945162353e+00 +0.0000000000000000e+00 +8.4999996717075419e+00 -4.8139000022080948e-04 +0.0000000000000000e+00 +9.9999988413182717e-01
8.5999999999999854e+00 +8.1509056723426543e+00 +0.0000000000000000e+00 +8.5999996599838724e+00 -4.8705347205365006e-04 +0.0000000000000000e+00 +9.9999988138945073e-01
8.6999999999999851e+00 +8.1508566838216936e+00 +0.0000000000000000e+00 +8.6999996479843613e+00 -4.9271694783104556e-04 +0.0000000000000000e+00 +9.9999987861499740e-01
8.7999999999999847e+00 +8.1508071289529553e+00 +0.0000000000000000e+00 +8.7999996357058023e+00 -4.9838042760928921e-04 +0.0000000000000000e+00 +9.9999987580846705e-01
8.8999999999999844e+00 +8.1507570077360363e+00 +0.0000000000000000e+00 +8.8999996231449856e+00 -5.0404391143301860e-04 +0.0000000000000000e+00 +9.9999987296985970e-01
8.9999999999999840e+00 +8.1507063201705314e+00 +0.0000000000000000e+00 +8.9999996102987048e+00 -5.0970739933521602e-04 +0.0000000000000000e+00 +9.9999987009917524e-01
9.0999999999999837e+00 +8.1506550662560322e+00 +0.0000000000000000e+00 +9.0999995971637517e+00 -5.1537089133720849e-04 +0.0000000000000000e+00 +9.9999986719641354e-01
9.1999999999999833e+00 +8.1506032459921265e+00 +0.0000000000000000e+00 +9.1999995837369184e+00 -5.2103438744866850e-04 +0.0000000000000000e+00 +9.9999986426157450e-01
9.2999999999999829e+00 +8.1505508593784057e+00 +0.0000000000000000e+00 +9.2999995700149967e+00 -5.2669788766761423e-04 +0.0000000000000000e+00 +9.9999986129465812e-01
9.3999999999999826e+00 +8.1504979064144578e+00 +0.0000000000000000e+00 +9.3999995559947802e+00 -5.3236139198040990e-04 +0.0000000000000000e+00 +9.9999985829566429e-01
9.4999999999999822e+00 +8.1504443870998742e+00 +0.0000000000000000e+00 +9.4999995416730609e+00 -5.3802490036176617e-04 +0.0000000000000000e+00 +9.9999985526459301e-01
9.5999999999999819e+00 +8.1503903014342516e+00 +0.0000000000000000e+00 +9.5999995270466307e+00 -5.4368841277474035e-04 +0.0000000000000000e+00 +9.9999985220144416e-01
9.6999999999999815e+00 +8.1503356494171868e+00 +0.0000000000000000e+00 +9.6999995121122815e+00 -5.4935192917073721e-04 +0.0000000000000000e+00 +9.9999984910621775e-01
9.7999999999999812e+00 +8.1502804310482855e+00 +0.0000000000000000e+00 +9.7999994968668052e+00 -5.5501544948950905e-04 +0.0000000000000000e+00 +9.9999984597891378e-01
9.8999999999999808e+00 +8.1502246463271604e+00 +0.0000000000000000e+00 +9.8999994813069954e+00 -5.6067897365915623e-04 +0.0000000000000000e+00 +9.9999984281953214e-01
9.9999999999999805e+00 +8.1501682952534278e+00 +0.0000000000000000e+00 +9.9999994654296422e+00 -5.6634250159612765e-04 +0.0000000000000000e+00 +9.9999983962807282e-01
1.0099999999999980e+01 +8.1501113778267182e+00 +0.0000000000000000e+00 +1.0099999449231539e+01 -5.7200603320591698e-04 +0.0000000000000000e+00 +9.9999983640453582e-01
1.0199999999999980e+01 +8.1500538940466676e+00 +0.0000000000000000e+00 +1.0199999432709479e+01 -5.7766956839071834e-04 +0.0000000000000000e+00 +9.9999983314892116e-01
1.0299999999999979e+01 +8.1499958439129241e+00 +0.0000000000000000e+00 +1.0299999415860254e+01 -5.8333310705708131e-04 +0.0000000000000000e+00 +9.9999982986122882e-01
1.0399999999999979e+01 +8.1499372274251431e+00 +0.0000000000000000e+00 +1.0399999398680656e+01 -5.8899664911660644e-04 +0.0000000000000000e+00 +9.9999982654145880e-01
1.0499999999999979e+01 +8.1498780445829908e+00 +0.0000000000000000e+00 +1.0499999381167477e+01 -5.9466019448594439e-04 +0.0000000000000000e+00 +9.9999982318961111e-01
1.0599999999999978e+01 +8.1498182953861384e+00 +0.0000000000000000e+00 +1.0599999363317510e+01 -6.0032374308679548e-04 +0.0000000000000000e+00 +9.9999981980568575e-01
1.0699999999999978e+01 +8.1497579798342681e+00 +0.0000000000000000e+00 +1.0699999345127546e+01 -6.0598729484590919e-04 +0.0000000000000000e+00 +9.9999981638968261e-01
1.0799999999999978e+01 +8.1496970979270671e+00 +0.0000000000000000e+00 +1.0799999326594378e+01 -6.1165084969508311e-04 +0.0000000000000000e+00 +9.9999981294160178e-01
1.0899999999999977e+01 +8.1496356496642282e+00 +0.0000000000000000e+00 +1.0899999307714797e+01 -6.1731440757116247e-04 +0.0000000000000000e+00 +9.9999980946144318e-01
1.0999999999999977e+01 +8.1495736350454528e+00 +0.0000000000000000e+00 +1.0999999288485597e+01 -6.2297796841603956e-04 +0.0000000000000000e+00 +9.9999980594920679e-01
1.1099999999999977e+01 +8.1495110540704481e+00 +0.0000000000000000e+00 +1.1099999268903570e+01 -6.2864153217665299e-04 +0.0000000000000000e+00 +9.9999980240489272e-01
1.1199999999999976e+01 +8.1494479067389225e+00 +0.0000000000000000e+00 +1.1199999248965508e+01 -6.3430509880498670e-04 +0.0000000000000000e+00 +9.9999979882850076e-01
1.1299999999999976e+01 +8.1493841930505919e+00 +0.0000000000000000e+00 +1.1299999228668202e+01 -6.3996866825806952e-04 +0.0000000000000000e+00 +9.9999979522003102e-01
1.1399999999999975e+01 +8.1493199130051774e+00 +0.0000000000000000e+00 +1.1399999208008445e+01 -6.4563224049797433e-04 +0.0000000000000000e+00 +9.9999979157948349e-01
1.1499999999999975e+01 +8.1492550666024002e+00 +0.0000000000000000e+00 +1.1499999186983029e+01 -6.5129581549181717e-04 +0.0000000000000000e+00 +9.9999978790685806e-01
1.1599999999999975e+01 +8.1491896538419883e+00 +0.0000000000000000e+00 +1.1599999165588747e+01 -6.5695939321175681e-04 +0.0000000000000000e+00 +9.9999978420215474e-01
1.1699999999999974e+01 +8.1491236747236684e+00 +0.0000000000000000e+00 +1.1699999143822390e+01 -6.6262297363499335e-04 +0.0000000000000000e+00 +9.9999978046537352e-01
1.1799999999999974e+01 +8.1490571292471721e+00 +0.0000000000000000e+00 +1.1799999121680752e+01 -6.6828655674376798e-04 +0.0000000000000000e+00 +9.9999977669651430e-01
