# field on trajectory
# s[mm] rx[mm] ry[mm] rz[mm] bx[T] by[T] bz[T]
0.0000000000000000e+00 +8.1530000000000094e+00 +0.0000000000000000e+00 +0.0000000000000000e+00 -2.9138874324642551e-02 -5.6517688363931784e-01 +5.7567306291140983e-03
1.0000000000000001e-01 +8.1529997163925092e+00 +0.0000000000000000e+00 +9.9999999999463796e-02 -2.9138785572176695e-02 -5.6517694008940278e-01 +5.7567155987234423e-03
2.0000000000000001e-01 +8.1529988655711296e+00 +0.0000000000000000e+00 +1.9999999999571000e-01 -2.9138708590456187e-02 -5.6517701402104770e-01 +5.7567023936511462e-03
2.9999999999999999e-01 +8.1529974475415692e+00 +0.0000000000000000e+00 +2.9999999998552201e-01 -2.9138642750937461e-02 -5.6517710473702809e-01 +5.7566909258829147e-03
4.0000000000000002e-01 +8.1529954622965306e+00 +0.0000000000000000e+00 +3.9999999996568197e-01 -2.9138587425095213e-02 -5.6517721154022960e-01 +5.7566811074066734e-03
5.0000000000000000e-01 +8.1529929098396696e+00 +0.0000000000000000e+00 +4.9999999993297300e-01 -2.9138541984410134e-02 -5.6517733373346235e-01 +5.7566728502102781e-03
5.9999999999999998e-01 +8.1529897901673394e+00 +0.0000000000000000e+00 +5.9999999988417696e-01 -2.9138505800374605e-02 -5.6517747061960422e-01 +5.7566660662826483e-03
6.9999999999999996e-01 +8.1529861032831796e+00 +0.0000000000000000e+00 +6.9999999981607697e-01 -2.9138478244484515e-02 -5.6517762150148909e-01 +5.7566606676122496e-03
8.0000000000000004e-01 +8.1529818491871993e+00 +0.0000000000000000e+00 +7.9999999972545699e-01 -2.9138458688241813e-02 -5.6517778568199173e-01 +5.7566565661876191e-03
9.0000000000000002e-01 +8.1529770278793894e+00 +0.0000000000000000e+00 +8.9999999960909804e-01 -2.9138446503150922e-02 -5.6517796246400198e-01 +5.7566536739967469e-03
1.0000000000000000e+00 +8.1529716393597500e+00 +0.0000000000000000e+00 +9.9999999946378304e-01 -2.9138441060716707e-02 -5.6517815115042513e-01 +5.7566519030267183e-03
1.1000000000000001e+00 +8.1529656836210105e+00 +0.0000000000000000e+00 +1.0999999992862901e+00 -2.9138441732445536e-02 -5.6517835104423986e-01 +5.7566511652639655e-03
1.2000000000000000e+00 +8.1529591606740706e+00 +0.0000000000000000e+00 +1.1999999990734200e+00 -2.9138447889832383e-02 -5.6517856144830225e-01 +5.7566513726918685e-03
1.3000000000000000e+00 +8.1529520705153100e+00 +0.0000000000000000e+00 +1.2999999988219300e+00 -2.9138458904372729e-02 -5.6517878166560021e-01 +5.7566524372930413e-03
1.3999999999999999e+00 +8.1529444131410909e+00 +0.0000000000000000e+00 +1.3999999985286200e+00 -2.9138474147554303e-02 -5.6517901099914192e-01 +5.7566542710478352e-03
1.5000000000000000e+00 +8.1529361885550298e+00 +0.0000000000000000e+00 +1.4999999981902701e+00 -2.9138492990851996e-02 -5.6517924875190140e-01 +5.7566567859333919e-03
1.6000000000000001e+00 +8.1529273967571498e+00 +0.0000000000000000e+00 +1.5999999978036501e+00 -2.9138514805730365e-02 -5.6517949422690317e-01 +5.7566598939241855e-03
1.7000000000000000e+00 +8.1529180377474404e+00 +0.0000000000000000e+00 +1.6999999973655600e+00 -2.9138538963640177e-02 -5.6517974672719584e-01 +5.7566635069913885e-03
1.8000000000000000e+00 +8.1529081115222706e+00 +0.0000000000000000e+00 +1.7999999968727800e+00 -2.9138564836017785e-02 -5.6518000555588177e-01 +5.7566675371028171e-03
1.8999999999999999e+00 +8.1528976180852606e+00 +0.0000000000000000e+00 +1.8999999963220899e+00 -2.9138591794278527e-02 -5.6518027001603366e-01 +5.7566718962217137e-03
2.0000000000000000e+00 +8.1528865574327902e+00 +0.0000000000000000e+00 +1.9999999957102601e+00 -2.9138619209820804e-02 -5.6518053941080781e-01 +5.7566764963075719e-03
2.1000000000000001e+00 +8.1528749295721408e+00 +0.0000000000000000e+00 +2.0999999950340902e+00 -2.9138646527589865e-02 -5.6518081309003532e-01 +5.7566812768160940e-03
2.2000000000000002e+00 +8.1528627344960096e+00 +0.0000000000000000e+00 +2.1999999942903599e+00 -2.9138673486819960e-02 -5.6518109059060229e-01 +5.7566862872076617e-03
2.2999999999999998e+00 +8.1528499722080596e+00 +0.0000000000000000e+00 +2.2999999934758399e+00 -2.9138699900325506e-02 -5.6518137149603076e-01 +5.7566916044422805e-03
2.3999999999999999e+00 +8.1528366427046404e+00 +0.0000000000000000e+00 +2.3999999925873299e+00 -2.9138725580940709e-02 -5.6518165538988241e-01 +5.7566973054797438e-03
2.5000000000000000e+00 +8.1528227459894005e+00 +0.0000000000000000e+00 +2.4999999916215998e+00 -2.9138750341515800e-02 -5.6518194185564241e-01 +5.7567034672785988e-03
2.6000000000000001e+00 +8.1528082820659602e+00 +0.0000000000000000e+00 +2.5999999905754398e+00 -2.9138773994922651e-02 -5.6518223047677196e-01 +5.7567101667969009e-03
2.7000000000000002e+00 +8.1527932509234198e+00 +0.0000000000000000e+00 +2.6999999894456299e+00 -2.9138796354063343e-02 -5.6518252083681619e-01 +5.7567174809935139e-03
2.7999999999999998e+00 +8.1527776525726896e+00 +0.0000000000000000e+00 +2.7999999882289601e+00 -2.9138817231857149e-02 -5.6518281251912017e-01 +5.7567254868253316e-03
2.8999999999999999e+00 +8.1527614870065008e+00 +0.0000000000000000e+00 +2.8999999869222002e+00 -2.9138836441259988e-02 -5.6518310510713410e-01 +5.7567342612506543e-03
3.0000000000000000e+00 +8.1527447542284808e+00 +0.0000000000000000e+00 +2.9999999855221300e+00 -2.9138853795254563e-02 -5.6518339818418473e-01 +5.7567438812269871e-03
3.1000000000000001e+00 +8.1527274542386294e+00 +0.0000000000000000e+00 +3.0999999840255499e+00 -2.9138869106858901e-02 -5.6518369133358426e-01 +5.7567544237123562e-03
3.2000000000000002e+00 +8.1527095870333106e+00 +0.0000000000000000e+00 +3.1999999824292300e+00 -2.9138882189128867e-02 -5.6518398413862636e-01 +5.7567659656654734e-03
3.2999999999999998e+00 +8.1526911526198091e+00 +0.0000000000000000e+00 +3.2999999807299600e+00 -2.9138892855154357e-02 -5.6518427618246925e-01 +5.7567785840446787e-03
3.3999999999999999e+00 +8.1526721509872004e+00 +0.0000000000000000e+00 +3.3999999789245101e+00 -2.9138900918074209e-02 -5.6518456704835951e-01 +5.7567923558104681e-03
3.5000000000000000e+00 +8.1526525821464002e+00 +0.0000000000000000e+00 +3.4999999770096801e+00 -2.9138906191061551e-02 -5.6518485631931537e-01 +5.7568073579223880e-03
3.6000000000000001e+00 +8.1526324460901396e+00 +0.0000000000000000e+00 +3.5999999749822500e+00 -2.9138908487343303e-02 -5.6518514357843519e-01 +5.7568236673424273e-03
3.7000000000000002e+00 +8.1526117428220495e+00 +0.0000000000000000e+00 +3.6999999728389801e+00 -2.9138907620190242e-02 -5.6518542840866759e-01 +5.7568413610328091e-03
3.7999999999999998e+00 +8.1525904723421299e+00 +0.0000000000000000e+00 +3.7999999705766800e+00 -2.9138903402925659e-02 -5.6518571039292054e-01 +5.7568605159573072e-03
3.8999999999999999e+00 +8.1525686346503807e+00 +0.0000000000000000e+00 +3.8999999681921298e+00 -2.9138895648926213e-02 -5.6518598911402929e-01 +5.7568812090811111e-03
4.0000000000000000e+00 +8.1525462297431694e+00 +0.0000000000000000e+00 +3.9999999656820902e+00 -2.9138884171625960e-02 -5.6518626415478013e-01 +5.7569035173712611e-03
4.0999999999999996e+00 +8.1525232576241304e+00 +0.0000000000000000e+00 +4.0999999630433699e+00 -2.9138868882840584e-02 -5.6518653524766815e-01 +5.7569274748888091e-03
4.2000000000000002e+00 +8.1524997182896204e+00 +0.0000000000000000e+00 +4.1999999602727298e+00 -2.9138850087718320e-02 -5.6518680272456556e-01 +5.7569529440683765e-03
4.2999999999999998e+00 +8.1524756117469206e+00 +0.0000000000000000e+00 +4.2999999573669703e+00 -2.9138828189686869e-02 -5.6518706706710697e-01 +5.7569797444377265e-03
4.4000000000000004e+00 +8.1524509379887604e+00 +0.0000000000000000e+00 +4.3999999543228601e+00 -2.9138803592124229e-02 -5.6518732875704825e-01 +5.7570076955270350e-03
4.5000000000000000e+00 +8.1524256970187707e+00 +0.0000000000000000e+00 +4.4999999511372000e+00 -2.9138776698343631e-02 -5.6518758827607340e-01 +5.7570366168669361e-03
4.5999999999999996e+00 +8.1523998888369498e+00 +0.0000000000000000e+00 +4.5999999478067499e+00 -2.9138747911595392e-02 -5.6518784610590944e-01 +5.7570663279897941e-03
4.7000000000000002e+00 +8.1523735134396702e+00 +0.0000000000000000e+00 +4.6999999443283098e+00 -2.9138717635062601e-02 -5.6518810272832709e-01 +5.7570966484297940e-03
4.7999999999999998e+00 +8.1523465708305594e+00 +0.0000000000000000e+00 +4.7999999406986600e+00 -2.9138686271852211e-02 -5.6518835862505901e-01 +5.7571273977221702e-03
4.9000000000000004e+00 +8.1523190610096208e+00 +0.0000000000000000e+00 +4.8999999369145701e+00 -2.9138654224995331e-02 -5.6518861427788503e-01 +5.7571583954041643e-03
5.0000000000000000e+00 +8.1522909839768491e+00 +0.0000000000000000e+00 +4.9999999329728402e+00 -2.9138621897441385e-02 -5.6518887016860808e-01 +5.7571894610148524e-03
5.0999999999999996e+00 +8.1522623397286207e+00 +0.0000000000000000e+00 +5.0999999288702398e+00 -2.9138589692055367e-02 -5.6518912677908184e-01 +5.7572204140955109e-03
5.2000000000000002e+00 +8.1522331282685592e+00 +0.0000000000000000e+00 +5.1999999246035600e+00 -2.9138558011608907e-02 -5.6518938459113022e-01 +5.7572510741888613e-03
5.2999999999999998e+00 +8.1522033495966806e+00 +0.0000000000000000e+00 +5.2999999201695802e+00 -2.9138527258780543e-02 -5.6518964408663275e-01 +5.7572812608400201e-03
5.4000000000000004e+00 +8.1521730037093203e+00 +0.0000000000000000e+00 +5.3999999155650800e+00 -2.9138497836151505e-02 -5.6518990574752559e-01 +5.7573107935966110e-03
5.5000000000000000e+00 +8.1521420906137791e+00 +0.0000000000000000e+00 +5.4999999107868396e+00 -2.9138470146195129e-02 -5.6519017005569328e-01 +5.7573394920076874e-03
5.5999999999999996e+00 +8.1521106102991308e+00 +0.0000000000000000e+00 +5.5999999058316599e+00 -2.9138444591285007e-02 -5.6519043749319364e-01 +5.7573671756261779e-03
5.7000000000000002e+00 +8.1520785627762997e+00 +0.0000000000000000e+00 +5.6999999006963096e+00 -2.9138421573673596e-02 -5.6519070854195064e-01 +5.7573936640057414e-03
5.7999999999999998e+00 +8.1520459480379905e+00 +0.0000000000000000e+00 +5.7999998953775700e+00 -2.9138401495504968e-02 -5.6519098368406673e-01 +5.7574187767041171e-03
5.9000000000000004e+00 +8.1520127660915005e+00 +0.0000000000000000e+00 +5.8999998898722197e+00 -2.9138384758796529e-02 -5.6519126340157022e-01 +5.7574423332805514e-03
5.9999999999999902e+00 +8.1519790169259103e+00 +0.0000000000000000e+00 +5.9999998841770603e+00 -2.9138371765448739e-02 -5.6519154817667194e-01 +5.7574641532985730e-03
6.0999999999999899e+00 +8.1519447005521197e+00 +0.0000000000000000e+00 +6.0999998782888598e+00 -2.9138362830927193e-02 -5.6519183847375476e-01 +5.7574840962724494e-03
6.1999999999999904e+00 +8.1519098169665103e+00 +0.0000000000000000e+00 +6.1999998722044003e+00 -2.9138357925446896e-02 -5.6519213468655927e-01 +5.7575021815193259e-03
6.2999999999999901e+00 +8.1518743661654298e+00 +0.0000000000000000e+00 +6.2999998659204701e+00 -2.9138356932966226e-02 -5.6519243719117884e-01 +5.7575184683082443e-03
6.3999999999999897e+00 +8.1518383481488907e+00 +0.0000000000000000e+00 +6.3999998594338496e+00 -2.9138359737501496e-02 -5.6519274636373540e-01 +5.7575330159099006e-03
6.4999999999999902e+00 +8.1518017629241495e+00 +0.0000000000000000e+00 +6.4999998527413201e+00 -2.9138366223128702e-02 -5.6519306258035451e-01 +5.7575458835963933e-03
6.5999999999999899e+00 +8.1517646104839496e+00 +0.0000000000000000e+00 +6.5999998458396698e+00 -2.9138376273996392e-02 -5.6519338621733628e-01 +5.7575571306430484e-03
6.6999999999999904e+00 +8.1517268908319203e+00 +0.0000000000000000e+00 +6.6999998387256703e+00 -2.9138389774318176e-02 -5.6519371765095960e-01 +5.7575668163264053e-03
6.7999999999999901e+00 +8.1516886039680703e+00 +0.0000000000000000e+00 +6.7999998313961196e+00 -2.9138406608382388e-02 -5.6519405725759786e-01 +5.7575749999254416e-03
6.8999999999999897e+00 +8.1516497498923908e+00 +0.0000000000000000e+00 +6.8999998238477902e+00 -2.9138426660553992e-02 -5.6519440541369304e-01 +5.7575817407213405e-03
6.9999999999999902e+00 +8.1516103286012402e+00 +0.0000000000000000e+00 +6.9999998160774597e+00 -2.9138449815279559e-02 -5.6519476249578615e-01 +5.7575870979978258e-03
7.0999999999999899e+00 +8.1515703400982602e+00 +0.0000000000000000e+00 +7.0999998080819298e+00 -2.9138475957086043e-02 -5.6519512888043399e-01 +5.7575911310403256e-03
7.1999999999999904e+00 +8.1515297843834595e+00 +0.0000000000000000e+00 +7.1999997998579603e+00 -2.9138504970588872e-02 -5.6519550494429682e-01 +5.7575938991369221e-03
7.2999999999999901e+00 +8.1514886614531896e+00 +0.0000000000000000e+00 +7.2999997914023496e+00 -2.9138536740495446e-02 -5.6519589106414159e-01 +5.7575954615783935e-03
7.3999999999999897e+00 +8.1514469713147300e+00 +0.0000000000000000e+00 +7.3999997827118804e+00 -2.9138571151602299e-02 -5.6519628761672835e-01 +5.7575958776570823e-03
7.4999999999999902e+00 +8.1514047139571595e+00 +0.0000000000000000e+00 +7.4999997737833199e+00 -2.9138608088810979e-02 -5.6519669497904157e-01 +5.7575952066693135e-03
7.5999999999999899e+00 +8.1513618893914099e+00 +0.0000000000000000e+00 +7.5999997646134698e+00 -2.9138647437114421e-02 -5.6519711352798019e-01 +5.7575935079121959e-03
7.6999999999999904e+00 +8.1513184976138309e+00 +0.0000000000000000e+00 +7.6999997551991104e+00 -2.9138689081615928e-02 -5.6519754364064168e-01 +5.7575908406866322e-03
7.7999999999999901e+00 +8.1512745386207808e+00 +0.0000000000000000e+00 +7.7999997455370096e+00 -2.9138732907526360e-02 -5.6519798569421309e-01 +5.7575872642961759e-03
7.8999999999999897e+00 +8.1512300124159101e+00 +0.0000000000000000e+00 +7.8999997356239602e+00 -2.9138778800164494e-02 -5.6519844006591480e-01 +5.7575828380465113e-03
7.9999999999999902e+00 +8.1511849189955701e+00 +0.0000000000000000e+00 +7.9999997254567399e+00 -2.9138826644966663e-02 -5.6519890713311749e-01 +5.7575776212466625e-03
8.0999999999999908e+00 +8.1511392583670403e+00 +0.0000000000000000e+00 +8.0999997150321406e+00 -2.9138876330585466e-02 -5.6519938702792594e-01 +5.7575716903130346e-03
8.1999999999999904e+00 +8.1510930305230396e+00 +0.0000000000000000e+00 +8.1999997043469399e+00 -2.9138927758172357e-02 -5.6519987890148127e-01 +5.7575651900851768e-03
8.2999999999999901e+00 +8.1510462354672200e+00 +0.0000000000000000e+00 +8.2999996933979094e+00 -2.9138980831988088e-02 -5.6520038165948328e-01 +5.7575582825014366e-03
8.3999999999999897e+00 +8.1509988731995708e+00 +0.0000000000000000e+00 +8.3999996821818605e+00 -2.9139035456295651e-02 -5.6520089420756625e-01 +5.7575511294933948e-03
8.4999999999999893e+00 +8.1509509437164507e+00 +0.0000000000000000e+00 +8.4999996706955496e+00 -2.9139091535359818e-02 -5.6520141545129465e-01 +5.7575438929855990e-03
8.5999999999999908e+00 +8.1509024470215099e+00 +0.0000000000000000e+00 +8.5999996589357703e+00 -2.9139148973442348e-02 -5.6520194429607518e-01 +5.7575367348944584e-03
8.6999999999999904e+00 +8.1508533831147396e+00 +0.0000000000000000e+00 +8.6999996468993004e+00 -2.9139207674806222e-02 -5.6520247964723735e-01 +5.7575298171288532e-03
8.7999999999999794e+00 +8.1508037519961398e+00 +0.0000000000000000e+00 +8.7999996345829192e+00 -2.9139267543713775e-02 -5.6520302041000259e-01 +5.7575233015896123e-03
8.8999999999999808e+00 +8.1507535536620708e+00 +0.0000000000000000e+00 +8.8999996219834205e+00 -2.9139328484428056e-02 -5.6520356548950801e-01 +5.7575173501695550e-03
8.9999999999999805e+00 +8.1507027881161793e+00 +0.0000000000000000e+00 +8.9999996090975891e+00 -2.9139390401207721e-02 -5.6520411379071911e-01 +5.7575121247523571e-03
9.0999999999999801e+00 +8.1506514553584601e+00 +0.0000000000000000e+00 +9.0999995959221902e+00 -2.9139453198311512e-02 -5.6520466421851023e-01 +5.7575077872131820e-03
9.1999999999999797e+00 +8.1505995553889097e+00 +0.0000000000000000e+00 +9.1999995824540193e+00 -2.9139516779996301e-02 -5.6520521567763349e-01 +5.7575044994181545e-03
9.2999999999999794e+00 +8.1505470882038900e+00 +0.0000000000000000e+00 +9.2999995686898593e+00 -2.9139581050518427e-02 -5.6520576707274239e-01 +5.7575024232243881e-03
9.3999999999999808e+00 +8.1504940538070496e+00 +0.0000000000000000e+00 +9.3999995546264898e+00 -2.9139645914128647e-02 -5.6520631730830462e-01 +5.7575017204788666e-03
9.4999999999999805e+00 +8.1504404521983798e+00 +0.0000000000000000e+00 +9.4999995402606903e+00 -2.9139711275076561e-02 -5.6520686528868280e-01 +5.7575025530190683e-03
9.5999999999999801e+00 +8.1503862833778804e+00 +0.0000000000000000e+00 +9.5999995255892507e+00 -2.9139777037608727e-02 -5.6520740991810337e-01 +5.7575050826724336e-03
9.6999999999999797e+00 +8.1503315473419207e+00 +0.0000000000000000e+00 +9.6999995106089507e+00 -2.9139843105969898e-02 -5.6520795010067981e-01 +5.7575094712564003e-03
9.7999999999999794e+00 +8.1502762440941297e+00 +0.0000000000000000e+00 +9.7999994953165697e+00 -2.9139909384398102e-02 -5.6520848474032581e-01 +5.7575158805772790e-03
9.8999999999999808e+00 +8.1502203736345091e+00 +0.0000000000000000e+00 +9.8999994797088906e+00 -2.9139975777128953e-02 -5.6520901274083613e-01 +5.7575244724308817e-03
9.9999999999999805e+00 +8.1501639359594300e+00 +0.0000000000000000e+00 +9.9999994637827001e+00 -2.9140042188395381e-02 -5.6520953300588250e-01 +5.7575354086022721e-03
1.0100000000000000e+01 +8.1501069310761505e+00 +0.0000000000000000e+00 +1.0099999447534801e+01 -2.9140108453589355e-02 -5.6521004477943093e-01 +5.7575487992397069e-03
1.0199999999999999e+01 +8.1500493589774106e+00 +0.0000000000000000e+00 +1.0199999430961901e+01 -2.9140174132763111e-02 -5.6521054866762244e-01 +5.7575645479859246e-03
1.0300000000000001e+01 +8.1499912196668394e+00 +0.0000000000000000e+00 +1.0299999414060901e+01 -2.9140238717098709e-02 -5.6521104561708047e-01 +5.7575825068633428e-03
1.0400000000000000e+01 +8.1499325131444493e+00 +0.0000000000000000e+00 +1.0399999396828500e+01 -2.9140301697744835e-02 -5.6521153657449730e-01 +5.7576025279034342e-03
1.0500000000000000e+01 +8.1498732394065900e+00 +0.0000000000000000e+00 +1.0499999379261400e+01 -2.9140362565815786e-02 -5.6521202248663560e-01 +5.7576244631469794e-03
1.0600000000000000e+01 +8.1498133984568994e+00 +0.0000000000000000e+00 +1.0599999361356600e+01 -2.9140420812385794e-02 -5.6521250430024450e-01 +5.7576481646434297e-03
1.0699999999999999e+01 +8.1497529902953794e+00 +0.0000000000000000e+00 +1.0699999343110701e+01 -2.9140475928492695e-02 -5.6521298296214684e-01 +5.7576734844520449e-03
1.0800000000000001e+01 +8.1496920149220404e+00 +0.0000000000000000e+00 +1.0799999324520600e+01 -2.9140527405135331e-02 -5.6521345941921064e-01 +5.7577002746418398e-03
1.0900000000000000e+01 +8.1496304723332305e+00 +0.0000000000000000e+00 +1.0899999305583000e+01 -2.9140574733274142e-02 -5.6521393461838021e-01 +5.7577283872921490e-03
1.1000000000000000e+01 +8.1495683625325892e+00 +0.0000000000000000e+00 +1.0999999286294800e+01 -2.9140617403825404e-02 -5.6521440950659219e-01 +5.7577576744919732e-03
1.1100000000000000e+01 +8.1495056855201309e+00 +0.0000000000000000e+00 +1.1099999266652601e+01 -2.9140654907664976e-02 -5.6521488503086148e-01 +5.7577879883411237e-03
1.1199999999999999e+01 +8.1494424412958306e+00 +0.0000000000000000e+00 +1.1199999246653300e+01 -2.9140686735625629e-02 -5.6521536213825441e-01 +5.7578191809501775e-03
1.1300000000000001e+01 +8.1493786298560700e+00 +0.0000000000000000e+00 +1.1299999226293700e+01 -2.9140712378497680e-02 -5.6521584177591810e-01 +5.7578511044410231e-03
1.1400000000000000e+01 +8.1493142512044905e+00 +0.0000000000000000e+00 +1.1399999205570500e+01 -2.9140731327023234e-02 -5.6521632489099827e-01 +5.7578836109462303e-03
1.1500000000000000e+01 +8.1492493053447106e+00 +0.0000000000000000e+00 +1.1499999184480499e+01 -2.9140743071898345e-02 -5.6521681243069499e-01 +5.7579165526098841e-03
1.1600000000000000e+01 +8.1491837922658306e+00 +0.0000000000000000e+00 +1.1599999163020600e+01 -2.9140747103778151e-02 -5.6521730534237935e-01 +5.7579497815890227e-03
1.1699999999999999e+01 +8.1491177119787608e+00 +0.0000000000000000e+00 +1.1699999141187400e+01 -2.9140742913260367e-02 -5.6521780457331072e-01 +5.7579831500509373e-03
1.1800000000000001e+01 +8.1490510644762306e+00 +0.0000000000000000e+00 +1.1799999118977800e+01 -2.9140729990901323e-02 -5.6521831107094900e-01 +5.7580165101766608e-03
