# field on trajectory
# s[mm] rx[mm] ry[mm] rz[mm] bx[T] by[T] bz[T]
0.0000000000000000e+00 +8.1530000000000005e+00 +0.0000000000000000e+00 +0.0000000000000000e+00 -2.8426467536417727e-02 -5.3671248013329498e-01 +5.3509722724512940e-03
1.0000000000000001e-01 +8.1529997163961507e+00 +0.0000000000000000e+00 +9.9999999999463796e-02 -2.8426396519943532e-02 -5.3671226588785981e-01 +5.3509128413914550e-03
2.0000000000000001e-01 +8.1529988655856904e+00 +0.0000000000000000e+00 +1.9999999999571000e-01 -2.8426329769478405e-02 -5.3671205532389554e-01 +5.3508555432531047e-03
2.9999999999999999e-01 +8.1529974475670297e+00 +0.0000000000000000e+00 +2.9999999998552201e-01 -2.8426267488044860e-02 -5.3671184900927338e-01 +5.3508003025762212e-03
4.0000000000000002e-01 +8.1529954623438208e+00 +0.0000000000000000e+00 +3.9999999996568297e-01 -2.8426209878662539e-02 -5.3671164751182554e-01 +5.3507470439006308e-03
5.0000000000000000e-01 +8.1529929099124292e+00 +0.0000000000000000e+00 +4.9999999993297400e-01 -2.8426157144354723e-02 -5.3671145139943965e-01 +5.3506956917666812e-03
5.9999999999999998e-01 +8.1529897902728408e+00 +0.0000000000000000e+00 +5.9999999988417896e-01 -2.8426109488145338e-02 -5.3671126123997503e-01 +5.3506461707142107e-03
6.9999999999999996e-01 +8.1529861034287006e+00 +0.0000000000000000e+00 +6.9999999981608096e-01 -2.8426067113060265e-02 -5.3671107760126524e-01 +5.3505984052823067e-03
8.0000000000000004e-01 +8.1529818493763706e+00 +0.0000000000000000e+00 +7.9999999972546199e-01 -2.8426030222133310e-02 -5.3671090105119668e-01 +5.3505523200098734e-03
9.0000000000000002e-01 +8.1529770281158598e+00 +0.0000000000000000e+00 +8.9999999960910604e-01 -2.8425999018403075e-02 -5.3671073215762899e-01 +5.3505078394345956e-03
1.0000000000000000e+00 +8.1529716396507901e+00 +0.0000000000000000e+00 +9.9999999946379403e-01 -2.8425973704914401e-02 -5.3671057148839363e-01 +5.3504648880926984e-03
1.1000000000000001e+00 +8.1529656839775306e+00 +0.0000000000000000e+00 +1.0999999992863101e+00 -2.8425954484724212e-02 -5.3671041961137578e-01 +5.3504233905195160e-03
1.2000000000000000e+00 +8.1529591610960797e+00 +0.0000000000000000e+00 +1.1999999990734400e+00 -2.8425941560898480e-02 -5.3671027709443242e-01 +5.3503832712484484e-03
1.3000000000000000e+00 +8.1529520710100805e+00 +0.0000000000000000e+00 +1.2999999988219599e+00 -2.8425935136513630e-02 -5.3671014450539312e-01 +5.3503444548107367e-03
1.3999999999999999e+00 +8.1529444137122500e+00 +0.0000000000000000e+00 +1.3999999985286500e+00 -2.8425935414663896e-02 -5.3671002241216648e-01 +5.3503068657362856e-03
1.5000000000000000e+00 +8.1529361892135093e+00 +0.0000000000000000e+00 +1.4999999981903001e+00 -2.8425942598450816e-02 -5.3670991138252599e-01 +5.3502704285512855e-03
1.6000000000000001e+00 +8.1529273975065699e+00 +0.0000000000000000e+00 +1.5999999978037001e+00 -2.8425956890999544e-02 -5.3670981198437751e-01 +5.3502350677806657e-03
1.7000000000000000e+00 +8.1529180385914497e+00 +0.0000000000000000e+00 +1.6999999973656199e+00 -2.8425978495449762e-02 -5.3670972478557200e-01 +5.3502007079459729e-03
1.8000000000000000e+00 +8.1529081124681397e+00 +0.0000000000000000e+00 +1.7999999968728499e+00 -2.8426007614960200e-02 -5.3670965035395801e-01 +5.3501672735656704e-03
1.8999999999999999e+00 +8.1528976191402798e+00 +0.0000000000000000e+00 +1.8999999963221601e+00 -2.8426044452708420e-02 -5.3670958925735612e-01 +5.3501346891546460e-03
2.0000000000000000e+00 +8.1528865586042194e+00 +0.0000000000000000e+00 +1.9999999957103500e+00 -2.8426089211896773e-02 -5.3670954206363830e-01 +5.3501028792247614e-03
2.1000000000000001e+00 +8.1528749308599799e+00 +0.0000000000000000e+00 +2.0999999950341901e+00 -2.8426142007155430e-02 -5.3670950922133664e-01 +5.3500717890859724e-03
2.2000000000000002e+00 +8.1528627359111905e+00 +0.0000000000000000e+00 +2.1999999942904802e+00 -2.8426202598755314e-02 -5.3670949070171725e-01 +5.3500414472539186e-03
2.2999999999999998e+00 +8.1528499737542006e+00 +0.0000000000000000e+00 +2.2999999934759798e+00 -2.8426270658382425e-02 -5.3670948635679572e-01 +5.3500119030467736e-03
2.3999999999999999e+00 +8.1528366443890299e+00 +0.0000000000000000e+00 +2.3999999925874800e+00 -2.8426345857724786e-02 -5.3670949603857188e-01 +5.3499832057828569e-03
2.5000000000000000e+00 +8.1528227478193003e+00 +0.0000000000000000e+00 +2.4999999916217801e+00 -2.8426427868471386e-02 -5.3670951959902857e-01 +5.3499554047809041e-03
2.6000000000000001e+00 +8.1528082840413791e+00 +0.0000000000000000e+00 +2.5999999905756401e+00 -2.8426516362315666e-02 -5.3670955689021449e-01 +5.3499285493611272e-03
2.7000000000000002e+00 +8.1527932530552807e+00 +0.0000000000000000e+00 +2.6999999894458502e+00 -2.8426611010950054e-02 -5.3670960776416354e-01 +5.3499026888446499e-03
2.7999999999999998e+00 +8.1527776548646198e+00 +0.0000000000000000e+00 +2.7999999882291999e+00 -2.8426711486065032e-02 -5.3670967207289799e-01 +5.3498778725537847e-03
2.8999999999999999e+00 +8.1527614894657692e+00 +0.0000000000000000e+00 +2.8999999869224702e+00 -2.8426817459352532e-02 -5.3670974966850726e-01 +5.3498541498130771e-03
3.0000000000000000e+00 +8.1527447568587394e+00 +0.0000000000000000e+00 +2.9999999855224302e+00 -2.8426928602500547e-02 -5.3670984040307068e-01 +5.3498315699487715e-03
3.1000000000000001e+00 +8.1527274570471508e+00 +0.0000000000000000e+00 +3.0999999840258798e+00 -2.8427044587192130e-02 -5.3670994412865836e-01 +5.3498101822890519e-03
3.2000000000000002e+00 +8.1527095900273707e+00 +0.0000000000000000e+00 +3.1999999824295902e+00 -2.8427165085108851e-02 -5.3671006069741134e-01 +5.3497900361651170e-03
3.2999999999999998e+00 +8.1526911557994008e+00 +0.0000000000000000e+00 +3.2999999807303602e+00 -2.8427289767925329e-02 -5.3671018996146347e-01 +5.3497711809106134e-03
3.3999999999999999e+00 +8.1526721543668792e+00 +0.0000000000000000e+00 +3.3999999789249502e+00 -2.8427418307308331e-02 -5.3671033177294236e-01 +5.3497536658619130e-03
3.5000000000000000e+00 +8.1526525857261696e+00 +0.0000000000000000e+00 +3.4999999770101602e+00 -2.8427550374920136e-02 -5.3671048598405013e-01 +5.3497375403591561e-03
3.6000000000000001e+00 +8.1526324498772702e+00 +0.0000000000000000e+00 +3.5999999749827598e+00 -2.8427685642413155e-02 -5.3671065244698535e-01 +5.3497228537457142e-03
3.7000000000000002e+00 +8.1526117468238208e+00 +0.0000000000000000e+00 +3.6999999728395401e+00 -2.8427823781428919e-02 -5.3671083101394224e-01 +5.3497096553684386e-03
3.7999999999999998e+00 +8.1525904765621799e+00 +0.0000000000000000e+00 +3.7999999705772902e+00 -2.8427964463601584e-02 -5.3671102153719430e-01 +5.3496979945787193e-03
3.8999999999999999e+00 +8.1525686390959908e+00 +0.0000000000000000e+00 +3.8999999681927799e+00 -2.8428107360550941e-02 -5.3671122386898640e-01 +5.3496879207316781e-03
4.0000000000000000e+00 +8.1525462344179704e+00 +0.0000000000000000e+00 +3.9999999656827998e+00 -2.8428252143888916e-02 -5.3671143786167130e-01 +5.3496794831877593e-03
4.0999999999999996e+00 +8.1525232625354001e+00 +0.0000000000000000e+00 +4.0999999630441302e+00 -2.8428398380288909e-02 -5.3671166332168085e-01 +5.3496727183358576e-03
4.2000000000000002e+00 +8.1524997234482708e+00 +0.0000000000000000e+00 +4.1999999602735496e+00 -2.8428545216731924e-02 -5.3671189987213952e-01 +5.3496676106674201e-03
4.2999999999999998e+00 +8.1524756171529607e+00 +0.0000000000000000e+00 +4.2999999573678496e+00 -2.8428691695254995e-02 -5.3671214709031378e-01 +5.3496641316985840e-03
4.4000000000000004e+00 +8.1524509436494608e+00 +0.0000000000000000e+00 +4.3999999543238104e+00 -2.8428836857865101e-02 -5.3671240455338909e-01 +5.3496622529443198e-03
4.5000000000000000e+00 +8.1524257029377605e+00 +0.0000000000000000e+00 +4.4999999511382098e+00 -2.8428979746538977e-02 -5.3671267183849269e-01 +5.3496619459186120e-03
4.5999999999999996e+00 +8.1523998950215208e+00 +0.0000000000000000e+00 +4.5999999478078299e+00 -2.8429119403219884e-02 -5.3671294852266282e-01 +5.3496631821340675e-03
4.7000000000000002e+00 +8.1523735198970808e+00 +0.0000000000000000e+00 +4.6999999443294600e+00 -2.8429254869820585e-02 -5.3671323418292705e-01 +5.3496659331026533e-03
4.7999999999999998e+00 +8.1523465775644599e+00 +0.0000000000000000e+00 +4.7999999406998803e+00 -2.8429385188217002e-02 -5.3671352839621589e-01 +5.3496701703347627e-03
4.9000000000000004e+00 +8.1523190680272801e+00 +0.0000000000000000e+00 +4.8999999369158704e+00 -2.8429509400246682e-02 -5.3671383073936152e-01 +5.3496758653391197e-03
5.0000000000000000e+00 +8.1522909912819195e+00 +0.0000000000000000e+00 +4.9999999329742204e+00 -2.8429626547711521e-02 -5.3671414078917301e-01 +5.3496829896234914e-03
5.0999999999999996e+00 +8.1522623473319999e+00 +0.0000000000000000e+00 +5.0999999288717000e+00 -2.8429735672370195e-02 -5.3671445812232510e-01 +5.3496915146935015e-03
5.2000000000000002e+00 +8.1522331361738907e+00 +0.0000000000000000e+00 +5.1999999246051098e+00 -2.8429835815942384e-02 -5.3671478231546343e-01 +5.3497014120536110e-03
5.2999999999999998e+00 +8.1522033578075899e+00 +0.0000000000000000e+00 +5.2999999201712198e+00 -2.8429926020102709e-02 -5.3671511294511898e-01 +5.3497126532062143e-03
5.4000000000000004e+00 +8.1521730122331100e+00 +0.0000000000000000e+00 +5.3999999155668199e+00 -2.8430005326480462e-02 -5.3671544958773187e-01 +5.3497252096517851e-03
5.5000000000000000e+00 +8.1521420994540694e+00 +0.0000000000000000e+00 +5.4999999107886799e+00 -2.8430072776656535e-02 -5.3671579181962048e-01 +5.3497390528885348e-03
5.5999999999999996e+00 +8.1521106194668391e+00 +0.0000000000000000e+00 +5.5999999058335996e+00 -2.8430127412166138e-02 -5.3671613921705874e-01 +5.3497541544131029e-03
5.7000000000000002e+00 +8.1520785722750606e+00 +0.0000000000000000e+00 +5.6999999006983604e+00 -2.8430168274491224e-02 -5.3671649135616439e-01 +5.3497704857193738e-03
5.7999999999999998e+00 +8.1520459578750906e+00 +0.0000000000000000e+00 +5.7999998953797300e+00 -2.8430194405064776e-02 -5.3671684781300399e-01 +5.3497880182994716e-03
5.9000000000000004e+00 +8.1520127762669308e+00 +0.0000000000000000e+00 +5.8999998898744996e+00 -2.8430204845264630e-02 -5.3671720816350743e-01 +5.3498067236428292e-03
5.9999999999999902e+00 +8.1519790274505795e+00 +0.0000000000000000e+00 +5.9999998841794504e+00 -2.8430198636413322e-02 -5.3671757198349113e-01 +5.3498265732363675e-03
6.0999999999999899e+00 +8.1519447114296799e+00 +0.0000000000000000e+00 +6.0999998782913698e+00 -2.8430175291467720e-02 -5.3671793881477925e-01 +5.3498475546872497e-03
6.1999999999999904e+00 +8.1519098282005906e+00 +0.0000000000000000e+00 +6.1999998722070400e+00 -2.8430136210145309e-02 -5.3671830806379317e-01 +5.3498697200956716e-03
6.2999999999999901e+00 +8.1518743777669407e+00 +0.0000000000000000e+00 +6.2999998659232403e+00 -2.8430083263904338e-02 -5.3671867910309401e-01 +5.3498931376886483e-03
6.3999999999999897e+00 +8.1518383601214701e+00 +0.0000000000000000e+00 +6.3999998594367504e+00 -2.8430018324267545e-02 -5.3671905130538511e-01 +5.3499178756989353e-03
6.4999999999999902e+00 +8.1518017752750893e+00 +0.0000000000000000e+00 +6.4999998527443603e+00 -2.8429943262813343e-02 -5.3671942404330120e-01 +5.3499440023630782e-03
6.5999999999999899e+00 +8.1517646232205205e+00 +0.0000000000000000e+00 +6.5999998458428504e+00 -2.8429859951193702e-02 -5.3671979668967984e-01 +5.3499715859243015e-03
6.6999999999999904e+00 +8.1517269039541098e+00 +0.0000000000000000e+00 +6.6999998387290001e+00 -2.8429770261128237e-02 -5.3672016861740457e-01 +5.3500006946310963e-03
6.7999999999999901e+00 +8.1516886174867995e+00 +0.0000000000000000e+00 +6.7999998313996004e+00 -2.8429676064402758e-02 -5.3672053919932727e-01 +5.3500313967365992e-03
6.8999999999999897e+00 +8.1516497638112906e+00 +0.0000000000000000e+00 +6.8999998238514202e+00 -2.8429579232885721e-02 -5.3672090780851367e-01 +5.3500637605012327e-03
6.9999999999999902e+00 +8.1516103429239593e+00 +0.0000000000000000e+00 +6.9999998160812602e+00 -2.8429481638522273e-02 -5.3672127381808654e-01 +5.3500978541912853e-03
7.0999999999999899e+00 +8.1515703548320708e+00 +0.0000000000000000e+00 +7.0999998080858804e+00 -2.8429385153334357e-02 -5.3672163660117422e-01 +5.3501337460785635e-03
7.1999999999999904e+00 +8.1515297995356395e+00 +0.0000000000000000e+00 +7.1999997998620904e+00 -2.8429291649431122e-02 -5.3672199553105016e-01 +5.3501715044419473e-03
7.2999999999999901e+00 +8.1514886770310095e+00 +0.0000000000000000e+00 +7.2999997914066501e+00 -2.8429202999010500e-02 -5.3672234998110835e-01 +5.3502111975673181e-03
7.3999999999999897e+00 +8.1514469873182005e+00 +0.0000000000000000e+00 +7.3999997827163604e+00 -2.8429121074359232e-02 -5.3672269932481376e-01 +5.3502528937472140e-03
7.4999999999999902e+00 +8.1514047304008308e+00 +0.0000000000000000e+00 +7.4999997737879900e+00 -2.8429047747855919e-02 -5.3672304293570683e-01 +5.3502966612810447e-03
7.5999999999999899e+00 +8.1513619062752696e+00 +0.0000000000000000e+00 +7.5999997646183202e+00 -2.8428984891978436e-02 -5.3672338018748478e-01 +5.3503425684760745e-03
7.6999999999999904e+00 +8.1513185149451601e+00 +0.0000000000000000e+00 +7.6999997552041499e+00 -2.8428934379301114e-02 -5.3672371045390155e-01 +5.3503906836465717e-03
7.7999999999999901e+00 +8.1512745564032194e+00 +0.0000000000000000e+00 +7.7999997455422498e+00 -2.8428898082505094e-02 -5.3672403310890293e-01 +5.3504410751153298e-03
7.8999999999999897e+00 +8.1512300306567305e+00 +0.0000000000000000e+00 +7.8999997356294100e+00 -2.8428877874371032e-02 -5.3672434752644416e-01 +5.3504938112120017e-03
7.9999999999999902e+00 +8.1511849377056897e+00 +0.0000000000000000e+00 +7.9999997254624002e+00 -2.8428875627790947e-02 -5.3672465308065265e-01 +5.3505489602749005e-03
8.0999999999999908e+00 +8.1511392775464593e+00 +0.0000000000000000e+00 +8.0999997150380096e+00 -2.8428892669576190e-02 -5.3672494938631443e-01 +5.3506065692655487e-03
8.1999999999999904e+00 +8.1510930501790408e+00 +0.0000000000000000e+00 +8.1999997043530293e+00 -2.8428928141799654e-02 -5.3672523702031982e-01 +5.3506665996071933e-03
8.2999999999999901e+00 +8.1510462556034309e+00 +0.0000000000000000e+00 +8.2999996934042404e+00 -2.8428980640285182e-02 -5.3672551680009561e-01 +5.3507289913340347e-03
8.3999999999999897e+00 +8.1509988938232691e+00 +0.0000000000000000e+00 +8.3999996821884100e+00 -2.8429048760791956e-02 -5.3672578954306194e-01 +5.3507936844754836e-03
8.4999999999999893e+00 +8.1509509648349194e+00 +0.0000000000000000e+00 +8.4999996707023406e+00 -2.8429131099016562e-02 -5.3672605606670731e-01 +5.3508606190567415e-03
8.5999999999999908e+00 +8.1509024686420197e+00 +0.0000000000000000e+00 +8.5999996589427994e+00 -2.8429226250584701e-02 -5.3672631718848662e-01 +5.3509297350975487e-03
8.6999999999999904e+00 +8.1508534052409196e+00 +0.0000000000000000e+00 +8.6999996469065692e+00 -2.8429332811054701e-02 -5.3672657372592503e-01 +5.3510009726130498e-03
8.7999999999999794e+00 +8.1508037746316404e+00 +0.0000000000000000e+00 +8.7999996345904599e+00 -2.8429449375910763e-02 -5.3672682649653891e-01 +5.3510742716128025e-03
8.8999999999999808e+00 +8.1507535768178094e+00 +0.0000000000000000e+00 +8.8999996219912205e+00 -2.8429574540560481e-02 -5.3672707631783734e-01 +5.3511495721005799e-03
8.9999999999999805e+00 +8.1507028117957798e+00 +0.0000000000000000e+00 +8.9999996091056396e+00 -2.8429706900337026e-02 -5.3672732400740009e-01 +5.3512268140749799e-03
9.0999999999999801e+00 +8.1506514795655693e+00 +0.0000000000000000e+00 +9.0999995959305195e+00 -2.8429845050492227e-02 -5.3672757038279917e-01 +5.3513059375284236e-03
9.1999999999999797e+00 +8.1505995801308000e+00 +0.0000000000000000e+00 +9.1999995824626293e+00 -2.8429987586194281e-02 -5.3672781626159960e-01 +5.3513868824469563e-03
9.2999999999999794e+00 +8.1505471134878498e+00 +0.0000000000000000e+00 +9.2999995686987500e+00 -2.8430133102529707e-02 -5.3672806246143723e-01 +5.3514695888108648e-03
9.3999999999999808e+00 +8.1504940796366991e+00 +0.0000000000000000e+00 +9.3999995546356701e+00 -2.8430280194496654e-02 -5.3672830979994213e-01 +5.3515539965936828e-03
9.4999999999999805e+00 +8.1504404785773694e+00 +0.0000000000000000e+00 +9.4999995402701707e+00 -2.8430427457003905e-02 -5.3672855909476214e-01 +5.3516400457622433e-03
9.5999999999999801e+00 +8.1503863103171206e+00 +0.0000000000000000e+00 +9.5999995255990296e+00 -2.8430573484865596e-02 -5.3672881116351201e-01 +5.3517276762759629e-03
9.6999999999999797e+00 +8.1503315748450404e+00 +0.0000000000000000e+00 +9.6999995106190298e+00 -2.8430716872809177e-02 -5.3672906682396027e-01 +5.3518168280885271e-03
9.7999999999999794e+00 +8.1502762721684103e+00 +0.0000000000000000e+00 +9.7999994953269702e+00 -2.8430856215458263e-02 -5.3672932689376096e-01 +5.3519074411450011e-03
9.8999999999999808e+00 +8.1502204022835905e+00 +0.0000000000000000e+00 +9.8999994797196091e+00 -2.8430990107342066e-02 -5.3672959219066874e-01 +5.3519994553837876e-03
9.9999999999999805e+00 +8.1501639651905897e+00 +0.0000000000000000e+00 +9.9999994637937508e+00 -2.8431117142887073e-02 -5.3672986353243157e-01 +5.3520928107353601e-03
1.0100000000000000e+01 +8.1501069608966592e+00 +0.0000000000000000e+00 +1.0099999447546200e+01 -2.8431236165120090e-02 -5.3673014162815025e-01 +5.3521874410145717e-03
1.0199999999999999e+01 +8.1500493893909205e+00 +0.0000000000000000e+00 +1.0199999430973600e+01 -2.8431347011860911e-02 -5.3673042675259308e-01 +5.3522832556008636e-03
1.0300000000000001e+01 +8.1499912506769796e+00 +0.0000000000000000e+00 +1.0299999414073000e+01 -2.8431449769664451e-02 -5.3673071907176084e-01 +5.3523801577585748e-03
1.0400000000000000e+01 +8.1499325447584905e+00 +0.0000000000000000e+00 +1.0399999396840901e+01 -2.8431544525124919e-02 -5.3673101875160556e-01 +5.3524780507454373e-03
1.0500000000000000e+01 +8.1498732716317992e+00 +0.0000000000000000e+00 +1.0499999379274200e+01 -2.8431631364880066e-02 -5.3673132595808137e-01 +5.3525768378129565e-03
1.0600000000000000e+01 +8.1498134313005703e+00 +0.0000000000000000e+00 +1.0599999361369800e+01 -2.8431710375606344e-02 -5.3673164085703684e-01 +5.3526764222051951e-03
1.0699999999999999e+01 +8.1497530237611500e+00 +0.0000000000000000e+00 +1.0699999343124301e+01 -2.8431781644026113e-02 -5.3673196361432063e-01 +5.3527767071596868e-03
1.0800000000000001e+01 +8.1496920490171796e+00 +0.0000000000000000e+00 +1.0799999324534600e+01 -2.8431845256902805e-02 -5.3673229439567138e-01 +5.3528775959062191e-03
1.0900000000000000e+01 +8.1496305070650106e+00 +0.0000000000000000e+00 +1.0899999305597399e+01 -2.8431901301048130e-02 -5.3673263336682586e-01 +5.3529789916677535e-03
1.1000000000000000e+01 +8.1495683979046607e+00 +0.0000000000000000e+00 +1.0999999286309500e+01 -2.8431949863318755e-02 -5.3673298069343478e-01 +5.3530807976594694e-03
1.1100000000000000e+01 +8.1495057215361193e+00 +0.0000000000000000e+00 +1.1099999266667700e+01 -2.8431991030619001e-02 -5.3673333654108990e-01 +5.3531829170888898e-03
1.1199999999999999e+01 +8.1494424779630208e+00 +0.0000000000000000e+00 +1.1199999246668799e+01 -2.8432024889900501e-02 -5.3673370107529439e-01 +5.3532852531554403e-03
1.1300000000000001e+01 +8.1493786671817396e+00 +0.0000000000000000e+00 +1.1299999226309600e+01 -2.8432051528167912e-02 -5.3673407446154175e-01 +5.3533877090511340e-03
1.1400000000000000e+01 +8.1493142891922599e+00 +0.0000000000000000e+00 +1.1399999205586900e+01 -2.8432071032475584e-02 -5.3673445686523502e-01 +5.3534901879596000e-03
1.1500000000000000e+01 +8.1492493440018698e+00 +0.0000000000000000e+00 +1.1499999184497300e+01 -2.8432083489927266e-02 -5.3673484845165809e-01 +5.3535925930556600e-03
1.1600000000000000e+01 +8.1491838315996592e+00 +0.0000000000000000e+00 +1.1599999163037801e+01 -2.8432088987687735e-02 -5.3673524938616057e-01 +5.3536948275070663e-03
1.1699999999999999e+01 +8.1491177519928897e+00 +0.0000000000000000e+00 +1.1699999141205099e+01 -2.8432087612969073e-02 -5.3673565983389038e-01 +5.3537967944716726e-03
1.1800000000000001e+01 +8.1490511051779304e+00 +0.0000000000000000e+00 +1.1799999118996000e+01 -2.8432079453043747e-02 -5.3673607996000472e-01 +5.3538983970994195e-03
