# field on trajectory
# s[mm] rx[mm] ry[mm] rz[mm] bx[T] by[T] bz[T]
0.0000000000000000e+00 +8.1530000000000094e+00 +0.0000000000000000e+00 +0.0000000000000000e+00 -2.8920184099151078e-02 -5.3695950491880395e-01 +5.3356516397689551e-03
1.0000000000000001e-01 +8.1529997159377707e+00 +0.0000000000000000e+00 +1.0008006405070299e-01 -2.8920355748444357e-02 -5.3695905817378053e-01 +5.3356430012403673e-03
2.0000000000000001e-01 +8.1529988637557800e+00 +0.0000000000000000e+00 +2.0016012809818201e-01 -2.8920519395266051e-02 -5.3695860544827001e-01 +5.3356350934176087e-03
2.9999999999999999e-01 +8.1529974434524792e+00 +0.0000000000000000e+00 +3.0024019213920999e-01 -2.8920675381411184e-02 -5.3695814805444386e-01 +5.3356278490682583e-03
4.0000000000000002e-01 +8.1529954550242092e+00 +0.0000000000000000e+00 +4.0032025617056399e-01 -2.8920824048663571e-02 -5.3695768730450599e-01 +5.3356212009625552e-03
5.0000000000000000e-01 +8.1529928984782600e+00 +0.0000000000000000e+00 +5.0040032018901703e-01 -2.8920965738791930e-02 -5.3695722451059846e-01 +5.3356150818721550e-03
5.9999999999999998e-01 +8.1529897738146193e+00 +0.0000000000000000e+00 +6.0048038419134497e-01 -2.8921100793557468e-02 -5.3695676098493494e-01 +5.3356094245712270e-03
6.9999999999999996e-01 +8.1529860810223909e+00 +0.0000000000000000e+00 +7.0056044817432195e-01 -2.8921229554716078e-02 -5.3695629803982847e-01 +5.3356041618364877e-03
8.0000000000000004e-01 +8.1529818201124709e+00 +0.0000000000000000e+00 +8.0064051213472498e-01 -2.8921352364007339e-02 -5.3695583698745264e-01 +5.3355992264444959e-03
9.0000000000000002e-01 +8.1529769910812302e+00 +0.0000000000000000e+00 +9.0072057606932698e-01 -2.8921469563168597e-02 -5.3695537914010694e-01 +5.3355945511740967e-03
1.0000000000000000e+00 +8.1529715939250291e+00 +0.0000000000000000e+00 +1.0008006399749001e+00 -2.8921581493930686e-02 -5.3695492581011361e-01 +5.3355900688051017e-03
1.1000000000000001e+00 +8.1529656286511507e+00 +0.0000000000000000e+00 +1.1008807038482300e+00 -2.8921688498014748e-02 -5.3695447830973531e-01 +5.3355857121172136e-03
1.2000000000000000e+00 +8.1529590952522994e+00 +0.0000000000000000e+00 +1.2009607676860801e+00 -2.8921790917142455e-02 -5.3695403795136465e-01 +5.3355814138916578e-03
1.3000000000000000e+00 +8.1529519937357708e+00 +0.0000000000000000e+00 +1.3010408314852300e+00 -2.8921889093026319e-02 -5.3695360604731068e-01 +5.3355771069087694e-03
1.3999999999999999e+00 +8.1529443240979198e+00 +0.0000000000000000e+00 +1.4011208952424601e+00 -2.8921983367379830e-02 -5.3695318390998481e-01 +5.3355727239496296e-03
1.5000000000000000e+00 +8.1529360863350995e+00 +0.0000000000000000e+00 +1.5012009589545301e+00 -2.8922074081914436e-02 -5.3695277285182519e-01 +5.3355681977950049e-03
1.6000000000000001e+00 +8.1529272804509691e+00 +0.0000000000000000e+00 +1.6012810226182299e+00 -2.8922161578337741e-02 -5.3695237418523967e-01 +5.3355634612245384e-03
1.7000000000000000e+00 +8.1529179064491508e+00 +0.0000000000000000e+00 +1.7013610862303301e+00 -2.8922246198357114e-02 -5.3695198922266241e-01 +5.3355584470170430e-03
1.8000000000000000e+00 +8.1529079643223703e+00 +0.0000000000000000e+00 +1.8014411497875999e+00 -2.8922328283684486e-02 -5.3695161927663349e-01 +5.3355530879510569e-03
1.8999999999999999e+00 +8.1528974540779000e+00 +0.0000000000000000e+00 +1.9015212132868200e+00 -2.8922408176028078e-02 -5.3695126565961382e-01 +5.3355473168026956e-03
2.0000000000000000e+00 +8.1528863757084800e+00 +0.0000000000000000e+00 +2.0016012767247702e+00 -2.8922486217104238e-02 -5.3695092968419633e-01 +5.3355410663476861e-03
2.1000000000000001e+00 +8.1528747292177304e+00 +0.0000000000000000e+00 +2.1016813400982199e+00 -2.8922562860474864e-02 -5.3695061225414586e-01 +5.3355343024329566e-03
2.2000000000000002e+00 +8.1528625146056601e+00 +0.0000000000000000e+00 +2.2017614034039301e+00 -2.8922638986132697e-02 -5.3695031271476990e-01 +5.3355271170003283e-03
2.2999999999999998e+00 +8.1528497318759001e+00 +0.0000000000000000e+00 +2.3018414666387002e+00 -2.8922715575687850e-02 -5.3695003003997555e-01 +5.3355196320345267e-03
2.3999999999999999e+00 +8.1528363810211903e+00 +0.0000000000000000e+00 +2.4019215297993002e+00 -2.8922793610765937e-02 -5.3694976320372845e-01 +5.3355119695171422e-03
2.5000000000000000e+00 +8.1528224620451493e+00 +0.0000000000000000e+00 +2.5020015928824901e+00 -2.8922874073001634e-02 -5.3694951117989032e-01 +5.3355042514246238e-03
2.6000000000000001e+00 +8.1528079749477893e+00 +0.0000000000000000e+00 +2.6020816558850601e+00 -2.8922957944045324e-02 -5.3694927294232009e-01 +5.3354965997289647e-03
2.7000000000000002e+00 +8.1527929197291105e+00 +0.0000000000000000e+00 +2.7021617188037701e+00 -2.8923046205563317e-02 -5.3694904746484340e-01 +5.3354891363970574e-03
2.7999999999999998e+00 +8.1527772963891003e+00 +0.0000000000000000e+00 +2.8022417816354102e+00 -2.8923139839239203e-02 -5.3694883372124758e-01 +5.3354819833902915e-03
2.8999999999999999e+00 +8.1527611049277802e+00 +0.0000000000000000e+00 +2.9023218443767500e+00 -2.8923239826775405e-02 -5.3694863068527776e-01 +5.3354752626641778e-03
3.0000000000000000e+00 +8.1527443453451305e+00 +0.0000000000000000e+00 +3.0024019070245598e+00 -2.8923347149894533e-02 -5.3694843733063247e-01 +5.3354690961679493e-03
3.1000000000000001e+00 +8.1527270176411495e+00 +0.0000000000000000e+00 +3.1024819695756198e+00 -2.8923462790340897e-02 -5.3694825263095836e-01 +5.3354636058441807e-03
3.2000000000000002e+00 +8.1527091218158603e+00 +0.0000000000000000e+00 +3.2025620320267101e+00 -2.8923587729881888e-02 -5.3694807555984758e-01 +5.3354589136283982e-03
3.2999999999999998e+00 +8.1526906578692397e+00 +0.0000000000000000e+00 +3.3026420943745900e+00 -2.8923722950309497e-02 -5.3694790509083135e-01 +5.3354551414486889e-03
3.3999999999999999e+00 +8.1526716258013003e+00 +0.0000000000000000e+00 +3.4027221566160502e+00 -2.8923869433441714e-02 -5.3694774019737745e-01 +5.3354524112253186e-03
3.5000000000000000e+00 +8.1526520256120403e+00 +0.0000000000000000e+00 +3.5028022187478500e+00 -2.8924028161124007e-02 -5.3694757985288355e-01 +5.3354508448703415e-03
3.6000000000000001e+00 +8.1526318572978198e+00 +0.0000000000000000e+00 +3.6028822807667802e+00 -2.8924200115232016e-02 -5.3694742303070253e-01 +5.3354505642874790e-03
3.7000000000000002e+00 +8.1526111208659096e+00 +0.0000000000000000e+00 +3.7029623426696099e+00 -2.8924386277667836e-02 -5.3694726870402854e-01 +5.3354516913706497e-03
3.7999999999999998e+00 +8.1525898163126804e+00 +0.0000000000000000e+00 +3.8030424044531101e+00 -2.8924587630369238e-02 -5.3694711584605370e-01 +5.3354543480052079e-03
3.8999999999999999e+00 +8.1525679436344909e+00 +0.0000000000000000e+00 +3.9031224661140600e+00 -2.8924805155307258e-02 -5.3694696342988435e-01 +5.3354586560667447e-03
4.0000000000000000e+00 +8.1525455028386205e+00 +0.0000000000000000e+00 +4.0032025276492398e+00 -2.8925039834466603e-02 -5.3694681042846337e-01 +5.3354647374182678e-03
4.0999999999999996e+00 +8.1525224939177896e+00 +0.0000000000000000e+00 +4.1032825890554099e+00 -2.8925292077406642e-02 -5.3694665605492387e-01 +5.3354726597623576e-03
4.2000000000000002e+00 +8.1524989168792708e+00 +0.0000000000000000e+00 +4.2033626503293604e+00 -2.8925560213209384e-02 -5.3694650039510772e-01 +5.3354822939970454e-03
4.2999999999999998e+00 +8.1524747717157897e+00 +0.0000000000000000e+00 +4.3034427114678504e+00 -2.8925842098470628e-02 -5.3694634373319672e-01 +5.3354934663335570e-03
4.4000000000000004e+00 +8.1524500584346207e+00 +0.0000000000000000e+00 +4.4035227724676700e+00 -2.8926135589772015e-02 -5.3694618635327629e-01 +5.3355060029898101e-03
4.5000000000000000e+00 +8.1524247770285001e+00 +0.0000000000000000e+00 +4.5036028333255800e+00 -2.8926438543690158e-02 -5.3694602853955198e-01 +5.3355197301932656e-03
4.5999999999999996e+00 +8.1523989275046898e+00 +0.0000000000000000e+00 +4.6036828940383696e+00 -2.8926748816784819e-02 -5.3694587057613763e-01 +5.3355344741794573e-03
4.7000000000000002e+00 +8.1523725098559208e+00 +0.0000000000000000e+00 +4.7037629546028104e+00 -2.8927064265608222e-02 -5.3694571274727099e-01 +5.3355500611948544e-03
4.7999999999999998e+00 +8.1523455240894709e+00 +0.0000000000000000e+00 +4.8038430150156701e+00 -2.8927382746693157e-02 -5.3694555533710298e-01 +5.3355663174953823e-03
4.9000000000000004e+00 +8.1523179701980606e+00 +0.0000000000000000e+00 +4.9039230752737302e+00 -2.8927702116562273e-02 -5.3694539862991275e-01 +5.3355830693492916e-03
5.0000000000000000e+00 +8.1522898481889605e+00 +0.0000000000000000e+00 +5.0040031353737602e+00 -2.8928020231716225e-02 -5.3694524290989687e-01 +5.3356001430356695e-03
5.0999999999999996e+00 +8.1522611580549000e+00 +0.0000000000000000e+00 +5.1040831953125396e+00 -2.8928334948642945e-02 -5.3694508846138511e-01 +5.3356173648473164e-03
5.2000000000000002e+00 +8.1522318997995207e+00 +0.0000000000000000e+00 +5.2041632550868497e+00 -2.8928644123807121e-02 -5.3694493556865508e-01 +5.3356345610895330e-03
5.2999999999999998e+00 +8.1522020734228100e+00 +0.0000000000000000e+00 +5.3042433146934496e+00 -2.8928945613654205e-02 -5.3694478451604200e-01 +5.3356515580818987e-03
5.4000000000000004e+00 +8.1521716789247893e+00 +0.0000000000000000e+00 +5.4043233741291203e+00 -2.8929237274607764e-02 -5.3694463558791350e-01 +5.3356681821586909e-03
5.5000000000000000e+00 +8.1521407163090807e+00 +0.0000000000000000e+00 +5.5044034333906504e+00 -2.8929516963066951e-02 -5.3694448906864645e-01 +5.3356842596693141e-03
5.5999999999999996e+00 +8.1521091855684098e+00 +0.0000000000000000e+00 +5.6044834924747899e+00 -2.8929782535410446e-02 -5.3694434524273438e-01 +5.3356996169800731e-03
5.7000000000000002e+00 +8.1520770867064094e+00 +0.0000000000000000e+00 +5.7045635513783299e+00 -2.8930031847987266e-02 -5.3694420439462998e-01 +5.3357140804732427e-03
5.7999999999999998e+00 +8.1520444197231008e+00 +0.0000000000000000e+00 +5.8046436100980499e+00 -2.8930262757120788e-02 -5.3694406680885465e-01 +5.3357274765488336e-03
5.9000000000000004e+00 +8.1520111846184609e+00 +0.0000000000000000e+00 +5.9047236686307096e+00 -2.8930473119106136e-02 -5.3694393276997410e-01 +5.3357396316250387e-03
5.9999999999999902e+00 +8.1519773813925003e+00 +0.0000000000000000e+00 +6.0048037269731003e+00 -2.8930660790279821e-02 -5.3694380256259788e-01 +5.3357503721451621e-03
6.0999999999999899e+00 +8.1519430100452208e+00 +0.0000000000000000e+00 +6.1048837851219799e+00 -2.8930824364719446e-02 -5.3694367645441077e-01 +5.3357595897297952e-03
6.1999999999999904e+00 +8.1519080705766100e+00 +0.0000000000000000e+00 +6.2049638430741396e+00 -2.8930964992701393e-02 -5.3694355465432808e-01 +5.3357674017698265e-03
6.2999999999999901e+00 +8.1518725629866804e+00 +0.0000000000000000e+00 +6.3050439008263499e+00 -2.8931084377727394e-02 -5.3694343735855066e-01 +5.3357739745170827e-03
6.3999999999999897e+00 +8.1518364872754301e+00 +0.0000000000000000e+00 +6.4051239583753699e+00 -2.8931184223277649e-02 -5.3694332476329287e-01 +5.3357794742215168e-03
6.4999999999999902e+00 +8.1517998434428591e+00 +0.0000000000000000e+00 +6.5052040157180002e+00 -2.8931266232810001e-02 -5.3694321706478276e-01 +5.3357840671309819e-03
6.5999999999999899e+00 +8.1517626314889604e+00 +0.0000000000000000e+00 +6.6052840728510001e+00 -2.8931332109759185e-02 -5.3694311445926157e-01 +5.3357879194910309e-03
6.6999999999999904e+00 +8.1517248514137499e+00 +0.0000000000000000e+00 +6.7053641297711399e+00 -2.8931383557535998e-02 -5.3694301714298520e-01 +5.3357911975446997e-03
6.7999999999999901e+00 +8.1516865032135701e+00 +0.0000000000000000e+00 +6.8054441864752100e+00 -2.8931422279527889e-02 -5.3694292531225152e-01 +5.3357940675325712e-03
6.8999999999999897e+00 +8.1516475868957095e+00 +0.0000000000000000e+00 +6.9055242429599701e+00 -2.8931449979092749e-02 -5.3694283916329377e-01 +5.3357966956914743e-03
6.9999999999999902e+00 +8.1516081024565192e+00 +0.0000000000000000e+00 +7.0056042992222096e+00 -2.8931468359566212e-02 -5.3694275889244125e-01 +5.3357992482559076e-03
7.0999999999999899e+00 +8.1515680498960101e+00 +0.0000000000000000e+00 +7.1056843552586999e+00 -2.8931479124255432e-02 -5.3694268469601358e-01 +5.3358018914567325e-03
7.1999999999999904e+00 +8.1515274292141804e+00 +0.0000000000000000e+00 +7.2057644110662000e+00 -2.8931483976439697e-02 -5.3694261677034782e-01 +5.3358047915212474e-03
7.2999999999999901e+00 +8.1514862404073902e+00 +0.0000000000000000e+00 +7.3058444666415099e+00 -2.8931484619370909e-02 -5.3694255531182578e-01 +5.3358081146732336e-03
7.3999999999999897e+00 +8.1514444834829192e+00 +0.0000000000000000e+00 +7.4059245219813796e+00 -2.8931482756267491e-02 -5.3694250051676651e-01 +5.3358120271316716e-03
7.4999999999999902e+00 +8.1514021584334806e+00 +0.0000000000000000e+00 +7.5060045770826100e+00 -2.8931480090322897e-02 -5.3694245258161699e-01 +5.3358166951124261e-03
7.5999999999999899e+00 +8.1513592652663593e+00 +0.0000000000000000e+00 +7.6060846319419504e+00 -2.8931478324694167e-02 -5.3694241170273582e-01 +5.3358222848258500e-03
7.6999999999999904e+00 +8.1513158039779192e+00 +0.0000000000000000e+00 +7.7061646865561997e+00 -2.8931479162510397e-02 -5.3694237807658118e-01 +5.3358289624784944e-03
7.7999999999999901e+00 +8.1512717745681602e+00 +0.0000000000000000e+00 +7.8062447409221098e+00 -2.8931484306866678e-02 -5.3694235189960760e-01 +5.3358368942717973e-03
7.8999999999999897e+00 +8.1512271770334301e+00 +0.0000000000000000e+00 +7.9063247950364799e+00 -2.8931495460825914e-02 -5.3694233336831543e-01 +5.3358462464024106e-03
7.9999999999999902e+00 +8.1511820113773901e+00 +0.0000000000000000e+00 +8.0064048488960609e+00 -2.8931514327320690e-02 -5.3694232267915898e-01 +5.3358571850463310e-03
8.0999999999999908e+00 +8.1511362776036496e+00 +0.0000000000000000e+00 +8.1064849024976393e+00 -2.8931542180703276e-02 -5.3694231995563346e-01 +5.3358698081255405e-03
8.1999999999999904e+00 +8.1510899757086008e+00 +0.0000000000000000e+00 +8.2065649558379903e+00 -2.8931578879453350e-02 -5.3694232508019979e-01 +5.3358839880692380e-03
8.2999999999999901e+00 +8.1510431056885899e+00 +0.0000000000000000e+00 +8.3066450089139003e+00 -2.8931623990088112e-02 -5.3694233788564483e-01 +5.3358995507934793e-03
8.3999999999999897e+00 +8.1509956675508892e+00 +0.0000000000000000e+00 +8.4067250617221205e+00 -2.8931677079166593e-02 -5.3694235820473313e-01 +5.3359163222027762e-03
8.4999999999999893e+00 +8.1509476612882299e+00 +0.0000000000000000e+00 +8.5068051142594392e+00 -2.8931737713300508e-02 -5.3694238587039578e-01 +5.3359341281916323e-03
8.5999999999999908e+00 +8.1508990869078808e+00 +0.0000000000000000e+00 +8.6068851665226305e+00 -2.8931805459145334e-02 -5.3694242071551745e-01 +5.3359527946420272e-03
8.6999999999999904e+00 +8.1508499444025801e+00 +0.0000000000000000e+00 +8.7069652185084596e+00 -2.8931879883412635e-02 -5.3694246257315326e-01 +5.3359721474252513e-03
8.7999999999999794e+00 +8.1508002337759500e+00 +0.0000000000000000e+00 +8.8070452702137203e+00 -2.8931960552862346e-02 -5.3694251127634129e-01 +5.3359920123996572e-03
8.8999999999999808e+00 +8.1507499550316407e+00 +0.0000000000000000e+00 +8.9071253216351796e+00 -2.8932047034308486e-02 -5.3694256665818574e-01 +5.3360122154111258e-03
8.9999999999999805e+00 +8.1506991081623692e+00 +0.0000000000000000e+00 +9.0072053727696098e+00 -2.8932138894624759e-02 -5.3694262855193819e-01 +5.3360325822935321e-03
9.0999999999999801e+00 +8.1506476931717806e+00 +0.0000000000000000e+00 +9.1072854236137797e+00 -2.8932235700738263e-02 -5.3694269679083872e-01 +5.3360529388667794e-03
9.1999999999999797e+00 +8.1505957100635005e+00 +0.0000000000000000e+00 +9.2073654741644795e+00 -2.8932337019635150e-02 -5.3694277120819822e-01 +5.3360731109372622e-03
9.2999999999999794e+00 +8.1505431588302599e+00 +0.0000000000000000e+00 +9.3074455244184708e+00 -2.8932442418366230e-02 -5.3694285163747946e-01 +5.3360929242983347e-03
9.3999999999999808e+00 +8.1504900394757005e+00 +0.0000000000000000e+00 +9.4075255743725297e+00 -2.8932551464040682e-02 -5.3694293791213821e-01 +5.3361122047283311e-03
9.4999999999999805e+00 +8.1504363520034495e+00 +0.0000000000000000e+00 +9.5076056240234408e+00 -2.8932663723831749e-02 -5.3694302986570608e-01 +5.3361307779910619e-03
9.5999999999999801e+00 +8.1503820964062506e+00 +0.0000000000000000e+00 +9.6076856733679694e+00 -2.8932778764982292e-02 -5.3694312733187088e-01 +5.3361484698362417e-03
9.6999999999999797e+00 +8.1503272726913600e+00 +0.0000000000000000e+00 +9.7077657224029004e+00 -2.8932896154797230e-02 -5.3694323014429168e-01 +5.3361651059972747e-03
9.7999999999999794e+00 +8.1502718808515109e+00 +0.0000000000000000e+00 +9.8078457711250007e+00 -2.8933015460655791e-02 -5.3694333813681516e-01 +5.3361805121930738e-03
9.8999999999999808e+00 +8.1502159208903304e+00 +0.0000000000000000e+00 +9.9079258195310498e+00 -2.8933136250003912e-02 -5.3694345114328779e-01 +5.3361945141258086e-03
9.9999999999999805e+00 +8.1501593928078400e+00 +0.0000000000000000e+00 +1.0008005867617801e+01 -2.8933258090408552e-02 -5.3694356899767759e-01 +5.3362069375119748e-03
1.0100000000000000e+01 +8.1501022966040200e+00 +0.0000000000000000e+00 +1.0108085915382100e+01 -2.8933380665963713e-02 -5.3694369156013244e-01 +5.3362176825565910e-03
1.0199999999999999e+01 +8.1500446322825209e+00 +0.0000000000000000e+00 +1.0208165962820599e+01 -2.8933504027764703e-02 -5.3694381877303698e-01 +5.3362268842425432e-03
1.0300000000000001e+01 +8.1499863998360507e+00 +0.0000000000000000e+00 +1.0308246009930199e+01 -2.8933628298981735e-02 -5.3694395059496314e-01 +5.3362347236975667e-03
1.0400000000000000e+01 +8.1499275992682705e+00 +0.0000000000000000e+00 +1.0408326056707599e+01 -2.8933753602738470e-02 -5.3694408698434015e-01 +5.3362413820633768e-03
1.0500000000000000e+01 +8.1498682305791608e+00 +0.0000000000000000e+00 +1.0508406103149600e+01 -2.8933880062116165e-02 -5.3694422789955798e-01 +5.3362470404972146e-03
1.0600000000000000e+01 +8.1498082937723701e+00 +0.0000000000000000e+00 +1.0608486149253000e+01 -2.8934007800149757e-02 -5.3694437329891465e-01 +5.3362518801716935e-03
1.0699999999999999e+01 +8.1497477888406102e+00 +0.0000000000000000e+00 +1.0708566195014500e+01 -2.8934136939831871e-02 -5.3694452314071794e-01 +5.3362560822763309e-03
1.0800000000000001e+01 +8.1496867157875403e+00 +0.0000000000000000e+00 +1.0808646240430900e+01 -2.8934267604103763e-02 -5.3694467738312579e-01 +5.3362598280163346e-03
1.0900000000000000e+01 +8.1496250746131391e+00 +0.0000000000000000e+00 +1.0908726285499000e+01 -2.8934399915859263e-02 -5.3694483598424936e-01 +5.3362632986141178e-03
1.1000000000000000e+01 +8.1495628653174208e+00 +0.0000000000000000e+00 +1.1008806330215601e+01 -2.8934533997942324e-02 -5.3694499890212488e-01 +5.3362666753094500e-03
1.1100000000000000e+01 +8.1495000879040198e+00 +0.0000000000000000e+00 +1.1108886374577500e+01 -2.8934669973144377e-02 -5.3694516609468501e-01 +5.3362701393596052e-03
1.1199999999999999e+01 +8.1494367423620098e+00 +0.0000000000000000e+00 +1.1208966418581401e+01 -2.8934807964209788e-02 -5.3694533751989004e-01 +5.3362738720411562e-03
1.1300000000000001e+01 +8.1493728287059604e+00 +0.0000000000000000e+00 +1.1309046462224000e+01 -2.8934948093820020e-02 -5.3694551313543271e-01 +5.3362780546473941e-03
1.1400000000000000e+01 +8.1493083469249505e+00 +0.0000000000000000e+00 +1.1409126505502300e+01 -2.8935090484610924e-02 -5.3694569289910909e-01 +5.3362828684925690e-03
1.1500000000000000e+01 +8.1492432970226201e+00 +0.0000000000000000e+00 +1.1509206548412800e+01 -2.8935235259157008e-02 -5.3694587676852390e-01 +5.3362884949093147e-03
1.1600000000000000e+01 +8.1491776789989707e+00 +0.0000000000000000e+00 +1.1609286590952600e+01 -2.8935382539976771e-02 -5.3694606470122075e-01 +5.3362951152504433e-03
1.1699999999999999e+01 +8.1491114928576298e+00 +0.0000000000000000e+00 +1.1709366633118099e+01 -2.8935532449528831e-02 -5.3694625665462836e-01 +5.3363029108888169e-03
1.1800000000000001e+01 +8.1490447385876905e+00 +0.0000000000000000e+00 +1.1809446674906400e+01 -2.8935685110217314e-02 -5.3694645258619067e-01 +5.3363120632191150e-03
