# multipoles
# s[mm] polynom_b[n=0][T/m^n] polynom_b[n=1][T/m^n] polynom_b[n=2][T/m^n] polynom_b[n=3][T/m^n] polynom_b[n=4][T/m^n] polynom_b[n=5][T/m^n] polynom_b[n=6][T/m^n] 
-0.0000000000000000e+00 -5.3712110103750610e-01 +7.3562609975152968e+00 +3.9406569514089801e-02 -3.6087171066627327e+01 -6.6621068454611222e+03 -3.2913225466210730e+04 +1.6776334142624902e+07 
-1.0000000000000001e-01 -5.3712121605459195e-01 +7.3562386284793844e+00 +3.8892390329411337e-02 -3.5492143631651736e+01 -6.6392730291579101e+03 -3.5686848221923326e+04 +1.6693860396930248e+07 
-2.0000000000000001e-01 -5.3712136749904149e-01 +7.3562150659898577e+00 +3.9683598185815565e-02 -3.4905067237053785e+01 -6.6234899681380120e+03 -3.8367973529302362e+04 +1.6611117965864303e+07 
-2.9999999999999999e-01 -5.3712155264417449e-01 +7.3561906343267012e+00 +4.1688172320519190e-02 -3.4329407209707242e+01 -6.6143076495771484e+03 -4.0948845458965770e+04 +1.6527990244119326e+07 
-4.0000000000000002e-01 -5.3712176876328033e-01 +7.3561656577606911e+00 +4.4814092897198309e-02 -3.3768628722129222e+01 -6.6112760740156236e+03 -4.3421708608907451e+04 +1.6444360672542131e+07 
-5.0000000000000000e-01 -5.3712201312971430e-01 +7.3561404605535614e+00 +4.8969342016984219e-02 -3.3226196785051187e+01 -6.6139452789043380e+03 -4.5778808178718493e+04 +1.6360112864634885e+07 
-5.9999999999999998e-01 -5.3712228301678766e-01 +7.3561153669609514e+00 +5.4061899210041717e-02 -3.2705576301339761e+01 -6.6218652463249446e+03 -4.8012389730787778e+04 +1.6275130149180634e+07 
-6.9999999999999996e-01 -5.3712257569781030e-01 +7.3560907012292045e+00 +5.9999747589981146e-02 -3.2210231970730526e+01 -6.6345860263166369e+03 -5.0114699758959403e+04 +1.6189296176901225e+07 
-8.0000000000000004e-01 -5.3712288844613298e-01 +7.3560667876088086e+00 +6.6690867965739753e-02 -3.1743628644431933e+01 -6.6516576193263600e+03 -5.2077983710099179e+04 +1.6102494347712373e+07 
-9.0000000000000002e-01 -5.3712321853509615e-01 +7.3560439503369910e+00 +7.4043242855640609e-02 -3.1309230814126288e+01 -6.6726300512591361e+03 -5.3894488973169820e+04 +1.6014608163843263e+07 
-1.0000000000000000e+00 -5.3712356323802124e-01 +7.3560225136565194e+00 +8.1964855214339397e-02 -3.0910503134379567e+01 -6.6970533517321037e+03 -5.5556461905651187e+04 +1.5925521135649374e+07 
-1.1000000000000001e+00 -5.3712391982829732e-01 +7.3560028018042347e+00 +9.0363688494156255e-02 -3.0550910067210438e+01 -6.7244775501034655e+03 -5.7056149946237681e+04 +1.5835116751652921e+07 
-1.2000000000000000e+00 -5.3712428557929914e-01 +7.3559851390171778e+00 +9.9147727078945883e-02 -3.0233916049218923e+01 -6.7544526871832823e+03 -5.8385800679950131e+04 +1.5743278542433601e+07 
-1.3000000000000000e+00 -5.3712465776438156e-01 +7.3559698495397843e+00 +1.0822495500704057e-01 -2.9962985667835479e+01 -6.7865287870602051e+03 -5.9537660901921241e+04 +1.5649889938492313e+07 
-1.3999999999999999e+00 -5.3712503365700726e-01 +7.3559572576128307e+00 +1.1750335806909630e-01 -2.9741583342854760e+01 -6.8202558964373802e+03 -6.0503978443242791e+04 +1.5554834458282677e+07 
-1.5000000000000000e+00 -5.3712541053052976e-01 +7.3559476874794347e+00 +1.2689092392299009e-01 -2.9573173460057685e+01 -6.8551840870917549e+03 -6.1277001519948615e+04 +1.5457995720473111e+07 
-1.6000000000000001e+00 -5.3712578565842883e-01 +7.3559414633946547e+00 +1.3629563751823481e-01 -2.9461220645462671e+01 -6.8908633676713062e+03 -6.1848977134733163e+04 +1.5359257023393486e+07 
-1.7000000000000000e+00 -5.3712615631418692e-01 +7.3559389096133234e+00 +1.4562548891249452e-01 -2.9409189385088300e+01 -6.9268438303700705e+03 -6.2212153361921104e+04 +1.5258502039404321e+07 
-1.8000000000000000e+00 -5.3712651977128789e-01 +7.3559403503997398e+00 +1.5478846650385089e-01 -2.9420544297086760e+01 -6.9626755230998033e+03 -6.2358777789582964e+04 +1.5155614208233574e+07 
-1.8999999999999999e+00 -5.3712687330323772e-01 +7.3559461100262595e+00 +1.6369256220666903e-01 -2.9498750056615844e+01 -6.9979085441940060e+03 -6.2281098044363454e+04 +1.5050477181907928e+07 
-2.0000000000000000e+00 -5.3712721418359433e-01 +7.3559565127734388e+00 +1.7224576565579444e-01 -2.9647271400684978e+01 -7.0320929349504586e+03 -6.1971361753065037e+04 +1.4942974321064178e+07 
-2.1000000000000001e+00 -5.3712754026371679e-01 +7.3559717524804880e+00 +1.8037023128942009e-01 -2.9867718256955865e+01 -7.0648432140699488e+03 -6.1427742198627893e+04 +1.4833111681097129e+07 
-2.2000000000000002e+00 -5.3712785170602340e-01 +7.3559915085616030e+00 +1.8804651444412737e-01 -3.0154447461394387e+01 -7.0960564103183133e+03 -6.0671628820919112e+04 +1.4721464274297128e+07 
-2.2999999999999998e+00 -5.3712814925075192e-01 +7.3560153336662477e+00 +1.9527020511496046e-01 -3.0500045015523249e+01 -7.1257062829970473e+03 -5.9730086243214122e+04 +1.4608768924734920e+07 
-2.3999999999999999e+00 -5.3712843363806695e-01 +7.3560427804423023e+00 +2.0203688812316556e-01 -3.0897096810306323e+01 -7.1537664972172624e+03 -5.8630179998155065e+04 +1.4495762019473376e+07 
-2.5000000000000000e+00 -5.3712870560814219e-01 +7.3560734015440898e+00 +2.0834215305372913e-01 -3.1338188881520491e+01 -7.1802108148904190e+03 -5.7398974998498830e+04 +1.4383180422629777e+07 
-2.6000000000000001e+00 -5.3712896590114645e-01 +7.3561067496349093e+00 +2.1418158354541814e-01 -3.1815907462122212e+01 -7.2050128960075499e+03 -5.6063535309339735e+04 +1.4271760541952167e+07 
-2.7000000000000002e+00 -5.3712921525723545e-01 +7.3561423773819170e+00 +2.1955076570287063e-01 -3.2322838854338890e+01 -7.2281464560232189e+03 -5.4650924856086189e+04 +1.4162239070205560e+07 
-2.7999999999999998e+00 -5.3712945441650339e-01 +7.3561798374574847e+00 +2.2444528277254239e-01 -3.2851569454188592e+01 -7.2495851691783901e+03 -5.3188207337618405e+04 +1.4055352535112640e+07 
-2.8999999999999999e+00 -5.3712968411909878e-01 +7.3562186825419360e+00 +2.2886071970737626e-01 -3.3394685852158794e+01 -7.2693027570861759e+03 -5.1702445606241687e+04 +1.3951837727274222e+07 
-3.0000000000000000e+00 -5.3712990510507674e-01 +7.3562584653220915e+00 +2.3279265455339154e-01 -3.3944774770701642e+01 -7.2872728236022240e+03 -5.0220702098951333e+04 +1.3852430908386208e+07 
-3.1000000000000001e+00 -5.3713011811448108e-01 +7.3562987384948144e+00 +2.3623666911125221e-01 -3.4494423183727456e+01 -7.3034690609202326e+03 -4.8770038122793099e+04 +1.3757868800359784e+07 
-3.2000000000000002e+00 -5.3713032388736737e-01 +7.3563390547568650e+00 +2.3918834235632760e-01 -3.5036218020573315e+01 -7.3178651280463018e+03 -4.7377515591160816e+04 +1.3668888016617298e+07 
-3.2999999999999998e+00 -5.3713052316371490e-01 +7.3563789668224464e+00 +2.4164324879743682e-01 -3.5562746675211962e+01 -7.3304346166873720e+03 -4.6070194091138881e+04 +1.3586224890423827e+07 
-3.3999999999999999e+00 -5.3713071668346257e-01 +7.3564180274052093e+00 +2.4359696414362461e-01 -3.6066596489752484e+01 -7.3411511644585698e+03 -4.4875133878945962e+04 +1.3510616026798189e+07 
-3.5000000000000000e+00 -5.3713090518655804e-01 +7.3564557892326583e+00 +2.4504506083871691e-01 -3.6540355167936305e+01 -7.3499883700738619e+03 -4.3819393514409159e+04 +1.3442797900672855e+07 
-3.6000000000000001e+00 -5.3713108941288945e-01 +7.3564918050372556e+00 +2.4598311030951844e-01 -3.6976610520970681e+01 -7.3569198384432166e+03 -4.2930031343703675e+04 +1.3383507074169785e+07 
-3.7000000000000002e+00 -5.3713127010225836e-01 +7.3565256275634550e+00 +2.4640667908036912e-01 -3.7367950677224819e+01 -7.3619191062543432e+03 -4.2234104286513772e+04 +1.3333479843013253e+07 
-3.7999999999999998e+00 -5.3713144799448842e-01 +7.3565568095604661e+00 +2.4631133328861626e-01 -3.7706963872011094e+01 -7.3649597328488780e+03 -4.1758669067934774e+04 +1.3293452679717416e+07 
-3.8999999999999999e+00 -5.3713162382931556e-01 +7.3565849037913882e+00 +2.4569263782775591e-01 -3.7986238712043743e+01 -7.3660152801841905e+03 -4.1530780714583132e+04 +1.3264162126958776e+07 
-4.0000000000000000e+00 -5.3713179834648150e-01 +7.3566094630283931e+00 +2.4454615234572610e-01 -3.8198364026346496e+01 -7.3650592464213978e+03 -4.1577493456294316e+04 +1.3246344508678155e+07 
-4.0999999999999996e+00 -5.3713197225320519e-01 +7.3566301236367080e+00 +2.4287844278581630e-01 -3.8337328008263427e+01 -7.3621406291009589e+03 -4.1920632393532964e+04 +1.3240658473818053e+07 
-4.2000000000000002e+00 -5.3713214612682236e-01 +7.3566468561725467e+00 +2.4073777159655846e-01 -3.8403050561534947e+01 -7.3575699562279078e+03 -4.2558554227126653e+04 +1.3247294471141074e+07 
-4.2999999999999998e+00 -5.3713232051214188e-01 +7.3566597147481980e+00 +2.3818224784800193e-01 -3.8397018164879597e+01 -7.3517125856594339e+03 -4.3483116614187486e+04 +1.3266282952693067e+07 
-4.4000000000000004e+00 -5.3713249595392731e-01 +7.3566687534751187e+00 +2.3526997911877101e-01 -3.8320717377391908e+01 -7.3449338521383579e+03 -4.4686176387654894e+04 +1.3297654266586620e+07 
-4.5000000000000000e+00 -5.3713267299694967e-01 +7.3566740264485180e+00 +2.3205907443991949e-01 -3.8175634400817508e+01 -7.3375991211532146e+03 -4.6159592051392174e+04 +1.3341438905576803e+07 
-4.5999999999999996e+00 -5.3713285218593310e-01 +7.3566755877532861e+00 +2.2860764098857128e-01 -3.7963255267193198e+01 -7.3300737268653429e+03 -4.7895222632881756e+04 +1.3397667214994913e+07 
-4.7000000000000002e+00 -5.3713303406566715e-01 +7.3566734914672169e+00 +2.2497378795696460e-01 -3.7685065931692868e+01 -7.3227230460354840e+03 -4.9884927141968576e+04 +1.3466369744917877e+07 
-4.7999999999999998e+00 -5.3713321918088830e-01 +7.3566677916469789e+00 +2.2121562210676832e-01 -3.7342551877857751e+01 -7.3159124129222755e+03 -5.2120566813197904e+04 +1.3547576841349656e+07 
-4.9000000000000004e+00 -5.3713340807630727e-01 +7.3566585423472048e+00 +2.1739125096180598e-01 -3.6937198675837678e+01 -7.3100071808728726e+03 -5.4594001838491349e+04 +1.3641318943888599e+07 
-5.0000000000000000e+00 -5.3713360129667187e-01 +7.3566457975976220e+00 +2.1355878013966817e-01 -3.6470491342359843e+01 -7.3053726658157393e+03 -5.7297095011163008e+04 +1.3747626298757434e+07 
-5.0999999999999996e+00 -5.3713379938670469e-01 +7.3566296114204830e+00 +2.0977632002074240e-01 -3.5943914836723991e+01 -7.3023742829251896e+03 -6.0221708863924941e+04 +1.3866529636835957e+07 
-5.2000000000000002e+00 -5.3713400289112578e-01 +7.3566100378171777e+00 +2.0610197416566367e-01 -3.5358953691608853e+01 -7.3013773167337122e+03 -6.3359707740106343e+04 +1.3998059052598096e+07 
-5.2999999999999998e+00 -5.3713421235464998e-01 +7.3565871307737920e+00 +2.0259384952493834e-01 -3.4717092182837860e+01 -7.3027471194298050e+03 -6.6702956782905225e+04 +1.4142244957814068e+07 
-5.4000000000000004e+00 -5.3713442832200498e-01 +7.3565609442602069e+00 +1.9931005512728694e-01 -3.4019814310195919e+01 -7.3068490849597792e+03 -7.0243322007851719e+04 +1.4299117957203059e+07 
-5.5000000000000000e+00 -5.3713465133785476e-01 +7.3565315322276765e+00 +1.9630869606979279e-01 -3.3268603732889922e+01 -7.3140485348429838e+03 -7.3972670658493997e+04 +1.4468708303070493e+07 
-5.5999999999999996e+00 -5.3713488194692161e-01 +7.3564989486049539e+00 +1.9364787822295071e-01 -3.2464943673013231e+01 -7.3247108050509387e+03 -7.7882871700658099e+04 +1.4651046302118424e+07 
-5.7000000000000002e+00 -5.3713512069389013e-01 +7.3564632473046441e+00 +1.9138571051902969e-01 -3.1610317103842636e+01 -7.3392012951095985e+03 -8.1965794723594969e+04 +1.4846162564841891e+07 
-5.7999999999999998e+00 -5.3713536812344742e-01 +7.3564244822182525e+00 +1.8958029557565881e-01 -3.0706206612956368e+01 -7.3578852820686006e+03 -8.6213310687057732e+04 +1.5054087095900601e+07 
-5.9000000000000004e+00 -5.3713562478030974e-01 +7.3563827072097725e+00 +1.8828974359817130e-01 -2.9754094233668980e+01 -7.3811281893260120e+03 -9.0617292852725164e+04 +1.5274850588902937e+07 
-5.9999999999999902e+00 -5.3713589120915151e-01 +7.3563379761292502e+00 +1.8757216027742532e-01 -2.8755461845229313e+01 -7.4092953577615372e+03 -9.5169614477138166e+04 +1.5508483332895834e+07 
-6.0999999999999899e+00 -5.3713616774772421e-01 +7.3562903951151251e+00 +1.8746767111828311e-01 -2.7712854292224726e+01 -7.4426156633106366e+03 -9.9857349557637790e+04 +1.5754800360371783e+07 
-6.1999999999999904e+00 -5.3713645391416076e-01 +7.3562402735740022e+00 +1.8794349696669563e-01 -2.6632478264124320e+01 -7.4807544961014901e+03 -1.0465184567248284e+05 +1.6012690187849870e+07 
-6.2999999999999901e+00 -5.3713674902347130e-01 +7.3561879702964683e+00 +1.8894838071163664e-01 -2.5521307654104362e+01 -7.5232330210036225e+03 -1.0952139567940685e+05 +1.6280799901341166e+07 
-6.3999999999999897e+00 -5.3713705239079890e-01 +7.3561338440893076e+00 +1.9043107034507864e-01 -2.4386316715694651e+01 -7.5695724921108085e+03 -1.1443429059973000e+05 +1.6557776993501194e+07 
-6.4999999999999902e+00 -5.3713736333122308e-01 +7.3560782537642559e+00 +1.9234031979071914e-01 -2.3234479732690367e+01 -7.6192942546481963e+03 -1.1935882160531882e+05 +1.6842269337611891e+07 
-6.5999999999999899e+00 -5.3713768115999017e-01 +7.3560215581492052e+00 +1.9462488545112988e-01 -2.2072771336546868e+01 -7.6719196856913459e+03 -1.2426327819500456e+05 +1.7132924921136390e+07 
-6.6999999999999904e+00 -5.3713800519241817e-01 +7.3559641160787246e+00 +1.9723353339896446e-01 -2.0908166226936530e+01 -7.7269703283592726e+03 -1.2911594982861365e+05 +1.7428392481810197e+07 
-6.7999999999999901e+00 -5.3713833474374484e-01 +7.3559062864091995e+00 +2.0011503074684037e-01 -1.9747639606499405e+01 -7.7839677271732317e+03 -1.3388512342608636e+05 +1.7727320721088365e+07 
-6.8999999999999897e+00 -5.3713866912945729e-01 +7.3558484280015808e+00 +2.0321815636915319e-01 -1.8598166674427258e+01 -7.8424336293514125e+03 -1.3853908631125651e+05 +1.8028359254712835e+07 
-6.9999999999999902e+00 -5.3713900766505074e-01 +7.3557908997340702e+00 +2.0649169079467006e-01 -1.7466722983505917e+01 -7.9018897921195221e+03 -1.4304612417624320e+05 +1.8330157695929389e+07 
-7.0999999999999899e+00 -5.3713934966601673e-01 +7.3557340605020523e+00 +2.0988442177213890e-01 -1.6360284440438615e+01 -7.9618580927757039e+03 -1.4737452108107746e+05 +1.8631366191661905e+07 
-7.1999999999999904e+00 -5.3713969444800314e-01 +7.3556782692124338e+00 +2.1334514634998200e-01 -1.5285827126888409e+01 -8.0218605573632631e+03 -1.5149256051917849e+05 +1.8930635528252650e+07 
-7.2999999999999901e+00 -5.3714004132671611e-01 +7.3556238847894253e+00 +2.1682266323589480e-01 -1.4250327464926293e+01 -8.0814192259125057e+03 -1.5536852447518526e+05 +1.9226616520887345e+07 
-7.3999999999999897e+00 -5.3714038961796862e-01 +7.3555712661729702e+00 +2.2026578424348348e-01 -1.3260762167953077e+01 -8.1400563598426406e+03 -1.5897069372070389e+05 +1.9517960972231388e+07 
-7.4999999999999902e+00 -5.3714073863760092e-01 +7.3555207723203688e+00 +2.2362332499379631e-01 -1.2324108274649378e+01 -8.1972942703045337e+03 -1.6226734764374662e+05 +1.9803320870222103e+07 
-7.5999999999999899e+00 -5.3714108770160029e-01 +7.3554727622047409e+00 +2.2684410930081086e-01 -1.1447343110181704e+01 -8.2526553972761303e+03 -1.6522676447411685e+05 +2.0081348753211804e+07 
-7.6999999999999904e+00 -5.3714143612598442e-01 +7.3554275948216814e+00 +2.2987696845562341e-01 -1.0637444454929110e+01 -8.3056622987962710e+03 -1.6781722036000958e+05 +2.0350697667102139e+07 
-7.7999999999999901e+00 -5.3714178322693573e-01 +7.3553856291784774e+00 +2.3267074028948109e-01 -9.9013902438370245e+00 -8.3558376278326796e+03 -1.7000699108093706e+05 +2.0610021041275211e+07 
-7.8999999999999897e+00 -5.3714212832064845e-01 +7.3553472243070548e+00 +2.3517427395102014e-01 -9.2461589273206162e+00 -8.4027042239769380e+03 -1.7176435000457766e+05 +2.0857973127712995e+07 
-7.9999999999999902e+00 -5.3714247072344956e-01 +7.3553127392574762e+00 +2.3733642510221692e-01 -8.6787292556230344e+00 -8.4457850223000387e+03 -1.7305756941621273e+05 +2.1093208564787116e+07 
-8.0999999999999908e+00 -5.3714280998534503e-01 +7.3552824621682316e+00 +2.3911423948883603e-01 -8.2043869658415947e+00 -8.4846331217936295e+03 -1.7386476699641920e+05 +2.1314286384339217e+07 
-8.1999999999999904e+00 -5.3714314656361162e-01 +7.3552564111356311e+00 +2.4049743436593182e-01 -7.8221586583861944e+00 -8.5189329092748922e+03 -1.7420070584896547e+05 +2.1519514389767576e+07 
-8.2999999999999901e+00 -5.3714348113572008e-01 +7.3552345399566459e+00 +2.4148385012939111e-01 -7.5296277238553486e+00 -8.5484029752067781e+03 -1.7408869236890468e+05 +2.1707163524885245e+07 
-8.3999999999999897e+00 -5.3714381437908920e-01 +7.3552168024212223e+00 +2.4207132128757275e-01 -7.3243774594634878e+00 -8.5727617651661112e+03 -1.7355203330141652e+05 +2.1875503999483142e+07 
-8.4999999999999893e+00 -5.3714414697119872e-01 +7.3552031523292456e+00 +2.4225768122867936e-01 -7.2039915522438243e+00 -8.5917276748778168e+03 -1.7261403283721258e+05 +2.2022805742333341e+07 
-8.5999999999999908e+00 -5.3714447958942080e-01 +7.3551935434653233e+00 +2.4204075352030738e-01 -7.1660533678547935e+00 -8.6050188791374821e+03 -1.7129799667732956e+05 +2.2147337574300367e+07 
-8.6999999999999904e+00 -5.3714481291118688e-01 +7.3551879296170943e+00 +2.4141835995513092e-01 -7.2081464740151873e+00 -8.6123534870020903e+03 -1.6962722901836724e+05 +2.2247367953123920e+07 
-8.7999999999999794e+00 -5.3714514761386123e-01 +7.3551862645680055e+00 +2.4038831447406067e-01 -7.3278544362217346e+00 -8.6134494225147155e+03 -1.6762503373035125e+05 +2.2321164395252414e+07 
-8.8999999999999808e+00 -5.3714548437477405e-01 +7.3551885021014778e+00 +2.3894842722941920e-01 -7.5227609506752540e+00 -8.6080245049967489e+03 -1.6531471353938041e+05 +2.2366993870735668e+07 
-8.9999999999999805e+00 -5.3714582387127285e-01 +7.3551945959936091e+00 +2.3709650155349860e-01 -7.7904496184086751e+00 -8.5957963907071862e+03 -1.6271957138737148e+05 +2.2383122520506572e+07 
-9.0999999999999801e+00 -5.3714616678064053e-01 +7.3552045000196493e+00 +2.3483033222678887e-01 -8.1285041610901416e+00 -8.5764825312771663e+03 -1.5986290909422774e+05 +2.2367815439485993e+07 
-9.1999999999999797e+00 -5.3714651378014067e-01 +7.3552181679498378e+00 +2.3214771290454583e-01 -8.5345082827240315e+00 -8.5498003266343694e+03 -1.5676802821627547e+05 +2.2319337435153067e+07 
-9.2999999999999794e+00 -5.3714686554702873e-01 +7.3552355535523342e+00 +2.2904642584437029e-01 -9.0060457707310508e+00 -8.5154669178887161e+03 -1.5345822940524234e+05 +2.2235952012689039e+07 
-9.3999999999999808e+00 -5.3714722275852822e-01 +7.3552566105921073e+00 +2.2552424996344006e-01 -9.5407004613593394e+00 -8.4731993460771046e+03 -1.4995681262877892e+05 +2.2115922143551808e+07 
-9.4999999999999805e+00 -5.3714758609180324e-01 +7.3552812928264242e+00 +2.2157895374104530e-01 -1.0136056115836942e+01 -8.4227144154696707e+03 -1.4628707785219850e+05 +2.1957509614566229e+07 
-9.5999999999999801e+00 -5.3714795622396694e-01 +7.3553095540112094e+00 +2.1720830206685149e-01 -1.0789696614587104e+01 -8.3637288176169986e+03 -1.4247232389893741e+05 +2.1758975600935135e+07 
-9.6999999999999797e+00 -5.3714833383221605e-01 +7.3553413478982952e+00 +2.1241005127603882e-01 -1.1499205861358835e+01 -8.2959590479306171e+03 -1.3853584904247240e+05 +2.1518580299933873e+07 
-9.7999999999999794e+00 -5.3714871959357224e-01 +7.3553766282374156e+00 +2.0718194855413546e-01 -1.2262167865129573e+01 -8.2191213794211744e+03 -1.3450095047056756e+05 +2.1234582766497795e+07 
-9.8999999999999808e+00 -5.3714911418512290e-01 +7.3554153487687097e+00 +2.0152173601984744e-01 -1.3076166522124799e+01 -8.1329319497372890e+03 -1.3039092554256531e+05 +2.0905241354835212e+07 
-9.9999999999999805e+00 -5.3714951828386492e-01 +7.3554574632330540e+00 +1.9542714468749717e-01 -1.3938785944501632e+01 -8.0371066440888699e+03 -1.2622906940415027e+05 +2.0528813193138078e+07 
-1.0100000000000000e+01 -5.3714993236191655e-01 +7.3555028802033915e+00 +1.8890557303139566e-01 -1.4847159359039212e+01 -7.9315757532508815e+03 -1.2203647113203272e+05 +2.0104614234070286e+07 
