# multipoles
# s[mm] polynom_b[n=0][T/m^n] polynom_b[n=1][T/m^n] polynom_b[n=2][T/m^n] polynom_b[n=3][T/m^n] polynom_b[n=4][T/m^n] polynom_b[n=5][T/m^n] polynom_b[n=6][T/m^n] 
-0.0000000000000000e+00 -5.6488969804819478e-01 +7.7440124858219725e+00 -4.8078964637582938e-01 -3.6102957182451831e+01 +5.6014426865561936e+03 +5.7744299568829047e+03 -3.3394701950355407e+07 
-1.0000000000000001e-01 -5.6488955457138934e-01 +7.7440086066477694e+00 -4.8645292238046312e-01 -3.5809434800666146e+01 +5.6825423102229088e+03 +4.0330377588039432e+03 -3.3761676734716482e+07 
-2.0000000000000001e-01 -5.6488941025765305e-01 +7.7440082207841776e+00 -4.9214066913071713e-01 -3.5630696215975973e+01 +5.7650663502026291e+03 +2.9880524316004949e+03 -3.4137976049610451e+07 
-2.9999999999999999e-01 -5.6488926620762459e-01 +7.7440110538023239e+00 -4.9782184711236110e-01 -3.5559395452630454e+01 +5.8485228935442092e+03 +2.5972890947282390e+03 -3.4521032663494118e+07 
-4.0000000000000002e-01 -5.6488912352189380e-01 +7.7440168312816535e+00 -5.0346541753190655e-01 -3.5588186796615162e+01 +5.9324200436810634e+03 +2.8185644360526981e+03 -3.4908279440627091e+07 
-5.0000000000000000e-01 -5.6488898330114956e-01 +7.7440252787945552e+00 -5.0904033651108538e-01 -3.5709724333917734e+01 +6.0162658087834361e+03 +3.6096939910505143e+03 -3.5297148803236455e+07 
-5.9999999999999998e-01 -5.6488884664602901e-01 +7.7440361219142160e+00 -5.1451556243922303e-01 -3.5916662199333608e+01 +6.0995682401851727e+03 +4.9284936306207128e+03 -3.5685073389223501e+07 
-6.9999999999999996e-01 -5.6488871465718371e-01 +7.7440490862128657e+00 -5.1986004822821696e-01 -3.6201654501517993e+01 +6.1818352854422164e+03 +6.7327790415863483e+03 -3.6069485349683180e+07 
-8.0000000000000004e-01 -5.6488858843530421e-01 +7.7440638972662716e+00 -5.2504274892849434e-01 -3.6557355487240315e+01 +6.2625749339824588e+03 +8.9803667802687214e+03 -3.6447817045894966e+07 
-9.0000000000000002e-01 -5.6488846908107848e-01 +7.7440802806413549e+00 -5.3003261555376557e-01 -3.6976419161167243e+01 +6.3412950953716381e+03 +1.1629071984462571e+04 -3.6817500456982888e+07 
-1.0000000000000000e+00 -5.6488835769514623e-01 +7.7440979619106249e+00 -5.3479860216241171e-01 -3.7451499712200714e+01 +6.4175037420694407e+03 +1.4636710864575218e+04 -3.7175967879807420e+07 
-1.1000000000000001e+00 -5.6488825537823217e-01 +7.7441166666437828e+00 -5.3930965816644594e-01 -3.7975251283935364e+01 +6.4907087533669592e+03 +1.7961099404235210e+04 -3.7520651160313673e+07 
-1.2000000000000000e+00 -5.6488816323099689e-01 +7.7441361204065728e+00 -5.4353473730087443e-01 -3.8540327932193485e+01 +6.5604180891549076e+03 +2.1560053067073419e+04 -3.7848982527358413e+07 
-1.3000000000000000e+00 -5.6488808235410892e-01 +7.7441560487695398e+00 -5.4744278858490480e-01 -3.9139383883413736e+01 +6.6261396223379552e+03 +2.5391388314092601e+04 -3.8158393807031527e+07 
-1.3999999999999999e+00 -5.6488801384825826e-01 +7.7441761772967723e+00 -5.5100276850113461e-01 -3.9765073210594196e+01 +6.6873813640489898e+03 +2.9412920704692304e+04 -3.8446317475978680e+07 
-1.5000000000000000e+00 -5.6488795881403697e-01 +7.7441962315553043e+00 -5.5418362743077210e-01 -4.0410050113783726e+01 +6.7436512062275024e+03 +3.3582466552422207e+04 -3.8710185436852962e+07 
-1.6000000000000001e+00 -5.6488791835214069e-01 +7.7442159371056736e+00 -5.5695432050714200e-01 -4.1066968641330156e+01 +6.7944571324208300e+03 +3.7857841269192591e+04 -3.8947430032969847e+07 
-1.7000000000000000e+00 -5.6488789356320079e-01 +7.7442350195136713e+00 -5.5928380294539437e-01 -4.1728483045575018e+01 +6.8393071232290504e+03 +4.2196861471097924e+04 -3.9155483582605802e+07 
-1.8000000000000000e+00 -5.6488788554783231e-01 +7.7442532043389889e+00 -5.6114103157162931e-01 -4.2387247432902683e+01 +6.8777091860178425e+03 +4.6557342875143200e+04 -3.9331778520697847e+07 
-1.8999999999999999e+00 -5.6488789540658735e-01 +7.7442702171405289e+00 -5.6249496749011940e-01 -4.3035915948326320e+01 +6.9091714110874354e+03 +5.0897101448141380e+04 -3.9473747680551559e+07 
-2.0000000000000000e+00 -5.6488792424006662e-01 +7.7442857834769248e+00 -5.6331457191140344e-01 -4.3667142770488802e+01 +6.9332018840698984e+03 +5.5173953310691315e+04 -3.9578823853657283e+07 
-2.1000000000000001e+00 -5.6488797272203162e-01 +7.7442996984330206e+00 -5.6358001237160293e-01 -4.4275176213420742e+01 +6.9494555730599195e+03 +5.9353839189931226e+04 -3.9645207265229225e+07 
-2.2000000000000002e+00 -5.6488803982277758e-01 +7.7443120321648129e+00 -5.6331668540601432e-01 -4.4860656794330609e+01 +6.9581858284432428e+03 +6.3435697740293683e+04 -3.9674225555236153e+07 
-2.2999999999999998e+00 -5.6488812408778677e-01 +7.7443229228717803e+00 -5.6256138810980727e-01 -4.5425827983857452e+01 +6.9597982282813891e+03 +6.7426847613854668e+04 -3.9668002612138726e+07 
-2.3999999999999999e+00 -5.6488822406249828e-01 +7.7443325087471617e+00 -5.6135091901774603e-01 -4.5972933046823641e+01 +6.9546983774881965e+03 +7.1334606270748380e+04 -3.9628662448975869e+07 
-2.5000000000000000e+00 -5.6488833829233642e-01 +7.7443409279875537e+00 -5.5972207566587462e-01 -4.6504215305845001e+01 +6.9432918681983692e+03 +7.5166291480025175e+04 -3.9558329032431610e+07 
-2.6000000000000001e+00 -5.6488846532278025e-01 +7.7443483187883020e+00 -5.5771165604056361e-01 -4.7021918010877677e+01 +6.9259843063871558e+03 +7.8929220586167648e+04 -3.9459126407096654e+07 
-2.7000000000000002e+00 -5.6488860369927441e-01 +7.7443548193425400e+00 -5.5535645919553378e-01 -4.7528284287258224e+01 +6.9031813211563849e+03 +8.2630710157715337e+04 -3.9333178730802007e+07 
-2.7999999999999998e+00 -5.6488875196725641e-01 +7.7443605678491068e+00 -5.5269328200494883e-01 -4.8025557384019400e+01 +6.8752885068584292e+03 +8.6278077499116785e+04 -3.9182610010989547e+07 
-2.8999999999999999e+00 -5.6488890867221331e-01 +7.7443657025025523e+00 -5.4975892252124969e-01 -4.8515980354853262e+01 +6.8427114845388414e+03 +8.9878638732961481e+04 -3.9009544389705442e+07 
-3.0000000000000000e+00 -5.6488907235961805e-01 +7.7443703615021073e+00 -5.4659017797115772e-01 -4.9001796320984774e+01 +6.8058558692713577e+03 +9.3439710345098472e+04 -3.8816106001398511e+07 
-3.1000000000000001e+00 -5.6488924157490039e-01 +7.7443746830396414e+00 -5.4322384770976639e-01 -4.9485248122535644e+01 +6.7651273201914028e+03 +9.6968607191572883e+04 -3.8604419195305221e+07 
-3.2000000000000002e+00 -5.6488941486359767e-01 +7.7443788053223361e+00 -5.3969672531864432e-01 -4.9968578947343033e+01 +6.7209313947675309e+03 +1.0047264606505568e+05 -3.8376607852651417e+07 
-3.2999999999999998e+00 -5.6488959077115874e-01 +7.7443828665436172e+00 -5.3604561295880770e-01 -5.0454031511354117e+01 +6.6736738234456679e+03 +1.0395914104411242e+05 -3.8134796698985197e+07 
-3.3999999999999999e+00 -5.6488976784309164e-01 +7.7443870049073436e+00 -5.3230730222340261e-01 -5.0943848730564582e+01 +6.6237601410097168e+03 +1.0743540730438715e+05 -3.7881109536071464e+07 
-3.5000000000000000e+00 -5.6488994462491360e-01 +7.7443913586129192e+00 -5.2851859191135886e-01 -5.1440273292204282e+01 +6.5715960309928478e+03 +1.1090875867175953e+05 -3.7617670897038437e+07 
-3.6000000000000001e+00 -5.6489011966214264e-01 +7.7443960658618147e+00 -5.2471627763110729e-01 -5.1945547836915580e+01 +6.5175871240376846e+03 +1.1438650866181529e+05 -3.7346605079245612e+07 
-3.7000000000000002e+00 -5.6489029150029424e-01 +7.7444012648623799e+00 -5.2093715279095187e-01 -5.2461915087908849e+01 +6.4621390171407475e+03 +1.1787597122823118e+05 -3.7070036231664792e+07 
-3.7999999999999998e+00 -5.6489045868492149e-01 +7.7444070938168137e+00 -5.1721801454496019e-01 -5.2991617471092390e+01 +6.4056573927642485e+03 +1.2138445856743235e+05 -3.6790088941244639e+07 
-3.8999999999999999e+00 -5.6489061976155641e-01 +7.7444136909339170e+00 -5.1359565653497730e-01 -5.3536897479948927e+01 +6.3485478764406271e+03 +1.2491928323299982e+05 -3.6508887541427702e+07 
-4.0000000000000000e+00 -5.6489077327581916e-01 +7.7444211944219683e+00 -5.1010687271211996e-01 -5.4099997455372261e+01 +6.2912161074401838e+03 +1.2848775686354103e+05 -3.6228556440438554e+07 
-4.0999999999999996e+00 -5.6489091821407111e-01 +7.7444297096847476e+00 -5.0677967640347110e-01 -5.4682136093542091e+01 +6.2340172512495483e+03 +1.3209248730616632e+05 -3.5950990826685160e+07 
-4.2000000000000002e+00 -5.6489105532387263e-01 +7.7444392211545052e+00 -5.0360641513809601e-01 -5.5280572874331661e+01 +6.1770834686323333e+03 +1.3571714354384743e+05 -3.5677071429152548e+07 
-4.2999999999999998e+00 -5.6489118579254682e-01 +7.7444496855302711e+00 -5.0057040315495793e-01 -5.5891609366659075e+01 +6.1204861775192048e+03 +1.3934062349638515e+05 -3.5407401113217168e+07 
-4.4000000000000004e+00 -5.6489131080739807e-01 +7.7444610595117531e+00 -4.9765495394063175e-01 -5.6511547221500372e+01 +6.0642967738986135e+03 +1.4294182566053205e+05 -3.5142582604097404e+07 
-4.5000000000000000e+00 -5.6489143155568888e-01 +7.7444732997903296e+00 -4.9484338763468483e-01 -5.7136687946054529e+01 +6.0085867802722623e+03 +1.4649964788872129e+05 -3.4883219212677173e+07 
-4.5999999999999996e+00 -5.6489154922467022e-01 +7.7444863630595115e+00 -4.9211902370382793e-01 -5.7763333196612955e+01 +5.9534277055282464e+03 +1.4999298904684765e+05 -3.4629914165608674e+07 
-4.7000000000000002e+00 -5.6489166500162658e-01 +7.7445002059970429e+00 -4.8946518558726465e-01 -5.8387784279588558e+01 +5.8988911297486748e+03 +1.5340074617446971e+05 -3.4383270999595270e+07 
-4.7999999999999998e+00 -5.6489178007382657e-01 +7.7445147852900709e+00 -4.8686519665142147e-01 -5.9006342876343361e+01 +5.8450486296649315e+03 +1.5670181865459730e+05 -3.4143893210989080e+07 
-4.9000000000000004e+00 -5.6489189562847608e-01 +7.7445300576135496e+00 -4.8430238572238038e-01 -5.9615310432480996e+01 +5.7919718816769919e+03 +1.5987510471745598e+05 -3.3912384742061354e+07 
-5.0000000000000000e+00 -5.6489201285284463e-01 +7.7445459796349594e+00 -4.8176008234080181e-01 -6.0210988291291613e+01 +5.7397325726087292e+03 +1.6289950218153448e+05 -3.3689349554676466e+07 
-5.0999999999999996e+00 -5.6489213293412810e-01 +7.7445625080218550e+00 -4.7922161974584948e-01 -6.0789677931078650e+01 +5.6884024559342924e+03 +1.6575390988708907e+05 -3.3475391898386545e+07 
-5.2000000000000002e+00 -5.6489225705957946e-01 +7.7445795994362463e+00 -4.7667033238176421e-01 -6.1347680804849375e+01 +5.6380533042266961e+03 +1.6841722674967349e+05 -3.3271116082724754e+07 
-5.2999999999999998e+00 -5.6489238641638595e-01 +7.7445972105294745e+00 -4.7408956116861301e-01 -6.1881298194265732e+01 +5.5887570075931162e+03 +1.7086835092246463e+05 -3.3077126939028610e+07 
-5.4000000000000004e+00 -5.6489252219175834e-01 +7.7446152979511398e+00 -4.7146264562292206e-01 -6.2386831481328414e+01 +5.5405854257161936e+03 +1.7308618138849852e+05 -3.2894029121958870e+07 
-5.5000000000000000e+00 -5.6489266557283735e-01 +7.7446338183445977e+00 -4.6877293210271642e-01 -6.2860582021159786e+01 +5.4936105416009141e+03 +1.7504961723093578e+05 -3.2722427830463357e+07 
-5.5999999999999996e+00 -5.6489281774682720e-01 +7.7446527283451765e+00 -4.6600376798707344e-01 -6.3298851098560228e+01 +5.4479043546902467e+03 +1.7673755738793151e+05 -3.2562928311591946e+07 
-5.7000000000000002e+00 -5.6489297990085263e-01 +7.7446719845827889e+00 -4.6313850504158183e-01 -6.3697940006325680e+01 +5.4035389394362601e+03 +1.7812890110836370e+05 -3.2416136121341720e+07 
-5.7999999999999998e+00 -5.6489315322208611e-01 +7.7446915436833681e+00 -4.6016049801585596e-01 -6.4054150104806894e+01 +5.3605864211113485e+03 +1.7920254833661832e+05 -3.2282657015691064e+07 
-5.9000000000000004e+00 -5.6489333889764737e-01 +7.7447113622591468e+00 -4.5705310654032572e-01 -6.4363782531195184e+01 +5.3191190118214645e+03 +1.7993739799373120e+05 -3.2163097122698456e+07 
-5.9999999999999902e+00 -5.6489353811466381e-01 +7.7447313969224298e+00 -4.5379969135130233e-01 -6.4623138630467466e+01 +5.2792089368654979e+03 +1.8031235049437010e+05 -3.2058062588393763e+07 
-6.0999999999999899e+00 -5.6489375170499645e-01 +7.7447516018363496e+00 -4.5038884933335577e-01 -6.4829731163115085e+01 +5.2408830860186172e+03 +1.8031489773903132e+05 -3.1967739987640612e+07 
-6.1999999999999904e+00 -5.6489397909517469e-01 +7.7447719026316859e+00 -4.4682771354025536e-01 -6.4985452733747636e+01 +5.2039893012005477e+03 +1.7996479245153556e+05 -3.1890756267484840e+07 
-6.2999999999999901e+00 -5.6489421936408046e-01 +7.7447922132218538e+00 -4.4312741850927018e-01 -6.5093184852312746e+01 +5.1683304126773983e+03 +1.7928938985182613e+05 -3.1825374536846552e+07 
-6.3999999999999897e+00 -5.6489447159069628e-01 +7.7448124475331603e+00 -4.3929909384605781e-01 -6.5155809307941894e+01 +5.1337091430686942e+03 +1.7831604643264433e+05 -3.1769857386815049e+07 
-6.4999999999999902e+00 -5.6489473485386776e-01 +7.7448325194958381e+00 -4.3535386525679376e-01 -6.5176207906153522e+01 +5.0999281229166118e+03 +1.7707211843500379e+05 -3.1722466955066685e+07 
-6.5999999999999899e+00 -5.6489500823256389e-01 +7.7448523430505025e+00 -4.3130285704663013e-01 -6.5157262639680269e+01 +5.0667899384524671e+03 +1.7558496279864045e+05 -3.1681465156399690e+07 
-6.6999999999999904e+00 -5.6489529080575562e-01 +7.7448718321447840e+00 -4.2715718637956879e-01 -6.5101855596692175e+01 +5.0340970219132723e+03 +1.7388193663942858e+05 -3.1645113159554757e+07 
-6.7999999999999901e+00 -5.6489558165230735e-01 +7.7448909007339557e+00 -4.2292796569224811e-01 -6.5012868967187842e+01 +5.0016516966593808e+03 +1.7199039725268044e+05 -3.1611671603440329e+07 
-6.8999999999999897e+00 -5.6489587985121326e-01 +7.7449094627872235e+00 -4.1862630521218103e-01 -6.4893185218829601e+01 +4.9692562257930458e+03 +1.6993770311041115e+05 -3.1579400829944190e+07 
-6.9999999999999902e+00 -5.6489618448143408e-01 +7.7449274322776427e+00 -4.1426331115710813e-01 -6.4745686802585297e+01 +4.9367127715402221e+03 +1.6775121215055729e+05 -3.1546560676699173e+07 
-7.0999999999999899e+00 -5.6489649462190028e-01 +7.7449447231919200e+00 -4.0985007949596530e-01 -6.4573256429916569e+01 +4.9038232854876751e+03 +1.6545828335918448e+05 -3.1511409979469776e+07 
-7.1999999999999904e+00 -5.6489680935154485e-01 +7.7449612495266935e+00 -4.0539770789133356e-01 -6.4378776959145000e+01 +4.8703897260243120e+03 +1.6308627608929272e+05 -3.1472207583284669e+07 
-7.2999999999999901e+00 -5.6489712774937706e-01 +7.7449769252870722e+00 -4.0091728386526554e-01 -6.4165131349099411e+01 +4.8362138383811707e+03 +1.6066254979591144e+05 -3.1427211309999589e+07 
-7.3999999999999897e+00 -5.6489744889437121e-01 +7.7449916644925096e+00 -3.9641989092039182e-01 -6.3935202827555862e+01 +4.8010972676361871e+03 +1.5821446498583278e+05 -3.1374678489854190e+07 
-7.4999999999999902e+00 -5.6489777186547563e-01 +7.7450053811704000e+00 -3.9191660757261126e-01 -6.3691874688621724e+01 +4.7648415411733813e+03 +1.5576938200272116e+05 -3.1312865880556364e+07 
-7.5999999999999899e+00 -5.6489809574170680e-01 +7.7450179893619362e+00 -3.8741850576742937e-01 -6.3438030477570209e+01 +4.7272480366229447e+03 +1.5335466213938117e+05 -3.1240029512555894e+07 
-7.6999999999999904e+00 -5.6489841960203813e-01 +7.7450294031224960e+00 -3.8293665062851046e-01 -6.3176553968915520e+01 +4.6881179767245558e+03 +1.5099766740934679e+05 -3.1154424663591921e+07 
-7.7999999999999901e+00 -5.6489874252551653e-01 +7.7450395365148239e+00 -3.7848210348066008e-01 -6.2910328991295920e+01 +4.6472524870917541e+03 +1.4872575960376690e+05 -3.1054306137720179e+07 
-7.8999999999999897e+00 -5.6489906359110398e-01 +7.7450483036191979e+00 -3.7406591648100468e-01 -6.2642239700912555e+01 +4.6044524927012480e+03 +1.4656630180159499e+05 -3.0937927770077113e+07 
-7.9999999999999902e+00 -5.6489938187782385e-01 +7.7450556185269779e+00 -3.6969913601446436e-01 -6.2375170357835543e+01 +4.5595187859356147e+03 +1.4454665692930872e+05 -3.0803542767638415e+07 
-8.0999999999999908e+00 -5.6489969654247896e-01 +7.7450613927781227e+00 -3.6539953392767527e-01 -6.2110980512244318e+01 +4.5124376962958549e+03 +1.4268553273728982e+05 -3.0650431530810166e+07 
-8.1999999999999904e+00 -5.6490000702263665e-01 +7.7450655464241516e+00 -3.6121608233354213e-01 -6.1847930885029442e+01 +4.4639727813555546e+03 +1.4097000595673156e+05 -3.0481965661367435e+07 
-8.2999999999999901e+00 -5.6490031281849873e-01 +7.7450680062530495e+00 -3.5720668538298589e-01 -6.1583493491684365e+01 +4.4150921339021434e+03 +1.3937986997793114e+05 -3.0302543715305883e+07 
-8.3999999999999897e+00 -5.6490061343024101e-01 +7.7450686990599937e+00 -3.5342924742768533e-01 -6.1315140499216056e+01 +4.3667638580641478e+03 +1.3789491900852564e+05 -3.0116564306908067e+07 
-8.4999999999999893e+00 -5.6490090835802387e-01 +7.7450675516614336e+00 -3.4994168151651012e-01 -6.1040344650661687e+01 +4.3199562335989485e+03 +1.3649495057688319e+05 -2.9928426905272990e+07 
-8.5999999999999908e+00 -5.6490119710191367e-01 +7.7450644908819584e+00 -3.4680190586902804e-01 -6.0756578876532032e+01 +4.2756376476852656e+03 +1.3515976327132748e+05 -2.9742531501749564e+07 
-8.6999999999999904e+00 -5.6490147916201927e-01 +7.7450594435661539e+00 -3.4406784101332855e-01 -6.0461316643480309e+01 +4.2347765494138494e+03 +1.3386915877630532e+05 -2.9563278421879638e+07 
-8.7999999999999794e+00 -5.6490175403833154e-01 +7.7450523365747408e+00 -3.4179741830348248e-01 -6.0152031849470809e+01 +4.1983415990541580e+03 +1.3260294128752089e+05 -2.9395068997123636e+07 
-8.8999999999999808e+00 -5.6490202123080513e-01 +7.7450430967786552e+00 -3.4004857068475969e-01 -5.9826198634053711e+01 +4.1673015027656029e+03 +1.3134091636733629e+05 -2.9242304807196599e+07 
-8.9999999999999805e+00 -5.6490228023939160e-01 +7.7450316510743189e+00 -3.3887923891077604e-01 -5.9481291828425604e+01 +4.1426251285278686e+03 +1.3006289357618026e+05 -2.9109388224525109e+07 
-9.0999999999999801e+00 -5.6490253056396789e-01 +7.7450179263691581e+00 -3.3834736990695019e-01 -5.9114786544315777e+01 +4.1252814748612418e+03 +1.2874868412412905e+05 -2.9000722264646817e+07 
-9.1999999999999797e+00 -5.6490277170433356e-01 +7.7450018495837520e+00 -3.3851091662536070e-01 -5.8724158230930804e+01 +4.1162396664264388e+03 +1.2737810117678998e+05 -2.8920710560062755e+07 
-9.2999999999999794e+00 -5.6490300316030495e-01 +7.7449833476646424e+00 -3.3942783825713252e-01 -5.8306883028924517e+01 +4.1164689667940620e+03 +1.2593096187914805e+05 -2.8873757444396947e+07 
-9.3999999999999808e+00 -5.6490322443160901e-01 +7.7449623475717413e+00 -3.4115610170699995e-01 -5.7860437434725405e+01 +4.1269387987690570e+03 +1.2438708548620458e+05 -2.8864268027358089e+07 
-9.4999999999999805e+00 -5.6490343501791507e-01 +7.7449387762819866e+00 -3.4375368130753758e-01 -5.7382298375556502e+01 +4.1486187405484097e+03 +1.2272629371235194e+05 -2.8896648180424668e+07 
-9.5999999999999801e+00 -5.6490363441880431e-01 +7.7449125607961289e+00 -3.4727855595513463e-01 -5.6869943432127108e+01 +4.1824784738054914e+03 +1.2092841211101356e+05 -2.8975304296429995e+07 
-9.6999999999999797e+00 -5.6490382213392853e-01 +7.7448836281273934e+00 -3.5178871439325343e-01 -5.6320850493770052e+01 +4.2294878869998383e+03 +1.1897326802238009e+05 -2.9104643787098419e+07 
-9.7999999999999794e+00 -5.6490399766275157e-01 +7.7448519053128573e+00 -3.5734215111376150e-01 -5.5732498086583234e+01 +4.2906169917822863e+03 +1.1684069247916492e+05 -2.9289074671167206e+07 
-9.8999999999999808e+00 -5.6490416050474557e-01 +7.7448173194048469e+00 -3.6399687106060802e-01 -5.5102365132893723e+01 +4.3668360170657425e+03 +1.1451051884525974e+05 -2.9533006032963205e+07 
-9.9999999999999805e+00 -5.6490431015934683e-01 +7.7447797974805495e+00 -3.7181088094793380e-01 -5.4427931215637699e+01 +4.4591152476286652e+03 +1.1196258453896633e+05 -2.9840847244159907e+07 
-1.0100000000000000e+01 -5.6490444654175220e-01 +7.7447393626128234e+00 -3.8080923981457360e-01 -5.3708526556333290e+01 +4.5679449326616568e+03 +1.0918631254212938e+05 -3.0215009161598921e+07 
