# multipoles
# s[mm] polynom_b[n=0][T/m^n] polynom_b[n=1][T/m^n] polynom_b[n=2][T/m^n] polynom_b[n=3][T/m^n] polynom_b[n=4][T/m^n] polynom_b[n=5][T/m^n] polynom_b[n=6][T/m^n] 
-0.0000000000000000e+00 -5.6488969804819589e-01 +7.7440124858220436e+00 -4.8078964626498388e-01 -3.6102957184028135e+01 +5.6014426846281058e+03 +5.7744299648607657e+03 -3.3394701941591457e+07 
-1.0000000000000001e-01 -5.6488955445606359e-01 +7.7440086049786574e+00 -4.8645747075133838e-01 -3.5809246778196957e+01 +5.6826078813891299e+03 +4.0319282630046760e+03 -3.3761974642353669e+07 
-2.0000000000000001e-01 -5.6488941002658466e-01 +7.7440082228207769e+00 -4.9214977953447675e-01 -3.5630498118839981e+01 +5.7651993684456884e+03 +2.9869149843767650e+03 -3.4138584691690914e+07 
-2.9999999999999999e-01 -5.6488926586302513e-01 +7.7440110642628230e+00 -4.9783546042288429e-01 -3.5559347663408950e+01 +5.8487240848467136e+03 +2.5971043829121732e+03 -3.4521958844436035e+07 
-4.0000000000000002e-01 -5.6488912306870276e-01 +7.7440168542195735e+00 -5.0348339721069590e-01 -3.5588431894644245e+01 +5.9326889004834457e+03 +2.8202109099925397e+03 -3.4909523555731967e+07 
-5.0000000000000000e-01 -5.6488898274683719e-01 +7.7440253176081990e+00 -5.0906247482180678e-01 -3.5710387368028542e+01 +6.0166007052336881e+03 +3.6139494293563675e+03 -3.5298705381597564e+07 
-5.9999999999999998e-01 -5.6488884600073452e-01 +7.7440361793417907e+00 -5.1454157422014402e-01 -3.5917850544392302e+01 +6.0999663134838156e+03 +4.9360343054919458e+03 -3.5686930525072694e+07 
-6.9999999999999996e-01 -5.6488871393380158e-01 +7.7440491643317486e+00 -5.1988957426438454e-01 -3.6203457853485737e+01 +6.1822925026685225e+03 +6.7441797417985235e+03 -3.6071625030998655e+07 
-8.0000000000000004e-01 -5.6488858764925054e-01 +7.7440639974926553e+00 -5.2507535655623061e-01 -3.6559845822576655e+01 +6.2630861002726087e+03 +8.9961004832112012e+03 -3.6450215182544217e+07 
-9.0000000000000002e-01 -5.6488846825045314e-01 +7.7440804037360271e+00 -5.3006779683192573e-01 -3.6979650934426722e+01 +6.3418538243182393e+03 +1.1649511089827149e+04 -3.6820126753356650e+07 
-1.0000000000000000e+00 -5.6488835684075589e-01 +7.7440981079704274e+00 -5.3483577293218887e-01 -3.7455509597324216e+01 +6.4181024279721796e+03 +1.4662125660213213e+04 -3.7178785678044394e+07 
-1.1000000000000001e+00 -5.6488825452342650e-01 +7.7441168351068628e+00 -5.3934816288226328e-01 -3.7980058319007668e+01 +6.4913386747634686e+03 +1.7991658885928649e+04 -3.7523617962765545e+07 
-1.2000000000000000e+00 -5.6488816240185047e-01 +7.7441363100544489e+00 -5.4357384239223927e-01 -3.8545933587976691e+01 +6.5610692759042622e+03 +2.1595825362425283e+04 -3.7852049347671621e+07 
-1.3000000000000000e+00 -5.6488808157929482e-01 +7.7441562577192649e+00 -5.4748168858355817e-01 -3.9145771837891608e+01 +6.6268009734344305e+03 +2.5432339373510225e+04 -3.8161505732640430e+07 
-1.3999999999999999e+00 -5.6488801315907666e-01 +7.7441764030092335e+00 -5.5104058178850956e-01 -3.9772209577220792e+01 +6.6880405654353690e+03 +2.9458915599281743e+04 -3.8449413274156593e+07 
-1.5000000000000000e+00 -5.6488795824454729e-01 +7.7441964708290527e+00 -5.5421939797197672e-01 -4.0417883284718776e+01 +6.7442947669800251e+03 +3.3633268613654414e+04 -3.8713197735089287e+07 
-1.6000000000000001e+00 -5.6488791793896176e-01 +7.7442161860830350e+00 -5.5698701757917302e-01 -4.1075429442951169e+01 +6.7950703764617292e+03 +3.7913112941635249e+04 -3.8950285272680290e+07 
-1.7000000000000000e+00 -5.6488789334556722e-01 +7.7442352736730777e+00 -5.5931232155821775e-01 -4.1737484523809037e+01 +6.8398741987804333e+03 +4.2256163079464190e+04 -3.9158102066553719e+07 
-1.8000000000000000e+00 -5.6488788556767389e-01 +7.7442534585016700e+00 -5.6116419317535116e-01 -4.2396685055804035e+01 +6.8782130800480518e+03 +4.6620133828886574e+04 -3.9334074484014720e+07 
-1.8999999999999999e+00 -5.6488789570846076e-01 +7.7442704654676859e+00 -5.6251151733823856e-01 -4.3045667510752985e+01 +6.9095938962313248e+03 +5.0962739649143106e+04 -3.9475629032190017e+07 
-2.0000000000000000e+00 -5.6488792487120409e-01 +7.7442860194724350e+00 -5.6332318024536276e-01 -4.3677068474966539e+01 +6.9335235421099378e+03 +5.5241695618088226e+04 -3.9580192290569335e+07 
-2.1000000000000001e+00 -5.6488797371040433e-01 +7.7442999184862664e+00 -5.6357985275101596e-01 -4.4285200239363711e+01 +6.9496634137122255e+03 +5.9423258898703374e+04 -3.9645998069583207e+07 
-2.2000000000000002e+00 -5.6488804117379021e-01 +7.7443122360736449e+00 -5.6330752907703030e-01 -4.4870780894017045e+01 +6.9582746032763871e+03 +6.3506761630879628e+04 -3.9674414510653131e+07 
-2.2999999999999998e+00 -5.6488812580327041e-01 +7.7443231107603525e+00 -5.6254309726698193e-01 -4.5436059133506426e+01 +6.9597637105314270e+03 +6.7499539091732193e+04 -3.9667570828780636e+07 
-2.3999999999999999e+00 -5.6488822614084855e-01 +7.7443326810770090e+00 -5.6132344402074541e-01 -4.5983283765929151e+01 +6.9545373117697081e+03 +7.1408927208672147e+04 -3.9627596130613573e+07 
-2.5000000000000000e+00 -5.6488834072845628e-01 +7.7443410855473518e+00 -5.5968545459681363e-01 -4.6514703355869486e+01 +6.9430019591969840e+03 +7.5242260458188612e+04 -3.9556619415509410e+07 
-2.6000000000000001e+00 -5.6488846810805204e-01 +7.7443484626997527e+00 -5.5766601500989099e-01 -4.7032566569626219e+01 +6.9255642247044052e+03 +7.9006873912382172e+04 -3.9456769786609687e+07 
-2.7000000000000002e+00 -5.6488860682158470e-01 +7.7443549510643308e+00 -5.5530201270956003e-01 -4.7539122070835681e+01 +6.9026307133743303e+03 +8.2710102603358275e+04 -3.9330176519206114e+07 
-2.7999999999999998e+00 -5.6488875541101968e-01 +7.7443606891664478e+00 -5.5263033355314872e-01 -4.8036618323791657e+01 +6.8746080035458608e+03 +8.6359280362371923e+04 -3.9178968765613437e+07 
-2.8999999999999999e+00 -5.6488891241832395e-01 +7.7443658155363249e+00 -5.4968786338342679e-01 -4.8527303877208340e+01 +6.8419026794711735e+03 +8.9961741506030623e+04 -3.9005275720083103e+07 
-3.0000000000000000e+00 -5.6488907638545793e-01 +7.7443704687024244e+00 -5.4651149008947475e-01 -4.9013427157641345e+01 +6.8049213728998511e+03 +9.3524819612711726e+04 -3.8811226820009828e+07 
-3.1000000000000001e+00 -5.6488924585440559e-01 +7.7443747871940438e+00 -5.4313809839640259e-01 -4.9497236541944716e+01 +6.7640706593540326e+03 +9.7055847944841109e+04 -3.8598951242237337e+07 
-3.2000000000000002e+00 -5.6488941936716031e-01 +7.7443789095435980e+00 -5.3960457308054666e-01 -4.9980980410899562e+01 +6.7197571250203246e+03 +1.0056215974683322e+05 -3.8370578233083099e+07 
-3.2999999999999998e+00 -5.6488959546570094e-01 +7.7443829742829680e+00 -5.3594780111445617e-01 -5.0466907048906570e+01 +6.6723874032818430e+03 +1.0405108769827615e+05 -3.8128237273180440e+07 
-3.3999999999999999e+00 -5.6488977269204066e-01 +7.7443871199444771e+00 -5.3220466619809592e-01 -5.0957264652036251e+01 +6.6223680764294131e+03 +1.0752996391299955e+05 -3.7874057623154484e+07 
-3.5000000000000000e+00 -5.6488994958817929e-01 +7.7443914850599986e+00 -5.2841205466521146e-01 -5.1454301302363326e+01 +6.5701057855346553e+03 +1.1100611981296656e+05 -3.7610168839386769e+07 
-3.6000000000000001e+00 -5.6489012469617750e-01 +7.7443962081666120e+00 -5.2460684916391609e-01 -5.1960265125572384e+01 +6.5160071089101939e+03 +1.1448688704085449e+05 -3.7338700192633837e+07 
-3.7000000000000002e+00 -5.6489029655800904e-01 +7.7444014278003825e+00 -5.2082593382910269e-01 -5.2477404105873340e+01 +6.4604786634914171e+03 +1.1797959638440650e+05 -3.7061781156799957e+07 
-3.7999999999999998e+00 -5.6489046371574914e-01 +7.7444072824994272e+00 -5.1710619195975016e-01 -5.3007966161168717e+01 +6.4039270624322235e+03 +1.2149157819979830e+05 -3.6781541211793445e+07 
-3.8999999999999999e+00 -5.6489062471148344e-01 +7.7444139108029377e+00 -5.1348450633866050e-01 -5.3554199115693784e+01 +6.3467589186322657e+03 +1.2503016226306446e+05 -3.6500109853348672e+07 
-4.0000000000000000e+00 -5.6489077808723376e-01 +7.7444214512484626e+00 -5.0999776004047004e-01 -5.4118350650287255e+01 +6.2893808665752194e+03 +1.2860267784171081e+05 -3.6219616684608459e+07 
-4.0999999999999996e+00 -5.6489092287076281e-01 +7.7444300063354596e+00 -5.0667315723490602e-01 -5.4701542115829497e+01 +6.2321437199558031e+03 +1.3221127099109971e+05 -3.5941937834355503e+07 
-4.2000000000000002e+00 -5.6489105985238253e-01 +7.7444395577989873e+00 -5.0350218640627087e-01 -5.5300936157597313e+01 +6.1751744020109209e+03 +1.3583912761620723e+05 -3.5667930785816424e+07 
-4.2999999999999998e+00 -5.6489119022229528e-01 +7.7444500622393617e+00 -5.0046812171417354e-01 -5.5912825605285491e+01 +6.1185444987104229e+03 +1.3946509577304759e+05 -3.5398199823606335e+07 
-4.4000000000000004e+00 -5.6489131517059665e-01 +7.7444614762487687e+00 -4.9755423761394801e-01 -5.6533503129868166e+01 +6.0623256002917633e+03 +1.4306802273706588e+05 -3.5133349234296903e+07 
-4.5000000000000000e+00 -5.6489143588744772e-01 +7.7444737564150010e+00 -4.9474381564475522e-01 -5.7159261365151899e+01 +6.0065894301097042e+03 +1.4662675573451523e+05 -3.4873983917988352e+07 
-4.5999999999999996e+00 -5.6489155356293341e-01 +7.7444868593244927e+00 -4.9202013406032707e-01 -5.7786392995550692e+01 +5.9514076457226602e+03 +1.5012014244605033e+05 -3.4620708434471115e+07 
-4.7000000000000002e+00 -5.6489166938723934e-01 +7.7445007415581832e+00 -4.8936647411497525e-01 -5.8411190648425340e+01 +5.8968519609163550e+03 +1.5352703040627946e+05 -3.4374127591729701e+07 
-4.7999999999999998e+00 -5.6489178455039912e-01 +7.7445153596910687e+00 -4.8676612305931816e-01 -5.9029946891575079e+01 +5.8429941995922663e+03 +1.5682626700496097e+05 -3.4134846693398349e+07 
-4.9000000000000004e+00 -5.6489190024257752e-01 +7.7445306702961370e+00 -4.8420236706558906e-01 -5.9638954338152416e+01 +5.7899061596279471e+03 +1.5999670005966286e+05 -3.3903470885035634e+07 
-5.0000000000000000e+00 -5.6489201765379826e-01 +7.7445466299396228e+00 -4.8165849785786818e-01 -6.0234505541172624e+01 +5.7376597458786382e+03 +1.6301717729575664e+05 -3.3680605805317722e+07 
-5.0999999999999996e+00 -5.6489213797421822e-01 +7.7445631951813541e+00 -4.7911780575739649e-01 -6.0812892983708700e+01 +5.6863268291795484e+03 +1.6586654620586557e+05 -3.3466856890362564e+07 
-5.2000000000000002e+00 -5.6489226239386048e-01 +7.7445803225785808e+00 -4.7656358837230661e-01 -6.1370409218659418e+01 +5.6359794135500451e+03 +1.6852365494793930e+05 -3.3262830176141452e+07 
-5.2999999999999998e+00 -5.6489239210279685e-01 +7.7445979686801119e+00 -4.7397914313747602e-01 -6.1903346690017024e+01 +5.5866894988161894e+03 +1.7096735126260621e+05 -3.3069131652107857e+07 
-5.4000000000000004e+00 -5.6489252829106551e-01 +7.7446160900307817e+00 -4.7134777266036471e-01 -6.2407997880119019e+01 +5.5385291748854561e+03 +1.7317648337376362e+05 -3.2886367692927908e+07 
-5.5000000000000000e+00 -5.6489267214867322e-01 +7.7446346431687143e+00 -4.6865278190728643e-01 -6.2880655229311870e+01 +5.4915705737732442e+03 +1.7512989951000319e+05 -3.2715144843507480e+07 
-5.5999999999999996e+00 -5.6489282486569270e-01 +7.7446535846258016e+00 -4.6587747990261208e-01 -6.3317611164193480e+01 +5.4458858972516064e+03 +1.7680644809932742e+05 -3.2556069934908830e+07 
-5.7000000000000002e+00 -5.6489298763211693e-01 +7.7446728709272001e+00 -4.6300517678538733e-01 -6.3715158078787098e+01 +5.4015473636492243e+03 +1.7818497762840512e+05 -3.2409749841734432e+07 
-5.7999999999999998e+00 -5.6489316163793213e-01 +7.7446924585912509e+00 -4.6001918887037385e-01 -6.4069588352634000e+01 +5.3586273028769829e+03 +1.7924433681117583e+05 -3.2276791927647024e+07 
-5.9000000000000004e+00 -5.6489334807312019e-01 +7.7447123041302639e+00 -4.5690283481693511e-01 -6.4377194366440648e+01 +5.3171980794419169e+03 +1.7996337463773263e+05 -3.2157803667012282e+07 
-5.9999999999999902e+00 -5.6489354812759829e-01 +7.7447323640594252e+00 -4.5363943833787007e-01 -6.4634268995115065e+01 +5.2773321012220658e+03 +1.8032094314367330e+05 -3.2053392625373349e+07 
-6.0999999999999899e+00 -5.6489376258185664e-01 +7.7447525917790800e+00 -4.5021832288052965e-01 -6.4838494609137797e+01 +5.2390495143967100e+03 +1.8030576787962444e+05 -3.1963684258656733e+07 
-6.1999999999999904e+00 -5.6489399081303648e-01 +7.7447729113191306e+00 -4.4664721869921425e-01 -6.4991908615030752e+01 +5.2021916635793541e+03 +1.7993871265516002e+05 -3.1887251273093596e+07 
-6.2999999999999901e+00 -5.6489423189785470e-01 +7.7447932363925416e+00 -4.4293728431061219e-01 -6.5097399643930245e+01 +5.1665608520763526e+03 +1.7924719957206928e+05 -3.1822352351493038e+07 
-6.3999999999999897e+00 -5.6489448491300576e-01 +7.7448134807153206e+00 -4.3909967804751554e-01 -6.5157856309133251e+01 +5.1319593654733853e+03 +1.7825865027056815e+05 -3.1767246086710926e+07 
-6.4999999999999902e+00 -5.6489474893519809e-01 +7.7448335580128242e+00 -4.3514555304329428e-01 -6.5176167396070738e+01 +5.0981893706779510e+03 +1.7700048703726672e+05 -3.1720190485788573e+07 
-6.5999999999999899e+00 -5.6489502304116646e-01 +7.7448533820177241e+00 -4.3108605589111681e-01 -6.5155221790583838e+01 +5.0650528959516778e+03 +1.7550013235502999e+05 -3.1679442894025791e+07 
-6.6999999999999904e+00 -5.6489530630760676e-01 +7.7448728664730453e+00 -4.2693233426800659e-01 -6.5097908571462611e+01 +5.0323519689447667e+03 +1.7378500945720047e+05 -3.1643260632666495e+07 
-6.7999999999999901e+00 -5.6489559781128285e-01 +7.7448919251281279e+00 -4.2269552704055774e-01 -6.5007116870233048e+01 +4.9998884310512412e+03 +1.7188254143106088e+05 -3.1609900124466080e+07 
-6.8999999999999897e+00 -5.6489589662887441e-01 +7.7449104717422728e+00 -4.1838676907741529e-01 -6.4885735991451583e+01 +4.9674640274921467e+03 +1.6982015197441354e+05 -3.1577617320996925e+07 
-6.9999999999999902e+00 -5.6489620183714828e-01 +7.7449284200867341e+00 -4.1401719108773638e-01 -6.4736655448563852e+01 +4.9348804061906640e+03 +1.6762526552528606e+05 -3.1544667703606445e+07 
-7.0999999999999899e+00 -5.6489651251282946e-01 +7.7449456839403368e+00 -4.0959792116880506e-01 -6.4562764842990433e+01 +4.9019391425937929e+03 +1.6532530658051523e+05 -3.1509306390005410e+07 
-7.1999999999999904e+00 -5.6489682773268013e-01 +7.7449621770903496e+00 -4.0514007783600975e-01 -6.4366953882031950e+01 +4.8684416065461646e+03 +1.6294769978005128e+05 -3.1469787502812814e+07 
-7.2999999999999901e+00 -5.6489714657346335e-01 +7.7449778133417073e+00 -4.0065477930380999e-01 -6.4152112635731271e+01 +4.8341891439262909e+03 +1.6051987136103428e+05 -3.1424365047321647e+07 
-7.3999999999999897e+00 -5.6489746811191210e-01 +7.7449925065009673e+00 -3.9615313172582711e-01 -6.3921131069878982e+01 +4.7989828453113078e+03 +1.5806924644320816e+05 -3.1371291792606343e+07 
-7.4999999999999902e+00 -5.6489779142482421e-01 +7.7450061703978159e+00 -3.9164624241877333e-01 -6.3676899662212541e+01 +4.7626237986777805e+03 +1.5562325258073388e+05 -3.1308820478694424e+07 
-7.5999999999999899e+00 -5.6489811558893144e-01 +7.7450187188620072e+00 -3.8714520825060328e-01 -6.3422308737281341e+01 +4.7249128734680025e+03 +1.5320931590966595e+05 -3.1235202804293301e+07 
-7.6999999999999904e+00 -5.6489843968103481e-01 +7.7450300657423146e+00 -3.8266112212809894e-01 -6.3160248997059057e+01 +4.6856508336594661e+03 +1.5085486417820104e+05 -3.1148689939026721e+07 
-7.7999999999999901e+00 -5.6489876277793427e-01 +7.7450401248987930e+00 -3.7820506874318333e-01 -6.2893611301831086e+01 +4.6446382639181156e+03 +1.4858732547986705e+05 -3.1047532190527141e+07 
-7.8999999999999897e+00 -5.6489908395644894e-01 +7.7450488102058292e+00 -3.7378812866201855e-01 -6.2625286746660016e+01 +4.6016756463840602e+03 +1.4643412866199220e+05 -3.0929979371912610e+07 
-7.9999999999999902e+00 -5.6489940229340108e-01 +7.7450560355261393e+00 -3.6942137369389094e-01 -6.2358165457374440e+01 +4.5565633390608955e+03 +1.4442269466969933e+05 -3.0794280953809615e+07 
-8.0999999999999908e+00 -5.6489971695876684e-01 +7.7450617120710730e+00 -3.6512407813166975e-01 -6.2093913751930899e+01 +4.5093261489036968e+03 +1.4257008022115461e+05 -3.0639924274797864e+07 
-8.1999999999999904e+00 -5.6490002740049239e-01 +7.7450657606592728e+00 -3.6094688123697155e-01 -6.1830639904723796e+01 +4.4607658184990123e+03 +1.4086198406299384e+05 -3.0470474175590806e+07 
-8.2999999999999901e+00 -5.6490033311762500e-01 +7.7450681079014778e+00 -3.5694782447618489e-01 -6.1565809796500872e+01 +4.4118527310923673e+03 +1.3927815061920963e+05 -3.0290339602026731e+07 
-8.3999999999999897e+00 -5.6490063360910581e-01 +7.7450686804196600e+00 -3.5318495190146487e-01 -6.1296889594449880e+01 +4.3635573280651961e+03 +1.3779832595797910e+05 -3.0103929791045938e+07 
-8.4999999999999893e+00 -5.6490092837390360e-01 +7.7450674048549732e+00 -3.4971631808551601e-01 -6.1021345981531837e+01 +4.3168502605593985e+03 +1.3640225913798669e+05 -2.9915654994111303e+07 
-8.5999999999999908e+00 -5.6490121691086803e-01 +7.7450642078588956e+00 -3.4659997874130177e-01 -6.0736645892558514e+01 +4.2727022132334851e+03 +1.3506970064157798e+05 -2.9729925642992109e+07 
-8.6999999999999904e+00 -5.6490149871891204e-01 +7.7450590160983435e+00 -3.4389399650835367e-01 -6.0440256667791225e+01 +4.2320840173557008e+03 +1.3378040330115877e+05 -2.9551152894881207e+07 
-8.7999999999999794e+00 -5.6490177329680835e-01 +7.7450517562580918e+00 -3.4165644039527143e-01 -6.0129646113725954e+01 +4.1959666311414694e+03 +1.3251412261567480e+05 -2.9383748514748275e+07 
-8.8999999999999808e+00 -5.6490204014332079e-01 +7.7450423550409191e+00 -3.3994538176876293e-01 -5.9802282527084806e+01 +4.1653210784887588e+03 +1.3125061696296220e+05 -2.9232124624554738e+07 
-8.9999999999999805e+00 -5.6490229875718978e-01 +7.7450307391623010e+00 -3.3881890453466906e-01 -5.9455634515039250e+01 +4.1411186252110438e+03 +1.2996964647897870e+05 -2.9100694493166629e+07 
-9.0999999999999801e+00 -5.6490254863708433e-01 +7.7450168353568838e+00 -3.3833509259058664e-01 -5.9087171199924605e+01 +4.1243305597994377e+03 +1.2865097429973289e+05 -2.8993871544832516e+07 
-9.1999999999999797e+00 -5.6490278928158777e-01 +7.7450005703728930e+00 -3.3855204018218743e-01 -5.8694362046567186e+01 +4.1159283759948758e+03 +1.2727436553077296e+05 -2.8916070189120971e+07 
-9.2999999999999794e+00 -5.6490302018933336e-01 +7.7449818709810048e+00 -3.3952784657123214e-01 -5.8274677133597343e+01 +4.1168836799626361e+03 +1.2581958887795676e+05 -2.8871705401657943e+07 
-9.3999999999999808e+00 -5.6490324085882326e-01 +7.7449606639668174e+00 -3.4132061720323559e-01 -5.7825586906471784e+01 +4.1281682109844487e+03 +1.2426641511458778e+05 -2.8865192818333443e+07 
-9.4999999999999805e+00 -5.6490345078849225e-01 +7.7449368761335124e+00 -3.4398846654504256e-01 -5.7344562291733162e+01 +4.1507538945825399e+03 +1.2259461787817214e+05 -2.8900948984574560e+07 
-9.5999999999999801e+00 -5.6490364947681704e-01 +7.7449104343072532e+00 -3.4758951482435141e-01 -5.6829074816488898e+01 +4.1856127827067776e+03 +1.2078397424354183e+05 -2.8983391075935863e+07 
-9.6999999999999797e+00 -5.6490383642211128e-01 +7.7448812653278409e+00 -3.5218188915120896e-01 -5.6276596368468802e+01 +4.2337170764211933e+03 +1.1881426343397172e+05 -2.9116937011485323e+07 
-9.7999999999999794e+00 -5.6490401112273780e-01 +7.7448492960561266e+00 -3.5782372485448327e-01 -5.5684599383911440e+01 +4.2960391458285785e+03 +1.1666526783649792e+05 -2.9306005529548220e+07 
-9.8999999999999808e+00 -5.6490417307691276e-01 +7.7448144533749481e+00 -3.6457316641501369e-01 -5.5050556892130807e+01 +4.3735515592235261e+03 +1.1431677330577344e+05 -2.9555016358669199e+07 
-9.9999999999999805e+00 -5.6490432178303296e-01 +7.7447766642527558e+00 -3.7248833883195487e-01 -5.4371943346168074e+01 +4.4672266237521844e+03 +1.1174857425209502e+05 -2.9868388073247872e+07 
-1.0100000000000000e+01 -5.6490445726459027e-01 +7.7447359764371617e+00 -3.8158590212072996e-01 -5.3648567696777526e+01 +4.5774327116054428e+03 +1.0895255207075569e+05 -3.0248026755290363e+07 
