# multipoles
# s[mm] polynom_b[n=0][T/m^n] polynom_b[n=1][T/m^n] polynom_b[n=2][T/m^n] polynom_b[n=3][T/m^n] polynom_b[n=4][T/m^n] polynom_b[n=5][T/m^n] polynom_b[n=6][T/m^n] 
-0.0000000000000000e+00 -5.3699232723341694e-01 +7.3628109446420655e+00 -7.1994284140312920e-02 +4.7667662233453880e+00 -5.8966326670427916e+03 -2.7249820723752957e+05 +2.4356567921818852e+07 
-1.0000000000000001e-01 -5.3699243117161277e-01 +7.3627893932208419e+00 -7.8181641135633820e-02 +5.6148246318379158e+00 -5.7849772811870525e+03 -2.7797008971165057e+05 +2.3850537370777663e+07 
-2.0000000000000001e-01 -5.3699251895530342e-01 +7.3627738089968595e+00 -8.5607451465831860e-02 +6.3313313393812169e+00 -5.6557291339473804e+03 -2.8276342726602015e+05 +2.3281479861552697e+07 
-2.9999999999999999e-01 -5.3699259198276539e-01 +7.3627639510832141e+00 -9.4171481937549623e-02 +6.9198488910294431e+00 -5.5103574441227565e+03 -2.8688937218717916e+05 +2.2654791150344364e+07 
-4.0000000000000002e-01 -5.3699265165240062e-01 +7.3627595785952700e+00 -1.0377349638804491e-01 +7.3839397722507591e+00 -5.3503314818441822e+03 -2.9035907652450452e+05 +2.1975867221153531e+07 
-5.0000000000000000e-01 -5.3699269936253502e-01 +7.3627604506541342e+00 -1.1431325807354649e-01 +7.7271663043482608e+00 -5.1771205246940535e+03 -2.9318369145231671e+05 +2.1250104077295937e+07 
-5.9999999999999998e-01 -5.3699273651157797e-01 +7.3627663263878826e+00 -1.2569052754570414e-01 +7.9530906211988688e+00 -4.9921938956613176e+03 -2.9537436715783598e+05 +2.0482897917928882e+07 
-6.9999999999999996e-01 -5.3699276449793631e-01 +7.3627769649260761e+00 -1.3780505913272567e-01 +8.0652748262561360e+00 -4.7970210342190849e+03 -2.9694225373050506e+05 +1.9679645485763688e+07 
-8.0000000000000004e-01 -5.3699278472000733e-01 +7.3627921253987623e+00 -1.5055661156881187e-01 +8.0672810031085085e+00 -4.5930712943157441e+03 -2.9789850115985895e+05 +1.8845743103328403e+07 
-9.0000000000000002e-01 -5.3699279857624926e-01 +7.3628115669419909e+00 -1.6384493678904308e-01 +7.9626710774660241e+00 -4.3818141546014667e+03 -2.9825425857893279e+05 +1.7986587668841757e+07 
-1.0000000000000000e+00 -5.3699280746513134e-01 +7.3628350486862972e+00 -1.7756978437258553e-01 +7.7550071325851384e+00 -4.1647191431756200e+03 -2.9802067602609663e+05 +1.7107576318571042e+07 
-1.1000000000000001e+00 -5.3699281278517252e-01 +7.3628623297670526e+00 -1.9163090503138380e-01 +7.4478511205836773e+00 -3.9432557630446481e+03 -2.9720890279519034e+05 +1.6214106051881783e+07 
-1.2000000000000000e+00 -5.3699281593480519e-01 +7.3628931693143240e+00 -2.0592804313237867e-01 +7.0447651491898151e+00 -3.7188936395004152e+03 -2.9583008905033168e+05 +1.5311574444934186e+07 
-1.3000000000000000e+00 -5.3699281831254186e-01 +7.3629273264552664e+00 -2.2036094571136933e-01 +6.5493114077707926e+00 -3.4931023514739595e+03 -2.9389538538650254e+05 +1.4405378854189288e+07 
-1.3999999999999999e+00 -5.3699282131693959e-01 +7.3629645603175655e+00 -2.3482935420530887e-01 +5.9650520754371756e+00 -3.2673515841987837e+03 -2.9141594229247060e+05 +1.3500917130956590e+07 
-1.5000000000000000e+00 -5.3699282634650303e-01 +7.3630046300179650e+00 -2.4923300921334393e-01 +5.2955496472106303e+00 -3.0431110439006834e+03 -2.8840291201119532e+05 +1.2603587228129342e+07 
-1.6000000000000001e+00 -5.3699283479976134e-01 +7.3630472946692116e+00 -2.6347165068018330e-01 +4.5443667356641591e+00 -2.8218504553074754e+03 -2.8486744738625840e+05 +1.1718787190943938e+07 
-1.7000000000000000e+00 -5.3699284807526804e-01 +7.3630923133800819e+00 -2.7744501515614267e-01 +3.7150660615529838e+00 -2.6050396103572634e+03 -2.8082070176898135e+05 +1.0851915378797943e+07 
-1.8000000000000000e+00 -5.3699286757159115e-01 +7.3631394452492884e+00 -2.9105283929309050e-01 +2.8112106369196859e+00 -2.3941483084854881e+03 -2.7627383008153050e+05 +1.0008370196967902e+07 
-1.8999999999999999e+00 -5.3699289468727274e-01 +7.3631884493668069e+00 -3.0419485595629803e-01 +1.8363637276347453e+00 -2.1906464241931317e+03 -2.7123798858691863e+05 +9.1935504037086200e+06 
-2.0000000000000000e+00 -5.3699293082089483e-01 +7.3632390848127027e+00 -3.1677079794332241e-01 +7.9408887173202802e-01 -1.9960038447746595e+03 -2.6572433494202141e+05 +8.4128548317655437e+06 
-2.1000000000000001e+00 -5.3699297724073392e-01 +7.3632910943926362e+00 -3.2869126967274021e-01 -3.1110386184367356e-01 -1.8115385550581318e+03 -2.5975187777146796e+05 +7.6711817758072959e+06 
-2.2000000000000002e+00 -5.3699303468764403e-01 +7.3633441558692221e+00 -3.3991108314551483e-01 -1.4708795621239006e+00 -1.6379547793932627e+03 -2.5337147712518342e+05 +6.9714405077804057e+06 
-2.2999999999999998e+00 -5.3699310376886455e-01 +7.3633979307267170e+00 -3.5039628025376901e-01 -2.6759359561212825e+00 -1.4758018521904828e+03 -2.4664207956814120e+05 +6.3160469913276592e+06 
-2.3999999999999999e+00 -5.3699318509166727e-01 +7.3634520804498518e+00 -3.6011290572565258e-01 -3.9169707758564161e+00 -1.3256290508219031e+03 -2.3962263161850005e+05 +5.7074169142544139e+06 
-2.5000000000000000e+00 -5.3699327926323392e-01 +7.3635062665107922e+00 -3.6902700761138030e-01 -5.1846814031113988e+00 -1.1879855973072054e+03 -2.3237208175959988e+05 +5.1479657272323677e+06 
-2.6000000000000001e+00 -5.3699338689072784e-01 +7.3635601503785413e+00 -3.7710463652734905e-01 -6.4697651142341197e+00 -1.0634206606384735e+03 -2.2494937908290332e+05 +4.6401086239525015e+06 
-2.7000000000000002e+00 -5.3699350858139472e-01 +7.3636133935151928e+00 -3.8431184502109855e-01 -7.7629189985377005e+00 -9.5248338049359040e+02 -2.1741347370856223e+05 +4.1862606872601104e+06 
-2.7999999999999998e+00 -5.3699364494228263e-01 +7.3636656573701780e+00 -3.9061468999972287e-01 -9.0548397717470035e+00 -8.5572281182011091e+02 -2.0982331790070274e+05 +3.7888366005137363e+06 
-2.8999999999999999e+00 -5.3699379658050539e-01 +7.3637166033926835e+00 -3.9597923655509071e-01 -1.0336224146167140e+01 -7.7368785642352623e+02 -2.0223786391613283e+05 +3.4502503376753326e+06 
-3.0000000000000000e+00 -5.3699396410311284e-01 +7.3637658930172583e+00 -4.0037154674398684e-01 -1.1597768408302370e+01 -7.0692747596077959e+02 -1.9471606645398587e+05 +3.1729161745645059e+06 
-3.1000000000000001e+00 -5.3699414811709267e-01 +7.3638131876744231e+00 -4.0375769381542015e-01 -1.2830168735862083e+01 -6.5599041822692459e+02 -1.8731688080695519e+05 +2.9592473811547086e+06 
-3.2000000000000002e+00 -5.3699434922942191e-01 +7.3638581487853854e+00 -4.0610375458204323e-01 -1.4024121029392273e+01 -6.2142536931866243e+02 -1.8009926386938908e+05 +2.8116569668804822e+06 
-3.2999999999999998e+00 -5.3699456804696888e-01 +7.3639004377578354e+00 -4.0737580935219847e-01 -1.5170320805300589e+01 -6.0378094383354278e+02 -1.7312217472669101e+05 +2.7325576020122766e+06 
-3.3999999999999999e+00 -5.3699480517663567e-01 +7.3639397160002860e+00 -4.0753995027148360e-01 -1.6259463602905136e+01 -6.0360553670813283e+02 -1.6644457231674076e+05 +2.7243609474722045e+06 
-3.5000000000000000e+00 -5.3699506122516327e-01 +7.3639756448995497e+00 -4.0656226865440509e-01 -1.7282244335000613e+01 -6.2144756053250876e+02 -1.6012541919348040e+05 +2.7894787717895140e+06 
-3.6000000000000001e+00 -5.3699533679932276e-01 +7.3640078858433329e+00 -4.0440886869207265e-01 -1.8229357942484356e+01 -6.5785517998519845e+02 -1.5422367772757821e+05 +2.9303216764804032e+06 
-3.7000000000000002e+00 -5.3699563250575255e-01 +7.3640361002046593e+00 -4.0104586053449659e-01 -1.9091498944050397e+01 -7.1337644967669530e+02 -1.4879831271760917e+05 +3.1492997727842638e+06 
-3.7999999999999998e+00 -5.3699594895106528e-01 +7.3640599493459389e+00 -3.9643936002312002e-01 -1.9859361548961825e+01 -7.8855931698962422e+02 -1.4390829075805322e+05 +3.4488226866523996e+06 
-3.8999999999999999e+00 -5.3699628674178346e-01 +7.3640790946210943e+00 -3.9055549416382607e-01 -2.0523639727361939e+01 -8.8395151621619516e+02 -1.3961257980514516e+05 +3.8312990562045136e+06 
-4.0000000000000000e+00 -5.3699664648439649e-01 +7.3640931973736690e+00 -3.8336039650349213e-01 -2.1075027151816411e+01 -1.0001006595328754e+03 -1.3597014949988719e+05 +4.2991369728533188e+06 
-4.0999999999999996e+00 -5.3699702835357876e-01 +7.3641020564520607e+00 -3.7485012797304357e-01 -2.1507398733161800e+01 -1.1371000339572911e+03 -1.3302120425735030e+05 +4.8529309455640204e+06 
-4.2000000000000002e+00 -5.3699743082089801e-01 +7.3641060223138552e+00 -3.6514082782437313e-01 -2.1827343526900979e+01 -1.2932074694232274e+03 -1.3073136150893003e+05 +5.4858503348285304e+06 
-4.2999999999999998e+00 -5.3699785193782823e-01 +7.3641055838338749e+00 -3.5437877763513670e-01 -2.2044630403413347e+01 -1.4662168457689436e+03 -1.2904767287758843e+05 +6.1891634868423538e+06 
-4.4000000000000004e+00 -5.3699828975597474e-01 +7.3641012299050441e+00 -3.4271025750387657e-01 -2.2169028721671015e+01 -1.6539220643489439e+03 -1.2791718736255670e+05 +6.9541388322228184e+06 
-4.5000000000000000e+00 -5.3699874232695188e-01 +7.3640934494414481e+00 -3.3028153827269530e-01 -2.2210308435254447e+01 -1.8541171936615576e+03 -1.2728695070490707e+05 +7.7720455727723902e+06 
-4.5999999999999996e+00 -5.3699920770240350e-01 +7.3640827313751096e+00 -3.1723889200187289e-01 -2.2178239984703950e+01 -2.0645962726558446e+03 -1.2710400605360838e+05 +8.6341527528472841e+06 
-4.7000000000000002e+00 -5.3699968393408437e-01 +7.3640695646583865e+00 -3.0372858224607252e-01 -2.2082594366625123e+01 -2.2831534923777017e+03 -1.2731539357789092e+05 +9.5317301125028692e+06 
-4.7999999999999998e+00 -5.3700016907374659e-01 +7.3640544382721345e+00 -2.8989686844243329e-01 -2.1933143376561656e+01 -2.5075831124269666e+03 -1.2786814904987294e+05 +1.0456047692278605e+07 
-4.9000000000000004e+00 -5.3700066117322698e-01 +7.3640378412145919e+00 -2.7589000474025904e-01 -2.1739659276049892e+01 -2.7356794839677409e+03 -1.2870930581125380e+05 +1.1398375941548733e+07 
-5.0000000000000000e+00 -5.3700115828441941e-01 +7.3640202625145657e+00 -2.6185424075829172e-01 -2.1511915175641882e+01 -2.9652370329806922e+03 -1.2978589256201350e+05 +1.2349985634671254e+07 
-5.0999999999999996e+00 -5.3700165845932901e-01 +7.3640021912273710e+00 -2.4793581761035863e-01 -2.1259684918965220e+01 -3.1940503373718293e+03 -1.3104493403812521e+05 +1.3302148239060715e+07 
-5.2000000000000002e+00 -5.3700215974997989e-01 +7.3639841164318680e+00 -2.3428097024365543e-01 -2.0992742996263559e+01 -3.4199140804833096e+03 -1.3243345151669887e+05 +1.4246135690756164e+07 
-5.2999999999999998e+00 -5.3700266020849174e-01 +7.3639665272455384e+00 -2.2103592730764834e-01 -2.0720864971331324e+01 -3.6406230545336011e+03 -1.3389846038054614e+05 +1.5173220411421055e+07 
-5.4000000000000004e+00 -5.3700315788709541e-01 +7.3639499128088639e+00 -2.0834690988416890e-01 -2.0453827038540123e+01 -3.8539721831515612e+03 -1.3538697267267635e+05 +1.6074675410947885e+07 
-5.5000000000000000e+00 -5.3700365083801505e-01 +7.3639347622984781e+00 -1.9636013276153275e-01 -2.0201406393033686e+01 -4.0577564950341148e+03 -1.3684599498086213e+05 +1.6941774156155396e+07 
-5.5999999999999996e+00 -5.3700413711371919e-01 +7.3639215649244729e+00 -1.8522179970431632e-01 -1.9973381154353032e+01 -4.2497712179543796e+03 -1.3822252889111175e+05 +1.7765791029769737e+07 
-5.7000000000000002e+00 -5.3700461476659711e-01 +7.3639108099330812e+00 -1.7507810777488533e-01 -1.9779530446228097e+01 -4.4278116909722849e+03 -1.3946357052511253e+05 +1.8538000895755909e+07 
-5.7999999999999998e+00 -5.3700508184925921e-01 +7.3639029866040815e+00 -1.6607524611046848e-01 -1.9629634315577206e+01 -4.5896733909195000e+03 -1.4051611103290116e+05 +1.9249679234380417e+07 
-5.9000000000000004e+00 -5.3700553641432336e-01 +7.3638985842595828e+00 -1.5835939287633991e-01 -1.9533473985305413e+01 -4.7331519882733037e+03 -1.4132713514861997e+05 +1.9892102401828870e+07 
-5.9999999999999902e+00 -5.3700597651464821e-01 +7.3638980922558428e+00 -1.5207671656779784e-01 -1.9500831616469824e+01 -4.8560433200426733e+03 -1.4184362261333197e+05 +2.0456547489883676e+07 
-6.0999999999999899e+00 -5.3700640071632344e-01 +7.3639018766990345e+00 -1.4733357034152225e-01 -1.9539160174167662e+01 -4.9567126301895860e+03 -1.4202436058645282e+05 +2.0936453411377903e+07 
-6.1999999999999904e+00 -5.3700680961981473e-01 +7.3639098077779641e+00 -1.4407471971096733e-01 -1.9646792400796585e+01 -5.0358418173435839e+03 -1.4187329589044253e+05 +2.1334105307086293e+07 
-6.2999999999999901e+00 -5.3700720432972915e-01 +7.3639216308237057e+00 -1.4220388827948383e-01 -1.9819829132433874e+01 -5.0947023369392709e+03 -1.4140516109408939e+05 +2.1654050054060344e+07 
-6.3999999999999897e+00 -5.3700758595064035e-01 +7.3639370911471138e+00 -1.4162479892124644e-01 -2.0054370718794676e+01 -5.1345656651345371e+03 -1.4063469119045386e+05 +2.1900834630360641e+07 
-6.4999999999999902e+00 -5.3700795558702774e-01 +7.3639559340425533e+00 -1.4224117689322446e-01 -2.0346517123186391e+01 -5.1567032529287144e+03 -1.3957662299816794e+05 +2.2079005932291843e+07 
-6.5999999999999899e+00 -5.3700831434345064e-01 +7.3639779047879657e+00 -1.4395674965980804e-01 -2.0692367927377550e+01 -5.1623865162917064e+03 -1.3824569512605816e+05 +2.2193110691086158e+07 
-6.6999999999999904e+00 -5.3700866332436625e-01 +7.3640027486385673e+00 -1.4667524520165692e-01 -2.1088022159476431e+01 -5.1528868784698761e+03 -1.3665664892509399e+05 +2.2247695701838508e+07 
-6.7999999999999901e+00 -5.3700900363423498e-01 +7.3640302108347004e+00 -1.5030039189734515e-01 -2.1529578516358853e+01 -5.1294757711702578e+03 -1.3482422721363869e+05 +2.2247307824041847e+07 
-6.8999999999999897e+00 -5.3700933637746606e-01 +7.3640600365908426e+00 -1.5473592267394351e-01 -2.2013135057259920e+01 -5.0934245514295462e+03 -1.3276317600627759e+05 +2.2196493574163757e+07 
-6.9999999999999902e+00 -5.3700966265847772e-01 +7.3640919711008319e+00 -1.5988556991495717e-01 -2.2534789352648456e+01 -5.0460046074311949e+03 -1.3048824364416527e+05 +2.2099799654002517e+07 
-7.0999999999999899e+00 -5.3700998358160634e-01 +7.3641257595367620e+00 -1.6565306742953934e-01 -2.3090638467268604e+01 -4.9884873127611063e+03 -1.2801418085875308e+05 +2.1961772708481029e+07 
-7.1999999999999904e+00 -5.3701030025113794e-01 +7.3641611470436859e+00 -1.7194215554145845e-01 -2.3676778789505338e+01 -4.9221439381431173e+03 -1.2535574178251317e+05 +2.1786958928148814e+07 
-7.2999999999999901e+00 -5.3701061377139592e-01 +7.3641978787458315e+00 -1.7865657123570175e-01 -2.4289306237169111e+01 -4.8482458329080946e+03 -1.2252768268833164e+05 +2.1579904897851530e+07 
-7.3999999999999897e+00 -5.3701092524655847e-01 +7.3642356997374225e+00 -1.8570005622317273e-01 -2.4924315991383303e+01 -4.7680642778003485e+03 -1.1954476352197444e+05 +2.1345156909619689e+07 
-7.4999999999999902e+00 -5.3701123578089183e-01 +7.3642743550864465e+00 -1.9297635509547653e-01 -2.5577902594969103e+01 -4.6828705167081334e+03 -1.1642174734416424e+05 +2.1087261104051735e+07 
-7.5999999999999899e+00 -5.3701154647848026e-01 +7.3643135898364855e+00 -2.0038921262605885e-01 -2.6246160029156002e+01 -4.5939358092193042e+03 -1.1317339983057739e+05 +2.0810763726736899e+07 
-7.6999999999999904e+00 -5.3701185844343946e-01 +7.3643531489965905e+00 -2.0784237939822597e-01 -2.6925181415301566e+01 -4.5025313269716307e+03 -1.0981449098100344e+05 +2.0520210638632249e+07 
-7.7999999999999901e+00 -5.3701217277985980e-01 +7.3643927775474385e+00 -2.1523960575271719e-01 -2.7611059187252195e+01 -4.4099282692456773e+03 -1.0635979415482101e+05 +2.0220147869891800e+07 
-7.8999999999999897e+00 -5.3701249059173173e-01 +7.3644322204432218e+00 -2.2248464550000580e-01 -2.8299885177258101e+01 -4.3173977840557545e+03 -1.0282408545368628e+05 +1.9915121219478797e+07 
-7.9999999999999902e+00 -5.3701281298302694e-01 +7.3644712226008995e+00 -2.2948125685982107e-01 -2.8987750271161634e+01 -4.2262109675882020e+03 -9.9222145957289511e+04 +1.9609676288607128e+07 
-8.0999999999999908e+00 -5.3701314099871944e-01 +7.3645095479622524e+00 -2.3614374842854030e-01 -2.9670868012088391e+01 -4.1375222653287674e+03 -9.5570224892607701e+04 +1.9307982117613140e+07 
-8.1999999999999904e+00 -5.3701347543990696e-01 +7.3645470388789409e+00 -2.4243086787129525e-01 -3.0345688077553497e+01 -4.0519905444866695e+03 -9.1892036865445843e+04 +1.9012673159270540e+07 
-8.2999999999999901e+00 -5.3701381704437978e-01 +7.3645835578413719e+00 -2.4831306081829699e-01 -3.1008648264259737e+01 -3.9701439930111042e+03 -8.8213641292967222e+04 +1.8725996817622695e+07 
-8.3999999999999897e+00 -5.3701416654990297e-01 +7.3646189673249216e+00 -2.5376077840673744e-01 -3.1656185881565268e+01 -3.8925106987117911e+03 -8.4561100527363917e+04 +1.8450200066785198e+07 
-8.4999999999999893e+00 -5.3701452469423394e-01 +7.3646531297927460e+00 -2.5874447595587313e-01 -3.2284737838807928e+01 -3.8196186634992109e+03 -8.0960479317920064e+04 +1.8187529486964568e+07 
-8.5999999999999908e+00 -5.3701489221500509e-01 +7.3646859076976003e+00 -2.6323461743323223e-01 -3.2890740719208942e+01 -3.7519957172588724e+03 -7.7437844329633037e+04 +1.7940230850717355e+07 
-8.6999999999999904e+00 -5.3701526984983095e-01 +7.3647171634745163e+00 -2.6720167178892701e-01 -3.3470630535438680e+01 -3.6901695910543895e+03 -7.4019265650576184e+04 +1.7710549482851196e+07 
-8.7999999999999794e+00 -5.3701565833627951e-01 +7.3647467595433573e+00 -2.7061611373902900e-01 -3.4020842842021537e+01 -3.6346678984788114e+03 -7.0730816025997337e+04 +1.7500730162855644e+07 
-8.8999999999999808e+00 -5.3701605841187283e-01 +7.3647745583178503e+00 -2.7344842663768343e-01 -3.4537812959034468e+01 -3.5860180826768005e+03 -6.7598569674379512e+04 +1.7313016877492312e+07 
-8.9999999999999805e+00 -5.3701647081403348e-01 +7.3648004221883427e+00 -2.7566909903690301e-01 -3.5017975490895779e+01 -3.5447474841793423e+03 -6.4648605021570584e+04 +1.7149653153017368e+07 
-9.0999999999999801e+00 -5.3701689628015559e-01 +7.3648242135345710e+00 -2.7724862631513825e-01 -3.5457764687023342e+01 -3.5113833020062211e+03 -6.1907002637402868e+04 +1.7012881846263919e+07 
-9.1999999999999797e+00 -5.3701733554755160e-01 +7.3648457947198374e+00 -2.7815751353057799e-01 -3.5853614276003583e+01 -3.4864525477550642e+03 -5.9399846185482558e+04 +1.6904944953637879e+07 
-9.2999999999999794e+00 -5.3701778935353328e-01 +7.3648650280938535e+00 -2.7836626905490996e-01 -3.6201957537731310e+01 -3.4704821594202235e+03 -5.7153222034088125e+04 +1.6828084131502289e+07 
-9.3999999999999808e+00 -5.3701825843526008e-01 +7.3648817759879313e+00 -2.7784541289523124e-01 -3.6499227164657349e+01 -3.4639988491697864e+03 -5.5193220063860012e+04 +1.6784539990480933e+07 
-9.4999999999999805e+00 -5.3701874352986878e-01 +7.3648959007194197e+00 -2.7656547115737823e-01 -3.6741855407299752e+01 -3.4675292031327922e+03 -5.3545932767180362e+04 +1.6776552556720568e+07 
-9.5999999999999801e+00 -5.3701924537444368e-01 +7.3649072645864715e+00 -2.7449697613995899e-01 -3.6926273884653995e+01 -3.4815996822587203e+03 -5.2237456460280715e+04 +1.6806361283091743e+07 
-9.6999999999999797e+00 -5.3701976470601531e-01 +7.3649157298754577e+00 -2.7161047004921368e-01 -3.7048913832947349e+01 -3.5067365481327661e+03 -5.1293889740124505e+04 +1.6876204688373923e+07 
-9.7999999999999794e+00 -5.3702030226148045e-01 +7.3649211588505823e+00 -2.6787650401503782e-01 -3.7106205778421597e+01 -3.5434658891983086e+03 -5.0741335461888317e+04 +1.6988320502576996e+07 
-9.8999999999999808e+00 -5.3702085877771832e-01 +7.3649234137629609e+00 -2.6326563529752373e-01 -3.7094579807276368e+01 -3.5923136634510170e+03 -5.0605899146697338e+04 +1.7144945845152568e+07 
-9.9999999999999805e+00 -5.3702143499152510e-01 +7.3649223568451392e+00 -2.5774843380668050e-01 -3.7010465447536482e+01 -3.6538055845620470e+03 -5.0913689145074095e+04 +1.7348316748567741e+07 
-1.0100000000000000e+01 -5.3702203123435976e-01 +7.3649179204337161e+00 -2.5131574502776799e-01 -3.6851968671958005e+01 -3.7281858193883813e+03 -5.1679738151158701e+04 +1.7599675787859965e+07 
