# multipoles
# s[mm] polynom_b[n=0][T/m^n] polynom_b[n=1][T/m^n] polynom_b[n=2][T/m^n] polynom_b[n=3][T/m^n] polynom_b[n=4][T/m^n] polynom_b[n=5][T/m^n] polynom_b[n=6][T/m^n] 
+0.0000000000000000e+00 -5.6441969095611033e-01 +7.7378274038108552e+00 -3.3884989787226705e-01 -4.4373289467205510e+01 +6.6087505718727089e+03 +8.9313285860093121e+04 -3.9930096900392525e+07 
-1.0000000000000001e-01 -5.6441993054992956e-01 +7.7378402569672167e+00 -3.3510831493014220e-01 -4.4709668595142091e+01 +6.5731418430493904e+03 +9.1187854012595111e+04 -3.9822945581306040e+07 
-2.0000000000000001e-01 -5.6442015641191534e-01 +7.7378502334479959e+00 -3.3279238460753985e-01 -4.4942803156501974e+01 +6.5583817934656299e+03 +9.2473853462733023e+04 -3.9797975035427064e+07 
-3.0000000000000004e-01 -5.6442036969975973e-01 +7.7378575375525349e+00 -3.3183779842636879e-01 -4.5080714581292945e+01 +6.5634728139926501e+03 +9.3217351198893099e+04 -3.9851077315773025e+07 
-4.0000000000000002e-01 -5.6442057157116399e-01 +7.7378623735814527e+00 -3.3218024658972700e-01 -4.5131424333921075e+01 +6.5874172655998163e+03 +9.3464414362085517e+04 -3.9978144315072447e+07 
-5.0000000000000000e-01 -5.6442076318380585e-01 +7.7378649458472326e+00 -3.3375542256710833e-01 -4.5102954189659741e+01 +6.6292175706020262e+03 +9.3261111773995784e+04 -4.0175068211203024e+07 
-5.9999999999999998e-01 -5.6442094569535428e-01 +7.7378654586640154e+00 -3.3649902095993206e-01 -4.5003325961820039e+01 +6.6878761713204822e+03 +9.2653512417249935e+04 -4.0437741269507907e+07 
-6.9999999999999996e-01 -5.6442112026345703e-01 +7.7378641163554196e+00 -3.4034673893852940e-01 -4.4840561726197230e+01 +6.7623955562544479e+03 +9.1687686733009105e+04 -4.0762055965825707e+07 
-7.9999999999999993e-01 -5.6442128804579783e-01 +7.7378611232458985e+00 -3.4523426939372021e-01 -4.4622683563128113e+01 +6.8517781343939305e+03 +9.0409705102069667e+04 -4.1143904400871709e+07 
-8.9999999999999991e-01 -5.6442145020000067e-01 +7.7378566836678448e+00 -3.5109731234177061e-01 -4.4357713767264087e+01 +6.9550264462996902e+03 +8.8865639078296968e+04 -4.1579179290846832e+07 
-9.9999999999999989e-01 -5.6442160788371643e-01 +7.7378510019519684e+00 -3.5787156468378473e-01 -4.4053674571033973e+01 +7.0711429766301189e+03 +8.7101559790771076e+04 -4.2063773095367633e+07 
-1.0999999999999999e+00 -5.6442176225461715e-01 +7.7378442824399079e+00 -3.6549271992556182e-01 -4.3718588507056559e+01 +7.1991301415124890e+03 +8.5163540036883263e+04 -4.2593577938971333e+07 
-1.2000000000000000e+00 -5.6442191447033441e-01 +7.7378367294681683e+00 -3.7389647735244491e-01 -4.3360477946153246e+01 +7.3379904743572306e+03 +8.3097651614560120e+04 -4.3164486527372181e+07 
-1.3000000000000000e+00 -5.6442206568853437e-01 +7.7378285473815644e+00 -3.8301853107773121e-01 -4.2987365487480702e+01 +7.4867264045771772e+03 +8.0949967591015185e+04 -4.3772391058276713e+07 
-1.4000000000000001e+00 -5.6442221706687634e-01 +7.7378199405234351e+00 -3.9279457580577704e-01 -4.2607273672377978e+01 +7.6443403781451543e+03 +7.8766560632233348e+04 -4.4413183829662405e+07 
-1.5000000000000002e+00 -5.6442236976303528e-01 +7.7378111132365888e+00 -4.0316030466999503e-01 -4.2228225013784645e+01 +7.8098348149965568e+03 +7.6593503184694186e+04 -4.5082757029766902e+07 
-1.6000000000000003e+00 -5.6442252493468614e-01 +7.7378022698681805e+00 -4.1405140991263673e-01 -4.1858242142043174e+01 +7.9822121179615897e+03 +7.4476868333265811e+04 -4.5777002772933953e+07 
-1.7000000000000004e+00 -5.6442268373952531e-01 +7.7377936147603190e+00 -4.2540358064309680e-01 -4.1505347526749816e+01 +8.1604746331369270e+03 +7.2462728168671863e+04 -4.6491812919232354e+07 
-1.8000000000000005e+00 -5.6442284733525838e-01 +7.7377853522620716e+00 -4.3715250484019519e-01 -4.1177563825019263e+01 +8.3436246885917644e+03 +7.0597155819087027e+04 -4.7223079259137556e+07 
-1.9000000000000006e+00 -5.6442301687961194e-01 +7.7377776867081707e+00 -4.4923386733933368e-01 -4.0882913270218850e+01 +8.5306645604694131e+03 +6.8926221908137682e+04 -4.7966693370689347e+07 
-2.0000000000000004e+00 -5.6442319353032344e-01 +7.7377708224463655e+00 -4.6158335109137477e-01 -4.0629418463991009e+01 +8.7205964888599738e+03 +6.7495999169588584e+04 -4.8718546666742124e+07 
-2.1000000000000005e+00 -5.6442337841655588e-01 +7.7377649184181383e+00 -4.7412971972684975e-01 -4.0423362597212673e+01 +8.9123577047168219e+03 +6.6342939386250946e+04 -4.9474385518347107e+07 
-2.2000000000000006e+00 -5.6442357254874020e-01 +7.7377599510510793e+00 -4.8677406880544616e-01 -4.0264133335724949e+01 +9.1046145490147192e+03 +6.5465423554843001e+04 -5.0229308670304291e+07 
-2.3000000000000007e+00 -5.6442377690657908e-01 +7.7377558508703155e+00 -4.9941057053476151e-01 -4.0149408122984923e+01 +9.2959628360104780e+03 +6.4852408304743803e+04 -5.0978235797665380e+07 
-2.4000000000000008e+00 -5.6442399246976438e-01 +7.7377525484020202e+00 -5.1193339778954039e-01 -4.0076864465708802e+01 +9.4849983899132258e+03 +6.4492850777451000e+04 -5.1716086620058730e+07 
-2.5000000000000009e+00 -5.6442422021798411e-01 +7.7377499741526243e+00 -5.2423672432724255e-01 -4.0044179332140615e+01 +9.6703170514625381e+03 +6.4375705153042283e+04 -5.2437780936318718e+07 
-2.6000000000000010e+00 -5.6442446113093969e-01 +7.7377480586256668e+00 -5.3621472129997139e-01 -4.0049029648058600e+01 +9.8505146073231554e+03 +6.4489925558320683e+04 -5.3138238280693956e+07 
-2.7000000000000011e+00 -5.6442471618831869e-01 +7.7377467323044522e+00 -5.4776156151454047e-01 -4.0089091797729409e+01 +1.0024186873165118e+04 +6.4824463190013164e+04 -5.3812378321162075e+07 
-2.8000000000000012e+00 -5.6442498636982474e-01 +7.7377459256665526e+00 -5.5877141586135992e-01 -4.0162042050166853e+01 +1.0189929627303352e+04 +6.5368268801720355e+04 -5.4455120548001997e+07 
-2.9000000000000012e+00 -5.6442527265514131e-01 +7.7377455691687791e+00 -5.6913845669892960e-01 -4.0265556118603733e+01 +1.0346338668312967e+04 +6.6110290157376556e+04 -5.5061384530679047e+07 
-3.0000000000000013e+00 -5.6442557602396604e-01 +7.7377455932541794e+00 -5.7875685480187877e-01 -4.0397309382181426e+01 +1.0492009763198150e+04 +6.7039473366669976e+04 -5.5626089687251426e+07 
-3.1000000000000014e+00 -5.6442589745599103e-01 +7.7377459283496419e+00 -5.8752078157651999e-01 -4.0554976806138896e+01 +1.0625538689378875e+04 +6.8144762409126910e+04 -5.6144155482892588e+07 
-3.2000000000000015e+00 -5.6442623793089686e-01 +7.7377465048644032e+00 -5.9532440898922190e-01 -4.0736232915456057e+01 +1.0745521224640001e+04 +6.9415099029764475e+04 -5.6610501359096013e+07 
-3.3000000000000016e+00 -5.6442659842837795e-01 +7.7377472531875231e+00 -6.0206190746089316e-01 -4.0938751722069682e+01 +1.0850553118200029e+04 +7.0839422332836664e+04 -5.7020046626836017e+07 
-3.4000000000000017e+00 -5.6442697992812030e-01 +7.7377481036914331e+00 -6.0762744769076504e-01 -4.1160206823358422e+01 +1.0939230114694008e+04 +7.2406669340895023e+04 -5.7367710549996145e+07 
-3.5000000000000018e+00 -5.6442738340978904e-01 +7.7377489867240810e+00 -6.1191520328966464e-01 -4.1398271196677406e+01 +1.1010148012294938e+04 +7.4105773879135275e+04 -5.7648412644164681e+07 
-3.6000000000000019e+00 -5.6442780985305996e-01 +7.7377498326118825e+00 -6.1481934557301343e-01 -4.1650617273436183e+01 +1.1061902556073461e+04 +7.5925666983147763e+04 -5.7857072148604907e+07 
-3.7000000000000020e+00 -5.6442826023762405e-01 +7.7377505716611221e+00 -6.1623404405079518e-01 -4.1914916991587504e+01 +1.1093089453545545e+04 +7.7855277236552676e+04 -5.7988608117725439e+07 
-3.8000000000000020e+00 -5.6442873554313255e-01 +7.7377511341476577e+00 -6.1605347281920364e-01 -4.2188841496580217e+01 +1.1102304491857967e+04 +7.9883529046591953e+04 -5.8037939965133511e+07 
-3.9000000000000021e+00 -5.6442923674922285e-01 +7.7377514503303502e+00 -6.1417180714350017e-01 -4.2470061541506965e+01 +1.1088143471658577e+04 +8.1999345006505493e+04 -5.7999987146879725e+07 
-4.0000000000000018e+00 -5.6442976483558727e-01 +7.7377514504354874e+00 -6.1048321544592343e-01 -4.2756247040998964e+01 +1.1049202057973231e+04 +8.4191643322028394e+04 -5.7869668459941231e+07 
-4.1000000000000014e+00 -5.6443032011741223e-01 +7.7377510680980803e+00 -6.0493124135337206e-01 -4.3044916407357675e+01 +1.0984703858858355e+04 +8.6447384108734797e+04 -5.7644087530590862e+07 
-4.2000000000000011e+00 -5.6443090024784814e-01 +7.7377502482984903e+00 -5.9765758981121120e-01 -4.3332595220892586e+01 +1.0896390530188482e+04 +8.8742815899007270e+04 -5.7329082389214709e+07 
-4.3000000000000007e+00 -5.6443150221320526e-01 +7.7377489382778473e+00 -5.8885371273942710e-01 -4.3615462919296803e+01 +1.0786635051120198e+04 +9.1050776736345768e+04 -5.6932672919558533e+07 
-4.4000000000000004e+00 -5.6443212299976597e-01 +7.7377470853008319e+00 -5.7871106657107430e-01 -4.3889699478697274e+01 +1.0657810488876956e+04 +9.3344107151895703e+04 -5.6462879413091116e+07 
-4.5000000000000000e+00 -5.6443275959381989e-01 +7.7377446366588316e+00 -5.6742110747034669e-01 -4.4151485497674543e+01 +1.0512289904222675e+04 +9.5595650628829710e+04 -5.5927722107819341e+07 
-4.5999999999999996e+00 -5.6443340898162286e-01 +7.7377415396729559e+00 -5.5517529651837705e-01 -4.4397002271147990e+01 +1.0352446449865862e+04 +9.7778253958607893e+04 -5.5335221655045956e+07 
-4.6999999999999993e+00 -5.6443406814939956e-01 +7.7377377416985835e+00 -5.4216509981045480e-01 -4.4622431918159343e+01 +1.0180653375853646e+04 +9.9864767967264095e+04 -5.4693399153464220e+07 
-4.7999999999999989e+00 -5.6443473408341061e-01 +7.7377331901261472e+00 -5.2858198029012682e-01 -4.4823957388593321e+01 +9.9992838743241773e+03 +1.0182804748627629e+05 -5.4010275408528350e+07 
-4.8999999999999986e+00 -5.6443540376982426e-01 +7.7377278323806671e+00 -5.1461741336351607e-01 -4.4997762449157456e+01 +9.8107113744697326e+03 +1.0364095125635098e+05 -5.3293872331098117e+07 
-4.9999999999999982e+00 -5.6443607419483954e-01 +7.7377216159267785e+00 -5.0046287176991711e-01 -4.5140031802693294e+01 +9.6173092558649932e+03 +1.0527634252495455e+05 -5.2552211573726028e+07 
-5.0999999999999979e+00 -5.6443674234461427e-01 +7.7377144882686935e+00 -4.8630983460312766e-01 -4.5246951094882583e+01 +9.4214510201355788e+03 +1.0670708909919762e+05 -5.1793315347442612e+07 
-5.1999999999999975e+00 -5.6443740520527452e-01 +7.7377063969536675e+00 -4.7234978637708575e-01 -4.5314706996782220e+01 +9.2255102739105259e+03 +1.0790606374082033e+05 -5.1025206340352520e+07 
-5.2999999999999972e+00 -5.6443805976295103e-01 +7.7376972895753742e+00 -4.5877421213812836e-01 -4.5339487283069978e+01 +9.0318606342198127e+03 +1.0884614456851628e+05 -5.0255907263106152e+07 
-5.3999999999999968e+00 -5.6443870300373211e-01 +7.7376871137728616e+00 -4.4577460374568229e-01 -4.5317480813212747e+01 +8.8428758512835029e+03 +1.0950021494999446e+05 -4.9493441441226132e+07 
-5.4999999999999964e+00 -5.6443933191368412e-01 +7.7376758172362239e+00 -4.3354245744585068e-01 -4.5244877667588412e+01 +8.6609297590103579e+03 +1.0984116420100853e+05 -4.8745832566496797e+07 
-5.5999999999999961e+00 -5.6443994347883963e-01 +7.7376633477020009e+00 -4.2226927494236655e-01 -4.5117869003508432e+01 +8.4883962979974567e+03 +1.0984188669881261e+05 -4.8021104816747621e+07 
-5.6999999999999957e+00 -5.6444053468521149e-01 +7.7376496529655778e+00 -4.1214656220130946e-01 -4.4932647421545987e+01 +8.3276494919412216e+03 +1.0947528402285842e+05 -4.7327282736718662e+07 
-5.7999999999999954e+00 -5.6444110251878987e-01 +7.7376346808730867e+00 -4.0336582940002630e-01 -4.4685406707687399e+01 +8.1810634456522685e+03 +1.0871426335807263e+05 -4.6672391225900069e+07 
-5.8999999999999950e+00 -5.6444164396552443e-01 +7.7376183793293816e+00 -3.9611859395202453e-01 -4.4372342056529178e+01 +8.0510124070959100e+03 +1.0753173876844773e+05 -4.6064455844989404e+07 
-5.9999999999999947e+00 -5.6444215601133785e-01 +7.7376006962999471e+00 -3.9059637787403095e-01 -4.3989650102938718e+01 +7.9398707120580721e+03 +1.0590063127266661e+05 -4.5511502538973704e+07 
-6.0999999999999943e+00 -5.6444263645911830e-01 +7.7375816202651748e+00 -3.8694267682033301e-01 -4.3535184279503859e+01 +7.8494883587397308e+03 +1.0380406213029167e+05 -4.5020073840135150e+07 
-6.1999999999999940e+00 -5.6444308639706209e-01 +7.7375613192250992e+00 -3.8510813879695083e-01 -4.3014425018463307e+01 +7.7796403671381813e+03 +1.0127297122491643e+05 -4.4590981722564504e+07 
-6.2999999999999936e+00 -5.6444350773969054e-01 +7.7375400106391297e+00 -3.8499497290645324e-01 -4.2435020972373685e+01 +7.7295894468933866e+03 +9.8352082864447148e+04 -4.4223665774424814e+07 
-6.3999999999999932e+00 -5.6444390240157194e-01 +7.7375179119447060e+00 -3.8650538225069597e-01 -4.1804620382377927e+01 +7.6985982050183511e+03 +9.5086120027261291e+04 -4.3917565145084009e+07 
-6.4999999999999929e+00 -5.6444427229731442e-01 +7.7374952405561510e+00 -3.8954156463931311e-01 -4.1130871037145063e+01 +7.6859291569198303e+03 +9.1519804134191596e+04 -4.3672118592888378e+07 
-6.5999999999999925e+00 -5.6444461934156065e-01 +7.7374722138504248e+00 -3.9400571355193498e-01 -4.0421419860709626e+01 +7.6908447458529399e+03 +8.7697852678392301e+04 -4.3486764579176016e+07 
-6.6999999999999922e+00 -5.6444494544901735e-01 +7.7374490491845522e+00 -3.9980001390802139e-01 -3.9683913433647120e+01 +7.7126072606312964e+03 +8.3664982316434049e+04 -4.3360940874561764e+07 
-6.7999999999999918e+00 -5.6444525253443523e-01 +7.7374259638782803e+00 -4.0682664564656368e-01 -3.8925997508123352e+01 +7.7504789112440540e+03 +7.9465906124720641e+04 -4.3294084940369241e+07 
-6.8999999999999915e+00 -5.6444554251260992e-01 +7.7374031752189829e+00 -4.1498778192395014e-01 -3.8155317149007139e+01 +7.8037217829822803e+03 +7.5145334443751577e+04 -4.3285633678326227e+07 
-6.9999999999999911e+00 -5.6444581729840249e-01 +7.7373809004643403e+00 -4.2418558825800423e-01 -3.7379516828261899e+01 +7.8715978322946439e+03 +7.0747975479608765e+04 -4.3335023446607783e+07 
-7.0999999999999908e+00 -5.6444607880673492e-01 +7.7373593568325614e+00 -4.3432222203847914e-01 -3.6606240154337080e+01 +7.9533688718995636e+03 +6.6318533809355329e+04 -4.3441689974324264e+07 
-7.1999999999999904e+00 -5.6444632895256974e-01 +7.7373387615045619e+00 -4.4529983477735569e-01 -3.5843129939288275e+01 +8.0482966104996240e+03 +6.1901710788932221e+04 -4.3605068542268224e+07 
-7.2999999999999901e+00 -5.6444656965093298e-01 +7.7373193316210838e+00 -4.5702057046072009e-01 -3.5097828131882878e+01 +8.1556426325220182e+03 +5.7542204239857077e+04 -4.3824593920275360e+07 
-7.3999999999999897e+00 -5.6444680281693427e-01 +7.7373012842885638e+00 -4.6938656196441542e-01 -3.4377976004451448e+01 +8.2746683196708873e+03 +5.3284709600746988e+04 -4.4099699963730648e+07 
-7.4999999999999893e+00 -5.6444703036572874e-01 +7.7372848365659621e+00 -4.8229993595209802e-01 -3.3691213762511971e+01 +8.4046349503825677e+03 +4.9173917662388551e+04 -4.4429820108214900e+07 
-7.5999999999999890e+00 -5.6444725421253583e-01 +7.7372702054702556e+00 -4.9566281111466454e-01 -3.3045180737837498e+01 +8.5448036653393665e+03 +4.5254515796185675e+04 -4.4814387201311484e+07 
-7.6999999999999886e+00 -5.6444747627264602e-01 +7.7372576079763213e+00 -5.0937729633925033e-01 -3.2447515378754765e+01 +8.6944354308053280e+03 +4.1571187910111024e+04 -4.5252833325931154e+07 
-7.7999999999999883e+00 -5.6444769846143639e-01 +7.7372472610100314e+00 -5.2334548958795202e-01 -3.1905855071430707e+01 +8.8527910208547637e+03 +3.8168613491178883e+04 -4.5744589724723935e+07 
-7.8999999999999879e+00 -5.6444792269432686e-01 +7.7372393814511415e+00 -5.3746948315810283e-01 -3.1427836226267328e+01 +9.0191311184869101e+03 +3.5091468136151132e+04 -4.6289087287818804e+07 
-7.9999999999999876e+00 -5.6444815088684808e-01 +7.7372341861310288e+00 -5.5165135470928472e-01 -3.1021094264250014e+01 +9.1927161365803840e+03 +3.2384423656721869e+04 -4.6885755671335481e+07 
-8.0999999999999872e+00 -5.6444838490096960e-01 +7.7372318231795152e+00 -5.6579430564801902e-01 -3.0691389714170338e+01 +9.3726439211116449e+03 +3.0082575049790943e+04 -4.7532736233413555e+07 
-8.1999999999999869e+00 -5.6444862636642856e-01 +7.7372321440146896e+00 -5.7980469962331249e-01 -3.0435776244207698e+01 +9.5573033969897187e+03 +2.8174711095569197e+04 -4.8222696109226361e+07 
-8.2999999999999865e+00 -5.6444887685001877e-01 +7.7372349199496959e+00 -5.9358933663255076e-01 -3.0248812396574486e+01 +9.7448885972768439e+03 +2.6635961083140308e+04 -4.8946832134233408e+07 
-8.3999999999999861e+00 -5.6444913791848461e-01 +7.7372399222833579e+00 -6.0705502021464930e-01 -3.0125056193014824e+01 +9.9335935888417534e+03 +2.5441450866779909e+04 -4.9696341227973506e+07 
-8.4999999999999858e+00 -5.6444941113854474e-01 +7.7372469222936324e+00 -6.2010855635560602e-01 -3.0059065018847967e+01 +1.0121612468611447e+04 +2.4566302286665530e+04 -5.0462420417323723e+07 
-8.5999999999999854e+00 -5.6444969807685952e-01 +7.7372556912423383e+00 -6.3265675590212345e-01 -3.0045395752532819e+01 +1.0307139400007783e+04 +2.3985633889021956e+04 -5.1236266986407369e+07 
-8.6999999999999851e+00 -5.6445000030004833e-01 +7.7372660003698934e+00 -6.4460643373366100e-01 -3.0078604589972528e+01 +1.0488368605316429e+04 +2.3674559828534198e+04 -5.2009078460806876e+07 
-8.7999999999999847e+00 -5.6445031937467471e-01 +7.7372776208997491e+00 -6.5586441012670305e-01 -3.0153247199359626e+01 +1.0663494386381684e+04 +2.3608190835152240e+04 -5.2772052692320466e+07 
-8.8999999999999844e+00 -5.6445065686726681e-01 +7.7372903240361453e+00 -6.6633750742769249e-01 -3.0263878627558334e+01 +1.0830711058231842e+04 +2.3761633578632991e+04 -5.3516387536771148e+07 
-8.9999999999999840e+00 -5.6445101434428557e-01 +7.7373038809596331e+00 -6.7593255518656925e-01 -3.0405053193005426e+01 +1.0988213052200363e+04 +2.4109990097455418e+04 -5.4233281357048705e+07 
-9.0999999999999837e+00 -5.6445139337215733e-01 +7.7373180628352127e+00 -6.8455638486557269e-01 -3.0571324699377836e+01 +1.1134194807296823e+04 +2.4628358971140631e+04 -5.4913932486730024e+07 
-9.1999999999999833e+00 -5.6445179551723401e-01 +7.7373326408050271e+00 -6.9211583609818084e-01 -3.0757246216043857e+01 +1.1266850897036038e+04 +2.5291834005769739e+04 -5.5549539853330158e+07 
-9.2999999999999829e+00 -5.6445222234583770e-01 +7.7373473859877038e+00 -6.9851774958702162e-01 -3.0957370089201397e+01 +1.1384375886147209e+04 +2.6075504386334989e+04 -5.6131302276809342e+07 
-9.3999999999999826e+00 -5.6445267542420319e-01 +7.7373620694854610e+00 -7.0366897539520024e-01 -3.1166248107509158e+01 +1.1484964491006442e+04 +2.6954455496071900e+04 -5.6650419237669684e+07 
-9.4999999999999822e+00 -5.6445315631852944e-01 +7.7373764623755701e+00 -7.0747636557537807e-01 -3.1378431276981939e+01 +1.1566811436930475e+04 +2.7903767683729377e+04 -5.7098090193715937e+07 
-9.5999999999999819e+00 -5.6445366659494201e-01 +7.7373903357127825e+00 -7.0984677996426770e-01 -3.1588469878628629e+01 +1.1628111572333853e+04 +2.8898516531286063e+04 -5.7465515132176705e+07 
-9.6999999999999815e+00 -5.6445420781951083e-01 +7.7374034605278084e+00 -7.1068708263029801e-01 -3.1790913419273803e+01 +1.1667059794860026e+04 +2.9913772557064582e+04 -5.7743894203923322e+07 
-9.7999999999999812e+00 -5.6445478155824291e-01 +7.7374156078337277e+00 -7.0990414367038002e-01 -3.1980310822380229e+01 +1.1681851087211617e+04 +3.0924602326734101e+04 -5.7924427895359404e+07 
-9.8999999999999808e+00 -5.6445538937707462e-01 +7.7374265486158071e+00 -7.0740483951857669e-01 -3.2151210123637185e+01 +1.1670680523187622e+04 +3.1906066638607695e+04 -5.7998317061526760e+07 
-9.9999999999999805e+00 -5.6445603284186940e-01 +7.7374360538343510e+00 -7.0309605367410499e-01 -3.2298158529323636e+01 +1.1631743282174033e+04 +3.2833220812709842e+04 -5.7956762995400526e+07 
-1.0099999999999980e+01 -5.6445671273676257e-01 +7.7374439627333063e+00 -6.9692950764586170e-01 -3.2417182633549984e+01 +1.1563962714213625e+04 +3.3687118566810968e+04 -5.7794142055323780e+07 
