# field on trajectory
# s[mm] rx[mm] ry[mm] rz[mm] bx[T] by[T] bz[T]
0.0000000000000000e+00 +8.1530000000000005e+00 +0.0000000000000000e+00 +0.0000000000000000e+00 -2.9549795972131327e-02 -5.6482893280981428e-01 +5.6239198259450786e-03
1.0000000000000001e-01 +8.1529997163961507e+00 +0.0000000000000000e+00 +9.9999999999463796e-02 -2.9549806255471781e-02 -5.6482900753005050e-01 +5.6239169589934017e-03
2.0000000000000001e-01 +8.1529988655856904e+00 +0.0000000000000000e+00 +1.9999999999571000e-01 -2.9549838856963280e-02 -5.6482908587704861e-01 +5.6239122609830052e-03
2.9999999999999999e-01 +8.1529974475670297e+00 +0.0000000000000000e+00 +2.9999999998552201e-01 -2.9549892652538299e-02 -5.6482916712768971e-01 +5.6239058752000559e-03
4.0000000000000002e-01 +8.1529954623438208e+00 +0.0000000000000000e+00 +3.9999999996568297e-01 -2.9549966518134792e-02 -5.6482925055881272e-01 +5.6238979449313295e-03
5.0000000000000000e-01 +8.1529929099124292e+00 +0.0000000000000000e+00 +4.9999999993297400e-01 -2.9550059329699292e-02 -5.6482933544731295e-01 +5.6238886134653832e-03
5.9999999999999998e-01 +8.1529897902728408e+00 +0.0000000000000000e+00 +5.9999999988417896e-01 -2.9550169963180155e-02 -5.6482942107005818e-01 +5.6238780240919122e-03
6.9999999999999996e-01 +8.1529861034287006e+00 +0.0000000000000000e+00 +6.9999999981608096e-01 -2.9550297294525379e-02 -5.6482950670388954e-01 +5.6238663201019501e-03
8.0000000000000004e-01 +8.1529818493763706e+00 +0.0000000000000000e+00 +7.9999999972546199e-01 -2.9550440199685057e-02 -5.6482959162570801e-01 +5.6238536447889391e-03
9.0000000000000002e-01 +8.1529770281158598e+00 +0.0000000000000000e+00 +8.9999999960910604e-01 -2.9550597554604614e-02 -5.6482967511239179e-01 +5.6238401414480613e-03
1.0000000000000000e+00 +8.1529716396507901e+00 +0.0000000000000000e+00 +9.9999999946379403e-01 -2.9550768235222617e-02 -5.6482975644079614e-01 +5.6238259533764696e-03
1.1000000000000001e+00 +8.1529656839775306e+00 +0.0000000000000000e+00 +1.0999999992863101e+00 -2.9550951117473252e-02 -5.6482983488784055e-01 +5.6238112238743273e-03
1.2000000000000000e+00 +8.1529591610960797e+00 +0.0000000000000000e+00 +1.1999999990734400e+00 -2.9551145077279517e-02 -5.6482990973042502e-01 +5.6237960962441649e-03
1.3000000000000000e+00 +8.1529520710100805e+00 +0.0000000000000000e+00 +1.2999999988219599e+00 -2.9551348990551070e-02 -5.6482998024543052e-01 +5.6237807137910906e-03
1.3999999999999999e+00 +8.1529444137122500e+00 +0.0000000000000000e+00 +1.3999999985286500e+00 -2.9551561733188254e-02 -5.6483004570983519e-01 +5.6237652198241270e-03
1.5000000000000000e+00 +8.1529361892135093e+00 +0.0000000000000000e+00 +1.4999999981903001e+00 -2.9551782181067542e-02 -5.6483010540048850e-01 +5.6237497576541503e-03
1.6000000000000001e+00 +8.1529273975065699e+00 +0.0000000000000000e+00 +1.5999999978037001e+00 -2.9552009210054856e-02 -5.6483015859439434e-01 +5.6237344705969269e-03
1.7000000000000000e+00 +8.1529180385914497e+00 +0.0000000000000000e+00 +1.6999999973656199e+00 -2.9552241695992548e-02 -5.6483020456851618e-01 +5.6237195019713413e-03
1.8000000000000000e+00 +8.1529081124681397e+00 +0.0000000000000000e+00 +1.7999999968728499e+00 -2.9552478514700366e-02 -5.6483024259983372e-01 +5.6237049951001509e-03
1.8999999999999999e+00 +8.1528976191402798e+00 +0.0000000000000000e+00 +1.8999999963221601e+00 -2.9552718541971744e-02 -5.6483027196531688e-01 +5.6236910933099397e-03
2.0000000000000000e+00 +8.1528865586042194e+00 +0.0000000000000000e+00 +1.9999999957103500e+00 -2.9552960653576234e-02 -5.6483029194201173e-01 +5.6236779399321396e-03
2.1000000000000001e+00 +8.1528749308599799e+00 +0.0000000000000000e+00 +2.0999999950341901e+00 -2.9553203945314445e-02 -5.6483030206657070e-01 +5.6236656765533645e-03
2.2000000000000002e+00 +8.1528627359111905e+00 +0.0000000000000000e+00 +2.1999999942904802e+00 -2.9553448393213916e-02 -5.6483030291409653e-01 +5.6236544377666038e-03
2.2999999999999998e+00 +8.1528499737542006e+00 +0.0000000000000000e+00 +2.2999999934759798e+00 -2.9553694193370769e-02 -5.6483029531936002e-01 +5.6236443564158549e-03
2.3999999999999999e+00 +8.1528366443890299e+00 +0.0000000000000000e+00 +2.3999999925874800e+00 -2.9553941541888590e-02 -5.6483028011709902e-01 +5.6236355653434328e-03
2.5000000000000000e+00 +8.1528227478193003e+00 +0.0000000000000000e+00 +2.4999999916217801e+00 -2.9554190634880715e-02 -5.6483025814201604e-01 +5.6236281973895304e-03
2.6000000000000001e+00 +8.1528082840413791e+00 +0.0000000000000000e+00 +2.5999999905756401e+00 -2.9554441668477174e-02 -5.6483023022886014e-01 +5.6236223853926206e-03
2.7000000000000002e+00 +8.1527932530552807e+00 +0.0000000000000000e+00 +2.6999999894458502e+00 -2.9554694838822320e-02 -5.6483019721234196e-01 +5.6236182621881466e-03
2.7999999999999998e+00 +8.1527776548646198e+00 +0.0000000000000000e+00 +2.7999999882291999e+00 -2.9554950342077189e-02 -5.6483015992713093e-01 +5.6236159606081011e-03
2.8999999999999999e+00 +8.1527614894657692e+00 +0.0000000000000000e+00 +2.8999999869224702e+00 -2.9555208374426354e-02 -5.6483011920793824e-01 +5.6236156134814082e-03
3.0000000000000000e+00 +8.1527447568587394e+00 +0.0000000000000000e+00 +2.9999999855224302e+00 -2.9555469132075646e-02 -5.6483007588943246e-01 +5.6236173536326406e-03
3.1000000000000001e+00 +8.1527274570471508e+00 +0.0000000000000000e+00 +3.0999999840258798e+00 -2.9555732811254429e-02 -5.6483003080623451e-01 +5.6236213138815602e-03
3.2000000000000002e+00 +8.1527095900273707e+00 +0.0000000000000000e+00 +3.1999999824295902e+00 -2.9555999608222531e-02 -5.6482998479300361e-01 +5.6236276270435421e-03
3.2999999999999998e+00 +8.1526911557994008e+00 +0.0000000000000000e+00 +3.2999999807303602e+00 -2.9556269719267867e-02 -5.6482993868434894e-01 +5.6236364259282532e-03
3.3999999999999999e+00 +8.1526721543668792e+00 +0.0000000000000000e+00 +3.3999999789249502e+00 -2.9556543340708844e-02 -5.6482989331482925e-01 +5.6236478433392230e-03
3.5000000000000000e+00 +8.1526525857261696e+00 +0.0000000000000000e+00 +3.4999999770101602e+00 -2.9556820668901161e-02 -5.6482984951903425e-01 +5.6236620120742433e-03
3.6000000000000001e+00 +8.1526324498772702e+00 +0.0000000000000000e+00 +3.5999999749827598e+00 -2.9557101900235541e-02 -5.6482980813150063e-01 +5.6236790649240778e-03
3.7000000000000002e+00 +8.1526117468238208e+00 +0.0000000000000000e+00 +3.6999999728395401e+00 -2.9557387231140056e-02 -5.6482976998670775e-01 +5.6236991346719960e-03
3.7999999999999998e+00 +8.1525904765621799e+00 +0.0000000000000000e+00 +3.7999999705772902e+00 -2.9557676858086964e-02 -5.6482973591916230e-01 +5.6237223540941952e-03
3.8999999999999999e+00 +8.1525686390959908e+00 +0.0000000000000000e+00 +3.8999999681927799e+00 -2.9557970977588895e-02 -5.6482970676328281e-01 +5.6237488559582180e-03
4.0000000000000000e+00 +8.1525462344179704e+00 +0.0000000000000000e+00 +3.9999999656827998e+00 -2.9558269786208881e-02 -5.6482968335354022e-01 +5.6237787730239195e-03
4.0999999999999996e+00 +8.1525232625354001e+00 +0.0000000000000000e+00 +4.0999999630441302e+00 -2.9558573236424572e-02 -5.6482966642610322e-01 +5.6238121981838475e-03
4.2000000000000002e+00 +8.1524997234482708e+00 +0.0000000000000000e+00 +4.1999999602735496e+00 -2.9558880304232343e-02 -5.6482965632456117e-01 +5.6238490648964417e-03
4.2999999999999998e+00 +8.1524756171529607e+00 +0.0000000000000000e+00 +4.2999999573678496e+00 -2.9559189721484819e-02 -5.6482965329438495e-01 +5.6238892667636632e-03
4.4000000000000004e+00 +8.1524509436494608e+00 +0.0000000000000000e+00 +4.3999999543238104e+00 -2.9559500220007230e-02 -5.6482965758102710e-01 +5.6239326973887777e-03
4.5000000000000000e+00 +8.1524257029377605e+00 +0.0000000000000000e+00 +4.4999999511382098e+00 -2.9559810531596901e-02 -5.6482966942995316e-01 +5.6239792503768636e-03
4.5999999999999996e+00 +8.1523998950215208e+00 +0.0000000000000000e+00 +4.5999999478078299e+00 -2.9560119388019349e-02 -5.6482968908661424e-01 +5.6240288193347325e-03
4.7000000000000002e+00 +8.1523735198970808e+00 +0.0000000000000000e+00 +4.6999999443294600e+00 -2.9560425521010958e-02 -5.6482971679653171e-01 +5.6240812978720182e-03
4.7999999999999998e+00 +8.1523465775644599e+00 +0.0000000000000000e+00 +4.7999999406998803e+00 -2.9560727662271951e-02 -5.6482975280521452e-01 +5.6241365796005213e-03
4.9000000000000004e+00 +8.1523190680272801e+00 +0.0000000000000000e+00 +4.8999999369158704e+00 -2.9561024543464355e-02 -5.6482979735816086e-01 +5.6241945581344309e-03
5.0000000000000000e+00 +8.1522909912819195e+00 +0.0000000000000000e+00 +4.9999999329742204e+00 -2.9561314896214368e-02 -5.6482985070094283e-01 +5.6242551270914050e-03
5.0999999999999996e+00 +8.1522623473319999e+00 +0.0000000000000000e+00 +5.0999999288717000e+00 -2.9561597452104040e-02 -5.6482991307909503e-01 +5.6243181800916297e-03
5.2000000000000002e+00 +8.1522331361738907e+00 +0.0000000000000000e+00 +5.1999999246051098e+00 -2.9561870942675261e-02 -5.6482998473822887e-01 +5.6243836107591873e-03
5.2999999999999998e+00 +8.1522033578075899e+00 +0.0000000000000000e+00 +5.2999999201712198e+00 -2.9562134099422970e-02 -5.6483006592394913e-01 +5.6244513127214155e-03
5.4000000000000004e+00 +8.1521730122331100e+00 +0.0000000000000000e+00 +5.3999999155668199e+00 -2.9562385653794446e-02 -5.6483015688188254e-01 +5.6245211796094041e-03
5.5000000000000000e+00 +8.1521420994540694e+00 +0.0000000000000000e+00 +5.4999999107886799e+00 -2.9562624337185719e-02 -5.6483025785765162e-01 +5.6245931050579352e-03
5.5999999999999996e+00 +8.1521106194668391e+00 +0.0000000000000000e+00 +5.5999999058335996e+00 -2.9562848880943873e-02 -5.6483036909695961e-01 +5.6246669827065476e-03
5.7000000000000002e+00 +8.1520785722750606e+00 +0.0000000000000000e+00 +5.6999999006983604e+00 -2.9563058016358817e-02 -5.6483049084547954e-01 +5.6247427061986181e-03
5.7999999999999998e+00 +8.1520459578750906e+00 +0.0000000000000000e+00 +5.7999998953797300e+00 -2.9563250474667235e-02 -5.6483062334896750e-01 +5.6248201691827095e-03
5.9000000000000004e+00 +8.1520127762669308e+00 +0.0000000000000000e+00 +5.8999998898744996e+00 -2.9563424987045762e-02 -5.6483076685317968e-01 +5.6248992653119469e-03
5.9999999999999902e+00 +8.1519790274505795e+00 +0.0000000000000000e+00 +5.9999998841794504e+00 -2.9563580284610393e-02 -5.6483092160390180e-01 +5.6249798882445062e-03
6.0999999999999899e+00 +8.1519447114296799e+00 +0.0000000000000000e+00 +6.0999998782913698e+00 -2.9563715569515477e-02 -5.6483108785077740e-01 +5.6250619494433093e-03
6.1999999999999904e+00 +8.1519098282005906e+00 +0.0000000000000000e+00 +6.1999998722070400e+00 -2.9563831928303495e-02 -5.6483126585895593e-01 +5.6251454315751790e-03
6.2999999999999901e+00 +8.1518743777669407e+00 +0.0000000000000000e+00 +6.2999998659232403e+00 -2.9563930918643320e-02 -5.6483145589738626e-01 +5.6252303351078444e-03
6.3999999999999897e+00 +8.1518383601214701e+00 +0.0000000000000000e+00 +6.3999998594367504e+00 -2.9564014098241692e-02 -5.6483165823509951e-01 +5.6253166605111623e-03
6.4999999999999902e+00 +8.1518017752750893e+00 +0.0000000000000000e+00 +6.4999998527443603e+00 -2.9564083024832519e-02 -5.6483187314098293e-01 +5.6254044082548783e-03
6.5999999999999899e+00 +8.1517646232205205e+00 +0.0000000000000000e+00 +6.5999998458428504e+00 -2.9564139256194152e-02 -5.6483210088406022e-01 +5.6254935788115166e-03
6.6999999999999904e+00 +8.1517269039541098e+00 +0.0000000000000000e+00 +6.6999998387290001e+00 -2.9564184350141812e-02 -5.6483234173332386e-01 +5.6255841726547086e-03
6.7999999999999901e+00 +8.1516886174867995e+00 +0.0000000000000000e+00 +6.7999998313996004e+00 -2.9564219864524684e-02 -5.6483259595764945e-01 +5.6256761902583555e-03
6.8999999999999897e+00 +8.1516497638112906e+00 +0.0000000000000000e+00 +6.8999998238514202e+00 -2.9564247357241703e-02 -5.6483286382604914e-01 +5.6257696320992636e-03
6.9999999999999902e+00 +8.1516103429239593e+00 +0.0000000000000000e+00 +6.9999998160812602e+00 -2.9564268386233852e-02 -5.6483314560750164e-01 +5.6258644986554428e-03
7.0999999999999899e+00 +8.1515703548320708e+00 +0.0000000000000000e+00 +7.0999998080858804e+00 -2.9564284509482966e-02 -5.6483344157089710e-01 +5.6259607904055806e-03
7.1999999999999904e+00 +8.1515297995356395e+00 +0.0000000000000000e+00 +7.1999997998620904e+00 -2.9564297285021107e-02 -5.6483375198517660e-01 +5.6260585078305178e-03
7.2999999999999901e+00 +8.1514886770310095e+00 +0.0000000000000000e+00 +7.2999997914066501e+00 -2.9564308270930824e-02 -5.6483407711930289e-01 +5.6261576514129814e-03
7.3999999999999897e+00 +8.1514469873182005e+00 +0.0000000000000000e+00 +7.3999997827163604e+00 -2.9564319025343781e-02 -5.6483441724220607e-01 +5.6262582216370658e-03
7.4999999999999902e+00 +8.1514047304008308e+00 +0.0000000000000000e+00 +7.4999997737879900e+00 -2.9564331106442521e-02 -5.6483477262278181e-01 +5.6263602189882637e-03
7.5999999999999899e+00 +8.1513619062752696e+00 +0.0000000000000000e+00 +7.5999997646183202e+00 -2.9564346072466802e-02 -5.6483514352997466e-01 +5.6264636439543490e-03
7.6999999999999904e+00 +8.1513185149451601e+00 +0.0000000000000000e+00 +7.6999997552041499e+00 -2.9564365481709199e-02 -5.6483553023266775e-01 +5.6265684970242995e-03
7.7999999999999901e+00 +8.1512745564032194e+00 +0.0000000000000000e+00 +7.7999997455422498e+00 -2.9564390892524533e-02 -5.6483593299982071e-01 +5.6266747786897255e-03
7.8999999999999897e+00 +8.1512300306567305e+00 +0.0000000000000000e+00 +7.8999997356294100e+00 -2.9564423863320827e-02 -5.6483635210027339e-01 +5.6267824894429370e-03
7.9999999999999902e+00 +8.1511849377056897e+00 +0.0000000000000000e+00 +7.9999997254624002e+00 -2.9564465952570309e-02 -5.6483678780291502e-01 +5.6268916297786808e-03
8.0999999999999908e+00 +8.1511392775464593e+00 +0.0000000000000000e+00 +8.0999997150380096e+00 -2.9564518329482252e-02 -5.6483724011649217e-01 +5.6270021802981279e-03
8.1999999999999904e+00 +8.1510930501790408e+00 +0.0000000000000000e+00 +8.1999997043530293e+00 -2.9564580605976446e-02 -5.6483770800905919e-01 +5.6271140420188137e-03
8.2999999999999901e+00 +8.1510462556034309e+00 +0.0000000000000000e+00 +8.2999996934042404e+00 -2.9564652004620086e-02 -5.6483819018849890e-01 +5.6272270960597151e-03
8.3999999999999897e+00 +8.1509988938232691e+00 +0.0000000000000000e+00 +8.3999996821884100e+00 -2.9564731747951517e-02 -5.6483868536266302e-01 +5.6273412235365635e-03
8.4999999999999893e+00 +8.1509509648349194e+00 +0.0000000000000000e+00 +8.4999996707023406e+00 -2.9564819058483707e-02 -5.6483919223945445e-01 +5.6274563055625842e-03
8.5999999999999908e+00 +8.1509024686420197e+00 +0.0000000000000000e+00 +8.5999996589427994e+00 -2.9564913158697120e-02 -5.6483970952671714e-01 +5.6275722232472488e-03
8.6999999999999904e+00 +8.1508534052409196e+00 +0.0000000000000000e+00 +8.6999996469065692e+00 -2.9565013271044792e-02 -5.6484023593234567e-01 +5.6276888576973069e-03
8.7999999999999794e+00 +8.1508037746316404e+00 +0.0000000000000000e+00 +8.7999996345904599e+00 -2.9565118617946657e-02 -5.6484077016420264e-01 +5.6278060900158220e-03
8.8999999999999808e+00 +8.1507535768178094e+00 +0.0000000000000000e+00 +8.8999996219912205e+00 -2.9565228421788495e-02 -5.6484131093011825e-01 +5.6279238013020611e-03
8.9999999999999805e+00 +8.1507028117957798e+00 +0.0000000000000000e+00 +8.9999996091056396e+00 -2.9565341904925550e-02 -5.6484185693797428e-01 +5.6280418726522459e-03
9.0999999999999801e+00 +8.1506514795655693e+00 +0.0000000000000000e+00 +9.0999995959305195e+00 -2.9565458289676820e-02 -5.6484240689561904e-01 +5.6281601851585787e-03
9.1999999999999797e+00 +8.1505995801308000e+00 +0.0000000000000000e+00 +9.1999995824626293e+00 -2.9565576798324038e-02 -5.6484295951086883e-01 +5.6282786199091410e-03
9.2999999999999794e+00 +8.1505471134878498e+00 +0.0000000000000000e+00 +9.2999995686987500e+00 -2.9565696653115228e-02 -5.6484351349158990e-01 +5.6283970579886411e-03
9.3999999999999808e+00 +8.1504940796366991e+00 +0.0000000000000000e+00 +9.3999995546356701e+00 -2.9565817076259063e-02 -5.6484406754561722e-01 +5.6285153804774436e-03
9.4999999999999805e+00 +8.1504404785773694e+00 +0.0000000000000000e+00 +9.4999995402701707e+00 -2.9565937289925320e-02 -5.6484462038077798e-01 +5.6286334684517445e-03
9.5999999999999801e+00 +8.1503863103171206e+00 +0.0000000000000000e+00 +9.5999995255990296e+00 -2.9566056516240821e-02 -5.6484517070483953e-01 +5.6287512029829043e-03
9.6999999999999797e+00 +8.1503315748450404e+00 +0.0000000000000000e+00 +9.6999995106190298e+00 -2.9566173977299132e-02 -5.6484571722570398e-01 +5.6288684651393198e-03
9.7999999999999794e+00 +8.1502762721684103e+00 +0.0000000000000000e+00 +9.7999994953269702e+00 -2.9566288895144111e-02 -5.6484625865112703e-01 +5.6289851359834758e-03
9.8999999999999808e+00 +8.1502204022835905e+00 +0.0000000000000000e+00 +9.8999994797196091e+00 -2.9566400491781213e-02 -5.6484679368894275e-01 +5.6291010965741064e-03
9.9999999999999805e+00 +8.1501639651905897e+00 +0.0000000000000000e+00 +9.9999994637937508e+00 -2.9566507989170269e-02 -5.6484732104695168e-01 +5.6292162279649545e-03
1.0100000000000000e+01 +8.1501069608966592e+00 +0.0000000000000000e+00 +1.0099999447546200e+01 -2.9566610934375192e-02 -5.6484783972852948e-01 +5.6293304551649484e-03
1.0199999999999999e+01 +8.1500493893909205e+00 +0.0000000000000000e+00 +1.0199999430973600e+01 -2.9566710175072244e-02 -5.6484834991974520e-01 +5.6294438790258916e-03
1.0300000000000001e+01 +8.1499912506769796e+00 +0.0000000000000000e+00 +1.0299999414073000e+01 -2.9566806884105162e-02 -5.6484885210216995e-01 +5.6295566443589143e-03
1.0400000000000000e+01 +8.1499325447584905e+00 +0.0000000000000000e+00 +1.0399999396840901e+01 -2.9566902234334180e-02 -5.6484934675733867e-01 +5.6296688959738888e-03
1.0500000000000000e+01 +8.1498732716317992e+00 +0.0000000000000000e+00 +1.0499999379274200e+01 -2.9566997398639702e-02 -5.6484983436680547e-01 +5.6297807786800224e-03
1.0600000000000000e+01 +8.1498134313005703e+00 +0.0000000000000000e+00 +1.0599999361369800e+01 -2.9567093549916549e-02 -5.6485031541203035e-01 +5.6298924372846686e-03
1.0699999999999999e+01 +8.1497530237611500e+00 +0.0000000000000000e+00 +1.0699999343124301e+01 -2.9567191861080637e-02 -5.6485079037449126e-01 +5.6300040165944741e-03
1.0800000000000001e+01 +8.1496920490171796e+00 +0.0000000000000000e+00 +1.0799999324534600e+01 -2.9567293505063291e-02 -5.6485125973557038e-01 +5.6301156614142122e-03
1.0900000000000000e+01 +8.1496305070650106e+00 +0.0000000000000000e+00 +1.0899999305597399e+01 -2.9567399654817930e-02 -5.6485172397666628e-01 +5.6302275165479197e-03
1.1000000000000000e+01 +8.1495683979046607e+00 +0.0000000000000000e+00 +1.0999999286309500e+01 -2.9567511483315882e-02 -5.6485218357910771e-01 +5.6303397267980044e-03
1.1100000000000000e+01 +8.1495057215361193e+00 +0.0000000000000000e+00 +1.1099999266667700e+01 -2.9567630163548429e-02 -5.6485263902418192e-01 +5.6304524369655438e-03
1.1199999999999999e+01 +8.1494424779630208e+00 +0.0000000000000000e+00 +1.1199999246668799e+01 -2.9567756868525790e-02 -5.6485309079310442e-01 +5.6305657918499612e-03
1.1300000000000001e+01 +8.1493786671817396e+00 +0.0000000000000000e+00 +1.1299999226309600e+01 -2.9567892771282168e-02 -5.6485353936710447e-01 +5.6306799362498758e-03
1.1400000000000000e+01 +8.1493142891922599e+00 +0.0000000000000000e+00 +1.1399999205586900e+01 -2.9568039044871687e-02 -5.6485398522733798e-01 +5.6307950149622416e-03
1.1500000000000000e+01 +8.1492493440018698e+00 +0.0000000000000000e+00 +1.1499999184497300e+01 -2.9568196862367252e-02 -5.6485442885485937e-01 +5.6309111727820271e-03
1.1600000000000000e+01 +8.1491838315996592e+00 +0.0000000000000000e+00 +1.1599999163037801e+01 -2.9568367396871881e-02 -5.6485487073081719e-01 +5.6310285545042148e-03
1.1699999999999999e+01 +8.1491177519928897e+00 +0.0000000000000000e+00 +1.1699999141205099e+01 -2.9568551821503808e-02 -5.6485531133617350e-01 +5.6311473049209249e-03
1.1800000000000001e+01 +8.1490511051779304e+00 +0.0000000000000000e+00 +1.1799999118996000e+01 -2.9568751309409187e-02 -5.6485575115192543e-01 +5.6312675688236866e-03
