# field on trajectory
# s[mm] rx[mm] ry[mm] rz[mm] bx[T] by[T] bz[T]
0.0000000000000000e+00 +8.1530000000000094e+00 +0.0000000000000000e+00 +0.0000000000000000e+00 -2.9549795972131324e-02 -5.6482893280981417e-01 +5.6239198259450769e-03
1.0000000000000001e-01 +8.1529997163925092e+00 +0.0000000000000000e+00 +9.9999999999463796e-02 -2.9549806255473324e-02 -5.6482900753007859e-01 +5.6239169589936870e-03
2.0000000000000001e-01 +8.1529988655711296e+00 +0.0000000000000000e+00 +1.9999999999571000e-01 -2.9549838856969456e-02 -5.6482908587716107e-01 +5.6239122609841432e-03
2.9999999999999999e-01 +8.1529974475415692e+00 +0.0000000000000000e+00 +2.9999999998552201e-01 -2.9549892652549103e-02 -5.6482916712788633e-01 +5.6239058752020482e-03
4.0000000000000002e-01 +8.1529954622965306e+00 +0.0000000000000000e+00 +3.9999999996568197e-01 -2.9549966518154863e-02 -5.6482925055917821e-01 +5.6238979449350288e-03
5.0000000000000000e-01 +8.1529929098396696e+00 +0.0000000000000000e+00 +4.9999999993297300e-01 -2.9550059329730177e-02 -5.6482933544787539e-01 +5.6238886134710765e-03
5.9999999999999998e-01 +8.1529897901673394e+00 +0.0000000000000000e+00 +5.9999999988417696e-01 -2.9550169963224942e-02 -5.6482942107087342e-01 +5.6238780241001651e-03
6.9999999999999996e-01 +8.1529861032831796e+00 +0.0000000000000000e+00 +6.9999999981607697e-01 -2.9550297294587156e-02 -5.6482950670501386e-01 +5.6238663201133333e-03
8.0000000000000004e-01 +8.1529818491871993e+00 +0.0000000000000000e+00 +7.9999999972545699e-01 -2.9550440199765382e-02 -5.6482959162717017e-01 +5.6238536448037380e-03
9.0000000000000002e-01 +8.1529770278793894e+00 +0.0000000000000000e+00 +8.9999999960909804e-01 -2.9550597554705023e-02 -5.6482967511421911e-01 +5.6238401414665596e-03
1.0000000000000000e+00 +8.1529716393597500e+00 +0.0000000000000000e+00 +9.9999999946378304e-01 -2.9550768235346206e-02 -5.6482975644304523e-01 +5.6238259533992344e-03
1.1000000000000001e+00 +8.1529656836210105e+00 +0.0000000000000000e+00 +1.0999999992862901e+00 -2.9550951117624645e-02 -5.6482983489059579e-01 +5.6238112239022104e-03
1.2000000000000000e+00 +8.1529591606740706e+00 +0.0000000000000000e+00 +1.1999999990734200e+00 -2.9551145077458724e-02 -5.6482990973368596e-01 +5.6237960962771697e-03
1.3000000000000000e+00 +8.1529520705153100e+00 +0.0000000000000000e+00 +1.2999999988219300e+00 -2.9551348990761186e-02 -5.6482998024925379e-01 +5.6237807138297844e-03
1.3999999999999999e+00 +8.1529444131410909e+00 +0.0000000000000000e+00 +1.3999999985286200e+00 -2.9551561733430817e-02 -5.6483004571424900e-01 +5.6237652198687961e-03
1.5000000000000000e+00 +8.1529361885550298e+00 +0.0000000000000000e+00 +1.4999999981902701e+00 -2.9551782181347210e-02 -5.6483010540557688e-01 +5.6237497577056490e-03
1.6000000000000001e+00 +8.1529273967571498e+00 +0.0000000000000000e+00 +1.5999999978036501e+00 -2.9552009210373150e-02 -5.6483015860018548e-01 +5.6237344706555380e-03
1.7000000000000000e+00 +8.1529180377474404e+00 +0.0000000000000000e+00 +1.6999999973655600e+00 -2.9552241696351015e-02 -5.6483020457503808e-01 +5.6237195020373476e-03
1.8000000000000000e+00 +8.1529081115222706e+00 +0.0000000000000000e+00 +1.7999999968727800e+00 -2.9552478515102114e-02 -5.6483024260714287e-01 +5.6237049951741265e-03
1.8999999999999999e+00 +8.1528976180852606e+00 +0.0000000000000000e+00 +1.8999999963220899e+00 -2.9552718542419854e-02 -5.6483027197346947e-01 +5.6236910933924510e-03
2.0000000000000000e+00 +8.1528865574327902e+00 +0.0000000000000000e+00 +1.9999999957102601e+00 -2.9552960654073802e-02 -5.6483029195106382e-01 +5.6236779400237616e-03
2.1000000000000001e+00 +8.1528749295721408e+00 +0.0000000000000000e+00 +2.0999999950340902e+00 -2.9553203945861448e-02 -5.6483030207652263e-01 +5.6236656766540973e-03
2.2000000000000002e+00 +8.1528627344960096e+00 +0.0000000000000000e+00 +2.1999999942903599e+00 -2.9553448393814991e-02 -5.6483030292503200e-01 +5.6236544378773026e-03
2.2999999999999998e+00 +8.1528499722080596e+00 +0.0000000000000000e+00 +2.2999999934758399e+00 -2.9553694194027459e-02 -5.6483029533130769e-01 +5.6236443565368076e-03
2.3999999999999999e+00 +8.1528366427046404e+00 +0.0000000000000000e+00 +2.3999999925873299e+00 -2.9553941542603976e-02 -5.6483028013011505e-01 +5.6236355654752119e-03
2.5000000000000000e+00 +8.1528227459894005e+00 +0.0000000000000000e+00 +2.4999999916215998e+00 -2.9554190635657875e-02 -5.6483025815615640e-01 +5.6236281975327049e-03
2.6000000000000001e+00 +8.1528082820659602e+00 +0.0000000000000000e+00 +2.5999999905754398e+00 -2.9554441669316096e-02 -5.6483023024412515e-01 +5.6236223855471949e-03
2.7000000000000002e+00 +8.1527932509234198e+00 +0.0000000000000000e+00 +2.6999999894456299e+00 -2.9554694839727651e-02 -5.6483019722881578e-01 +5.6236182623549784e-03
2.7999999999999998e+00 +8.1527776525726896e+00 +0.0000000000000000e+00 +2.7999999882289601e+00 -2.9554950343050453e-02 -5.6483015994484154e-01 +5.6236159607874776e-03
2.8999999999999999e+00 +8.1527614870065008e+00 +0.0000000000000000e+00 +2.8999999869222002e+00 -2.9555208375470623e-02 -5.6483011922694215e-01 +5.6236156136739044e-03
3.0000000000000000e+00 +8.1527447542284808e+00 +0.0000000000000000e+00 +2.9999999855221300e+00 -2.9555469133192461e-02 -5.6483007590975765e-01 +5.6236173538385418e-03
3.1000000000000001e+00 +8.1527274542386294e+00 +0.0000000000000000e+00 +3.0999999840255499e+00 -2.9555732812446885e-02 -5.6483003082793759e-01 +5.6236213141014424e-03
3.2000000000000002e+00 +8.1527095870333106e+00 +0.0000000000000000e+00 +3.1999999824292300e+00 -2.9555999609493684e-02 -5.6482998481614044e-01 +5.6236276272779761e-03
3.2999999999999998e+00 +8.1526911526198091e+00 +0.0000000000000000e+00 +3.2999999807299600e+00 -2.9556269720617742e-02 -5.6482993870891973e-01 +5.6236364261772415e-03
3.3999999999999999e+00 +8.1526721509872004e+00 +0.0000000000000000e+00 +3.3999999789245101e+00 -2.9556543342143596e-02 -5.6482989334094613e-01 +5.6236478436039088e-03
3.5000000000000000e+00 +8.1526525821464002e+00 +0.0000000000000000e+00 +3.4999999770096801e+00 -2.9556820670420793e-02 -5.6482984954669757e-01 +5.6236620123546327e-03
3.6000000000000001e+00 +8.1526324460901396e+00 +0.0000000000000000e+00 +3.5999999749822500e+00 -2.9557101901843148e-02 -5.6482980816076644e-01 +5.6236790652207371e-03
3.7000000000000002e+00 +8.1526117428220495e+00 +0.0000000000000000e+00 +3.6999999728389801e+00 -2.9557387232838704e-02 -5.6482977001763202e-01 +5.6236991349854978e-03
3.7999999999999998e+00 +8.1525904723421299e+00 +0.0000000000000000e+00 +3.7999999705766800e+00 -2.9557676859878219e-02 -5.6482973595177355e-01 +5.6237223544248300e-03
3.8999999999999999e+00 +8.1525686346503807e+00 +0.0000000000000000e+00 +3.8999999681921298e+00 -2.9557970979475864e-02 -5.6482970679763722e-01 +5.6237488563065548e-03
4.0000000000000000e+00 +8.1525462297431694e+00 +0.0000000000000000e+00 +3.9999999656820902e+00 -2.9558269788193106e-02 -5.6482968338966544e-01 +5.6237787733902419e-03
4.0999999999999996e+00 +8.1525232576241304e+00 +0.0000000000000000e+00 +4.0999999630433699e+00 -2.9558573238509165e-02 -5.6482966646405586e-01 +5.6238121985687289e-03
4.2000000000000002e+00 +8.1524997182896204e+00 +0.0000000000000000e+00 +4.1999999602727298e+00 -2.9558880306421963e-02 -5.6482965636442561e-01 +5.6238490653007346e-03
4.2999999999999998e+00 +8.1524756117469206e+00 +0.0000000000000000e+00 +4.2999999573669703e+00 -2.9559189723779477e-02 -5.6482965333616142e-01 +5.6238892671873703e-03
4.4000000000000004e+00 +8.1524509379887604e+00 +0.0000000000000000e+00 +4.3999999543228601e+00 -2.9559500222410048e-02 -5.6482965762477144e-01 +5.6239326978324662e-03
4.5000000000000000e+00 +8.1524256970187707e+00 +0.0000000000000000e+00 +4.4999999511372000e+00 -2.9559810534109408e-02 -5.6482966947569346e-01 +5.6239792508408137e-03
4.5999999999999996e+00 +8.1523998888369498e+00 +0.0000000000000000e+00 +4.5999999478067499e+00 -2.9560119390644696e-02 -5.6482968913440645e-01 +5.6240288198195166e-03
4.7000000000000002e+00 +8.1523735134396702e+00 +0.0000000000000000e+00 +4.6999999443283098e+00 -2.9560425523752220e-02 -5.6482971684643257e-01 +5.6240812983782062e-03
4.7999999999999998e+00 +8.1523465708305594e+00 +0.0000000000000000e+00 +4.7999999406986600e+00 -2.9560727665130713e-02 -5.6482975285725212e-01 +5.6241365801283950e-03
4.9000000000000004e+00 +8.1523190610096208e+00 +0.0000000000000000e+00 +4.8999999369145701e+00 -2.9561024546443701e-02 -5.6482979741239125e-01 +5.6241945586845603e-03
5.0000000000000000e+00 +8.1522909839768491e+00 +0.0000000000000000e+00 +4.9999999329728402e+00 -2.9561314899315870e-02 -5.6482985075739400e-01 +5.6242551276640745e-03
5.0999999999999996e+00 +8.1522623397286207e+00 +0.0000000000000000e+00 +5.0999999288702398e+00 -2.9561597455332333e-02 -5.6482991313785125e-01 +5.6243181806876902e-03
5.2000000000000002e+00 +8.1522331282685592e+00 +0.0000000000000000e+00 +5.1999999246035600e+00 -2.9561870946031913e-02 -5.6482998479931856e-01 +5.6243836113789268e-03
5.2999999999999998e+00 +8.1522033495966806e+00 +0.0000000000000000e+00 +5.2999999201695802e+00 -2.9562134102909511e-02 -5.6483006598739993e-01 +5.6244513133651142e-03
5.4000000000000004e+00 +8.1521730037093203e+00 +0.0000000000000000e+00 +5.3999999155650800e+00 -2.9562385657413988e-02 -5.6483015694775096e-01 +5.6245211802776309e-03
5.5000000000000000e+00 +8.1521420906137791e+00 +0.0000000000000000e+00 +5.4999999107868396e+00 -2.9562624340939783e-02 -5.6483025792596575e-01 +5.6245931057509755e-03
5.5999999999999996e+00 +8.1521106102991308e+00 +0.0000000000000000e+00 +5.5999999058316599e+00 -2.9562848884837109e-02 -5.6483036916780371e-01 +5.6246669834252583e-03
5.7000000000000002e+00 +8.1520785627762997e+00 +0.0000000000000000e+00 +5.6999999006963096e+00 -2.9563058020392760e-02 -5.6483049091888193e-01 +5.6247427069432811e-03
5.7999999999999998e+00 +8.1520459480379905e+00 +0.0000000000000000e+00 +5.7999998953775700e+00 -2.9563250478844949e-02 -5.6483062342498436e-01 +5.6248201699538973e-03
5.9000000000000004e+00 +8.1520127660915005e+00 +0.0000000000000000e+00 +5.8999998898722197e+00 -2.9563424991367208e-02 -5.6483076693181089e-01 +5.6248992661096569e-03
5.9999999999999902e+00 +8.1519790169259103e+00 +0.0000000000000000e+00 +5.9999998841770603e+00 -2.9563580289080193e-02 -5.6483092168523164e-01 +5.6249798890695953e-03
6.0999999999999899e+00 +8.1519447005521197e+00 +0.0000000000000000e+00 +6.0999998782888598e+00 -2.9563715574135150e-02 -5.6483108793483416e-01 +5.6250619502960664e-03
6.1999999999999904e+00 +8.1519098169665103e+00 +0.0000000000000000e+00 +6.1999998722044003e+00 -2.9563831933074516e-02 -5.6483126594576749e-01 +5.6251454324558886e-03
6.2999999999999901e+00 +8.1518743661654298e+00 +0.0000000000000000e+00 +6.2999998659204701e+00 -2.9563930923570306e-02 -5.6483145598703743e-01 +5.6252303360173625e-03
6.3999999999999897e+00 +8.1518383481488907e+00 +0.0000000000000000e+00 +6.3999998594338496e+00 -2.9564014103326132e-02 -5.6483165832761806e-01 +5.6253166614497743e-03
6.4999999999999902e+00 +8.1518017629241495e+00 +0.0000000000000000e+00 +6.4999998527413201e+00 -2.9564083030077484e-02 -5.6483187323642514e-01 +5.6254044092231593e-03
6.5999999999999899e+00 +8.1517646104839496e+00 +0.0000000000000000e+00 +6.5999998458396698e+00 -2.9564139261602698e-02 -5.6483210098248238e-01 +5.6254935798100399e-03
6.6999999999999904e+00 +8.1517268908319203e+00 +0.0000000000000000e+00 +6.6999998387256703e+00 -2.9564184355713879e-02 -5.6483234183472597e-01 +5.6255841736834724e-03
6.7999999999999901e+00 +8.1516886039680703e+00 +0.0000000000000000e+00 +6.7999998313961196e+00 -2.9564219870264898e-02 -5.6483259606211578e-01 +5.6256761913182213e-03
6.8999999999999897e+00 +8.1516497498923908e+00 +0.0000000000000000e+00 +6.8999998238477902e+00 -2.9564247363151552e-02 -5.6483286393360777e-01 +5.6257696331905175e-03
6.9999999999999902e+00 +8.1516103286012402e+00 +0.0000000000000000e+00 +6.9999998160774597e+00 -2.9564268392314880e-02 -5.6483314571818111e-01 +5.6258644997783745e-03
7.0999999999999899e+00 +8.1515703400982602e+00 +0.0000000000000000e+00 +7.0999998080819298e+00 -2.9564284515738216e-02 -5.6483344168475336e-01 +5.6259607915607615e-03
7.1999999999999904e+00 +8.1515297843834595e+00 +0.0000000000000000e+00 +7.1999997998579603e+00 -2.9564297291453642e-02 -5.6483375210226539e-01 +5.6260585090185224e-03
7.2999999999999901e+00 +8.1514886614531896e+00 +0.0000000000000000e+00 +7.2999997914023496e+00 -2.9564308277543732e-02 -5.6483407723968115e-01 +5.6261576526343872e-03
7.3999999999999897e+00 +8.1514469713147300e+00 +0.0000000000000000e+00 +7.3999997827118804e+00 -2.9564319032137045e-02 -5.6483441736587381e-01 +5.6262582228918745e-03
7.4999999999999902e+00 +8.1514047139571595e+00 +0.0000000000000000e+00 +7.4999997737833199e+00 -2.9564331113422309e-02 -5.6483477274985117e-01 +5.6263602202776195e-03
7.5999999999999899e+00 +8.1513618893914099e+00 +0.0000000000000000e+00 +7.5999997646134698e+00 -2.9564346079633097e-02 -5.6483514366044607e-01 +5.6264636452782596e-03
7.6999999999999904e+00 +8.1513184976138309e+00 +0.0000000000000000e+00 +7.6999997551991104e+00 -2.9564365489065100e-02 -5.6483553036659684e-01 +5.6265684983833357e-03
7.7999999999999901e+00 +8.1512745386207808e+00 +0.0000000000000000e+00 +7.7999997455370096e+00 -2.9564390900071614e-02 -5.6483593313723601e-01 +5.6266747800841855e-03
7.8999999999999897e+00 +8.1512300124159101e+00 +0.0000000000000000e+00 +7.8999997356239602e+00 -2.9564423871062180e-02 -5.6483635224123097e-01 +5.6267824908733952e-03
7.9999999999999902e+00 +8.1511849189955701e+00 +0.0000000000000000e+00 +7.9999997254567399e+00 -2.9564465960510600e-02 -5.6483678794749925e-01 +5.6268916312459984e-03
8.0999999999999908e+00 +8.1511392583670403e+00 +0.0000000000000000e+00 +8.0999997150321406e+00 -2.9564518337621502e-02 -5.6483724026470306e-01 +5.6270021818023118e-03
8.1999999999999904e+00 +8.1510930305230396e+00 +0.0000000000000000e+00 +8.1999997043469399e+00 -2.9564580614317784e-02 -5.6483770816095324e-01 +5.6271140435604425e-03
8.2999999999999901e+00 +8.1510462354672200e+00 +0.0000000000000000e+00 +8.2999996933979094e+00 -2.9564652013165105e-02 -5.6483819034410421e-01 +5.6272270976390794e-03
8.3999999999999897e+00 +8.1509988731995708e+00 +0.0000000000000000e+00 +8.3999996821818605e+00 -2.9564731756703318e-02 -5.6483868552203542e-01 +5.6273412251542435e-03
8.4999999999999893e+00 +8.1509509437164507e+00 +0.0000000000000000e+00 +8.4999996706955496e+00 -2.9564819067445430e-02 -5.6483919240265057e-01 +5.6274563072191541e-03
8.5999999999999908e+00 +8.1509024470215099e+00 +0.0000000000000000e+00 +8.5999996589357703e+00 -2.9564913167871871e-02 -5.6483970969379282e-01 +5.6275722249432896e-03
8.6999999999999904e+00 +8.1508533831147396e+00 +0.0000000000000000e+00 +8.6999996468993004e+00 -2.9565013280434153e-02 -5.6484023610332923e-01 +5.6276888594331059e-03
8.7999999999999794e+00 +8.1508037519961398e+00 +0.0000000000000000e+00 +8.7999996345829192e+00 -2.9565118627552178e-02 -5.6484077033912217e-01 +5.6278060917916723e-03
8.8999999999999808e+00 +8.1507535536620708e+00 +0.0000000000000000e+00 +8.8999996219834205e+00 -2.9565228431614861e-02 -5.6484131110905844e-01 +5.6279238031188292e-03
8.9999999999999805e+00 +8.1507027881161793e+00 +0.0000000000000000e+00 +8.9999996090975891e+00 -2.9565341914974324e-02 -5.6484185712096269e-01 +5.6280418745102197e-03
9.0999999999999801e+00 +8.1506514553584601e+00 +0.0000000000000000e+00 +9.0999995959221902e+00 -2.9565458299949554e-02 -5.6484240708268441e-01 +5.6281601870580471e-03
9.1999999999999797e+00 +8.1505995553889097e+00 +0.0000000000000000e+00 +9.1999995824540193e+00 -2.9565576808823830e-02 -5.6484295970206688e-01 +5.6282786218506834e-03
9.2999999999999794e+00 +8.1505470882038900e+00 +0.0000000000000000e+00 +9.2999995686898593e+00 -2.9565696663845193e-02 -5.6484351368697761e-01 +5.6283970599728308e-03
9.3999999999999808e+00 +8.1504940538070496e+00 +0.0000000000000000e+00 +9.3999995546264898e+00 -2.9565817087220749e-02 -5.6484406774522167e-01 +5.6285153825045712e-03
9.4999999999999805e+00 +8.1504404521983798e+00 +0.0000000000000000e+00 +9.4999995402606903e+00 -2.9565937301120272e-02 -5.6484462058462792e-01 +5.6286334705220971e-03
9.5999999999999801e+00 +8.1503862833778804e+00 +0.0000000000000000e+00 +9.5999995255892507e+00 -2.9566056527673676e-02 -5.6484517091301945e-01 +5.6287512050973432e-03
9.6999999999999797e+00 +8.1503315473419207e+00 +0.0000000000000000e+00 +9.6999995106089507e+00 -2.9566173988971406e-02 -5.6484571743824141e-01 +5.6288684672981338e-03
9.7999999999999794e+00 +8.1502762440941297e+00 +0.0000000000000000e+00 +9.7999994953165697e+00 -2.9566288907058889e-02 -5.6484625886807849e-01 +5.6289851381872364e-03
9.8999999999999808e+00 +8.1502203736345091e+00 +0.0000000000000000e+00 +9.8999994797088906e+00 -2.9566400503940021e-02 -5.6484679391033676e-01 +5.6291010988231008e-03
9.9999999999999805e+00 +8.1501639359594300e+00 +0.0000000000000000e+00 +9.9999994637827001e+00 -2.9566508001576175e-02 -5.6484732127284398e-01 +5.6292162302597542e-03
1.0100000000000000e+01 +8.1501069310761505e+00 +0.0000000000000000e+00 +1.0099999447534801e+01 -2.9566610947031249e-02 -5.6484783995897658e-01 +5.6293304575061225e-03
1.0199999999999999e+01 +8.1500493589774106e+00 +0.0000000000000000e+00 +1.0199999430961901e+01 -2.9566710187979961e-02 -5.6484835015477508e-01 +5.6294438814137281e-03
1.0300000000000001e+01 +8.1499912196668394e+00 +0.0000000000000000e+00 +1.0299999414060901e+01 -2.9566806897266023e-02 -5.6484885234181081e-01 +5.6295566467936906e-03
1.0400000000000000e+01 +8.1499325131444493e+00 +0.0000000000000000e+00 +1.0399999396828500e+01 -2.9566902247751266e-02 -5.6484934700164657e-01 +5.6296688984561801e-03
1.0500000000000000e+01 +8.1498732394065900e+00 +0.0000000000000000e+00 +1.0499999379261400e+01 -2.9566997412316071e-02 -5.6484983461583649e-01 +5.6297807812103976e-03
1.0600000000000000e+01 +8.1498133984568994e+00 +0.0000000000000000e+00 +1.0599999361356600e+01 -2.9567093563855257e-02 -5.6485031566584076e-01 +5.6298924398636967e-03
1.0699999999999999e+01 +8.1497529902953794e+00 +0.0000000000000000e+00 +1.0699999343110701e+01 -2.9567191875283196e-02 -5.6485079063310928e-01 +5.6300040192224388e-03
1.0800000000000001e+01 +8.1496920149220404e+00 +0.0000000000000000e+00 +1.0799999324520600e+01 -2.9567293519532762e-02 -5.6485125999905261e-01 +5.6301156640916825e-03
1.0900000000000000e+01 +8.1496304723332305e+00 +0.0000000000000000e+00 +1.0899999305583000e+01 -2.9567399669557383e-02 -5.6485172424506858e-01 +5.6302275192754618e-03
1.1000000000000000e+01 +8.1495683625325892e+00 +0.0000000000000000e+00 +1.0999999286294800e+01 -2.9567511498326812e-02 -5.6485218385245795e-01 +5.6303397295758995e-03
1.1100000000000000e+01 +8.1495056855201309e+00 +0.0000000000000000e+00 +1.1099999266652601e+01 -2.9567630178832387e-02 -5.6485263930250795e-01 +5.6304524397940720e-03
1.1199999999999999e+01 +8.1494424412958306e+00 +0.0000000000000000e+00 +1.1199999246653300e+01 -2.9567756884085826e-02 -5.6485309107646298e-01 +5.6305657947296906e-03
1.1300000000000001e+01 +8.1493786298560700e+00 +0.0000000000000000e+00 +1.1299999226293700e+01 -2.9567892787121377e-02 -5.6485353965555152e-01 +5.6306799391813780e-03
1.1400000000000000e+01 +8.1493142512044905e+00 +0.0000000000000000e+00 +1.1399999205570500e+01 -2.9568039060991567e-02 -5.6485398552090105e-01 +5.6307950179457899e-03
1.1500000000000000e+01 +8.1492493053447106e+00 +0.0000000000000000e+00 +1.1499999184480499e+01 -2.9568196878770891e-02 -5.6485442915359485e-01 +5.6309111758181853e-03
1.1600000000000000e+01 +8.1491837922658306e+00 +0.0000000000000000e+00 +1.1599999163020600e+01 -2.9568367413562384e-02 -5.6485487103478182e-01 +5.6310285575935518e-03
1.1699999999999999e+01 +8.1491177119787608e+00 +0.0000000000000000e+00 +1.1699999141187400e+01 -2.9568551838482688e-02 -5.6485531164539471e-01 +5.6311473080637182e-03
1.1800000000000001e+01 +8.1490510644762306e+00 +0.0000000000000000e+00 +1.1799999118977800e+01 -2.9568751326679538e-02 -5.6485575146645939e-01 +5.6312675720204992e-03
