# field on trajectory
# s[mm] rx[mm] ry[mm] rz[mm] bx[T] by[T] bz[T]
-0.0000000000000000e+00 +8.1530000000000094e+00 +0.0000000000000000e+00 -0.0000000000000000e+00 -2.7919204933870130e-02 -5.3667263134528342e-01 +5.3511674184626443e-03
-1.0000000000000001e-01 +8.1529997159377707e+00 +0.0000000000000000e+00 -1.0008006405070299e-01 -2.7919124906180180e-02 -5.3667276807989550e-01 +5.3511336370485130e-03
-2.0000000000000001e-01 +8.1529988637557800e+00 +0.0000000000000000e+00 -2.0016012809818201e-01 -2.7919056644528987e-02 -5.3667291036745635e-01 +5.3511017876822784e-03
-2.9999999999999999e-01 +8.1529974434524792e+00 +0.0000000000000000e+00 -3.0024019213920999e-01 -2.7918999352113737e-02 -5.3667305807212040e-01 +5.3510717381610980e-03
-4.0000000000000002e-01 +8.1529954550242092e+00 +0.0000000000000000e+00 -4.0032025617056399e-01 -2.7918952232140148e-02 -5.3667321105805532e-01 +5.3510433562819074e-03
-5.0000000000000000e-01 +8.1529928984782600e+00 +0.0000000000000000e+00 -5.0040032018901703e-01 -2.7918914487816502e-02 -5.3667336918934461e-01 +5.3510165098405778e-03
-5.9999999999999998e-01 +8.1529897738146193e+00 +0.0000000000000000e+00 -6.0048038419134497e-01 -2.7918885322359893e-02 -5.3667353233012260e-01 +5.3509910666334438e-03
-6.9999999999999996e-01 +8.1529860810223909e+00 +0.0000000000000000e+00 -7.0056044817432195e-01 -2.7918863938996796e-02 -5.3667370034460060e-01 +5.3509668944577374e-03
-8.0000000000000004e-01 +8.1529818201124709e+00 +0.0000000000000000e+00 -8.0064051213472498e-01 -2.7918849540949277e-02 -5.3667387309682557e-01 +5.3509438611092780e-03
-9.0000000000000002e-01 +8.1529769910812302e+00 +0.0000000000000000e+00 -9.0072057606932698e-01 -2.7918841331448375e-02 -5.3667405045094674e-01 +5.3509218343853462e-03
-1.0000000000000000e+00 +8.1529715939250291e+00 +0.0000000000000000e+00 -1.0008006399749001e+00 -2.7918838513727558e-02 -5.3667423227110933e-01 +5.3509006820837545e-03
-1.1000000000000001e+00 +8.1529656286511507e+00 +0.0000000000000000e+00 -1.1008807038482300e+00 -2.7918840291017471e-02 -5.3667441842137298e-01 +5.3508802720021818e-03
-1.2000000000000000e+00 +8.1529590952522994e+00 +0.0000000000000000e+00 -1.2009607676860801e+00 -2.7918845866555110e-02 -5.3667460876590001e-01 +5.3508604719402298e-03
-1.3000000000000000e+00 +8.1529519937357708e+00 +0.0000000000000000e+00 -1.3010408314852300e+00 -2.7918854443571440e-02 -5.3667480316873883e-01 +5.3508411496974006e-03
-1.3999999999999999e+00 +8.1529443240979198e+00 +0.0000000000000000e+00 -1.4011208952424601e+00 -2.7918865225300540e-02 -5.3667500149401282e-01 +5.3508221730751435e-03
-1.5000000000000000e+00 +8.1529360863350995e+00 +0.0000000000000000e+00 -1.5012009589545301e+00 -2.7918877414974425e-02 -5.3667520360583887e-01 +5.3508034098762132e-03
-1.6000000000000001e+00 +8.1529272804509691e+00 +0.0000000000000000e+00 -1.6012810226182299e+00 -2.7918890215819274e-02 -5.3667540936827385e-01 +5.3507847279042585e-03
-1.7000000000000000e+00 +8.1529179064491508e+00 +0.0000000000000000e+00 -1.7013610862303301e+00 -2.7918902831057409e-02 -5.3667561864536750e-01 +5.3507659949645226e-03
-1.8000000000000000e+00 +8.1529079643223703e+00 +0.0000000000000000e+00 -1.8014411497875999e+00 -2.7918914463910694e-02 -5.3667583130124186e-01 +5.3507470788648178e-03
-1.8999999999999999e+00 +8.1528974540779000e+00 +0.0000000000000000e+00 -1.9015212132868200e+00 -2.7918924317589626e-02 -5.3667604719990525e-01 +5.3507278474137759e-03
-2.0000000000000000e+00 +8.1528863757084800e+00 +0.0000000000000000e+00 -2.0016012767247702e+00 -2.7918931595304397e-02 -5.3667626620546449e-01 +5.3507081684233716e-03
-2.1000000000000001e+00 +8.1528747292177304e+00 +0.0000000000000000e+00 -2.1016813400982199e+00 -2.7918935632034264e-02 -5.3667648826163095e-01 +5.3506879625736629e-03
-2.2000000000000002e+00 +8.1528625146056601e+00 +0.0000000000000000e+00 -2.2017614034039301e+00 -2.7918936265176591e-02 -5.3667671361597358e-01 +5.3506673521059233e-03
-2.2999999999999998e+00 +8.1528497318759001e+00 +0.0000000000000000e+00 -2.3018414666387002e+00 -2.7918933451833137e-02 -5.3667694258843424e-01 +5.3506465072901740e-03
-2.3999999999999999e+00 +8.1528363810211903e+00 +0.0000000000000000e+00 -2.4019215297993002e+00 -2.7918927149095132e-02 -5.3667717549903715e-01 +5.3506255983983043e-03
-2.5000000000000000e+00 +8.1528224620451493e+00 +0.0000000000000000e+00 -2.5020015928824901e+00 -2.7918917314033388e-02 -5.3667741266772884e-01 +5.3506047957024294e-03
-2.6000000000000001e+00 +8.1528079749477893e+00 +0.0000000000000000e+00 -2.6020816558850601e+00 -2.7918903903702566e-02 -5.3667765441448678e-01 +5.3505842694759800e-03
-2.7000000000000002e+00 +8.1527929197291105e+00 +0.0000000000000000e+00 -2.7021617188037701e+00 -2.7918886875138434e-02 -5.3667790105929269e-01 +5.3505641899934085e-03
-2.7999999999999998e+00 +8.1527772963891003e+00 +0.0000000000000000e+00 -2.8022417816354102e+00 -2.7918866185356495e-02 -5.3667815292213350e-01 +5.3505447275301885e-03
-2.8999999999999999e+00 +8.1527611049277802e+00 +0.0000000000000000e+00 -2.9023218443767500e+00 -2.7918841791350599e-02 -5.3667841032300223e-01 +5.3505260523628046e-03
-3.0000000000000000e+00 +8.1527443453451305e+00 +0.0000000000000000e+00 -3.0024019070245598e+00 -2.7918813650091637e-02 -5.3667867358189947e-01 +5.3505083347687435e-03
-3.1000000000000001e+00 +8.1527270176411495e+00 +0.0000000000000000e+00 -3.1024819695756198e+00 -2.7918781718526107e-02 -5.3667894301883268e-01 +5.3504917450264864e-03
-3.2000000000000002e+00 +8.1527091218158603e+00 +0.0000000000000000e+00 -3.2025620320267101e+00 -2.7918745953574808e-02 -5.3667921895381832e-01 +5.3504764534155020e-03
-3.2999999999999998e+00 +8.1526906578692397e+00 +0.0000000000000000e+00 -3.3026420943745900e+00 -2.7918706312131426e-02 -5.3667950170688195e-01 +5.3504626302162319e-03
-3.3999999999999999e+00 +8.1526716258013003e+00 +0.0000000000000000e+00 -3.4027221566160502e+00 -2.7918662751061231e-02 -5.3667979159805979e-01 +5.3504504457100865e-03
-3.5000000000000000e+00 +8.1526520256120403e+00 +0.0000000000000000e+00 -3.5028022187478500e+00 -2.7918615227199652e-02 -5.3668008894739827e-01 +5.3504400701794444e-03
-3.6000000000000001e+00 +8.1526318572978198e+00 +0.0000000000000000e+00 -3.6028822807667802e+00 -2.7918563697352378e-02 -5.3668039407498314e-01 +5.3504316739078966e-03
-3.7000000000000002e+00 +8.1526111208659096e+00 +0.0000000000000000e+00 -3.7029623426696099e+00 -2.7918508118288284e-02 -5.3668070730083217e-01 +5.3504254271791712e-03
-3.7999999999999998e+00 +8.1525898163126804e+00 +0.0000000000000000e+00 -3.8030424044531101e+00 -2.7918448446746569e-02 -5.3668102894505643e-01 +5.3504215002787387e-03
-3.8999999999999999e+00 +8.1525679436344909e+00 +0.0000000000000000e+00 -3.9031224661140600e+00 -2.7918384639431224e-02 -5.3668135932778105e-01 +5.3504200634930024e-03
-4.0000000000000000e+00 +8.1525455028386205e+00 +0.0000000000000000e+00 -4.0032025276492398e+00 -2.7918316653007428e-02 -5.3668169876906580e-01 +5.3504212871071863e-03
-4.0999999999999996e+00 +8.1525224939177896e+00 +0.0000000000000000e+00 -4.1032825890554099e+00 -2.7918244516219107e-02 -5.3668204754745963e-01 +5.3504252986319402e-03
-4.2000000000000002e+00 +8.1524989168792708e+00 +0.0000000000000000e+00 -4.2033626503293604e+00 -2.7918168519859572e-02 -5.3668240579011772e-01 +5.3504320701152968e-03
-4.2999999999999998e+00 +8.1524747717157897e+00 +0.0000000000000000e+00 -4.3034427114678504e+00 -2.7918089014269950e-02 -5.3668277358995442e-01 +5.3504415382984232e-03
-4.4000000000000004e+00 +8.1524500584346207e+00 +0.0000000000000000e+00 -4.4035227724676700e+00 -2.7918006349818617e-02 -5.3668315103979314e-01 +5.3504536399187992e-03
-4.5000000000000000e+00 +8.1524247770285001e+00 +0.0000000000000000e+00 -4.5036028333255800e+00 -2.7917920876915355e-02 -5.3668353823257875e-01 +5.3504683117121740e-03
-4.5999999999999996e+00 +8.1523989275046898e+00 +0.0000000000000000e+00 -4.6036828940383696e+00 -2.7917832946002797e-02 -5.3668393526116664e-01 +5.3504854904101945e-03
-4.7000000000000002e+00 +8.1523725098559208e+00 +0.0000000000000000e+00 -4.7037629546028104e+00 -2.7917742907570590e-02 -5.3668434221853523e-01 +5.3505051127423703e-03
-4.7999999999999998e+00 +8.1523455240894709e+00 +0.0000000000000000e+00 -4.8038430150156701e+00 -2.7917651112146787e-02 -5.3668475919757364e-01 +5.3505271154337068e-03
-4.9000000000000004e+00 +8.1523179701980606e+00 +0.0000000000000000e+00 -4.9039230752737302e+00 -2.7917557910312127e-02 -5.3668518629129669e-01 +5.3505514352066774e-03
-5.0000000000000000e+00 +8.1522898481889605e+00 +0.0000000000000000e+00 -5.0040031353737602e+00 -2.7917463652691290e-02 -5.3668562359262995e-01 +5.3505780087788318e-03
-5.0999999999999996e+00 +8.1522611580549000e+00 +0.0000000000000000e+00 -5.1040831953125396e+00 -2.7917368689967272e-02 -5.3668607119462619e-01 +5.3506067728647877e-03
-5.2000000000000002e+00 +8.1522318997995207e+00 +0.0000000000000000e+00 -5.2041632550868497e+00 -2.7917273372874057e-02 -5.3668652919027771e-01 +5.3506376641741082e-03
-5.2999999999999998e+00 +8.1522020734228100e+00 +0.0000000000000000e+00 -5.3042433146934496e+00 -2.7917178052205220e-02 -5.3668699767262418e-01 +5.3506706194122013e-03
-5.4000000000000004e+00 +8.1521716789247893e+00 +0.0000000000000000e+00 -5.4043233741291203e+00 -2.7917083078815238e-02 -5.3668747673472650e-01 +5.3507055752798271e-03
-5.5000000000000000e+00 +8.1521407163090807e+00 +0.0000000000000000e+00 -5.5044034333906504e+00 -2.7916988803620899e-02 -5.3668796646964101e-01 +5.3507424684726412e-03
-5.5999999999999996e+00 +8.1521091855684098e+00 +0.0000000000000000e+00 -5.6044834924747899e+00 -2.7916895577609818e-02 -5.3668846697052641e-01 +5.3507812356820769e-03
-5.7000000000000002e+00 +8.1520770867064094e+00 +0.0000000000000000e+00 -5.7045635513783299e+00 -2.7916803751834637e-02 -5.3668897833048457e-01 +5.3508218135934907e-03
-5.7999999999999998e+00 +8.1520444197231008e+00 +0.0000000000000000e+00 -5.8046436100980499e+00 -2.7916713677421542e-02 -5.3668950064266752e-01 +5.3508641388870792e-03
-5.9000000000000004e+00 +8.1520111846184609e+00 +0.0000000000000000e+00 -5.9047236686307096e+00 -2.7916625705571681e-02 -5.3669003400025217e-01 +5.3509081482373795e-03
-5.9999999999999902e+00 +8.1519773813925003e+00 +0.0000000000000000e+00 -6.0048037269731003e+00 -2.7916540187553910e-02 -5.3669057849641677e-01 +5.3509537783098457e-03
-6.0999999999999899e+00 +8.1519430100452208e+00 +0.0000000000000000e+00 -6.1048837851219799e+00 -2.7916457370235945e-02 -5.3669113398380630e-01 +5.3510009320913345e-03
-6.1999999999999904e+00 +8.1519080705766100e+00 +0.0000000000000000e+00 -6.2049638430741396e+00 -2.7916377138520704e-02 -5.3669169948157136e-01 +5.3510493958965006e-03
-6.2999999999999901e+00 +8.1518725629866804e+00 +0.0000000000000000e+00 -6.3050439008263499e+00 -2.7916299298938466e-02 -5.3669227382841600e-01 +5.3510989307891561e-03
-6.3999999999999897e+00 +8.1518364872754301e+00 +0.0000000000000000e+00 -6.4051239583753699e+00 -2.7916223657986575e-02 -5.3669285586298165e-01 +5.3511492978334700e-03
-6.4999999999999902e+00 +8.1517998434428591e+00 +0.0000000000000000e+00 -6.5052040157180002e+00 -2.7916150022127589e-02 -5.3669344442384392e-01 +5.3512002580940327e-03
-6.5999999999999899e+00 +8.1517626314889604e+00 +0.0000000000000000e+00 -6.6052840728510001e+00 -2.7916078197787277e-02 -5.3669403834951102e-01 +5.3512515726359192e-03
-6.6999999999999904e+00 +8.1517248514137499e+00 +0.0000000000000000e+00 -6.7053641297711399e+00 -2.7916007991352906e-02 -5.3669463647841897e-01 +5.3513030025247703e-03
-6.7999999999999901e+00 +8.1516865032135701e+00 +0.0000000000000000e+00 -6.8054441864752100e+00 -2.7915939209172687e-02 -5.3669523764895777e-01 +5.3513543088271193e-03
-6.8999999999999897e+00 +8.1516475868957095e+00 +0.0000000000000000e+00 -6.9055242429599701e+00 -2.7915871657548143e-02 -5.3669584069935927e-01 +5.3514052526093753e-03
-6.9999999999999902e+00 +8.1516081024565192e+00 +0.0000000000000000e+00 -7.0056042992222096e+00 -2.7915805142740953e-02 -5.3669644446785669e-01 +5.3514555949395323e-03
-7.0999999999999899e+00 +8.1515680498960101e+00 +0.0000000000000000e+00 -7.1056843552586999e+00 -2.7915739470965217e-02 -5.3669704779257366e-01 +5.3515050968861375e-03
-7.1999999999999904e+00 +8.1515274292141804e+00 +0.0000000000000000e+00 -7.2057644110662000e+00 -2.7915674448387093e-02 -5.3669764951154919e-01 +5.3515535195186384e-03
-7.2999999999999901e+00 +8.1514862404073902e+00 +0.0000000000000000e+00 -7.3058444666415099e+00 -2.7915609881124282e-02 -5.3669824846276015e-01 +5.3516006239077265e-03
-7.3999999999999897e+00 +8.1514444834829192e+00 +0.0000000000000000e+00 -7.4059245219813796e+00 -2.7915545575238516e-02 -5.3669884348401276e-01 +5.3516461711243073e-03
-7.4999999999999902e+00 +8.1514021584334806e+00 +0.0000000000000000e+00 -7.5060045770826100e+00 -2.7915481336743628e-02 -5.3669943341312609e-01 +5.3516899222414887e-03
-7.5999999999999899e+00 +8.1513592652663593e+00 +0.0000000000000000e+00 -7.6060846319419504e+00 -2.7915416971592236e-02 -5.3670001708771664e-01 +5.3517316383324565e-03
-7.6999999999999904e+00 +8.1513158039779192e+00 +0.0000000000000000e+00 -7.7061646865561997e+00 -2.7915352285683922e-02 -5.3670059334538023e-01 +5.3517710804724550e-03
-7.7999999999999901e+00 +8.1512717745681602e+00 +0.0000000000000000e+00 -7.8062447409221098e+00 -2.7915287084857628e-02 -5.3670116102358534e-01 +5.3518080097377831e-03
-7.8999999999999897e+00 +8.1512271770334301e+00 +0.0000000000000000e+00 -7.9063247950364799e+00 -2.7915221174892577e-02 -5.3670171895972074e-01 +5.3518421872063796e-03
-7.9999999999999902e+00 +8.1511820113773901e+00 +0.0000000000000000e+00 -8.0064048488960609e+00 -2.7915154361520419e-02 -5.3670226599108128e-01 +5.3518733739824215e-03
-8.0999999999999908e+00 +8.1511362776036496e+00 +0.0000000000000000e+00 -8.1064849024976393e+00 -2.7915086533974297e-02 -5.3670280126016101e-01 +5.3519014474637128e-03
-8.1999999999999904e+00 +8.1510899757086008e+00 +0.0000000000000000e+00 -8.2065649558379903e+00 -2.7915017857547967e-02 -5.3670332491816963e-01 +5.3519266692680255e-03
-8.2999999999999901e+00 +8.1510431056885899e+00 +0.0000000000000000e+00 -8.3066450089139003e+00 -2.7914948554484099e-02 -5.3670383732439186e-01 +5.3519493802560358e-03
-8.3999999999999897e+00 +8.1509956675508892e+00 +0.0000000000000000e+00 -8.4067250617221205e+00 -2.7914878847035918e-02 -5.3670433883809088e-01 +5.3519699212919774e-03
-8.4999999999999893e+00 +8.1509476612882299e+00 +0.0000000000000000e+00 -8.5068051142594392e+00 -2.7914808957477697e-02 -5.3670482981869616e-01 +5.3519886332456914e-03
-8.5999999999999908e+00 +8.1508990869078808e+00 +0.0000000000000000e+00 -8.6068851665226305e+00 -2.7914739108094055e-02 -5.3670531062559290e-01 +5.3520058569905653e-03
-8.6999999999999904e+00 +8.1508499444025801e+00 +0.0000000000000000e+00 -8.7069652185084596e+00 -2.7914669521191940e-02 -5.3670578161833826e-01 +5.3520219334058840e-03
-8.7999999999999794e+00 +8.1508002337759500e+00 +0.0000000000000000e+00 -8.8070452702137203e+00 -2.7914600419091246e-02 -5.3670624315647575e-01 +5.3520372033750473e-03
-8.8999999999999808e+00 +8.1507499550316407e+00 +0.0000000000000000e+00 -8.9071253216351796e+00 -2.7914532024129763e-02 -5.3670669559961892e-01 +5.3520520077865357e-03
-8.9999999999999805e+00 +8.1506991081623692e+00 +0.0000000000000000e+00 -9.0072053727696098e+00 -2.7914464558668046e-02 -5.3670713930753344e-01 +5.3520666875348736e-03
-9.0999999999999801e+00 +8.1506476931717806e+00 +0.0000000000000000e+00 -9.1072854236137797e+00 -2.7914398245081466e-02 -5.3670757463997909e-01 +5.3520815835191287e-03
-9.1999999999999797e+00 +8.1505957100635005e+00 +0.0000000000000000e+00 -9.2073654741644795e+00 -2.7914333305765083e-02 -5.3670800195679180e-01 +5.3520970366438729e-03
-9.2999999999999794e+00 +8.1505431588302599e+00 +0.0000000000000000e+00 -9.3074455244184708e+00 -2.7914269963138623e-02 -5.3670842161796728e-01 +5.3521133878201522e-03
-9.3999999999999808e+00 +8.1504900394757005e+00 +0.0000000000000000e+00 -9.4075255743725297e+00 -2.7914208439638412e-02 -5.3670883398350133e-01 +5.3521309779639686e-03
-9.4999999999999805e+00 +8.1504363520034495e+00 +0.0000000000000000e+00 -9.5076056240234408e+00 -2.7914148957722377e-02 -5.3670923941347526e-01 +5.3521501479972680e-03
-9.5999999999999801e+00 +8.1503820964062506e+00 +0.0000000000000000e+00 -9.6076856733679694e+00 -2.7914091739874889e-02 -5.3670963826813445e-01 +5.3521712388488792e-03
-9.6999999999999797e+00 +8.1503272726913600e+00 +0.0000000000000000e+00 -9.7077657224029004e+00 -2.7914037008597386e-02 -5.3671003090770764e-01 +5.3521945914527498e-03
-9.7999999999999794e+00 +8.1502718808515109e+00 +0.0000000000000000e+00 -9.8078457711250007e+00 -2.7913984986420413e-02 -5.3671041769261996e-01 +5.3522205467502731e-03
-9.8999999999999808e+00 +8.1502159208903304e+00 +0.0000000000000000e+00 -9.9079258195310498e+00 -2.7913935895894235e-02 -5.3671079898331009e-01 +5.3522494456885155e-03
-9.9999999999999805e+00 +8.1501593928078400e+00 +0.0000000000000000e+00 -1.0008005867617801e+01 -2.7913889959566882e-02 -5.3671117514044009e-01 +5.3522816291717039e-03
-1.0100000000000000e+01 +8.1501022966040200e+00 +0.0000000000000000e+00 -1.0108085915382100e+01 -2.7913847330523364e-02 -5.3671154677458932e-01 +5.3523173158998094e-03
-1.0199999999999999e+01 +8.1500446322825209e+00 +0.0000000000000000e+00 -1.0208165962820599e+01 -2.7913807942889446e-02 -5.3671191528361351e-01 +5.3523563394595117e-03
-1.0300000000000001e+01 +8.1499863998360507e+00 +0.0000000000000000e+00 -1.0308246009930199e+01 -2.7913771687772385e-02 -5.3671228222015177e-01 +5.3523984577656539e-03
-1.0400000000000000e+01 +8.1499275992682705e+00 +0.0000000000000000e+00 -1.0408326056707599e+01 -2.7913738456276024e-02 -5.3671264913677719e-01 +5.3524434287287367e-03
-1.0500000000000000e+01 +8.1498682305791608e+00 +0.0000000000000000e+00 -1.0508406103149600e+01 -2.7913708139506520e-02 -5.3671301758610690e-01 +5.3524910102558942e-03
-1.0600000000000000e+01 +8.1498082937723701e+00 +0.0000000000000000e+00 -1.0608486149253000e+01 -2.7913680628569464e-02 -5.3671338912074595e-01 +5.3525409602502476e-03
-1.0699999999999999e+01 +8.1497477888406102e+00 +0.0000000000000000e+00 -1.0708566195014500e+01 -2.7913655814575614e-02 -5.3671376529339643e-01 +5.3525930366118872e-03
-1.0800000000000001e+01 +8.1496867157875403e+00 +0.0000000000000000e+00 -1.0808646240430900e+01 -2.7913633588632313e-02 -5.3671414765669656e-01 +5.3526469972361200e-03
-1.0900000000000000e+01 +8.1496250746131391e+00 +0.0000000000000000e+00 -1.0908726285499000e+01 -2.7913613841849240e-02 -5.3671453776332767e-01 +5.3527026000144669e-03
-1.1000000000000000e+01 +8.1495628653174208e+00 +0.0000000000000000e+00 -1.1008806330215601e+01 -2.7913596465336903e-02 -5.3671493716598861e-01 +5.3527596028342698e-03
-1.1100000000000000e+01 +8.1495000879040198e+00 +0.0000000000000000e+00 -1.1108886374577500e+01 -2.7913581350205264e-02 -5.3671534741736793e-01 +5.3528177635783171e-03
-1.1199999999999999e+01 +8.1494367423620098e+00 +0.0000000000000000e+00 -1.1208966418581401e+01 -2.7913568387570895e-02 -5.3671577007027893e-01 +5.3528768401261044e-03
-1.1300000000000001e+01 +8.1493728287059604e+00 +0.0000000000000000e+00 -1.1309046462224000e+01 -2.7913557468541194e-02 -5.3671620667736497e-01 +5.3529365903507162e-03
-1.1400000000000000e+01 +8.1493083469249505e+00 +0.0000000000000000e+00 -1.1409126505502300e+01 -2.7913548484234472e-02 -5.3671665879147434e-01 +5.3529967721225504e-03
-1.1500000000000000e+01 +8.1492432970226201e+00 +0.0000000000000000e+00 -1.1509206548412800e+01 -2.7913541325764159e-02 -5.3671712796536641e-01 +5.3530571433062059e-03
-1.1600000000000000e+01 +8.1491776789989707e+00 +0.0000000000000000e+00 -1.1609286590952600e+01 -2.7913535884245982e-02 -5.3671761575184562e-01 +5.3531174617617323e-03
-1.1699999999999999e+01 +8.1491114928576298e+00 +0.0000000000000000e+00 -1.1709366633118099e+01 -2.7913532050795123e-02 -5.3671812370370819e-01 +5.3531774853439965e-03
