# multipoles
# s[mm] polynom_b[n=0][T/m^n] polynom_b[n=1][T/m^n] polynom_b[n=2][T/m^n] polynom_b[n=3][T/m^n] polynom_b[n=4][T/m^n] polynom_b[n=5][T/m^n] polynom_b[n=6][T/m^n] 
-0.0000000000000000e+00 -5.3714423102512177e-01 +7.3614903151649553e+00 -6.4014372765673255e-01 -1.8416901301062545e+01 +3.0199774113730396e+03 -6.4211135733942581e+04 -1.3825101680569904e+07 
-1.0000000000000001e-01 -5.3714393905555613e-01 +7.3614802781881608e+00 -6.2785144687882410e-01 -1.8778593470755933e+01 +2.8563142265810702e+03 -6.1795066547366143e+04 -1.3266303290275745e+07 
-2.0000000000000001e-01 -5.3714364670673065e-01 +7.3614713992452048e+00 -6.1525651355266464e-01 -1.9173327517875975e+01 +2.6916989556358303e+03 -5.9251311168782253e+04 -1.2717761598108595e+07 
-2.9999999999999999e-01 -5.3714335307033090e-01 +7.3614634761252216e+00 -6.0244116940419978e-01 -1.9593878668724653e+01 +2.5268880109893025e+03 -5.6618430112453811e+04 -1.2180670198183926e+07 
-4.0000000000000002e-01 -5.3714305723808486e-01 +7.3614563066087984e+00 -5.8948765389067614e-01 -2.0033021919965972e+01 +2.3626377719088591e+03 -5.3934985114219853e+04 -1.1656222551582318e+07 
-5.0000000000000000e-01 -5.3714275830162383e-01 +7.3614496884826250e+00 -5.7647820739043032e-01 -2.0483532450510896e+01 +2.1997046317922759e+03 -5.1239536800643109e+04 -1.1145612178358654e+07 
-5.9999999999999998e-01 -5.3714245535263239e-01 +7.3614434195281300e+00 -5.6349507150646050e-01 -2.0938185295700240e+01 +2.0388450136511019e+03 -4.8570646584895876e+04 -1.0650032751790375e+07 
-6.9999999999999996e-01 -5.3714214748287981e-01 +7.3614372975320777e+00 -5.5062048707328781e-01 -2.1389755636119240e+01 +1.8808153262551484e+03 -4.5966875068018409e+04 -1.0170677875572870e+07 
-8.0000000000000004e-01 -5.3714183378396518e-01 +7.3614311202822345e+00 -5.3793669658514598e-01 -2.1831018674566021e+01 +1.7263720113595241e+03 -4.3466782760729671e+04 -9.7087413094768468e+06 
-9.0000000000000002e-01 -5.3714151334758320e-01 +7.3614246855677425e+00 -5.2552594388471796e-01 -2.2254749646079123e+01 +1.5762715348572140e+03 -4.1108930055408870e+04 -9.2654169187646918e+06 
-1.0000000000000000e+00 -5.3714118526543175e-01 +7.3614177911887468e+00 -5.1347047307997107e-01 -2.2653724065596794e+01 +1.4312703692254775e+03 -3.8931875889317234e+04 -8.8418985976157133e+06 
-1.1000000000000001e+00 -5.3714084862909661e-01 +7.3614102349466242e+00 -5.0185253209355007e-01 -2.3020717476990395e+01 +1.2921250547560348e+03 -3.6974179138527077e+04 -8.4393805418414660e+06 
-1.2000000000000000e+00 -5.3714050253027967e-01 +7.3614018146566558e+00 -4.9075436806958228e-01 -2.3348505777714450e+01 +1.1595921175622229e+03 -3.5274396870016484e+04 -8.0590568753561396e+06 
-1.3000000000000000e+00 -5.3714014606056137e-01 +7.3613923281340110e+00 -4.8025823038826942e-01 -2.3629864827053503e+01 +1.0344281213631084e+03 -3.3871086595890338e+04 -7.7021218754008440e+06 
-1.3999999999999999e+00 -5.3713977831157422e-01 +7.3613815732122445e+00 -4.7044637182279991e-01 -2.3857570971118054e+01 +9.1738968970561700e+02 -3.2802803280397391e+04 -7.3697700833863970e+06 
-1.5000000000000000e+00 -5.3713939837494340e-01 +7.3613693477343434e+00 -4.6140104681534294e-01 -2.4024400773751818e+01 +8.0923347561052822e+02 -3.2108100945571397e+04 -7.0631961622780487e+06 
-1.6000000000000001e+00 -5.3713900534222958e-01 +7.3613554495518496e+00 -4.5320451081314206e-01 -2.4123130990753261e+01 +7.1071614166447898e+02 -3.1825532844636320e+04 -6.7835947829730287e+06 
-1.7000000000000000e+00 -5.3713859830494448e-01 +7.3613396765405152e+00 -4.4593902636103028e-01 -2.4146539014027759e+01 +6.2259448338198149e+02 -3.1993648936906069e+04 -6.5321612297641551e+06 
-1.8000000000000000e+00 -5.3713817635470662e-01 +7.3613218265757991e+00 -4.3968685213765585e-01 -2.4087402156348158e+01 +5.4562521124125146e+02 -3.2651000060823608e+04 -6.3100903384353714e+06 
-1.8999999999999999e+00 -5.3713773858295710e-01 +7.3613016975637455e+00 -4.3453025644943905e-01 -2.3938498536438004e+01 +4.8056521280180601e+02 -3.3836132857756194e+04 -6.1185777544213273e+06 
-2.0000000000000000e+00 -5.3713728408126482e-01 +7.3612790874238199e+00 -4.3055150554302790e-01 -2.3692606574707465e+01 +4.2817133109914607e+02 -3.5587592760451065e+04 -5.9588188840166703e+06 
-2.1000000000000001e+00 -5.3713681250030110e-01 +7.3612538652842465e+00 -4.2780192171105169e-01 -2.3344979265824335e+01 +3.8888293695968747e+02 -3.7930004146145839e+04 -5.8312896018019058e+06 
-2.2000000000000002e+00 -5.3713632562833646e-01 +7.3612261765546787e+00 -4.2621498963171228e-01 -2.2900556718472153e+01 +3.6194558095430131e+02 -4.0833022115261825e+04 -5.7338276992892101e+06 
-2.2999999999999998e+00 -5.3713582576427998e-01 +7.3611962336537315e+00 -4.2569615360401064e-01 -2.2366648957579006e+01 +3.4632449897766384e+02 -4.4252744187720535e+04 -5.6636688577100867e+06 
-2.3999999999999999e+00 -5.3713531520709779e-01 +7.3611642490059888e+00 -4.2615086078304648e-01 -2.1750566185475233e+01 +3.4098497892497710e+02 -4.8145266828995926e+04 -5.6180490009850562e+06 
-2.5000000000000000e+00 -5.3713479625571803e-01 +7.3611304350201872e+00 -4.2748455345797809e-01 -2.1059618178328474e+01 +3.4489221709074070e+02 -5.2466688845794160e+04 -5.5942036212948197e+06 
-2.6000000000000001e+00 -5.3713427120908741e-01 +7.3610950041154037e+00 -4.2960267424002396e-01 -2.0301115019505140e+01 +3.5701141119222513e+02 -5.7173107208435780e+04 -5.5893682093194760e+06 
-2.7000000000000002e+00 -5.3713374236616096e-01 +7.3610581686923293e+00 -4.3241066538064182e-01 -1.9482366308710233e+01 +3.7630775632931807e+02 -6.2220621484750758e+04 -5.6007782605895605e+06 
-2.7999999999999998e+00 -5.3713321202590814e-01 +7.3610201411506413e+00 -4.3581396670907480e-01 -1.8610681637643115e+01 +4.0174639650604939e+02 -6.7565331152378625e+04 -5.6256690186084388e+06 
-2.8999999999999999e+00 -5.3713268248734125e-01 +7.3609811338831248e+00 -4.3971801315737841e-01 -1.7693370454377778e+01 +4.3229238676201260e+02 -7.3163336275681213e+04 -5.6612753227868397e+06 
-3.0000000000000000e+00 -5.3713215604944209e-01 +7.3609413592711643e+00 -4.4402824298178256e-01 -1.6737741914107499e+01 +4.6691084291587083e+02 -7.8970738399424459e+04 -5.7048323043760927e+06 
-3.1000000000000001e+00 -5.3713163501124928e-01 +7.3609010296847801e+00 -4.4865008758949343e-01 -1.5751104905558828e+01 +5.0456675116394240e+02 -8.4943640309012553e+04 -5.7535744868545709e+06 
-3.2000000000000002e+00 -5.3713112167181398e-01 +7.3608603574860600e+00 -4.5348897642516944e-01 -1.4740768139941698e+01 +5.4422506234372770e+02 -9.1038145539890596e+04 -5.8047362441858985e+06 
-3.2999999999999998e+00 -5.3713061833020348e-01 +7.3608195550187441e+00 -4.5845033671434293e-01 -1.3714039876152309e+01 +5.8485068494332188e+02 -9.7210359863667371e+04 -5.8555517599368356e+06 
-3.3999999999999999e+00 -5.3713012728553144e-01 +7.3607788346181815e+00 -4.6343958987561540e-01 -1.2678228189559617e+01 +6.2540841759279215e+02 -1.0341638978126607e+05 -5.9032547084891191e+06 
-3.5000000000000000e+00 -5.3712965083690478e-01 +7.3607384086008789e+00 -4.6836215799512898e-01 -1.1640640699591499e+01 +6.6486307493824313e+02 -1.0961234399193389e+05 -5.9450788648712933e+06 
-3.6000000000000001e+00 -5.3712919128351322e-01 +7.3606984892671719e+00 -4.7312345605368766e-01 -1.0608584627551613e+01 +7.0217933829319736e+02 -1.1575433310378231e+05 -5.9782573896684200e+06 
-3.7000000000000002e+00 -5.3712875092449452e-01 +7.3606592889018660e+00 -4.7762889510636308e-01 -9.5893668521842397e+00 +7.3632181431509241e+02 -1.2179846918902469e+05 -6.0000231042743903e+06 
-3.7999999999999998e+00 -5.3712833205908961e-01 +7.3606210197671258e+00 -4.8178388256121585e-01 -8.5902936771557545e+00 +7.6625504188819002e+02 -1.2770086718935729e+05 -6.0076085319860410e+06 
-3.8999999999999999e+00 -5.3712793698659955e-01 +7.3605838941068393e+00 -4.8549381913877399e-01 -7.6186709896521725e+00 +7.9094343893364646e+02 -1.3341764389354008e+05 -5.9982456534144348e+06 
-4.0000000000000000e+00 -5.3712756800623518e-01 +7.3605481241448194e+00 -4.8866410438217639e-01 -6.6818041920245115e+00 +8.0935139799974684e+02 -1.3890491822777948e+05 -5.9691663354818616e+06 
-4.0999999999999996e+00 -5.3712722672720070e-01 +7.3605138982646929e+00 -4.9123119320705994e-01 -5.7863002260146876e+00 +8.2084509651599842e+02 -1.4412323064704123e+05 -5.9189734368045507e+06 
-4.2000000000000002e+00 -5.3712691224460962e-01 +7.3604813101410391e+00 -4.9324462686535614e-01 -4.9360045101142020e+00 +8.2624986462581683e+02 -1.4905102950983943e+05 -5.8512206413969602e+06 
-4.2999999999999998e+00 -5.3712662308135661e-01 +7.3604504300781803e+00 -4.9477967456358568e-01 -4.1340833576295246e+00 +8.2672199908015295e+02 -1.5367125939842121e+05 -5.7705768595832624e+06 
-4.4000000000000004e+00 -5.3712635776021689e-01 +7.3604213283848887e+00 -4.9591160659594846e-01 -3.3837032261144926e+00 +8.2341781914292096e+02 -1.5796686404816684e+05 -5.6817111252447842e+06 
-4.5000000000000000e+00 -5.3712611480411454e-01 +7.3603940753804107e+00 -4.9671568773515701e-01 -2.6880308758122240e+00 +8.1749354608291287e+02 -1.6192078547813563e+05 -5.5892920377482912e+06 
-4.5999999999999996e+00 -5.3712589273587985e-01 +7.3603687413886165e+00 -4.9726718046355262e-01 -2.0502332203858082e+00 +8.1010536236471978e+02 -1.6551596480273077e+05 -5.4979880393834356e+06 
-4.7000000000000002e+00 -5.3712569007847255e-01 +7.3603453967476504e+00 -4.9764134500535673e-01 -1.4734775885918838e+00 +8.0240941786761493e+02 -1.6873534076590097e+05 -5.4124674566876628e+06 
-4.7999999999999998e+00 -5.3712550535476755e-01 +7.3603241118019023e+00 -4.9791343763777496e-01 -9.6093149516815057e-01 +7.9556179038476603e+02 -1.7156185107182138e+05 -5.3373982979599033e+06 
-4.9000000000000004e+00 -5.3712533708777721e-01 +7.3603049569104133e+00 -4.9815871097014069e-01 -5.1576288671476989e-01 +7.9071849742387133e+02 -1.7397843094661180e+05 -5.2774483231699765e+06 
-5.0000000000000000e+00 -5.3712518380041896e-01 +7.3602880024378727e+00 -4.9845241562870929e-01 -1.4113987942685291e-01 +7.8903552551322673e+02 -1.7596801467659921e+05 -5.2372851789655304e+06 
-5.0999999999999996e+00 -5.3712504401572825e-01 +7.3602733187658878e+00 -4.9886980058439501e-01 +1.5976891553104827e-01 +7.9166883904936037e+02 -1.7751353372730096e+05 -5.2215764473428596e+06 
-5.2000000000000002e+00 -5.3712491625672165e-01 +7.3602609762867388e+00 -4.9948610657378284e-01 +3.8379458108737863e-01 +7.9977425255767275e+02 -1.7859791785751737e+05 -5.2349890318146022e+06 
-5.2999999999999998e+00 -5.3712479904644317e-01 +7.3602510454072227e+00 -5.0037657417845560e-01 +5.2776777177808809e-01 +8.1450758818471377e+02 -1.7920409439712684e+05 -5.2821899169382798e+06 
-5.4000000000000004e+00 -5.3712469090797099e-01 +7.3602435965466126e+00 -5.0161643875029405e-01 +5.8851878008032354e-01 +8.3702457496709428e+02 -1.7931498864279428e+05 -5.3678456784838140e+06 
-5.5000000000000000e+00 -5.3712459036436866e-01 +7.3602387001373932e+00 -5.0328093452370903e-01 +5.6287751468912517e-01 +8.6848093436309239e+02 -1.7891352374360716e+05 -5.4966229110915046e+06 
-5.5999999999999996e+00 -5.3712449593881828e-01 +7.3602364266351037e+00 -5.0544528965983093e-01 +4.4767322076550842e-01 +9.1003227760010168e+02 -1.7798261909642280e+05 -5.6731877164165769e+06 
-5.7000000000000002e+00 -5.3712440615444801e-01 +7.3602368464983501e+00 -5.0818472928531433e-01 +2.3973504728003925e-01 +9.6283417243951328e+02 -1.7650519360116578e+05 -5.9022060472456412e+06 
-5.7999999999999998e+00 -5.3712431953444495e-01 +7.3602400302150359e+00 -5.1157447380847210e-01 -6.4108695580359823e-02 +1.0280421060195611e+03 -1.7446416141817605e+05 -6.1883435147670172e+06 
-5.9000000000000004e+00 -5.3712423460201708e-01 +7.3602460482798868e+00 -5.1568974019518554e-01 -4.6702989113749055e-01 +1.1068115084319995e+03 -1.7184243568801426e+05 -6.5362655025859419e+06 
-5.9999999999999902e+00 -5.3712414988044554e-01 +7.3602549712126502e+00 -5.2060573868791660e-01 -9.7220101136931969e-01 +1.2002977248001773e+03 -1.6862292648864369e+05 -6.9506371234271312e+06 
-6.0999999999999899e+00 -5.3712406432763282e-01 +7.3602668298912555e+00 -5.2636303802677165e-01 -1.5812468310771057e+00 +1.3091131252298840e+03 -1.6479766879801347e+05 -7.4338566071260665e+06 
-6.1999999999999904e+00 -5.3712397839601467e-01 +7.3602815117348674e+00 -5.3288236539809397e-01 -2.2903495856362741e+00 +1.4319665883912598e+03 -1.6039037583569594e+05 -7.9803083292265376e+06 
-6.2999999999999901e+00 -5.3712389285918649e-01 +7.3602988716583937e+00 -5.4005851166374319e-01 -3.0944902110925865e+00 +1.5671494409008531e+03 -1.5543166403366276e+05 -8.5826044124697018e+06 
-6.3999999999999897e+00 -5.3712380849073749e-01 +7.3603187645571548e+00 -5.4778626882760273e-01 -3.9886491089529876e+00 +1.7129530330848438e+03 -1.4995215283611947e+05 -9.2333570889042914e+06 
-6.4999999999999902e+00 -5.3712372606423064e-01 +7.3603410453074796e+00 -5.5596043261811612e-01 -4.9678061773366515e+00 +1.8676687887319181e+03 -1.4398246448501735e+05 -9.9251789387598448e+06 
-6.5999999999999899e+00 -5.3712364635318610e-01 +7.3603655687753600e+00 -5.6447580478812875e-01 -6.0269410486815103e+00 +2.0295882490704716e+03 -1.3755322267429184e+05 -1.0650683097327409e+07 
-6.6999999999999904e+00 -5.3712357013112566e-01 +7.3603921898011979e+00 -5.7322718689798779e-01 -7.1610326539840559e+00 +2.1970029504530980e+03 -1.3069505506216775e+05 -1.1402482662732109e+07 
-6.7999999999999901e+00 -5.3712349817154836e-01 +7.3604207632100600e+00 -5.8210938729088446e-01 -8.3650595268721215e+00 +2.3682045604843120e+03 -1.2343859148658680e+05 -1.2173191352089688e+07 
-6.8999999999999897e+00 -5.3712343124783268e-01 +7.3604511438045623e+00 -5.9101721980159616e-01 -9.6339995916289816e+00 +2.5414848531442981e+03 -1.1581446521042174e+05 -1.2955423382070787e+07 
-6.9999999999999902e+00 -5.3712337013345712e-01 +7.3604831863680609e+00 -5.9984549645972329e-01 -1.0962830255150894e+01 +2.7151355697717731e+03 -1.0785331239355741e+05 -1.3741792804289380e+07 
-7.0999999999999899e+00 -5.3712331560178261e-01 +7.3605167456634284e+00 -6.0848904085032662e-01 -1.2346528375988754e+01 +2.8874486718221351e+03 -9.9585772255888602e+04 -1.4524914706409434e+07 
-7.1999999999999904e+00 -5.3712326842617064e-01 +7.3605516764292105e+00 -6.1684267720739083e-01 -1.3780070153276672e+01 +3.0567161351036225e+03 -9.1042487719656390e+04 -1.5297404234464705e+07 
-7.2999999999999901e+00 -5.3712322937995760e-01 +7.3605878333815014e+00 -6.2480123666964682e-01 -1.5258431186903248e+01 +3.2212300660942310e+03 -8.2254105050611281e+04 -1.6051877138958108e+07 
-7.3999999999999897e+00 -5.3712319923637875e-01 +7.3606250712115413e+00 -6.3225955364572206e-01 -1.6776586394147298e+01 +3.3792826367458028e+03 -7.3251274370855885e+04 -1.6780949475933578e+07 
-7.4999999999999902e+00 -5.3712317876871440e-01 +7.3606632445886753e+00 -6.3911247074774113e-01 -1.8329510112236317e+01 +3.5291661738120019e+03 -6.4064649027389627e+04 -1.7477238017109871e+07 
-7.5999999999999899e+00 -5.3712316875011923e-01 +7.3607022081549909e+00 -6.4525483384393145e-01 -1.9912175937448794e+01 +3.6691730697091216e+03 -5.4724886532084733e+04 -1.8133359839876480e+07 
-7.6999999999999904e+00 -5.3712316995378095e-01 +7.3607418165276837e+00 -6.5058149490097905e-01 -2.1519556790866122e+01 +3.7975958309394673e+03 -4.5262648192285575e+04 -1.8741932541593660e+07 
-7.7999999999999901e+00 -5.3712318315280749e-01 +7.3607819242968455e+00 -6.5498731338512972e-01 -2.3146624863509270e+01 +3.9127271089783453e+03 -3.5708599403000670e+04 -1.9295574396983676e+07 
-7.8999999999999897e+00 -5.3712320912030154e-01 +7.3608223860217761e+00 -6.5836715346235752e-01 -2.4788351503492077e+01 +4.0128596450729506e+03 -2.6093410315904137e+04 -1.9786904089329105e+07 
-7.9999999999999902e+00 -5.3712324862920058e-01 +7.3608630562259005e+00 -6.6061589524353104e-01 -2.6439707425272506e+01 +4.0962864440269796e+03 -1.6447754513195519e+04 -2.0208541467381358e+07 
-8.0999999999999908e+00 -5.3712330215434834e-01 +7.3609037887028910e+00 -6.6166714163309504e-01 -2.8095377241313290e+01 +4.1618737154050987e+03 -6.8038649846738608e+03 -2.0555490332299817e+07 
-8.1999999999999904e+00 -5.3712336918694270e-01 +7.3609444495540171e+00 -6.6158234764318535e-01 -2.9749077563853909e+01 +4.2103653839880599e+03 +2.8007187357056832e+03 -2.0830544571027678e+07 
-8.2999999999999901e+00 -5.3712344901523634e-01 +7.3609849104419984e+00 -6.6044940102150151e-01 -3.1394316383424194e+01 +4.2428900365618902e+03 +1.2327315441656056e+04 -2.1038090278716076e+07 
-8.3999999999999897e+00 -5.3712354092733916e-01 +7.3610250430555864e+00 -6.5835619836438641e-01 -3.3024602256666512e+01 +4.2605764134722549e+03 +2.1737246708060247e+04 -2.1182514197991323e+07 
-8.4999999999999893e+00 -5.3712364421148240e-01 +7.3610647190941458e+00 -6.5539063715004053e-01 -3.4633443849466680e+01 +4.2645532632292070e+03 +3.0991834221947927e+04 -2.1268203040055554e+07 
-8.5999999999999908e+00 -5.3712375815566260e-01 +7.3611038102882809e+00 -6.5164063213739687e-01 -3.6214350525513467e+01 +4.2559496472866713e+03 +4.0052403162849652e+04 -2.1299544916523959e+07 
-8.6999999999999904e+00 -5.3712388204799377e-01 +7.3611421883813870e+00 -6.4719409907280934e-01 -3.7760831813893446e+01 +4.2358946341902774e+03 +4.8880279132534226e+04 -2.1280927891653739e+07 
-8.7999999999999794e+00 -5.3712401517643471e-01 +7.3611797251449955e+00 -6.4213896518602864e-01 -3.9266397838816566e+01 +4.2055174986127904e+03 +5.7436790595729333e+04 -2.1216740927807555e+07 
-8.8999999999999808e+00 -5.3712415682890469e-01 +7.3612162923709077e+00 -6.3656316431913007e-01 -4.0724559095691944e+01 +4.1659476246256008e+03 +6.5683267601587198e+04 -2.1111373413099043e+07 
-8.9999999999999805e+00 -5.3712430629334063e-01 +7.3612517618762086e+00 -6.3055464053013244e-01 -4.2128826579888305e+01 +4.1183145772968455e+03 +7.3581042478292104e+04 -2.0969215507491738e+07 
-9.0999999999999801e+00 -5.3712446285754833e-01 +7.3612860055015208e+00 -6.2420134662701676e-01 -4.3472711733268824e+01 +4.0637480754117555e+03 +8.1091449527107208e+04 -2.0794658014492322e+07 
-9.1999999999999797e+00 -5.3712462580926856e-01 +7.3613188951118902e+00 -6.1759124538185506e-01 -4.4749726461897843e+01 +4.0033780091899566e+03 +8.8175825087995181e+04 -2.0592092449527953e+07 
-9.2999999999999794e+00 -5.3712479443628713e-01 +7.3613503026004405e+00 -6.1081230644004758e-01 -4.5953383244441042e+01 +3.9383343847913379e+03 +9.4795508191167450e+04 -2.0365910782512762e+07 
-9.3999999999999808e+00 -5.3712496802623966e-01 +7.3613800998869365e+00 -6.0395251041990150e-01 -4.7077195071699911e+01 +3.8697474016964784e+03 +1.0091184014561090e+05 -2.0120505804594383e+07 
-9.4999999999999805e+00 -5.3712514586668203e-01 +7.3614081589159523e+00 -5.9709985048392988e-01 -4.8114675392217585e+01 +3.7987474815318592e+03 +1.0648616422590768e+05 -1.9860271259773631e+07 
-9.5999999999999801e+00 -5.3712532724522843e-01 +7.3614343516630019e+00 -5.9034232509378293e-01 -4.9059338290292430e+01 +3.7264651312076267e+03 +1.1147982670073051e+05 -1.9589601195087500e+07 
-9.6999999999999797e+00 -5.3712551144930964e-01 +7.3614585501315579e+00 -5.8376794419373812e-01 -4.9904698378593125e+01 +3.6540310549091491e+03 +1.1585417615991163e+05 -1.9312890477726404e+07 
-9.7999999999999794e+00 -5.3712569776638619e-01 +7.3614806263542860e+00 -5.7746473060691217e-01 -5.0644270842062646e+01 +3.5825761885386723e+03 +1.1957056378779207e+05 -1.9034534978134740e+07 
-9.8999999999999808e+00 -5.3712588548379014e-01 +7.3615004523947354e+00 -5.7152071527987558e-01 -5.1271571478030772e+01 +3.5132316018523593e+03 +1.2259034357065459e+05 -1.8758931084045392e+07 
-9.9999999999999805e+00 -5.3712607388878886e-01 +7.3615179003995692e+00 -5.6602393486854929e-01 -5.1780118317747579e+01 +3.4471284002727293e+03 +1.2487488285431806e+05 -1.8490475007722527e+07 
-1.0100000000000000e+01 -5.3712626237017225e-01 +7.3615329028785448e+00 -5.6104161188860113e-01 -5.2166247101861437e+01 +3.3851173840081906e+03 +1.2640314641115075e+05 -1.8232455174083408e+07 
