# field on trajectory
# s[mm] rx[mm] ry[mm] rz[mm] bx[T] by[T] bz[T]
0.0000000000000000e+00 +8.1649999999999991e+00 +0.0000000000000000e+00 +0.0000000000000000e+00 -2.7914501914552994e-02 -5.3658441635203746e-01 +5.3502707329648779e-03
1.0000000000000001e-01 +8.1649997170509909e+00 +0.0000000000000000e+00 +9.9999999999466266e-02 -2.7914594340138328e-02 -5.3658428554389437e-01 +5.3503065113246640e-03
2.0000000000000001e-01 +8.1649988682040586e+00 +0.0000000000000000e+00 +1.9999999999573009e-01 -2.7914698429528834e-02 -5.3658415999849207e-01 +5.3503442666720923e-03
3.0000000000000004e-01 +8.1649974534593355e+00 +0.0000000000000000e+00 +2.9999999998558913e-01 -2.7914813337790417e-02 -5.3658403930243637e-01 +5.3503839126724500e-03
4.0000000000000002e-01 +8.1649954728169476e+00 +0.0000000000000000e+00 +3.9999999996584096e-01 -2.7914938219995751e-02 -5.3658392304233227e-01 +5.3504253629906183e-03
5.0000000000000000e-01 +8.1649929262770176e+00 +0.0000000000000000e+00 +4.9999999993328320e-01 -2.7915072231222682e-02 -5.3658381080478490e-01 +5.3504685312912251e-03
5.9999999999999998e-01 +8.1649898138396644e+00 +0.0000000000000000e+00 +5.9999999988471342e-01 -2.7915214526552982e-02 -5.3658370217639828e-01 +5.3505133312388006e-03
6.9999999999999996e-01 +8.1649861355050035e+00 +0.0000000000000000e+00 +6.9999999981692929e-01 -2.7915364261070903e-02 -5.3658359674377920e-01 +5.3505596764979206e-03
7.9999999999999993e-01 +8.1649818912731451e+00 +0.0000000000000000e+00 +7.9999999972672831e-01 -2.7915520589861735e-02 -5.3658349409353412e-01 +5.3506074807333692e-03
8.9999999999999991e-01 +8.1649770811441975e+00 +0.0000000000000000e+00 +8.9999999961090815e-01 -2.7915682668010446e-02 -5.3658339381227127e-01 +5.3506566576102818e-03
9.9999999999999989e-01 +8.1649717051182673e+00 +0.0000000000000000e+00 +9.9999999946626639e-01 -2.7915849650600302e-02 -5.3658329548660200e-01 +5.3507071207943083e-03
1.0999999999999999e+00 +8.1649657631954575e+00 +0.0000000000000000e+00 +1.0999999992896008e+00 -2.7916020692711398e-02 -5.3658319870313931e-01 +5.3507587839517505e-03
1.2000000000000000e+00 +8.1649592553758712e+00 +0.0000000000000000e+00 +1.1999999990777088e+00 -2.7916194949419347e-02 -5.3658310304850010e-01 +5.3508115607497370e-03
1.3000000000000000e+00 +8.1649521816596096e+00 +0.0000000000000000e+00 +1.2999999988273880e+00 -2.7916371575793762e-02 -5.3658300810930437e-01 +5.3508653648563420e-03
1.4000000000000001e+00 +8.1649445420467739e+00 +0.0000000000000000e+00 +1.3999999985354361e+00 -2.7916549726896969e-02 -5.3658291347217624e-01 +5.3509201099407790e-03
1.5000000000000002e+00 +8.1649363365374636e+00 +0.0000000000000000e+00 +1.4999999981986507e+00 -2.7916728557782544e-02 -5.3658281872374491e-01 +5.3509757096735161e-03
1.6000000000000003e+00 +8.1649275651317783e+00 +0.0000000000000000e+00 +1.5999999978138295e+00 -2.7916907223493923e-02 -5.3658272345064406e-01 +5.3510320777264454e-03
1.7000000000000004e+00 +8.1649182278298191e+00 +0.0000000000000000e+00 +1.6999999973777700e+00 -2.7917084879063022e-02 -5.3658262723951355e-01 +5.3510891277730455e-03
1.8000000000000005e+00 +8.1649083246316874e+00 +0.0000000000000000e+00 +1.7999999968872697e+00 -2.7917260679508782e-02 -5.3658252967699860e-01 +5.3511467734885052e-03
1.9000000000000006e+00 +8.1648978555374860e+00 +0.0000000000000000e+00 +1.8999999963391265e+00 -2.7917433779835826e-02 -5.3658243034975128e-01 +5.3512049285499080e-03
2.0000000000000004e+00 +8.1648868205473217e+00 +0.0000000000000000e+00 +1.9999999957301380e+00 -2.7917603335033059e-02 -5.3658232884443113e-01 +5.3512635066363581e-03
2.1000000000000005e+00 +8.1648752196613010e+00 +0.0000000000000000e+00 +2.0999999950571016e+00 -2.7917768690403633e-02 -5.3658222499363450e-01 +5.3513224367045574e-03
2.2000000000000006e+00 +8.1648630528795341e+00 +0.0000000000000000e+00 +2.1999999943168151e+00 -2.7917929952566815e-02 -5.3658211961368341e-01 +5.3513817088143853e-03
2.3000000000000007e+00 +8.1648503202021310e+00 +0.0000000000000000e+00 +2.2999999935060762e+00 -2.7918087418479346e-02 -5.3658201376683035e-01 +5.3514413283012848e-03
2.4000000000000008e+00 +8.1648370216292054e+00 +0.0000000000000000e+00 +2.3999999926216824e+00 -2.7918241385107727e-02 -5.3658190851532905e-01 +5.3515013005005435e-03
2.5000000000000009e+00 +8.1648231571608676e+00 +0.0000000000000000e+00 +2.4999999916604314e+00 -2.7918392149429844e-02 -5.3658180492143281e-01 +5.3515616307471502e-03
2.6000000000000010e+00 +8.1648087267972276e+00 +0.0000000000000000e+00 +2.5999999906191209e+00 -2.7918540008436833e-02 -5.3658170404739436e-01 +5.3516223243756829e-03
2.7000000000000011e+00 +8.1647937305383920e+00 +0.0000000000000000e+00 +2.6999999894945486e+00 -2.7918685259134653e-02 -5.3658160695546586e-01 +5.3516833867201727e-03
2.8000000000000012e+00 +8.1647781683844638e+00 +0.0000000000000000e+00 +2.7999999882835120e+00 -2.7918828198545902e-02 -5.3658151470789861e-01 +5.3517448231139800e-03
2.9000000000000012e+00 +8.1647620403355408e+00 +0.0000000000000000e+00 +2.8999999869828086e+00 -2.7918969123711394e-02 -5.3658142836694134e-01 +5.3518066388896545e-03
3.0000000000000013e+00 +8.1647453463917135e+00 +0.0000000000000000e+00 +2.9999999855892363e+00 -2.7919108331692030e-02 -5.3658134899484211e-01 +5.3518688393788339e-03
3.1000000000000014e+00 +8.1647280865530671e+00 +0.0000000000000000e+00 +3.0999999840995929e+00 -2.7919246119570359e-02 -5.3658127765384600e-01 +5.3519314299120858e-03
3.2000000000000015e+00 +8.1647102608196782e+00 +0.0000000000000000e+00 +3.1999999825106755e+00 -2.7919382784452388e-02 -5.3658121540619574e-01 +5.3519944158187992e-03
3.3000000000000016e+00 +8.1646918691916106e+00 +0.0000000000000000e+00 +3.2999999808192819e+00 -2.7919518623469228e-02 -5.3658116331413042e-01 +5.3520578024270496e-03
3.4000000000000017e+00 +8.1646729116689212e+00 +0.0000000000000000e+00 +3.3999999790222102e+00 -2.7919653933778859e-02 -5.3658112243988731e-01 +5.3521215950634807e-03
3.5000000000000018e+00 +8.1646533882516525e+00 +0.0000000000000000e+00 +3.4999999771162575e+00 -2.7919789012567767e-02 -5.3658109384569797e-01 +5.3521857990531602e-03
3.6000000000000019e+00 +8.1646332989398367e+00 +0.0000000000000000e+00 +3.5999999750982217e+00 -2.7919924157052738e-02 -5.3658107859379045e-01 +5.3522504197194678e-03
3.7000000000000020e+00 +8.1646126437334896e+00 +0.0000000000000000e+00 +3.6999999729649002e+00 -2.7920059664482487e-02 -5.3658107774638941e-01 +5.3523154623839539e-03
3.8000000000000020e+00 +8.1645914226326131e+00 +0.0000000000000000e+00 +3.7999999707130909e+00 -2.7920195832139408e-02 -5.3658109236571305e-01 +5.3523809323662297e-03
3.9000000000000021e+00 +8.1645696356371928e+00 +0.0000000000000000e+00 +3.8999999683395914e+00 -2.7920332957341303e-02 -5.3658112351397558e-01 +5.3524468349838228e-03
4.0000000000000018e+00 +8.1645472827471952e+00 +0.0000000000000000e+00 +3.9999999658411993e+00 -2.7920471337443020e-02 -5.3658117225338431e-01 +5.3525131755520570e-03
4.1000000000000014e+00 +8.1645243639625704e+00 +0.0000000000000000e+00 +4.0999999632147119e+00 -2.7920611192813895e-02 -5.3658123919222744e-01 +5.3525799725369369e-03
4.2000000000000011e+00 +8.1645008792832474e+00 +0.0000000000000000e+00 +4.1999999604569274e+00 -2.7920752435751189e-02 -5.3658132312313211e-01 +5.3526472970148800e-03
4.3000000000000007e+00 +8.1644768287091392e+00 +0.0000000000000000e+00 +4.2999999575646433e+00 -2.7920894901527930e-02 -5.3658142238482154e-01 +5.3527152332150029e-03
4.4000000000000004e+00 +8.1644522122401426e+00 +0.0000000000000000e+00 +4.3999999545346569e+00 -2.7921038425412752e-02 -5.3658153531603026e-01 +5.3527838653662767e-03
4.5000000000000000e+00 +8.1644270298761388e+00 +0.0000000000000000e+00 +4.4999999513637663e+00 -2.7921182842669069e-02 -5.3658166025550713e-01 +5.3528532776975519e-03
4.5999999999999996e+00 +8.1644012816169980e+00 +0.0000000000000000e+00 +4.5999999480487688e+00 -2.7921327988553978e-02 -5.3658179554201446e-01 +5.3529235544375678e-03
4.6999999999999993e+00 +8.1643749674625781e+00 +0.0000000000000000e+00 +4.6999999445864615e+00 -2.7921473698317368e-02 -5.3658193951432909e-01 +5.3529947798149685e-03
4.7999999999999989e+00 +8.1643480874127281e+00 +0.0000000000000000e+00 +4.7999999409736427e+00 -2.7921619807200922e-02 -5.3658209051124361e-01 +5.3530670380583191e-03
4.8999999999999986e+00 +8.1643206414672900e+00 +0.0000000000000000e+00 +4.8999999372071095e+00 -2.7921766150437115e-02 -5.3658224687156575e-01 +5.3531404133961265e-03
4.9999999999999982e+00 +8.1642926296260985e+00 +0.0000000000000000e+00 +4.9999999332836600e+00 -2.7921912563248285e-02 -5.3658240693412051e-01 +5.3532149900568380e-03
5.0999999999999979e+00 +8.1642640518889866e+00 +0.0000000000000000e+00 +5.0999999292000915e+00 -2.7922058880845670e-02 -5.3658256903775059e-01 +5.3532908522688745e-03
5.1999999999999975e+00 +8.1642349082557857e+00 +0.0000000000000000e+00 +5.1999999249532012e+00 -2.7922204938428383e-02 -5.3658273152131664e-01 +5.3533680842606304e-03
5.2999999999999972e+00 +8.1642051987263251e+00 +0.0000000000000000e+00 +5.2999999205397872e+00 -2.7922350571182517e-02 -5.3658289272369764e-01 +5.3534467702605025e-03
5.3999999999999968e+00 +8.1641749233004344e+00 +0.0000000000000000e+00 +5.3999999159566467e+00 -2.7922495614280070e-02 -5.3658305098379300e-01 +5.3535269944968876e-03
5.4999999999999964e+00 +8.1641440819779483e+00 +0.0000000000000000e+00 +5.4999999112005771e+00 -2.7922639902878094e-02 -5.3658320464052123e-01 +5.3536088411982119e-03
5.5999999999999961e+00 +8.1641126747587069e+00 +0.0000000000000000e+00 +5.5999999062683763e+00 -2.7922783272117637e-02 -5.3658335203282304e-01 +5.3536923945929427e-03
5.6999999999999957e+00 +8.1640807016425558e+00 +0.0000000000000000e+00 +5.6999999011568416e+00 -2.7922925557122811e-02 -5.3658349149966023e-01 +5.3537777389095964e-03
5.7999999999999954e+00 +8.1640481626293475e+00 +0.0000000000000000e+00 +5.7999998958627712e+00 -2.7923066592999819e-02 -5.3658362138001647e-01 +5.3538649583767545e-03
5.8999999999999950e+00 +8.1640150577189488e+00 +0.0000000000000000e+00 +5.8999998903829622e+00 -2.7923206214835974e-02 -5.3658374001289977e-01 +5.3539541372230881e-03
5.9999999999999947e+00 +8.1639813869112334e+00 +0.0000000000000000e+00 +5.9999998847142120e+00 -2.7923344257698744e-02 -5.3658384573734064e-01 +5.3540453596773617e-03
6.0999999999999943e+00 +8.1639471502060914e+00 +0.0000000000000000e+00 +6.0999998788533185e+00 -2.7923480565912737e-02 -5.3658393735701448e-01 +5.3541386843427583e-03
6.1999999999999940e+00 +8.1639123476034285e+00 +0.0000000000000000e+00 +6.1999998727970791e+00 -2.7923615020886656e-02 -5.3658401553408808e-01 +5.3542340673200682e-03
6.2999999999999936e+00 +8.1638769791031631e+00 +0.0000000000000000e+00 +6.2999998665422909e+00 -2.7923747513266945e-02 -5.3658408139532909e-01 +5.3543314390859685e-03
6.3999999999999932e+00 +8.1638410447052259e+00 +0.0000000000000000e+00 +6.3999998600857522e+00 -2.7923877933656530e-02 -5.3658413606747868e-01 +5.3544307301191104e-03
6.4999999999999929e+00 +8.1638045444095599e+00 +0.0000000000000000e+00 +6.4999998534242609e+00 -2.7924006172613140e-02 -5.3658418067724933e-01 +5.3545318709002226e-03
6.5999999999999925e+00 +8.1637674782161209e+00 +0.0000000000000000e+00 +6.5999998465546135e+00 -2.7924132120647500e-02 -5.3658421635132458e-01 +5.3546347919121726e-03
6.6999999999999922e+00 +8.1637298461248697e+00 +0.0000000000000000e+00 +6.6999998394736080e+00 -2.7924255668221605e-02 -5.3658424421635498e-01 +5.3547394236400708e-03
6.7999999999999918e+00 +8.1636916481357797e+00 +0.0000000000000000e+00 +6.7999998321780426e+00 -2.7924376705747066e-02 -5.3658426539896142e-01 +5.3548456965713514e-03
6.8999999999999915e+00 +8.1636528842488296e+00 +0.0000000000000000e+00 +6.8999998246647145e+00 -2.7924495123583276e-02 -5.3658428102572897e-01 +5.3549535411958511e-03
6.9999999999999911e+00 +8.1636135544640052e+00 +0.0000000000000000e+00 +6.9999998169304209e+00 -2.7924610812035754e-02 -5.3658429222320858e-01 +5.3550628880059126e-03
7.0999999999999908e+00 +8.1635736587812939e+00 +0.0000000000000000e+00 +7.0999998089719600e+00 -2.7924723661354373e-02 -5.3658430011791491e-01 +5.3551736674964439e-03
7.1999999999999904e+00 +8.1635331972006888e+00 +0.0000000000000000e+00 +7.1999998007861290e+00 -2.7924833561731657e-02 -5.3658430583632455e-01 +5.3552858101650388e-03
7.2999999999999901e+00 +8.1634921697221863e+00 +0.0000000000000000e+00 +7.2999997923697251e+00 -2.7924940403301013e-02 -5.3658431050487509e-01 +5.3553992465120263e-03
7.3999999999999897e+00 +8.1634505763457810e+00 +0.0000000000000000e+00 +7.3999997837195464e+00 -2.7925044076135056e-02 -5.3658431524996442e-01 +5.3555139070405877e-03
7.4999999999999893e+00 +8.1634084170714711e+00 +0.0000000000000000e+00 +7.4999997748323901e+00 -2.7925144470243812e-02 -5.3658432119794763e-01 +5.3556297222568227e-03
7.5999999999999890e+00 +8.1633656918992497e+00 +0.0000000000000000e+00 +7.5999997657050544e+00 -2.7925241475573025e-02 -5.3658432947513801e-01 +5.3557466226698425e-03
7.6999999999999886e+00 +8.1633224008291112e+00 +0.0000000000000000e+00 +7.6999997563343365e+00 -2.7925334982002427e-02 -5.3658434120780274e-01 +5.3558645387918663e-03
7.7999999999999883e+00 +8.1632785438610433e+00 +0.0000000000000000e+00 +7.7999997467170346e+00 -2.7925424879343998e-02 -5.3658435752216527e-01 +5.3559834011382840e-03
7.8999999999999879e+00 +8.1632341209950301e+00 +0.0000000000000000e+00 +7.8999997368499457e+00 -2.7925511057340209e-02 -5.3658437954440119e-01 +5.3561031402277748e-03
7.9999999999999876e+00 +8.1631891322310501e+00 +0.0000000000000000e+00 +7.9999997267298673e+00 -2.7925593405662353e-02 -5.3658440840063693e-01 +5.3562236865823572e-03
8.0999999999999872e+00 +8.1631435775690733e+00 +0.0000000000000000e+00 +8.0999997163535973e+00 -2.7925671841273075e-02 -5.3658444513514614e-01 +5.3563449691966768e-03
8.1999999999999869e+00 +8.1630974570090640e+00 +0.0000000000000000e+00 +8.1999997057179321e+00 -2.7925746390569339e-02 -5.3658449046496659e-01 +5.3564669109441810e-03
8.2999999999999865e+00 +8.1630507705509743e+00 +0.0000000000000000e+00 +8.2999996948196717e+00 -2.7925817107378299e-02 -5.3658454502537289e-01 +5.3565894331672860e-03
8.3999999999999861e+00 +8.1630035181947491e+00 +0.0000000000000000e+00 +8.3999996836556114e+00 -2.7925884045607960e-02 -5.3658460945169328e-01 +5.3567124572078493e-03
8.4999999999999858e+00 +8.1629556999403210e+00 +0.0000000000000000e+00 +8.4999996722225504e+00 -2.7925947259250055e-02 -5.3658468437930940e-01 +5.3568359044071420e-03
8.5999999999999854e+00 +8.1629073157876135e+00 +0.0000000000000000e+00 +8.5999996605172857e+00 -2.7926006802383073e-02 -5.3658477044366071e-01 +5.3569596961058046e-03
8.6999999999999851e+00 +8.1628583657365361e+00 +0.0000000000000000e+00 +8.6999996485366147e+00 -2.7926062729175128e-02 -5.3658486828024410e-01 +5.3570837536438039e-03
8.7999999999999847e+00 +8.1628088497869893e+00 +0.0000000000000000e+00 +8.7999996362773345e+00 -2.7926115093886969e-02 -5.3658497852461629e-01 +5.3572079983603945e-03
8.8999999999999844e+00 +8.1627587679388558e+00 +0.0000000000000000e+00 +8.8999996237362424e+00 -2.7926163950874855e-02 -5.3658510181239638e-01 +5.3573323515940874e-03
8.9999999999999840e+00 +8.1627081201920078e+00 +0.0000000000000000e+00 +8.9999996109101374e+00 -2.7926209354593525e-02 -5.3658523877926712e-01 +5.3574567346825969e-03
9.0999999999999837e+00 +8.1626569065463030e+00 +0.0000000000000000e+00 +9.0999995977958150e+00 -2.7926251359599186e-02 -5.3658539006097583e-01 +5.3575810689628130e-03
9.1999999999999833e+00 +8.1626051270015836e+00 +0.0000000000000000e+00 +9.1999995843900741e+00 -2.7926290020552372e-02 -5.3658555629333726e-01 +5.3577052757707491e-03
9.2999999999999829e+00 +8.1625527815576753e+00 +0.0000000000000000e+00 +9.2999995706897121e+00 -2.7926325392220921e-02 -5.3658573811223520e-01 +5.3578292764415126e-03
9.3999999999999826e+00 +8.1624998702143881e+00 +0.0000000000000000e+00 +9.3999995566915260e+00 -2.7926357529482977e-02 -5.3658593615362449e-01 +5.3579529923092669e-03
9.4999999999999822e+00 +8.1624463929715159e+00 +0.0000000000000000e+00 +9.4999995423923131e+00 -2.7926386487329809e-02 -5.3658615105353158e-01 +5.3580763447071741e-03
9.5999999999999819e+00 +8.1623923498288331e+00 +0.0000000000000000e+00 +9.5999995277888726e+00 -2.7926412320868871e-02 -5.3658638344805798e-01 +5.3581992549673763e-03
9.6999999999999815e+00 +8.1623377407860946e+00 +0.0000000000000000e+00 +9.6999995128779997e+00 -2.7926435085326672e-02 -5.3658663397338058e-01 +5.3583216444209473e-03
9.7999999999999812e+00 +8.1622825658430394e+00 +0.0000000000000000e+00 +9.7999994976564935e+00 -2.7926454836051731e-02 -5.3658690326575431e-01 +5.3584434343978459e-03
9.8999999999999808e+00 +8.1622268249993848e+00 +0.0000000000000000e+00 +9.8999994821211512e+00 -2.7926471628517538e-02 -5.3658719196151361e-01 +5.3585645462268820e-03
9.9999999999999805e+00 +8.1621705182548290e+00 +0.0000000000000000e+00 +9.9999994662687683e+00 -2.7926485518325470e-02 -5.3658750069707428e-01 +5.3586849012356814e-03
1.0099999999999980e+01 +8.1621136456090468e+00 +0.0000000000000000e+00 +1.0099999450096144e+01 -2.7926496580904649e-02 -5.3658782981723685e-01 +5.3588044666323508e-03
1.0199999999999980e+01 +8.1620562070616938e+00 +0.0000000000000000e+00 +1.0199999433600075e+01 -2.7926504970536285e-02 -5.3658817850001317e-01 +5.3589233931526266e-03
1.0299999999999979e+01 +8.1619982026124038e+00 +0.0000000000000000e+00 +1.0299999416777359e+01 -2.7926510861139776e-02 -5.3658854563162561e-01 +5.3590418774116504e-03
1.0399999999999979e+01 +8.1619396322607916e+00 +0.0000000000000000e+00 +1.0399999399624793e+01 -2.7926514426555613e-02 -5.3658893009819741e-01 +5.3591601160204450e-03
1.0499999999999979e+01 +8.1618804960064555e+00 +0.0000000000000000e+00 +1.0499999382139174e+01 -2.7926515840543092e-02 -5.3658933078574811e-01 +5.3592783055858182e-03
1.0599999999999978e+01 +8.1618207938489729e+00 +0.0000000000000000e+00 +1.0599999364317302e+01 -2.7926515276778082e-02 -5.3658974658019365e-01 +5.3593966427102572e-03
1.0699999999999978e+01 +8.1617605257879067e+00 +0.0000000000000000e+00 +1.0699999346155971e+01 -2.7926512908850697e-02 -5.3659017636734152e-01 +5.3595153239918043e-03
1.0799999999999978e+01 +8.1616996918228075e+00 +0.0000000000000000e+00 +1.0799999327651980e+01 -2.7926508910263173e-02 -5.3659061903288918e-01 +5.3596345460239789e-03
1.0899999999999977e+01 +8.1616382919532100e+00 +0.0000000000000000e+00 +1.0899999308802125e+01 -2.7926503454427435e-02 -5.3659107346242085e-01 +5.3597545053956381e-03
1.0999999999999977e+01 +8.1615763261786363e+00 +0.0000000000000000e+00 +1.0999999289603203e+01 -2.7926496714662977e-02 -5.3659153854140484e-01 +5.3598753986908850e-03
1.1099999999999977e+01 +8.1615137944985978e+00 +0.0000000000000000e+00 +1.1099999270052011e+01 -2.7926488864194552e-02 -5.3659201315519123e-01 +5.3599974224889648e-03
1.1199999999999976e+01 +8.1614506969125973e+00 +0.0000000000000000e+00 +1.1199999250145350e+01 -2.7926480076149906e-02 -5.3659249618900862e-01 +5.3601207733641508e-03
1.1299999999999976e+01 +8.1613870334201266e+00 +0.0000000000000000e+00 +1.1299999229880013e+01 -2.7926470523557539e-02 -5.3659298652796272e-01 +5.3602456478856293e-03
1.1399999999999975e+01 +8.1613228040206707e+00 +0.0000000000000000e+00 +1.1399999209252799e+01 -2.7926460379344403e-02 -5.3659348305703125e-01 +5.3603722426174057e-03
1.1499999999999975e+01 +8.1612580087137090e+00 +0.0000000000000000e+00 +1.1499999188260505e+01 -2.7926449816333736e-02 -5.3659398466106423e-01 +5.3605007541181835e-03
1.1599999999999975e+01 +8.1611926474987140e+00 +0.0000000000000000e+00 +1.1599999166899927e+01 -2.7926439007242714e-02 -5.3659449022477856e-01 +5.3606313789412718e-03
1.1699999999999974e+01 +8.1611267203751545e+00 +0.0000000000000000e+00 +1.1699999145167864e+01 -2.7926428124680217e-02 -5.3659499863275750e-01 +5.3607643136344479e-03
1.1799999999999974e+01 +8.1610602273424959e+00 +0.0000000000000000e+00 +1.1799999123061111e+01 -2.7926417341144618e-02 -5.3659550876944628e-01 +5.3608997547398866e-03
