# multipoles
# s[mm] polynom_b[n=0][T/m^n] polynom_b[n=1][T/m^n] polynom_b[n=2][T/m^n] polynom_b[n=3][T/m^n] polynom_b[n=4][T/m^n] polynom_b[n=5][T/m^n] polynom_b[n=6][T/m^n] 
+0.0000000000000000e+00 -5.6229431368362037e-01 +7.7347280501241329e+00 -2.1291384464075316e-02 -8.4857637942979650e+01 -1.0206036490723063e+04 +3.0840594653157331e+05 +3.4494918850454271e+07 
+1.0000000000000001e-01 -5.6229453490084991e-01 +7.7347135570881669e+00 -1.3155878836018549e-02 -8.4475201515983116e+01 -1.0316848877753986e+04 +3.0689543584817392e+05 +3.4881226759989798e+07 
+2.0000000000000001e-01 -5.6229473280914233e-01 +7.7347023488837428e+00 -9.9717974387340449e-03 -8.4101661350392405e+01 -1.0332361938679318e+04 +3.0523546153738600e+05 +3.4834321488927454e+07 
+2.9999999999999999e-01 -5.6229490729703269e-01 +7.7346941390808288e+00 -1.1360146683650161e-02 -8.3736470810959148e+01 -1.0261682837713568e+04 +3.0342763042934978e+05 +3.4399593180560566e+07 
+4.0000000000000002e-01 -5.6229505825302395e-01 +7.7346886412778337e+00 -1.6941933705934043e-02 -8.3379084310386048e+01 -1.0113918703004640e+04 +3.0147355635908950e+05 +3.3622431726597384e+07 
+5.0000000000000000e-01 -5.6229518556566649e-01 +7.7346855690979615e+00 -2.6338169300064385e-02 -8.3028957087840098e+01 -9.8981765646688891e+03 +2.9937485836990632e+05 +3.2548226455958765e+07 
+5.9999999999999998e-01 -5.6229528912344950e-01 +7.7346846361803072e+00 -3.9169869676770011e-02 -8.2685544855149701e+01 -9.6235633293479750e+03 +2.9713315820164152e+05 +3.1222366033768564e+07 
+6.9999999999999996e-01 -5.6229536881483877e-01 +7.7346855561694845e+00 -5.5058052299552990e-02 -8.2348303373951467e+01 -9.2991858542980699e+03 +2.9475007730318280e+05 +2.9690238799685627e+07 
+8.0000000000000004e-01 -5.6229542452832382e-01 +7.7346880427195144e+00 -7.3623739909014399e-02 -8.2016688482799310e+01 -8.9341508728915214e+03 +2.9222723657059454e+05 +2.7997232415786318e+07 
+9.0000000000000002e-01 -5.6229545615236021e-01 +7.7346918094733885e+00 -9.4487957398860234e-02 -8.1690155372847286e+01 -8.5375650517536960e+03 +2.8956625157499447e+05 +2.6188734132790379e+07 
+1.0000000000000000e+00 -5.6229546357534055e-01 +7.7346965700704535e+00 -1.1727173480009742e-01 -8.1368158721319361e+01 -8.1185349387913020e+03 +2.8676873293243977e+05 +2.4310130553803064e+07 
+1.1000000000000001e+00 -5.6229544778928653e-01 +7.7347020899812104e+00 -1.4157936147404865e-01 -8.1051041290504656e+01 -7.6857605944615989e+03 +2.8384475300037576e+05 +2.2403482895053715e+07 
+1.2000000000000000e+00 -5.6229541421684082e-01 +7.7347083555309801e+00 -1.6694620633591625e-01 -8.0743178921535190e+01 -7.2463567740188009e+03 +2.8084090424864431e+05 +2.0497724331908360e+07 
+1.3000000000000000e+00 -5.6229536939234215e-01 +7.7347154115959373e+00 -1.9288992860801846e-01 -8.0450074100282521e+01 -6.8070517712426408e+03 +2.7781356620560295e+05 +1.8618547796622410e+07 
+1.3999999999999999e+00 -5.6229531985022740e-01 +7.7347233030249614e+00 -2.1892818430587949e-01 -8.0177228400043091e+01 -6.3745739678519458e+03 +2.7481911242716829e+05 +1.6791646757266134e+07 
+1.5000000000000000e+00 -5.6229527212485464e-01 +7.7347320746425412e+00 -2.4457861869578879e-01 -7.9930142579043704e+01 -5.9556519918473177e+03 +2.7191391110395995e+05 +1.5042716022073245e+07 
+1.6000000000000001e+00 -5.6229523275077065e-01 +7.7347417712315432e+00 -2.6935886852709012e-01 -7.9714316084866539e+01 -5.5570146760136959e+03 +2.6915432223363768e+05 +1.3397451555148730e+07 
+1.7000000000000000e+00 -5.6229520826252155e-01 +7.7347524375371295e+00 -2.9278655972201872e-01 -7.9535247189090711e+01 -5.1853911170665488e+03 +2.6659669845766993e+05 +1.1881550811364166e+07 
+1.8000000000000000e+00 -5.6229520519473497e-01 +7.7347641182604363e+00 -3.1437930402991959e-01 -7.9398432817388539e+01 -4.8475107458189577e+03 +2.6429738415091869e+05 +1.0520713098762529e+07 
+1.8999999999999999e+00 -5.6229523008210436e-01 +7.7347768580512692e+00 -3.3365469664913444e-01 -7.9309368348715083e+01 -4.5501033819308632e+03 +2.6231271429292217e+05 +9.3406398759445865e+06 
+2.0000000000000000e+00 -5.6229528945943896e-01 +7.7347907015071415e+00 -3.5013032044104603e-01 -7.9273547598203066e+01 -4.2998991601338439e+03 +2.6069901442552454e+05 +8.3670344291343605e+06 
+2.1000000000000001e+00 -5.6229538842257343e-01 +7.7348056861039787e+00 -3.6343160859270235e-01 -7.9295733374851295e+01 -4.1018628538047906e+03 +2.5950618628583942e+05 +7.6179701909514461e+06 
+2.2000000000000002e+00 -5.6229552630478108e-01 +7.7348218289065702e+00 -3.7361628270958908e-01 -7.9377972048084615e+01 -3.9538875149541573e+03 +2.5875926723118665e+05 +7.0809879288103143e+06 
+2.2999999999999998e+00 -5.6229570099682857e-01 +7.7348391438587889e+00 -3.8085039708574481e-01 -7.9521681488853318e+01 -3.8520949115834592e+03 +2.5847727738467840e+05 +6.7359883489037091e+06 
+2.3999999999999999e+00 -5.6229591038941884e-01 +7.7348576449155413e+00 -3.8530001033511846e-01 -7.9728280337967149e+01 -3.7926067183440177e+03 +2.5867924375121098e+05 +6.5628716115884846e+06 
+2.5000000000000000e+00 -5.6229615237324060e-01 +7.7348773460527669e+00 -3.8713117997190072e-01 -7.9999188366018700e+01 -3.7715446117122178e+03 +2.5938420266041032e+05 +6.5415377508643493e+06 
+2.6000000000000001e+00 -5.6229642483901365e-01 +7.7348982612692927e+00 -3.8650996740183546e-01 -8.0335826577513458e+01 -3.7850301715653231e+03 +2.6061120066240578e+05 +6.6518861845755782e+06 
+2.7000000000000002e+00 -5.6229672567740430e-01 +7.7349204045878848e+00 -3.8360243760320939e-01 -8.0739617300204642e+01 -3.8291848866653445e+03 +2.6237929536135239e+05 +6.8738157285170369e+06 
+2.7999999999999998e+00 -5.6229705277901787e-01 +7.7349437900660396e+00 -3.7857466109695770e-01 -8.1211984557228348e+01 -3.9001301075943070e+03 +2.6470755788482004e+05 +7.1872243333120318e+06 
+2.8999999999999999e+00 -5.6229740403450756e-01 +7.7349684317944636e+00 -3.7159271032060037e-01 -8.1754354086400767e+01 -3.9939871161191973e+03 +2.6761507333885395e+05 +7.5720094058181318e+06 
+3.0000000000000000e+00 -5.6229777733444664e-01 +7.7349943439024473e+00 -3.6282266593804130e-01 -8.2368153544216113e+01 -4.1068769980161387e+03 +2.7112094221929298e+05 +8.0080671683242731e+06 
+3.1000000000000001e+00 -5.6229817019510875e-01 +7.7350213671089794e+00 -3.5245301482460606e-01 -8.3049950295187244e+01 -4.2352168752359185e+03 +2.7521063151817687e+05 +8.4782619430189617e+06 
+3.2000000000000002e+00 -5.6229857859878207e-01 +7.7350486244676659e+00 -3.4076350020375923e-01 -8.3775419129882707e+01 -4.3766051720644682e+03 +2.7972644477937510e+05 +8.9775166066960841e+06 
+3.2999999999999998e+00 -5.6229899813548501e-01 +7.7350750535292692e+00 -3.2805698432879582e-01 -8.4514643685145302e+01 -4.5289382165810975e+03 +2.8447268235573132e+05 +9.5038332425792608e+06 
+3.3999999999999999e+00 -5.6229942439509017e-01 +7.7350995918530669e+00 -3.1463634375601002e-01 -8.5237706913008083e+01 -4.6901120558488219e+03 +2.8925363646533020e+05 +1.0055212613087643e+07 
+3.5000000000000000e+00 -5.6229985296737017e-01 +7.7351211770094110e+00 -3.0080447532196236e-01 -8.5914691077042150e+01 -4.8580223345254617e+03 +2.9387359080172639e+05 +1.0629653563328745e+07 
+3.6000000000000001e+00 -5.6230027944190752e-01 +7.7351387465819510e+00 -2.8686429614957010e-01 -8.6515677746396776e+01 -5.0305642970945819e+03 +2.9813682014764869e+05 +1.1225153043866660e+07 
+3.7000000000000002e+00 -5.6230069940807681e-01 +7.7351512381648595e+00 -2.7311874599809577e-01 -8.7010747626181654e+01 -5.2056327437160335e+03 +3.0184758899118961e+05 +1.1839705906937329e+07 
+3.7999999999999998e+00 -5.6230110845515002e-01 +7.7351575893661240e+00 -2.5987078499400712e-01 -8.7369980565901102e+01 -5.3811220678369591e+03 +3.0481015118078672e+05 +1.2471305073963862e+07 
+3.8999999999999999e+00 -5.6230150217211683e-01 +7.7351567378109616e+00 -2.4742340177643857e-01 -8.7563455594024347e+01 -5.5549261036052185e+03 +3.0682874979709642e+05 +1.3117940821436930e+07 
+4.0000000000000000e+00 -5.6230187614786642e-01 +7.7351476211335246e+00 -2.3607960883534509e-01 -8.7561250568801015e+01 -5.7249382090433783e+03 +3.0770761482501630e+05 +1.3777601178698262e+07 
+4.0999999999999996e+00 -5.6230222696274923e-01 +7.7351295408822818e+00 -2.2608285929859995e-01 -8.7341795515177296e+01 -5.8892046799595191e+03 +3.0730256855820084e+05 +1.4447293594653061e+07 
+4.2000000000000002e+00 -5.6230255519414063e-01 +7.7351032892694613e+00 -2.1744405892007612e-01 -8.6919019363205123e+01 -6.0462367376561560e+03 +3.0568672018027236e+05 +1.5119095135963114e+07 
+4.2999999999999998e+00 -5.6230286242589911e-01 +7.7350700404927419e+00 -2.1011752509291631e-01 -8.6316268025870130e+01 -6.1946202496476399e+03 +3.0299039638823882e+05 +1.5783573094589941e+07 
+4.4000000000000004e+00 -5.6230315024210420e-01 +7.7350309687936667e+00 -2.0405754539539170e-01 -8.5556889829393782e+01 -6.3329416862572498e+03 +2.9934394235788437e+05 +1.6431297817730093e+07 
+4.5000000000000000e+00 -5.6230342022693602e-01 +7.7349872484576911e+00 -1.9921839699650015e-01 -8.4664235595889480e+01 -6.4597877477559150e+03 +2.9487772260031890e+05 +1.7052840925125550e+07 
+4.5999999999999996e+00 -5.6230367396478353e-01 +7.7349400538135402e+00 -1.9555432916025772e-01 -8.3661658684703085e+01 -6.5737457069756974e+03 +2.8972212143641239e+05 +1.7638776972544938e+07 
+4.7000000000000002e+00 -5.6230391304026306e-01 +7.7348905592389992e+00 -1.9301957167767395e-01 -8.2572515244517888e+01 -6.6734032456677533e+03 +2.8400754481449781e+05 +1.8179682666993730e+07 
+4.7999999999999998e+00 -5.6230413903819987e-01 +7.7348399391612288e+00 -1.9156832680967062e-01 -8.1420164305278519e+01 -6.7573486137385653e+03 +2.7786442114689504e+05 +1.8666137647615578e+07 
+4.9000000000000004e+00 -5.6230435354359409e-01 +7.7347893680549022e+00 -1.9115477382824383e-01 -8.0227967785497327e+01 -6.8241705413917171e+03 +2.7142320162598527e+05 +1.9088724066603374e+07 
+5.0000000000000000e+00 -5.6230455814176539e-01 +7.7347400204534749e+00 -1.9173306117059222e-01 -7.9019290921725343e+01 -6.8724583950998740e+03 +2.6481436284612841e+05 +1.9438027333837625e+07 
+5.0999999999999996e+00 -5.6230475453807038e-01 +7.7346929310379258e+00 -1.9324695894379632e-01 -7.7815960413141127e+01 -6.9013468439303988e+03 +2.5816037152494365e+05 +1.9707230349229407e+07 
+5.2000000000000002e+00 -5.6230494495966199e-01 +7.7346485548190467e+00 -1.9558798887050011e-01 -7.6632555793526535e+01 -6.9123280987245444e+03 +2.5154884760483634e+05 +1.9900780087946761e+07 
+5.2999999999999998e+00 -5.6230513177474772e-01 +7.7346071964151273e+00 -1.9863184722259719e-01 -7.5481565236387510e+01 -6.9075308168434367e+03 +2.4505794238795282e+05 +2.0026167284266531e+07 
+5.4000000000000004e+00 -5.6230531735155720e-01 +7.7345691604020734e+00 -2.0225423058684130e-01 -7.4375475406206149e+01 -6.8890835668268046e+03 +2.3876579805649802e+05 +2.0090881816227496e+07 
+5.5000000000000000e+00 -5.6230550405827717e-01 +7.7345347513154463e+00 -2.0633084066211729e-01 -7.3326771496136587e+01 -6.8591147325671182e+03 +2.3275054770818431e+05 +2.0102412239025407e+07 
+5.5999999999999996e+00 -5.6230569426316079e-01 +7.7345042736446681e+00 -2.1073738123879351e-01 -7.2347937038565249e+01 -6.8197525661360005e+03 +2.2709031420171136e+05 +2.0068246012651019e+07 
+5.7000000000000002e+00 -5.6230589033442324e-01 +7.7344780318331310e+00 -2.1534955771271047e-01 -7.1451453887985949e+01 -6.7731251898633318e+03 +2.2186321000568825e+05 +1.9995869482704960e+07 
+5.7999999999999998e+00 -5.6230609464030723e-01 +7.7344563302730336e+00 -2.2004308229420505e-01 -7.0649802046069397e+01 -6.7213604983536943e+03 +2.1714733611628399e+05 +1.9892767405086938e+07 
+5.9000000000000004e+00 -5.6230630954907812e-01 +7.7344394733053532e+00 -2.2469366504906221e-01 -6.9955459639043980e+01 -6.6665863203609706e+03 +2.1302078186697626e+05 +1.9766423685995586e+07 
+5.9999999999999902e+00 -5.6230653742897507e-01 +7.7344277652140825e+00 -2.2917702285964051e-01 -6.9380902738019230e+01 -6.6109302477207302e+03 +2.0956162392068599e+05 +1.9624320558700617e+07 
+6.0999999999999899e+00 -5.6230678041231597e-01 +7.7344214484720055e+00 -2.3338891075889168e-01 -6.8937051955986689e+01 -6.5561443970509472e+03 +2.0683988552287582e+05 +1.9472331550379846e+07 
+6.1999999999999904e+00 -5.6230703957110828e-01 +7.7344205274207294e+00 -2.3731930470032592e-01 -6.8628888317652809e+01 -6.5022063247809456e+03 +2.0489402449108957e+05 +1.9308566249998152e+07 
+6.2999999999999901e+00 -5.6230731568409520e-01 +7.7344249496633832e+00 -2.4098512615844814e-01 -6.8459994148034070e+01 -6.4485840189153687e+03 +2.0375486408819343e+05 +1.9128873492626045e+07 
+6.3999999999999897e+00 -5.6230760953019743e-01 +7.7344346627590213e+00 -2.4440327986000956e-01 -6.8433950145419516e+01 -6.3947458346862368e+03 +2.0345321700011863e+05 +1.8929104026976258e+07 
+6.4999999999999902e+00 -5.6230792188824819e-01 +7.7344496142180130e+00 -2.4759065875973818e-01 -6.8554335226920443e+01 -6.3401603985781403e+03 +2.0401988442283336e+05 +1.8705110049303878e+07 
+6.5999999999999899e+00 -5.6230825353733760e-01 +7.7344697515001437e+00 -2.5056413597561278e-01 -6.8824726445522103e+01 -6.2842967679671337e+03 +2.0548565548846169e+05 +1.8452745985345572e+07 
+6.6999999999999904e+00 -5.6230860525659254e-01 +7.7344950220130606e+00 -2.5334057080993677e-01 -6.9248698945187982e+01 -6.2266243166620789e+03 +2.0788130699386093e+05 +1.8167867946379874e+07 
+6.7999999999999901e+00 -5.6230897782511502e-01 +7.7345253731114036e+00 -2.5593680559885479e-01 -6.9829825912865587e+01 -6.1666127995115949e+03 +2.1123760304153376e+05 +1.7846334052899413e+07 
+6.8999999999999897e+00 -5.6230937202223918e-01 +7.7345607520954065e+00 -2.5836966531130451e-01 -7.0571678519496231e+01 -6.1037323598570356e+03 +2.1558529463499034e+05 +1.7484004470477827e+07 
+6.9999999999999902e+00 -5.6230978862735681e-01 +7.7346011062030202e+00 -2.6065595785608647e-01 -7.1477825643677903e+01 -6.0374535228613886e+03 +2.2095511832311653e+05 +1.7076741411297973e+07 
+7.0999999999999899e+00 -5.6231022820744614e-01 +7.7346462902436279e+00 -2.6276324334453527e-01 -7.2546914188844767e+01 -5.9682479586949075e+03 +2.2734558595784404e+05 +1.6625874144617492e+07 
+7.1999999999999904e+00 -5.6231069058964289e-01 +7.7346957060671224e+00 -2.6444168822668251e-01 -7.3755879634442948e+01 -5.9011521939414279e+03 +2.3461055697245771e+05 +1.6157782215223832e+07 
+7.2999999999999901e+00 -5.6231117544386722e-01 +7.7347486191601176e+00 -2.6538169366387282e-01 -7.5075627050772908e+01 -5.8424918109191040e+03 +2.4256314570138100e+05 +1.5705959800732037e+07 
+7.3999999999999897e+00 -5.6231168243993435e-01 +7.7348042949322826e+00 -2.6527366879065212e-01 -7.6477058427910265e+01 -5.7985923634599330e+03 +2.5101644181591834e+05 +1.5303901682382794e+07 
+7.4999999999999902e+00 -5.6231221124746122e-01 +7.7348619987184648e+00 -2.6380804339624492e-01 -7.7931072803969045e+01 -5.7757791204637551e+03 +2.5978351153917759e+05 +1.4985101946313342e+07 
+7.5999999999999899e+00 -5.6231276153601628e-01 +7.7349209957753882e+00 -2.6067525989834317e-01 -7.9408566153195977e+01 -5.7803772225319190e+03 +2.6867739680692280e+05 +1.4783054753601037e+07 
+7.6999999999999904e+00 -5.6231333297499686e-01 +7.7349805512831500e+00 -2.5556577419413373e-01 -8.0880431405320479e+01 -5.8187116709967049e+03 +2.7751111518743960e+05 +1.4731254314418957e+07 
+7.7999999999999901e+00 -5.6231392523372348e-01 +7.7350399303400206e+00 -2.4817006183836096e-01 -8.2317558262250444e+01 -5.8971072114008030e+03 +2.8609765857621370e+05 +1.4863194347584376e+07 
+7.8999999999999897e+00 -5.6231453798125897e-01 +7.7350983979593240e+00 -2.3817861597039960e-01 -8.3690833093274904e+01 -6.0218883771692699e+03 +2.9424999241422745e+05 +1.5212368313593896e+07 
+7.9999999999999902e+00 -5.6231517088660221e-01 +7.7351552190726531e+00 -2.2528194454684181e-01 -8.4971139080723574e+01 -6.1993795567642055e+03 +3.0178105575204233e+05 +1.5812269724775752e+07 
+8.0999999999999908e+00 -5.6231582272057701e-01 +7.7352097161983568e+00 -2.0936257594246857e-01 -8.6134880473949664e+01 -6.4324715346179100e+03 +3.0853982561207627e+05 +1.6680247677782763e+07 
+8.1999999999999904e+00 -5.6231648855925842e-01 +7.7352616318270790e+00 -1.9109003401076255e-01 -8.7184510626252319e+01 -6.7096993428369606e+03 +3.1454440389531775e+05 +1.7765483440206625e+07 
+8.2999999999999901e+00 -5.6231716252138586e-01 +7.7353108640937327e+00 -1.7133712773101162e-01 -8.8130129005505182e+01 -7.0158162633214579e+03 +3.1986230193767452e+05 +1.8999014676694978e+07 
+8.3999999999999897e+00 -5.6231783872541319e-01 +7.7353573114471947e+00 -1.5097670516181977e-01 -8.8981845890113377e+01 -7.3355745381647448e+03 +3.2456110343698139e+05 +2.0311872659568984e+07 
+8.4999999999999893e+00 -5.6231851128961163e-01 +7.7354008726421215e+00 -1.3088164870361896e-01 -8.9749782025656543e+01 -7.6537254887939662e+03 +3.2870846189183841e+05 +2.1635082951889269e+07 
+8.5999999999999908e+00 -5.6231917433193113e-01 +7.7354414467444812e+00 -1.1192487841387511e-01 -9.0444068827426378e+01 -7.9550194451259003e+03 +3.3237210203584679e+05 +2.2899665030695949e+07 
+8.6999999999999904e+00 -5.6231982197013020e-01 +7.7354789331428320e+00 -9.4979349706179023e-02 -9.1074848770378679e+01 -8.2242057833299787e+03 +3.3561982243632141e+05 +2.4036632430767942e+07 
+8.7999999999999794e+00 -5.6232044832168016e-01 +7.7355132315592607e+00 -8.0918055386907911e-02 -9.1652275749356662e+01 -8.4460328738379849e+03 +3.3851949784529954e+05 +2.4976992442312714e+07 
+8.8999999999999808e+00 -5.6232104750373924e-01 +7.7355442420575162e+00 -7.0614028842244631e-02 -9.2186515372986406e+01 -8.6052480163697346e+03 +3.4113908123380289e+05 +2.5651745772238627e+07 
+8.9999999999999805e+00 -5.6232161363326116e-01 +7.7355718650565253e+00 -6.4940339772891265e-02 -9.2687745259282877e+01 -8.6865974985097473e+03 +3.4354660645356803e+05 +2.5991886821255762e+07 
+9.0999999999999801e+00 -5.6232214259871316e-01 +7.7355960916962054e+00 -6.4503267399961761e-02 -9.3164595648335478e+01 -8.6794025462998270e+03 +3.4580170916626608e+05 +2.5948707988618981e+07 
+9.1999999999999797e+00 -5.6232263754797851e-01 +7.7356170496058150e+00 -6.8821131974568267e-02 -9.3615579007714132e+01 -8.5919083038718927e+03 +3.4791211270769616e+05 +2.5557825841345638e+07 
+9.2999999999999794e+00 -5.6232310349933712e-01 +7.7356348412539280e+00 -7.7132471025769880e-02 -9.4035581416842007e+01 -8.4372973833987980e+03 +3.4986749454588868e+05 +2.4876965397854879e+07 
+9.3999999999999808e+00 -5.6232354547141938e-01 +7.7356495688712332e+00 -8.8675757920013878e-02 -9.4419481268636304e+01 -8.2287540391273287e+03 +3.5165748542568565e+05 +2.3963861174151111e+07 
+9.4999999999999805e+00 -5.6232396848318733e-01 +7.7356613344608798e+00 -1.0268941062432156e-01 -9.4762149575899286e+01 -7.9794639799612260e+03 +3.5327167050898040e+05 +2.2876256301754717e+07 
+9.5999999999999801e+00 -5.6232437755392006e-01 +7.7356702398011690e+00 -1.1841178648687226e-01 -9.5058450033361666e+01 -7.7026144772099215e+03 +3.5469958966599242e+05 +2.1671903080916356e+07 
+9.6999999999999797e+00 -5.6232477770335221e-01 +7.7356763864304359e+00 -1.3508118902221319e-01 -9.5303238538668353e+01 -7.4113942483794062e+03 +3.5593073456219508e+05 +2.0408562480110925e+07 
+9.7999999999999794e+00 -5.6232517395148096e-01 +7.7356798756457268e+00 -1.5193585646264984e-01 -9.5491363149347180e+01 -7.1189936850658742e+03 +3.5695454836854519e+05 +1.9144005263462778e+07 
+9.8999999999999808e+00 -5.6232557131874994e-01 +7.7356808084940152e+00 -1.6821396654421861e-01 -9.5617663788512886e+01 -6.8386047741127077e+03 +3.5776042392978113e+05 +1.7936011667416800e+07 
+9.9999999999999805e+00 -5.6232597482597524e-01 +7.7356792857621981e+00 -1.8315363198194304e-01 -9.5676971923161545e+01 -6.5834211929885214e+03 +3.5833770046544890e+05 +1.6842371779770166e+07 
+1.0100000000000000e+01 -5.6232638873860352e-01 +7.7356753962252380e+00 -1.9611708221278767e-01 -9.5664662450116666e+01 -6.3644321429252359e+03 +3.5866876834289922e+05 +1.5910977750106744e+07 
