# trajectory
# s[mm] rx[mm] ry[mm] rz[mm] px[rad] py[rad] pz[rad]
0.0000000000000000e+00 +7.9199999999999999e+00 +0.0000000000000000e+00 +0.0000000000000000e+00 +0.0000000000000000e+00 +0.0000000000000000e+00 +1.0000000000000000e+00
1.0000000000000001e-01 +7.9199997168967871e+00 +0.0000000000000000e+00 +9.9999999999465669e-02 -5.6620641226591403e-06 +0.0000000000000000e+00 +9.9999999998397049e-01
2.0000000000000001e-01 +7.9199988675871991e+00 +0.0000000000000000e+00 +1.9999999999572546e-01 -1.1324127513608788e-05 +0.0000000000000000e+00 +9.9999999993588207e-01
3.0000000000000004e-01 +7.9199974520713061e+00 +0.0000000000000000e+00 +2.9999999998557347e-01 -1.6986190229254322e-05 +0.0000000000000000e+00 +9.9999999985573462e-01
4.0000000000000002e-01 +7.9199954703491731e+00 +0.0000000000000000e+00 +3.9999999996580377e-01 -2.2648252325177056e-05 +0.0000000000000000e+00 +9.9999999974352827e-01
5.0000000000000000e-01 +7.9199929224208594e+00 +0.0000000000000000e+00 +4.9999999993321048e-01 -2.8310313856134148e-05 +0.0000000000000000e+00 +9.9999999959926300e-01
5.9999999999999998e-01 +7.9199898082864184e+00 +0.0000000000000000e+00 +5.9999999988458774e-01 -3.3972374876058526e-05 +0.0000000000000000e+00 +9.9999999942293882e-01
6.9999999999999996e-01 +7.9199861279458990e+00 +0.0000000000000000e+00 +6.9999999981672967e-01 -3.9634435438058840e-05 +0.0000000000000000e+00 +9.9999999921455573e-01
7.9999999999999993e-01 +7.9199818813993446e+00 +0.0000000000000000e+00 +7.9999999972643032e-01 -4.5296495594419400e-05 +0.0000000000000000e+00 +9.9999999897411374e-01
8.9999999999999991e-01 +7.9199770686467925e+00 +0.0000000000000000e+00 +8.9999999961048383e-01 -5.0958555396600166e-05 +0.0000000000000000e+00 +9.9999999870161282e-01
9.9999999999999989e-01 +7.9199716896882757e+00 +0.0000000000000000e+00 +9.9999999946568430e-01 -5.6620614895236735e-05 +0.0000000000000000e+00 +9.9999999839705300e-01
1.0999999999999999e+00 +7.9199657445238216e+00 +0.0000000000000000e+00 +1.0999999992888259e+00 -6.2282674140140369e-05 +0.0000000000000000e+00 +9.9999999806043427e-01
1.2000000000000000e+00 +7.9199592331534543e+00 +0.0000000000000000e+00 +1.1999999990767025e+00 -6.7944733180297967e-05 +0.0000000000000000e+00 +9.9999999769175663e-01
1.3000000000000000e+00 +7.9199521555771906e+00 +0.0000000000000000e+00 +1.2999999988261086e+00 -7.3606792063872172e-05 +0.0000000000000000e+00 +9.9999999729102007e-01
1.4000000000000001e+00 +7.9199445117950447e+00 +0.0000000000000000e+00 +1.3999999985338381e+00 -7.9268850838201368e-05 +0.0000000000000000e+00 +9.9999999685822460e-01
1.5000000000000002e+00 +7.9199363018070246e+00 +0.0000000000000000e+00 +1.4999999981966849e+00 -8.4930909549799804e-05 +0.0000000000000000e+00 +9.9999999639337023e-01
1.6000000000000003e+00 +7.9199275256131347e+00 +0.0000000000000000e+00 +1.5999999978114434e+00 -9.0592968244357632e-05 +0.0000000000000000e+00 +9.9999999589645694e-01
1.7000000000000004e+00 +7.9199181832133743e+00 +0.0000000000000000e+00 +1.6999999973749076e+00 -9.6255026966741075e-05 +0.0000000000000000e+00 +9.9999999536748474e-01
1.8000000000000005e+00 +7.9199082746077387e+00 +0.0000000000000000e+00 +1.7999999968838716e+00 -1.0191708576099248e-04 +0.0000000000000000e+00 +9.9999999480645363e-01
1.9000000000000006e+00 +7.9198977997962183e+00 +0.0000000000000000e+00 +1.8999999963351295e+00 -1.0757914467033053e-04 +0.0000000000000000e+00 +9.9999999421336361e-01
2.0000000000000004e+00 +7.9198867587787998e+00 +0.0000000000000000e+00 +1.9999999957254755e+00 -1.1324120373715033e-04 +0.0000000000000000e+00 +9.9999999358821468e-01
2.1000000000000005e+00 +7.9198751515554644e+00 +0.0000000000000000e+00 +2.0999999950517036e+00 -1.1890326300293919e-04 +0.0000000000000000e+00 +9.9999999293100683e-01
2.2000000000000006e+00 +7.9198629781261909e+00 +0.0000000000000000e+00 +2.1999999943106081e+00 -1.2456532250734820e-04 +0.0000000000000000e+00 +9.9999999224173997e-01
2.3000000000000007e+00 +7.9198502384909535e+00 +0.0000000000000000e+00 +2.2999999934989828e+00 -1.3022738228726371e-04 +0.0000000000000000e+00 +9.9999999152041419e-01
2.4000000000000008e+00 +7.9198369326497229e+00 +0.0000000000000000e+00 +2.3999999926136222e+00 -1.3588944237672297e-04 +0.0000000000000000e+00 +9.9999999076702950e-01
2.5000000000000009e+00 +7.9198230606024671e+00 +0.0000000000000000e+00 +2.4999999916513200e+00 -1.4155150280691428e-04 +0.0000000000000000e+00 +9.9999998998158579e-01
2.6000000000000010e+00 +7.9198086223491497e+00 +0.0000000000000000e+00 +2.5999999906088704e+00 -1.4721356360617710e-04 +0.0000000000000000e+00 +9.9999998916408306e-01
2.7000000000000011e+00 +7.9197936178897326e+00 +0.0000000000000000e+00 +2.6999999894830680e+00 -1.5287562480000206e-04 +0.0000000000000000e+00 +9.9999998831452142e-01
2.8000000000000012e+00 +7.9197780472241757e+00 +0.0000000000000000e+00 +2.7999999882707063e+00 -1.5853768641103114e-04 +0.0000000000000000e+00 +9.9999998743290075e-01
2.9000000000000012e+00 +7.9197619103524355e+00 +0.0000000000000000e+00 +2.8999999869685795e+00 -1.6419974845905772e-04 +0.0000000000000000e+00 +9.9999998651922106e-01
3.0000000000000013e+00 +7.9197452072744685e+00 +0.0000000000000000e+00 +2.9999999855734818e+00 -1.6986181096102673e-04 +0.0000000000000000e+00 +9.9999998557348235e-01
3.1000000000000014e+00 +7.9197279379902277e+00 +0.0000000000000000e+00 +3.0999999840822072e+00 -1.7552387393103476e-04 +0.0000000000000000e+00 +9.9999998459568462e-01
3.2000000000000015e+00 +7.9197101024996659e+00 +0.0000000000000000e+00 +3.1999999824915499e+00 -1.8118593738033014e-04 +0.0000000000000000e+00 +9.9999998358582787e-01
3.3000000000000016e+00 +7.9196917008027352e+00 +0.0000000000000000e+00 +3.2999999807983040e+00 -1.8684800131731305e-04 +0.0000000000000000e+00 +9.9999998254391198e-01
3.4000000000000017e+00 +7.9196727328993859e+00 +0.0000000000000000e+00 +3.3999999789992637e+00 -1.9251006574753566e-04 +0.0000000000000000e+00 +9.9999998146993707e-01
3.5000000000000018e+00 +7.9196531987895691e+00 +0.0000000000000000e+00 +3.4999999770912229e+00 -1.9817213067370226e-04 +0.0000000000000000e+00 +9.9999998036390303e-01
3.6000000000000019e+00 +7.9196330984732350e+00 +0.0000000000000000e+00 +3.5999999750709759e+00 -2.0383419609566937e-04 +0.0000000000000000e+00 +9.9999997922580997e-01
3.7000000000000020e+00 +7.9196124319503340e+00 +0.0000000000000000e+00 +3.6999999729353164e+00 -2.0949626201044583e-04 +0.0000000000000000e+00 +9.9999997805565777e-01
3.8000000000000020e+00 +7.9195911992208172e+00 +0.0000000000000000e+00 +3.7999999706810388e+00 -2.1515832841219299e-04 +0.0000000000000000e+00 +9.9999997685344655e-01
3.9000000000000021e+00 +7.9195694002846357e+00 +0.0000000000000000e+00 +3.8999999683049369e+00 -2.2082039529222481e-04 +0.0000000000000000e+00 +9.9999997561917620e-01
4.0000000000000018e+00 +7.9195470351417434e+00 +0.0000000000000000e+00 +3.9999999658038052e+00 -2.2648246263900799e-04 +0.0000000000000000e+00 +9.9999997435284671e-01
4.1000000000000014e+00 +7.9195241037920932e+00 +0.0000000000000000e+00 +4.0999999631744375e+00 -2.3214453043873121e-04 +0.0000000000000000e+00 +9.9999997305445809e-01
4.2000000000000011e+00 +7.9195006062356406e+00 +0.0000000000000000e+00 +4.1999999604136278e+00 -2.3780659868156571e-04 +0.0000000000000000e+00 +9.9999997172401034e-01
4.3000000000000007e+00 +7.9194765424723421e+00 +0.0000000000000000e+00 +4.2999999575181702e+00 -2.4346866736792559e-04 +0.0000000000000000e+00 +9.9999997036150345e-01
4.4000000000000004e+00 +7.9194519125021525e+00 +0.0000000000000000e+00 +4.3999999544848594e+00 -2.4913073650903683e-04 +0.0000000000000000e+00 +9.9999996896693744e-01
4.5000000000000000e+00 +7.9194267163250247e+00 +0.0000000000000000e+00 +4.4999999513104889e+00 -2.5479280612693717e-04 +0.0000000000000000e+00 +9.9999996754031228e-01
4.5999999999999996e+00 +7.9194009539409098e+00 +0.0000000000000000e+00 +4.5999999479918534e+00 -2.6045487625447590e-04 +0.0000000000000000e+00 +9.9999996608162800e-01
4.6999999999999993e+00 +7.9193746253497554e+00 +0.0000000000000000e+00 +4.6999999445257465e+00 -2.6611694693531363e-04 +0.0000000000000000e+00 +9.9999996459088447e-01
4.7999999999999989e+00 +7.9193477305515030e+00 +0.0000000000000000e+00 +4.7999999409089620e+00 -2.7177901822392214e-04 +0.0000000000000000e+00 +9.9999996306808181e-01
4.8999999999999986e+00 +7.9193202695460885e+00 +0.0000000000000000e+00 +4.8999999371382943e+00 -2.7744109018558422e-04 +0.0000000000000000e+00 +9.9999996151321990e-01
4.9999999999999982e+00 +7.9192922423334409e+00 +0.0000000000000000e+00 +4.9999999332105372e+00 -2.8310316289639336e-04 +0.0000000000000000e+00 +9.9999995992629864e-01
5.0999999999999979e+00 +7.9192636489134811e+00 +0.0000000000000000e+00 +5.0999999291224851e+00 -2.8876523644325350e-04 +0.0000000000000000e+00 +9.9999995830731814e-01
5.1999999999999975e+00 +7.9192344892861213e+00 +0.0000000000000000e+00 +5.1999999248709319e+00 -2.9442731092387887e-04 +0.0000000000000000e+00 +9.9999995665627828e-01
5.2999999999999972e+00 +7.9192047634512619e+00 +0.0000000000000000e+00 +5.2999999204526720e+00 -3.0008938644679358e-04 +0.0000000000000000e+00 +9.9999995497317895e-01
5.3999999999999968e+00 +7.9191744714087928e+00 +0.0000000000000000e+00 +5.3999999158644991e+00 -3.0575146313133156e-04 +0.0000000000000000e+00 +9.9999995325802016e-01
5.4999999999999964e+00 +7.9191436131585924e+00 +0.0000000000000000e+00 +5.4999999111032070e+00 -3.1141354110763604e-04 +0.0000000000000000e+00 +9.9999995151080190e-01
5.5999999999999961e+00 +7.9191121887005238e+00 +0.0000000000000000e+00 +5.5999999061655901e+00 -3.1707562051665932e-04 +0.0000000000000000e+00 +9.9999994973152406e-01
5.6999999999999957e+00 +7.9190801980344361e+00 +0.0000000000000000e+00 +5.6999999010484430e+00 -3.2273770151016248e-04 +0.0000000000000000e+00 +9.9999994792018654e-01
5.7999999999999954e+00 +7.9190476411601631e+00 +0.0000000000000000e+00 +5.7999998957485586e+00 -3.2839978425071509e-04 +0.0000000000000000e+00 +9.9999994607678933e-01
5.8999999999999950e+00 +7.9190145180775220e+00 +0.0000000000000000e+00 +5.8999998902627322e+00 -3.3406186891169468e-04 +0.0000000000000000e+00 +9.9999994420133220e-01
5.9999999999999947e+00 +7.9189808287863110e+00 +0.0000000000000000e+00 +5.9999998845877567e+00 -3.3972395567728649e-04 +0.0000000000000000e+00 +9.9999994229381517e-01
6.0999999999999943e+00 +7.9189465732863100e+00 +0.0000000000000000e+00 +6.0999998787204266e+00 -3.4538604474138691e-04 +0.0000000000000000e+00 +9.9999994035423811e-01
6.1999999999999940e+00 +7.9189117515772800e+00 +0.0000000000000000e+00 +6.1999998726575356e+00 -3.5104813629554393e-04 +0.0000000000000000e+00 +9.9999993838260093e-01
6.2999999999999936e+00 +7.9188763636589625e+00 +0.0000000000000000e+00 +6.2999998663958783e+00 -3.5671023051689793e-04 +0.0000000000000000e+00 +9.9999993637890350e-01
6.3999999999999932e+00 +7.9188404095310823e+00 +0.0000000000000000e+00 +6.3999998599322483e+00 -3.6237232756708556e-04 +0.0000000000000000e+00 +9.9999993434314571e-01
6.4999999999999929e+00 +7.9188038891933497e+00 +0.0000000000000000e+00 +6.4999998532634393e+00 -3.6803442759223982e-04 +0.0000000000000000e+00 +9.9999993227532757e-01
6.5999999999999925e+00 +7.9187668026454601e+00 +0.0000000000000000e+00 +6.5999998463862450e+00 -3.7369653072299005e-04 +0.0000000000000000e+00 +9.9999993017544886e-01
6.6999999999999922e+00 +7.9187291498870973e+00 +0.0000000000000000e+00 +6.6999998392974600e+00 -3.7935863707446219e-04 +0.0000000000000000e+00 +9.9999992804350946e-01
6.7999999999999918e+00 +7.9186909309179345e+00 +0.0000000000000000e+00 +6.7999998319938779e+00 -3.8502074674627871e-04 +0.0000000000000000e+00 +9.9999992587950937e-01
6.8999999999999915e+00 +7.9186521457376351e+00 +0.0000000000000000e+00 +6.8999998244722933e+00 -3.9068285982255885e-04 +0.0000000000000000e+00 +9.9999992368344848e-01
6.9999999999999911e+00 +7.9186127943458544e+00 +0.0000000000000000e+00 +6.9999998167294990e+00 -3.9634497637191867e-04 +0.0000000000000000e+00 +9.9999992145532668e-01
7.0999999999999908e+00 +7.9185728767422434e+00 +0.0000000000000000e+00 +7.0999998087622895e+00 -4.0200709644747117e-04 +0.0000000000000000e+00 +9.9999991919514386e-01
7.1999999999999904e+00 +7.9185323929264468e+00 +0.0000000000000000e+00 +7.1999998005674586e+00 -4.0766922008682641e-04 +0.0000000000000000e+00 +9.9999991690290002e-01
7.2999999999999901e+00 +7.9184913428981067e+00 +0.0000000000000000e+00 +7.2999997921418007e+00 -4.1333134731209176e-04 +0.0000000000000000e+00 +9.9999991457859494e-01
7.3999999999999897e+00 +7.9184497266568643e+00 +0.0000000000000000e+00 +7.3999997834821087e+00 -4.1899347812987179e-04 +0.0000000000000000e+00 +9.9999991222222873e-01
7.4999999999999893e+00 +7.9184075442023607e+00 +0.0000000000000000e+00 +7.4999997745851772e+00 -4.2465561253126867e-04 +0.0000000000000000e+00 +9.9999990983380127e-01
7.5999999999999890e+00 +7.9183647955342389e+00 +0.0000000000000000e+00 +7.5999997654477998e+00 -4.3031775049188217e-04 +0.0000000000000000e+00 +9.9999990741331246e-01
7.6999999999999886e+00 +7.9183214806521445e+00 +0.0000000000000000e+00 +7.6999997560667710e+00 -4.3597989197180986e-04 +0.0000000000000000e+00 +9.9999990496076230e-01
7.7999999999999883e+00 +7.9182775995557284e+00 +0.0000000000000000e+00 +7.7999997464388837e+00 -4.4164203691564731e-04 +0.0000000000000000e+00 +9.9999990247615078e-01
7.8999999999999879e+00 +7.9182331522446479e+00 +0.0000000000000000e+00 +7.8999997365609325e+00 -4.4730418525248814e-04 +0.0000000000000000e+00 +9.9999989995947780e-01
7.9999999999999876e+00 +7.9181881387185680e+00 +0.0000000000000000e+00 +7.9999997264297109e+00 -4.5296633689592426e-04 +0.0000000000000000e+00 +9.9999989741074347e-01
8.0999999999999872e+00 +7.9181425589771619e+00 +0.0000000000000000e+00 +8.0999997160420119e+00 -4.5862849174505991e-04 +0.0000000000000000e+00 +9.9999989482994767e-01
8.1999999999999869e+00 +7.9180964130201152e+00 +0.0000000000000000e+00 +8.1999997053946316e+00 -4.6429064969566344e-04 +0.0000000000000000e+00 +9.9999989221709040e-01
8.2999999999999865e+00 +7.9180497008471225e+00 +0.0000000000000000e+00 +8.2999996944843613e+00 -4.6995281065131917e-04 +0.0000000000000000e+00 +9.9999988957217167e-01
8.3999999999999861e+00 +7.9180024224578878e+00 +0.0000000000000000e+00 +8.3999996833079962e+00 -4.7561497452444114e-04 +0.0000000000000000e+00 +9.9999988689519148e-01
8.4999999999999858e+00 +7.9179545778521234e+00 +0.0000000000000000e+00 +8.4999996718623301e+00 -4.8127714123627296e-04 +0.0000000000000000e+00 +9.9999988418614982e-01
8.5999999999999854e+00 +7.9179061670295487e+00 +0.0000000000000000e+00 +8.5999996601441566e+00 -4.8693931071688764e-04 +0.0000000000000000e+00 +9.9999988144504670e-01
8.6999999999999851e+00 +7.9178571899898902e+00 +0.0000000000000000e+00 +8.6999996481502695e+00 -4.9260148290518758e-04 +0.0000000000000000e+00 +9.9999987867188200e-01
8.7999999999999847e+00 +7.9178076467328795e+00 +0.0000000000000000e+00 +8.7999996358774641e+00 -4.9826365774890437e-04 +0.0000000000000000e+00 +9.9999987586665584e-01
8.8999999999999844e+00 +7.9177575372582538e+00 +0.0000000000000000e+00 +8.8999996233225325e+00 -5.0392583520459853e-04 +0.0000000000000000e+00 +9.9999987302936810e-01
8.9999999999999840e+00 +7.9177068615657529e+00 +0.0000000000000000e+00 +8.9999996104822682e+00 -5.0958801523765971e-04 +0.0000000000000000e+00 +9.9999987016001879e-01
9.0999999999999837e+00 +7.9176556196551209e+00 +0.0000000000000000e+00 +9.0999995973534666e+00 -5.1525019782230636e-04 +0.0000000000000000e+00 +9.9999986725860790e-01
9.1999999999999833e+00 +7.9176038115261038e+00 +0.0000000000000000e+00 +9.1999995839329216e+00 -5.2091238294158556e-04 +0.0000000000000000e+00 +9.9999986432513532e-01
9.2999999999999829e+00 +7.9175514371784486e+00 +0.0000000000000000e+00 +9.2999995702174250e+00 -5.2657457058737285e-04 +0.0000000000000000e+00 +9.9999986135960106e-01
9.3999999999999826e+00 +7.9174984966119020e+00 +0.0000000000000000e+00 +9.3999995562037721e+00 -5.3223676076037218e-04 +0.0000000000000000e+00 +9.9999985836200511e-01
9.4999999999999822e+00 +7.9174449898262118e+00 +0.0000000000000000e+00 +9.4999995418887568e+00 -5.3789895347011588e-04 +0.0000000000000000e+00 +9.9999985533234736e-01
9.5999999999999819e+00 +7.9173909168211232e+00 +0.0000000000000000e+00 +9.5999995272691727e+00 -5.4356114873496425e-04 +0.0000000000000000e+00 +9.9999985227062782e-01
9.6999999999999815e+00 +7.9173362775963794e+00 +0.0000000000000000e+00 +9.6999995123418135e+00 -5.4922334658210551e-04 +0.0000000000000000e+00 +9.9999984917684637e-01
9.7999999999999812e+00 +7.9172810721517202e+00 +0.0000000000000000e+00 +9.7999994971034727e+00 -5.5488554704755577e-04 +0.0000000000000000e+00 +9.9999984605100289e-01
9.8999999999999808e+00 +7.9172253004868818e+00 +0.0000000000000000e+00 +9.8999994815509442e+00 -5.6054775017615860e-04 +0.0000000000000000e+00 +9.9999984289309740e-01
9.9999999999999805e+00 +7.9171689626015951e+00 +0.0000000000000000e+00 +9.9999994656810234e+00 -5.6620995602158506e-04 +0.0000000000000000e+00 +9.9999983970312989e-01
1.0099999999999980e+01 +7.9171120584955847e+00 +0.0000000000000000e+00 +1.0099999449490502e+01 -5.7187216464594116e-04 +0.0000000000000000e+00 +9.9999983648110014e-01
1.0199999999999980e+01 +7.9170545881685710e+00 +0.0000000000000000e+00 +1.0199999432976174e+01 -5.7753437611545041e-04 +0.0000000000000000e+00 +9.9999983322700814e-01
1.0299999999999979e+01 +7.9169965516202652e+00 +0.0000000000000000e+00 +1.0299999416134835e+01 -5.8319659049613671e-04 +0.0000000000000000e+00 +9.9999982994085379e-01
1.0399999999999979e+01 +7.9169379488503724e+00 +0.0000000000000000e+00 +1.0399999398963276e+01 -5.8885880785343166e-04 +0.0000000000000000e+00 +9.9999982662263698e-01
1.0499999999999979e+01 +7.9168787798585925e+00 +0.0000000000000000e+00 +1.0499999381458293e+01 -5.9452102825217467e-04 +0.0000000000000000e+00 +9.9999982327235770e-01
1.0599999999999978e+01 +7.9168190446446181e+00 +0.0000000000000000e+00 +1.0599999363616678e+01 -6.0018325175661253e-04 +0.0000000000000000e+00 +9.9999981989001574e-01
1.0699999999999978e+01 +7.9167587432081357e+00 +0.0000000000000000e+00 +1.0699999345435227e+01 -6.0584547843039972e-04 +0.0000000000000000e+00 +9.9999981647561109e-01
1.0799999999999978e+01 +7.9166978755488246e+00 +0.0000000000000000e+00 +1.0799999326910733e+01 -6.1150770833659788e-04 +0.0000000000000000e+00 +9.9999981302914365e-01
1.0899999999999977e+01 +7.9166364416663590e+00 +0.0000000000000000e+00 +1.0899999308039988e+01 -6.1716994153767604e-04 +0.0000000000000000e+00 +9.9999980955061329e-01
1.0999999999999977e+01 +7.9165744415604058e+00 +0.0000000000000000e+00 +1.0999999288819787e+01 -6.2283217809551016e-04 +0.0000000000000000e+00 +9.9999980604001992e-01
1.1099999999999977e+01 +7.9165118752306265e+00 +0.0000000000000000e+00 +1.1099999269246924e+01 -6.2849441807138345e-04 +0.0000000000000000e+00 +9.9999980249736353e-01
1.1199999999999976e+01 +7.9164487426766756e+00 +0.0000000000000000e+00 +1.1199999249318191e+01 -6.3415666152598599e-04 +0.0000000000000000e+00 +9.9999979892264390e-01
1.1299999999999976e+01 +7.9163850438982033e+00 +0.0000000000000000e+00 +1.1299999229030384e+01 -6.3981890851941444e-04 +0.0000000000000000e+00 +9.9999979531586103e-01
1.1399999999999975e+01 +7.9163207788948524e+00 +0.0000000000000000e+00 +1.1399999208380295e+01 -6.4548115911117231e-04 +0.0000000000000000e+00 +9.9999979167701469e-01
1.1499999999999975e+01 +7.9162559476662597e+00 +0.0000000000000000e+00 +1.1499999187364718e+01 -6.5114341336016974e-04 +0.0000000000000000e+00 +9.9999978800610489e-01
1.1599999999999975e+01 +7.9161905502120566e+00 +0.0000000000000000e+00 +1.1599999165980448e+01 -6.5680567132472313e-04 +0.0000000000000000e+00 +9.9999978430313152e-01
1.1699999999999974e+01 +7.9161245865318692e+00 +0.0000000000000000e+00 +1.1699999144224275e+01 -6.6246793306255520e-04 +0.0000000000000000e+00 +9.9999978056809447e-01
1.1799999999999974e+01 +7.9160580566253165e+00 +0.0000000000000000e+00 +1.1799999122092997e+01 -6.6813019863079493e-04 +0.0000000000000000e+00 +9.9999977680099361e-01
