# multipoles
# s[mm] polynom_b[n=0][T/m^n] polynom_b[n=1][T/m^n] polynom_b[n=2][T/m^n] polynom_b[n=3][T/m^n] polynom_b[n=4][T/m^n] polynom_b[n=5][T/m^n] polynom_b[n=6][T/m^n] 
+0.0000000000000000e+00 -5.3680555102528038e-01 +7.3497183631224816e+00 -9.1643634742069380e-01 -7.2677644903012478e+01 +5.5926900829037868e+03 +1.8247910668011676e+05 -3.0384086746978793e+07 
+1.0000000000000001e-01 -5.3680552948576699e-01 +7.3496896867787163e+00 -9.0956269364816089e-01 -7.2354552717902550e+01 +5.5112040696748336e+03 +1.8091915100343979e+05 -3.0111168719217725e+07 
+2.0000000000000001e-01 -5.3680552427668293e-01 +7.3496571196415008e+00 -9.0278167765988748e-01 -7.1941589801632716e+01 +5.4364442565215495e+03 +1.7891895538507836e+05 -2.9881814132756598e+07 
+3.0000000000000004e-01 -5.3680553402298636e-01 +7.3496212274925554e+00 -8.9612350352602999e-01 -7.1450166200774106e+01 +5.3683052194996089e+03 +1.7653287446406716e+05 -2.9693767858536061e+07 
+4.0000000000000002e-01 -5.3680555734963287e-01 +7.3495825761161004e+00 -8.8961837463130755e-01 -7.0891692061737686e+01 +5.3066815129040469e+03 +1.7381526355901809e+05 -2.9544774640364677e+07 
+5.0000000000000000e-01 -5.3680559288155716e-01 +7.3495417312958571e+00 -8.8329649762868234e-01 -7.0277577540030151e+01 +5.2514677566517248e+03 +1.7082047813750239e+05 -2.9432579543626692e+07 
+5.9999999999999998e-01 -5.3680563924370872e-01 +7.3494992588123260e+00 -8.7718807707808666e-01 -6.9619232710409619e+01 +5.2025585266236349e+03 +1.6760287323315654e+05 -2.9354927410705019e+07 
+6.9999999999999996e-01 -5.3680569506102915e-01 +7.3494557244513352e+00 -8.7132331870285362e-01 -6.8928067812367289e+01 +5.1598484209874969e+03 +1.6421680486299950e+05 -2.9309563190602191e+07 
+7.9999999999999993e-01 -5.3680575895844340e-01 +7.3494116939982197e+00 -8.6573243038573489e-01 -6.8215493062590070e+01 +5.1232320781900371e+03 +1.6071662886485943e+05 -2.9294232019190736e+07 
+8.9999999999999991e-01 -5.3680582956093059e-01 +7.3493677332414116e+00 -8.6044561436172429e-01 -6.7492918772957964e+01 +5.0926040354509869e+03 +1.5715670160823016e+05 -2.9306678565632805e+07 
+9.9999999999999989e-01 -5.3680590549344409e-01 +7.3493244079727464e+00 -8.5549307622274473e-01 -6.6771755323224710e+01 +5.0678588938803887e+03 +1.5359137972782282e+05 -2.9344647800692730e+07 
+1.0999999999999999e+00 -5.3680598538097590e-01 +7.3492822839881988e+00 -8.5090501788990769e-01 -6.6063413208896250e+01 +5.0488911924691329e+03 +1.5007502045175916e+05 -2.9405884417967990e+07 
+1.2000000000000000e+00 -5.3680606784852425e-01 +7.3492419270910849e+00 -8.4671164127804899e-01 -6.5379303092029730e+01 +5.0355954734202323e+03 +1.4666198177216281e+05 -2.9488133131482519e+07 
+1.3000000000000000e+00 -5.3680615152112565e-01 +7.3492039030852006e+00 -8.4294314468182885e-01 -6.4730835622769320e+01 +5.0278662181432328e+03 +1.4340662145100758e+05 -2.9589138384297214e+07 
+1.4000000000000001e+00 -5.3680623502382807e-01 +7.3491687777868204e+00 -8.3962972605727637e-01 -6.4129421767539966e+01 +5.0255979087529349e+03 +1.4036329885415261e+05 -2.9706644638809435e+07 
+1.5000000000000002e+00 -5.3680631698174253e-01 +7.3491371170142283e+00 -8.3680157719909132e-01 -6.3586472493522614e+01 +5.0286849211609024e+03 +1.3758637307660695e+05 -2.9838395875966329e+07 
+1.6000000000000003e+00 -5.3680639601997882e-01 +7.3491094865968263e+00 -8.3448889167660267e-01 -6.3113399041854379e+01 +5.0370216758945371e+03 +1.3513020453549206e+05 -2.9982136314694334e+07 
+1.7000000000000004e+00 -5.3680647076371724e-01 +7.3490864523727213e+00 -8.3272185541081134e-01 -6.2721612830615676e+01 +5.0505024566766060e+03 +1.3304915432245296e+05 -3.0135609540685855e+07 
+1.8000000000000005e+00 -5.3680653983818549e-01 +7.3490685801903055e+00 -8.3153065127173198e-01 -6.2422525505386062e+01 +5.0690215075258538e+03 +1.3139758448983519e+05 -3.0296558994191792e+07 
+1.9000000000000006e+00 -5.3680660186864582e-01 +7.3490564359058226e+00 -8.3094545877701143e-01 -6.2227548862729137e+01 +5.0924730172952304e+03 +1.3022985758576791e+05 -3.0462727871367335e+07 
+2.0000000000000004e+00 -5.3680665548041162e-01 +7.3490505853882144e+00 -8.3099645408560074e-01 -6.2148094974772818e+01 +5.1207511304168866e+03 +1.2960033730803966e+05 -3.0631859201741014e+07 
+2.1000000000000005e+00 -5.3680669971015937e-01 +7.3490513957039774e+00 -8.3169755881273244e-01 -6.2191794226586595e+01 +5.1536511625871271e+03 +1.2954581164388507e+05 -3.0801791445080023e+07 
+2.2000000000000006e+00 -5.3680673523164824e-01 +7.3490584445208507e+00 -8.3299616273862631e-01 -6.2351390101874365e+01 +5.1905459156798488e+03 +1.3003441130050427e+05 -3.0970626268925171e+07 
+2.3000000000000007e+00 -5.3680676312593190e-01 +7.3490711135924638e+00 -8.3482263352610586e-01 -6.2615964378167519e+01 +5.2306956626856618e+03 +1.3101751498194784e+05 -3.1136501442430463e+07 
+2.4000000000000008e+00 -5.3680678447403696e-01 +7.3490887846636035e+00 -8.3710734212844828e-01 -6.2974598589125307e+01 +5.2733607371998232e+03 +1.3244650002603425e+05 -3.1297555018766478e+07 
+2.5000000000000009e+00 -5.3680680035698802e-01 +7.3491108394825524e+00 -8.3978065817645153e-01 -6.3416374373470482e+01 +5.3178014376402816e+03 +1.3427274441724090e+05 -3.1451924861153662e+07 
+2.6000000000000010e+00 -5.3680681185579304e-01 +7.3491366597859527e+00 -8.4277295201031666e-01 -6.3930373034785106e+01 +5.3632780655942934e+03 +1.3644762424054104e+05 -3.1597748822861746e+07 
+2.7000000000000011e+00 -5.3680682005141533e-01 +7.3491656273089108e+00 -8.4601459834096049e-01 -6.4505675850588304e+01 +5.4090509973401249e+03 +1.3892251552919371e+05 -3.1733165094328832e+07 
+2.8000000000000012e+00 -5.3680682602479890e-01 +7.3491971237768414e+00 -8.4943597255567305e-01 -6.5131363830049708e+01 +5.4543806085565338e+03 +1.4164879285728448e+05 -3.1856311831337538e+07 
+2.9000000000000012e+00 -5.3680683085686798e-01 +7.3492305309117079e+00 -8.5296745029297272e-01 -6.5796517903270896e+01 +5.4985272659743996e+03 +1.4457783046944818e+05 -3.1965327116687123e+07 
+3.0000000000000013e+00 -5.3680683562848530e-01 +7.3492652304219028e+00 -8.5653941309701243e-01 -6.6490218639064295e+01 +5.5407514352191793e+03 +1.4766100068771548e+05 -3.2058349473065548e+07 
+3.1000000000000014e+00 -5.3680684142049040e-01 +7.3493006040112103e+00 -8.6008224273390710e-01 -6.7201546488397312e+01 +5.5803135669444200e+03 +1.5084967529262666e+05 -3.2133517307097465e+07 
+3.2000000000000015e+00 -5.3680684931366529e-01 +7.3493360333690427e+00 -8.6352632566614962e-01 -6.7919581535661393e+01 +5.6164741840221022e+03 +1.5409522418418707e+05 -3.2188969330092076e+07 
+3.3000000000000016e+00 -5.3680686038875391e-01 +7.3493709001758738e+00 -8.6680205046685876e-01 -6.8633403633675314e+01 +5.6484938309395156e+03 +1.5734901611754202e+05 -3.2222844314987749e+07 
+3.4000000000000017e+00 -5.3680687572643615e-01 +7.3494045860988653e+00 -8.6983981049612003e-01 -6.9332092294988598e+01 +5.6756331210513126e+03 +1.6056241812696296e+05 -3.2233281311410766e+07 
+3.5000000000000018e+00 -5.3680689640734613e-01 +7.3494364727924886e+00 -8.7257000193230028e-01 -7.0004726712909829e+01 +5.6971527006671367e+03 +1.6368679567836915e+05 -3.2218419479073767e+07 
+3.6000000000000019e+00 -5.3680692351204451e-01 +7.3494659418954793e+00 -8.7492302649159592e-01 -7.0640385676196786e+01 +5.7123132962447789e+03 +1.6667351218705109e+05 -3.2176398301343076e+07 
+3.7000000000000020e+00 -5.3680695812102686e-01 +7.3494923750344832e+00 -8.7682929000118870e-01 -7.1228147673557828e+01 +5.7203756848831454e+03 +1.6947392963496372e+05 -3.2105357439348385e+07 
+3.8000000000000020e+00 -5.3680700131472348e-01 +7.3495151538150481e+00 -8.7821920345967641e-01 -7.1757090650949877e+01 +5.7206007199988881e+03 +1.7203940722430809e+05 -3.2003436868675590e+07 
+3.9000000000000021e+00 -5.3680705417347785e-01 +7.3495336598318026e+00 -8.7902318393779222e-01 -7.2216292293452881e+01 +5.7122493390315531e+03 +1.7432130298976961e+05 -3.1868776892316207e+07 
+4.0000000000000018e+00 -5.3680711777758172e-01 +7.3495472746566355e+00 -8.7917165087914462e-01 -7.2594829699622423e+01 +5.6945824949810731e+03 +1.7627097197358092e+05 -3.1699517819735065e+07 
+4.1000000000000014e+00 -5.3680719288436107e-01 +7.3495555420437686e+00 -8.7861632076978236e-01 -7.2884692258515187e+01 +5.6671411198599362e+03 +1.7785267053175558e+05 -3.1494784717285272e+07 
+4.2000000000000011e+00 -5.3680727896741309e-01 +7.3495586530677697e+00 -8.7739736866087936e-01 -7.3089373147962064e+01 +5.6306419283871210e+03 +1.7908105729542000e+05 -3.1257875766339798e+07 
+4.3000000000000007e+00 -5.3680737518123789e-01 +7.3495569603936053e+00 -8.7557792409297386e-01 -7.3215205851220034e+01 +5.5861097689370963e+03 +1.7998309033932566e+05 -3.0993191156832956e+07 
+4.4000000000000004e+00 -5.3680748068032980e-01 +7.3495508166922008e+00 -8.7322111864816787e-01 -7.3268524031219272e+01 +5.5345695420844322e+03 +1.8058572887425445e+05 -3.0705131365820833e+07 
+4.5000000000000000e+00 -5.3680759461920802e-01 +7.3495405746380946e+00 -8.7039008151452313e-01 -7.3255661477879087e+01 +5.4770461133096896e+03 +1.8091593298606295e+05 -3.0398096735050179e+07 
+4.5999999999999996e+00 -5.3680771615241551e-01 +7.3495265869121678e+00 -8.6714794106099735e-01 -7.3182952176085919e+01 +5.4145643492308764e+03 +1.8100066399740631e+05 -3.0076487657170013e+07 
+4.6999999999999993e+00 -5.3680784443453988e-01 +7.3495092062046163e+00 -8.6355782150192772e-01 -7.3056730406995683e+01 +5.3481490522895465e+03 +1.8086688510798971e+05 -2.9744704262442503e+07 
+4.7999999999999989e+00 -5.3680797862016494e-01 +7.3494887852098838e+00 -8.5968284902496184e-01 -7.2883330582579717e+01 +5.2788250787375455e+03 +1.8054156037344079e+05 -2.9407146983885765e+07 
+4.8999999999999986e+00 -5.3680811786391147e-01 +7.3494656766310049e+00 -8.5558614670687538e-01 -7.2669087394547361e+01 +5.2076172397749742e+03 +1.8005165564782143e+05 -2.9068216080348033e+07 
+4.9999999999999982e+00 -5.3680826132042680e-01 +7.3494402331778419e+00 -8.5133083694135625e-01 -7.2420335744183404e+01 +5.1355503567963087e+03 +1.7942413811171244e+05 -2.8732311922513559e+07 
+5.0999999999999979e+00 -5.3680840814439912e-01 +7.3494128075731684e+00 -8.4698003863670079e-01 -7.2143410926051317e+01 +5.0636492028883249e+03 +1.7868597737496739e+05 -2.8403834703295309e+07 
+5.1999999999999975e+00 -5.3680855749056522e-01 +7.3493837525433232e+00 -8.4259686704392889e-01 -7.1844648365821413e+01 +4.9929385022556071e+03 +1.7786414397240110e+05 -2.8087184439787436e+07 
+5.2999999999999972e+00 -5.3680870851365581e-01 +7.3493534208288764e+00 -8.3824444057100111e-01 -7.1530383916230718e+01 +4.9244430621153942e+03 +1.7698561104668418e+05 -2.7786761607810605e+07 
+5.3999999999999968e+00 -5.3680886036847097e-01 +7.3493221651808858e+00 -8.3398587116552769e-01 -7.1206953755159745e+01 +4.8591875896617357e+03 +1.7607735378324581e+05 -2.7506966272158027e+07 
+5.4999999999999964e+00 -5.3680901220985255e-01 +7.3492903383569148e+00 -8.2988426852306429e-01 -7.0880694274620907e+01 +4.7981967729891894e+03 +1.7516634877518719e+05 -2.7252198470108133e+07 
+5.5999999999999961e+00 -5.3680916319266447e-01 +7.3492582931289183e+00 -8.2600274218561986e-01 -7.0557942304620539e+01 +4.7424953243663258e+03 +1.7427957531097202e+05 -2.7026858430618312e+07 
+5.6999999999999957e+00 -5.3680931247184460e-01 +7.3492263822815778e+00 -8.2240439520800179e-01 -7.0245035063673612e+01 +4.6931078582252476e+03 +1.7344401509051005e+05 -2.6835345987116672e+07 
+5.7999999999999954e+00 -5.3680945920235157e-01 +7.3491949586114496e+00 -8.1915233136817978e-01 -6.9948310142373657e+01 +4.6510590319337553e+03 +1.7268665214768547e+05 -2.6682061257690374e+07 
+5.8999999999999950e+00 -5.3680960253919885e-01 +7.3491643749282769e+00 -8.1630965076031481e-01 -6.9674105536450128e+01 +4.6173734610812626e+03 +1.7203447304039652e+05 -2.6571404237913720e+07 
+5.9999999999999947e+00 -5.3680974163745998e-01 +7.3491349840546221e+00 -8.1393944878668856e-01 -6.9428759635698214e+01 +4.5930757010386906e+03 +1.7151446676800642e+05 -2.6507774719366446e+07 
+6.0999999999999943e+00 -5.3680987586389861e-01 +7.3491070779536063e+00 -8.1208972513961819e-01 -6.9217158241632248e+01 +4.5789038543988672e+03 +1.7114631296305556e+05 -2.6494206447705805e+07 
+6.1999999999999940e+00 -5.3681000542773583e-01 +7.3490806986501234e+00 -8.1074617522279524e-01 -6.9038084378959169e+01 +4.5744013584220538e+03 +1.7091875162062453e+05 -2.6528020608217344e+07 
+6.2999999999999936e+00 -5.3681013074793282e-01 +7.3490558238851094e+00 -8.0987839837233677e-01 -6.8888716974754928e+01 +4.5787995947434665e+03 +1.7081233522956879e+05 -2.6605041769025609e+07 
+6.3999999999999932e+00 -5.3681025224341095e-01 +7.3490324314013771e+00 -8.0945600032548992e-01 -6.8766234925734295e+01 +4.5913300673515150e+03 +1.7080761570833137e+05 -2.6721095056104224e+07 
+6.4999999999999929e+00 -5.3681037033312684e-01 +7.3490104989444252e+00 -8.0944858400999309e-01 -6.8667817126037150e+01 +4.6112242273876409e+03 +1.7088514455504558e+05 -2.6872005315845359e+07 
+6.5999999999999925e+00 -5.3681048543598942e-01 +7.3489900042568923e+00 -8.0982576001493278e-01 -6.8590642289973005e+01 +4.6377136753685863e+03 +1.7102547175531054e+05 -2.7053598087251686e+07 
+6.6999999999999922e+00 -5.3681059797093855e-01 +7.3489709250865483e+00 -8.1055713628937076e-01 -6.8531889188529760e+01 +4.6700299583675614e+03 +1.7120914716041039e+05 -2.7261698613921523e+07 
+6.7999999999999918e+00 -5.3681070835689948e-01 +7.3489532391801475e+00 -8.1161232470419609e-01 -6.8488736474390009e+01 +4.7074047024936162e+03 +1.7141671947667809e+05 -2.7492132494933460e+07 
+6.8999999999999915e+00 -5.3681081701276889e-01 +7.3489369242857672e+00 -8.1296094262501706e-01 -6.8458362725449177e+01 +4.7490696399334420e+03 +1.7162873643586214e+05 -2.7740725805837102e+07 
+6.9999999999999911e+00 -5.3681092435745104e-01 +7.3489219581537393e+00 -8.1457260728234271e-01 -6.8437946490431742e+01 +4.7942564967677781e+03 +1.7182574510429270e+05 -2.8003304549748398e+07 
+7.0999999999999908e+00 -5.3681103080986503e-01 +7.3489083185333870e+00 -8.1641693678799421e-01 -6.8424666175305575e+01 +4.8421970195194535e+03 +1.7198829116278244e+05 -2.8275694799558774e+07 
+7.1999999999999904e+00 -5.3681113678889225e-01 +7.3488959831754572e+00 -8.1846355543302074e-01 -6.8415700118871044e+01 +4.8921230720589638e+03 +1.7209691934791443e+05 -2.8553723150205247e+07 
+7.2999999999999901e+00 -5.3681124271341984e-01 +7.3488849298352452e+00 -8.2068208881993032e-01 -6.8408226671348174e+01 +4.9432665434948030e+03 +1.7213217386809117e+05 -2.8833216279029708e+07 
+7.3999999999999897e+00 -5.3681134900232108e-01 +7.3488751362619080e+00 -8.2304216609968417e-01 -6.8399423890764425e+01 +4.9948593903740712e+03 +1.7207459664718190e+05 -2.9110001145209726e+07 
+7.4999999999999893e+00 -5.3681145607446368e-01 +7.3488665802107391e+00 -8.2551341945092027e-01 -6.8386469894759529e+01 +5.0461336281960012e+03 +1.7190472934688334e+05 -2.9379904951413214e+07 
+7.5999999999999890e+00 -5.3681156434871602e-01 +7.3488592394396424e+00 -8.2806548249899226e-01 -6.8366542736293411e+01 +5.0963212979044165e+03 +1.7160311257475376e+05 -2.9638754974697813e+07 
+7.6999999999999886e+00 -5.3681167424391796e-01 +7.3488530917019190e+00 -8.3066799494243115e-01 -6.8336820214491098e+01 +5.1446545565648566e+03 +1.7115028483153242e+05 -2.9882379002545141e+07 
+7.7999999999999883e+00 -5.3681178617892911e-01 +7.3488481147558309e+00 -8.3329059596526567e-01 -6.8294480139789997e+01 +5.1903655516674125e+03 +1.7052678400967366e+05 -3.0106604734585531e+07 
+7.8999999999999879e+00 -5.3681190057256700e-01 +7.3488442863560284e+00 -8.3590293228145607e-01 -6.8236700075777577e+01 +5.2326865738474717e+03 +1.6971314585881215e+05 -3.0307260506178893e+07 
+7.9999999999999876e+00 -5.3681201784364996e-01 +7.3488415842642292e+00 -8.3847465269165433e-01 -6.8160657659246851e+01 +5.2708499506655826e+03 +1.6868990586574847e+05 -3.0480174772202231e+07 
+8.0999999999999872e+00 -5.3681213838147457e-01 +7.3488399588393492e+00 -8.4098021296800196e-01 -6.8063826567819490e+01 +5.3042280437085201e+03 +1.6744175106740205e+05 -3.0621968521673732e+07 
+8.1999999999999869e+00 -5.3681226246933478e-01 +7.3488392608280941e+00 -8.4341015287986298e-01 -6.7945326509841507e+01 +5.3327376668965017e+03 +1.6597289837089600e+05 -3.0732505660188284e+07 
+8.2999999999999865e+00 -5.3681239036720374e-01 +7.3488393186874905e+00 -8.4575825815223060e-01 -6.7804819021014396e+01 +5.3564289784519215e+03 +1.6429329096786457e+05 -3.0812487055391990e+07 
+8.3999999999999861e+00 -5.3681252233500154e-01 +7.3488399608707597e+00 -8.4801831755454848e-01 -6.7641965587923721e+01 +5.3753521746028437e+03 +1.6241287196742915e+05 -3.0862613739005063e+07 
+8.4999999999999858e+00 -5.3681265863266114e-01 +7.3488410158218587e+00 -8.5018411372282154e-01 -6.7456427443556109e+01 +5.3895573057027614e+03 +1.6034158310429531e+05 -3.0883586008246344e+07 
+8.5999999999999854e+00 -5.3681279952007621e-01 +7.3488423119805137e+00 -8.5224943006203546e-01 -6.7247865723784798e+01 +5.3990944057336073e+03 +1.5808936568796888e+05 -3.0876104034444083e+07 
+8.6999999999999851e+00 -5.3681294525715029e-01 +7.3488436777778929e+00 -8.5420804441172049e-01 -6.7015941325918959e+01 +5.4040133760205799e+03 +1.5566615972836892e+05 -3.0840867326635122e+07 
+8.7999999999999847e+00 -5.3681309610372796e-01 +7.3488449416378625e+00 -8.5605373721861389e-01 -6.6760314962338654e+01 +5.4043641325227136e+03 +1.5308190431273071e+05 -3.0778575407610558e+07 
+8.8999999999999844e+00 -5.3681325231967503e-01 +7.3488459319798514e+00 -8.5778028183520905e-01 -6.6480647237968213e+01 +5.4001964278499081e+03 +1.5034653802548835e+05 -3.0689926989524648e+07 
+8.9999999999999840e+00 -5.3681341416481632e-01 +7.3488464772126578e+00 -8.5938145144968092e-01 -6.6176598481792311e+01 +5.3915599766197538e+03 +1.4746999802105181e+05 -3.0575620553714190e+07 
+9.0999999999999837e+00 -5.3681358189896811e-01 +7.3488464057366860e+00 -8.6085101571441647e-01 -6.5847828794087036e+01 +5.3785043920767775e+03 +1.4446222023948477e+05 -3.0436354049918640e+07 
+9.1999999999999833e+00 -5.3681375578191948e-01 +7.3488455459469479e+00 -8.6218274235443926e-01 -6.5493998148550219e+01 +5.3610792175829483e+03 +1.4133314005284116e+05 -3.0272825052516177e+07 
+9.2999999999999829e+00 -5.3681393607344097e-01 +7.3488437262270434e+00 -8.6337039600939414e-01 -6.5114766219118252e+01 +5.3393339014368057e+03 +1.3809269126174887e+05 -3.0085730634156726e+07 
+9.3999999999999826e+00 -5.3681412303329423e-01 +7.3488407749582025e+00 -8.6440773696262285e-01 -6.4709792641811518e+01 +5.3133177697439551e+03 +1.3475080761575006e+05 -2.9875767226046372e+07 
+9.4999999999999822e+00 -5.3681431692120207e-01 +7.3488365205058734e+00 -8.6528852516644084e-01 -6.4278736621127237e+01 +5.2830801114064479e+03 +1.3131742052822842e+05 -2.9643631051624447e+07 
+9.5999999999999819e+00 -5.3681451799687185e-01 +7.3488307912305357e+00 -8.6600651629563186e-01 -6.3821257254700967e+01 +5.2486700888460691e+03 +1.2780246098223196e+05 -2.9390017660342190e+07 
+9.6999999999999815e+00 -5.3681472651999518e-01 +7.3488234154800072e+00 -8.6655546250719773e-01 -6.3337013302659535e+01 +5.2101367629653805e+03 +1.2421585818571117e+05 -2.9115622079100061e+07 
+9.7999999999999812e+00 -5.3681494275022845e-01 +7.3488142215994721e+00 -8.6692911375368631e-01 -6.2825663486502044e+01 +5.1675291080932302e+03 +1.2056754132034340e+05 -2.8821138856333751e+07 
+9.8999999999999808e+00 -5.3681516694722320e-01 +7.3488030379176656e+00 -8.6712121529869934e-01 -6.2286866084801879e+01 +5.1208959743475052e+03 +1.1686743719793289e+05 -2.8507261910259102e+07 
+9.9999999999999805e+00 -5.3681539937058931e-01 +7.3487896927554646e+00 -8.6712551043899155e-01 -6.1720279157867253e+01 +5.0702861305983261e+03 +1.1312547149468130e+05 -2.8174684715207424e+07 
+1.0099999999999980e+01 -5.3681564018380312e-01 +7.3487740856128996e+00 -8.6693792096567268e-01 -6.1126630800140639e+01 +5.0157869850514280e+03 +1.0935466526430733e+05 -2.7824254708889727e+07 
