# trajectory
# s[mm] rx[mm] ry[mm] rz[mm] px[rad] py[rad] pz[rad]
0.0000000000000000e+00 +7.9199999999999999e+00 +0.0000000000000000e+00 +0.0000000000000000e+00 +0.0000000000000000e+00 +0.0000000000000000e+00 +1.0000000000000000e+00
1.0000000000000001e-01 +7.9199997168246083e+00 +0.0000000000000000e+00 +9.9999999999465405e-02 -5.6635077601269841e-06 +0.0000000000000000e+00 +9.9999999998396238e-01
2.0000000000000001e-01 +7.9199988672984603e+00 +0.0000000000000000e+00 +1.9999999999572329e-01 -1.1327015138603070e-05 +0.0000000000000000e+00 +9.9999999993584943e-01
3.0000000000000004e-01 +7.9199974514215912e+00 +0.0000000000000000e+00 +2.9999999998556615e-01 -1.6990522185181134e-05 +0.0000000000000000e+00 +9.9999999985566113e-01
4.0000000000000002e-01 +7.9199954691940322e+00 +0.0000000000000000e+00 +3.9999999996578639e-01 -2.2654028947521009e-05 +0.0000000000000000e+00 +9.9999999974339748e-01
5.0000000000000000e-01 +7.9199929206158091e+00 +0.0000000000000000e+00 +4.9999999993317651e-01 -2.8317535471189267e-05 +0.0000000000000000e+00 +9.9999999959905861e-01
5.9999999999999998e-01 +7.9199898056869440e+00 +0.0000000000000000e+00 +5.9999999988452890e-01 -3.3981041799659022e-05 +0.0000000000000000e+00 +9.9999999942264439e-01
6.9999999999999996e-01 +7.9199861244074539e+00 +0.0000000000000000e+00 +6.9999999981663619e-01 -3.9644547974309715e-05 +0.0000000000000000e+00 +9.9999999921415494e-01
7.9999999999999993e-01 +7.9199818767773529e+00 +0.0000000000000000e+00 +7.9999999972629077e-01 -4.5308054034426931e-05 +0.0000000000000000e+00 +9.9999999897359015e-01
8.9999999999999991e-01 +7.9199770627966499e+00 +0.0000000000000000e+00 +8.9999999961028510e-01 -5.0971560017202198e-05 +0.0000000000000000e+00 +9.9999999870095002e-01
9.9999999999999989e-01 +7.9199716824653512e+00 +0.0000000000000000e+00 +9.9999999946541163e-01 -5.6635065957732801e-05 +0.0000000000000000e+00 +9.9999999839623466e-01
1.0999999999999999e+00 +7.9199657357834585e+00 +0.0000000000000000e+00 +1.0999999992884628e+00 -6.2298571889021605e-05 +0.0000000000000000e+00 +9.9999999805944395e-01
1.2000000000000000e+00 +7.9199592227509719e+00 +0.0000000000000000e+00 +1.1999999990762311e+00 -6.7962077841976880e-05 +0.0000000000000000e+00 +9.9999999769057801e-01
1.3000000000000000e+00 +7.9199521433678877e+00 +0.0000000000000000e+00 +1.2999999988255091e+00 -7.3625583845412148e-05 +0.0000000000000000e+00 +9.9999999728963673e-01
1.4000000000000001e+00 +7.9199444976341997e+00 +0.0000000000000000e+00 +1.3999999985330893e+00 -7.9289089926045972e-05 +0.0000000000000000e+00 +9.9999999685662011e-01
1.5000000000000002e+00 +7.9199362855498991e+00 +0.0000000000000000e+00 +1.4999999981957641e+00 -8.4952596108501857e-05 +0.0000000000000000e+00 +9.9999999639152826e-01
1.6000000000000003e+00 +7.9199275071149744e+00 +0.0000000000000000e+00 +1.5999999978103259e+00 -9.0616102415308060e-05 +0.0000000000000000e+00 +9.9999999589436106e-01
1.7000000000000004e+00 +7.9199181623294113e+00 +0.0000000000000000e+00 +1.6999999973735671e+00 -9.6279608866897443e-05 +0.0000000000000000e+00 +9.9999999536511852e-01
1.8000000000000005e+00 +7.9199082511931955e+00 +0.0000000000000000e+00 +1.7999999968822804e+00 -1.0194311548160736e-04 +0.0000000000000000e+00 +9.9999999480380064e-01
1.9000000000000006e+00 +7.9198977737063094e+00 +0.0000000000000000e+00 +1.8999999963332581e+00 -1.0760662227567948e-04 +0.0000000000000000e+00 +9.9999999421040742e-01
2.0000000000000004e+00 +7.9198867298687343e+00 +0.0000000000000000e+00 +1.9999999957232928e+00 -1.1327012926325970e-04 +0.0000000000000000e+00 +9.9999999358493885e-01
2.1000000000000005e+00 +7.9198751196804498e+00 +0.0000000000000000e+00 +2.0999999950491768e+00 -1.1893363645661623e-04 +0.0000000000000000e+00 +9.9999999292739494e-01
2.2000000000000006e+00 +7.9198629431414354e+00 +0.0000000000000000e+00 +2.1999999943077024e+00 -1.2459714386854032e-04 +0.0000000000000000e+00 +9.9999999223777580e-01
2.3000000000000007e+00 +7.9198502002516680e+00 +0.0000000000000000e+00 +2.2999999934956628e+00 -1.3026065151474714e-04 +0.0000000000000000e+00 +9.9999999151608121e-01
2.4000000000000008e+00 +7.9198368910111236e+00 +0.0000000000000000e+00 +2.3999999926098496e+00 -1.3592415941409422e-04 +0.0000000000000000e+00 +9.9999999076231127e-01
2.5000000000000009e+00 +7.9198230154197757e+00 +0.0000000000000000e+00 +2.4999999916470559e+00 -1.4158766758858168e-04 +0.0000000000000000e+00 +9.9999998997646600e-01
2.6000000000000010e+00 +7.9198085734775958e+00 +0.0000000000000000e+00 +2.5999999906040738e+00 -1.4725117606335255e-04 +0.0000000000000000e+00 +9.9999998915854538e-01
2.7000000000000011e+00 +7.9197935651845519e+00 +0.0000000000000000e+00 +2.6999999894776958e+00 -1.5291468486669309e-04 +0.0000000000000000e+00 +9.9999998830854941e-01
2.8000000000000012e+00 +7.9197779905406103e+00 +0.0000000000000000e+00 +2.7999999882647146e+00 -1.5857819403003313e-04 +0.0000000000000000e+00 +9.9999998742647800e-01
2.9000000000000012e+00 +7.9197618495457327e+00 +0.0000000000000000e+00 +2.8999999869619222e+00 -1.6424170358794648e-04 +0.0000000000000000e+00 +9.9999998651233124e-01
3.0000000000000013e+00 +7.9197451421998784e+00 +0.0000000000000000e+00 +2.9999999855661117e+00 -1.6990521357815135e-04 +0.0000000000000000e+00 +9.9999998556610903e-01
3.1000000000000014e+00 +7.9197278685030019e+00 +0.0000000000000000e+00 +3.0999999840740751e+00 -1.7556872404151085e-04 +0.0000000000000000e+00 +9.9999998458781136e-01
3.2000000000000015e+00 +7.9197100284550537e+00 +0.0000000000000000e+00 +3.1999999824826046e+00 -1.8123223502203355e-04 +0.0000000000000000e+00 +9.9999998357743825e-01
3.3000000000000016e+00 +7.9196916220559794e+00 +0.0000000000000000e+00 +3.2999999807884932e+00 -1.8689574656687393e-04 +0.0000000000000000e+00 +9.9999998253498967e-01
3.4000000000000017e+00 +7.9196726493057197e+00 +0.0000000000000000e+00 +3.3999999789885331e+00 -1.9255925872633311e-04 +0.0000000000000000e+00 +9.9999998146046565e-01
3.5000000000000018e+00 +7.9196531102042114e+00 +0.0000000000000000e+00 +3.4999999770795172e+00 -1.9822277155385934e-04 +0.0000000000000000e+00 +9.9999998035386606e-01
3.6000000000000019e+00 +7.9196330047513843e+00 +0.0000000000000000e+00 +3.5999999750582372e+00 -2.0388628510604873e-04 +0.0000000000000000e+00 +9.9999997921519101e-01
3.7000000000000020e+00 +7.9196123329471639e+00 +0.0000000000000000e+00 +3.6999999729214861e+00 -2.0954979944264607e-04 +0.0000000000000000e+00 +9.9999997804444041e-01
3.8000000000000020e+00 +7.9195910947914676e+00 +0.0000000000000000e+00 +3.7999999706660561e+00 -2.1521331462654537e-04 +0.0000000000000000e+00 +9.9999997684161424e-01
3.9000000000000021e+00 +7.9195692902842083e+00 +0.0000000000000000e+00 +3.8999999682887396e+00 -2.2087683072379084e-04 +0.0000000000000000e+00 +9.9999997560671239e-01
4.0000000000000018e+00 +7.9195469194252901e+00 +0.0000000000000000e+00 +3.9999999657863294e+00 -2.2654034780357761e-04 +0.0000000000000000e+00 +9.9999997433973498e-01
4.1000000000000014e+00 +7.9195239822146117e+00 +0.0000000000000000e+00 +4.0999999631556179e+00 -2.3220386593796237e-04 +0.0000000000000000e+00 +9.9999997304068189e-01
4.2000000000000011e+00 +7.9195004786520649e+00 +0.0000000000000000e+00 +4.1999999603933968e+00 -2.3786738519867136e-04 +0.0000000000000000e+00 +9.9999997170955301e-01
4.3000000000000007e+00 +7.9194764087375322e+00 +0.0000000000000000e+00 +4.2999999574964596e+00 -2.4353090565390776e-04 +0.0000000000000000e+00 +9.9999997034634847e-01
4.4000000000000004e+00 +7.9194517724708922e+00 +0.0000000000000000e+00 +4.3999999544615980e+00 -2.4919442736806140e-04 +0.0000000000000000e+00 +9.9999996895106813e-01
4.5000000000000000e+00 +7.9194265698520150e+00 +0.0000000000000000e+00 +4.4999999512856039e+00 -2.5485795040170849e-04 +0.0000000000000000e+00 +9.9999996752371201e-01
4.5999999999999996e+00 +7.9194008008807657e+00 +0.0000000000000000e+00 +4.5999999479652711e+00 -2.6052147481161141e-04 +0.0000000000000000e+00 +9.9999996606427999e-01
4.6999999999999993e+00 +7.9193744655570049e+00 +0.0000000000000000e+00 +4.6999999444973914e+00 -2.6618500065071857e-04 +0.0000000000000000e+00 +9.9999996457277207e-01
4.7999999999999989e+00 +7.9193475638805868e+00 +0.0000000000000000e+00 +4.7999999408787568e+00 -2.7184852796816408e-04 +0.0000000000000000e+00 +9.9999996304918826e-01
4.8999999999999986e+00 +7.9193200958513605e+00 +0.0000000000000000e+00 +4.8999999371061600e+00 -2.7751205680926757e-04 +0.0000000000000000e+00 +9.9999996149352843e-01
4.9999999999999982e+00 +7.9192920614691724e+00 +0.0000000000000000e+00 +4.9999999331763938e+00 -2.8317558721553378e-04 +0.0000000000000000e+00 +9.9999995990579260e-01
5.0999999999999979e+00 +7.9192634607338643e+00 +0.0000000000000000e+00 +5.0999999290862501e+00 -2.8883911922465233e-04 +0.0000000000000000e+00 +9.9999995828598076e-01
5.1999999999999975e+00 +7.9192342936452738e+00 +0.0000000000000000e+00 +5.1999999248325208e+00 -2.9450265287049723e-04 +0.0000000000000000e+00 +9.9999995663409280e-01
5.2999999999999972e+00 +7.9192045602032355e+00 +0.0000000000000000e+00 +5.2999999204119996e+00 -3.0016618818312662e-04 +0.0000000000000000e+00 +9.9999995495012872e-01
5.3999999999999968e+00 +7.9191742604075808e+00 +0.0000000000000000e+00 +5.3999999158214775e+00 -3.0582972518878237e-04 +0.0000000000000000e+00 +9.9999995323408852e-01
5.4999999999999964e+00 +7.9191433942581400e+00 +0.0000000000000000e+00 +5.4999999110577482e+00 -3.1149326390988964e-04 +0.0000000000000000e+00 +9.9999995148597209e-01
5.5999999999999961e+00 +7.9191119617547407e+00 +0.0000000000000000e+00 +5.5999999061176027e+00 -3.1715680436505625e-04 +0.0000000000000000e+00 +9.9999994970577943e-01
5.6999999999999957e+00 +7.9190799628972091e+00 +0.0000000000000000e+00 +5.6999999009978346e+00 -3.2282034656907241e-04 +0.0000000000000000e+00 +9.9999994789351054e-01
5.7999999999999954e+00 +7.9190473976853690e+00 +0.0000000000000000e+00 +5.7999998956952359e+00 -3.2848389053291018e-04 +0.0000000000000000e+00 +9.9999994604916531e-01
5.8999999999999950e+00 +7.9190142661190439e+00 +0.0000000000000000e+00 +5.8999998902065984e+00 -3.3414743626372287e-04 +0.0000000000000000e+00 +9.9999994417274385e-01
5.9999999999999947e+00 +7.9189805681980570e+00 +0.0000000000000000e+00 +5.9999998845287150e+00 -3.3981098376484445e-04 +0.0000000000000000e+00 +9.9999994226424593e-01
6.0999999999999943e+00 +7.9189463039222314e+00 +0.0000000000000000e+00 +6.0999998786583784e+00 -3.4547453303602360e-04 +0.0000000000000000e+00 +9.9999994032367168e-01
6.1999999999999940e+00 +7.9189114732913906e+00 +0.0000000000000000e+00 +6.1999998725923806e+00 -3.5113808407600329e-04 +0.0000000000000000e+00 +9.9999993835102097e-01
6.2999999999999936e+00 +7.9188760763053576e+00 +0.0000000000000000e+00 +6.2999998663275134e+00 -3.5680163688510034e-04 +0.0000000000000000e+00 +9.9999993634629381e-01
6.3999999999999932e+00 +7.9188401129639550e+00 +0.0000000000000000e+00 +6.3999998598605696e+00 -3.6246519146543961e-04 +0.0000000000000000e+00 +9.9999993430949019e-01
6.4999999999999929e+00 +7.9188035832670058e+00 +0.0000000000000000e+00 +6.4999998531883421e+00 -3.6812874782095372e-04 +0.0000000000000000e+00 +9.9999993224061012e-01
6.5999999999999925e+00 +7.9187664872143317e+00 +0.0000000000000000e+00 +6.5999998463076226e+00 -3.7379230595738244e-04 +0.0000000000000000e+00 +9.9999993013965349e-01
6.6999999999999922e+00 +7.9187288248057550e+00 +0.0000000000000000e+00 +6.6999998392152040e+00 -3.7945586588227225e-04 +0.0000000000000000e+00 +9.9999992800662030e-01
6.7999999999999918e+00 +7.9186905960410954e+00 +0.0000000000000000e+00 +6.7999998319078783e+00 -3.8511942760497601e-04 +0.0000000000000000e+00 +9.9999992584151043e-01
6.8999999999999915e+00 +7.9186518009201734e+00 +0.0000000000000000e+00 +6.8999998243824372e+00 -3.9078299113665241e-04 +0.0000000000000000e+00 +9.9999992364432400e-01
6.9999999999999911e+00 +7.9186124394428070e+00 +0.0000000000000000e+00 +6.9999998166356736e+00 -3.9644655649026533e-04 +0.0000000000000000e+00 +9.9999992141506078e-01
7.0999999999999908e+00 +7.9185725116088141e+00 +0.0000000000000000e+00 +7.0999998086643803e+00 -4.0211012368058358e-04 +0.0000000000000000e+00 +9.9999991915372088e-01
7.1999999999999904e+00 +7.9185320174180092e+00 +0.0000000000000000e+00 +7.1999998004653492e+00 -4.0777369272418021e-04 +0.0000000000000000e+00 +9.9999991686030421e-01
7.2999999999999901e+00 +7.9184909568702064e+00 +0.0000000000000000e+00 +7.2999997920353721e+00 -4.1343726363943196e-04 +0.0000000000000000e+00 +9.9999991453481074e-01
7.3999999999999897e+00 +7.9184493299652177e+00 +0.0000000000000000e+00 +7.3999997833712419e+00 -4.1910083644651876e-04 +0.0000000000000000e+00 +9.9999991217724049e-01
7.4999999999999893e+00 +7.9184071367028528e+00 +0.0000000000000000e+00 +7.4999997744697513e+00 -4.2476441116742319e-04 +0.0000000000000000e+00 +9.9999990978759334e-01
7.5999999999999890e+00 +7.9183643770829191e+00 +0.0000000000000000e+00 +7.5999997653276914e+00 -4.3042798782592977e-04 +0.0000000000000000e+00 +9.9999990736586930e-01
7.6999999999999886e+00 +7.9183210511052220e+00 +0.0000000000000000e+00 +7.6999997559418558e+00 -4.3609156644762442e-04 +0.0000000000000000e+00 +9.9999990491206825e-01
7.7999999999999883e+00 +7.9182771587695635e+00 +0.0000000000000000e+00 +7.7999997463090365e+00 -4.4175514705989389e-04 +0.0000000000000000e+00 +9.9999990242619019e-01
7.8999999999999879e+00 +7.9182327000757429e+00 +0.0000000000000000e+00 +7.8999997364260253e+00 -4.4741872969192493e-04 +0.0000000000000000e+00 +9.9999989990823512e-01
7.9999999999999876e+00 +7.9181876750235567e+00 +0.0000000000000000e+00 +7.9999997262896141e+00 -4.5308231437470395e-04 +0.0000000000000000e+00 +9.9999989735820294e-01
8.0999999999999872e+00 +7.9181420836127980e+00 +0.0000000000000000e+00 +8.0999997158965957e+00 -4.5874590114074599e-04 +0.0000000000000000e+00 +9.9999989477609352e-01
8.1999999999999869e+00 +7.9180959258432573e+00 +0.0000000000000000e+00 +8.1999997052437639e+00 -4.6440949002112350e-04 +0.0000000000000000e+00 +9.9999989216190699e-01
8.2999999999999865e+00 +7.9180492017147222e+00 +0.0000000000000000e+00 +8.2999996943279086e+00 -4.7007308104249530e-04 +0.0000000000000000e+00 +9.9999988951564311e-01
8.3999999999999861e+00 +7.9180019112269768e+00 +0.0000000000000000e+00 +8.3999996831458237e+00 -4.7573667422683716e-04 +0.0000000000000000e+00 +9.9999988683730201e-01
8.4999999999999858e+00 +7.9179540543798037e+00 +0.0000000000000000e+00 +8.4999996716943009e+00 -4.8140026959144183e-04 +0.0000000000000000e+00 +9.9999988412688356e-01
8.5999999999999854e+00 +7.9179056311729852e+00 +0.0000000000000000e+00 +8.5999996599701323e+00 -4.8706386714891955e-04 +0.0000000000000000e+00 +9.9999988138438767e-01
8.6999999999999851e+00 +7.9178566416063010e+00 +0.0000000000000000e+00 +8.6999996479701096e+00 -4.9272746690719855e-04 +0.0000000000000000e+00 +9.9999987860981432e-01
8.7999999999999847e+00 +7.9178070856795308e+00 +0.0000000000000000e+00 +8.7999996356910266e+00 -4.9839106886952536e-04 +0.0000000000000000e+00 +9.9999987580316352e-01
8.8999999999999844e+00 +7.9177569633924536e+00 +0.0000000000000000e+00 +8.8999996231296734e+00 -5.0405467303446506e-04 +0.0000000000000000e+00 +9.9999987296443527e-01
8.9999999999999840e+00 +7.9177062747448508e+00 +0.0000000000000000e+00 +8.9999996102828437e+00 -5.0971827939590218e-04 +0.0000000000000000e+00 +9.9999987009362945e-01
9.0999999999999837e+00 +7.9176550197365021e+00 +0.0000000000000000e+00 +9.0999995971473293e+00 -5.1538188794304058e-04 +0.0000000000000000e+00 +9.9999986719074607e-01
9.1999999999999833e+00 +7.9176031983671900e+00 +0.0000000000000000e+00 +9.1999995837199240e+00 -5.2104549866040456e-04 +0.0000000000000000e+00 +9.9999986425578502e-01
9.2999999999999829e+00 +7.9175508106366985e+00 +0.0000000000000000e+00 +9.2999995699974178e+00 -5.2670911152783871e-04 +0.0000000000000000e+00 +9.9999986128874641e-01
9.3999999999999826e+00 +7.9174978565448138e+00 +0.0000000000000000e+00 +9.3999995559766045e+00 -5.3237272652050893e-04 +0.0000000000000000e+00 +9.9999985828963012e-01
9.4999999999999822e+00 +7.9174443360913243e+00 +0.0000000000000000e+00 +9.4999995416542760e+00 -5.3803634360890271e-04 +0.0000000000000000e+00 +9.9999985525843615e-01
9.5999999999999819e+00 +7.9173902492760231e+00 +0.0000000000000000e+00 +9.5999995270272240e+00 -5.4369996275882961e-04 +0.0000000000000000e+00 +9.9999985219516452e-01
9.6999999999999815e+00 +7.9173355960987051e+00 +0.0000000000000000e+00 +9.6999995120922406e+00 -5.4936358393142207e-04 +0.0000000000000000e+00 +9.9999984909981510e-01
9.7999999999999812e+00 +7.9172803765591704e+00 +0.0000000000000000e+00 +9.7999994968461177e+00 -5.5502720708313572e-04 +0.0000000000000000e+00 +9.9999984597238800e-01
9.8999999999999808e+00 +7.9172245906572236e+00 +0.0000000000000000e+00 +9.8999994812856489e+00 -5.6069083216575024e-04 +0.0000000000000000e+00 +9.9999984281288312e-01
9.9999999999999805e+00 +7.9171682383926747e+00 +0.0000000000000000e+00 +9.9999994654076261e+00 -5.6635445912636955e-04 +0.0000000000000000e+00 +9.9999983962130057e-01
1.0099999999999980e+01 +7.9171113197653380e+00 +0.0000000000000000e+00 +1.0099999449208841e+01 -5.7201808790800649e-04 +0.0000000000000000e+00 +9.9999983639764034e-01
1.0199999999999980e+01 +7.9170538347750341e+00 +0.0000000000000000e+00 +1.0199999432686086e+01 -5.7768171845600121e-04 +0.0000000000000000e+00 +9.9999983314190233e-01
1.0299999999999979e+01 +7.9169957834215889e+00 +0.0000000000000000e+00 +1.0299999415836153e+01 -5.8334535072444057e-04 +0.0000000000000000e+00 +9.9999982985408664e-01
1.0399999999999979e+01 +7.9169371657048329e+00 +0.0000000000000000e+00 +1.0399999398655835e+01 -5.8900898467674251e-04 +0.0000000000000000e+00 +9.9999982653419317e-01
1.0499999999999979e+01 +7.9168779816245989e+00 +0.0000000000000000e+00 +1.0499999381141922e+01 -5.9467262028565712e-04 +0.0000000000000000e+00 +9.9999982318222191e-01
1.0599999999999978e+01 +7.9168182311807218e+00 +0.0000000000000000e+00 +1.0599999363291209e+01 -6.0033625753326753e-04 +0.0000000000000000e+00 +9.9999981979817287e-01
1.0699999999999978e+01 +7.9167579143730382e+00 +0.0000000000000000e+00 +1.0699999345100487e+01 -6.0599989641099098e-04 +0.0000000000000000e+00 +9.9999981638204605e-01
1.0799999999999978e+01 +7.9166970312013856e+00 +0.0000000000000000e+00 +1.0799999326566548e+01 -6.1166353691957990e-04 +0.0000000000000000e+00 +9.9999981293384144e-01
1.0899999999999977e+01 +7.9166355816655996e+00 +0.0000000000000000e+00 +1.0899999307686185e+01 -6.1732717906912279e-04 +0.0000000000000000e+00 +9.9999980945355893e-01
1.0999999999999977e+01 +7.9165735657655159e+00 +0.0000000000000000e+00 +1.0999999288456191e+01 -6.2299082287904563e-04 +0.0000000000000000e+00 +9.9999980594119853e-01
1.1099999999999977e+01 +7.9165109835009675e+00 +0.0000000000000000e+00 +1.1099999268873356e+01 -6.2865446837811264e-04 +0.0000000000000000e+00 +9.9999980239676023e-01
1.1199999999999976e+01 +7.9164478348717831e+00 +0.0000000000000000e+00 +1.1199999248934473e+01 -6.3431811560442765e-04 +0.0000000000000000e+00 +9.9999979882024392e-01
1.1299999999999976e+01 +7.9163841198777876e+00 +0.0000000000000000e+00 +1.1299999228636334e+01 -6.3998176460543514e-04 +0.0000000000000000e+00 +9.9999979521164961e-01
1.1399999999999975e+01 +7.9163198385188007e+00 +0.0000000000000000e+00 +1.1399999207975734e+01 -6.4564541543792151e-04 +0.0000000000000000e+00 +9.9999979157097718e-01
1.1499999999999975e+01 +7.9162549907946369e+00 +0.0000000000000000e+00 +1.1499999186949461e+01 -6.5130906816801624e-04 +0.0000000000000000e+00 +9.9999978789822652e-01
1.1599999999999975e+01 +7.9161895767051016e+00 +0.0000000000000000e+00 +1.1599999165554310e+01 -6.5697272287119305e-04 +0.0000000000000000e+00 +9.9999978419339752e-01
1.1699999999999974e+01 +7.9161235962499941e+00 +0.0000000000000000e+00 +1.1699999143787071e+01 -6.6263637963227134e-04 +0.0000000000000000e+00 +9.9999978045649018e-01
1.1799999999999974e+01 +7.9160570494291038e+00 +0.0000000000000000e+00 +1.1799999121644538e+01 -6.6830003854541711e-04 +0.0000000000000000e+00 +9.9999977668750439e-01
