# field on trajectory
# s[mm] rx[mm] ry[mm] rz[mm] bx[T] by[T] bz[T]
0.0000000000000000e+00 +8.1649999999999991e+00 +0.0000000000000000e+00 +0.0000000000000000e+00 -2.9273544262342834e-02 -5.6449913602710566e-01 +5.7089889664604029e-03
1.0000000000000001e-01 +8.1649997170147746e+00 +0.0000000000000000e+00 +9.9999999999466141e-02 -2.9273620335040565e-02 -5.6449916408485890e-01 +5.7090116509432185e-03
2.0000000000000001e-01 +8.1649988680590795e+00 +0.0000000000000000e+00 +1.9999999999572904e-01 -2.9273695345108888e-02 -5.6449919706403473e-01 +5.7090355673266079e-03
3.0000000000000004e-01 +8.1649974531328819e+00 +0.0000000000000000e+00 +2.9999999998558546e-01 -2.9273769376721367e-02 -5.6449923403093771e-01 +5.7090606842049871e-03
4.0000000000000002e-01 +8.1649954722361464e+00 +0.0000000000000000e+00 +3.9999999996583224e-01 -2.9273842514052496e-02 -5.6449927405187683e-01 +5.7090869701715364e-03
5.0000000000000000e-01 +8.1649929253688303e+00 +0.0000000000000000e+00 +4.9999999993326610e-01 -2.9273914841277202e-02 -5.6449931619316396e-01 +5.7091143938184383e-03
5.9999999999999998e-01 +8.1649898125308926e+00 +0.0000000000000000e+00 +5.9999999988468389e-01 -2.9273986442570312e-02 -5.6449935952111052e-01 +5.7091429237370733e-03
6.9999999999999996e-01 +8.1649861337222909e+00 +0.0000000000000000e+00 +6.9999999981688221e-01 -2.9274057402106091e-02 -5.6449940310202740e-01 +5.7091725285182537e-03
7.9999999999999993e-01 +8.1649818889429806e+00 +0.0000000000000000e+00 +7.9999999972665803e-01 -2.9274127804057630e-02 -5.6449944600222068e-01 +5.7092031767524316e-03
8.9999999999999991e-01 +8.1649770781929192e+00 +0.0000000000000000e+00 +8.9999999961080801e-01 -2.9274197732596399e-02 -5.6449948728799049e-01 +5.7092348370299103e-03
9.9999999999999989e-01 +8.1649717014720657e+00 +0.0000000000000000e+00 +9.9999999946612894e-01 -2.9274267271891769e-02 -5.6449952602562925e-01 +5.7092674779410726e-03
1.0999999999999999e+00 +8.1649657587803830e+00 +0.0000000000000000e+00 +1.0999999992894176e+00 -2.9274336506110353e-02 -5.6449956128141776e-01 +5.7093010680765895e-03
1.2000000000000000e+00 +8.1649592501178336e+00 +0.0000000000000000e+00 +1.1999999990774708e+00 -2.9274405519415635e-02 -5.6449959212162559e-01 +5.7093355760276269e-03
1.3000000000000000e+00 +8.1649521754843875e+00 +0.0000000000000000e+00 +1.2999999988270852e+00 -2.9274474395967403e-02 -5.6449961761250689e-01 +5.7093709703860884e-03
1.4000000000000001e+00 +8.1649445348800196e+00 +0.0000000000000000e+00 +1.3999999985350575e+00 -2.9274543219921199e-02 -5.6449963682029836e-01 +5.7094072197448019e-03
1.5000000000000002e+00 +8.1649363283047105e+00 +0.0000000000000000e+00 +1.4999999981981846e+00 -2.9274612075427850e-02 -5.6449964881121861e-01 +5.7094442926977551e-03
1.6000000000000003e+00 +8.1649275557584495e+00 +0.0000000000000000e+00 +1.5999999978132633e+00 -2.9274681046632920e-02 -5.6449965265146429e-01 +5.7094821578403043e-03
1.7000000000000004e+00 +8.1649182172412331e+00 +0.0000000000000000e+00 +1.6999999973770903e+00 -2.9274750217676206e-02 -5.6449964740720859e-01 +5.7095207837693897e-03
1.8000000000000005e+00 +8.1649083127530666e+00 +0.0000000000000000e+00 +1.7999999968864624e+00 -2.9274819672691240e-02 -5.6449963214459942e-01 +5.7095601390837539e-03
1.9000000000000006e+00 +8.1648978422939660e+00 +0.0000000000000000e+00 +1.8999999963381764e+00 -2.9274889495804757e-02 -5.6449960592975679e-01 +5.7096001923841620e-03
2.0000000000000004e+00 +8.1648868058639579e+00 +0.0000000000000000e+00 +1.9999999957290289e+00 -2.9274959771136151e-02 -5.6449956782877087e-01 +5.7096409122736058e-03
2.1000000000000005e+00 +8.1648752034630796e+00 +0.0000000000000000e+00 +2.0999999950558168e+00 -2.9275030611176575e-02 -5.6449951738336168e-01 +5.7096822775600182e-03
2.2000000000000006e+00 +8.1648630350913827e+00 +0.0000000000000000e+00 +2.1999999943153368e+00 -2.9275102241930147e-02 -5.6449945603788076e-01 +5.7097243078634676e-03
2.3000000000000007e+00 +8.1648503007489293e+00 +0.0000000000000000e+00 +2.2999999935043860e+00 -2.9275174917780238e-02 -5.6449938571234404e-01 +5.7097670330080149e-03
2.4000000000000008e+00 +8.1648370004357904e+00 +0.0000000000000000e+00 +2.3999999926197608e+00 -2.9275248893111158e-02 -5.6449930832677464e-01 +5.7098104828191658e-03
2.5000000000000009e+00 +8.1648231341520443e+00 +0.0000000000000000e+00 +2.4999999916582580e+00 -2.9275324422308603e-02 -5.6449922580120537e-01 +5.7098546871239258e-03
2.6000000000000010e+00 +8.1648087018977726e+00 +0.0000000000000000e+00 +2.5999999906166749e+00 -2.9275401759760237e-02 -5.6449914005568125e-01 +5.7098996757508416e-03
2.7000000000000011e+00 +8.1647937036730625e+00 +0.0000000000000000e+00 +2.6999999894918076e+00 -2.9275481159856096e-02 -5.6449905301026138e-01 +5.7099454785300707e-03
2.8000000000000012e+00 +8.1647781394780008e+00 +0.0000000000000000e+00 +2.7999999882804532e+00 -2.9275562876989240e-02 -5.6449896658502219e-01 +5.7099921252934029e-03
2.9000000000000012e+00 +8.1647620093126747e+00 +0.0000000000000000e+00 +2.8999999869794086e+00 -2.9275647165556147e-02 -5.6449888270005921e-01 +5.7100396458743402e-03
3.0000000000000013e+00 +8.1647453131771695e+00 +0.0000000000000000e+00 +2.9999999855854704e+00 -2.9275734279957295e-02 -5.6449880327549040e-01 +5.7100880701081340e-03
3.1000000000000014e+00 +8.1647280510715650e+00 +0.0000000000000000e+00 +3.0999999840954353e+00 -2.9275824474597624e-02 -5.6449873023145691e-01 +5.7101374278318356e-03
3.2000000000000015e+00 +8.1647102229959341e+00 +0.0000000000000000e+00 +3.1999999825061005e+00 -2.9275918003887083e-02 -5.6449866548812788e-01 +5.7101877488843471e-03
3.3000000000000016e+00 +8.1646918289503425e+00 +0.0000000000000000e+00 +3.2999999808142624e+00 -2.9276015122241171e-02 -5.6449861096570042e-01 +5.7102390631064825e-03
3.4000000000000017e+00 +8.1646728689348453e+00 +0.0000000000000000e+00 +3.3999999790167181e+00 -2.9276116084081361e-02 -5.6449856858440384e-01 +5.7102914003410036e-03
3.5000000000000018e+00 +8.1646533429494852e+00 +0.0000000000000000e+00 +3.4999999771102641e+00 -2.9276221143835667e-02 -5.6449854026450130e-01 +5.7103447904326794e-03
3.6000000000000019e+00 +8.1646332509942905e+00 +0.0000000000000000e+00 +3.5999999750916971e+00 -2.9276330555939162e-02 -5.6449852792629207e-01 +5.7103992632283355e-03
3.7000000000000020e+00 +8.1646125930692754e+00 +0.0000000000000000e+00 +3.6999999729578144e+00 -2.9276444574834484e-02 -5.6449853349011470e-01 +5.7104548485769078e-03
3.8000000000000020e+00 +8.1645913691744347e+00 +0.0000000000000000e+00 +3.7999999707054122e+00 -2.9276563454972305e-02 -5.6449855887634892e-01 +5.7105115763294847e-03
3.9000000000000021e+00 +8.1645695793097435e+00 +0.0000000000000000e+00 +3.8999999683312878e+00 -2.9276687450811918e-02 -5.6449860600541801e-01 +5.7105694763393685e-03
4.0000000000000018e+00 +8.1645472234751537e+00 +0.0000000000000000e+00 +3.9999999658322376e+00 -2.9276816816821663e-02 -5.6449867679779098e-01 +5.7106285784621182e-03
4.1000000000000014e+00 +8.1645243016705962e+00 +0.0000000000000000e+00 +4.0999999632050583e+00 -2.9276951722009045e-02 -5.6449877265854409e-01 +5.7106889017591450e-03
4.2000000000000011e+00 +8.1645008138959749e+00 +0.0000000000000000e+00 +4.1999999604465472e+00 -2.9277091993512118e-02 -5.6449889293101496e-01 +5.7107504221076584e-03
4.3000000000000007e+00 +8.1644767601511710e+00 +0.0000000000000000e+00 +4.2999999575535002e+00 -2.9277237373016289e-02 -5.6449903644309496e-01 +5.7108131045888076e-03
4.4000000000000004e+00 +8.1644521404360404e+00 +0.0000000000000000e+00 +4.3999999545227144e+00 -2.9277387602226538e-02 -5.6449920202266635e-01 +5.7108769142839282e-03
4.5000000000000000e+00 +8.1644269547504180e+00 +0.0000000000000000e+00 +4.4999999513509872e+00 -2.9277542422868452e-02 -5.6449938849760195e-01 +5.7109418162744653e-03
4.5999999999999996e+00 +8.1644012030941191e+00 +0.0000000000000000e+00 +4.5999999480351148e+00 -2.9277701576689123e-02 -5.6449959469576361e-01 +5.7110077756418924e-03
4.6999999999999993e+00 +8.1643748854669376e+00 +0.0000000000000000e+00 +4.6999999445718936e+00 -2.9277864805458246e-02 -5.6449981944500072e-01 +5.7110747574676390e-03
4.7999999999999989e+00 +8.1643480018686478e+00 +0.0000000000000000e+00 +4.7999999409581209e+00 -2.9278031850968972e-02 -5.6450006157314891e-01 +5.7111427268330172e-03
4.8999999999999986e+00 +8.1643205522990083e+00 +0.0000000000000000e+00 +4.8999999371905929e+00 -2.9278202455038982e-02 -5.6450031990802951e-01 +5.7112116488191398e-03
4.9999999999999982e+00 +8.1642925367577615e+00 +0.0000000000000000e+00 +4.9999999332661069e+00 -2.9278376359511443e-02 -5.6450059327744795e-01 +5.7112814885068456e-03
5.0999999999999979e+00 +8.1642639552446337e+00 +0.0000000000000000e+00 +5.0999999291814593e+00 -2.9278553306255981e-02 -5.6450088050919267e-01 +5.7113522109766331e-03
5.1999999999999975e+00 +8.1642348077593390e+00 +0.0000000000000000e+00 +5.1999999249334463e+00 -2.9278733037169689e-02 -5.6450118043103348e-01 +5.7114237813085684e-03
5.2999999999999972e+00 +8.1642050943015771e+00 +0.0000000000000000e+00 +5.2999999205188653e+00 -2.9278915294178056e-02 -5.6450149187072174e-01 +5.7114961645822210e-03
5.3999999999999968e+00 +8.1641748148710374e+00 +0.0000000000000000e+00 +5.3999999159345125e+00 -2.9279099819236033e-02 -5.6450181365598751e-01 +5.7115693258765910e-03
5.4999999999999964e+00 +8.1641439694673981e+00 +0.0000000000000000e+00 +5.4999999111771842e+00 -2.9279286354328946e-02 -5.6450214461453918e-01 +5.7116432302700190e-03
5.5999999999999961e+00 +8.1641125580903271e+00 +0.0000000000000000e+00 +5.5999999062436778e+00 -2.9279474641473530e-02 -5.6450248357406274e-01 +5.7117178428401239e-03
5.6999999999999957e+00 +8.1640805807394869e+00 +0.0000000000000000e+00 +5.6999999011307896e+00 -2.9279664422718874e-02 -5.6450282936221974e-01 +5.7117931286637209e-03
5.7999999999999954e+00 +8.1640480374145330e+00 +0.0000000000000000e+00 +5.7999998958353158e+00 -2.9279855440147436e-02 -5.6450318080664630e-01 +5.7118690528167489e-03
5.8999999999999950e+00 +8.1640149281151118e+00 +0.0000000000000000e+00 +5.8999998903540538e+00 -2.9280047435875999e-02 -5.6450353673495246e-01 +5.7119455803741901e-03
5.9999999999999947e+00 +8.1639812528408697e+00 +0.0000000000000000e+00 +5.9999998846837999e+00 -2.9280240152056700e-02 -5.6450389597472084e-01 +5.7120226764100007e-03
6.0999999999999943e+00 +8.1639470115914463e+00 +0.0000000000000000e+00 +6.0999998788213503e+00 -2.9280433323171397e-02 -5.6450425741307131e-01 +5.7121003195632286e-03
6.1999999999999940e+00 +8.1639122043664809e+00 +0.0000000000000000e+00 +6.1999998727635024e+00 -2.9280626652882336e-02 -5.6450462017537495e-01 +5.7121785427363759e-03
6.2999999999999936e+00 +8.1638768311656111e+00 +0.0000000000000000e+00 +6.2999998665070525e+00 -2.9280819837098061e-02 -5.6450498344657363e-01 +5.7122573923959761e-03
6.3999999999999932e+00 +8.1638408919884728e+00 +0.0000000000000000e+00 +6.3999998600487968e+00 -2.9281012571669825e-02 -5.6450534641161609e-01 +5.7123369150060988e-03
6.4999999999999929e+00 +8.1638043868347054e+00 +0.0000000000000000e+00 +6.4999998533855319e+00 -2.9281204552388970e-02 -5.6450570825545887e-01 +5.7124171570282324e-03
6.5999999999999925e+00 +8.1637673157039465e+00 +0.0000000000000000e+00 +6.5999998465140548e+00 -2.9281395474984085e-02 -5.6450606816306625e-01 +5.7124981649211599e-03
6.6999999999999922e+00 +8.1637296785958355e+00 +0.0000000000000000e+00 +6.6999998394311620e+00 -2.9281585035118355e-02 -5.6450642531940998e-01 +5.7125799851408428e-03
6.7999999999999918e+00 +8.1636914755100172e+00 +0.0000000000000000e+00 +6.7999998321336497e+00 -2.9281772928386820e-02 -5.6450677890947110e-01 +5.7126626641403003e-03
6.8999999999999915e+00 +8.1636527064461362e+00 +0.0000000000000000e+00 +6.8999998246183143e+00 -2.9281958850313625e-02 -5.6450712811823900e-01 +5.7127462483694902e-03
6.9999999999999911e+00 +8.1636133714038461e+00 +0.0000000000000000e+00 +6.9999998168819531e+00 -2.9282142496349306e-02 -5.6450747213071240e-01 +5.7128307842751911e-03
7.0999999999999908e+00 +8.1635734703828007e+00 +0.0000000000000000e+00 +7.0999998089213623e+00 -2.9282323561868086e-02 -5.6450781013189910e-01 +5.7129163183008841e-03
7.1999999999999904e+00 +8.1635330033826641e+00 +0.0000000000000000e+00 +7.1999998007333383e+00 -2.9282501742165099e-02 -5.6450814130681737e-01 +5.7130028968866231e-03
7.2999999999999901e+00 +8.1634919704031059e+00 +0.0000000000000000e+00 +7.2999997923146775e+00 -2.9282676732453706e-02 -5.6450846484049533e-01 +5.7130905664689331e-03
7.3999999999999897e+00 +8.1634503714438029e+00 +0.0000000000000000e+00 +7.3999997836621763e+00 -2.9282848227862764e-02 -5.6450877991797166e-01 +5.7131793734806749e-03
7.4999999999999893e+00 +8.1634082065044407e+00 +0.0000000000000000e+00 +7.4999997747726317e+00 -2.9283015923433867e-02 -5.6450908572429570e-01 +5.7132693643509374e-03
7.5999999999999890e+00 +8.1633654755847136e+00 +0.0000000000000000e+00 +7.5999997656428402e+00 -2.9283179514118681e-02 -5.6450938144452867e-01 +5.7133605855049108e-03
7.6999999999999886e+00 +8.1633221786843269e+00 +0.0000000000000000e+00 +7.6999997562695981e+00 -2.9283338694776125e-02 -5.6450966626374244e-01 +5.7134530833637693e-03
7.7999999999999883e+00 +8.1632783158029962e+00 +0.0000000000000000e+00 +7.7999997466497026e+00 -2.9283493160169757e-02 -5.6450993936702176e-01 +5.7135469043445540e-03
7.8999999999999879e+00 +8.1632338869404482e+00 +0.0000000000000000e+00 +7.8999997367799493e+00 -2.9283642604964976e-02 -5.6451019993946294e-01 +5.7136420948600509e-03
7.9999999999999876e+00 +8.1631888920964251e+00 +0.0000000000000000e+00 +7.9999997266571352e+00 -2.9283786723726273e-02 -5.6451044716617493e-01 +5.7137387013186719e-03
8.0999999999999872e+00 +8.1631433312706800e+00 +0.0000000000000000e+00 +8.0999997162780577e+00 -2.9283925299291434e-02 -5.6451068067971688e-01 +5.7138367438125696e-03
8.1999999999999869e+00 +8.1630972044629786e+00 +0.0000000000000000e+00 +8.1999997056395113e+00 -2.9284058467954687e-02 -5.6451090190241171e-01 +5.7139361371824331e-03
8.2999999999999865e+00 +8.1630505116731022e+00 +0.0000000000000000e+00 +8.2999996947382932e+00 -2.9284186454426060e-02 -5.6451111270401111e-01 +5.7140367699550932e-03
8.3999999999999861e+00 +8.1630032529008396e+00 +0.0000000000000000e+00 +8.3999996835712007e+00 -2.9284309483468097e-02 -5.6451131495424922e-01 +5.7141385306559832e-03
8.4999999999999858e+00 +8.1629554281459900e+00 +0.0000000000000000e+00 +8.4999996721350310e+00 -2.9284427779898006e-02 -5.6451151052284154e-01 +5.7142413078091142e-03
8.5999999999999854e+00 +8.1629070374083597e+00 +0.0000000000000000e+00 +8.5999996604265796e+00 -2.9284541568589707e-02 -5.6451170127948425e-01 +5.7143449899370678e-03
8.6999999999999851e+00 +8.1628580806877569e+00 +0.0000000000000000e+00 +8.6999996484426436e+00 -2.9284651074475931e-02 -5.6451188909385419e-01 +5.7144494655609612e-03
8.7999999999999847e+00 +8.1628085579839951e+00 +0.0000000000000000e+00 +8.7999996361800186e+00 -2.9284756522550349e-02 -5.6451207583560681e-01 +5.7145546232004506e-03
8.8999999999999844e+00 +8.1627584692968895e+00 +0.0000000000000000e+00 +8.8999996236355017e+00 -2.9284858137869664e-02 -5.6451226337437876e-01 +5.7146603513737095e-03
8.9999999999999840e+00 +8.1627078146262537e+00 +0.0000000000000000e+00 +8.9999996108058884e+00 -2.9284956145555690e-02 -5.6451245357978241e-01 +5.7147665385973920e-03
9.0999999999999837e+00 +8.1626565939718976e+00 +0.0000000000000000e+00 +9.0999995976879777e+00 -2.9285050770797478e-02 -5.6451264832141035e-01 +5.7148730733866393e-03
9.1999999999999833e+00 +8.1626048073336275e+00 +0.0000000000000000e+00 +9.1999995842785633e+00 -2.9285142238853409e-02 -5.6451284946883173e-01 +5.7149798442550602e-03
9.2999999999999829e+00 +8.1625524547112427e+00 +0.0000000000000000e+00 +9.2999995705744443e+00 -2.9285230775053257e-02 -5.6451305889159220e-01 +5.7150867397147012e-03
9.3999999999999826e+00 +8.1624995361045354e+00 +0.0000000000000000e+00 +9.3999995565724159e+00 -2.9285316604800347e-02 -5.6451327845921384e-01 +5.7151936482760382e-03
9.4999999999999822e+00 +8.1624460515132871e+00 +0.0000000000000000e+00 +9.4999995422692738e+00 -2.9285399953573592e-02 -5.6451351004119421e-01 +5.7153004584479588e-03
9.5999999999999819e+00 +8.1623920009372668e+00 +0.0000000000000000e+00 +9.5999995276618151e+00 -2.9285481046929632e-02 -5.6451375550700567e-01 +5.7154070587377452e-03
9.6999999999999815e+00 +8.1623373843762312e+00 +0.0000000000000000e+00 +9.6999995127468370e+00 -2.9285560110504923e-02 -5.6451401672609558e-01 +5.7155133376510549e-03
9.7999999999999812e+00 +8.1622822018299193e+00 +0.0000000000000000e+00 +9.7999994975211351e+00 -2.9285637370017797e-02 -5.6451429556788479e-01 +5.7156191836919097e-03
9.8999999999999808e+00 +8.1622264532980520e+00 +0.0000000000000000e+00 +9.8999994819815065e+00 -2.9285713051270607e-02 -5.6451459390176706e-01 +5.7157244853626729e-03
9.9999999999999805e+00 +8.1621701387803327e+00 +0.0000000000000000e+00 +9.9999994661247467e+00 -2.9285787380151806e-02 -5.6451491359710915e-01 +5.7158291311640384e-03
1.0099999999999980e+01 +8.1621132582764435e+00 +0.0000000000000000e+00 +1.0099999449947653e+01 -2.9285860557619673e-02 -5.6451525598909902e-01 +5.7159330373927767e-03
1.0199999999999980e+01 +8.1620558117860416e+00 +0.0000000000000000e+00 +1.0199999433447022e+01 -2.9285932684614761e-02 -5.6451562027629154e-01 +5.7160362315396354e-03
1.0299999999999979e+01 +8.1619977993087645e+00 +0.0000000000000000e+00 +1.0299999416619650e+01 -2.9286003837058996e-02 -5.6451600512313815e-01 +5.7161387689001995e-03
1.0399999999999979e+01 +8.1619392208442267e+00 +0.0000000000000000e+00 +1.0399999399462333e+01 -2.9286074090866351e-02 -5.6451640919416501e-01 +5.7162407047770848e-03
1.0499999999999979e+01 +8.1618800763920270e+00 +0.0000000000000000e+00 +1.0499999381971866e+01 -2.9286143521942476e-02 -5.6451683115397389e-01 +5.7163420944801712e-03
1.0599999999999978e+01 +8.1618203659517441e+00 +0.0000000000000000e+00 +1.0599999364145049e+01 -2.9286212206184364e-02 -5.6451726966724536e-01 +5.7164429933267624e-03
1.0699999999999978e+01 +8.1617600895229394e+00 +0.0000000000000000e+00 +1.0699999345978675e+01 -2.9286280219480040e-02 -5.6451772339873973e-01 +5.7165434566417888e-03
1.0799999999999978e+01 +8.1616992471051599e+00 +0.0000000000000000e+00 +1.0799999327469541e+01 -2.9286347637708165e-02 -5.6451819101329981e-01 +5.7166435397579922e-03
1.0899999999999977e+01 +8.1616378386979402e+00 +0.0000000000000000e+00 +1.0899999308614444e+01 -2.9286414536737769e-02 -5.6451867117585142e-01 +5.7167432980161194e-03
1.0999999999999977e+01 +8.1615758643008007e+00 +0.0000000000000000e+00 +1.0999999289410178e+01 -2.9286480992427776e-02 -5.6451916255140677e-01 +5.7168427867651190e-03
1.1099999999999977e+01 +8.1615133239132494e+00 +0.0000000000000000e+00 +1.1099999269853543e+01 -2.9286547080626828e-02 -5.6451966380506524e-01 +5.7169420613623033e-03
1.1199999999999976e+01 +8.1614502175347869e+00 +0.0000000000000000e+00 +1.1199999249941332e+01 -2.9286612877172796e-02 -5.6452017360201501e-01 +5.7170411771735761e-03
1.1299999999999976e+01 +8.1613865451649055e+00 +0.0000000000000000e+00 +1.1299999229670343e+01 -2.9286678457892509e-02 -5.6452069060753696e-01 +5.7171401895736015e-03
1.1399999999999975e+01 +8.1613223068030880e+00 +0.0000000000000000e+00 +1.1399999209037372e+01 -2.9286743898601423e-02 -5.6452121348700424e-01 +5.7172391539459843e-03
1.1499999999999975e+01 +8.1612575024488105e+00 +0.0000000000000000e+00 +1.1499999188039213e+01 -2.9286809275103184e-02 -5.6452174090588425e-01 +5.7173381256834790e-03
1.1599999999999975e+01 +8.1611921321015490e+00 +0.0000000000000000e+00 +1.1599999166672665e+01 -2.9286874663189435e-02 -5.6452227152974299e-01 +5.7174371601881732e-03
1.1699999999999974e+01 +8.1611261957607724e+00 +0.0000000000000000e+00 +1.1699999144934525e+01 -2.9286940138639288e-02 -5.6452280402424360e-01 +5.7175363128716674e-03
1.1799999999999974e+01 +8.1610596934259494e+00 +0.0000000000000000e+00 +1.1799999122821585e+01 -2.9287005777219124e-02 -5.6452333705515068e-01 +5.7176356391552743e-03
