# field on trajectory
# s[mm] rx[mm] ry[mm] rz[mm] bx[T] by[T] bz[T]
0.0000000000000000e+00 +8.1649999999999991e+00 +0.0000000000000000e+00 +0.0000000000000000e+00 -2.7656135570463456e-02 -5.3701150523832153e-01 +5.4517332527389507e-03
1.0000000000000001e-01 +8.1649997168257471e+00 +0.0000000000000000e+00 +9.9999999999465405e-02 -2.7656063000034904e-02 -5.3701156734514865e-01 +5.4517277588529908e-03
2.0000000000000001e-01 +8.1649988673029466e+00 +0.0000000000000000e+00 +1.9999999999572332e-01 -2.7655989761322892e-02 -5.3701163629447202e-01 +5.4517227148486464e-03
3.0000000000000004e-01 +8.1649974514315247e+00 +0.0000000000000000e+00 +2.9999999998556620e-01 -2.7655916328575517e-02 -5.3701171208751874e-01 +5.4517180849165689e-03
4.0000000000000002e-01 +8.1649954692114015e+00 +0.0000000000000000e+00 +3.9999999996578661e-01 -2.7655843176051870e-02 -5.3701179472552729e-01 +5.4517138332494542e-03
5.0000000000000000e-01 +8.1649929206424900e+00 +0.0000000000000000e+00 +4.9999999993317695e-01 -2.7655770778021463e-02 -5.3701188420974755e-01 +5.4517099240417389e-03
5.9999999999999998e-01 +8.1649898057246961e+00 +0.0000000000000000e+00 +5.9999999988452979e-01 -2.7655699608763518e-02 -5.3701198054143706e-01 +5.4517063214892802e-03
6.9999999999999996e-01 +8.1649861244579185e+00 +0.0000000000000000e+00 +6.9999999981663752e-01 -2.7655630142566251e-02 -5.3701208372186071e-01 +5.4517029897890486e-03
7.9999999999999993e-01 +8.1649818768420470e+00 +0.0000000000000000e+00 +7.9999999972629265e-01 -2.7655562853726268e-02 -5.3701219375228726e-01 +5.4516998931387955e-03
8.9999999999999991e-01 +8.1649770628769680e+00 +0.0000000000000000e+00 +8.9999999961028776e-01 -2.7655498216547763e-02 -5.3701231063398769e-01 +5.4516969957367498e-03
9.9999999999999989e-01 +8.1649716825625571e+00 +0.0000000000000000e+00 +9.9999999946541518e-01 -2.7655436705341981e-02 -5.3701243436823509e-01 +5.4516942617813119e-03
1.0999999999999999e+00 +8.1649657358986847e+00 +0.0000000000000000e+00 +1.0999999992884675e+00 -2.7655378794426439e-02 -5.3701256495629990e-01 +5.4516916554707131e-03
1.2000000000000000e+00 +8.1649592228852121e+00 +0.0000000000000000e+00 +1.1999999990762371e+00 -2.7655324958124332e-02 -5.3701270239945065e-01 +5.4516891410027321e-03
1.3000000000000000e+00 +8.1649521435219956e+00 +0.0000000000000000e+00 +1.2999999988255166e+00 -2.7655275670763688e-02 -5.3701284669894955e-01 +5.4516866825743459e-03
1.4000000000000001e+00 +8.1649444978088823e+00 +0.0000000000000000e+00 +1.3999999985330984e+00 -2.7655231406676920e-02 -5.3701299785605283e-01 +5.4516842443814483e-03
1.5000000000000002e+00 +8.1649362857457124e+00 +0.0000000000000000e+00 +1.4999999981957748e+00 -2.7655192640199961e-02 -5.3701315587200682e-01 +5.4516817906185037e-03
1.6000000000000003e+00 +8.1649275073323206e+00 +0.0000000000000000e+00 +1.5999999978103385e+00 -2.7655159845671667e-02 -5.3701332074804797e-01 +5.4516792854782548e-03
1.7000000000000004e+00 +8.1649181625685348e+00 +0.0000000000000000e+00 +1.6999999973735818e+00 -2.7655133497433128e-02 -5.3701349248539898e-01 +5.4516766931513999e-03
1.8000000000000005e+00 +8.1649082514541718e+00 +0.0000000000000000e+00 +1.7999999968822973e+00 -2.7655114069826976e-02 -5.3701367108526854e-01 +5.4516739778262711e-03
1.9000000000000006e+00 +8.1648977739890451e+00 +0.0000000000000000e+00 +1.8999999963332772e+00 -2.7655102037196688e-02 -5.3701385654884803e-01 +5.4516711036885282e-03
2.0000000000000004e+00 +8.1648867301729577e+00 +0.0000000000000000e+00 +1.9999999957233141e+00 -2.7655097873885971e-02 -5.3701404887731030e-01 +5.4516680349208394e-03
2.1000000000000005e+00 +8.1648751200057088e+00 +0.0000000000000000e+00 +2.0999999950492008e+00 -2.7655101909965122e-02 -5.3701424797479413e-01 +5.4516647529698585e-03
2.2000000000000006e+00 +8.1648629434870887e+00 +0.0000000000000000e+00 +2.1999999943077291e+00 -2.7655113898411535e-02 -5.3701445335736464e-01 +5.4516613083491214e-03
2.3000000000000007e+00 +8.1648502006168808e+00 +0.0000000000000000e+00 +2.2999999934956916e+00 -2.7655133447927704e-02 -5.3701466444407164e-01 +5.4516577688394378e-03
2.4000000000000008e+00 +8.1648368913948630e+00 +0.0000000000000000e+00 +2.3999999926098812e+00 -2.7655160167213477e-02 -5.3701488065396596e-01 +5.4516542022220510e-03
2.5000000000000009e+00 +8.1648230158208079e+00 +0.0000000000000000e+00 +2.4999999916470896e+00 -2.7655193664965376e-02 -5.3701510140610198e-01 +5.4516506762788070e-03
2.6000000000000010e+00 +8.1648085738944829e+00 +0.0000000000000000e+00 +2.5999999906041098e+00 -2.7655233549875882e-02 -5.3701532611953628e-01 +5.4516472587922893e-03
2.7000000000000011e+00 +8.1647935656156516e+00 +0.0000000000000000e+00 +2.6999999894777340e+00 -2.7655279430632746e-02 -5.3701555421332992e-01 +5.4516440175459945e-03
2.8000000000000012e+00 +8.1647779909840725e+00 +0.0000000000000000e+00 +2.7999999882647546e+00 -2.7655330915918305e-02 -5.3701578510654913e-01 +5.4516410203244671e-03
2.9000000000000012e+00 +8.1647618499995058e+00 +0.0000000000000000e+00 +2.8999999869619639e+00 -2.7655387614408777e-02 -5.3701601821826483e-01 +5.4516383349134633e-03
3.0000000000000013e+00 +8.1647451426617028e+00 +0.0000000000000000e+00 +2.9999999855661548e+00 -2.7655449134773628e-02 -5.3701625296755628e-01 +5.4516360291001114e-03
3.1000000000000014e+00 +8.1647278689704184e+00 +0.0000000000000000e+00 +3.0999999840741190e+00 -2.7655515085674723e-02 -5.3701648877350860e-01 +5.4516341706730411e-03
3.2000000000000015e+00 +8.1647100289254055e+00 +0.0000000000000000e+00 +3.1999999824826495e+00 -2.7655585075765855e-02 -5.3701672505521625e-01 +5.4516328274225737e-03
3.3000000000000016e+00 +8.1646916225264139e+00 +0.0000000000000000e+00 +3.2999999807885381e+00 -2.7655658713691876e-02 -5.3701696123178277e-01 +5.4516320671408403e-03
3.4000000000000017e+00 +8.1646726497731965e+00 +0.0000000000000000e+00 +3.3999999789885775e+00 -2.7655735608088060e-02 -5.3701719672232084e-01 +5.4516319576219628e-03
3.5000000000000018e+00 +8.1646531106655047e+00 +0.0000000000000000e+00 +3.4999999770795602e+00 -2.7655815367579481e-02 -5.3701743094595533e-01 +5.4516325666621943e-03
3.6000000000000019e+00 +8.1646330052030915e+00 +0.0000000000000000e+00 +3.5999999750582785e+00 -2.7655897600780188e-02 -5.3701766332182199e-01 +5.4516339620600774e-03
3.7000000000000020e+00 +8.1646123333857137e+00 +0.0000000000000000e+00 +3.6999999729215247e+00 -2.7655981916292628e-02 -5.3701789326906957e-01 +5.4516362116165942e-03
3.8000000000000020e+00 +8.1645910952131295e+00 +0.0000000000000000e+00 +3.7999999706660912e+00 -2.7656067922706865e-02 -5.3701812020685979e-01 +5.4516393831353241e-03
3.9000000000000021e+00 +8.1645692906850993e+00 +0.0000000000000000e+00 +3.8999999682887703e+00 -2.7656155228599971e-02 -5.3701834355436939e-01 +5.4516435444226033e-03
4.0000000000000018e+00 +8.1645469198013885e+00 +0.0000000000000000e+00 +3.9999999657863543e+00 -2.7656243442535269e-02 -5.3701856273078974e-01 +5.4516487632876674e-03
4.1000000000000014e+00 +8.1645239825617679e+00 +0.0000000000000000e+00 +4.0999999631556356e+00 -2.7656332107611717e-02 -5.3701877736365400e-01 +5.4516550913246715e-03
4.2000000000000011e+00 +8.1645004789660103e+00 +0.0000000000000000e+00 +4.1999999603934066e+00 -2.7656420505111873e-02 -5.3701898791380087e-01 +5.4516625152570717e-03
4.3000000000000007e+00 +8.1644764090138953e+00 +0.0000000000000000e+00 +4.2999999574964596e+00 -2.7656507850849100e-02 -5.3701919505037099e-01 +5.4516710055898402e-03
4.4000000000000004e+00 +8.1644517727052044e+00 +0.0000000000000000e+00 +4.3999999544615873e+00 -2.7656593360616436e-02 -5.3701939944247590e-01 +5.4516805328272593e-03
4.5000000000000000e+00 +8.1644265700397227e+00 +0.0000000000000000e+00 +4.4999999512855817e+00 -2.7656676250185707e-02 -5.3701960175919317e-01 +5.4516910674728310e-03
4.5999999999999996e+00 +8.1644008010172389e+00 +0.0000000000000000e+00 +4.5999999479652356e+00 -2.7656755735306657e-02 -5.3701980266956995e-01 +5.4517025800292053e-03
4.6999999999999993e+00 +8.1643744656375414e+00 +0.0000000000000000e+00 +4.6999999444973408e+00 -2.7656831031706016e-02 -5.3702000284261564e-01 +5.4517150409980871e-03
4.7999999999999989e+00 +8.1643475639004190e+00 +0.0000000000000000e+00 +4.7999999408786902e+00 -2.7656901355086576e-02 -5.3702020294730368e-01 +5.4517284208801704e-03
4.8999999999999986e+00 +8.1643200958056621e+00 +0.0000000000000000e+00 +4.8999999371060756e+00 -2.7656965921126354e-02 -5.3702040365256898e-01 +5.4517426901750524e-03
4.9999999999999982e+00 +8.1642920613530610e+00 +0.0000000000000000e+00 +4.9999999331762890e+00 -2.7657023945477633e-02 -5.3702060562730447e-01 +5.4517578193811513e-03
5.0999999999999979e+00 +8.1642634605424007e+00 +0.0000000000000000e+00 +5.0999999290861231e+00 -2.7657074643766086e-02 -5.3702080954036169e-01 +5.4517737789956233e-03
5.1999999999999975e+00 +8.1642342933734700e+00 +0.0000000000000000e+00 +5.1999999248323707e+00 -2.7657117231589860e-02 -5.3702101606054675e-01 +5.4517905395142967e-03
5.2999999999999972e+00 +8.1642045598460502e+00 +0.0000000000000000e+00 +5.2999999204118238e+00 -2.7657150924518738e-02 -5.3702122585662015e-01 +5.4518080714315680e-03
5.3999999999999968e+00 +8.1641742599599212e+00 +0.0000000000000000e+00 +5.3999999158212741e+00 -2.7657174938093138e-02 -5.3702143959729398e-01 +5.4518263452403475e-03
5.4999999999999964e+00 +8.1641433937148591e+00 +0.0000000000000000e+00 +5.4999999110575146e+00 -2.7657188487823295e-02 -5.3702165795123058e-01 +5.4518453314319586e-03
5.5999999999999961e+00 +8.1641119611106348e+00 +0.0000000000000000e+00 +5.5999999061173380e+00 -2.7657190789188310e-02 -5.3702188158704056e-01 +5.4518650004960712e-03
5.6999999999999957e+00 +8.1640799621470119e+00 +0.0000000000000000e+00 +5.6999999009975362e+00 -2.7657181057635309e-02 -5.3702211117328102e-01 +5.4518853229206113e-03
5.7999999999999954e+00 +8.1640473968237508e+00 +0.0000000000000000e+00 +5.7999998956949010e+00 -2.7657158508578483e-02 -5.3702234737845322e-01 +5.4519062691916883e-03
5.8999999999999950e+00 +8.1640142651406027e+00 +0.0000000000000000e+00 +5.8999998902062254e+00 -2.7657122357398228e-02 -5.3702259087100201e-01 +5.4519278097935123e-03
5.9999999999999947e+00 +8.1639805670973100e+00 +0.0000000000000000e+00 +5.9999998845283011e+00 -2.7657071819440229e-02 -5.3702284231931197e-01 +5.4519499152083078e-03
6.0999999999999943e+00 +8.1639463026936117e+00 +0.0000000000000000e+00 +6.0999998786579201e+00 -2.7657006489253164e-02 -5.3702310225454086e-01 +5.4519725454565049e-03
6.1999999999999940e+00 +8.1639114719292323e+00 +0.0000000000000000e+00 +6.1999998725918752e+00 -2.7656927478337485e-02 -5.3702337065915196e-01 +5.4519956187177006e-03
6.2999999999999936e+00 +8.1638760748038912e+00 +0.0000000000000000e+00 +6.2999998663269592e+00 -2.7656836277477993e-02 -5.3702364737848862e-01 +5.4520190427106577e-03
6.3999999999999932e+00 +8.1638401113172971e+00 +0.0000000000000000e+00 +6.3999998598599639e+00 -2.7656734377512357e-02 -5.3702393225795630e-01 +5.4520427251531951e-03
6.4999999999999929e+00 +8.1638035814691516e+00 +0.0000000000000000e+00 +6.4999998531876813e+00 -2.7656623269333592e-02 -5.3702422514302417e-01 +5.4520665737621682e-03
6.5999999999999925e+00 +8.1637664852591474e+00 +0.0000000000000000e+00 +6.5999998463069032e+00 -2.7656504443892772e-02 -5.3702452587922922e-01 +5.4520904962534252e-03
6.6999999999999922e+00 +8.1637288226869664e+00 +0.0000000000000000e+00 +6.6999998392144224e+00 -2.7656379392201495e-02 -5.3702483431217862e-01 +5.4521144003417919e-03
6.7999999999999918e+00 +8.1636905937522855e+00 +0.0000000000000000e+00 +6.7999998319070309e+00 -2.7656249605334627e-02 -5.3702515028755360e-01 +5.4521381937410436e-03
6.8999999999999915e+00 +8.1636517984547741e+00 +0.0000000000000000e+00 +6.8999998243815215e+00 -2.7656116574432815e-02 -5.3702547365111175e-01 +5.4521617841638767e-03
6.9999999999999911e+00 +8.1636124367940912e+00 +0.0000000000000000e+00 +6.9999998166346860e+00 -2.7655981790705123e-02 -5.3702580424869084e-01 +5.4521850793218763e-03
7.0999999999999908e+00 +8.1635725087698887e+00 +0.0000000000000000e+00 +7.0999998086633163e+00 -2.7655846745431568e-02 -5.3702614192621090e-01 +5.4522079869254933e-03
7.1999999999999904e+00 +8.1635320143818131e+00 +0.0000000000000000e+00 +7.1999998004642052e+00 -2.7655712929965846e-02 -5.3702648652967866e-01 +5.4522304146840169e-03
7.2999999999999901e+00 +8.1634909536295019e+00 +0.0000000000000000e+00 +7.2999997920341446e+00 -2.7655581835737776e-02 -5.3702683790518946e-01 +5.4522522703055534e-03
7.3999999999999897e+00 +8.1634493265125858e+00 +0.0000000000000000e+00 +7.3999997833699265e+00 -2.7655454954256035e-02 -5.3702719589893078e-01 +5.4522734614969818e-03
7.4999999999999893e+00 +8.1634071330306881e+00 +0.0000000000000000e+00 +7.4999997744683427e+00 -2.7655333777110644e-02 -5.3702756035718524e-01 +5.4522938959639502e-03
7.5999999999999890e+00 +8.1633643731834269e+00 +0.0000000000000000e+00 +7.5999997653261859e+00 -2.7655219795975666e-02 -5.3702793112633429e-01 +5.4523134814108325e-03
7.6999999999999886e+00 +8.1633210469704114e+00 +0.0000000000000000e+00 +7.6999997559402482e+00 -2.7655114502611731e-02 -5.3702830805286006e-01 +5.4523321255407009e-03
7.7999999999999883e+00 +8.1632771543912455e+00 +0.0000000000000000e+00 +7.7999997463073214e+00 -2.7655019388868669e-02 -5.3702869098334971e-01 +5.4523497360553152e-03
7.8999999999999879e+00 +8.1632326954455277e+00 +0.0000000000000000e+00 +7.8999997364241983e+00 -2.7654935946688091e-02 -5.3702907976449743e-01 +5.4523662206550716e-03
7.9999999999999876e+00 +8.1631876701328494e+00 +0.0000000000000000e+00 +7.9999997262876699e+00 -2.7654865668105974e-02 -5.3702947424310832e-01 +5.4523814870390003e-03
8.0999999999999872e+00 +8.1631420784527950e+00 +0.0000000000000000e+00 +8.0999997158945298e+00 -2.7654809598474071e-02 -5.3702987421501913e-01 +5.4523954797838520e-03
8.1999999999999869e+00 +8.1630959204049454e+00 +0.0000000000000000e+00 +8.1999997052415683e+00 -2.7654766996046250e-02 -5.3703027927181024e-01 +5.4524082909860345e-03
8.2999999999999865e+00 +8.1630491959888740e+00 +0.0000000000000000e+00 +8.2999996943255780e+00 -2.7654736672228827e-02 -5.3703068895398487e-01 +5.4524200496296679e-03
8.3999999999999861e+00 +8.1630019052041494e+00 +0.0000000000000000e+00 +8.3999996831433528e+00 -2.7654717438352266e-02 -5.3703110280204158e-01 +5.4524308847079617e-03
8.4999999999999858e+00 +8.1629540480503380e+00 +0.0000000000000000e+00 +8.4999996716916826e+00 -2.7654708105668415e-02 -5.3703152035647250e-01 +5.4524409252234961e-03
8.5999999999999854e+00 +8.1629056245270011e+00 +0.0000000000000000e+00 +8.5999996599673594e+00 -2.7654707485347842e-02 -5.3703194115776387e-01 +5.4524503001885148e-03
8.6999999999999851e+00 +8.1628566346336964e+00 +0.0000000000000000e+00 +8.6999996479671768e+00 -2.7654714388477119e-02 -5.3703236474639415e-01 +5.4524591386251884e-03
8.7999999999999847e+00 +8.1628070783699780e+00 +0.0000000000000000e+00 +8.7999996356879269e+00 -2.7654727626056044e-02 -5.3703279066283482e-01 +5.4524675695659160e-03
8.8999999999999844e+00 +8.1627569557354001e+00 +0.0000000000000000e+00 +8.8999996231263996e+00 -2.7654746008995021e-02 -5.3703321844754837e-01 +5.4524757220535966e-03
8.9999999999999840e+00 +8.1627062667295114e+00 +0.0000000000000000e+00 +8.9999996102793887e+00 -2.7654768348112251e-02 -5.3703364764098838e-01 +5.4524837251419163e-03
9.0999999999999837e+00 +8.1626550113518626e+00 +0.0000000000000000e+00 +9.0999995971436860e+00 -2.7654793454131101e-02 -5.3703407778359780e-01 +5.4524917078956261e-03
9.1999999999999833e+00 +8.1626031896020006e+00 +0.0000000000000000e+00 +9.1999995837160835e+00 -2.7654820137677297e-02 -5.3703450841581024e-01 +5.4524997993908248e-03
9.2999999999999829e+00 +8.1625508014794725e+00 +0.0000000000000000e+00 +9.2999995699933713e+00 -2.7654847209276273e-02 -5.3703493907804711e-01 +5.4525081287152477e-03
9.3999999999999826e+00 +8.1624978469838272e+00 +0.0000000000000000e+00 +9.3999995559723430e+00 -2.7654873479350452e-02 -5.3703536931071794e-01 +5.4525168249685407e-03
9.4999999999999822e+00 +8.1624443261146116e+00 +0.0000000000000000e+00 +9.4999995416497907e+00 -2.7654897758216491e-02 -5.3703579865421958e-01 +5.4525260172625413e-03
9.5999999999999819e+00 +8.1623902388713745e+00 +0.0000000000000000e+00 +9.5999995270225060e+00 -2.7654918856082594e-02 -5.3703622664893558e-01 +5.4525358347215658e-03
9.6999999999999815e+00 +8.1623355852536665e+00 +0.0000000000000000e+00 +9.6999995120872811e+00 -2.7654935583045791e-02 -5.3703665283523583e-01 +5.4525464064826973e-03
9.7999999999999812e+00 +8.1622803652610401e+00 +0.0000000000000000e+00 +9.7999994968409077e+00 -2.7654946749089186e-02 -5.3703707675347445e-01 +5.4525578616960429e-03
9.8999999999999808e+00 +8.1622245788930510e+00 +0.0000000000000000e+00 +9.8999994812801777e+00 -2.7654951164079306e-02 -5.3703749794399125e-01 +5.4525703295250413e-03
9.9999999999999805e+00 +8.1621682261492552e+00 +0.0000000000000000e+00 +9.9999994654018849e+00 -2.7654947637763317e-02 -5.3703791594710848e-01 +5.4525839391467339e-03
1.0099999999999980e+01 +8.1621113070292157e+00 +0.0000000000000000e+00 +1.0099999449202819e+01 -2.7654935409745687e-02 -5.3703833046214855e-01 +5.4525987949272424e-03
1.0199999999999980e+01 +8.1620538215324956e+00 +0.0000000000000000e+00 +1.0199999432679773e+01 -2.7654915439531125e-02 -5.3703874182445488e-01 +5.4526149019364150e-03
1.0299999999999979e+01 +8.1619957696586631e+00 +0.0000000000000000e+00 +1.0299999415829538e+01 -2.7654889116712787e-02 -5.3703915052827733e-01 +5.4526322404060933e-03
1.0399999999999979e+01 +8.1619371514072885e+00 +0.0000000000000000e+00 +1.0399999398648905e+01 -2.7654857831002053e-02 -5.3703955706773931e-01 +5.4526507905529138e-03
1.0499999999999979e+01 +8.1618779667779453e+00 +0.0000000000000000e+00 +1.0499999381134668e+01 -2.7654822972231773e-02 -5.3703996193683468e-01 +5.4526705325778609e-03
1.0599999999999978e+01 +8.1618182157702091e+00 +0.0000000000000000e+00 +1.0599999363283619e+01 -2.7654785930359405e-02 -5.3704036562942359e-01 +5.4526914466658440e-03
1.0699999999999978e+01 +8.1617578983836552e+00 +0.0000000000000000e+00 +1.0699999345092548e+01 -2.7654748095470295e-02 -5.3704076863923078e-01 +5.4527135129852711e-03
1.0799999999999978e+01 +8.1616970146178609e+00 +0.0000000000000000e+00 +1.0799999326558249e+01 -2.7654710857780793e-02 -5.3704117145984120e-01 +5.4527367116876122e-03
1.0899999999999977e+01 +8.1616355644724035e+00 +0.0000000000000000e+00 +1.0899999307677511e+01 -2.7654675607641521e-02 -5.3704157458469681e-01 +5.4527610229069710e-03
1.0999999999999977e+01 +8.1615735479468583e+00 +0.0000000000000000e+00 +1.0999999288447128e+01 -2.7654643735540524e-02 -5.3704197850709467e-01 +5.4527864267596461e-03
1.1099999999999977e+01 +8.1615109650408026e+00 +0.0000000000000000e+00 +1.1099999268863892e+01 -2.7654616632106544e-02 -5.3704238372018132e-01 +5.4528129033437206e-03
1.1199999999999976e+01 +8.1614478157538120e+00 +0.0000000000000000e+00 +1.1199999248924593e+01 -2.7654595688112148e-02 -5.3704279071695249e-01 +5.4528404327386006e-03
1.1299999999999976e+01 +8.1613841000854563e+00 +0.0000000000000000e+00 +1.1299999228626024e+01 -2.7654582294476950e-02 -5.3704319999024652e-01 +5.4528689950046165e-03
1.1399999999999975e+01 +8.1613198180353077e+00 +0.0000000000000000e+00 +1.1399999207964980e+01 -2.7654577842270864e-02 -5.3704361203274453e-01 +5.4528985701825681e-03
1.1499999999999975e+01 +8.1612549696029344e+00 +0.0000000000000000e+00 +1.1499999186938249e+01 -2.7654583722717209e-02 -5.3704402733696432e-01 +5.4529291382933000e-03
1.1599999999999975e+01 +8.1611895547878994e+00 +0.0000000000000000e+00 +1.1599999165542622e+01 -2.7654601327196025e-02 -5.3704444639525972e-01 +5.4529606793372876e-03
1.1699999999999974e+01 +8.1611235735897640e+00 +0.0000000000000000e+00 +1.1699999143774892e+01 -2.7654632047247187e-02 -5.3704486969981502e-01 +5.4529931732941730e-03
1.1799999999999974e+01 +8.1610570260080824e+00 +0.0000000000000000e+00 +1.1799999121631853e+01 -2.7654677274573651e-02 -5.3704529774264298e-01 +5.4530266001223621e-03
