# field on trajectory
# s[mm] rx[mm] ry[mm] rz[mm] bx[T] by[T] bz[T]
0.0000000000000000e+00 +7.9199999999999999e+00 +0.0000000000000000e+00 +0.0000000000000000e+00 -2.9634722713461063e-02 -5.6621734089904951e-01 +5.7071769350644438e-03
-1.0000000000000001e-01 +7.9199997170871352e+00 +0.0000000000000000e+00 -9.9999999999466405e-02 -2.9634629616319946e-02 -5.6621758848748016e-01 +5.7071725527030135e-03
-2.0000000000000001e-01 +7.9199988683483804e+00 +0.0000000000000000e+00 -1.9999999999573120e-01 -2.9634541587260841e-02 -5.6621781678695216e-01 +5.7071664349811480e-03
-3.0000000000000004e-01 +7.9199974537835072e+00 +0.0000000000000000e+00 -2.9999999998559285e-01 -2.9634457793106618e-02 -5.6621802729347848e-01 +5.7071586886704266e-03
-4.0000000000000002e-01 +7.9199954733923050e+00 +0.0000000000000000e+00 -3.9999999996584967e-01 -2.9634377400685932e-02 -5.6621822150306200e-01 +5.7071494205441229e-03
-5.0000000000000000e-01 +7.9199929271745804e+00 +0.0000000000000000e+00 -4.9999999993330013e-01 -2.9634299576832650e-02 -5.6621840091169673e-01 +5.7071387373770939e-03
-5.9999999999999998e-01 +7.9199898151301529e+00 +0.0000000000000000e+00 -5.9999999988474262e-01 -2.9634223488385316e-02 -5.6621856701536866e-01 +5.7071267459456922e-03
-6.9999999999999996e-01 +7.9199861372588574e+00 +0.0000000000000000e+00 -6.9999999981697547e-01 -2.9634148302186622e-02 -5.6621872131005990e-01 +5.7071135530276738e-03
-7.9999999999999993e-01 +7.9199818935605393e+00 +0.0000000000000000e+00 -7.9999999972679725e-01 -2.9634073185082828e-02 -5.6621886529174748e-01 +5.7070992654020816e-03
-8.9999999999999991e-01 +7.9199770840350547e+00 +0.0000000000000000e+00 -8.9999999961100619e-01 -2.9633997303923226e-02 -5.6621900045640694e-01 +5.7070839898491609e-03
-9.9999999999999989e-01 +7.9199717086822687e+00 +0.0000000000000000e+00 -9.9999999946640072e-01 -2.9633919825559608e-02 -5.6621912830001353e-01 +5.7070678331502559e-03
-1.0999999999999999e+00 +7.9199657675020534e+00 +0.0000000000000000e+00 -1.0999999992897793e+00 -2.9633839916845671e-02 -5.6621925031854314e-01 +5.7070509020877049e-03
-1.2000000000000000e+00 +7.9199592604942870e+00 +0.0000000000000000e+00 -1.1999999990779402e+00 -2.9633756744636537e-02 -5.6621936800797590e-01 +5.7070333034447600e-03
-1.3000000000000000e+00 +7.9199521876588523e+00 +0.0000000000000000e+00 -1.2999999988276818e+00 -2.9633669475788122e-02 -5.6621948286429535e-01 +5.7070151440054683e-03
-1.4000000000000001e+00 +7.9199445489956348e+00 +0.0000000000000000e+00 -1.3999999985358025e+00 -2.9633577277156674e-02 -5.6621959638349206e-01 +5.7069965305545835e-03
-1.5000000000000002e+00 +7.9199363445045208e+00 +0.0000000000000000e+00 -1.4999999981991008e+00 -2.9633479315598163e-02 -5.6621971006156446e-01 +5.7069775698774666e-03
-1.6000000000000003e+00 +7.9199275741853965e+00 +0.0000000000000000e+00 -1.5999999978143749e+00 -2.9633374757967769e-02 -5.6621982539452120e-01 +5.7069583687599911e-03
-1.7000000000000004e+00 +7.9199182380381474e+00 +0.0000000000000000e+00 -1.6999999973784232e+00 -2.9633262771119273e-02 -5.6621994387838159e-01 +5.7069390339884313e-03
-1.8000000000000005e+00 +7.9199083360626545e+00 +0.0000000000000000e+00 -1.7999999968880442e+00 -2.9633142521904601e-02 -5.6622006700917871e-01 +5.7069196723493762e-03
-1.9000000000000006e+00 +7.9198978682587953e+00 +0.0000000000000000e+00 -1.8999999963400362e+00 -2.9633013177173220e-02 -5.6622019628296050e-01 +5.7069003906296337e-03
-2.0000000000000004e+00 +7.9198868346264408e+00 +0.0000000000000000e+00 -1.9999999957311976e+00 -2.9632873903771572e-02 -5.6622033319579113e-01 +5.7068812956161136e-03
-2.1000000000000005e+00 +7.9198752351654553e+00 +0.0000000000000000e+00 -2.0999999950583268e+00 -2.9632724245820780e-02 -5.6622047918137219e-01 +5.7068624875428299e-03
-2.2000000000000006e+00 +7.9198630698756922e+00 +0.0000000000000000e+00 -2.1999999943182220e+00 -2.9632565256551214e-02 -5.6622063542389756e-01 +5.7068440404313553e-03
-2.3000000000000007e+00 +7.9198503387569961e+00 +0.0000000000000000e+00 -2.2999999935076816e+00 -2.9632398366467656e-02 -5.6622080304518052e-01 +5.7068260217482125e-03
-2.4000000000000008e+00 +7.9198370418091990e+00 +0.0000000000000000e+00 -2.3999999926235041e+00 -2.9632225006070545e-02 -5.6622098316703284e-01 +5.7068084989572929e-03
-2.5000000000000009e+00 +7.9198231790321225e+00 +0.0000000000000000e+00 -2.4999999916624875e+00 -2.9632046605855566e-02 -5.6622117691126361e-01 +5.7067915395195489e-03
-2.6000000000000010e+00 +7.9198087504255721e+00 +0.0000000000000000e+00 -2.5999999906214306e+00 -2.9631864596313142e-02 -5.6622138539967837e-01 +5.7067752108926305e-03
-2.7000000000000011e+00 +7.9197937559893408e+00 +0.0000000000000000e+00 -2.6999999894971314e+00 -2.9631680407927991e-02 -5.6622160975407831e-01 +5.7067595805305703e-03
-2.8000000000000012e+00 +7.9197781957232039e+00 +0.0000000000000000e+00 -2.7999999882863884e+00 -2.9631495471178687e-02 -5.6622185109625955e-01 +5.7067447158834529e-03
-2.9000000000000012e+00 +7.9197620696269215e+00 +0.0000000000000000e+00 -2.8999999869860003e+00 -2.9631311216537171e-02 -5.6622211054801230e-01 +5.7067306843970687e-03
-3.0000000000000013e+00 +7.9197453777002345e+00 +0.0000000000000000e+00 -2.9999999855927646e+00 -2.9631129074468271e-02 -5.6622238923111956e-01 +5.7067175535125952e-03
-3.1000000000000014e+00 +7.9197281199428646e+00 +0.0000000000000000e+00 -3.0999999841034804e+00 -2.9630950475429310e-02 -5.6622268826735755e-01 +5.7067053906662505e-03
-3.2000000000000015e+00 +7.9197102963545136e+00 +0.0000000000000000e+00 -3.1999999825149454e+00 -2.9630776849869575e-02 -5.6622300877849285e-01 +5.7066942632889705e-03
-3.3000000000000016e+00 +7.9196919069348617e+00 +0.0000000000000000e+00 -3.2999999808239582e+00 -2.9630609628229901e-02 -5.6622335188628403e-01 +5.7066842388060757e-03
-3.4000000000000017e+00 +7.9196729516835669e+00 +0.0000000000000000e+00 -3.3999999790273172e+00 -2.9630450240942168e-02 -5.6622371871247845e-01 +5.7066753846369278e-03
-3.5000000000000018e+00 +7.9196534306002624e+00 +0.0000000000000000e+00 -3.4999999771218202e+00 -2.9630300118428866e-02 -5.6622411037881282e-01 +5.7066677681946038e-03
-3.6000000000000019e+00 +7.9196333436845574e+00 +0.0000000000000000e+00 -3.5999999751042657e+00 -2.9630160691102657e-02 -5.6622452800701295e-01 +5.7066614568855676e-03
-3.7000000000000020e+00 +7.9196126909360354e+00 +0.0000000000000000e+00 -3.6999999729714523e+00 -2.9630033389365869e-02 -5.6622497271879102e-01 +5.7066565181093281e-03
-3.8000000000000020e+00 +7.9195914723542522e+00 +0.0000000000000000e+00 -3.7999999707201777e+00 -2.9629919643610038e-02 -5.6622544563584565e-01 +5.7066530192581089e-03
-3.9000000000000021e+00 +7.9195696879387363e+00 +0.0000000000000000e+00 -3.8999999683472404e+00 -2.9629820884215504e-02 -5.6622594787986258e-01 +5.7066510277165132e-03
-4.0000000000000018e+00 +7.9195473376889867e+00 +0.0000000000000000e+00 -3.9999999658494385e+00 -2.9629738541550855e-02 -5.6622648057251079e-01 +5.7066506108611973e-03
-4.1000000000000014e+00 +7.9195244216044713e+00 +0.0000000000000000e+00 -4.0999999632235706e+00 -2.9629673468788652e-02 -5.6622704412304847e-01 +5.7066517970146740e-03
-4.2000000000000011e+00 +7.9195009396846272e+00 +0.0000000000000000e+00 -4.1999999604664344e+00 -2.9629624210351566e-02 -5.6622763609113402e-01 +5.7066544583106275e-03
-4.3000000000000007e+00 +7.9194768919288645e+00 +0.0000000000000000e+00 -4.2999999575748280e+00 -2.9629588733465800e-02 -5.6622825332401960e-01 +5.7066584278373028e-03
-4.4000000000000004e+00 +7.9194522783365677e+00 +0.0000000000000000e+00 -4.3999999545455495e+00 -2.9629565005346008e-02 -5.6622889266894816e-01 +5.7066635386845248e-03
-4.5000000000000000e+00 +7.9194270989070992e+00 +0.0000000000000000e+00 -4.4999999513753979e+00 -2.9629550993194899e-02 -5.6622955097315408e-01 +5.7066696239439635e-03
-4.5999999999999996e+00 +7.9194013536398016e+00 +0.0000000000000000e+00 -4.5999999480611704e+00 -2.9629544664202929e-02 -5.6623022508386200e-01 +5.7066765167094018e-03
-4.6999999999999993e+00 +7.9193750425340026e+00 +0.0000000000000000e+00 -4.6999999445996652e+00 -2.9629543985547915e-02 -5.6623091184828744e-01 +5.7066840500770129e-03
-4.7999999999999989e+00 +7.9193481655890166e+00 +0.0000000000000000e+00 -4.7999999409876812e+00 -2.9629546924394699e-02 -5.6623160811363549e-01 +5.7066920571456244e-03
-4.8999999999999986e+00 +7.9193207228041489e+00 +0.0000000000000000e+00 -4.8999999372220158e+00 -2.9629551447894774e-02 -5.6623231072710112e-01 +5.7067003710169970e-03
-4.9999999999999982e+00 +7.9192927141786988e+00 +0.0000000000000000e+00 -4.9999999332994669e+00 -2.9629555523185962e-02 -5.6623301653586888e-01 +5.7067088247960843e-03
-5.0999999999999979e+00 +7.9192641397119621e+00 +0.0000000000000000e+00 -5.0999999292168328e+00 -2.9629557117392062e-02 -5.6623372238711223e-01 +5.7067172515913138e-03
-5.1999999999999975e+00 +7.9192349994032352e+00 +0.0000000000000000e+00 -5.1999999249709115e+00 -2.9629554197622476e-02 -5.6623442512799360e-01 +5.7067254845148520e-03
-5.2999999999999972e+00 +7.9192052932518164e+00 +0.0000000000000000e+00 -5.2999999205585011e+00 -2.9629544730971857e-02 -5.6623512160566358e-01 +5.7067333566828806e-03
-5.3999999999999968e+00 +7.9191750212570113e+00 +0.0000000000000000e+00 -5.3999999159763989e+00 -2.9629526684519802e-02 -5.6623580866726098e-01 +5.7067407012158632e-03
-5.4999999999999964e+00 +7.9191441834181342e+00 +0.0000000000000000e+00 -5.4999999112214040e+00 -2.9629498025330440e-02 -5.6623648315991282e-01 +5.7067473512388157e-03
-5.5999999999999961e+00 +7.9191127797345118e+00 +0.0000000000000000e+00 -5.5999999062903134e+00 -2.9629456720452124e-02 -5.6623714193073316e-01 +5.7067531398815865e-03
-5.6999999999999957e+00 +7.9190808102054877e+00 +0.0000000000000000e+00 -5.6999999011799263e+00 -2.9629400736917090e-02 -5.6623778182682383e-01 +5.7067579002791193e-03
-5.7999999999999954e+00 +7.9190482748304243e+00 +0.0000000000000000e+00 -5.7999998958870398e+00 -2.9629328041741038e-02 -5.6623839969527279e-01 +5.7067614655717221e-03
-5.8999999999999950e+00 +7.9190151736087042e+00 +0.0000000000000000e+00 -5.8999998904084521e+00 -2.9629236601922883e-02 -5.6623899238315523e-01 +5.7067636689053566e-03
-5.9999999999999947e+00 +7.9189815065397378e+00 +0.0000000000000000e+00 -5.9999998847409612e+00 -2.9629124384444337e-02 -5.6623955673753268e-01 +5.7067643434318936e-03
-6.0999999999999943e+00 +7.9189472736229618e+00 +0.0000000000000000e+00 -6.0999998788813645e+00 -2.9628989951890936e-02 -5.6624009036868972e-01 +5.7067633738280849e-03
-6.1999999999999940e+00 +7.9189124748578434e+00 +0.0000000000000000e+00 -6.1999998728264609e+00 -2.9628834249343008e-02 -5.6624059393987680e-01 +5.7067608508508524e-03
-6.2999999999999936e+00 +7.9188771102438809e+00 +0.0000000000000000e+00 -6.2999998665730477e+00 -2.9628658817541117e-02 -5.6624106887762382e-01 +5.7067569167778345e-03
-6.3999999999999932e+00 +7.9188411797806006e+00 +0.0000000000000000e+00 -6.3999998601179229e+00 -2.9628465197267140e-02 -5.6624151660850330e-01 +5.7067517138879188e-03
-6.4999999999999929e+00 +7.9188046834675561e+00 +0.0000000000000000e+00 -6.4999998534578847e+00 -2.9628254929346211e-02 -5.6624193855913285e-01 +5.7067453844613144e-03
-6.5999999999999925e+00 +7.9187676213043270e+00 +0.0000000000000000e+00 -6.5999998465897312e+00 -2.9628029554648664e-02 -5.6624233615617636e-01 +5.7067380707795856e-03
-6.6999999999999922e+00 +7.9187299932905173e+00 +0.0000000000000000e+00 -6.6999998395102605e+00 -2.9627790614092042e-02 -5.6624271082634781e-01 +5.7067299151257163e-03
-6.7999999999999918e+00 +7.9186917994257531e+00 +0.0000000000000000e+00 -6.7999998322162707e+00 -2.9627539648642950e-02 -5.6624306399641078e-01 +5.7067210597841382e-03
-6.8999999999999915e+00 +7.9186530397096826e+00 +0.0000000000000000e+00 -6.8999998247045591e+00 -2.9627278199319089e-02 -5.6624339709318183e-01 +5.7067116470408000e-03
-6.9999999999999911e+00 +7.9186137141419746e+00 +0.0000000000000000e+00 -6.9999998169719237e+00 -2.9627007807191161e-02 -5.6624371154353226e-01 +5.7067018191832028e-03
-7.0999999999999908e+00 +7.9185738227223155e+00 +0.0000000000000000e+00 -7.0999998090151628e+00 -2.9626730013384849e-02 -5.6624400877438985e-01 +5.7066917185004517e-03
-7.1999999999999904e+00 +7.9185333654504095e+00 +0.0000000000000000e+00 -7.1999998008310744e+00 -2.9626446359082743e-02 -5.6624429021274092e-01 +5.7066814872833143e-03
-7.2999999999999901e+00 +7.9184923423259770e+00 +0.0000000000000000e+00 -7.2999997924164566e+00 -2.9626158385526295e-02 -5.6624455728563283e-01 +5.7066712678242558e-03
-7.3999999999999897e+00 +7.9184507533487514e+00 +0.0000000000000000e+00 -7.3999997837681075e+00 -2.9625867634017772e-02 -5.6624481142017435e-01 +5.7066612024174890e-03
-7.4999999999999893e+00 +7.9184085985184804e+00 +0.0000000000000000e+00 -7.4999997748828253e+00 -2.9625575645922209e-02 -5.6624505404353953e-01 +5.7066514333590345e-03
-7.5999999999999890e+00 +7.9183658778349226e+00 +0.0000000000000000e+00 -7.5999997657574072e+00 -2.9625283962669335e-02 -5.6624528658296813e-01 +5.7066421029467497e-03
-7.6999999999999886e+00 +7.9183225912978479e+00 +0.0000000000000000e+00 -7.6999997563886522e+00 -2.9624994125755547e-02 -5.6624551046576876e-01 +5.7066333534803995e-03
-7.7999999999999883e+00 +7.9182787389070324e+00 +0.0000000000000000e+00 -7.7999997467733575e+00 -2.9624707676745854e-02 -5.6624572711931997e-01 +5.7066253272616777e-03
-7.8999999999999879e+00 +7.9182343206622621e+00 +0.0000000000000000e+00 -7.8999997369083212e+00 -2.9624426157275823e-02 -5.6624593797107281e-01 +5.7066181665942784e-03
-7.9999999999999876e+00 +7.9181893365633265e+00 +0.0000000000000000e+00 -7.9999997267903415e+00 -2.9624151109053479e-02 -5.6624614444855192e-01 +5.7066120137839304e-03
-8.0999999999999872e+00 +7.9181437866100213e+00 +0.0000000000000000e+00 -8.0999997164162156e+00 -2.9623883798675241e-02 -5.6624634814997354e-01 +5.7066069626950516e-03
-8.1999999999999869e+00 +7.9180976708021440e+00 +0.0000000000000000e+00 -8.1999997057827425e+00 -2.9623624392020573e-02 -5.6624655135605384e-01 +5.7066029134191327e-03
-8.2999999999999865e+00 +7.9180509891394930e+00 +0.0000000000000000e+00 -8.2999996948867203e+00 -2.9623372779745208e-02 -5.6624675651807932e-01 +5.7065997176058815e-03
-8.3999999999999861e+00 +7.9180037416218640e+00 +0.0000000000000000e+00 -8.3999996837249462e+00 -2.9623128852460233e-02 -5.6624696608727809e-01 +5.7065972269075005e-03
-8.4999999999999858e+00 +7.9179559282490493e+00 +0.0000000000000000e+00 -8.4999996722942193e+00 -2.9622892500730337e-02 -5.6624718251481498e-01 +5.7065952929787403e-03
-8.5999999999999854e+00 +7.9179075490208337e+00 +0.0000000000000000e+00 -8.5999996605913367e+00 -2.9622663615072160e-02 -5.6624740825179065e-01 +5.7065937674769494e-03
-8.6999999999999851e+00 +7.9178586039369936e+00 +0.0000000000000000e+00 -8.6999996486130957e+00 -2.9622442085952497e-02 -5.6624764574924003e-01 +5.7065925020621609e-03
-8.7999999999999847e+00 +7.9178090929972926e+00 +0.0000000000000000e+00 -8.7999996363562953e+00 -2.9622227803786629e-02 -5.6624789745812820e-01 +5.7065913483971198e-03
-8.8999999999999844e+00 +7.9177590162014804e+00 +0.0000000000000000e+00 -8.8999996238177346e+00 -2.9622020658936581e-02 -5.6624816582934989e-01 +5.7065901581473668e-03
-8.9999999999999840e+00 +7.9177083735492904e+00 +0.0000000000000000e+00 -8.9999996109942089e+00 -2.9621820541709434e-02 -5.6624845331372609e-01 +5.7065887829812912e-03
-9.0999999999999837e+00 +7.9176571650404366e+00 +0.0000000000000000e+00 -9.0999995978825172e+00 -2.9621627342355562e-02 -5.6624876236200294e-01 +5.7065870745701876e-03
-9.1999999999999833e+00 +7.9176053906746118e+00 +0.0000000000000000e+00 -9.1999995844794586e+00 -2.9621440951066939e-02 -5.6624909542484769e-01 +5.7065848845883190e-03
-9.2999999999999829e+00 +7.9175530504514846e+00 +0.0000000000000000e+00 -9.2999995707818286e+00 -2.9621261257975453e-02 -5.6624945495284884e-01 +5.7065820647129849e-03
-9.3999999999999826e+00 +7.9175001443706972e+00 +0.0000000000000000e+00 -9.3999995567864278e+00 -2.9621088153151114e-02 -5.6624984339651185e-01 +5.7065784666245683e-03
-9.4999999999999822e+00 +7.9174466724318631e+00 +0.0000000000000000e+00 -9.4999995424900519e+00 -2.9620921526600411e-02 -5.6625026320625771e-01 +5.7065739420066076e-03
-9.5999999999999819e+00 +7.9173926346345640e+00 +0.0000000000000000e+00 -9.5999995278894996e+00 -2.9620761268264552e-02 -5.6625071683242112e-01 +5.7065683425458575e-03
-9.6999999999999815e+00 +7.9173380309783479e+00 +0.0000000000000000e+00 -9.6999995129815684e+00 -2.9620607268017778e-02 -5.6625120672524698e-01 +5.7065615199323452e-03
-9.7999999999999812e+00 +7.9172828614627271e+00 +0.0000000000000000e+00 -9.7999994977630571e+00 -2.9620459415665611e-02 -5.6625173533488971e-01 +5.7065533258594424e-03
-9.8999999999999808e+00 +7.9172271260871749e+00 +0.0000000000000000e+00 -9.8999994822307613e+00 -2.9620317600943181e-02 -5.6625230511141000e-01 +5.7065436120239130e-03
-9.9999999999999805e+00 +7.9171708248511230e+00 +0.0000000000000000e+00 -9.9999994663814800e+00 -2.9620181713513462e-02 -5.6625291850477255e-01 +5.7065322301259906e-03
-1.0099999999999980e+01 +7.9171139577539611e+00 +0.0000000000000000e+00 -1.0099999450212012e+01 -2.9620051635006493e-02 -5.6625357693864664e-01 +5.7065190943523178e-03
-1.0199999999999980e+01 +7.9170565247950320e+00 +0.0000000000000000e+00 -1.0199999433719153e+01 -2.9619927215173650e-02 -5.6625427773180126e-01 +5.7065043688256578e-03
-1.0299999999999979e+01 +7.9169985259736384e+00 +0.0000000000000000e+00 -1.0299999416899702e+01 -2.9619808295823991e-02 -5.6625501717682236e-01 +5.7064882801487922e-03
-1.0399999999999979e+01 +7.9169399612890441e+00 +0.0000000000000000e+00 -1.0399999399750456e+01 -2.9619694718792788e-02 -5.6625579156635930e-01 +5.7064710549187278e-03
-1.0499999999999979e+01 +7.9168808307404763e+00 +0.0000000000000000e+00 -1.0499999382268212e+01 -2.9619586325942322e-02 -5.6625659719312638e-01 +5.7064529197265101e-03
-1.0599999999999978e+01 +7.9168211343271322e+00 +0.0000000000000000e+00 -1.0599999364449769e+01 -2.9619482959162630e-02 -5.6625743034990372e-01 +5.7064341011570574e-03
-1.0699999999999978e+01 +7.9167608720481821e+00 +0.0000000000000000e+00 -1.0699999346291921e+01 -2.9619384460372308e-02 -5.6625828732953987e-01 +5.7064148257889805e-03
-1.0799999999999978e+01 +7.9167000439027717e+00 +0.0000000000000000e+00 -1.0799999327791470e+01 -2.9619290671519284e-02 -5.6625916442495328e-01 +5.7063953201944208e-03
-1.0899999999999977e+01 +7.9166386498900270e+00 +0.0000000000000000e+00 -1.0899999308945210e+01 -2.9619201434581636e-02 -5.6626005792913425e-01 +5.7063758109388739e-03
-1.0999999999999977e+01 +7.9165766900090562e+00 +0.0000000000000000e+00 -1.0999999289749940e+01 -2.9619116591568288e-02 -5.6626096413514626e-01 +5.7063565245810020e-03
-1.1099999999999977e+01 +7.9165141642589569e+00 +0.0000000000000000e+00 -1.1099999270202458e+01 -2.9619035984519881e-02 -5.6626187933612826e-01 +5.7063376876724812e-03
-1.1199999999999976e+01 +7.9164510726388171e+00 +0.0000000000000000e+00 -1.1199999250299561e+01 -2.9618959455509512e-02 -5.6626279982529570e-01 +5.7063195267578149e-03
-1.1299999999999976e+01 +7.9163874151477192e+00 +0.0000000000000000e+00 -1.1299999230038045e+01 -2.9618886846643544e-02 -5.6626372189594354e-01 +5.7063022683741657e-03
-1.1399999999999975e+01 +7.9163231917847439e+00 +0.0000000000000000e+00 -1.1399999209414707e+01 -2.9618818000062289e-02 -5.6626464184144598e-01 +5.7062861390511661e-03
-1.1499999999999975e+01 +7.9162584025489737e+00 +0.0000000000000000e+00 -1.1499999188426345e+01 -2.9618752757940962e-02 -5.6626555595526051e-01 +5.7062713653107675e-03
-1.1599999999999975e+01 +7.9161930474394984e+00 +0.0000000000000000e+00 -1.1599999167069758e+01 -2.9618690962490313e-02 -5.6626646053092800e-01 +5.7062581736670387e-03
-1.1699999999999974e+01 +7.9161271264554154e+00 +0.0000000000000000e+00 -1.1699999145341740e+01 -2.9618632455957476e-02 -5.6626735186207544e-01 +5.7062467906260194e-03
