# trajectory
# s[mm] rx[mm] ry[mm] rz[mm] px[rad] py[rad] pz[rad]
0.0000000000000000e+00 +7.9199999999999999e+00 +0.0000000000000000e+00 +0.0000000000000000e+00 +0.0000000000000000e+00 +0.0000000000000000e+00 +1.0000000000000000e+00
-1.0000000000000001e-01 +7.9199997170871352e+00 +0.0000000000000000e+00 -9.9999999999466405e-02 +5.6582576975846559e-06 +0.0000000000000000e+00 +9.9999999998399203e-01
-2.0000000000000001e-01 +7.9199988683483804e+00 +0.0000000000000000e+00 -1.9999999999573120e-01 +1.1316517771535805e-05 +0.0000000000000000e+00 +9.9999999993596822e-01
-3.0000000000000004e-01 +7.9199974537835072e+00 +0.0000000000000000e+00 -2.9999999998559285e-01 +1.6974780036391047e-05 +0.0000000000000000e+00 +9.9999999985592847e-01
-4.0000000000000002e-01 +7.9199954733923050e+00 +0.0000000000000000e+00 -3.9999999996584967e-01 +2.2633044321637704e-05 +0.0000000000000000e+00 +9.9999999974387266e-01
-5.0000000000000000e-01 +7.9199929271745804e+00 +0.0000000000000000e+00 -4.9999999993330013e-01 +2.8291310471712735e-05 +0.0000000000000000e+00 +9.9999999959980090e-01
-5.9999999999999998e-01 +7.9199898151301529e+00 +0.0000000000000000e+00 -5.9999999988474262e-01 +3.3949578346002643e-05 +0.0000000000000000e+00 +9.9999999942371309e-01
-6.9999999999999996e-01 +7.9199861372588574e+00 +0.0000000000000000e+00 -6.9999999981697547e-01 +3.9607847818843426e-05 +0.0000000000000000e+00 +9.9999999921560923e-01
-7.9999999999999993e-01 +7.9199818935605393e+00 +0.0000000000000000e+00 -7.9999999972679725e-01 +4.5266118779520531e-05 +0.0000000000000000e+00 +9.9999999897548930e-01
-8.9999999999999991e-01 +7.9199770840350547e+00 +0.0000000000000000e+00 -8.9999999961100619e-01 +5.0924391132268808e-05 +0.0000000000000000e+00 +9.9999999870335321e-01
-9.9999999999999989e-01 +7.9199717086822687e+00 +0.0000000000000000e+00 -9.9999999946640072e-01 +5.6582664796272510e-05 +0.0000000000000000e+00 +9.9999999839920106e-01
-1.0999999999999999e+00 +7.9199657675020534e+00 +0.0000000000000000e+00 -1.0999999992897793e+00 +6.2240939705665306e-05 +0.0000000000000000e+00 +9.9999999806303275e-01
-1.2000000000000000e+00 +7.9199592604942870e+00 +0.0000000000000000e+00 -1.1999999990779402e+00 +6.7899215809530289e-05 +0.0000000000000000e+00 +9.9999999769484826e-01
-1.3000000000000000e+00 +7.9199521876588523e+00 +0.0000000000000000e+00 -1.2999999988276818e+00 +7.3557493071900028e-05 +0.0000000000000000e+00 +9.9999999729464761e-01
-1.4000000000000001e+00 +7.9199445489956348e+00 +0.0000000000000000e+00 -1.3999999985358025e+00 +7.9215771471756588e-05 +0.0000000000000000e+00 +9.9999999686243080e-01
-1.5000000000000002e+00 +7.9199363445045208e+00 +0.0000000000000000e+00 -1.4999999981991008e+00 +8.4874051003031646e-05 +0.0000000000000000e+00 +9.9999999639819770e-01
-1.6000000000000003e+00 +7.9199275741853965e+00 +0.0000000000000000e+00 -1.5999999978143749e+00 +9.0532331674606569e-05 +0.0000000000000000e+00 +9.9999999590194844e-01
-1.7000000000000004e+00 +7.9199182380381474e+00 +0.0000000000000000e+00 -1.6999999973784232e+00 +9.6190613510312511e-05 +0.0000000000000000e+00 +9.9999999537368289e-01
-1.8000000000000005e+00 +7.9199083360626545e+00 +0.0000000000000000e+00 -1.7999999968880442e+00 +1.0184889654893053e-04 +0.0000000000000000e+00 +9.9999999481340107e-01
-1.9000000000000006e+00 +7.9198978682587953e+00 +0.0000000000000000e+00 -1.8999999963400362e+00 +1.0750718084419173e-04 +0.0000000000000000e+00 +9.9999999422110297e-01
-2.0000000000000004e+00 +7.9198868346264408e+00 +0.0000000000000000e+00 -1.9999999957311976e+00 +1.1316546646477743e-04 +0.0000000000000000e+00 +9.9999999359678848e-01
-2.1000000000000005e+00 +7.9198752351654553e+00 +0.0000000000000000e+00 -2.0999999950583268e+00 +1.1882375349416350e-04 +0.0000000000000000e+00 +9.9999999294045772e-01
-2.2000000000000006e+00 +7.9198630698756922e+00 +0.0000000000000000e+00 -2.1999999943182220e+00 +1.2448204202890624e-04 +0.0000000000000000e+00 +9.9999999225211056e-01
-2.3000000000000007e+00 +7.9198503387569961e+00 +0.0000000000000000e+00 -2.2999999935076816e+00 +1.3014033217692816e-04 +0.0000000000000000e+00 +9.9999999153174690e-01
-2.4000000000000008e+00 +7.9198370418091990e+00 +0.0000000000000000e+00 -2.3999999926235041e+00 +1.3579862405736212e-04 +0.0000000000000000e+00 +9.9999999077936674e-01
-2.5000000000000009e+00 +7.9198231790321225e+00 +0.0000000000000000e+00 -2.4999999916624875e+00 +1.4145691780055136e-04 +0.0000000000000000e+00 +9.9999998999497008e-01
-2.6000000000000010e+00 +7.9198087504255721e+00 +0.0000000000000000e+00 -2.5999999906214306e+00 +1.4711521354804943e-04 +0.0000000000000000e+00 +9.9999998917855681e-01
-2.7000000000000011e+00 +7.9197937559893408e+00 +0.0000000000000000e+00 -2.6999999894971314e+00 +1.5277351145262012e-04 +0.0000000000000000e+00 +9.9999998833012693e-01
-2.8000000000000012e+00 +7.9197781957232039e+00 +0.0000000000000000e+00 -2.7999999882863884e+00 +1.5843181167823745e-04 +0.0000000000000000e+00 +9.9999998744968033e-01
-2.9000000000000012e+00 +7.9197620696269215e+00 +0.0000000000000000e+00 -2.8999999869860003e+00 +1.6409011440008566e-04 +0.0000000000000000e+00 +9.9999998653721700e-01
-3.0000000000000013e+00 +7.9197453777002345e+00 +0.0000000000000000e+00 -2.9999999855927646e+00 +1.6974841980455904e-04 +0.0000000000000000e+00 +9.9999998559273684e-01
-3.1000000000000014e+00 +7.9197281199428646e+00 +0.0000000000000000e+00 -3.0999999841034804e+00 +1.7540672808926192e-04 +0.0000000000000000e+00 +9.9999998461623973e-01
-3.2000000000000015e+00 +7.9197102963545136e+00 +0.0000000000000000e+00 -3.1999999825149454e+00 +1.8106503946300860e-04 +0.0000000000000000e+00 +9.9999998360772557e-01
-3.3000000000000016e+00 +7.9196919069348617e+00 +0.0000000000000000e+00 -3.2999999808239582e+00 +1.8672335414582328e-04 +0.0000000000000000e+00 +9.9999998256719436e-01
-3.4000000000000017e+00 +7.9196729516835669e+00 +0.0000000000000000e+00 -3.3999999790273172e+00 +1.9238167236893986e-04 +0.0000000000000000e+00 +9.9999998149464586e-01
-3.5000000000000018e+00 +7.9196534306002624e+00 +0.0000000000000000e+00 -3.4999999771218202e+00 +1.9803999437480193e-04 +0.0000000000000000e+00 +9.9999998039008009e-01
-3.6000000000000019e+00 +7.9196333436845574e+00 +0.0000000000000000e+00 -3.5999999751042657e+00 +2.0369832041706266e-04 +0.0000000000000000e+00 +9.9999997925349693e-01
-3.7000000000000020e+00 +7.9196126909360354e+00 +0.0000000000000000e+00 -3.6999999729714523e+00 +2.0935665076058459e-04 +0.0000000000000000e+00 +9.9999997808489616e-01
-3.8000000000000020e+00 +7.9195914723542522e+00 +0.0000000000000000e+00 -3.7999999707201777e+00 +2.1501498568143960e-04 +0.0000000000000000e+00 +9.9999997688427766e-01
-3.9000000000000021e+00 +7.9195696879387363e+00 +0.0000000000000000e+00 -3.8999999683472404e+00 +2.2067332546690869e-04 +0.0000000000000000e+00 +9.9999997565164134e-01
-4.0000000000000018e+00 +7.9195473376889867e+00 +0.0000000000000000e+00 -3.9999999658494385e+00 +2.2633167041548194e-04 +0.0000000000000000e+00 +9.9999997438698707e-01
-4.1000000000000014e+00 +7.9195244216044713e+00 +0.0000000000000000e+00 -4.0999999632235706e+00 +2.3199002083507846e-04 +0.0000000000000000e+00 +9.9999997309031463e-01
-4.2000000000000011e+00 +7.9195009396846272e+00 +0.0000000000000000e+00 -4.1999999604664344e+00 +2.3764837702346898e-04 +0.0000000000000000e+00 +9.9999997176162392e-01
-4.3000000000000007e+00 +7.9194768919288645e+00 +0.0000000000000000e+00 -4.2999999575748280e+00 +2.4330673924869835e-04 +0.0000000000000000e+00 +9.9999997040091471e-01
-4.4000000000000004e+00 +7.9194522783365677e+00 +0.0000000000000000e+00 -4.3999999545455495e+00 +2.4896510774730579e-04 +0.0000000000000000e+00 +9.9999996900818688e-01
-4.5000000000000000e+00 +7.9194270989070992e+00 +0.0000000000000000e+00 -4.4999999513753979e+00 +2.5462348272432459e-04 +0.0000000000000000e+00 +9.9999996758344034e-01
-4.5999999999999996e+00 +7.9194013536398016e+00 +0.0000000000000000e+00 -4.5999999480611704e+00 +2.6028186435328221e-04 +0.0000000000000000e+00 +9.9999996612667486e-01
-4.6999999999999993e+00 +7.9193750425340026e+00 +0.0000000000000000e+00 -4.6999999445996652e+00 +2.6594025277620014e-04 +0.0000000000000000e+00 +9.9999996463789020e-01
-4.7999999999999989e+00 +7.9193481655890166e+00 +0.0000000000000000e+00 -4.7999999409876812e+00 +2.7159864810359375e-04 +0.0000000000000000e+00 +9.9999996311708639e-01
-4.8999999999999986e+00 +7.9193207228041489e+00 +0.0000000000000000e+00 -4.8999999372220158e+00 +2.7725705041447223e-04 +0.0000000000000000e+00 +9.9999996156426318e-01
-4.9999999999999982e+00 +7.9192927141786988e+00 +0.0000000000000000e+00 -4.9999999332994669e+00 +2.8291545975633848e-04 +0.0000000000000000e+00 +9.9999995997942048e-01
-5.0999999999999979e+00 +7.9192641397119621e+00 +0.0000000000000000e+00 -5.0999999292168328e+00 +2.8857387614518898e-04 +0.0000000000000000e+00 +9.9999995836255806e-01
-5.1999999999999975e+00 +7.9192349994032352e+00 +0.0000000000000000e+00 -5.1999999249709115e+00 +2.9423229956551374e-04 +0.0000000000000000e+00 +9.9999995671367592e-01
-5.2999999999999972e+00 +7.9192052932518164e+00 +0.0000000000000000e+00 -5.2999999205585011e+00 +2.9989072997029610e-04 +0.0000000000000000e+00 +9.9999995503277395e-01
-5.3999999999999968e+00 +7.9191750212570113e+00 +0.0000000000000000e+00 -5.3999999159763989e+00 +3.0554916728101268e-04 +0.0000000000000000e+00 +9.9999995331985203e-01
-5.4999999999999964e+00 +7.9191441834181342e+00 +0.0000000000000000e+00 -5.4999999112214040e+00 +3.1120761138763321e-04 +0.0000000000000000e+00 +9.9999995157491006e-01
-5.5999999999999961e+00 +7.9191127797345118e+00 +0.0000000000000000e+00 -5.5999999062903134e+00 +3.1686606214862052e-04 +0.0000000000000000e+00 +9.9999994979794804e-01
-5.6999999999999957e+00 +7.9190808102054877e+00 +0.0000000000000000e+00 -5.6999999011799263e+00 +3.2252451939093025e-04 +0.0000000000000000e+00 +9.9999994798896585e-01
-5.7999999999999954e+00 +7.9190482748304243e+00 +0.0000000000000000e+00 -5.7999998958870398e+00 +3.2818298291001087e-04 +0.0000000000000000e+00 +9.9999994614796339e-01
-5.8999999999999950e+00 +7.9190151736087042e+00 +0.0000000000000000e+00 -5.8999998904084521e+00 +3.3384145246980341e-04 +0.0000000000000000e+00 +9.9999994427494077e-01
-5.9999999999999947e+00 +7.9189815065397378e+00 +0.0000000000000000e+00 -5.9999998847409612e+00 +3.3949992780274148e-04 +0.0000000000000000e+00 +9.9999994236989787e-01
-6.0999999999999943e+00 +7.9189472736229618e+00 +0.0000000000000000e+00 -6.0999998788813645e+00 +3.4515840861165772e-04 +0.0000000000000000e+00 +9.9999994043283469e-01
-6.1999999999999940e+00 +7.9189124748578434e+00 +0.0000000000000000e+00 -6.1999998728264609e+00 +3.5081689459075846e-04 +0.0000000000000000e+00 +9.9999993846375135e-01
-6.2999999999999936e+00 +7.9188771102438809e+00 +0.0000000000000000e+00 -6.2999998665730477e+00 +3.5647538544659839e-04 +0.0000000000000000e+00 +9.9999993646264773e-01
-6.3999999999999932e+00 +7.9188411797806006e+00 +0.0000000000000000e+00 -6.3999998601179229e+00 +3.6213388089998793e-04 +0.0000000000000000e+00 +9.9999993442952395e-01
-6.4999999999999929e+00 +7.9188046834675561e+00 +0.0000000000000000e+00 -6.4999998534578847e+00 +3.6779238068599350e-04 +0.0000000000000000e+00 +9.9999993236438001e-01
-6.5999999999999925e+00 +7.9187676213043270e+00 +0.0000000000000000e+00 -6.5999998465897312e+00 +3.7345088455393818e-04 +0.0000000000000000e+00 +9.9999993026721590e-01
-6.6999999999999922e+00 +7.9187299932905173e+00 +0.0000000000000000e+00 -6.6999998395102605e+00 +3.7910939226740192e-04 +0.0000000000000000e+00 +9.9999992813803174e-01
-6.7999999999999918e+00 +7.9186917994257531e+00 +0.0000000000000000e+00 -6.7999998322162707e+00 +3.8476790360422226e-04 +0.0000000000000000e+00 +9.9999992597682741e-01
-6.8999999999999915e+00 +7.9186530397096826e+00 +0.0000000000000000e+00 -6.8999998247045591e+00 +3.9042641835649482e-04 +0.0000000000000000e+00 +9.9999992378360303e-01
-6.9999999999999911e+00 +7.9186137141419746e+00 +0.0000000000000000e+00 -6.9999998169719237e+00 +3.9608493633057367e-04 +0.0000000000000000e+00 +9.9999992155835848e-01
-7.0999999999999908e+00 +7.9185738227223155e+00 +0.0000000000000000e+00 -7.0999998090151628e+00 +4.0174345734707208e-04 +0.0000000000000000e+00 +9.9999991930109389e-01
-7.1999999999999904e+00 +7.9185333654504095e+00 +0.0000000000000000e+00 -7.1999998008310744e+00 +4.0740198124086303e-04 +0.0000000000000000e+00 +9.9999991701180935e-01
-7.2999999999999901e+00 +7.9184923423259770e+00 +0.0000000000000000e+00 -7.2999997924164566e+00 +4.1306050786107978e-04 +0.0000000000000000e+00 +9.9999991469050475e-01
-7.3999999999999897e+00 +7.9184507533487514e+00 +0.0000000000000000e+00 -7.3999997837681075e+00 +4.1871903707111643e-04 +0.0000000000000000e+00 +9.9999991233718011e-01
-7.4999999999999893e+00 +7.9184085985184804e+00 +0.0000000000000000e+00 -7.4999997748828253e+00 +4.2437756874862868e-04 +0.0000000000000000e+00 +9.9999990995183552e-01
-7.5999999999999890e+00 +7.9183658778349226e+00 +0.0000000000000000e+00 -7.5999997657574072e+00 +4.3003610278553444e-04 +0.0000000000000000e+00 +9.9999990753447088e-01
-7.6999999999999886e+00 +7.9183225912978479e+00 +0.0000000000000000e+00 -7.6999997563886522e+00 +4.3569463908801448e-04 +0.0000000000000000e+00 +9.9999990508508618e-01
-7.7999999999999883e+00 +7.9182787389070324e+00 +0.0000000000000000e+00 -7.7999997467733575e+00 +4.4135317757651308e-04 +0.0000000000000000e+00 +9.9999990260368155e-01
-7.8999999999999879e+00 +7.9182343206622621e+00 +0.0000000000000000e+00 -7.8999997369083212e+00 +4.4701171818573883e-04 +0.0000000000000000e+00 +9.9999990009025685e-01
-7.9999999999999876e+00 +7.9181893365633265e+00 +0.0000000000000000e+00 -7.9999997267903415e+00 +4.5267026086466533e-04 +0.0000000000000000e+00 +9.9999989754481211e-01
-8.0999999999999872e+00 +7.9181437866100213e+00 +0.0000000000000000e+00 -8.0999997164162156e+00 +4.5832880557695809e-04 +0.0000000000000000e+00 +9.9999989496734731e-01
-8.1999999999999869e+00 +7.9180976708021440e+00 +0.0000000000000000e+00 -8.1999997057827425e+00 +4.6398735230566409e-04 +0.0000000000000000e+00 +9.9999989235786246e-01
-8.2999999999999865e+00 +7.9180509891394930e+00 +0.0000000000000000e+00 -8.2999996948867203e+00 +4.6964590105790009e-04 +0.0000000000000000e+00 +9.9999988971635756e-01
-8.3999999999999861e+00 +7.9180037416218640e+00 +0.0000000000000000e+00 -8.3999996837249462e+00 +4.7530445186527855e-04 +0.0000000000000000e+00 +9.9999988704283249e-01
-8.4999999999999858e+00 +7.9179559282490493e+00 +0.0000000000000000e+00 -8.4999996722942193e+00 +4.8096300478390688e-04 +0.0000000000000000e+00 +9.9999988433728715e-01
-8.5999999999999854e+00 +7.9179075490208337e+00 +0.0000000000000000e+00 -8.5999996605913367e+00 +4.8662155989438695e-04 +0.0000000000000000e+00 +9.9999988159972153e-01
-8.6999999999999851e+00 +7.9178586039369936e+00 +0.0000000000000000e+00 -8.6999996486130957e+00 +4.9228011730181420e-04 +0.0000000000000000e+00 +9.9999987883013552e-01
-8.7999999999999847e+00 +7.9178090929972926e+00 +0.0000000000000000e+00 -8.7999996363562953e+00 +4.9793867713577721e-04 +0.0000000000000000e+00 +9.9999987602852902e-01
-8.8999999999999844e+00 +7.9177590162014804e+00 +0.0000000000000000e+00 -8.8999996238177346e+00 +5.0359723955035692e-04 +0.0000000000000000e+00 +9.9999987319490191e-01
-8.9999999999999840e+00 +7.9177083735492904e+00 +0.0000000000000000e+00 -8.9999996109942089e+00 +5.0925580472412589e-04 +0.0000000000000000e+00 +9.9999987032925408e-01
-9.0999999999999837e+00 +7.9176571650404366e+00 +0.0000000000000000e+00 -9.0999995978825172e+00 +5.1491437286014748e-04 +0.0000000000000000e+00 +9.9999986743158531e-01
-9.1999999999999833e+00 +7.9176053906746118e+00 +0.0000000000000000e+00 -9.1999995844794586e+00 +5.2057294418597524e-04 +0.0000000000000000e+00 +9.9999986450189549e-01
-9.2999999999999829e+00 +7.9175530504514846e+00 +0.0000000000000000e+00 -9.2999995707818286e+00 +5.2623151895365202e-04 +0.0000000000000000e+00 +9.9999986154018439e-01
-9.3999999999999826e+00 +7.9175001443706972e+00 +0.0000000000000000e+00 -9.3999995567864278e+00 +5.3189009743970911e-04 +0.0000000000000000e+00 +9.9999985854645190e-01
-9.4999999999999822e+00 +7.9174466724318631e+00 +0.0000000000000000e+00 -9.4999995424900519e+00 +5.3754867994516560e-04 +0.0000000000000000e+00 +9.9999985552069770e-01
-9.5999999999999819e+00 +7.9173926346345640e+00 +0.0000000000000000e+00 -9.5999995278894996e+00 +5.4320726679552727e-04 +0.0000000000000000e+00 +9.9999985246292156e-01
-9.6999999999999815e+00 +7.9173380309783479e+00 +0.0000000000000000e+00 -9.6999995129815684e+00 +5.4886585834078598e-04 +0.0000000000000000e+00 +9.9999984937312325e-01
-9.7999999999999812e+00 +7.9172828614627271e+00 +0.0000000000000000e+00 -9.7999994977630571e+00 +5.5452445495541853e-04 +0.0000000000000000e+00 +9.9999984625130245e-01
-9.8999999999999808e+00 +7.9172271260871749e+00 +0.0000000000000000e+00 -9.8999994822307613e+00 +5.6018305703838586e-04 +0.0000000000000000e+00 +9.9999984309745882e-01
-9.9999999999999805e+00 +7.9171708248511230e+00 +0.0000000000000000e+00 -9.9999994663814800e+00 +5.6584166501313200e-04 +0.0000000000000000e+00 +9.9999983991159203e-01
-1.0099999999999980e+01 +7.9171139577539611e+00 +0.0000000000000000e+00 -1.0099999450212012e+01 +5.7150027932501967e-04 +0.0000000000000000e+00 +9.9999983669370185e-01
-1.0199999999999980e+01 +7.9170565247950320e+00 +0.0000000000000000e+00 -1.0199999433719153e+01 +5.7715890041312799e-04 +0.0000000000000000e+00 +9.9999983344378773e-01
-1.0299999999999979e+01 +7.9169985259736384e+00 +0.0000000000000000e+00 -1.0299999416899702e+01 +5.8281752868205106e-04 +0.0000000000000000e+00 +9.9999983016184946e-01
-1.0399999999999979e+01 +7.9169399612890441e+00 +0.0000000000000000e+00 -1.0399999399750456e+01 +5.8847616449933483e-04 +0.0000000000000000e+00 +9.9999982684788669e-01
-1.0499999999999979e+01 +7.9168808307404763e+00 +0.0000000000000000e+00 -1.0499999382268212e+01 +5.9413480819547773e-04 +0.0000000000000000e+00 +9.9999982350189909e-01
-1.0599999999999978e+01 +7.9168211343271322e+00 +0.0000000000000000e+00 -1.0599999364449769e+01 +5.9979346006393134e-04 +0.0000000000000000e+00 +9.9999982012388622e-01
-1.0699999999999978e+01 +7.9167608720481821e+00 +0.0000000000000000e+00 -1.0699999346291921e+01 +6.0545212036110100e-04 +0.0000000000000000e+00 +9.9999981671384797e-01
-1.0799999999999978e+01 +7.9167000439027717e+00 +0.0000000000000000e+00 -1.0799999327791470e+01 +6.1111078930634651e-04 +0.0000000000000000e+00 +9.9999981327178400e-01
-1.0899999999999977e+01 +7.9166386498900270e+00 +0.0000000000000000e+00 -1.0899999308945210e+01 +6.1676946708198298e-04 +0.0000000000000000e+00 +9.9999980979769398e-01
-1.0999999999999977e+01 +7.9165766900090562e+00 +0.0000000000000000e+00 -1.0999999289749940e+01 +6.2242815383328125e-04 +0.0000000000000000e+00 +9.9999980629157770e-01
-1.1099999999999977e+01 +7.9165141642589569e+00 +0.0000000000000000e+00 -1.1099999270202458e+01 +6.2808684966846886e-04 +0.0000000000000000e+00 +9.9999980275343503e-01
-1.1199999999999976e+01 +7.9164510726388171e+00 +0.0000000000000000e+00 -1.1199999250299561e+01 +6.3374555465873096e-04 +0.0000000000000000e+00 +9.9999979918326565e-01
-1.1299999999999976e+01 +7.9163874151477192e+00 +0.0000000000000000e+00 -1.1299999230038045e+01 +6.3940426883821058e-04 +0.0000000000000000e+00 +9.9999979558106944e-01
-1.1399999999999975e+01 +7.9163231917847439e+00 +0.0000000000000000e+00 -1.1399999209414707e+01 +6.4506299220400999e-04 +0.0000000000000000e+00 +9.9999979194684618e-01
-1.1499999999999975e+01 +7.9162584025489737e+00 +0.0000000000000000e+00 -1.1499999188426345e+01 +6.5072172471619118e-04 +0.0000000000000000e+00 +9.9999978828059588e-01
-1.1599999999999975e+01 +7.9161930474394984e+00 +0.0000000000000000e+00 -1.1599999167069758e+01 +6.5638046629777679e-04 +0.0000000000000000e+00 +9.9999978458231831e-01
-1.1699999999999974e+01 +7.9161271264554154e+00 +0.0000000000000000e+00 -1.1699999145341740e+01 +6.6203921683475101e-04 +0.0000000000000000e+00 +9.9999978085201346e-01
