# multipoles
# s[mm] polynom_b[n=0][T/m^n] polynom_b[n=1][T/m^n] polynom_b[n=2][T/m^n] polynom_b[n=3][T/m^n] polynom_b[n=4][T/m^n] polynom_b[n=5][T/m^n] polynom_b[n=6][T/m^n] 
-0.0000000000000000e+00 -5.6436954798716621e-01 +7.7356488294922787e+00 -1.1016215189852683e+00 +5.6106671568743387e+00 +1.4398877356041696e+04 -1.4223866483368736e+05 -5.9993251150891177e+07 
-1.0000000000000001e-01 -5.6436938749948518e-01 +7.7356382836815802e+00 -1.0999730032610406e+00 +5.9773288987871993e+00 +1.4344591756364578e+04 -1.4404614938768014e+05 -5.9741249766300716e+07 
-2.0000000000000001e-01 -5.6436922418845215e-01 +7.7356291283810350e+00 -1.0981677289373248e+00 +6.2856636845484983e+00 +1.4283585709423718e+04 -1.4548667173750832e+05 -5.9453438305744551e+07 
-2.9999999999999999e-01 -5.6436905907551282e-01 +7.7356212766820205e+00 -1.0961985342372307e+00 +6.5381681168591532e+00 +1.4216288556919630e+04 -1.4657614680439001e+05 -5.9132607070299767e+07 
-4.0000000000000002e-01 -5.6436889318212780e-01 +7.7356146416761433e+00 -1.0940582495668900e+00 +6.7373388236230722e+00 +1.4143129487815377e+04 -1.4733048973560298e+05 -5.8781545628601193e+07 
-5.0000000000000000e-01 -5.6436872752977574e-01 +7.7356091364525117e+00 -1.0917397106323912e+00 +6.8856725207564189e+00 +1.4064537799300489e+04 -1.4776561621100240e+05 -5.8403044091707110e+07 
-5.9999999999999998e-01 -5.6436856313991901e-01 +7.7356046741051427e+00 -1.0892357504871746e+00 +6.9856657984073509e+00 +1.3980942730249748e+04 -1.4789744122340396e+05 -5.7999892275556535e+07 
-6.9999999999999996e-01 -5.6436840103404140e-01 +7.7356011677186816e+00 -1.0865391969663625e+00 +7.0398155166770611e+00 +1.3892773430470583e+04 -1.4774188130868567e+05 -5.7574879605414510e+07 
-8.0000000000000004e-01 -5.6436824223362847e-01 +7.7355985303898782e+00 -1.0836428833368068e+00 +7.0506181656280162e+00 +1.3800459145396342e+04 -1.4731485080031099e+05 -5.7130795945260741e+07 
-9.0000000000000002e-01 -5.6436808776018887e-01 +7.7355966751989875e+00 -1.0805396367642761e+00 +7.0205707057994289e+00 +1.3704429009457725e+04 -1.4663226672985588e+05 -5.6670430648074031e+07 
-1.0000000000000000e+00 -5.6436793863515622e-01 +7.7355955152344400e+00 -1.0772222898710617e+00 +6.9521698270316783e+00 +1.3605112259182040e+04 -1.4571004445577148e+05 -5.6196573551767424e+07 
-1.1000000000000001e+00 -5.6436779588008634e-01 +7.7355949635801533e+00 -1.0736836669328558e+00 +6.8479123082128330e+00 +1.3502937975678846e+04 -1.4456409973288406e+05 -5.5712013767532840e+07 
-1.2000000000000000e+00 -5.6436766051645038e-01 +7.7355949333174125e+00 -1.0699165989804107e+00 +6.7102949523016235e+00 +1.3398335366775284e+04 -1.4321034830903020e+05 -5.5219541006020814e+07 
-1.3000000000000000e+00 -5.6436753356571656e-01 +7.7355953375270072e+00 -1.0659139134537616e+00 +6.5418145275279729e+00 +1.3291733572596444e+04 -1.4166470558831748e+05 -5.4721944660855547e+07 
-1.3999999999999999e+00 -5.6436741604944574e-01 +7.7355960892857833e+00 -1.0616684368428833e+00 +6.3449678306535553e+00 +1.3183561717536504e+04 -1.3994308690330287e+05 -5.4222014058073469e+07 
-1.5000000000000000e+00 -5.6436730898903242e-01 +7.7355971016664142e+00 -1.0571729984855409e+00 +6.1222517099184097e+00 +1.3074248980690680e+04 -1.3806140768922045e+05 -5.3722538787908323e+07 
-1.6000000000000001e+00 -5.6436721340604035e-01 +7.7355982877402694e+00 -1.0524204238925414e+00 +5.8761629579202239e+00 +1.2964224467975255e+04 -1.3603558280417879e+05 -5.3226308090929292e+07 
-1.7000000000000000e+00 -5.6436713032192709e-01 +7.7355995605754329e+00 -1.0474035444986107e+00 +5.6091983624969037e+00 +1.2853917398139341e+04 -1.3388152679931157e+05 -5.2736111746080607e+07 
-1.8000000000000000e+00 -5.6436706075820153e-01 +7.7356008332354032e+00 -1.0421151852442874e+00 +5.3238547392994944e+00 +1.2743756869754900e+04 -1.3161515410004972e+05 -5.2254738970573545e+07 
-1.8999999999999999e+00 -5.6436700573631238e-01 +7.7356020187791490e+00 -1.0365481747596885e+00 +5.0226289115143334e+00 +1.2634172050577585e+04 -1.2925237883908633e+05 -5.1784979306185186e+07 
-2.0000000000000000e+00 -5.6436696627774308e-01 +7.7356030302642660e+00 -1.0306953440912952e+00 +4.7080176070617652e+00 +1.2525592154160700e+04 -1.2680911422874444e+05 -5.1329622512463510e+07 
-2.1000000000000001e+00 -5.6436694306606849e-01 +7.7356038104482385e+00 -1.0245564711941719e+00 +4.3820810427639953e+00 +1.2418388808024385e+04 -1.2429920679538627e+05 -5.0890885387193248e+07 
-2.2000000000000002e+00 -5.6436693543442351e-01 +7.7356044142726672e+00 -1.0181593551773156e+00 +4.0453527982625035e+00 +1.2312705596465988e+04 -1.2172931417711328e+05 -5.0468702925087333e+07 
-2.2999999999999998e+00 -5.6436694237871388e-01 +7.7356049230580384e+00 -1.0115388478185201e+00 +3.6980401200461444e+00 +1.2208629381619929e+04 -1.1910456837607152e+05 -5.0062440789975993e+07 
-2.3999999999999999e+00 -5.6436696289480026e-01 +7.7356054181345728e+00 -1.0047298040806805e+00 +3.3403499759175448e+00 +1.2106247092211495e+04 -1.1643009982482551e+05 -4.9671464974434890e+07 
-2.5000000000000000e+00 -5.6436699597855888e-01 +7.7356059808282120e+00 -9.9776707391692898e-01 +2.9724895016008919e+00 +1.2005645565071976e+04 -1.1371104009374413e+05 -4.9295141037950583e+07 
-2.6000000000000001e+00 -5.6436704062588561e-01 +7.7356066924725884e+00 -9.9068551222517898e-01 +2.5946656221005506e+00 +1.1906911733023764e+04 -1.1095251961094960e+05 -4.8932834996510722e+07 
-2.7000000000000002e+00 -5.6436709583268063e-01 +7.7356076344010782e+00 -9.8351997056759077e-01 +2.2070853261134502e+00 +1.1810132468322423e+04 -1.0815966938075739e+05 -4.8583912578990668e+07 
-2.7999999999999998e+00 -5.6436716059479897e-01 +7.7356088879538802e+00 -9.7630530334092702e-01 +1.8099554447825810e+00 +1.1715394702048538e+04 -1.0533761966312793e+05 -4.8247739800748013e+07 
-2.8999999999999999e+00 -5.6436723390818155e-01 +7.7356105344762272e+00 -9.6907636239363282e-01 +1.4034827285480664e+00 +1.1622785321765912e+04 -1.0249150048511672e+05 -4.7923682475164875e+07 
-3.0000000000000000e+00 -5.6436731476871371e-01 +7.7356126553148208e+00 -9.6186800307849929e-01 +9.8787395286066060e-01 +1.1532391282859076e+04 -9.9626442271879845e+04 -4.7611106735636920e+07 
-3.1000000000000001e+00 -5.6436740217228287e-01 +7.7356153318246701e+00 -9.5471507859030891e-01 +5.6333572339633897e-01 +1.1444299506177731e+04 -9.6747574726980325e+04 -4.7309378557086915e+07 
-3.2000000000000002e+00 -5.6436749511483297e-01 +7.7356186453664106e+00 -9.4765244304045360e-01 +1.3007457056991700e-01 +1.1358596936317977e+04 -9.3860027431967537e+04 -4.7017864037188858e+07 
-3.2999999999999998e+00 -5.6436759259226510e-01 +7.7356226773061740e+00 -9.4071495305748543e-01 -3.1170303729671195e-01 +1.1275370565663470e+04 -9.0968929955960775e+04 -4.6735929488833420e+07 
-3.3999999999999999e+00 -5.6436769360049244e-01 +7.7356275090154156e+00 -9.3393746155795476e-01 -7.6179069744480621e-01 +1.1194707325048916e+04 -8.8079411806514181e+04 -4.6462940948152535e+07 
-3.5000000000000000e+00 -5.6436779713546403e-01 +7.7356332218767339e+00 -9.2735482537251279e-01 -1.2199822016139932e+00 +1.1116694223943292e+04 -8.5196601808634674e+04 -4.6198264823716708e+07 
-3.6000000000000001e+00 -5.6436790219311539e-01 +7.7356398972786078e+00 -9.2100190052508146e-01 -1.6860714070771212e+00 +1.1041418261611825e+04 -8.2325628785270848e+04 -4.5941267478347763e+07 
-3.7000000000000002e+00 -5.6436800776937035e-01 +7.7356476166159407e+00 -9.1491354258935953e-01 -2.1598522240860971e+00 +1.0968966434286265e+04 -7.9471621709252518e+04 -4.5691315261198901e+07 
-3.7999999999999998e+00 -5.6436811286020794e-01 +7.7356564612953900e+00 -9.0912460848038734e-01 -2.6411187684278912e+00 +1.0899425771271228e+04 -7.6639708831421900e+04 -4.5447774689141266e+07 
-3.8999999999999999e+00 -5.6436821646154867e-01 +7.7356665127315409e+00 -9.0366995686939922e-01 -3.1296652384996446e+00 +1.0832883338440251e+04 -7.3835018434108424e+04 -4.5210012444975995e+07 
-4.0000000000000000e+00 -5.6436831756942052e-01 +7.7356778523472629e+00 -8.9858444526979520e-01 -3.6252859254104481e+00 +1.0769426188931528e+04 -7.1062678766110868e+04 -4.4977395161975026e+07 
-4.0999999999999996e+00 -5.6436841542932370e-01 +7.7356905312504560e+00 -8.9389818374190588e-01 -4.1271663465180435e+00 +1.0709188275026709e+04 -6.8330456669007195e+04 -4.4749738114697054e+07 
-4.2000000000000002e+00 -5.6436851028304835e-01 +7.7357044892104980e+00 -8.8962179536954566e-01 -4.6323810772530969e+00 +1.0652481629812639e+04 -6.5655031980121639e+04 -4.4528614360218614e+07 
-4.2999999999999998e+00 -5.6436860262100819e-01 +7.7357196406490507e+00 -8.8576091697368187e-01 -5.1375585400738473e+00 +1.0599660842159741e+04 -6.3054897659866168e+04 -4.4316029332837440e+07 
-4.4000000000000004e+00 -5.6436869293352077e-01 +7.7357358999858672e+00 -8.8232119504711060e-01 -5.6393271530188400e+00 +1.0551080684683004e+04 -6.0548546610196972e+04 -4.4113989328037046e+07 
-4.5000000000000000e+00 -5.6436878171095550e-01 +7.7357531816459089e+00 -8.7930827067411899e-01 -6.1343155433157079e+00 +1.0507095828544243e+04 -5.8154470397772719e+04 -4.3924500152018584e+07 
-4.5999999999999996e+00 -5.6436886944357845e-01 +7.7357714000535758e+00 -8.7672779476497631e-01 -6.6191523823814862e+00 +1.0468061126754019e+04 -5.5891160214059397e+04 -4.3749568450926960e+07 
-4.7000000000000002e+00 -5.6436895662173392e-01 +7.7357904696346225e+00 -8.7458541662231726e-01 -7.0904664503542856e+00 +1.0434331402641132e+04 -5.3777106470430706e+04 -4.3591200720911980e+07 
-4.7999999999999998e+00 -5.6436904373572117e-01 +7.7358103048174076e+00 -8.7288678884100190e-01 -7.5448866719794516e+00 +1.0406261541137199e+04 -5.1830798592549640e+04 -4.3451403735369936e+07 
-4.9000000000000004e+00 -5.6436913127578758e-01 +7.7358308200339012e+00 -8.7163756729219133e-01 -7.9790421453826479e+00 +1.0384206483541129e+04 -5.0070724855802226e+04 -4.3332184508368783e+07 
-5.0000000000000000e+00 -5.6436921973222021e-01 +7.7358519297138617e+00 -8.7084341159083745e-01 -8.3895619984349139e+00 +1.0368521245297932e+04 -4.8515373146345606e+04 -4.3235550401806243e+07 
-5.0999999999999996e+00 -5.6436930959524811e-01 +7.7358735482899412e+00 -8.7050998195992402e-01 -8.7730755197747392e+00 +1.0359560846625860e+04 -4.7183230247477397e+04 -4.3163508769070372e+07 
-5.2000000000000002e+00 -5.6436940135511382e-01 +7.7358955901992870e+00 -8.7064294511931006e-01 -9.1262122126743286e+00 +1.0357680430238026e+04 -4.6092781512709109e+04 -4.3118067530428447e+07 
-5.2999999999999998e+00 -5.6436949550203408e-01 +7.7359179698739098e+00 -8.7124796876666399e-01 -9.4456015405137048e+00 +1.0363235155345086e+04 -4.5262512263817800e+04 -4.3101234664740004e+07 
-5.4000000000000004e+00 -5.6436959252619834e-01 +7.7359406017521497e+00 -8.7233072442962267e-01 -9.7278732375979757e+00 +1.0376580248633671e+04 -4.4710906054857121e+04 -4.3115018445319429e+07 
-5.5000000000000000e+00 -5.6436969291776151e-01 +7.7359634002718218e+00 -8.7389688626193385e-01 -9.9696571286293096e+00 +1.0398070987632736e+04 -4.4456445666652304e+04 -4.3161427374147214e+07 
-5.5999999999999996e+00 -5.6436979716688473e-01 +7.7359862798759105e+00 -8.7595213507211978e-01 -1.0167583304411515e+01 +1.0428062768214761e+04 -4.4517612058418650e+04 -4.3242470480464481e+07 
-5.7000000000000002e+00 -5.6436990576367552e-01 +7.7360091550010539e+00 -8.7850215253112041e-01 -1.0318281776740617e+01 +1.0466910999629976e+04 -4.4912886399805611e+04 -4.3360156833880916e+07 
-5.7999999999999998e+00 -5.6437001919826890e-01 +7.7360319400895703e+00 -8.8155262507610532e-01 -1.0418382841981080e+01 +1.0514971179928076e+04 -4.5660747925184427e+04 -4.3516495907294437e+07 
-5.9000000000000004e+00 -5.6437013796074431e-01 +7.7360545495863855e+00 -8.8510924381220279e-01 -1.0464517000923133e+01 +1.0572598891371961e+04 -4.6779674360727033e+04 -4.3713497546798497e+07 
-5.9999999999999902e+00 -5.6437026254116962e-01 +7.7360768979323744e+00 -8.8917770183344236e-01 -1.0453314767446205e+01 +1.0640149743332191e+04 -4.8288143103680515e+04 -4.3953171685424939e+07 
-6.0999999999999899e+00 -5.6437039340803830e-01 +7.7360988943037921e+00 -8.9375176929029765e-01 -1.0382700040258667e+01 +1.0717699797130967e+04 -5.0195097007098928e+04 -4.4236200958989523e+07 
-6.1999999999999904e+00 -5.6437053096411194e-01 +7.7361204118201394e+00 -8.9877433317685940e-01 -1.0255408641204712e+01 +1.0804199127644166e+04 -5.2472739109743503e+04 -4.4558050295057751e+07 
-6.2999999999999901e+00 -5.6437067560084753e-01 +7.7361413109435100e+00 -9.0417470792500343e-01 -1.0075300628234634e+01 +1.0898313165444235e+04 -5.5084361703068585e+04 -4.4912898196582809e+07 
-6.3999999999999897e+00 -5.6437082770972979e-01 +7.7361614521227473e+00 -9.0988221020684457e-01 -9.8462356041953907e+00 +1.0998707364184562e+04 -5.7993259783447669e+04 -4.5294923272273362e+07 
-6.4999999999999902e+00 -5.6437098768214566e-01 +7.7361806957950199e+00 -9.1582614584835031e-01 -9.5720727651991009e+00 +1.1104046946000088e+04 -6.1162730748020156e+04 -4.5698303010080732e+07 
-6.5999999999999899e+00 -5.6437115590961107e-01 +7.7361989023899600e+00 -9.2193581670834357e-01 -9.2566710176163962e+00 +1.1212997033559855e+04 -6.4556073728066644e+04 -4.6117214411174037e+07 
-6.6999999999999904e+00 -5.6437133278363116e-01 +7.7362159323190189e+00 -9.2814051645303441e-01 -8.9038886482846706e+00 +1.1324222566841745e+04 -6.8136591539739849e+04 -4.6545833589767389e+07 
-6.7999999999999901e+00 -5.6437151869557511e-01 +7.7362316459844900e+00 -9.3436953627478914e-01 -8.5175835963520790e+00 +1.1436388417514521e+04 -7.1867589083442668e+04 -4.6978336333176680e+07 
-6.8999999999999897e+00 -5.6437171403695763e-01 +7.7362459037750142e+00 -9.4055215976320261e-01 -8.1016133168911644e+00 +1.1548159277838717e+04 -7.5712374147752111e+04 -4.7408897538602889e+07 
-6.9999999999999902e+00 -5.6437191919928820e-01 +7.7362585660627881e+00 -9.4661766189594365e-01 -7.6598346984552688e+00 +1.1658199654334605e+04 -7.9634257865823893e+04 -4.7831691221221179e+07 
-7.0999999999999899e+00 -5.6437213457396662e-01 +7.7362694932074305e+00 -9.5249531374880725e-01 -7.1961041578141582e+00 +1.1765173947342031e+04 -8.3596554228348876e+04 -4.8240890866769686e+07 
-7.1999999999999904e+00 -5.6437236055247908e-01 +7.7362785455546144e+00 -9.5811437581515135e-01 -6.7142776178778618e+00 +1.1867746327013723e+04 -8.7562580146030188e+04 -4.8630668853074476e+07 
-7.2999999999999901e+00 -5.6437259752633584e-01 +7.7362855834309538e+00 -9.6340410216074379e-01 -6.2182103446411308e+00 +1.1964580809447829e+04 -9.1495656423843466e+04 -4.8995196803943940e+07 
-7.3999999999999897e+00 -5.6437284588699976e-01 +7.7362904671488861e+00 -9.6829374167095439e-01 -5.7117570740437991e+00 +1.2054341281943012e+04 -9.5359107074783300e+04 -4.9328645719780043e+07 
-7.4999999999999902e+00 -5.6437310602593094e-01 +7.7362930570080088e+00 -9.7271253294086901e-01 -5.1987720708363518e+00 +1.2135691403880079e+04 -9.9116258896913307e+04 -4.9625185499563970e+07 
-7.5999999999999899e+00 -5.6437337833463386e-01 +7.7362932132857338e+00 -9.7658970755873797e-01 -4.6831088384761514e+00 +1.2207294664964245e+04 -1.0273044321818116e+05 -4.9878985210540175e+07 
-7.6999999999999904e+00 -5.6437366320460725e-01 +7.7362907962433898e+00 -9.7985448339404002e-01 -4.1686202944309887e+00 +1.2267814262213911e+04 -1.0616499486901010e+05 -5.0084212515781932e+07 
-7.7999999999999901e+00 -5.6437396102735971e-01 +7.7362856661251422e+00 -9.8243607913586428e-01 -3.6591587327998161e+00 +1.2315913371711405e+04 -1.0938325240810272e+05 -5.0235034959230989e+07 
-7.8999999999999897e+00 -5.6437427219435921e-01 +7.7362776831558309e+00 -9.8426369619869325e-01 -3.1585757674103978e+00 +1.2350254806387520e+04 -1.1234855843442395e+05 -5.0325618342530124e+07 
-7.9999999999999902e+00 -5.6437459709710569e-01 +7.7362667075407066e+00 -9.8526653010507981e-01 -2.6707222697567623e+00 +1.2369501234247449e+04 -1.1502426000359937e+05 -5.0350127769116446e+07 
-8.0999999999999908e+00 -5.6437493591988774e-01 +7.7362526940083303e+00 -9.8539287311561430e-01 -2.1995345108371294e+00 +1.2372664786420393e+04 -1.1737890043837573e+05 -5.0304289408336453e+07 
-8.1999999999999904e+00 -5.6437528798658299e-01 +7.7362359867312778e+00 -9.8467711887759002e-01 -1.7495715429259990e+00 +1.2360253228528123e+04 -1.1940088848086807e+05 -5.0190248782070473e+07 
-8.2999999999999901e+00 -5.6437565239789944e-01 +7.7362170301297253e+00 -9.8317768352129464e-01 -1.3255951362527345e+00 +1.2333174095719212e+04 -1.2108355928860654e+05 -5.0011805058124535e+07 
-8.3999999999999897e+00 -5.6437602825453614e-01 +7.7361962686413230e+00 -9.8095298776311091e-01 -9.3236745294027090e-01 +1.2292335057787639e+04 -1.2242024610516730e+05 -4.9772758127319895e+07 
-8.4999999999999893e+00 -5.6437641465735311e-01 +7.7361741467154870e+00 -9.7806144630505831e-01 -5.7465092958182173e-01 +1.2238643725806645e+04 -1.2340428078374238e+05 -4.9476907711080179e+07 
-8.5999999999999908e+00 -5.6437681070722434e-01 +7.7361511088048971e+00 -9.7456147372765778e-01 -2.5720803820154936e-01 +1.2173007774148009e+04 -1.2402899514469826e+05 -4.9128053968839623e+07 
-8.6999999999999904e+00 -5.6437721550512066e-01 +7.7361275993894036e+00 -9.7051148632252848e-01 +1.5198024685132991e-02 +1.2096334964062054e+04 -1.2428771699691306e+05 -4.8729997578518294e+07 
-8.7999999999999794e+00 -5.6437762815209147e-01 +7.7361040629490159e+00 -9.6596989557035884e-01 +2.3780411878370361e-01 +1.2009533030263263e+04 -1.2417377465733427e+05 -4.8286539222819410e+07 
-8.8999999999999808e+00 -5.6437804774920153e-01 +7.7360809439836729e+00 -9.6099511626665834e-01 +4.0584659574871551e-01 +1.1913509837576865e+04 -1.2368049370743854e+05 -4.7801480338855542e+07 
-8.9999999999999805e+00 -5.6437847339765845e-01 +7.7360586870050980e+00 -9.5564556043648585e-01 +5.1456152824064183e-01 +1.1809173261087850e+04 -1.2280119830026854e+05 -4.7278622536294319e+07 
-9.0999999999999801e+00 -5.6437890419873493e-01 +7.7360377365407826e+00 -9.4997963819265241e-01 +5.5918460840386264e-01 +1.1697431211923438e+04 -1.2152921061631058e+05 -4.6721767741379321e+07 
-9.1999999999999797e+00 -5.6437933925372219e-01 +7.7360185371307217e+00 -9.4405576199887586e-01 +5.3495121552982561e-01 +1.1579191712504511e+04 -1.1985785117563541e+05 -4.6134718542115450e+07 
-9.2999999999999794e+00 -5.6437977766408132e-01 +7.7360015333331482e+00 -9.3793234064027375e-01 +4.3709629152721957e-01 +1.1455362792317526e+04 -1.1778043824047553e+05 -4.5521277713870823e+07 
-9.3999999999999808e+00 -5.6438021853131470e-01 +7.7359871697190528e+00 -9.3166778333267430e-01 +2.6085446427635617e-01 +1.1326852560807723e+04 -1.1529028842564208e+05 -4.4885248553970359e+07 
-9.4999999999999805e+00 -5.6438066095701789e-01 +7.7359758908770768e+00 -9.2532049776057890e-01 +1.4599296949285331e-03 +1.1194569174315335e+04 -1.1238071609028203e+05 -4.4230434732732497e+07 
-9.5999999999999801e+00 -5.6438110404279318e-01 +7.7359681414139994e+00 -9.1894889416297754e-01 -3.4585356902948428e-01 +1.1059420917412339e+04 -1.0904503319488547e+05 -4.3560640688872255e+07 
-9.6999999999999797e+00 -5.6438154689051778e-01 +7.7359643659498705e+00 -9.1261137646468504e-01 -7.8585260735031737e-01 +1.0922316034890584e+04 -1.0527655005948548e+05 -4.2879670830636933e+07 
-9.7999999999999794e+00 -5.6438198860196942e-01 +7.7359650091258851e+00 -9.0636635413486399e-01 -1.3233042905633379e+00 +1.0784162957532981e+04 -1.0106857419624215e+05 -4.2191330608505718e+07 
-9.8999999999999808e+00 -5.6438242827914176e-01 +7.7359705155990595e+00 -9.0027223152428826e-01 -1.9629761050469714e+00 +1.0645870105994436e+04 -9.6414411148206505e+04 -4.1499425599701121e+07 
-9.9999999999999805e+00 -5.6438286502407486e-01 +7.7359813300427813e+00 -8.9438741513587061e-01 -2.7096359856459911e+00 +1.0508346023493606e+04 -9.1307363736585423e+04 -4.0807762097625196e+07 
-1.0100000000000000e+01 -5.6438329815665089e-01 +7.7359977304425085e+00 -8.8876208388890465e-01 -3.5651475104034631e+00 +1.0372446843045995e+04 -8.5751586222377955e+04 -4.0120067557090685e+07 
