# multipoles
# s[mm] polynom_b[n=0][T/m^n] polynom_b[n=1][T/m^n] polynom_b[n=2][T/m^n] polynom_b[n=3][T/m^n] polynom_b[n=4][T/m^n] polynom_b[n=5][T/m^n] polynom_b[n=6][T/m^n] 
+0.0000000000000000e+00 -5.9270917073437868e-01 +8.1111670290943785e+00 +3.1103844574987008e-02 +6.2585328542492196e+00 -8.4387306723845213e+03 -3.5184191404251155e+05 +2.3912909977233201e+07 
+1.0000000000000001e-01 -5.9270949872041756e-01 +8.1112113034001609e+00 +2.6851279647576460e-02 +5.2940335963717180e+00 -8.3376691098435531e+03 -3.4712209547854378e+05 +2.3384486543505702e+07 
+2.0000000000000001e-01 -5.9270981003099943e-01 +8.1112570138096398e+00 +2.1345517231087911e-02 +4.2971748235327443e+00 -8.2210505302177644e+03 -3.4216804200587410e+05 +2.2796347230596837e+07 
+2.9999999999999999e-01 -5.9271010611719532e-01 +8.1113038524302823e+00 +1.4703759279441595e-02 +3.2756731544210966e+00 -8.0907170934360656e+03 -3.3702500005766441e+05 +2.2156672601301614e+07 
+4.0000000000000002e-01 -5.9271038843011459e-01 +8.1113515113689569e+00 +7.0432107923226123e-03 +2.2372452860968126e+00 -7.9485110231498738e+03 -3.3173821667462209e+05 +2.1473643535743468e+07 
+5.0000000000000000e-01 -5.9271065842074966e-01 +8.1113996827464288e+00 -1.5189273104943191e-03 +1.1896075569872639e+00 -7.7962744632062413e+03 -3.2635293693588511e+05 +2.0755440524381001e+07 
+5.9999999999999998e-01 -5.9271091754017036e-01 +8.1114480586800166e+00 -1.0865450760376861e-02 +1.4047645263498593e-01 -7.6358496305954013e+03 -3.2091440690510301e+05 +2.0010244431175321e+07 
+6.9999999999999996e-01 -5.9271116723952244e-01 +8.1114963312906134e+00 -2.0879157998495879e-02 -9.0243161437588093e-01 -7.4690786863675330e+03 -3.1546787231329957e+05 +1.9246235842506398e+07 
+8.0000000000000004e-01 -5.9271140896979069e-01 +8.1115441927044181e+00 -3.1442844193504370e-02 -1.9314003217351481e+00 -7.2978038647710237e+03 -3.1005857856342621e+05 +1.8471595723557524e+07 
+9.0000000000000002e-01 -5.9271164418205124e-01 +8.1115913350536939e+00 -4.2439308291910255e-02 -2.9387135076580773e+00 -7.1238673283500593e+03 -3.0473177019169607e+05 +1.7694504703095686e+07 
+1.0000000000000000e+00 -5.9271187432737282e-01 +8.1116374504607460e+00 -5.3751349729982453e-02 -3.9166546778398650e+00 -6.9491112344198800e+03 -2.9953269381125725e+05 +1.6923143397330560e+07 
+1.1000000000000001e+00 -5.9271210085672621e-01 +8.1116822310551751e+00 -6.5261768584395655e-02 -4.8575075299875632e+00 -6.7753777373268194e+03 -2.9450659501926682e+05 +1.6165692441029297e+07 
+1.2000000000000000e+00 -5.9271232522118367e-01 +8.1117253689671855e+00 -7.6853367200533276e-02 -5.7535557440923064e+00 -6.6045089490629198e+03 -2.8969871965282579e+05 +1.5430332275285190e+07 
+1.3000000000000000e+00 -5.9271254887168578e-01 +8.1117665563226460e+00 -8.8408948798421219e-02 -6.5970828568232465e+00 -6.4383469736868919e+03 -2.8515431448404078e+05 +1.4725243335028542e+07 
+1.3999999999999999e+00 -5.9271277325923888e-01 +8.1118054852455295e+00 -9.9811319062022813e-02 -7.3803723278470263e+00 -6.2787338748796446e+03 -2.8091862685406429e+05 +1.4058605888839575e+07 
+1.5000000000000000e+00 -5.9271299983483272e-01 +8.1118418478592620e+00 -1.1094328550255349e-01 -8.0957075927195472e+00 -6.1275116865745422e+03 -2.7703690433089511e+05 +1.3438600088888790e+07 
+1.6000000000000001e+00 -5.9271323004934684e-01 +8.1118753362810736e+00 -1.2168766141403728e-01 -8.7353718850449198e+00 -5.9865223407836693e+03 -2.7355439579509234e+05 +1.2873405634334026e+07 
+1.7000000000000000e+00 -5.9271346535367697e-01 +8.1119056426272866e+00 -1.3192725728048446e-01 -9.2916484059930777e+00 -5.8576078321949008e+03 -2.7051635040881560e+05 +1.2371202561513206e+07 
+1.8000000000000000e+00 -5.9271370719873118e-01 +8.1119324590059012e+00 -1.4154489268662226e-01 -9.7568201216332255e+00 -5.7426099895848311e+03 -2.6796801877540600e+05 +1.1940170150485853e+07 
+1.8999999999999999e+00 -5.9271395703531626e-01 +8.1119554775205565e+00 -1.5042338460698801e-01 -1.0123169848176067e+01 -5.6433706981488313e+03 -2.6595465252690978e+05 +1.1588487982642150e+07 
+2.0000000000000000e+00 -5.9271421631427423e-01 +8.1119743902662194e+00 -1.5844555951170930e-01 -1.0382980170686031e+01 -5.5617316724009324e+03 -2.6452150467865402e+05 +1.1324334871246485e+07 
+2.1000000000000001e+00 -5.9271448628511647e-01 +8.1119890019192376e+00 -1.6552249911829181e-01 -1.0531390547087565e+01 -5.4989683956870094e+03 -2.6369798998802353e+05 +1.1153108378821390e+07 
+2.2000000000000002e+00 -5.9271476743566198e-01 +8.1119995533641145e+00 -1.7167370090087863e-01 -1.0574648286625525e+01 -5.4541759180928302e+03 -2.6345184212015948e+05 +1.1069472676972728e+07 
+2.2999999999999998e+00 -5.9271506007348251e-01 +8.1120063911267515e+00 -1.7694466949830776e-01 -1.0521700266028596e+01 -5.4259243446839382e+03 -2.6373577933031024e+05 +1.1065502179238034e+07 
+2.3999999999999999e+00 -5.9271536450626161e-01 +8.1120098617275769e+00 -1.8138090696274775e-01 -1.0381493274171872e+01 -5.4127838237707474e+03 -2.6450252015797381e+05 +1.1133271487825163e+07 
+2.5000000000000000e+00 -5.9271568104161165e-01 +8.1120103116889624e+00 -1.8502791315603287e-01 -1.0162974224358168e+01 -5.4133245455613451e+03 -2.6570478219466121e+05 +1.1264855404998343e+07 
+2.6000000000000001e+00 -5.9271600998716023e-01 +8.1120080875217120e+00 -1.8793118998704667e-01 -9.8750898018684339e+00 -5.4261166547229041e+03 -2.6729528401164745e+05 +1.1452328494162127e+07 
+2.7000000000000002e+00 -5.9271635165056835e-01 +8.1120035357338622e+00 -1.9013623593886747e-01 -9.5267867121708214e+00 -5.4497303529686924e+03 -2.6922674372822023e+05 +1.1687765566207355e+07 
+2.7999999999999998e+00 -5.9271670633950757e-01 +8.1119970028307868e+00 -1.9168854840591748e-01 -9.1270116810424877e+00 -5.4827358566720632e+03 -2.7145187901358918e+05 +1.1963241479859604e+07 
+2.8999999999999999e+00 -5.9271707436166632e-01 +8.1119888353135075e+00 -1.9263362304126594e-01 -8.6847114448899063e+00 -5.5237034089669878e+03 -2.7392340702221659e+05 +1.2270831199678797e+07 
+3.0000000000000000e+00 -5.9271745602475479e-01 +8.1119793796720412e+00 -1.9301695345505210e-01 -8.2088325403729723e+00 -5.5712032817827603e+03 -2.7659404565050843e+05 +1.2602609793229120e+07 
+3.1000000000000001e+00 -5.9271785163649426e-01 +8.1119689824003167e+00 -1.9288403223767484e-01 -7.7083217580950336e+00 -5.6238057577444115e+03 -2.7941651084788836e+05 +1.2950652347789023e+07 
+3.2000000000000002e+00 -5.9271826150465190e-01 +8.1119579899793219e+00 -1.9228034720925050e-01 -7.1921256585487727e+00 -5.6800811980012322e+03 -2.8234351939625526e+05 +1.3307034284192763e+07 
+3.2999999999999998e+00 -5.9271868593701404e-01 +8.1119467488867816e+00 -1.9125138444278683e-01 -6.6691908741792583e+00 -5.7385999849517530e+03 -2.8532778708569857e+05 +1.3663831081124151e+07 
+3.3999999999999999e+00 -5.9271912524140014e-01 +8.1119356055952085e+00 -1.8984262643486888e-01 -6.1484640435584677e+00 -5.7979325595470264e+03 -2.8832202912089415e+05 +1.4013118462160077e+07 
+3.5000000000000000e+00 -5.9271957972565781e-01 +8.1119249065697492e+00 -1.8809955324099314e-01 -5.6388917651037156e+00 -5.8566493917511989e+03 -2.9127896033260832e+05 +1.4346972228801487e+07 
+3.6000000000000001e+00 -5.9272004969770620e-01 +8.1119149982701160e+00 -1.8606764054005542e-01 -5.1494206740094919e+00 -5.9133210223461338e+03 -2.9415129466204962e+05 +1.4657468475335291e+07 
+3.7000000000000002e+00 -5.9272053546541448e-01 +8.1119062271498166e+00 -1.8379235989176521e-01 -4.6889974154556500e+00 -5.9665180546228457e+03 -2.9689174532930105e+05 +1.4936683536043394e+07 
+3.7999999999999998e+00 -5.9272103733676640e-01 +8.1118989396565393e+00 -1.8131918100248767e-01 -4.2665686662200191e+00 -6.0148111105828420e+03 -2.9945302465447638e+05 +1.5176693777170427e+07 
+3.8999999999999999e+00 -5.9272155561981810e-01 +8.1118934822253710e+00 -1.7869356540288184e-01 -3.8910809552414682e+00 -6.0567709500489327e+03 -3.0178784505300835e+05 +1.5369576157276357e+07 
+4.0000000000000000e+00 -5.9272209062254799e-01 +8.1118902012967897e+00 -1.7596097335958349e-01 -3.5714812447718094e+00 -6.0909683522049991e+03 -3.0384891562080017e+05 +1.5507407692190699e+07 
+4.0999999999999996e+00 -5.9272264238598504e-01 +8.1118893705308359e+00 -1.7316062902307858e-01 -3.3151251421316834e+00 -6.1163668538582833e+03 -3.0559615803089703e+05 +1.5584656167628683e+07 
+4.2000000000000002e+00 -5.9272320997913597e-01 +8.1118909768292635e+00 -1.7030739655946006e-01 -3.1227883146123170e+00 -6.1333959868057082e+03 -3.0702012308771093e+05 +1.5604654876030089e+07 
+4.2999999999999998e+00 -5.9272379225011829e-01 +8.1118949367991142e+00 -1.6741018607866218e-01 -2.9935679632721621e+00 -6.1428282255971453e+03 -3.0811933441399515e+05 +1.5572797405292921e+07 
+4.4000000000000004e+00 -5.9272438804700900e-01 +8.1119011670530270e+00 -1.6447789797151990e-01 -2.9265612868401494e+00 -6.1454362311295736e+03 -3.0889231618480542e+05 +1.5494478222439887e+07 
+4.5000000000000000e+00 -5.9272499621790198e-01 +8.1119095842146560e+00 -1.6151944416669620e-01 -2.9208656208622230e+00 -6.1419924541813098e+03 -3.0933759237780207e+05 +1.5375090807763973e+07 
+4.5999999999999996e+00 -5.9272561561087311e-01 +8.1119201049138745e+00 -1.5854372286080226e-01 -2.9755782883867692e+00 -6.1332696152687895e+03 -3.0945368767417746e+05 +1.5220029934847293e+07 
+4.7000000000000002e+00 -5.9272624507407035e-01 +8.1119326457910628e+00 -1.5555963724307489e-01 -3.0897967037930067e+00 -6.1200403469508374e+03 -3.0923912691801513e+05 +1.5034689964429623e+07 
+4.7999999999999998e+00 -5.9272688345555380e-01 +8.1119471234953160e+00 -1.5257608554073315e-01 -3.2626183060414440e+00 -6.1030773871196316e+03 -3.0869243556272378e+05 +1.4824465775124377e+07 
+4.9000000000000004e+00 -5.9272752960348640e-01 +8.1119634546833552e+00 -1.4960196732644293e-01 -3.4931405340177375e+00 -6.0831534529958599e+03 -3.0781213978572149e+05 +1.4594752145480985e+07 
+5.0000000000000000e+00 -5.9272818236595626e-01 +8.1119815560271622e+00 -1.4664617493237181e-01 -3.7804609952394777e+00 -6.0610414136791969e+03 -3.0659676567374298e+05 +1.4350944599748313e+07 
+5.0999999999999996e+00 -5.9272884059113207e-01 +8.1120013442066234e+00 -1.4371760458016536e-01 -4.1236772675499056e+00 -6.0375140741252280e+03 -3.0504484033635864e+05 +1.4098438369319890e+07 
+5.2000000000000002e+00 -5.9272950312712380e-01 +8.1120227359198420e+00 -1.4082514738637752e-01 -4.5218871816042290e+00 -6.0133443468724372e+03 -3.0315489031968522e+05 +1.3842629209094351e+07 
+5.2999999999999998e+00 -5.9273016882208140e-01 +8.1120456478664487e+00 -1.3797769200410154e-01 -4.9741883085872880e+00 -5.9893052025173047e+03 -3.0092544466257503e+05 +1.3588913164638562e+07 
+5.4000000000000004e+00 -5.9273083652414615e-01 +8.1120699967703036e+00 -1.3518412642645214e-01 -5.4796786132277093e+00 -5.9661696397105261e+03 -2.9835503113195812e+05 +1.3342686439952344e+07 
+5.5000000000000000e+00 -5.9273150508143579e-01 +8.1120956993634241e+00 -1.3245333651649158e-01 -6.0374559739194202e+00 -5.9447107096948093e+03 -2.9544217905693967e+05 +1.3109345504092293e+07 
+5.5999999999999996e+00 -5.9273217334215977e-01 +8.1121226723970761e+00 -1.2979420668447358e-01 -6.6466184889265314e+00 -5.9257015026492991e+03 -2.9218541758584540e+05 +1.2894287024753395e+07 
+5.7000000000000002e+00 -5.9273284015447203e-01 +8.1121508326320217e+00 -1.2721561513337643e-01 -7.3062641781983357e+00 -5.9099152442329587e+03 -2.8858327748961753e+05 +1.2702908342317926e+07 
+5.7999999999999998e+00 -5.9273350436650252e-01 +8.1121800968483626e+00 -1.2472644526626185e-01 -8.0154912512250416e+00 -5.8981250762941263e+03 -2.8463428964578337e+05 +1.2540606420670124e+07 
+5.9000000000000004e+00 -5.9273416482645380e-01 +8.1122103818431963e+00 -1.2233556994078081e-01 -8.7733980282411999e+00 -5.8911043547822383e+03 -2.8033698553575826e+05 +1.2412779259509264e+07 
+5.9999999999999902e+00 -5.9273482038252834e-01 +8.1122416044047636e+00 -1.2005186542650315e-01 -9.5790819905919911e+00 -5.8896263346894248e+03 -2.7568990296283510e+05 +1.2324824278658077e+07 
+6.0999999999999899e+00 -5.9273547021009398e-01 +8.1122736256879424e+00 -1.1788275256742020e-01 -1.0429729300715165e+01 -5.8942362678206955e+03 -2.7070405712267815e+05 +1.2280587046766806e+07 
+6.1999999999999904e+00 -5.9273611459671172e-01 +8.1123061396117233e+00 -1.1583183111680673e-01 -1.1316813120202351e+01 -5.9046899839213511e+03 -2.6542881541989825e+05 +1.2278642732360810e+07 
+6.2999999999999901e+00 -5.9273675406591608e-01 +8.1123388094151512e+00 -1.1390219973281757e-01 -1.2230764028392938e+01 -5.9205706321254720e+03 -2.5992082525691684e+05 +1.2316438911503313e+07 
+6.3999999999999897e+00 -5.9273738914122520e-01 +8.1123712983298493e+00 -1.1209695870732816e-01 -1.3162012484793783e+01 -5.9414613412911194e+03 -2.5423673442921249e+05 +1.2391423118126232e+07 
+6.4999999999999902e+00 -5.9273802034605871e-01 +8.1124032695963422e+00 -1.1041922007379677e-01 -1.4100989286950883e+01 -5.9669450261581114e+03 -2.4843318852383946e+05 +1.2501041917950368e+07 
+6.5999999999999899e+00 -5.9273864820373035e-01 +8.1124343864472994e+00 -1.0887210782473045e-01 -1.5038125117378017e+01 -5.9966043894303948e+03 -2.4256683344357330e+05 +1.2642740935588570e+07 
+6.6999999999999904e+00 -5.9273927323753828e-01 +8.1124643121188065e+00 -1.0745874772505212e-01 -1.5963850859095603e+01 -6.0300221070708039e+03 -2.3669431361419195e+05 +1.2813965716217935e+07 
+6.7999999999999901e+00 -5.9273989597067545e-01 +8.1124927098403763e+00 -1.0618228120942910e-01 -1.6868597311130259e+01 -6.0667805726288825e+03 -2.3087227361000300e+05 +1.3012160531786397e+07 
+6.8999999999999897e+00 -5.9274051692617280e-01 +8.1125192428489417e+00 -1.0504585794877652e-01 -1.7742795615856039e+01 -6.1064620363158820e+03 -2.2515735561847829e+05 +1.3234769039561838e+07 
+6.9999999999999902e+00 -5.9274113662708383e-01 +8.1125435743727028e+00 -1.0405263573040910e-01 -1.8576876785938680e+01 -6.1486486022737108e+03 -2.1960620219056780e+05 +1.3479234256098576e+07 
+7.0999999999999899e+00 -5.9274175559630282e-01 +8.1125653676410288e+00 -1.0320578715722872e-01 -1.9361271994366863e+01 -6.1929221099498136e+03 -2.1427545454929359e+05 +1.3742998017199468e+07 
+7.1999999999999904e+00 -5.9274237435665789e-01 +8.1125842858836617e+00 -1.0250849218027823e-01 -2.0086412574118100e+01 -6.2388642728567447e+03 -2.0922175252450703e+05 +1.4023501631970525e+07 
+7.2999999999999901e+00 -5.9274299343089110e-01 +8.1125999923237249e+00 -1.0196394506153900e-01 -2.0742729799054523e+01 -6.2860565419157174e+03 -2.0450173586891024e+05 +1.4318185221264172e+07 
+7.3999999999999897e+00 -5.9274361334157155e-01 +8.1126121501884931e+00 -1.0157534921331592e-01 -2.1320655226153111e+01 -6.3340802108132530e+03 -2.0017204218627984e+05 +1.4624488239683285e+07 
+7.4999999999999902e+00 -5.9274423461128356e-01 +8.1126204226978338e+00 -1.0134592007764791e-01 -2.1810620344620162e+01 -6.3825163595113418e+03 -1.9628930900916154e+05 +1.4939849204557134e+07 
+7.5999999999999899e+00 -5.9274485776234476e-01 +8.1126244730743977e+00 -1.0127889093447807e-01 -2.2203056893473349e+01 -6.4309457419183427e+03 -1.9291017189099093e+05 +1.5261705156553835e+07 
+7.6999999999999904e+00 -5.9274548331711763e-01 +8.1126239645351994e+00 -1.0137749971174144e-01 -2.2488396623797204e+01 -6.4789490389039665e+03 -1.9009126576214997e+05 +1.5587492871340664e+07 
+7.7999999999999901e+00 -5.9274611179775938e-01 +8.1126185602927112e+00 -1.0164500534045413e-01 -2.2657071325215416e+01 -6.5261065465891479e+03 -1.8788922479472565e+05 +1.5914647375177607e+07 
+7.8999999999999897e+00 -5.9274674372638658e-01 +8.1126079235651662e+00 -1.0208467440291198e-01 -2.2699513139193673e+01 -6.5719984332735985e+03 -1.8636068053649314e+05 +1.6240603177498858e+07 
+7.9999999999999902e+00 -5.9274737962485780e-01 +8.1125917176356133e+00 -1.0269978258545878e-01 -2.2606155666738474e+01 -6.6162047296441606e+03 -1.8556225651438109e+05 +1.6562794257782515e+07 
+8.0999999999999908e+00 -5.9274801988772963e-01 +8.1125698180665431e+00 -1.0348525328960194e-01 -2.2371998978900379e+01 -6.6584915810592393e+03 -1.8552744592601105e+05 +1.6879540683007754e+07 
+8.1999999999999904e+00 -5.9274866452257435e-01 +8.1125427870678859e+00 -1.0441298459626677e-01 -2.2006899838053965e+01 -6.6991350010540309e+03 -1.8621427733258202e+05 +1.7191544955639191e+07 
+8.2999999999999901e+00 -5.9274931346430693e-01 +8.1125113258072368e+00 -1.0545104024980795e-01 -2.1523740968772600e+01 -6.7384948037465792e+03 -1.8756535318883433e+05 +1.7499889340233982e+07 
+8.3999999999999897e+00 -5.9274996664788382e-01 +8.1124761354406445e+00 -1.0656747530766141e-01 -2.0935404830644423e+01 -6.7769309119727823e+03 -1.8952327721611437e+05 +1.7805656489513028e+07 
+8.4999999999999893e+00 -5.9275062400852685e-01 +8.1124379171095651e+00 -1.0773033464808769e-01 -2.0254773519187193e+01 -6.8148033800803114e+03 -1.9203065500109666e+05 +1.8109929538607892e+07 
+8.5999999999999908e+00 -5.9275128548145939e-01 +8.1123973719425884e+00 -1.0890765595274031e-01 -1.9494728824279196e+01 -6.8524723434481275e+03 -1.9503009363691567e+05 +1.8413791883362666e+07 
+8.6999999999999904e+00 -5.9275195100219624e-01 +8.1123552010576390e+00 -1.1006746377559717e-01 -1.8668152276316860e+01 -6.8902981202536994e+03 -1.9846420149334540e+05 +1.8718327631552808e+07 
+8.7999999999999794e+00 -5.9275262050628152e-01 +8.1123121055582494e+00 -1.1117777656848270e-01 -1.7787925067721932e+01 -6.9286410822132202e+03 -2.0227558859890545e+05 +1.9024621003530364e+07 
+8.8999999999999808e+00 -5.9275329392942289e-01 +8.1122687865286984e+00 -1.1220660089394043e-01 -1.6866927893323833e+01 -6.9678617619514907e+03 -2.0640686760908697e+05 +1.9333756835539244e+07 
+8.9999999999999805e+00 -5.9275397120759776e-01 +8.1122259450410894e+00 -1.1312192995899299e-01 -1.5918041165665866e+01 -7.0083208776635483e+03 -2.1080065252344665e+05 +1.9646820688776340e+07 
+9.0999999999999801e+00 -5.9275465227680668e-01 +8.1121842821547947e+00 -1.1389175232135375e-01 -1.4954144998640466e+01 -7.0503791642732740e+03 -2.1539955878863565e+05 +1.9964898036300257e+07 
+9.1999999999999797e+00 -5.9275533707326600e-01 +8.1121444989116487e+00 -1.1448403905278857e-01 -1.3988119076549619e+01 -7.0943976201286605e+03 -2.2014620402424218e+05 +2.0289075446795292e+07 
+9.2999999999999794e+00 -5.9275602553343709e-01 +8.1121072963387899e+00 -1.1486675159749270e-01 -1.3032842728788676e+01 -7.1407373499195846e+03 -2.2498320760818591e+05 +2.0620439814739708e+07 
+9.3999999999999808e+00 -5.9275671759385584e-01 +8.1120733754422698e+00 -1.1500784088490766e-01 -1.2101194744076237e+01 -7.1897595861654363e+03 -2.2985319176341270e+05 +2.0960078477588248e+07 
+9.4999999999999805e+00 -5.9275741319123654e-01 +8.1120434372187500e+00 -1.1487524576165070e-01 -1.1206053721903766e+01 -7.2418257134228952e+03 -2.3469877946724242e+05 +2.1309079314684678e+07 
+9.5999999999999801e+00 -5.9275811226260344e-01 +8.1120181826389768e+00 -1.1443688808154905e-01 -1.0360297599476855e+01 -7.2972973578714491e+03 -2.3946259718528017e+05 +2.1668531164232146e+07 
+9.6999999999999797e+00 -5.9275881474501302e-01 +8.1119983126659694e+00 -1.1366068165874174e-01 -9.5768041613130066e+00 -7.3565362194380723e+03 -2.4408727196394306e+05 +2.2039523031987574e+07 
+9.7999999999999794e+00 -5.9275952057584813e-01 +8.1119845282353573e+00 -1.1251452531216820e-01 -8.8684504782828846e+00 -7.4199042000310374e+03 -2.4851543464965475e+05 +2.2423144691427786e+07 
+9.8999999999999808e+00 -5.9276022969261566e-01 +8.1119775302685593e+00 -1.1096630217195312e-01 -8.2481133132502240e+00 -7.4877634155566320e+03 -2.5268971747088921e+05 +2.2820486735652078e+07 
+9.9999999999999805e+00 -5.9276094203299245e-01 +8.1119780195124083e+00 -1.0898391976648313e-01 -7.7286676119384721e+00 -7.5604756054598329e+03 -2.5655275633532350e+05 +2.3232638375194006e+07 
+1.0100000000000000e+01 -5.9276165745243981e-01 +8.1119864195264810e+00 -1.0656019858275126e-01 -7.3188142508669634e+00 -7.6380379706639606e+03 -2.6006222780098539e+05 +2.3659269867379077e+07 
