# field on trajectory
# s[mm] rx[mm] ry[mm] rz[mm] bx[T] by[T] bz[T]
-0.0000000000000000e+00 +8.1530000000000094e+00 +0.0000000000000000e+00 -0.0000000000000000e+00 -2.8171988492943518e-02 -5.3690693092452957e-01 +5.3493691990218637e-03
-1.0000000000000001e-01 +8.1529997163925092e+00 +0.0000000000000000e+00 -9.9999999999463796e-02 -2.8171936320323086e-02 -5.3690702456542228e-01 +5.3493753330085226e-03
-2.0000000000000001e-01 +8.1529988655711296e+00 +0.0000000000000000e+00 -1.9999999999571000e-01 -2.8171861973693733e-02 -5.3690710472408409e-01 +5.3493821598585177e-03
-2.9999999999999999e-01 +8.1529974475415692e+00 +0.0000000000000000e+00 -2.9999999998552201e-01 -2.8171767632274261e-02 -5.3690717295445423e-01 +5.3493897074761076e-03
-4.0000000000000002e-01 +8.1529954622965306e+00 +0.0000000000000000e+00 -3.9999999996568197e-01 -2.8171655475286033e-02 -5.3690723081058156e-01 +5.3493980037647220e-03
-5.0000000000000000e-01 +8.1529929098396696e+00 +0.0000000000000000e+00 -4.9999999993297300e-01 -2.8171527681944548e-02 -5.3690727984644671e-01 +5.3494070766253688e-03
-5.9999999999999998e-01 +8.1529897901673394e+00 +0.0000000000000000e+00 -5.9999999988417696e-01 -2.8171386431467594e-02 -5.3690732161609489e-01 +5.3494169539582536e-03
-6.9999999999999996e-01 +8.1529861032831796e+00 +0.0000000000000000e+00 -6.9999999981607697e-01 -2.8171233903070542e-02 -5.3690735767352982e-01 +5.3494276636619261e-03
-8.0000000000000004e-01 +8.1529818491871993e+00 +0.0000000000000000e+00 -7.9999999972545699e-01 -2.8171072275971591e-02 -5.3690738957279105e-01 +5.3494392336343203e-03
-9.0000000000000002e-01 +8.1529770278793894e+00 +0.0000000000000000e+00 -8.9999999960909804e-01 -2.8170903729391343e-02 -5.3690741886792825e-01 +5.3494516917727258e-03
-1.0000000000000000e+00 +8.1529716393597500e+00 +0.0000000000000000e+00 -9.9999999946378304e-01 -2.8170730442553780e-02 -5.3690744711299976e-01 +5.3494650659740217e-03
-1.1000000000000001e+00 +8.1529656836210105e+00 +0.0000000000000000e+00 -1.0999999992862901e+00 -2.8170554594690145e-02 -5.3690747586212539e-01 +5.3494793841354586e-03
-1.2000000000000000e+00 +8.1529591606740706e+00 +0.0000000000000000e+00 -1.1999999990734200e+00 -2.8170378365029919e-02 -5.3690750666929898e-01 +5.3494946741529693e-03
-1.3000000000000000e+00 +8.1529520705153100e+00 +0.0000000000000000e+00 -1.2999999988219300e+00 -2.8170203932814660e-02 -5.3690754108862782e-01 +5.3495109639238800e-03
-1.3999999999999999e+00 +8.1529444131410909e+00 +0.0000000000000000e+00 -1.3999999985286200e+00 -2.8170033477293230e-02 -5.3690758067422550e-01 +5.3495282813460386e-03
-1.5000000000000000e+00 +8.1529361885550298e+00 +0.0000000000000000e+00 -1.4999999981902701e+00 -2.8169869177720075e-02 -5.3690762698015715e-01 +5.3495466543175092e-03
-1.6000000000000001e+00 +8.1529273967571498e+00 +0.0000000000000000e+00 -1.5999999978036501e+00 -2.8169713213360318e-02 -5.3690768156051938e-01 +5.3495661107376196e-03
-1.7000000000000000e+00 +8.1529180377474404e+00 +0.0000000000000000e+00 -1.6999999973655600e+00 -2.8169567763489462e-02 -5.3690774596941282e-01 +5.3495866785069407e-03
-1.8000000000000000e+00 +8.1529081115222706e+00 +0.0000000000000000e+00 -1.7999999968727800e+00 -2.8169435007395736e-02 -5.3690782176096796e-01 +5.3496083855277725e-03
-1.8999999999999999e+00 +8.1528976180852606e+00 +0.0000000000000000e+00 -1.8999999963220899e+00 -2.8169317124376838e-02 -5.3690791048926467e-01 +5.3496312597035665e-03
-2.0000000000000000e+00 +8.1528865574327902e+00 +0.0000000000000000e+00 -1.9999999957102601e+00 -2.8169216293746604e-02 -5.3690801370843810e-01 +5.3496553289402631e-03
-2.1000000000000001e+00 +8.1528749295721408e+00 +0.0000000000000000e+00 -2.0999999950340902e+00 -2.8169134112834296e-02 -5.3690813268418736e-01 +5.3496806155286323e-03
-2.2000000000000002e+00 +8.1528627344960096e+00 +0.0000000000000000e+00 -2.1999999942903599e+00 -2.8169069851006260e-02 -5.3690826752889009e-01 +5.3497071192963302e-03
-2.2999999999999998e+00 +8.1528499722080596e+00 +0.0000000000000000e+00 -2.2999999934758399e+00 -2.8169022195630673e-02 -5.3690841806647560e-01 +5.3497348344546539e-03
-2.3999999999999999e+00 +8.1528366427046404e+00 +0.0000000000000000e+00 -2.3999999925873299e+00 -2.8168989834077337e-02 -5.3690858412091158e-01 +5.3497637552163335e-03
-2.5000000000000000e+00 +8.1528227459894005e+00 +0.0000000000000000e+00 -2.4999999916215998e+00 -2.8168971453711122e-02 -5.3690876551609590e-01 +5.3497938757944598e-03
-2.6000000000000001e+00 +8.1528082820659602e+00 +0.0000000000000000e+00 -2.5999999905754398e+00 -2.8168965741893960e-02 -5.3690896207590766e-01 +5.3498251904030916e-03
-2.7000000000000002e+00 +8.1527932509234198e+00 +0.0000000000000000e+00 -2.6999999894456299e+00 -2.8168971385989634e-02 -5.3690917362431267e-01 +5.3498576932583634e-03
-2.7999999999999998e+00 +8.1527776525726896e+00 +0.0000000000000000e+00 -2.7999999882289601e+00 -2.8168987073348757e-02 -5.3690939998509246e-01 +5.3498913785757869e-03
-2.8999999999999999e+00 +8.1527614870065008e+00 +0.0000000000000000e+00 -2.8999999869222002e+00 -2.8169011491323493e-02 -5.3690964098213756e-01 +5.3499262405733100e-03
-3.0000000000000000e+00 +8.1527447542284808e+00 +0.0000000000000000e+00 -2.9999999855221300e+00 -2.8169043327255398e-02 -5.3690989643923215e-01 +5.3499622734691499e-03
-3.1000000000000001e+00 +8.1527274542386294e+00 +0.0000000000000000e+00 -3.0999999840255499e+00 -2.8169081268480178e-02 -5.3691016618015719e-01 +5.3499994714829319e-03
-3.2000000000000002e+00 +8.1527095870333106e+00 +0.0000000000000000e+00 -3.1999999824292300e+00 -2.8169124002326879e-02 -5.3691045002869020e-01 +5.3500378288357147e-03
-3.2999999999999998e+00 +8.1526911526198091e+00 +0.0000000000000000e+00 -3.2999999807299600e+00 -2.8169170216111285e-02 -5.3691074780849413e-01 +5.3500773397489459e-03
-3.3999999999999999e+00 +8.1526721509872004e+00 +0.0000000000000000e+00 -3.3999999789245101e+00 -2.8169218597146502e-02 -5.3691105934333117e-01 +5.3501179984466775e-03
-3.5000000000000000e+00 +8.1526525821464002e+00 +0.0000000000000000e+00 -3.4999999770096801e+00 -2.8169267832726406e-02 -5.3691138445676612e-01 +5.3501597991525872e-03
-3.6000000000000001e+00 +8.1526324460901396e+00 +0.0000000000000000e+00 -3.5999999749822500e+00 -2.8169316610140466e-02 -5.3691172297245715e-01 +5.3502027360930338e-03
-3.7000000000000002e+00 +8.1526117428220495e+00 +0.0000000000000000e+00 -3.6999999728389801e+00 -2.8169363616661471e-02 -5.3691207471394120e-01 +5.3502468034948942e-03
-3.7999999999999998e+00 +8.1525904723421299e+00 +0.0000000000000000e+00 -3.7999999705766800e+00 -2.8169407539550363e-02 -5.3691243950473921e-01 +5.3502919955867112e-03
-3.8999999999999999e+00 +8.1525686346503807e+00 +0.0000000000000000e+00 -3.8999999681921298e+00 -2.8169447066054010e-02 -5.3691281716832584e-01 +5.3503383065984277e-03
-4.0000000000000000e+00 +8.1525462297431694e+00 +0.0000000000000000e+00 -3.9999999656820902e+00 -2.8169480883405700e-02 -5.3691320752815463e-01 +5.3503857307617220e-03
-4.0999999999999996e+00 +8.1525232576241304e+00 +0.0000000000000000e+00 -4.0999999630433699e+00 -2.8169507862907148e-02 -5.3691361019891104e-01 +5.3504342291136649e-03
-4.2000000000000002e+00 +8.1524997182896204e+00 +0.0000000000000000e+00 -4.1999999602727298e+00 -2.8169527612204762e-02 -5.3691402396063648e-01 +5.3504836299105209e-03
-4.2999999999999998e+00 +8.1524756117469206e+00 +0.0000000000000000e+00 -4.2999999573669703e+00 -2.8169539923037407e-02 -5.3691444738463279e-01 +5.3505337282120421e-03
-4.4000000000000004e+00 +8.1524509379887604e+00 +0.0000000000000000e+00 -4.3999999543228601e+00 -2.8169544587161938e-02 -5.3691487904232083e-01 +5.3505843190788044e-03
-4.5000000000000000e+00 +8.1524256970187707e+00 +0.0000000000000000e+00 -4.4999999511372000e+00 -2.8169541396344134e-02 -5.3691531750505572e-01 +5.3506351975702061e-03
-4.5999999999999996e+00 +8.1523998888369498e+00 +0.0000000000000000e+00 -4.5999999478067499e+00 -2.8169530142365257e-02 -5.3691576134423724e-01 +5.3506861587454988e-03
-4.7000000000000002e+00 +8.1523735134396702e+00 +0.0000000000000000e+00 -4.6999999443283098e+00 -2.8169510617022841e-02 -5.3691620913130833e-01 +5.3507369976637294e-03
-4.7999999999999998e+00 +8.1523465708305594e+00 +0.0000000000000000e+00 -4.7999999406986600e+00 -2.8169482612127348e-02 -5.3691665943767952e-01 +5.3507875093828381e-03
-4.9000000000000004e+00 +8.1523190610096208e+00 +0.0000000000000000e+00 -4.8999999369145701e+00 -2.8169445919507215e-02 -5.3691711083480853e-01 +5.3508374889604101e-03
-5.0000000000000000e+00 +8.1522909839768491e+00 +0.0000000000000000e+00 -4.9999999329728402e+00 -2.8169400331008350e-02 -5.3691756189417850e-01 +5.3508867314533493e-03
-5.0999999999999996e+00 +8.1522623397286207e+00 +0.0000000000000000e+00 -5.0999999288702398e+00 -2.8169345638496324e-02 -5.3691801118732163e-01 +5.3509350319180665e-03
-5.2000000000000002e+00 +8.1522331282685592e+00 +0.0000000000000000e+00 -5.1999999246035600e+00 -2.8169281633853061e-02 -5.3691845728574661e-01 +5.3509821854096033e-03
-5.2999999999999998e+00 +8.1522033495966806e+00 +0.0000000000000000e+00 -5.2999999201695802e+00 -2.8169208108981849e-02 -5.3691889876101528e-01 +5.3510279869823721e-03
-5.4000000000000004e+00 +8.1521730037093203e+00 +0.0000000000000000e+00 -5.3999999155650800e+00 -2.8169124855808265e-02 -5.3691933418474791e-01 +5.3510722316901013e-03
-5.5000000000000000e+00 +8.1521420906137791e+00 +0.0000000000000000e+00 -5.4999999107868396e+00 -2.8169031666275279e-02 -5.3691976212851589e-01 +5.3511147145846628e-03
-5.5999999999999996e+00 +8.1521106102991308e+00 +0.0000000000000000e+00 -5.5999999058316599e+00 -2.8168928332355549e-02 -5.3692018116405937e-01 +5.3511552307182039e-03
-5.7000000000000002e+00 +8.1520785627762997e+00 +0.0000000000000000e+00 -5.6999999006963096e+00 -2.8168814646036565e-02 -5.3692058986299307e-01 +5.3511935751400499e-03
-5.7999999999999998e+00 +8.1520459480379905e+00 +0.0000000000000000e+00 -5.7999998953775700e+00 -2.8168690399337185e-02 -5.3692098679710232e-01 +5.3512295428996695e-03
-5.9000000000000004e+00 +8.1520127660915005e+00 +0.0000000000000000e+00 -5.8999998898722197e+00 -2.8168555384295656e-02 -5.3692137053810518e-01 +5.3512629290441210e-03
-5.9999999999999902e+00 +8.1519790169259103e+00 +0.0000000000000000e+00 -5.9999998841770603e+00 -2.8168409392983311e-02 -5.3692173965789558e-01 +5.3512935286204851e-03
-6.0999999999999899e+00 +8.1519447005521197e+00 +0.0000000000000000e+00 -6.0999998782888598e+00 -2.8168252582717507e-02 -5.3692209311284211e-01 +5.3513212207411181e-03
-6.1999999999999904e+00 +8.1519098169665103e+00 +0.0000000000000000e+00 -6.1999998722044003e+00 -2.8168086571752515e-02 -5.3692243139784457e-01 +5.3513462207930148e-03
-6.2999999999999901e+00 +8.1518743661654298e+00 +0.0000000000000000e+00 -6.2999998659204701e+00 -2.8167913343565679e-02 -5.3692275539242951e-01 +5.3513688282313780e-03
-6.3999999999999897e+00 +8.1518383481488907e+00 +0.0000000000000000e+00 -6.3999998594338496e+00 -2.8167734881621848e-02 -5.3692306597612593e-01 +5.3513893425103966e-03
-6.4999999999999902e+00 +8.1518017629241495e+00 +0.0000000000000000e+00 -6.4999998527413201e+00 -2.8167553169371268e-02 -5.3692336402844054e-01 +5.3514080630829618e-03
-6.5999999999999899e+00 +8.1517646104839496e+00 +0.0000000000000000e+00 -6.5999998458396698e+00 -2.8167370190257394e-02 -5.3692365042901813e-01 +5.3514252894022703e-03
-6.6999999999999904e+00 +8.1517268908319203e+00 +0.0000000000000000e+00 -6.6999998387256703e+00 -2.8167187927706217e-02 -5.3692392605745676e-01 +5.3514413209198560e-03
-6.7999999999999901e+00 +8.1516886039680703e+00 +0.0000000000000000e+00 -6.7999998313961196e+00 -2.8167008365131224e-02 -5.3692419179341411e-01 +5.3514564570866768e-03
-6.8999999999999897e+00 +8.1516497498923908e+00 +0.0000000000000000e+00 -6.8999998238477902e+00 -2.8166833485931339e-02 -5.3692444851658339e-01 +5.3514709973527886e-03
-6.9999999999999902e+00 +8.1516103286012402e+00 +0.0000000000000000e+00 -6.9999998160774597e+00 -2.8166665273491522e-02 -5.3692469710672031e-01 +5.3514852411676011e-03
-7.0999999999999899e+00 +8.1515703400982602e+00 +0.0000000000000000e+00 -7.0999998080819298e+00 -2.8166505711177882e-02 -5.3692493844356370e-01 +5.3514994879790053e-03
-7.1999999999999904e+00 +8.1515297843834595e+00 +0.0000000000000000e+00 -7.1999997998579603e+00 -2.8166356782341175e-02 -5.3692517340691726e-01 +5.3515140372341671e-03
-7.2999999999999901e+00 +8.1514886614531896e+00 +0.0000000000000000e+00 -7.2999997914023496e+00 -2.8166220470316101e-02 -5.3692540287665091e-01 +5.3515291883795089e-03
-7.3999999999999897e+00 +8.1514469713147300e+00 +0.0000000000000000e+00 -7.3999997827118804e+00 -2.8166098758414922e-02 -5.3692562773259400e-01 +5.3515452408595485e-03
-7.4999999999999902e+00 +8.1514047139571595e+00 +0.0000000000000000e+00 -7.4999997737833199e+00 -2.8165993629938112e-02 -5.3692584885475059e-01 +5.3515624941190944e-03
-7.5999999999999899e+00 +8.1513618893914099e+00 +0.0000000000000000e+00 -7.5999997646134698e+00 -2.8165907068157976e-02 -5.3692606712300661e-01 +5.3515812476001619e-03
-7.6999999999999904e+00 +8.1513184976138309e+00 +0.0000000000000000e+00 -7.6999997551991104e+00 -2.8165841056332162e-02 -5.3692628341739823e-01 +5.3516018007446998e-03
-7.7999999999999901e+00 +8.1512745386207808e+00 +0.0000000000000000e+00 -7.7999997455370096e+00 -2.8165797577697285e-02 -5.3692649861800656e-01 +5.3516244529934641e-03
-7.8999999999999897e+00 +8.1512300124159101e+00 +0.0000000000000000e+00 -7.8999997356239602e+00 -2.8165778615465320e-02 -5.3692671360490341e-01 +5.3516495037854075e-03
-7.9999999999999902e+00 +8.1511849189955701e+00 +0.0000000000000000e+00 -7.9999997254567399e+00 -2.8165786152828599e-02 -5.3692692925826091e-01 +5.3516772525587812e-03
-8.0999999999999908e+00 +8.1511392583670403e+00 +0.0000000000000000e+00 -8.0999997150321406e+00 -2.8165821445969387e-02 -5.3692714655886653e-01 +5.3517079326322898e-03
-8.1999999999999904e+00 +8.1510930305230396e+00 +0.0000000000000000e+00 -8.1999997043469399e+00 -2.8165882843091142e-02 -5.3692736689022047e-01 +5.3517415128516935e-03
-8.2999999999999901e+00 +8.1510462354672200e+00 +0.0000000000000000e+00 -8.2999996933979094e+00 -2.8165967965356239e-02 -5.3692759173633642e-01 +5.3517778959394635e-03
-8.3999999999999897e+00 +8.1509988731995708e+00 +0.0000000000000000e+00 -8.3999996821818605e+00 -2.8166074433883484e-02 -5.3692782258118976e-01 +5.3518169846140445e-03
-8.4999999999999893e+00 +8.1509509437164507e+00 +0.0000000000000000e+00 -8.4999996706955496e+00 -2.8166199869746729e-02 -5.3692806090871348e-01 +5.3518586815897214e-03
-8.5999999999999908e+00 +8.1509024470215099e+00 +0.0000000000000000e+00 -8.5999996589357703e+00 -2.8166341893969445e-02 -5.3692830820271642e-01 +5.3519028895756843e-03
-8.6999999999999904e+00 +8.1508533831147396e+00 +0.0000000000000000e+00 -8.6999996468993004e+00 -2.8166498127527619e-02 -5.3692856594696081e-01 +5.3519495112767284e-03
-8.7999999999999794e+00 +8.1508037519961398e+00 +0.0000000000000000e+00 -8.7999996345829192e+00 -2.8166666191347129e-02 -5.3692883562513216e-01 +5.3519984493928616e-03
-8.8999999999999808e+00 +8.1507535536620708e+00 +0.0000000000000000e+00 -8.8999996219834205e+00 -2.8166843706303880e-02 -5.3692911872086591e-01 +5.3520496066194719e-03
-8.9999999999999805e+00 +8.1507027881161793e+00 +0.0000000000000000e+00 -8.9999996090975891e+00 -2.8167028293218252e-02 -5.3692941671766259e-01 +5.3521028856463601e-03
-9.0999999999999801e+00 +8.1506514553584601e+00 +0.0000000000000000e+00 -9.0999995959221902e+00 -2.8167217572858123e-02 -5.3692973109896680e-01 +5.3521581891584668e-03
-9.1999999999999797e+00 +8.1505995553889097e+00 +0.0000000000000000e+00 -9.1999995824540193e+00 -2.8167409165936203e-02 -5.3693006334813764e-01 +5.3522154198354707e-03
-9.2999999999999794e+00 +8.1505470882038900e+00 +0.0000000000000000e+00 -9.2999995686898593e+00 -2.8167600693110136e-02 -5.3693041494847360e-01 +5.3522744803519481e-03
-9.3999999999999808e+00 +8.1504940538070496e+00 +0.0000000000000000e+00 -9.3999995546264898e+00 -2.8167789774977022e-02 -5.3693078738312883e-01 +5.3523352733764219e-03
-9.4999999999999805e+00 +8.1504404521983798e+00 +0.0000000000000000e+00 -9.4999995402606903e+00 -2.8167974032076392e-02 -5.3693118213519153e-01 +5.3523977015720696e-03
-9.5999999999999801e+00 +8.1503862833778804e+00 +0.0000000000000000e+00 -9.5999995255892507e+00 -2.8168151084887592e-02 -5.3693160068765644e-01 +5.3524616675963413e-03
-9.6999999999999797e+00 +8.1503315473419207e+00 +0.0000000000000000e+00 -9.6999995106089507e+00 -2.8168318553829827e-02 -5.3693204452344556e-01 +5.3525270741010969e-03
-9.7999999999999794e+00 +8.1502762440941297e+00 +0.0000000000000000e+00 -9.7999994953165697e+00 -2.8168474059256782e-02 -5.3693251512532925e-01 +5.3525938237316819e-03
-9.8999999999999808e+00 +8.1502203736345091e+00 +0.0000000000000000e+00 -9.8999994797088906e+00 -2.8168615221459543e-02 -5.3693301397600146e-01 +5.3526618191276180e-03
-9.9999999999999805e+00 +8.1501639359594300e+00 +0.0000000000000000e+00 -9.9999994637827001e+00 -2.8168739660665361e-02 -5.3693354255807857e-01 +5.3527309629224900e-03
-1.0100000000000000e+01 +8.1501069310761505e+00 +0.0000000000000000e+00 -1.0099999447534801e+01 -2.8168845521333526e-02 -5.3693410172995026e-01 +5.3528011541663272e-03
-1.0199999999999999e+01 +8.1500493589774106e+00 +0.0000000000000000e+00 -1.0199999430961901e+01 -2.8168933045167099e-02 -5.3693468985385640e-01 +5.3528722776034687e-03
-1.0300000000000001e+01 +8.1499912196668394e+00 +0.0000000000000000e+00 -1.0299999414060901e+01 -2.8169002998285297e-02 -5.3693530466792527e-01 +5.3529442144096377e-03
-1.0400000000000000e+01 +8.1499325131444493e+00 +0.0000000000000000e+00 -1.0399999396828500e+01 -2.8169056146927728e-02 -5.3693594391035449e-01 +5.3530168457711982e-03
-1.0500000000000000e+01 +8.1498732394065900e+00 +0.0000000000000000e+00 -1.0499999379261400e+01 -2.8169093257457659e-02 -5.3693660531941156e-01 +5.3530900528854534e-03
-1.0600000000000000e+01 +8.1498133984568994e+00 +0.0000000000000000e+00 -1.0599999361356600e+01 -2.8169115096360886e-02 -5.3693728663335583e-01 +5.3531637169600957e-03
-1.0699999999999999e+01 +8.1497529902953794e+00 +0.0000000000000000e+00 -1.0699999343110701e+01 -2.8169122430253320e-02 -5.3693798559051897e-01 +5.3532377192143247e-03
-1.0800000000000001e+01 +8.1496920149220404e+00 +0.0000000000000000e+00 -1.0799999324520600e+01 -2.8169116025882658e-02 -5.3693869992928023e-01 +5.3533119408788622e-03
-1.0900000000000000e+01 +8.1496304723332305e+00 +0.0000000000000000e+00 -1.0899999305583000e+01 -2.8169096650133139e-02 -5.3693942738809497e-01 +5.3533862631965252e-03
-1.1000000000000000e+01 +8.1495683625325892e+00 +0.0000000000000000e+00 -1.0999999286294800e+01 -2.8169065070024365e-02 -5.3694016570541514e-01 +5.3534605674216669e-03
-1.1100000000000000e+01 +8.1495056855201309e+00 +0.0000000000000000e+00 -1.1099999266652601e+01 -2.8169022052718897e-02 -5.3694091261977095e-01 +5.3535347348213115e-03
-1.1199999999999999e+01 +8.1494424412958306e+00 +0.0000000000000000e+00 -1.1199999246653300e+01 -2.8168968365523961e-02 -5.3694166586974501e-01 +5.3536086466751554e-03
-1.1300000000000001e+01 +8.1493786298560700e+00 +0.0000000000000000e+00 -1.1299999226293700e+01 -2.8168904775896095e-02 -5.3694242319400198e-01 +5.3536821842761441e-03
-1.1400000000000000e+01 +8.1493142512044905e+00 +0.0000000000000000e+00 -1.1399999205570500e+01 -2.8168832051440090e-02 -5.3694318233120764e-01 +5.3537552289299115e-03
-1.1500000000000000e+01 +8.1492493053447106e+00 +0.0000000000000000e+00 -1.1499999184480499e+01 -2.8168750959915074e-02 -5.3694394102008525e-01 +5.3538276619556485e-03
-1.1600000000000000e+01 +8.1491837922658306e+00 +0.0000000000000000e+00 -1.1599999163020600e+01 -2.8168662269243354e-02 -5.3694469699952296e-01 +5.3538993646874734e-03
-1.1699999999999999e+01 +8.1491177119787608e+00 +0.0000000000000000e+00 -1.1699999141187400e+01 -2.8168566747499429e-02 -5.3694544800830890e-01 +5.3539702184719805e-03
