# multipoles
# s[mm] polynom_b[n=0][T/m^n] polynom_b[n=1][T/m^n] polynom_b[n=2][T/m^n] polynom_b[n=3][T/m^n] polynom_b[n=4][T/m^n] polynom_b[n=5][T/m^n] polynom_b[n=6][T/m^n] 
+0.0000000000000000e+00 -5.9325068025990990e-01 +8.1241508988659081e+00 +1.1160922076564035e+00 -5.0827983157971211e+01 -1.5787613049018290e+04 +1.0265939270151596e+05 +5.2369262815216593e+07 
-1.0000000000000001e-01 -5.9325056801003839e-01 +8.1241754711488703e+00 +1.1170069808095233e+00 -5.1324326523194642e+01 -1.5803298211906484e+04 +1.0485504641376321e+05 +5.2427950752454735e+07 
-2.0000000000000001e-01 -5.9325045177043334e-01 +8.1242007979758526e+00 +1.1180051482250766e+00 -5.1816197601455826e+01 -1.5823752332872875e+04 +1.0701009148446664e+05 +5.2513790621462092e+07 
-3.0000000000000004e-01 -5.9325033179072462e-01 +8.1242266323104460e+00 +1.1190578045713262e+00 -5.2300848943762084e+01 -1.5848328995542046e+04 +1.0911341833250897e+05 +5.2623692240864001e+07 
-4.0000000000000002e-01 -5.9325020832056052e-01 +8.1242527271198615e+00 +1.1201360456045624e+00 -5.2775533184258549e+01 -1.5876381798029946e+04 +1.1115391779501624e+05 +5.2754565483486935e+07 
-5.0000000000000000e-01 -5.9325008160956916e-01 +8.1242788353696618e+00 +1.1212109648357336e+00 -5.3237502885006577e+01 -1.5907264298951724e+04 +1.1312048023189479e+05 +5.2903320044231445e+07 
-5.9999999999999998e-01 -5.9324995190740648e-01 +8.1243047100266228e+00 +1.1222536591508523e+00 -5.3684010612326858e+01 -1.5940330120174765e+04 +1.1500199593620619e+05 +5.3066865916318156e+07 
-6.9999999999999996e-01 -5.9324981946367095e-01 +8.1243301040641835e+00 +1.1232352186904975e+00 -5.4112309113186456e+01 -1.5974932761530412e+04 +1.1678735620999758e+05 +5.3242112530986026e+07 
-7.9999999999999993e-01 -5.9324968452802807e-01 +8.1243547704496404e+00 +1.1241267421175658e+00 -5.4519650935213107e+01 -1.6010425883629212e+04 +1.1846545113806437e+05 +5.3425970079582557e+07 
-8.9999999999999991e-01 -5.9324954735007562e-01 +8.1243784621571695e+00 +1.1248993195635717e+00 -5.4903288811249318e+01 -1.6046162985556612e+04 +1.2002517182973113e+05 +5.3615347987022504e+07 
-9.9999999999999989e-01 -5.9324940817942573e-01 +8.1244009321596273e+00 +1.1255240438564833e+00 -5.5260475414420547e+01 -1.6081497623186438e+04 +1.2145540898474387e+05 +5.3807155961888731e+07 
-1.0999999999999999e+00 -5.9324926726567473e-01 +8.1244219334340855e+00 +1.1259720067190835e+00 -5.5588463541230837e+01 -1.6115783333962925e+04 +1.2274505400557832e+05 +5.3998303629311725e+07 
-1.2000000000000000e+00 -5.9324912485841241e-01 +8.1244412189579815e+00 +1.1262142989322950e+00 -5.5884505986978972e+01 -1.6148373639026817e+04 +1.2388299824819801e+05 +5.4185700541247390e+07 
-1.3000000000000000e+00 -5.9324898120720082e-01 +8.1244585417084778e+00 +1.1262220095187152e+00 -5.6145855531613584e+01 -1.6178622032096226e+04 +1.2485813294415148e+05 +5.4366256130766794e+07 
-1.4000000000000001e+00 -5.9324883656160410e-01 +8.1244736546705916e+00 +1.1259662282367882e+00 -5.6369765179291974e+01 -1.6205882023423384e+04 +1.2565935059359469e+05 +5.4536879913885452e+07 
-1.5000000000000002e+00 -5.9324869117116041e-01 +8.1244863108245831e+00 +1.1254180427079257e+00 -5.6553487809739188e+01 -1.6229507086644140e+04 +1.2627554300503859e+05 +5.4694481239505313e+07 
-1.6000000000000003e+00 -5.9324854528537629e-01 +8.1244962631572228e+00 +1.1245485376793189e+00 -5.6694276470443334e+01 -1.6248850645669107e+04 +1.2669560287647179e+05 +5.4835969229715310e+07 
-1.7000000000000004e+00 -5.9324839915375416e-01 +8.1245032646591451e+00 +1.1233287992838452e+00 -5.6789384343738504e+01 -1.6263266158253658e+04 +1.2690842372853163e+05 +5.4958253181429282e+07 
-1.8000000000000005e+00 -5.9324825302576933e-01 +8.1245070683201206e+00 +1.1217299108740464e+00 -5.6836064593732473e+01 -1.6272107029928600e+04 +1.2690289898076978e+05 +5.5058242140940741e+07 
-1.9000000000000006e+00 -5.9324810715087539e-01 +8.1245074271320163e+00 +1.1197229550194032e+00 -5.6831570446247802e+01 -1.6274726661662509e+04 +1.2666792237644910e+05 +5.5132845155419052e+07 
-2.0000000000000004e+00 -5.9324796177848649e-01 +8.1245040940913764e+00 +1.1172790110209758e+00 -5.6773155278846239e+01 -1.6270478394694261e+04 +1.2619238857076726e+05 +5.5178970985894158e+07 
-2.1000000000000005e+00 -5.9324781727366627e-01 +8.1244969157507363e+00 +1.1143830125767471e+00 -5.6659505329464167e+01 -1.6258957780088538e+04 +1.2547192076526780e+05 +5.5194621044858702e+07 
-2.2000000000000006e+00 -5.9324767446796656e-01 +8.1244861105435611e+00 +1.1110745894681182e+00 -5.6494986998580174e+01 -1.6240720862402124e+04 +1.2452879483879001e+05 +5.5182130952038981e+07 
-2.3000000000000007e+00 -5.9324753431057486e-01 +8.1244719892998898e+00 +1.1074068734468243e+00 -5.6285373874284126e+01 -1.6216561897068712e+04 +1.2339188534473248e+05 +5.5144911644189112e+07 
-2.4000000000000008e+00 -5.9324739775070212e-01 +8.1244548628501772e+00 +1.1034329994638905e+00 -5.6036439575092601e+01 -1.6187275201178745e+04 +1.2209006702963590e+05 +5.5086374351514861e+07 
-2.5000000000000009e+00 -5.9324726573751962e-01 +8.1244350420184634e+00 +1.0992060972704816e+00 -5.5753957535942476e+01 -1.6153654990821307e+04 +1.2065221351896772e+05 +5.5009929815722749e+07 
-2.6000000000000010e+00 -5.9324713922026118e-01 +8.1244128376274425e+00 +1.0947793045896996e+00 -5.5443701183194925e+01 -1.6116495632607588e+04 +1.1910719843646816e+05 +5.4918989489033170e+07 
-2.7000000000000011e+00 -5.9324701914814837e-01 +8.1243885605007655e+00 +1.0902057566731485e+00 -5.5111443999864626e+01 -1.6076591441067741e+04 +1.1748389575448750e+05 +5.4816964561712921e+07 
-2.8000000000000012e+00 -5.9324690647043588e-01 +8.1243625214537225e+00 +1.0855385933136228e+00 -5.4762959230344975e+01 -1.6034736818590713e+04 +1.1581117801037173e+05 +5.4707266643120445e+07 
-2.9000000000000012e+00 -5.9324680213637726e-01 +8.1243350312982265e+00 +1.0808309536515539e+00 -5.4404020061634071e+01 -1.5991726151211422e+04 +1.1411791746992625e+05 +5.4593307252783552e+07 
-3.0000000000000013e+00 -5.9324670709525962e-01 +8.1243064008461481e+00 +1.0761359800274086e+00 -5.4040399708773542e+01 -1.5948353879259927e+04 +1.1243298657498595e+05 +5.4478498149280399e+07 
-3.1000000000000014e+00 -5.9324662229639180e-01 +8.1242769408978361e+00 +1.0715068174871727e+00 -5.3677871064003718e+01 -1.5905414495196699e+04 +1.1078525585961086e+05 +5.4366251340065368e+07 
-3.2000000000000015e+00 -5.9324654868910542e-01 +8.1242469622562012e+00 +1.0669966129681019e+00 -5.3322207140949061e+01 -1.5863702519579167e+04 +1.0920359663005837e+05 +5.4259978942193709e+07 
-3.3000000000000016e+00 -5.9324648722277695e-01 +8.1242167757126165e+00 +1.0626585179763273e+00 -5.2979180651034554e+01 -1.5824012554550869e+04 +1.0771687845222325e+05 +5.4163093447106592e+07 
-3.4000000000000017e+00 -5.9324643884678208e-01 +8.1241866920551686e+00 +1.0585456836248714e+00 -5.2654564236581720e+01 -1.5787139193080808e+04 +1.0635397048795673e+05 +5.4079007295512982e+07 
-3.5000000000000018e+00 -5.9324640451053556e-01 +8.1241570220654324e+00 +1.0547112646406458e+00 -5.2354130388808116e+01 -1.5753877088376323e+04 +1.0514374105353377e+05 +5.4011133190985933e+07 
-3.6000000000000019e+00 -5.9324638516353112e-01 +8.1241280765216288e+00 +1.0512084242782005e+00 -5.2083651547680603e+01 -1.5725021048254668e+04 +1.0411505821721032e+05 +5.3962884552268602e+07 
-3.7000000000000020e+00 -5.9324638175523670e-01 +8.1241001661882830e+00 +1.0480903217303501e+00 -5.1848899792612244e+01 -1.5701365798454452e+04 +1.0329678796860478e+05 +5.3937674392568089e+07 
-3.8000000000000020e+00 -5.9324639523521117e-01 +8.1240736018264048e+00 +1.0454101265282578e+00 -5.1655647131689264e+01 -1.5683706254475534e+04 +1.0271779588456526e+05 +5.3938916608696684e+07 
-3.9000000000000021e+00 -5.9324642655301918e-01 +8.1240486941899590e+00 +1.0432210072319177e+00 -5.1509665433319846e+01 -1.5672837304085548e+04 +1.0240694682238660e+05 +5.3970024940091923e+07 
-4.0000000000000018e+00 -5.9324647665828789e-01 +8.1240257540225898e+00 +1.0415761387088425e+00 -5.1416726296813636e+01 -1.5669553946483255e+04 +1.0239310406652821e+05 +5.4034413633377433e+07 
-4.1000000000000014e+00 -5.9324654629588158e-01 +8.1240050119428915e+00 +1.0405159943664548e+00 -5.1380499334554557e+01 -1.5674441978160041e+04 +1.0269346710831102e+05 +5.4134533989161275e+07 
-4.2000000000000011e+00 -5.9324663537764244e-01 +8.1239863792919422e+00 +1.0400304413910866e+00 -5.1396316663453050e+01 -1.5687267346305511e+04 +1.0327911715892627e+05 +5.4269103232784994e+07 
-4.3000000000000007e+00 -5.9324674360367802e-01 +8.1239696878108667e+00 +1.0400967435716555e+00 -5.1457440566208611e+01 -1.5707595160087694e+04 +1.0410972019238812e+05 +5.4435933606406242e+07 
-4.4000000000000004e+00 -5.9324687067407178e-01 +8.1239547692472023e+00 +1.0406921608546620e+00 -5.1557133565404349e+01 -1.5734990456325295e+04 +1.0514494379964392e+05 +5.4632837022020370e+07 
-4.5000000000000000e+00 -5.9324701628889076e-01 +8.1239414553466780e+00 +1.0417939503299321e+00 -5.1688658159229476e+01 -1.5769018221307231e+04 +1.0634445557825828e+05 +5.4857625176900327e+07 
-4.5999999999999996e+00 -5.9324718014815980e-01 +8.1239295778514169e+00 +1.0433793624501679e+00 -5.1845276792488789e+01 -1.5809243313002757e+04 +1.0766792304756941e+05 +5.5108109165514261e+07 
-4.6999999999999993e+00 -5.9324736195189876e-01 +8.1239189685086739e+00 +1.0454256459540878e+00 -5.2020252090676706e+01 -1.5855230558966110e+04 +1.0907501495333543e+05 +5.5382099960032709e+07 
-4.7999999999999989e+00 -5.9324756140008095e-01 +8.1239094590642420e+00 +1.0479100430035362e+00 -5.2206846688095709e+01 -1.5906544664438985e+04 +1.1052540032836562e+05 +5.5677407973501727e+07 
-4.8999999999999986e+00 -5.9324777819267394e-01 +8.1239008812614966e+00 +1.0508097934379523e+00 -5.2398323195931361e+01 -1.5962750289644178e+04 +1.1197874831200247e+05 +5.5991843420585454e+07 
-4.9999999999999982e+00 -5.9324801202960054e-01 +8.1238930668497638e+00 +1.0541021305806648e+00 -5.2587944435633304e+01 -1.6023411975392901e+04 +1.1339472947651664e+05 +5.6323215977943301e+07 
-5.0999999999999979e+00 -5.9324826261073726e-01 +8.1238858475785189e+00 +1.0577642802936960e+00 -5.2768973282111510e+01 -1.6088094118887841e+04 +1.1473301495647228e+05 +5.6669334653152861e+07 
-5.1999999999999975e+00 -5.9324852963593067e-01 +8.1238790551943758e+00 +1.0617734639093201e+00 -5.2934672584039227e+01 -1.6156361036794629e+04 +1.1595327602011472e+05 +5.7028008105010673e+07 
-5.2999999999999972e+00 -5.9324881280501718e-01 +8.1238725214513803e+00 +1.0661068997483938e+00 -5.3078305439309162e+01 -1.6227776987806070e+04 +1.1701518560239824e+05 +5.7397044735562459e+07 
-5.3999999999999968e+00 -5.9324911181776541e-01 +8.1238660780966878e+00 +1.0707417964256267e+00 -5.3193134815831868e+01 -1.6301906049803181e+04 +1.1787841621910899e+05 +5.7774252118400946e+07 
-5.4999999999999964e+00 -5.9324942637391087e-01 +8.1238595568887959e+00 +1.0756553569790694e+00 -5.3272424040897938e+01 -1.6378312196389108e+04 +1.1850264270120321e+05 +5.8157437357420199e+07 
-5.5999999999999961e+00 -5.9324975617314779e-01 +8.1238527895783434e+00 +1.0808247775885167e+00 -5.3309436286313478e+01 -1.6456559272928134e+04 +1.1884753932634744e+05 +5.8544406976336278e+07 
-5.6999999999999957e+00 -5.9325010091512853e-01 +8.1238456079239150e+00 +1.0862272479666835e+00 -5.3297434986516038e+01 -1.6536211005209298e+04 +1.1887278214468328e+05 +5.8932966961509205e+07 
-5.7999999999999954e+00 -5.9325046029945427e-01 +8.1238378436828391e+00 +1.0918399496608235e+00 -5.3229683616530089e+01 -1.6616830966074489e+04 +1.1853804782346576e+05 +5.9320922604224868e+07 
-5.8999999999999950e+00 -5.9325083402568657e-01 +8.1238293286195464e+00 +1.0976400576158645e+00 -5.3099445889277902e+01 -1.6697982604816953e+04 +1.1780301466714195e+05 +5.9706078637905031e+07 
-5.9999999999999947e+00 -5.9325122179332457e-01 +8.1238198944949254e+00 +1.1036047377029392e+00 -5.2899985507869950e+01 -1.6779229205908665e+04 +1.1662736133588552e+05 +6.0086239058389381e+07 
-6.0999999999999943e+00 -5.9325162307245716e-01 +8.1238094251607649e+00 +1.1097078489043606e+00 -5.2626745282912225e+01 -1.6860159208509573e+04 +1.1498419968980871e+05 +6.0459452866217047e+07 
-6.1999999999999940e+00 -5.9325203644061297e-01 +8.1237980012059587e+00 +1.1159115235141670e+00 -5.2283611752685601e+01 -1.6940446418528802e+04 +1.1289915801723005e+05 +6.0824564780495286e+07 
-6.2999999999999936e+00 -5.9325246025857925e-01 +8.1237857496817529e+00 +1.1221753814871682e+00 -5.1876525288700577e+01 -1.7019783109890122e+04 +1.1041076144197669e+05 +6.1180576581530578e+07 
-6.3999999999999932e+00 -5.9325289288714511e-01 +8.1237727976482557e+00 +1.1284590435442388e+00 -5.1411426350092810e+01 -1.7097861569585140e+04 +1.0755753529393399e+05 +6.1526490087336510e+07 
-6.4999999999999929e+00 -5.9325333268715263e-01 +8.1237592721704601e+00 +1.1347221384806301e+00 -5.0894255342477386e+01 -1.7174374245648462e+04 +1.0437800422167835e+05 +6.1861307883154333e+07 
-6.5999999999999925e+00 -5.9325377801946977e-01 +8.1237453003225308e+00 +1.1409242992188597e+00 -5.0330952753763022e+01 -1.7249013664752249e+04 +1.0091069303265470e+05 +6.2184032906307168e+07 
-6.6999999999999922e+00 -5.9325422724501142e-01 +8.1237310091877735e+00 +1.1470251659667259e+00 -4.9727459128785775e+01 -1.7321472499836724e+04 +9.7194126475130703e+04 +6.2493668790170036e+07 
-6.7999999999999918e+00 -5.9325467872472437e-01 +8.1237165258544906e+00 +1.1529843837565859e+00 -4.9089714942582084e+01 -1.7391443512732563e+04 +9.3266828484422847e+04 +6.2789219557057902e+07 
-6.8999999999999915e+00 -5.9325513081958747e-01 +8.1237019774194952e+00 +1.1587616031329357e+00 -4.8423660698870670e+01 -1.7458619579710539e+04 +8.9167322758358729e+04 +6.3069689778473496e+07 
-6.9999999999999911e+00 -5.9325558189064576e-01 +8.1236874909895853e+00 +1.1643164841561218e+00 -4.7735236964445455e+01 -1.7522693758404468e+04 +8.4934132942708879e+04 +6.3334084862920031e+07 
-7.0999999999999908e+00 -5.9325603029896101e-01 +8.1236731936818476e+00 +1.1696086906532548e+00 -4.7030384360860531e+01 -1.7583359184424855e+04 +8.0605782527222647e+04 +6.3581410580116846e+07 
-7.1999999999999904e+00 -5.9325647440565887e-01 +8.1236592126186835e+00 +1.1745978954307339e+00 -4.6315043435182872e+01 -1.7640309165936764e+04 +7.6220794158659686e+04 +6.3810673499654092e+07 
-7.2999999999999901e+00 -5.9325691257189972e-01 +8.1236456749354726e+00 +1.1792437776593292e+00 -4.5595154837100004e+01 -1.7693237137348100e+04 +7.1817690530835243e+04 +6.4020880774759084e+07 
-7.3999999999999897e+00 -5.9325734315890821e-01 +8.1236327077746786e+00 +1.1835060258633048e+00 -4.4876659175198711e+01 -1.7741836715261248e+04 +6.7434993652180769e+04 +6.4211040409896031e+07 
-7.4999999999999893e+00 -5.9325776452793988e-01 +8.1236204382902972e+00 +1.1873443343004522e+00 -4.4165497117928403e+01 -1.7785801631786740e+04 +6.3111225344100829e+04 +6.4380160945367642e+07 
-7.5999999999999890e+00 -5.9325817504031353e-01 +8.1236089936488867e+00 +1.1907184066350762e+00 -4.3467609425927904e+01 -1.7824825798320620e+04 +5.8884907442468590e+04 +6.4527251742666982e+07 
-7.6999999999999886e+00 -5.9325857305739971e-01 +8.1235985010204121e+00 +1.1935879548258170e+00 -4.2788936665071624e+01 -1.7858603290156592e+04 +5.4794560085170575e+04 +6.4651322927809931e+07 
-7.7999999999999883e+00 -5.9325895694062980e-01 +8.1235890875955459e+00 +1.1959127007056944e+00 -4.2135419714681511e+01 -1.7886828378673941e+04 +5.0878704679499533e+04 +6.4751385548518851e+07 
-7.8999999999999879e+00 -5.9325932505147749e-01 +8.1235808805662693e+00 +1.1976523727986266e+00 -4.1512999186700071e+01 -1.7909195462469350e+04 +4.7175860487688231e+04 +6.4826451222509973e+07 
-7.9999999999999876e+00 -5.9325967575148064e-01 +8.1235740071453080e+00 +1.1987667099459054e+00 -4.0927615992295259e+01 -1.7925399144916049e+04 +4.3724547942875564e+04 +6.4875532530903220e+07 
-8.0999999999999872e+00 -5.9326000798789713e-01 +8.1235685748984494e+00 +1.1992290148861935e+00 -4.0384636045675890e+01 -1.7935223471457106e+04 +4.0558963768927213e+04 +6.4897905746464610e+07 
-8.1999999999999869e+00 -5.9326032303366094e-01 +8.1235646407790956e+00 +1.1990652777356039e+00 -3.9887624599886372e+01 -1.7938788604141497e+04 +3.7697335170542276e+04 +6.4893883211784944e+07 
-8.2999999999999865e+00 -5.9326062273879987e-01 +8.1235622560430070e+00 +1.1983141713310841e+00 -3.9439817021879186e+01 -1.7936291573779821e+04 +3.5154165984138039e+04 +6.4864026895244822e+07 
-8.3999999999999861e+00 -5.9326090895337025e-01 +8.1235614719362221e+00 +1.1970143725696223e+00 -3.9044448617127138e+01 -1.7927929468517581e+04 +3.2943959767812004e+04 +6.4808898988138892e+07 
-8.4999999999999858e+00 -5.9326118352740231e-01 +8.1235623396922936e+00 +1.1952045555089359e+00 -3.8704754570180398e+01 -1.7913899298629905e+04 +3.1081219670983759e+04 +6.4729061231863350e+07 
-8.5999999999999854e+00 -5.9326144831100169e-01 +8.1235649105365084e+00 +1.1929234049695892e+00 -3.8423970098582757e+01 -1.7894398261521983e+04 +2.9580449393972711e+04 +6.4625076195875533e+07 
-8.6999999999999851e+00 -5.9326170515424603e-01 +8.1235692356817548e+00 +1.1902096026133810e+00 -3.8205330331597175e+01 -1.7869623468946113e+04 +2.8456152479499779e+04 +6.4497505958072640e+07 
-8.7999999999999847e+00 -5.9326195590727437e-01 +8.1235753663312380e+00 +1.1871018386323466e+00 -3.8052070398666331e+01 -1.7839772171731827e+04 +2.7722832827327642e+04 +6.4346913180718370e+07 
-8.8999999999999844e+00 -5.9326220242022021e-01 +8.1235833536772191e+00 +1.1836388033060075e+00 -3.7967425392600788e+01 -1.7805041598165131e+04 +2.7394994465014657e+04 +6.4173860336623937e+07 
-8.9999999999999840e+00 -5.9326244654323201e-01 +8.1235932488950535e+00 +1.1798591893251409e+00 -3.7954630227193256e+01 -1.7765628997222291e+04 +2.7487140810868950e+04 +6.3978909914884008e+07 
-9.0999999999999837e+00 -5.9326269012650246e-01 +8.1236051031555458e+00 +1.1758016963237223e+00 -3.8016919983879951e+01 -1.7721731726172180e+04 +2.8013776621656587e+04 +6.3762624836965464e+07 
-9.1999999999999833e+00 -5.9326293502021954e-01 +8.1236189676100867e+00 +1.1715050235688440e+00 -3.8157529498849414e+01 -1.7673547107005499e+04 +2.8989405633924958e+04 +6.3525567766071260e+07 
-9.2999999999999829e+00 -5.9326318307462522e-01 +8.1236348934006273e+00 +1.1670078780722655e+00 -3.8379693665031908e+01 -1.7621272582611487e+04 +3.0428532351291520e+04 +6.3268301850943677e+07 
-9.3999999999999826e+00 -5.9326343613992749e-01 +8.1236529316545543e+00 +1.1623489635584745e+00 -3.8686647285610768e+01 -1.7565105507466538e+04 +3.2345661175499157e+04 +6.2991389733311243e+07 
-9.4999999999999822e+00 -5.9326369606643570e-01 +8.1236731334857826e+00 +1.1575669971269495e+00 -3.9081625118994928e+01 -1.7505243460125967e+04 +3.4755296698433638e+04 +6.2695395022330366e+07 
-9.5999999999999819e+00 -5.9326396470440790e-01 +8.1236955499933110e+00 +1.1527006908795443e+00 -3.9567861837563342e+01 -1.7441883898549735e+04 +3.7671943439021255e+04 +6.2380880664792866e+07 
-9.6999999999999815e+00 -5.9326424390416244e-01 +8.1237202322630360e+00 +1.1477887644941334e+00 -4.0148592111583497e+01 -1.7375224391066145e+04 +4.1110106418231160e+04 +6.2048410025936298e+07 
-9.7999999999999812e+00 -5.9326453551603120e-01 +8.1237472313646126e+00 +1.1428699406583720e+00 -4.0827050497326937e+01 -1.7305462535466886e+04 +4.5084290428643006e+04 +6.1698546516609475e+07 
-9.8999999999999808e+00 -5.9326484139036251e-01 +8.1237765983518742e+00 +1.1379829452878427e+00 -4.1606471476781380e+01 -1.7232795960862626e+04 +4.9609000332675212e+04 +6.1331853597333245e+07 
-9.9999999999999805e+00 -5.9326516337753454e-01 +8.1238083842663986e+00 +1.1331665086735931e+00 -4.2490089528680983e+01 -1.7157422340969882e+04 +5.4698741550890234e+04 +6.0948894828829624e+07 
-1.0099999999999980e+01 -5.9326550290649416e-01 +8.1238425946441630e+00 +1.1284518542008211e+00 -4.3479105621283317e+01 -1.7079512622631886e+04 +6.0357070108423221e+04 +6.0550222081880227e+07 
