# multipoles
# s[mm] polynom_b[n=0][T/m^n] polynom_b[n=1][T/m^n] polynom_b[n=2][T/m^n] polynom_b[n=3][T/m^n] polynom_b[n=4][T/m^n] polynom_b[n=5][T/m^n] polynom_b[n=6][T/m^n] 
+0.0000000000000000e+00 -5.6462469373424118e-01 +7.7335874433533114e+00 -7.0169938588361469e-01 -2.6533195055111317e+01 -1.9603600849048007e+03 -9.4423802154254430e+04 +6.6743735190818712e+04 
+1.0000000000000001e-01 -5.6462481604675163e-01 +7.7335531583178447e+00 -7.1220356979636723e-01 -2.5891014696207506e+01 -1.8437875814999659e+03 -9.6614186729429828e+04 -2.9975210823365301e+05 
+2.0000000000000001e-01 -5.6462495115573486e-01 +7.7335198227649613e+00 -7.2243257212127077e-01 -2.5296093509276432e+01 -1.7336254056572063e+03 -9.8545731070029113e+04 -6.2904377757887787e+05 
+3.0000000000000004e-01 -5.6462509938397087e-01 +7.7334875157334926e+00 -7.3238146245458580e-01 -2.4746198359662849e+01 -1.6294661265983216e+03 -1.0023807486543671e+05 -9.2439231172324880e+05 
+4.0000000000000002e-01 -5.6462526105418009e-01 +7.7334563162646841e+00 -7.4204531679504815e-01 -2.4239096186228707e+01 -1.5309021962499255e+03 -1.0171085742664461e+05 -1.1890592985635500e+06 
+5.0000000000000000e-01 -5.6462543648914565e-01 +7.7334263033970965e+00 -7.5141920408395535e-01 -2.3772553855505890e+01 -1.4375261916974600e+03 -1.0298371852164186e+05 -1.4263057552395200e+06 
+5.9999999999999998e-01 -5.6462562601161814e-01 +7.7333975561656576e+00 -7.6049819708523791e-01 -2.3344338144309642e+01 -1.3489306168909375e+03 -1.0407629842426085e+05 -1.6393930483703949e+06 
+6.9999999999999996e-01 -5.6462582994438593e-01 +7.7333701536110819e+00 -7.6927736460692286e-01 -2.2952216022332866e+01 -1.2647080453377928e+03 -1.0500823624777977e+05 -1.8315822272099112e+06 
+7.9999999999999993e-01 -5.6462604861019983e-01 +7.7333441747634852e+00 -7.7775178031896974e-01 -2.2593954176214943e+01 -1.1844509540712772e+03 -1.0579917268832220e+05 -2.0061348103736383e+06 
+8.9999999999999991e-01 -5.6462628233185475e-01 +7.7333196986600639e+00 -7.8591651328765944e-01 -2.2267319536459720e+01 -1.1077518994396862e+03 -1.0646874691480065e+05 -2.1663119598608329e+06 
+9.9999999999999989e-01 -5.6462653143212560e-01 +7.7332968043237171e+00 -7.9376663595605024e-01 -2.1970078651097801e+01 -1.0342033697737161e+03 -1.0703660021245490e+05 -2.3153751667411732e+06 
+1.0999999999999999e+00 -5.6462679623380774e-01 +7.7332755707860512e+00 -8.0129721839710377e-01 -2.1699998374124476e+01 -9.6339789251640400e+02 -1.0752237191262255e+05 -2.4565857514448706e+06 
+1.2000000000000000e+00 -5.6462707705967830e-01 +7.7332560770631806e+00 -8.0850333524843665e-01 -2.1454845150381889e+01 -8.9492789522583780e+02 -1.0794570356768850e+05 -2.5932055388905657e+06 
+1.3000000000000000e+00 -5.6462737423254195e-01 +7.7332384021764202e+00 -8.1538005771083111e-01 -2.1232385646325255e+01 -8.2838586966071352e+02 -1.0832623519168119e+05 -2.7284960478173783e+06 
+1.4000000000000001e+00 -5.6462768807518471e-01 +7.7332226251376035e+00 -8.2192246124302115e-01 -2.1030386310269161e+01 -7.6336421485723781e+02 -1.0868360784077948e+05 -2.8657192636685465e+06 
+1.5000000000000002e+00 -5.6462801891041303e-01 +7.7332088249507729e+00 -8.2812562020089231e-01 -2.0846613433440538e+01 -6.9945534007201479e+02 -1.0903746320833867e+05 -3.0081371470054635e+06 
+1.6000000000000003e+00 -5.6462836706102104e-01 +7.7331970806212649e+00 -8.3398461180867256e-01 -2.0678833421054868e+01 -6.3625159343320536e+02 -1.0940744202310184e+05 -3.1590119596265904e+06 
+1.7000000000000004e+00 -5.6462873284982085e-01 +7.7331874711408055e+00 -8.3949451323939861e-01 -2.0524812365968010e+01 -5.7334530998988828e+02 -1.0981318649113925e+05 -3.3216060562522928e+06 
+1.8000000000000005e+00 -5.6462911659961479e-01 +7.7331800754979172e+00 -8.4465040417164039e-01 -2.0382316351315648e+01 -5.1032876975145234e+02 -1.1027433852421262e+05 -3.4991820652521169e+06 
+1.9000000000000006e+00 -5.6462951863320321e-01 +7.7331749726758447e+00 -8.4944736692509071e-01 -2.0249111408474512e+01 -4.4679418879662074e+02 -1.1081053991970222e+05 -3.6950029469631929e+06 
+2.0000000000000004e+00 -5.6462993927339866e-01 +7.7331722416466411e+00 -8.5388048409176132e-01 -2.0122963342120663e+01 -3.8233376721603776e+02 -1.1144143337734419e+05 -3.9123317586836992e+06 
+2.1000000000000005e+00 -5.6463037867613564e-01 +7.7331719237586816e+00 -8.5793953888908492e-01 -2.0002147173112210e+01 -3.1678051375685072e+02 -1.1218083736969209e+05 -4.1529849004552513e+06 
+2.2000000000000006e+00 -5.6463083633767308e-01 +7.7331739024199511e+00 -8.6159147166013972e-01 -1.9886732832984265e+01 -2.5094692545990935e+02 -1.1302068780097934e+05 -4.4129561552207414e+06 
+2.3000000000000007e+00 -5.6463131159127822e-01 +7.7331780196882285e+00 -8.6479710115512265e-01 -1.9777179397728208e+01 -1.8589449483768945e+02 -1.1394779666030740e+05 -4.6867741793301329e+06 
+2.4000000000000008e+00 -5.6463180377026778e-01 +7.7331841176111871e+00 -8.6751723960599303e-01 -1.9673945638752034e+01 -1.2268483924122783e+02 -1.1494897769425697e+05 -4.9689670364202159e+06 
+2.5000000000000009e+00 -5.6463231220791110e-01 +7.7331920382307846e+00 -8.6971270428347169e-01 -1.9577490158411962e+01 -6.2379484656646966e+01 -1.1601104557319244e+05 -5.2540632159006335e+06 
+2.6000000000000010e+00 -5.6463283623750327e-01 +7.7332016235851047e+00 -8.7134430914854921e-01 -1.9488271434676484e+01 -6.0400216330101593e+00 -1.1712081568162952e+05 -5.5365908983268738e+06 
+2.7000000000000011e+00 -5.6463337519233803e-01 +7.7332127157106703e+00 -8.7237286705292794e-01 -1.9406747888649825e+01 +4.5271931149283198e+01 -1.1826510370577154e+05 -5.8110781166608511e+06 
+2.8000000000000012e+00 -5.6463392840570559e-01 +7.7332251566300831e+00 -8.7275919066752794e-01 -1.9333377497447081e+01 +9.0494747797171286e+01 -1.1943072797670201e+05 -6.0720528640559753e+06 
+2.9000000000000012e+00 -5.6463449521089648e-01 +7.7332387883666263e+00 -8.7246409132003633e-01 -1.9268618234184462e+01 +1.2856676883453045e+02 -1.2060450686089793e+05 -6.3140429580408819e+06 
+3.0000000000000013e+00 -5.6463507494121168e-01 +7.7332534529407297e+00 -8.7144837744441961e-01 -1.9212927951603291e+01 +1.5842627029077514e+02 -1.2177325948561124e+05 -6.5315758912410242e+06 
+3.1000000000000014e+00 -5.6463566692993450e-01 +7.7332689923617242e+00 -8.6967285901643465e-01 -1.9166764128493774e+01 +1.7901155361627320e+02 -1.2292380724450992e+05 -6.7191792730714604e+06 
+3.2000000000000015e+00 -5.6463627051038712e-01 +7.7332852486358394e+00 -8.6709833855540031e-01 -1.9130584110058027e+01 +1.8926076228861848e+02 -1.2404297237911665e+05 -6.8713799269193159e+06 
+3.3000000000000016e+00 -5.6463688501584985e-01 +7.7333020637639907e+00 -8.6368562265942972e-01 -1.9104845027138001e+01 +1.8811211171998363e+02 -1.2511757850505170e+05 -6.9827050125339925e+06 
+3.4000000000000017e+00 -5.6463750977961868e-01 +7.7333192797404067e+00 -8.5939551395110292e-01 -1.9090003748815043e+01 +1.7450372644562532e+02 -1.2613445089865763e+05 -7.0476812238272671e+06 
+3.5000000000000018e+00 -5.6463814413498492e-01 +7.7333367385573455e+00 -8.5418881307820260e-01 -1.9086517020980569e+01 +1.4737367947174155e+02 -1.2708041569464967e+05 -7.0608349839366050e+06 
+3.6000000000000019e+00 -5.6463878741526818e-01 +7.7333542821998220e+00 -8.4802631551678809e-01 -1.9094841301342548e+01 +1.0565993669849415e+02 -1.2794230087902369e+05 -7.0166921944156438e+06 
+3.7000000000000020e+00 -5.6463943895375091e-01 +7.7333717526403234e+00 -8.4086881839872740e-01 -1.9115432600044933e+01 +4.8300474377116522e+01 -1.2870693722829981e+05 -6.9097787596096024e+06 
+3.8000000000000020e+00 -5.6464009808373383e-01 +7.7333889918625092e+00 -8.3267711413705103e-01 -1.9148747163554265e+01 -2.5766834633418622e+01 -1.2936115435325494e+05 -6.7346200685000764e+06 
+3.9000000000000021e+00 -5.6464076413853870e-01 +7.7334058418278033e+00 -8.2341198992783415e-01 -1.9195240496260862e+01 -1.1760423321748475e+02 -1.2989178640716242e+05 -6.4857409280961268e+06 
+4.0000000000000018e+00 -5.6464143645141041e-01 +7.7334221444988005e+00 -8.1303423921869999e-01 -1.9255368029375383e+01 -2.2827386468700968e+02 -1.3028566822685889e+05 -6.1576665826428430e+06 
+4.1000000000000014e+00 -5.6464211437220990e-01 +7.7334377571449799e+00 -8.0152866318247706e-01 -1.9328923956268241e+01 -3.5838312041686351e+02 -1.3053569387385546e+05 -5.7469653730779449e+06 
+4.2000000000000011e+00 -5.6464279730364064e-01 +7.7334526134004165e+00 -7.8897849500042228e-01 -1.9413292669782891e+01 -5.0669840824782011e+02 -1.3065811835592671e+05 -5.2584099559074650e+06 
+4.3000000000000007e+00 -5.6464348465825220e-01 +7.7334666697717420e+00 -7.7549219621140664e-01 -1.9505311753929028e+01 -6.7152011486754066e+02 -1.3067484233889444e+05 -4.6988329490271173e+06 
+4.4000000000000004e+00 -5.6464417584862914e-01 +7.7334798827745974e+00 -7.6117822393923074e-01 -1.9601819014495931e+01 -8.5114871487156654e+02 -1.3060776543811630e+05 -4.0750665312309293e+06 
+4.5000000000000000e+00 -5.6464487028729005e-01 +7.7334922089371849e+00 -7.4614504458328013e-01 -1.9699652596363705e+01 -1.0438845042232160e+03 -1.3047878551867997e+05 -3.3939437253697971e+06 
+4.5999999999999996e+00 -5.6464556738678540e-01 +7.7335036047948496e+00 -7.3050112031071612e-01 -1.9795650816327580e+01 -1.2480278628343949e+03 -1.3030979970314445e+05 -2.6622971344008716e+06 
+4.6999999999999993e+00 -5.6464626655963090e-01 +7.7335140269065255e+00 -7.1435491845132715e-01 -1.9886652649367480e+01 -1.4618790722844210e+03 -1.3012270153414282e+05 -1.8869598161518872e+06 
+4.7999999999999989e+00 -5.6464696721831764e-01 +7.7335234318388437e+00 -6.9781490953790193e-01 -1.9969497247195264e+01 -1.6837383558974095e+03 -1.2993938383286570e+05 -1.0747650852659093e+06 
+4.8999999999999986e+00 -5.6464766877534311e-01 +7.7335317761752878e+00 -6.8098956430515734e-01 -2.0041024228603117e+01 -1.9119059307219534e+03 -1.2978173695805833e+05 -2.3254627881892945e+05 
+4.9999999999999982e+00 -5.6464837064316720e-01 +7.7335390165158362e+00 -6.6398735845813583e-01 -2.0098073645369158e+01 -2.1446819219815538e+03 -1.2967164908339607e+05 +6.3286285197995743e+05 
+5.0999999999999979e+00 -5.6464907223423855e-01 +7.7335451094781300e+00 -6.4691676979538082e-01 -2.0137486034622196e+01 -2.3803664156105096e+03 -1.2963100584153300e+05 +1.5146283860819209e+06 
+5.1999999999999975e+00 -5.6464977296100727e-01 +7.7335500116991662e+00 -6.2988627698496091e-01 -2.0156102445972913e+01 -2.6172594785270285e+03 -1.2968169025372126e+05 +2.4059163225419498e+06 
+5.2999999999999972e+00 -5.6465047223586329e-01 +7.7335536798307656e+00 -6.1300436635817979e-01 -2.0150764333562311e+01 -2.8536610364402745e+03 -1.2984558328753084e+05 +3.2998920171969617e+06 
+5.3999999999999968e+00 -5.6465116947121696e-01 +7.7335560705510344e+00 -5.9637952293754615e-01 -2.0118313861106000e+01 -3.0878710358570306e+03 -1.3014456218291233e+05 +4.1897209322243007e+06 
+5.4999999999999964e+00 -5.6465186407942902e-01 +7.7335571405528967e+00 -5.8012023877650742e-01 -2.0055593594349897e+01 -3.3181892910236347e+03 -1.3060050217414794e+05 +5.0685679237402882e+06 
+5.5999999999999961e+00 -5.6465255547285864e-01 +7.7335568465535447e+00 -5.6433500705676920e-01 -1.9959446752806716e+01 -3.5429155939257248e+03 -1.3123527509707634e+05 +5.9295977600154653e+06 
+5.6999999999999957e+00 -5.6465324306383091e-01 +7.7335551452934128e+00 -5.4913232591977468e-01 -1.9826717192092755e+01 -3.7603496420481811e+03 -1.3207074947722588e+05 +6.7659747782846494e+06 
+5.7999999999999954e+00 -5.6465392626465938e-01 +7.7335519935342090e+00 -5.3462069594262951e-01 -1.9654249338426652e+01 -3.9687910880329473e+03 -1.3312879093583152e+05 +7.5708631289527938e+06 
+5.8999999999999950e+00 -5.6465460448761728e-01 +7.7335473480675860e+00 -5.2090862452669184e-01 -1.9438888451542713e+01 -4.1665394489279042e+03 -1.3443126065083090e+05 +8.3374263240486784e+06 
+5.9999999999999947e+00 -5.6465527714496788e-01 +7.7335411657034676e+00 -5.0810462048623983e-01 -1.9177480262128466e+01 -4.3518942181450566e+03 -1.3600001750754734e+05 +9.0588277946283985e+06 
+6.0999999999999943e+00 -5.6465594371207628e-01 +7.7335334402628044e+00 -4.9630001590309486e-01 -1.8868120564522407e+01 -4.5234349403903143e+03 -1.3784896921407196e+05 +9.7294086669197325e+06 
+6.1999999999999940e+00 -5.6465660393110517e-01 +7.7335243036310537e+00 -4.8551684951822272e-01 -1.8513843605392001e+01 -4.6808520907450193e+03 -1.3996019718921854e+05 +1.0348101197714915e+07 
+6.2999999999999936e+00 -5.6465725761449836e-01 +7.7335139198658256e+00 -4.7575966808890974e-01 -1.8118910233246808e+01 -4.8241116415905381e+03 -1.4230776606182917e+05 +1.0914955052515812e+07 
+6.3999999999999932e+00 -5.6465790457474341e-01 +7.7335024530276533e+00 -4.6703301321577367e-01 -1.7687581375777345e+01 -4.9531796625991292e+03 -1.4486574008399792e+05 +1.1430020340288624e+07 
+6.4999999999999929e+00 -5.6465854462435794e-01 +7.7334900671933804e+00 -4.5934142340969031e-01 -1.7224118445254131e+01 -5.0680222748319820e+03 -1.4760818072569938e+05 +1.1893347375656011e+07 
+6.5999999999999925e+00 -5.6465917757588802e-01 +7.7334769264492573e+00 -4.5268943384045890e-01 -1.6732783119506873e+01 -5.1686056629145451e+03 -1.5050914800301634e+05 +1.2304986758047843e+07 
+6.6999999999999922e+00 -5.6465980324189946e-01 +7.7334631948949424e+00 -4.4708157796118592e-01 -1.6217837460530486e+01 -5.2548960388029154e+03 -1.5354269977683222e+05 +1.2664989182226069e+07 
+6.7999999999999918e+00 -5.6466042143499739e-01 +7.7334490366343394e+00 -4.4252238493436297e-01 -1.5683543648619066e+01 -5.3268596914503614e+03 -1.5668289330551802e+05 +1.2973405676790647e+07 
+6.8999999999999915e+00 -5.6466103196782358e-01 +7.7334346157906699e+00 -4.3901637976455804e-01 -1.5134164437873503e+01 -5.3844629856435895e+03 -1.5990378253544078e+05 +1.3230287601146951e+07 
+6.9999999999999911e+00 -5.6466163465306951e-01 +7.7334200964909909e+00 -4.3656808184579615e-01 -1.4573962683520616e+01 -5.4276723884934572e+03 -1.6317942092262881e+05 +1.3435686767305266e+07 
+7.0999999999999908e+00 -5.6466222930342558e-01 +7.7334056428791369e+00 -4.3518201124311501e-01 -1.4007201737936406e+01 -5.4564543507312837e+03 -1.6648385907106212e+05 +1.3589654876759754e+07 
+7.1999999999999904e+00 -5.6466281573166877e-01 +7.7333914191124133e+00 -4.3486267799266498e-01 -1.3438145336369898e+01 -5.4707755071294769e+03 -1.6979114544742787e+05 +1.3692244464187007e+07 
+7.2999999999999901e+00 -5.6466339375056829e-01 +7.7333775893525658e+00 -4.3561459371409889e-01 -1.2871057349981902e+01 -5.4706024582695945e+03 -1.7307532777245736e+05 +1.3743507866615089e+07 
+7.3999999999999897e+00 -5.6466396317296885e-01 +7.7333643177793698e+00 -4.3744226100509104e-01 -1.2310202184704192e+01 -5.4559019732941251e+03 -1.7631045069285471e+05 +1.3743498188303100e+07 
+7.4999999999999893e+00 -5.6466452381173937e-01 +7.7333517685826942e+00 -4.4035018047223379e-01 -1.1759844531949527e+01 -5.4266408501101878e+03 -1.7947055727787386e+05 +1.3692268619631870e+07 
+7.5999999999999890e+00 -5.6466507547978850e-01 +7.7333401059680762e+00 -4.4434284828576065e-01 -1.1224249555987713e+01 -5.3827859686834909e+03 -1.8252968786514091e+05 +1.3589872707937859e+07 
+7.6999999999999886e+00 -5.6466561799008941e-01 +7.7333294941503814e+00 -4.4942475329520648e-01 -1.0707682685879625e+01 -5.3243043402073208e+03 -1.8546188133722544e+05 +1.3436364574307814e+07 
+7.7999999999999883e+00 -5.6466615115564101e-01 +7.7333200973564669e+00 -4.5560038180631318e-01 -1.0214409711563748e+01 -5.2511630203249397e+03 -1.8824117449768353e+05 +1.3231798512268644e+07 
+7.8999999999999879e+00 -5.6466667478951482e-01 +7.7333120798307631e+00 -4.6287421197789713e-01 -9.7486969402142396e+00 -5.1633292117091905e+03 -1.9084160119889007e+05 +1.2976229463295475e+07 
+7.9999999999999876e+00 -5.6466718870479948e-01 +7.7333056058255121e+00 -4.7125072025548020e-01 -9.3148108964575584e+00 -5.0607701439987368e+03 -1.9323719424571266e+05 +1.2669712436328687e+07 
+8.0999999999999872e+00 -5.6466769289656404e-01 +7.7333008117194870e+00 -4.8071920965184045e-01 -8.9166511236284158e+00 -4.9436422682136854e+03 -1.9540486821153294e+05 +1.2312853186006062e+07 
+8.1999999999999869e+00 -5.6466818807828267e-01 +7.7332977242199163e+00 -4.9120812612541354e-01 -8.5569903638599722e+00 -4.8128494449369691e+03 -1.9733002784355322e+05 +1.1908462083364433e+07 
+8.2999999999999865e+00 -5.6466867514131980e-01 +7.7332963430528423e+00 -5.0263057447268611e-01 -8.2384064144636255e+00 -4.6694807004489412e+03 -1.9899946500745194e+05 +1.1459900044574836e+07 
+8.3999999999999861e+00 -5.6466915497702053e-01 +7.7332966678975854e+00 -5.1489966039988588e-01 -7.9634758085746373e+00 -4.5146250255589284e+03 -2.0039997831558349e+05 +1.0970527751955420e+07 
+8.4999999999999858e+00 -5.6466962847676805e-01 +7.7332986984201497e+00 -5.2792848356933975e-01 -7.7347747645332001e+00 -4.3493715120070456e+03 -2.0151836757949262e+05 +1.0443706312534060e+07 
+8.5999999999999854e+00 -5.6467009653191647e-01 +7.7333024342430230e+00 -5.4163014571444168e-01 -7.5548783124672036e+00 -4.1748091991988504e+03 -2.0234143885928011e+05 +9.8827965295652580e+06 
+8.6999999999999851e+00 -5.6467056003387339e-01 +7.7333078749600013e+00 -5.5591774016536399e-01 -7.4263607309723039e+00 -3.9920272702412431e+03 -2.0285600189486399e+05 +9.2911598252159320e+06 
+8.7999999999999847e+00 -5.6467101987402701e-01 +7.7333150201304965e+00 -5.7070436147474179e-01 -7.3517953805753677e+00 -3.8021148678386312e+03 -2.0304887106375917e+05 +8.6721573637887351e+06 
+8.8999999999999844e+00 -5.6467147694380015e-01 +7.7333238692792268e+00 -5.8590309776534788e-01 -7.3337547020298448e+00 -3.6061612445641117e+03 -2.0290686535434466e+05 +8.0291507776105618e+06 
+8.9999999999999840e+00 -5.6467193213460598e-01 +7.7333344218913913e+00 -6.0142703697294253e-01 -7.3748100699469132e+00 -3.4052556375021695e+03 -2.0241680922030957e+05 +7.3655015518482989e+06 
+9.0999999999999837e+00 -5.6467238633788064e-01 +7.7333466774193154e+00 -6.1718926239709015e-01 -7.4775319992083551e+00 -3.2004873569867300e+03 -2.0156553133265354e+05 +6.6845714593822137e+06 
+9.1999999999999833e+00 -5.6467284044504262e-01 +7.7333606352765036e+00 -6.3310285761125729e-01 -7.6444899636817611e+00 -2.9929456909582937e+03 -2.0033986563862962e+05 +5.9897220967915179e+06 
+9.2999999999999829e+00 -5.6467329534758237e-01 +7.7333762948299567e+00 -6.4908089558699411e-01 -7.8782521902321125e+00 -2.7837201097638904e+03 -1.9872665249646260e+05 +5.2843158547825646e+06 
+9.3999999999999826e+00 -5.6467375193693770e-01 +7.7333936554157505e+00 -6.6503645399325306e-01 -8.1813861019570577e+00 -2.5738999777857484e+03 -1.9671273611131942e+05 +4.5717145517508602e+06 
+9.4999999999999822e+00 -5.6467421110458793e-01 +7.7334127163207711e+00 -6.8088260285992064e-01 -8.5564577827359347e+00 -2.3645747889091372e+03 -1.9428496765319022e+05 +3.8552805556070940e+06 
+9.5999999999999819e+00 -5.6467467374201707e-01 +7.7334334767924338e+00 -6.9653241062755256e-01 -9.0060322909244093e+00 -2.1568340440791903e+03 -1.9143020332069325e+05 +3.1383761834589662e+06 
+9.6999999999999815e+00 -5.6467514074071556e-01 +7.7334559360345692e+00 -7.1189894201520787e-01 -9.5326735091988173e+00 -1.9517673001488654e+03 -1.8813530529424918e+05 +2.4243639517357899e+06 
+9.7999999999999812e+00 -5.6467561299221192e-01 +7.7334800932040899e+00 -7.2689525557643619e-01 -1.0138944070185325e+01 -1.7504642077661852e+03 -1.8438714208469485e+05 +1.7166067366570111e+06 
+9.8999999999999808e+00 -5.6467609138799912e-01 +7.7335059474127661e+00 -7.4143441165293911e-01 -1.0827405408992570e+01 -1.5540143677494564e+03 -1.8017258821815869e+05 +1.0184671084957479e+06 
+9.9999999999999805e+00 -5.6467657681961647e-01 +7.7335334977210914e+00 -7.5542946318988524e-01 -1.1600617589100306e+01 -1.3635074984964540e+03 -1.7547852491140598e+05 +3.3330813785615884e+05 
+1.0099999999999980e+01 -5.6467707004115320e-01 +7.7335626834102502e+00 -7.6881033623651074e-01 -1.2458662365575600e+01 -1.1798080799251727e+03 -1.7030527129647313e+05 -3.3623545012389426e+05 
