# multipoles
# s[mm] polynom_b[n=0][T/m^n] polynom_b[n=1][T/m^n] polynom_b[n=2][T/m^n] polynom_b[n=3][T/m^n] polynom_b[n=4][T/m^n] polynom_b[n=5][T/m^n] polynom_b[n=6][T/m^n] 
-0.0000000000000000e+00 -5.3641848369113765e-01 +7.3402291382294598e+00 -8.4436387850731864e-01 +3.3583542840375536e+01 +4.2197564543312037e+03 -3.3342900669255707e+05 -1.8819693612301599e+07 
-1.0000000000000001e-01 -5.3641862663341988e-01 +7.3402290721384933e+00 -8.3349173064926418e-01 +3.3275273670075961e+01 +4.0808655683963316e+03 -3.3094446971987840e+05 -1.8308261298915595e+07 
-2.0000000000000001e-01 -5.3641878171060065e-01 +7.3402261540562836e+00 -8.2181671714284454e-01 +3.3029066696148092e+01 +3.9272600479547082e+03 -3.2878797482154984e+05 -1.7732189670044240e+07 
-2.9999999999999999e-01 -5.3641894798414047e-01 +7.3402207248432614e+00 -8.0945690144166826e-01 +3.2840648128078676e+01 +3.7608999197793628e+03 -3.2694237807353173e+05 -1.7099825636430275e+07 
-4.0000000000000002e-01 -5.3641912451560414e-01 +7.3402131253642944e+00 -7.9653034553309343e-01 +3.2705744068417829e+01 +3.5837451822145431e+03 -3.2539053497268067e+05 -1.6419515971230600e+07 
-5.0000000000000000e-01 -5.3641931036645552e-01 +7.3402036964702191e+00 -7.8315511412917993e-01 +3.2620081039808852e+01 +3.3977558826506602e+03 -3.2411530348233302e+05 -1.5699607667599190e+07 
-5.9999999999999998e-01 -5.3641950459822263e-01 +7.3401927790261929e+00 -7.6944927076443848e-01 +3.2579385177942562e+01 +3.2048920473593998e+03 -3.2309953938894195e+05 -1.4948447618844418e+07 
-6.9999999999999996e-01 -5.3641970627233981e-01 +7.3401807138866415e+00 -7.5553088412739033e-01 +3.2579382933031859e+01 +3.0071137975861766e+03 -3.2232610030947224e+05 -1.4174383156595243e+07 
-8.0000000000000004e-01 -5.3641991445030057e-01 +7.3401678419137255e+00 -7.4151801964831388e-01 +3.2615800558512426e+01 +2.8063811964229067e+03 -3.2177784279425873e+05 -1.3385761341261452e+07 
-9.0000000000000002e-01 -5.3642012819360430e-01 +7.3401545039680212e+00 -7.2752874238856380e-01 +3.2684364363482288e+01 +2.6046543003210713e+03 -3.2143762374417559e+05 -1.2590929197582809e+07 
-1.0000000000000000e+00 -5.3642034656371695e-01 +7.3401410409162056e+00 -7.1368112215380908e-01 +3.2780800495747457e+01 +2.4038932552959195e+03 -3.2128829917811253e+05 -1.1798234168313844e+07 
-1.1000000000000001e+00 -5.3642056862220489e-01 +7.3401277936269649e+00 -7.0009322446768041e-01 +3.2900835059017254e+01 +2.2060581342139053e+03 -3.2131272490188421e+05 -1.1016023364251558e+07 
-1.2000000000000000e+00 -5.3642079343047233e-01 +7.3401151029750258e+00 -6.8688311872890673e-01 +3.3040193993830307e+01 +2.0131090816363442e+03 -3.2149375582791859e+05 -1.0252644225590153e+07 
-1.3000000000000000e+00 -5.3642102005005676e-01 +7.3401033098423767e+00 -6.7416887312175566e-01 +3.3194603039771287e+01 +1.8270062286594200e+03 -3.2181424574488198e+05 -9.5164441469756030e+06 
-1.3999999999999999e+00 -5.3642124754250808e-01 +7.3400927551134165e+00 -6.6206855491104100e-01 +3.3359787880324028e+01 +1.6497096899719302e+03 -3.2225704817140050e+05 -8.8157704411139917e+06 
-1.5000000000000000e+00 -5.3642147496932902e-01 +7.3400837796862168e+00 -6.5070023286911305e-01 +3.3531473813456572e+01 +1.4831796172912625e+03 -3.2280501444575394e+05 -8.1589706095341528e+06 
-1.6000000000000001e+00 -5.3642170139206125e-01 +7.3400767244639784e+00 -6.4018197531779208e-01 +3.3705385997888897e+01 +1.3293761581528001e+03 -3.2344099515537848e+05 -7.5543921398155736e+06 
-1.7000000000000000e+00 -5.3642192587227944e-01 +7.3400719303609590e+00 -6.3063184887286405e-01 +3.3877249272760999e+01 +1.1902594371222963e+03 -3.2414783906569774e+05 -7.0103824250094565e+06 
-1.8000000000000000e+00 -5.3642214747158001e-01 +7.3400697383036420e+00 -6.2216792252375752e-01 +3.4042788141276631e+01 +1.0677896306848136e+03 -3.2490839307964861e+05 -6.5352891155038131e+06 
-1.8999999999999999e+00 -5.3642236525155340e-01 +7.3400704892230095e+00 -6.1490826184065195e-01 +3.4197726971782018e+01 +9.6392685998079753e+02 -3.2570550334313046e+05 -6.1374596135738064e+06 
-2.0000000000000000e+00 -5.3642257827385798e-01 +7.3400745240717118e+00 -6.0897093274676295e-01 +3.4337789518715894e+01 +8.8063126212832492e+02 -3.2652201252876077e+05 -5.8252414133453025e+06 
-2.1000000000000001e+00 -5.3642278581788649e-01 +7.3400820684289876e+00 -6.0443790536612019e-01 +3.4459563608087578e+01 +8.1926875908203408e+02 -3.2734256067069381e+05 -5.6044492710555475e+06 
-2.2000000000000002e+00 -5.3642298803538080e-01 +7.3400928801855718e+00 -6.0124503679840680e-01 +3.4563155429853211e+01 +7.7881350829496853e+02 -3.2815912782808504e+05 -5.4707272252795277e+06 
-2.2999999999999998e+00 -5.3642318529632804e-01 +7.3401065987590837e+00 -5.9929121704829613e-01 +3.4649565185440103e+01 +7.5763793511662493e+02 -3.2896556114420027e+05 -5.4171665253610527e+06 
-2.3999999999999999e+00 -5.3642337797075290e-01 +7.3401228635661520e+00 -5.9847533600500002e-01 +3.4719793114601615e+01 +7.5411445260586470e+02 -3.2975570800868649e+05 -5.4368583417757023e+06 
-2.5000000000000000e+00 -5.3642356642863465e-01 +7.3401413140228184e+00 -5.9869628183662893e-01 +3.4774839468712621e+01 +7.6661544153362752e+02 -3.3052341586053703e+05 -5.5228937026947346e+06 
-2.6000000000000001e+00 -5.3642375103992468e-01 +7.3401615895448558e+00 -5.9985294459602423e-01 +3.4815704516985697e+01 +7.9351331447051473e+02 -3.3126253226501547e+05 -5.6683637876344239e+06 
-2.7000000000000002e+00 -5.3642393217467776e-01 +7.3401833295388430e+00 -6.0184421242985375e-01 +3.4843388791877814e+01 +8.3318044067675930e+02 -3.3196690629396908e+05 -5.8663595652924506e+06 
-2.7999999999999998e+00 -5.3642411020278169e-01 +7.3402061734145612e+00 -6.0456897264747989e-01 +3.4858892733870597e+01 +8.8398916908089393e+02 -3.3263038647797576e+05 -6.1099719087448400e+06 
-2.8999999999999999e+00 -5.3642428549422438e-01 +7.3402297605714280e+00 -6.0792611385813966e-01 +3.4863217085019045e+01 +9.4431186440595025e+02 -3.3324682308417588e+05 -6.3922917592347087e+06 
-3.0000000000000000e+00 -5.3642445841892339e-01 +7.3402537304100619e+00 -6.1181452141947512e-01 +3.4857362549536028e+01 +1.0125208252663346e+03 -3.3381006614209194e+05 -6.7064097491979990e+06 
-3.1000000000000001e+00 -5.3642462934677138e-01 +7.3402777223169844e+00 -6.1613308370777786e-01 +3.4842330239776011e+01 +1.0869883971921195e+03 -3.3431396801904228e+05 -7.0454167256836863e+06 
-3.2000000000000002e+00 -5.3642479864769610e-01 +7.3403013756794628e+00 -6.2078068503144046e-01 +3.4819121244657104e+01 +1.1660868388262095e+03 -3.3475238093215949e+05 -7.4024031172618810e+06 
-3.2999999999999998e+00 -5.3642496669150219e-01 +7.3403243298716818e+00 -6.2565621165768193e-01 +3.4788737024893194e+01 +1.2481884372609954e+03 -3.3511915920253855e+05 -7.7704594867650559e+06 
-3.3999999999999999e+00 -5.3642513384811741e-01 +7.3403462242644162e+00 -6.3065854759022855e-01 +3.4752179144046650e+01 +1.3316654256620527e+03 -3.3540815773999621e+05 -8.1426761352912365e+06 
-3.5000000000000000e+00 -5.3642530048728365e-01 +7.3403666982123283e+00 -6.3568657607826518e-01 +3.4710449622442106e+01 +1.4148900114703970e+03 -3.3561323404327076e+05 -8.5121432356745899e+06 
-3.6000000000000001e+00 -5.3642546697881566e-01 +7.3403853910659009e+00 -6.4063918357252825e-01 +3.4664550594271709e+01 +1.4962344487444650e+03 -3.3572824622591306e+05 -8.8719511717152465e+06 
-3.7000000000000002e+00 -5.3642563369247709e-01 +7.3404019421649993e+00 -6.4541524857818688e-01 +3.4615484496782251e+01 +1.5740708306438576e+03 -3.3574705411206692e+05 -9.2151895651997346e+06 
-3.7999999999999998e+00 -5.3642580099798132e-01 +7.3404159908340096e+00 -6.4991365477531504e-01 +3.4564254216380398e+01 +1.6467713324150548e+03 -3.3566352009779017e+05 -9.5349484123604689e+06 
-3.8999999999999999e+00 -5.3642596926501929e-01 +7.3404271763889302e+00 -6.5403328324455012e-01 +3.4511862866094724e+01 +1.7127080654669962e+03 -3.3547150781260373e+05 -9.8243174010207616e+06 
-4.0000000000000000e+00 -5.3642613886328561e-01 +7.3404351381302000e+00 -6.5767301310087267e-01 +3.4459314003352397e+01 +1.7702530899366607e+03 -3.3516488339090743e+05 -1.0076385969226785e+07 
-4.0999999999999996e+00 -5.3642631002180907e-01 +7.3404396013750706e+00 -6.6075499656967362e-01 +3.4407848389274022e+01 +1.8181407892521202e+03 -3.3474229407604324e+05 -1.0285770301397473e+07 
-4.2000000000000002e+00 -5.3642648239991320e-01 +7.3404406426509903e+00 -6.6329790434362901e-01 +3.4359633059814151e+01 +1.8565699941062942e+03 -3.3422150404788519e+05 -1.0453170048349472e+07 
-4.2999999999999998e+00 -5.3642665551249025e-01 +7.3404384280522708e+00 -6.6534541274896852e-01 +3.4317067451246260e+01 +1.8861095868675116e+03 -3.3362509022481373e+05 -1.0580800375398962e+07 
-4.4000000000000004e+00 -5.3642682887454940e-01 +7.3404331236798752e+00 -6.6694119933890528e-01 +3.4282550864909439e+01 +1.9073284790476439e+03 -3.3297562885934208e+05 -1.0670876584350485e+07 
-4.5000000000000000e+00 -5.3642700200098947e-01 +7.3404248956347260e+00 -6.6812894637062836e-01 +3.4258482666529758e+01 +1.9207956682054864e+03 -3.3229569674201595e+05 -1.0725614357222885e+07 
-4.5999999999999996e+00 -5.3642717440675480e-01 +7.3404139100265668e+00 -6.6895233681379163e-01 +3.4247262019428526e+01 +1.9270801731100355e+03 -3.3160786962509912e+05 -1.0747229473271666e+07 
-4.7000000000000002e+00 -5.3642734560679983e-01 +7.3404003329711554e+00 -6.6945505721031962e-01 +3.4251287978916658e+01 +1.9267510797177272e+03 -3.3093472280765697e+05 -1.0737938004773546e+07 
-4.7999999999999998e+00 -5.3642751511606834e-01 +7.3403843305846621e+00 -6.6968079138791559e-01 +3.4272959660061780e+01 +1.9203774260224454e+03 -3.3029883212040248e+05 -1.0699955779609876e+07 
-4.9000000000000004e+00 -5.3642768244947991e-01 +7.3403660689937231e+00 -6.6967323223278619e-01 +3.4314675935009603e+01 +1.9085284259842895e+03 -3.2972277214375907e+05 -1.0635499443652082e+07 
-5.0000000000000000e+00 -5.3642784712197911e-01 +7.3403457143324884e+00 -6.6947607242980411e-01 +3.4378835536329255e+01 +1.8917732949842134e+03 -3.2922911685150664e+05 -1.0546785635007465e+07 
-5.0999999999999996e+00 -5.3642800864854068e-01 +7.3403234327413003e+00 -6.6913300665135100e-01 +3.4467837090657845e+01 +1.8706812864662202e+03 -3.2884043979432073e+05 -1.0436031141005011e+07 
-5.2000000000000002e+00 -5.3642816654409953e-01 +7.3402993903658960e+00 -6.6868773173497242e-01 +3.4584079146419953e+01 +1.8458217032124196e+03 -3.2857931427542376e+05 -1.0305452971608171e+07 
-5.2999999999999998e+00 -5.3642832032359333e-01 +7.3402737533595932e+00 -6.6818395041694234e-01 +3.4729960109675950e+01 +1.8177639628738141e+03 -3.2846831296970905e+05 -1.0157268656614792e+07 
-5.4000000000000004e+00 -5.3642846950200718e-01 +7.3402466878885511e+00 -6.6766536639577423e-01 +3.4907878107198350e+01 +1.7870775063179183e+03 -3.2853000718276709e+05 -9.9936958123534955e+06 
-5.5000000000000000e+00 -5.3642861359424099e-01 +7.3402183601170901e+00 -6.6717568797481297e-01 +3.5120231394396598e+01 +1.7543318691262834e+03 -3.2878696915664373e+05 -9.8169524861147907e+06 
-5.5999999999999996e+00 -5.3642875211535179e-01 +7.3401889362304518e+00 -6.6675862426035593e-01 +3.5369417724982256e+01 +1.7200966068648268e+03 -3.2926176850268320e+05 -9.6292567923462670e+06 
-5.7000000000000002e+00 -5.3642888458021654e-01 +7.3401585824148938e+00 -6.6645789055646498e-01 +3.5657834897206882e+01 +1.6849413967263949e+03 -3.2997697528370668e+05 -9.4328273930723555e+06 
-5.7999999999999998e+00 -5.3642901050386771e-01 +7.3401274648701360e+00 -6.6631720432733377e-01 +3.5987880428653874e+01 +1.6494359671554653e+03 -3.3095515822034434e+05 -9.2298831770527754e+06 
-5.9000000000000004e+00 -5.3642912940123277e-01 +7.3400957498045125e+00 -6.6638028696155371e-01 +3.6361951682550199e+01 +1.6141501268039099e+03 -3.3221888539408735e+05 -9.0226433844091352e+06 
-5.9999999999999902e+00 -5.3642924078738186e-01 +7.3400636034363149e+00 -6.6669086325580063e-01 +3.6782445819982513e+01 +1.5796537534675840e+03 -3.3379072395303898e+05 -8.8133275492071807e+06 
-6.0999999999999899e+00 -5.3642934446923851e-01 +7.3400311913183058e+00 -6.6728243960302891e-01 +3.7250513357899564e+01 +1.5464223692960702e+03 -3.3568455296911846e+05 -8.6038598989049979e+06 
-6.1999999999999904e+00 -5.3642944143515048e-01 +7.3399986853547343e+00 -6.6814577265586916e-01 +3.7762071078889456e+01 +1.5145678426871109e+03 -3.3787838875791134e+05 -8.3951539620310571e+06 
-6.2999999999999901e+00 -5.3642953297213347e-01 +7.3399662614366790e+00 -6.6926048669506810e-01 +3.8311653972890333e+01 +1.4841152724872359e+03 -3.4034093713367201e+05 -8.1879164601077614e+06 
-6.3999999999999897e+00 -5.3642962036721908e-01 +7.3399340954515404e+00 -6.7060620123600601e-01 +3.8893796993178263e+01 +1.4550896754645300e+03 -3.4304090340370144e+05 -7.9828537553946944e+06 
-6.4999999999999902e+00 -5.3642970490742692e-01 +7.3399023632782781e+00 -6.7216253164896100e-01 +3.9503035201270087e+01 +1.4275160023437395e+03 -3.4594699316675297e+05 -7.7806719438640848e+06 
-6.5999999999999899e+00 -5.3642978787988704e-01 +7.3398712407933733e+00 -6.7390909344278471e-01 +4.0133903588004564e+01 +1.4014192173558147e+03 -3.4902791125785542e+05 -7.5820772304935912e+06 
-6.6999999999999904e+00 -5.3642987057173119e-01 +7.3398409038646655e+00 -6.7582549268929948e-01 +4.0780937245838473e+01 +1.3768241152912026e+03 -3.5225236273839942e+05 -7.3877750560650900e+06 
-6.7999999999999901e+00 -5.3642995427013196e-01 +7.3398115283519845e+00 -6.7789133408228641e-01 +4.1438671345855738e+01 +1.3537554742043492e+03 -3.5558905274441827e+05 -7.1984708232632559e+06 
-6.8999999999999897e+00 -5.3643004026230223e-01 +7.3397832901125968e+00 -6.8008621841943939e-01 +4.2101640966426821e+01 +1.3322380133466850e+03 -3.5900668546786992e+05 -7.0148697142520538e+06 
-6.9999999999999902e+00 -5.3643012983555360e-01 +7.3397563649871946e+00 -6.8238973796605940e-01 +4.2764381505426279e+01 +1.3122962982967467e+03 -3.6247396655042283e+05 -6.8376762204817887e+06 
-7.0999999999999899e+00 -5.3643022427713716e-01 +7.3397309288187920e+00 -6.8478148676387007e-01 +4.3421428114556718e+01 +1.2939549435269250e+03 -3.6595959977471636e+05 -6.6675951258080583e+06 
-7.1999999999999904e+00 -5.3643032487442888e-01 +7.3397071574348871e+00 -6.8724104719536661e-01 +4.4067316214236840e+01 +1.2772383525078260e+03 -3.6943229002512945e+05 -6.5053302589155631e+06 
-7.2999999999999901e+00 -5.3643043291484305e-01 +7.3396852266559325e+00 -6.8974800108077261e-01 +4.4696581243311506e+01 +1.2621709337296684e+03 -3.7286074184234126e+05 -6.3515855356927840e+06 
-7.3999999999999897e+00 -5.3643054968577619e-01 +7.3396653122986777e+00 -6.9228192306431358e-01 +4.5303758555056902e+01 +1.2487769698314460e+03 -3.7621365879534080e+05 -6.2070643220597589e+06 
-7.4999999999999902e+00 -5.3643067647480958e-01 +7.3396475901624170e+00 -6.9482238220490278e-01 +4.5883383804631833e+01 +1.2370806536619045e+03 -3.7945974569682678e+05 -6.0724696246232940e+06 
-7.5999999999999899e+00 -5.3643081456941022e-01 +7.3396322360456132e+00 -6.9734894270877790e-01 +4.6429992463755660e+01 +1.2271061001966634e+03 -3.8256770578639244e+05 -5.9485041409166399e+06 
-7.6999999999999904e+00 -5.3643096525721323e-01 +7.3396194257275482e+00 -6.9984116151409914e-01 +4.6938120356705269e+01 +1.2188772982940254e+03 -3.8550624384801218e+05 -5.8358700250252588e+06 
-7.7999999999999901e+00 -5.3643112982589614e-01 +7.3396093349876432e+00 -7.0227859123142966e-01 +4.7402303074399818e+01 +1.2124181712356335e+03 -3.8824406274456589e+05 -5.7352691890130956e+06 
-7.8999999999999897e+00 -5.3643130956315122e-01 +7.3396021395880302e+00 -7.0464077708857620e-01 +4.7817076484634605e+01 +1.2077525202785559e+03 -3.9074986639167630e+05 -5.6474030396249862e+06 
-7.9999999999999902e+00 -5.3643150575676735e-01 +7.3395980152816325e+00 -7.0690725893610573e-01 +4.8176976499444486e+01 +1.2049040550424618e+03 -3.9299235844960355e+05 -5.5729726065141456e+06 
-8.0999999999999908e+00 -5.3643171947322021e-01 +7.3395970844865985e+00 -7.0905926071078496e-01 +4.8477645259336661e+01 +1.2038682177689675e+03 -3.9494605102403968e+05 -5.5124819210665207e+06 
-8.1999999999999904e+00 -5.3643195088393392e-01 +7.3395992410314319e+00 -7.1108317214890415e-01 +4.8719423311200764e+01 +1.2044942860380897e+03 -3.9660978884870594e+05 -5.4654665185529366e+06 
-8.2999999999999901e+00 -5.3643219993397673e-01 +7.3396043175728218e+00 -7.1296621977536834e-01 +4.8903898758762139e+01 +1.2065856042471612e+03 -3.9798880757576198e+05 -5.4311700181312747e+06 
-8.3999999999999897e+00 -5.3643246656842991e-01 +7.3396121467586894e+00 -7.1469562889504412e-01 +4.9032659910760209e+01 +1.2099454862442703e+03 -3.9908834389559529e+05 -5.4088358882743567e+06 
-8.4999999999999893e+00 -5.3643275073237029e-01 +7.3396225612336305e+00 -7.1625862693310927e-01 +4.9107295142151635e+01 +1.2143772829833936e+03 -3.9991363475163840e+05 -5.3977077787998766e+06 
-8.5999999999999908e+00 -5.3643305237082228e-01 +7.3396353936351098e+00 -7.1764243818266482e-01 +4.9129392995646803e+01 +1.2196842775584491e+03 -4.0046991791424167e+05 -5.3970290113308299e+06 
-8.6999999999999904e+00 -5.3643337142879177e-01 +7.3396504765946728e+00 -7.1883429020369061e-01 +4.9100542137565732e+01 +1.2256698075379886e+03 -4.0076243169474293e+05 -5.4060431595566627e+06 
-8.7999999999999794e+00 -5.3643370785125455e-01 +7.3396676427363987e+00 -7.1982141135401945e-01 +4.9022331420003752e+01 +1.2321372194603662e+03 -4.0079641534660175e+05 -5.4239938422721094e+06 
-8.8999999999999808e+00 -5.3643406158321061e-01 +7.3396867246808943e+00 -7.2059102765541339e-01 +4.8896349753540392e+01 +1.2388898075025088e+03 -4.0057710829866689e+05 -5.4501244229848254e+06 
-8.9999999999999805e+00 -5.3643443256955381e-01 +7.3397075550409347e+00 -7.2113036905417771e-01 +4.8724186231728325e+01 +1.2457309342672061e+03 -4.0010975087047182e+05 -5.4836785906825997e+06 
-9.0999999999999801e+00 -5.3643482075518878e-01 +7.3397299664206734e+00 -7.2142666392996246e-01 +4.8507430170446511e+01 +1.2524639217906083e+03 -3.9939958454338892e+05 -5.5238998320430797e+06 
-9.1999999999999797e+00 -5.3643522608500105e-01 +7.3397537914215123e+00 -7.2146714065309658e-01 +4.8247670913108571e+01 +1.2588920864498309e+03 -3.9845185076197423e+05 -5.5700316076220460e+06 
-9.2999999999999794e+00 -5.3643564850386383e-01 +7.3397788626331648e+00 -7.2123902876278334e-01 +4.7946498111008928e+01 +1.2648187548481733e+03 -3.9727179261108662e+05 -5.6213174132199511e+06 
-9.3999999999999808e+00 -5.3643608795655706e-01 +7.3398050126452414e+00 -7.2072955990867771e-01 +4.7605501378916998e+01 +1.2700472881400074e+03 -3.9586465280824178e+05 -5.6770009134159489e+06 
-9.4999999999999805e+00 -5.3643654438786637e-01 +7.3398320740317029e+00 -7.1992596491916683e-01 +4.7226270744296869e+01 +1.2743810210862789e+03 -3.9423567628277518e+05 -5.7363256371839764e+06 
-9.5999999999999801e+00 -5.3643701774255359e-01 +7.3398598793669390e+00 -7.1881547389952016e-01 +4.6810396181095975e+01 +1.2776232633644445e+03 -3.9239010748984525e+05 -5.7985349827885516e+06 
-9.6999999999999797e+00 -5.3643750796532919e-01 +7.3398882612143819e+00 -7.1738532379184150e-01 +4.6359467948614849e+01 +1.2795774484240987e+03 -3.9033319238500920e+05 -5.8628729409136437e+06 
-9.7999999999999794e+00 -5.3643801500087707e-01 +7.3399170521278672e+00 -7.1562274396318126e-01 +4.5875076534817602e+01 +1.2800468515402652e+03 -3.8807017804890953e+05 -5.9285827313352069e+06 
-9.8999999999999808e+00 -5.3643853879382852e-01 +7.3399460846602675e+00 -7.1351497043918244e-01 +4.5358812424319218e+01 +1.2788348673567107e+03 -3.8560631139937608e+05 -5.9949081439134134e+06 
-9.9999999999999805e+00 -5.3643907928882650e-01 +7.3399751913513613e+00 -7.1104923705910772e-01 +4.4812266461130278e+01 +1.2757448383437873e+03 -3.8294684123568796e+05 -6.0610927077126727e+06 
-1.0100000000000000e+01 -5.3643963613255674e-01 +7.3400042241012935e+00 -7.0822749707691390e-01 +4.4237445969354432e+01 +1.2707453400532881e+03 -3.8010062088675314e+05 -6.1269307169767804e+06 
