# multipoles
# s[mm] polynom_b[n=0][T/m^n] polynom_b[n=1][T/m^n] polynom_b[n=2][T/m^n] polynom_b[n=3][T/m^n] polynom_b[n=4][T/m^n] polynom_b[n=5][T/m^n] polynom_b[n=6][T/m^n] 
+0.0000000000000000e+00 -5.9244490122931570e-01 +8.1173821094016851e+00 +6.8291781704148069e-01 -1.3226034523981781e+02 -1.1496934235033936e+04 +5.6708707094911253e+05 +3.2868583923739105e+07 
+1.0000000000000001e-01 -5.9244495296889399e-01 +8.1173610926553064e+00 +6.8886467169453369e-01 -1.3178498634573131e+02 -1.1547963208870684e+04 +5.6422727169811598e+05 +3.2947922317772143e+07 
+2.0000000000000001e-01 -5.9244499351765589e-01 +8.1173385454357607e+00 +6.9387518769172019e-01 -1.3122529413174695e+02 -1.1587417408142606e+04 +5.6075811056582688e+05 +3.2990458919014778e+07 
+2.9999999999999999e-01 -5.9244502344553374e-01 +8.1173145258954200e+00 +6.9797608329801009e-01 -1.3058700346895250e+02 -1.1615564343066873e+04 +5.5672595048552577e+05 +3.2996929455935419e+07 
+4.0000000000000002e-01 -5.9244504332257675e-01 +8.1172890921979128e+00 +7.0119407759382490e-01 -1.2987584953053761e+02 -1.1632671537426713e+04 +5.5217715600154828e+05 +3.2968069728313208e+07 
+5.0000000000000000e-01 -5.9244505371877010e-01 +8.1172623025068731e+00 +7.0355589238303462e-01 -1.2909756748267625e+02 -1.1639006565351177e+04 +5.4715809152295592e+05 +3.2904615781250421e+07 
+5.9999999999999998e-01 -5.9244505520407953e-01 +8.1172342149969197e+00 +7.0508823939092069e-01 -1.2825789277170671e+02 -1.1634836809878812e+04 +5.4171512290705764e+05 +3.2807302760667652e+07 
+6.9999999999999996e-01 -5.9244504834847822e-01 +8.1172048878442826e+00 +7.0581783830987488e-01 -1.2736256090046901e+02 -1.1620429803867486e+04 +5.3589461630217591e+05 +3.2676866525853936e+07 
+8.0000000000000004e-01 -5.9244503372190471e-01 +8.1171743792310362e+00 +7.0577140118876780e-01 -1.2641730752607415e+02 -1.1596052938671623e+04 +5.2974293863615021e+05 +3.2514042276895504e+07 
+9.0000000000000002e-01 -5.9244501189434717e-01 +8.1171427473467528e+00 +7.0497564605991947e-01 -1.2542786850580934e+02 -1.1561973718909820e+04 +5.2330645789918496e+05 +3.2319565752173305e+07 
+1.0000000000000000e+00 -5.9244498343574081e-01 +8.1171100503813314e+00 +7.0345728478923664e-01 -1.2439997971596232e+02 -1.1518459537871866e+04 +5.1663154214860086e+05 +3.2094172177009560e+07 
+1.1000000000000001e+00 -5.9244494891611710e-01 +8.1170763465299078e+00 +7.0124303397457699e-01 -1.2333937716971174e+02 -1.1465777876813554e+04 +5.0976456013958913e+05 +3.1838597184227049e+07 
+1.2000000000000000e+00 -5.9244490890533208e-01 +8.1170416939914301e+00 +6.9835960760780857e-01 -1.2225179700313132e+02 -1.1404196177319120e+04 +5.0275188132130966e+05 +3.1553576241181359e+07 
+1.3000000000000000e+00 -5.9244486397338803e-01 +8.1170061509709708e+00 +6.9483372386564557e-01 -1.2114297552805479e+02 -1.1333981964936958e+04 +4.9563987610318174e+05 +3.1239845218437660e+07 
+1.3999999999999999e+00 -5.9244481469027610e-01 +8.1169697756717625e+00 +6.9069209989325897e-01 -1.2001864900895988e+02 -1.1255402748177170e+04 +4.8847491458549380e+05 +3.0898139903180428e+07 
+1.5000000000000000e+00 -5.9244476162594706e-01 +8.1169326263035568e+00 +6.8596145592339719e-01 -1.1888455390317371e+02 -1.1168726099362435e+04 +4.8130336795317067e+05 +3.0529196387484089e+07 
+1.6000000000000001e+00 -5.9244470535036364e-01 +8.1168947610778126e+00 +6.8066851207074108e-01 -1.1774642674274040e+02 -1.1074219605352657e+04 +4.7417160784884973e+05 +3.0133750864920206e+07 
+1.7000000000000000e+00 -5.9244464643352635e-01 +8.1168562382072089e+00 +6.7483999320199173e-01 -1.1661000409236607e+02 -1.0972150941337075e+04 +4.6712600605142780e+05 +2.9712539926524397e+07 
+1.8000000000000000e+00 -5.9244458544545875e-01 +8.1168171159071392e+00 +6.6850262470764910e-01 -1.1548102263434124e+02 -1.0862787803629017e+04 +4.6021293509529298e+05 +2.9266300276747238e+07 
+1.8999999999999999e+00 -5.9244452295614258e-01 +8.1167774523961977e+00 +6.6168313641171883e-01 -1.1436521913853809e+02 -1.0746397986619764e+04 +4.5347876796693372e+05 +2.8795769102110930e+07 
+2.0000000000000000e+00 -5.9244445953562752e-01 +8.1167373058908563e+00 +6.5440825993437379e-01 -1.1326833035586108e+02 -1.0623249325762592e+04 +4.4696987762882508e+05 +2.8301683781506710e+07 
+2.1000000000000001e+00 -5.9244439569544527e-01 +8.1166967497678311e+00 +6.4670627086388721e-01 -1.1219531161713974e+02 -1.0493692430506926e+04 +4.4072423681683565e+05 +2.7785210374549869e+07 
+2.2000000000000002e+00 -5.9244433170548538e-01 +8.1166559156818181e+00 +6.3861027385218627e-01 -1.1114791699761368e+02 -1.0358396593513258e+04 +4.3474592467231385e+05 +2.7249229880859930e+07 
+2.2999999999999998e+00 -5.9244426777315062e-01 +8.1166149492639459e+00 +6.3015425380633294e-01 -1.1012708034342914e+02 -1.0218107889187992e+04 +4.2903046388487541e+05 +2.6697053045810539e+07 
+2.3999999999999999e+00 -5.9244420410591425e-01 +8.1165739961400369e+00 +6.2137219639218400e-01 -1.0913373528621739e+02 -1.0073572401496607e+04 +4.2357337572884245e+05 +2.6131990646875102e+07 
+2.5000000000000000e+00 -5.9244414091119324e-01 +8.1165332019418450e+00 +6.1229808742919101e-01 -1.0816881559280571e+02 -9.9255362156140400e+03 +4.1837018215393758e+05 +2.5557353462841541e+07 
+2.6000000000000001e+00 -5.9244407839641344e-01 +8.1164927122947930e+00 +6.0296591359403362e-01 -1.0723325479254810e+02 -9.7747454303706472e+03 +4.1341640358597290e+05 +2.4976452331366610e+07 
+2.7000000000000002e+00 -5.9244401676913494e-01 +8.1164526728285349e+00 +5.9340966225568936e-01 -1.0632798648174627e+02 -9.6219461492328210e+03 +4.0870756069234799e+05 +2.4392598092026547e+07 
+2.7999999999999998e+00 -5.9244395623675317e-01 +8.1164132291697868e+00 +5.8366332193943959e-01 -1.0545394411124839e+02 -9.4678844923155557e+03 +4.0423917313531379e+05 +2.3809101651490599e+07 
+2.8999999999999999e+00 -5.9244389700680378e-01 +8.1163745269405023e+00 +5.7376087936607834e-01 -1.0461206092894467e+02 -9.3133065397324190e+03 +4.0000675923673681e+05 +2.3229273714969117e+07 
+3.0000000000000000e+00 -5.9244383928675259e-01 +8.1163367117679304e+00 +5.6373632220560954e-01 -1.0380327025796582e+02 -9.1589583784770894e+03 +3.9600583755531459e+05 +2.2656424995304540e+07 
+3.1000000000000001e+00 -5.9244378328413660e-01 +8.1162999292708999e+00 +5.5362364291244048e-01 -1.0302850511660333e+02 -9.0055861837081211e+03 +3.9223192473816208e+05 +2.2093866623353191e+07 
+3.2000000000000002e+00 -5.9244372920647448e-01 +8.1162643250694710e+00 +5.4345682603137668e-01 -1.0228869846221021e+02 -8.8539359644744072e+03 +3.8868053683477890e+05 +2.1544908903258987e+07 
+3.2999999999999998e+00 -5.9244367726126257e-01 +8.1162300447783231e+00 +5.3326986314744551e-01 -1.0158478302101676e+02 -8.7047538548126104e+03 +3.8534718838016357e+05 +2.1012862718191855e+07 
+3.3999999999999999e+00 -5.9244362765614411e-01 +8.1161972340113255e+00 +5.2309674491671565e-01 -1.0091769140286644e+02 -8.5587859634155284e+03 +3.8222739300960035e+05 +2.0501038818057846e+07 
+3.5000000000000000e+00 -5.9244358059857138e-01 +8.1161660383786565e+00 +5.1297145789698428e-01 -1.0028835601760370e+02 -8.4167783035962948e+03 +3.7931666298244923e+05 +2.0012747461014315e+07 
+3.6000000000000001e+00 -5.9244353629618984e-01 +8.1161366034873730e+00 +5.0292799312237524e-01 -9.9697709083483730e+01 -8.2794769639255755e+03 +3.7661050920829072e+05 +1.9551299248052038e+07 
+3.7000000000000002e+00 -5.9244349495655479e-01 +8.1161090749395139e+00 +4.9300033951927463e-01 -9.9146682570271693e+01 -8.1476279786394080e+03 +3.7410444091853395e+05 +1.9120004493738670e+07 
+3.7999999999999998e+00 -5.9244345678726718e-01 +8.1160835983326436e+00 +4.8322248609753338e-01 -9.8636208205955796e+01 -8.0219773675815768e+03 +3.7179396568649955e+05 +1.8722173413001940e+07 
+3.8999999999999999e+00 -5.9244342199593991e-01 +8.1160603192605798e+00 +4.7362842169959535e-01 -9.8167217504142258e+01 -7.9032711350028694e+03 +3.6967458960269246e+05 +1.8361116126831193e+07 
+4.0000000000000000e+00 -5.9244339079024433e-01 +8.1160393833141509e+00 +4.6425213583699781e-01 -9.7740641759255311e+01 -7.7922552756403693e+03 +3.6774181719746761e+05 +1.8040142665833775e+07 
+4.0999999999999996e+00 -5.9244336342005799e-01 +8.1160208892250925e+00 +4.5512415779757176e-01 -9.7356958974196715e+01 -7.6894985991727672e+03 +3.6599101477029530e+05 +1.7761563944724832e+07 
+4.2000000000000002e+00 -5.9244334030873669e-01 +8.1160047566178726e+00 +4.4626304401110561e-01 -9.7015181596267269e+01 -7.5948849211685128e+03 +3.6441871682153846e+05 +1.7523754674936816e+07 
+4.2999999999999998e+00 -5.9244332192399152e-01 +8.1159908623885997e+00 +4.3768481042228757e-01 -9.6714043710532366e+01 -7.5081321414146496e+03 +3.6302219350715546e+05 +1.7324117551656626e+07 
+4.4000000000000004e+00 -5.9244330873363515e-01 +8.1159790834281047e+00 +4.2940547179243777e-01 -9.6452279360551941e+01 -7.4289581386843729e+03 +3.6179871522010176e+05 +1.7160055168085948e+07 
+4.5000000000000000e+00 -5.9244330120540523e-01 +8.1159692966136099e+00 +4.2144104514732450e-01 -9.6228622315559420e+01 -7.3570808394668256e+03 +3.6074555129328719e+05 +1.7028970352037594e+07 
+4.5999999999999996e+00 -5.9244329980703425e-01 +8.1159613788193141e+00 +4.1380754414310483e-01 -9.6041806370076387e+01 -7.2922181095085671e+03 +3.5985997172054369e+05 +1.6928265645377185e+07 
+4.7000000000000002e+00 -5.9244330500631293e-01 +8.1159552069069996e+00 +4.0652098670233644e-01 -9.5890565094115559e+01 -7.2340878981908936e+03 +3.5913924578250642e+05 +1.6855343987385802e+07 
+4.7999999999999998e+00 -5.9244331727094934e-01 +8.1159506577253300e+00 +3.9959738915488507e-01 -9.5773631817738561e+01 -7.1824081328963875e+03 +3.5858064198361337e+05 +1.6807608229527716e+07 
+4.9000000000000004e+00 -5.9244333706869790e-01 +8.1159476081144231e+00 +3.9305277057101168e-01 -9.5689739773582232e+01 -7.1368967941408973e+03 +3.5818142891236261e+05 +1.6782461470563356e+07 
+5.0000000000000000e+00 -5.9244336486726024e-01 +8.1159459349097016e+00 +3.8690314460089958e-01 -9.5637622204756013e+01 -7.0972717666034823e+03 +3.5793887587074161e+05 +1.6777306365816712e+07 
+5.0999999999999996e+00 -5.9244340113442262e-01 +8.1159455149219362e+00 +3.8116453337477207e-01 -9.5616011823348686e+01 -7.0632511025235544e+03 +3.5785024984573916e+05 +1.6789546376243088e+07 
+5.2000000000000002e+00 -5.9244344633786306e-01 +8.1159462249616627e+00 +3.7585295350067166e-01 -9.5623641493233137e+01 -7.0345527543344579e+03 +3.5791281940078188e+05 +1.6816584495045148e+07 
+5.2999999999999998e+00 -5.9244350094529852e-01 +8.1159479418192113e+00 +3.7098442443274032e-01 -9.5659243681540914e+01 -7.0108947352106406e+03 +3.5812385161039309e+05 +1.6855824013102401e+07 
+5.4000000000000004e+00 -5.9244356542445631e-01 +8.1159505422800216e+00 +3.6657496478002566e-01 -9.5721550913046414e+01 -6.9919950505230527e+03 +3.5848061471095710e+05 +1.6904668195778530e+07 
+5.5000000000000000e+00 -5.9244364024296836e-01 +8.1159539031093999e+00 +3.6264059341638377e-01 -9.5809295316467598e+01 -6.9775717169707041e+03 +3.5898037546099769e+05 +1.6960520372510616e+07 
+5.5999999999999996e+00 -5.9244372586862326e-01 +8.1159579010595522e+00 +3.5919733208646992e-01 -9.5921208858029942e+01 -6.9673428151887083e+03 +3.5962040058468597e+05 +1.7020784191438448e+07 
+5.7000000000000002e+00 -5.9244382276899976e-01 +8.1159624128745449e+00 +3.5626119985314575e-01 -9.6056023480482594e+01 -6.9610263793216373e+03 +3.6039795757265639e+05 +1.7082863080451049e+07 
+5.7999999999999998e+00 -5.9244393141182294e-01 +8.1159673152771479e+00 +3.5384821758111207e-01 -9.6212470751500575e+01 -6.9583404920035809e+03 +3.6131031274088583e+05 +1.7144160727981940e+07 
+5.9000000000000004e+00 -5.9244405226468733e-01 +8.1159724849761314e+00 +3.5197440609894320e-01 -9.6389282043087476e+01 -6.9590032399270103e+03 +3.6235473218287056e+05 +1.7202080841886438e+07 
+5.9999999999999902e+00 -5.9244418579531055e-01 +8.1159777986701531e+00 +3.5065578497657318e-01 -9.6585188708384706e+01 -6.9627326988244886e+03 +3.6352848297514312e+05 +1.7254027102565344e+07 
+6.0999999999999899e+00 -5.9244433231094396e-01 +8.1159831493146832e+00 +3.4990308529648628e-01 -9.6799092089907347e+01 -6.9693427140322001e+03 +3.6482909688599617e+05 +1.7298340688198239e+07 
+6.1999999999999904e+00 -5.9244449147543710e-01 +8.1159884783261624e+00 +3.4970496604094103e-01 -9.7029740423317335e+01 -6.9790207232161092e+03 +3.6624990112092119e+05 +1.7337095402339868e+07 
+6.2999999999999901e+00 -5.9244466279110142e-01 +8.1159937350750617e+00 +3.5004437277219885e-01 -9.7275632818532344e+01 -6.9920471385323617e+03 +3.6778183678988356e+05 +1.7373306369629640e+07 
+6.3999999999999897e+00 -5.9244484576020184e-01 +8.1159988689397125e+00 +3.5090424875648746e-01 -9.7535268454664703e+01 -7.0087023296725110e+03 +3.6941584465846594e+05 +1.7409988517979078e+07 
+6.4999999999999902e+00 -5.9244503988492137e-01 +8.1160038293123922e+00 +3.5226753476795147e-01 -9.7807146806026410e+01 -7.0292666207553893e+03 +3.7114286655185407e+05 +1.7450156565464482e+07 
+6.5999999999999899e+00 -5.9244524466756499e-01 +8.1160085655987189e+00 +3.5411717242070101e-01 -9.8089767570710137e+01 -7.0540203531489169e+03 +3.7295384477995289e+05 +1.7496825316817649e+07 
+6.6999999999999904e+00 -5.9244545961033190e-01 +8.1160130272114444e+00 +3.5643610092313194e-01 -9.8381630522308200e+01 -7.0832438208927060e+03 +3.7483972134019423e+05 +1.7553009351355702e+07 
+6.7999999999999901e+00 -5.9244568421544652e-01 +8.1160171635798211e+00 +3.5920726019105098e-01 -9.8681235753852249e+01 -7.1172173390251928e+03 +3.7679143924180424e+05 +1.7621723369808830e+07 
+6.8999999999999897e+00 -5.9244591798508750e-01 +8.1160209241497761e+00 +3.6241358366923959e-01 -9.8987083688684351e+01 -7.1562210949437276e+03 +3.7879994256966363e+05 +1.7705981457010902e+07 
+6.9999999999999902e+00 -5.9244616042149345e-01 +8.1160242583775251e+00 +3.6603800949075799e-01 -9.9297674873603583e+01 -7.2005353688159121e+03 +3.8085617520503112e+05 +1.7808798150947325e+07 
+7.0999999999999899e+00 -5.9244641102680384e-01 +8.1160271157339086e+00 +3.7006347068535228e-01 -9.9611510112507588e+01 -7.2504403450325372e+03 +3.8295108160168538e+05 +1.7933187541561522e+07 
+7.1999999999999904e+00 -5.9244666930317713e-01 +8.1160294457109217e+00 +3.7447289932082906e-01 -9.9927090634677512e+01 -7.3062161896791040e+03 +3.8507560769446037e+05 +1.8082163634063471e+07 
+7.2999999999999901e+00 -5.9244693475277843e-01 +8.1160311978140296e+00 +3.7924922498651126e-01 -1.0024291788883771e+02 -7.3681430252057989e+03 +3.8722069972562266e+05 +1.8258740239610944e+07 
+7.3999999999999897e+00 -5.9244720687770125e-01 +8.1160323215632086e+00 +3.8437537912729253e-01 -1.0055749352653098e+02 -7.4365010068800111e+03 +3.8937730400413345e+05 +1.8465931322343688e+07 
+7.4999999999999902e+00 -5.9244748518012347e-01 +8.1160327664982947e+00 +3.8983428641790874e-01 -1.0086931959486537e+02 -7.5115701685046115e+03 +3.9153636811731843e+05 +1.8706750291915752e+07 
+7.5999999999999899e+00 -5.9244776916207575e-01 +8.1160324821784187e+00 +3.9560887462085409e-01 -1.0117689848311385e+02 -7.5936305980374354e+03 +3.9368884048758901e+05 +1.8984210807913803e+07 
+7.6999999999999904e+00 -5.9244805832565250e-01 +8.1160314181829136e+00 +4.0168206536785361e-01 -1.0147873295463702e+02 -7.6829622711544707e+03 +3.9582567056936712e+05 +1.9301326011005163e+07 
+7.7999999999999901e+00 -5.9244835217295388e-01 +8.1160295241054623e+00 +4.0803678130275972e-01 -1.0177332596778876e+02 -7.7798451841414599e+03 +3.9793780775576353e+05 +1.9661109148432169e+07 
+7.8999999999999897e+00 -5.9244865020598847e-01 +8.1160267495683236e+00 +4.1465594118512272e-01 -1.0205918107280756e+02 -7.8845592613337240e+03 +4.0001620362849574e+05 +2.0066573135041371e+07 
+7.9999999999999902e+00 -5.9244895192681968e-01 +8.1160230442026471e+00 +4.2152246316702724e-01 -1.0233480182646196e+02 -7.9973844100160704e+03 +4.0205180852176971e+05 +2.0520730792991400e+07 
+8.0999999999999908e+00 -5.9244925681645089e-01 +8.1160183862132840e+00 +4.2861705895911256e-01 -1.0259913701974762e+02 -8.1184238116784636e+03 +4.0403713030362676e+05 +2.1025368338010684e+07 
+8.1999999999999904e+00 -5.9244956427202899e-01 +8.1160128847051265e+00 +4.3590992648374322e-01 -1.0285386924627791e+02 -8.2470424505542524e+03 +4.0597723465661344e+05 +2.1577234351220269e+07 
+8.2999999999999901e+00 -5.9244987366983592e-01 +8.1160066858435229e+00 +4.4336818976389897e-01 -1.0310160679472826e+02 -8.3824104058882895e+03 +4.0788192476174299e+05 +2.2171767340821873e+07 
+8.3999999999999897e+00 -5.9245018438618746e-01 +8.1159999357954327e+00 +4.5095897162739157e-01 -1.0334495812021595e+02 -8.5236977112314344e+03 +4.0976100529910473e+05 +2.2804405537091680e+07 
+8.4999999999999893e+00 -5.9245049579748077e-01 +8.1159927807284209e+00 +4.5864939886812994e-01 -1.0358653177019555e+02 -8.6700744491599016e+03 +4.1162428196420672e+05 +2.3470587334789563e+07 
+8.5999999999999908e+00 -5.9245080728003585e-01 +8.1159853668113797e+00 +4.6640659492410175e-01 -1.0382893644554115e+02 -8.8207106234692401e+03 +4.1348156193245272e+05 +2.4165750715649307e+07 
+8.6999999999999904e+00 -5.9245111821026597e-01 +8.1159778402111318e+00 +4.7419768831148945e-01 -1.0407478086284114e+02 -8.9747763061336100e+03 +4.1534265296140435e+05 +2.4885333911072209e+07 
+8.7999999999999794e+00 -5.9245142796459871e-01 +8.1159703470999354e+00 +4.8198980758758680e-01 -1.0432667400000504e+02 -9.1314415490698939e+03 +4.1721736490155291e+05 +2.5624775003510356e+07 
+8.8999999999999808e+00 -5.9245173591951383e-01 +8.1159630336443769e+00 +4.8975008192191583e-01 -1.0458722476343451e+02 -9.2898763928002700e+03 +4.1911550776052452e+05 +2.6379511961734708e+07 
+8.9999999999999805e+00 -5.9245204145143449e-01 +8.1159560460192459e+00 +4.9744563853490392e-01 -1.0485904241625288e+02 -9.4492508157648572e+03 +4.2104689425178326e+05 +2.7144982393594608e+07 
+9.0999999999999801e+00 -5.9245234393688684e-01 +8.1159495303922391e+00 +5.0504361160044364e-01 -1.0514473611006703e+02 -9.6087349041471170e+03 +4.2302133702323522e+05 +2.7916624356313691e+07 
+9.1999999999999797e+00 -5.9245264275239418e-01 +8.1159436329383947e+00 +5.1251113251262159e-01 -1.0544691532782211e+02 -9.7674986650559240e+03 +4.2504865130899620e+05 +2.8689875462541938e+07 
+9.2999999999999794e+00 -5.9245293727456450e-01 +8.1159384998272017e+00 +5.1981533679433156e-01 -1.0576818949969307e+02 -9.9247121565818707e+03 +4.2713865268607769e+05 +2.9460173497056633e+07 
+9.3999999999999808e+00 -5.9245322687993873e-01 +8.1159342772328404e+00 +5.2692335734558104e-01 -1.0611116831202587e+02 -1.0079545365206634e+04 +4.2930115889433463e+05 +3.0222955846684348e+07 
+9.4999999999999805e+00 -5.9245351094514620e-01 +8.1159311113273009e+00 +5.3380233088883500e-01 -1.0647846151052735e+02 -1.0231168316484976e+04 +4.3154598872672941e+05 +3.0973659997426614e+07 
+9.5999999999999801e+00 -5.9245378884684119e-01 +8.1159291482858329e+00 +5.4041939538083361e-01 -1.0687267905750592e+02 -1.0378751035714777e+04 +4.3388296294764319e+05 +3.1707723372356713e+07 
+9.6999999999999797e+00 -5.9245405996173273e-01 +8.1159285342813181e+00 +5.4674168879915752e-01 -1.0729643097139558e+02 -1.0521463517453309e+04 +4.3632190337081935e+05 +3.2420583167720575e+07 
+9.7999999999999794e+00 -5.9245432366651962e-01 +8.1159294154847839e+00 +5.5273635261087628e-01 -1.0775232735442815e+02 -1.0658475794291302e+04 +4.3887263307392620e+05 +3.3107676687807765e+07 
+9.8999999999999808e+00 -5.9245457933793999e-01 +8.1159319380753239e+00 +5.5837052692245992e-01 -1.0824297867309198e+02 -1.0788957843445482e+04 +4.4154497801120643e+05 +3.3764440896070696e+07 
+9.9999999999999805e+00 -5.9245482635283075e-01 +8.1159362482267632e+00 +5.6361135719955291e-01 -1.0877099542198319e+02 -1.0912079717219851e+04 +4.4434876532608690e+05 +3.4386313060328789e+07 
+1.0100000000000000e+01 -5.9245506431222994e-01 +8.1159424384674814e+00 +5.6842879014271086e-01 -1.0933789200405816e+02 -1.1027075339701041e+04 +4.4728996874853666e+05 +3.4969154365155987e+07 
