# multipoles
# s[mm] polynom_b[n=0][T/m^n] polynom_b[n=1][T/m^n] polynom_b[n=2][T/m^n] polynom_b[n=3][T/m^n] polynom_b[n=4][T/m^n] polynom_b[n=5][T/m^n] polynom_b[n=6][T/m^n] 
-0.0000000000000000e+00 -5.6566417174522654e-01 +7.7491077546142533e+00 +6.0906367552414992e-02 -4.7103728697318211e+01 +1.1405566635011980e+03 +1.8485702258018635e+04 -1.3234802011147143e+07 
-1.0000000000000001e-01 -5.6566433252362225e-01 +7.7491082809396898e+00 +6.1926419942757480e-02 -4.6790657011496279e+01 +1.0883201791679614e+03 +1.6256650955413696e+04 -1.2869519106102677e+07 
-2.0000000000000001e-01 -5.6566449728097989e-01 +7.7491074815259937e+00 +6.2811801891914043e-02 -4.6445522109933073e+01 +1.0395711844588964e+03 +1.3958791268870593e+04 -1.2523811160945037e+07 
-2.9999999999999999e-01 -5.6566466652359437e-01 +7.7491053632250635e+00 +6.3573361780590559e-02 -4.6070407458977030e+01 +9.9421510240449140e+02 +1.1600667813574049e+04 -1.2197636223822406e+07 
-4.0000000000000002e-01 -5.6566484075775381e-01 +7.7491019328868322e+00 +6.4221945316621690e-02 -4.5667396486974475e+01 +9.5215739965125374e+02 +9.1908250704689253e+03 -1.1890952531889351e+07 
-5.0000000000000000e-01 -5.6566502048965817e-01 +7.7490971973597293e+00 +6.4768398592649046e-02 -4.5238572575429373e+01 +9.1330352720495137e+02 +6.7378072796375336e+03 -1.1603718230537871e+07 
-5.9999999999999998e-01 -5.6566520622558059e-01 +7.7490911634909860e+00 +6.5223569630247669e-02 -4.4786019085746702e+01 +8.7755889760830951e+02 +4.2501586476349385e+03 -1.1335891280270310e+07 
-6.9999999999999996e-01 -5.6566539847185016e-01 +7.7490838381296836e+00 +6.5598303976420677e-02 -4.4311819448782110e+01 +8.4482896225223897e+02 +1.7364238777438727e+03 -1.1087429809295878e+07 
-8.0000000000000004e-01 -5.6566559773466107e-01 +7.7490752281183415e+00 +6.5903451429469920e-02 -4.3818056906418249e+01 +8.1501908904378990e+02 -7.9485337409131421e+02 -1.0858291544551918e+07 
-9.0000000000000002e-01 -5.6566580452026716e-01 +7.7490653403028009e+00 +6.6149856142392438e-02 -4.3306814811975329e+01 +7.8803474758333516e+02 -3.3351287035488681e+03 -1.0648434687406091e+07 
-1.0000000000000000e+00 -5.6566601933497163e-01 +7.7490541815243743e+00 +6.6348368709417349e-02 -4.2780176399503262e+01 +7.6378128274835092e+02 -5.8758583099460238e+03 -1.0457816843850488e+07 
-1.1000000000000001e+00 -5.6566624268494903e-01 +7.7490417586253209e+00 +6.6509834868490575e-02 -4.2240224939487206e+01 +7.4216412797309044e+02 -8.4084980920130274e+03 -1.0286396035731228e+07 
-1.2000000000000000e+00 -5.6566647507651302e-01 +7.7490280784392631e+00 +6.6645104322357290e-02 -4.1689043460615814e+01 +7.2308863885922801e+02 -1.0924505268214763e+04 -1.0134129913175095e+07 
-1.3000000000000000e+00 -5.6566671701584781e-01 +7.7490131478072559e+00 +6.6765025096346561e-02 -4.1128715224689977e+01 +7.0646020269785276e+02 -1.3415335579172066e+04 -1.0000976282148981e+07 
-1.3999999999999999e+00 -5.6566696900919800e-01 +7.7489969735589304e+00 +6.6880443218692284e-02 -4.0561323170323888e+01 +6.9218424035856788e+02 -1.5872446552731395e+04 -9.8868931016835738e+06 
-1.5000000000000000e+00 -5.6566723156286536e-01 +7.7489795625227309e+00 +6.7002212113105308e-02 -3.9988950214046639e+01 +6.8016603385338385e+02 -1.8287295730009959e+04 -9.7918376802670527e+06 
-1.6000000000000001e+00 -5.6566750518303055e-01 +7.7489609215290143e+00 +6.7141178044995295e-02 -3.9413679339532067e+01 +6.7031100102487267e+02 -2.0651340151912333e+04 -9.7157679789022263e+06 
-1.7000000000000000e+00 -5.6566779037590531e-01 +7.7489410573991657e+00 +6.7308191981759663e-02 -3.8837593285861104e+01 +6.6252446877413411e+02 -2.2956038151556142e+04 -9.6586415271729641e+06 
-1.8000000000000000e+00 -5.6566808764777787e-01 +7.7489199769532862e+00 +6.7514104176690057e-02 -3.8262774764089777e+01 +6.5671178081105222e+02 -2.5192848112968459e+04 -9.6204159490118939e+06 
-1.8999999999999999e+00 -5.6566839750479792e-01 +7.7488976870073873e+00 +6.7769763340520484e-02 -3.7691306384180265e+01 +6.5277830758303764e+02 -2.7353228867415484e+04 -9.6010489970430955e+06 
-2.0000000000000000e+00 -5.6566872045325545e-01 +7.7488741943746025e+00 +6.8086021558395465e-02 -3.7125270673067249e+01 +6.5062936185965941e+02 -2.9428639600703988e+04 -9.6004981693245992e+06 
-2.1000000000000001e+00 -5.6566905682062574e-01 +7.7488495187759447e+00 +6.8472053979045294e-02 -3.6566370764455733e+01 +6.5016171809478408e+02 -3.1413058937773792e+04 -9.6185297852219958e+06 
-2.2000000000000002e+00 -5.6566940625260753e-01 +7.7488237261863322e+00 +6.8930421839334094e-02 -3.6014801248970151e+01 +6.5123575729753122e+02 -3.3310554057933514e+04 -9.6541536060380209e+06 
-2.2999999999999998e+00 -5.6566976823229775e-01 +7.7487968928798932e+00 +6.9462057529892776e-02 -3.5470381627399320e+01 +6.5370228155920881e+02 -3.5127715158359213e+04 -9.7061924466257840e+06 
-2.3999999999999999e+00 -5.6567014224287815e-01 +7.7487690951370531e+00 +7.0067893906512260e-02 -3.4932931585046795e+01 +6.5741208389440328e+02 -3.6871131340730848e+04 -9.7734690765887666e+06 
-2.5000000000000000e+00 -5.6567052776741733e-01 +7.7487404092296623e+00 +7.0748859863385249e-02 -3.4402270567004138e+01 +6.6221603593729969e+02 -3.8547393067696255e+04 -9.8548066456617210e+06 
-2.6000000000000001e+00 -5.6567092428905930e-01 +7.7487109114319388e+00 +7.1505889738078393e-02 -3.3878218086373998e+01 +6.6796491227016770e+02 -4.0163090397074120e+04 -9.9490278569943309e+06 
-2.7000000000000002e+00 -5.6567133129090452e-01 +7.7486806780166422e+00 +7.2339912551892746e-02 -3.3360593608576181e+01 +6.7450958914951354e+02 -4.1724813679788786e+04 -1.0054955894858651e+07 
-2.7999999999999998e+00 -5.6567174825609523e-01 +7.7486497852590626e+00 +7.3251862173804555e-02 -3.2849216681990349e+01 +6.8170085436124873e+02 -4.3239152758495205e+04 -1.0171413528039042e+07 
-2.8999999999999999e+00 -5.6567217466772179e-01 +7.7486183094325538e+00 +7.4242665146008441e-02 -3.2343906787718751e+01 +6.8938964254048142e+02 -4.4712697908535927e+04 -1.0297224239248861e+07 
-3.0000000000000000e+00 -5.6567261000891966e-01 +7.7485863268124850e+00 +7.5313253676815781e-02 -3.1844483472692588e+01 +6.9742678281816836e+02 -4.6152039015257127e+04 -1.0431211009974454e+07 
-3.1000000000000001e+00 -5.6567305376279420e-01 +7.7485539136717057e+00 +7.6464555269266543e-02 -3.1350766197210604e+01 +7.0566320152216508e+02 -4.7563766523697028e+04 -1.0572197298425712e+07 
-3.2000000000000002e+00 -5.6567350541246997e-01 +7.7485211462850936e+00 +7.7697499595178576e-02 -3.0862574484212487e+01 +7.1394978493438725e+02 -4.8954470531552492e+04 -1.0719006367265718e+07 
-3.2999999999999998e+00 -5.6567396444107043e-01 +7.7484881009272781e+00 +7.9013014924110003e-02 -3.0379727846096195e+01 +7.2213745858749155e+02 -5.0330741232811568e+04 -1.0870461693194807e+07 
-3.3999999999999999e+00 -5.6567443033170739e-01 +7.7484548538779103e+00 +8.0412027531849575e-02 -2.9902045923824531e+01 +7.3007718827144970e+02 -5.1699168161942085e+04 -1.1025386940828057e+07 
-3.5000000000000000e+00 -5.6567490256751207e-01 +7.7484214814135157e+00 +8.1895465722633246e-02 -2.9429348272692675e+01 +7.3761990719360472e+02 -5.3066341379174832e+04 -1.1182605627759328e+07 
-3.6000000000000001e+00 -5.6567538063162248e-01 +7.7483880598109129e+00 +8.3464253306402975e-02 -2.8961454448411196e+01 +7.4461664577511431e+02 -5.4438851005782017e+04 -1.1340941755254406e+07 
-3.7000000000000002e+00 -5.6567586400710690e-01 +7.7483546653527435e+00 +8.5119315854148253e-02 -2.8498184156716579e+01 +7.5091840305641949e+02 -5.5823286398688775e+04 -1.1499219169947824e+07 
-3.7999999999999998e+00 -5.6567635217712697e-01 +7.7483213743203221e+00 +8.6861578227244052e-02 -2.8039357068237322e+01 +7.5637620450116322e+02 -5.7226237170803266e+04 -1.1656261867596598e+07 
-3.8999999999999999e+00 -5.6567684462481505e-01 +7.7482882629984537e+00 +8.8691961142216114e-02 -2.7584792935050164e+01 +7.6084115880922593e+02 -5.8654292572068778e+04 -1.1810894240247887e+07 
-4.0000000000000000e+00 -5.6567734083327670e-01 +7.7482554076730548e+00 +9.0611390699374073e-02 -2.7134311557036618e+01 +7.6416428182531058e+02 -6.0114041561231083e+04 -1.1961940243808672e+07 
-4.0999999999999996e+00 -5.6567784029482127e-01 +7.7482229062940533e+00 +9.2616365293710215e-02 -2.6688408087996816e+01 +7.6627627979882720e+02 -6.1607169671423057e+04 -1.2108588901582008e+07 
-4.2000000000000002e+00 -5.6567834254173432e-01 +7.7481909381846803e+00 +9.4687746764509292e-02 -2.6250070452359896e+01 +7.6739404044743992e+02 -6.3117323837605487e+04 -1.2251377587354999e+07 
-4.2999999999999998e+00 -5.6567884711708150e-01 +7.7481597017761210e+00 +9.6802938308942432e-02 -2.5822862774189471e+01 +7.6779887745298856e+02 -6.4623991174734620e+04 -1.2391155974039784e+07 
-4.4000000000000004e+00 -5.6567935356384114e-01 +7.7481293955053374e+00 +9.8939345633938663e-02 -2.5410349337838049e+01 +7.6777205809244845e+02 -6.6106657960007738e+04 -1.2528773518022401e+07 
-4.5000000000000000e+00 -5.6567986142512749e-01 +7.7481002178107907e+00 +1.0107437508180309e-01 -2.5016094440297010e+01 +7.6759484852447190e+02 -6.7544810570829868e+04 -1.2665079700664416e+07 
-4.5999999999999996e+00 -5.6568037024398077e-01 +7.7480723671377172e+00 +1.0318543801808483e-01 -2.4643662579294404e+01 +7.6754841518305147e+02 -6.8917934292885460e+04 -1.2800923519013699e+07 
-4.7000000000000002e+00 -5.6568087956359059e-01 +7.7480460419369077e+00 +1.0524994749250514e-01 -2.4296618383360862e+01 +7.6791390617380705e+02 -7.0205513825626316e+04 -1.2937153919978643e+07 
-4.7999999999999998e+00 -5.6568138892705477e-01 +7.7480214406656334e+00 +1.0724531910986984e-01 -2.3978526648682205e+01 +7.6897241946919848e+02 -7.1387033059134570e+04 -1.3074619611321660e+07 
-4.9000000000000004e+00 -5.6568189787762668e-01 +7.7479987617828563e+00 +1.0914897191850793e-01 -2.3692952204444556e+01 +7.7100499352563645e+02 -7.2441975828870563e+04 -1.3214169034031242e+07 
-5.0000000000000000e+00 -5.6568240595849262e-01 +7.7479782037588150e+00 +1.1093832918039052e-01 -2.3443460191030397e+01 +7.7429259368162934e+02 -7.3349824322051965e+04 -1.3356650303112185e+07 
-5.0999999999999996e+00 -5.6568291271297255e-01 +7.7479599650646902e+00 +1.1259081515842433e-01 -2.3233615750510445e+01 +7.7911617083749672e+02 -7.4090060894155351e+04 -1.3502911479025286e+07 
-5.2000000000000002e+00 -5.6568341768438257e-01 +7.7479442441808066e+00 +1.1408386279529537e-01 -2.3066984265558322e+01 +7.8575651452119087e+02 -7.4642166693045234e+04 -1.3653799866581401e+07 
-5.2999999999999998e+00 -5.6568392041606042e-01 +7.7479312395954345e+00 +1.1539490260777550e-01 -2.2947131329543485e+01 +7.9449446686840486e+02 -7.4985621816650935e+04 -1.3810163041763505e+07 
-5.4000000000000004e+00 -5.6568442045142331e-01 +7.7479211498022647e+00 +1.1650137342180238e-01 -2.2877622670721756e+01 +8.0561071464392728e+02 -7.5099905769893187e+04 -1.3972847850206655e+07 
-5.5000000000000000e+00 -5.6568491733388260e-01 +7.7479141733028420e+00 +1.1738071482037672e-01 -2.2862024218029134e+01 +8.1938593982055340e+02 -7.4964497101385510e+04 -1.4142701145200431e+07 
-5.5999999999999996e+00 -5.6568541060700506e-01 +7.7479105086053872e+00 +1.1801037385173729e-01 -2.2903902065317148e+01 +8.3610068350486347e+02 -7.4558873610963608e+04 -1.4320569114646768e+07 
-5.7000000000000002e+00 -5.6568589981429940e-01 +7.7479103542273595e+00 +1.1836779885833970e-01 -2.3006822553832041e+01 +8.5603546926671549e+02 -7.3862511866580084e+04 -1.4507297885816688e+07 
-5.7999999999999998e+00 -5.6568638449935227e-01 +7.7479139086950495e+00 +1.1843044253172155e-01 -2.3174352248054404e+01 +8.7947074407400862e+02 -7.2854887375834645e+04 -1.4703733242810359e+07 
-5.9000000000000004e+00 -5.6568686420584358e-01 +7.7479213705389007e+00 +1.1817576712950975e-01 -2.3410057805935068e+01 +9.0668677875727212e+02 -7.1515475324810570e+04 -1.4910720149924263e+07 
-5.9999999999999902e+00 -5.6568733847749575e-01 +7.7479329382890123e+00 +1.1758123526398676e-01 -2.3717506029705135e+01 +9.3796383749301594e+02 -6.9823750584861948e+04 -1.5129103592288636e+07 
-6.0999999999999899e+00 -5.6568780702552912e-01 +7.7479486996922038e+00 +1.1663251106437937e-01 -2.4098346603461117e+01 +9.7345411590026595e+02 -6.7769210819520435e+04 -1.5359233563782120e+07 
-6.1999999999999904e+00 -5.6568827012716871e-01 +7.7479683596147124e+00 +1.1534553233227206e-01 -2.4547591661560883e+01 +1.0128398122343257e+03 -6.5375793677427711e+04 -1.5599597743979815e+07 
-6.2999999999999901e+00 -5.6568872817899740e-01 +7.7479915401612116e+00 +1.1374319504925631e-01 -2.5058816899788802e+01 +1.0556956249471796e+03 -6.2674845492890148e+04 -1.5848248797826849e+07 
-6.3999999999999897e+00 -5.6568918157754633e-01 +7.7480178634397516e+00 +1.1184839140655263e-01 -2.5625598089678302e+01 +1.1015963107293385e+03 -5.9697712262304412e+04 -1.6103239632120332e+07 
-6.4999999999999902e+00 -5.6568963071930056e-01 +7.7480469515534498e+00 +1.0968401021877702e-01 -2.6241510824371439e+01 +1.1501166802052519e+03 -5.6475741162757251e+04 -1.6362623384296238e+07 
-6.5999999999999899e+00 -5.6569007600066346e-01 +7.7480784266057103e+00 +1.0727293295175239e-01 -2.6900130700293108e+01 +1.2008316679802338e+03 -5.3040279406498885e+04 -1.6624453741202425e+07 
-6.6999999999999904e+00 -5.6569051781803614e-01 +7.7481119107057159e+00 +1.0463804378838792e-01 -2.7595033435981868e+01 +1.2533161421669386e+03 -4.9422673668574113e+04 -1.6886784034783814e+07 
-6.7999999999999901e+00 -5.6569095656772661e-01 +7.7481470259493559e+00 +1.0180221480208136e-01 -2.8319794354277718e+01 +1.3071451865527745e+03 -4.5654272985355921e+04 -1.7147668587425243e+07 
-6.8999999999999897e+00 -5.6569139264592261e-01 +7.7481833944412157e+00 +9.8788316283668826e-02 -2.9067988998610534e+01 +1.3618939057120554e+03 -4.1766425247743595e+04 -1.7405161785823401e+07 
-6.9999999999999902e+00 -5.6569182644882687e-01 +7.7482206382806638e+00 +9.5619213833304517e-02 -2.9833192728723478e+01 +1.4171374727778450e+03 -3.7790479547812211e+04 -1.7657318290707700e+07 
-7.0999999999999899e+00 -5.6569225837253923e-01 +7.7482583795661810e+00 +9.2317766797962927e-02 -3.0608980860244117e+01 +1.4724511640741700e+03 -3.3757785315832822e+04 -1.7902193212530445e+07 
-7.1999999999999904e+00 -5.6569268881309664e-01 +7.7482962403942031e+00 +8.8906829961980266e-02 -3.1388928614102504e+01 +1.5274103277875870e+03 -2.9699692682353758e+04 -1.8137841967397977e+07 
-7.2999999999999901e+00 -5.6569311816647505e-01 +7.7483338428629516e+00 +8.5409251101478206e-02 -3.2166611244219787e+01 +1.5815904233430547e+03 -2.5647551674096085e+04 -1.8362320443091173e+07 
-7.3999999999999897e+00 -5.6569354682851258e-01 +7.7483708090615053e+00 +8.1847874594014408e-02 -3.2935603697376855e+01 +1.6345669595704373e+03 -2.1632714258689819e+04 -1.8573684723785724e+07 
-7.4999999999999902e+00 -5.6569397519502407e-01 +7.7484067610871783e+00 +7.8245532225419245e-02 -3.3689481139644393e+01 +1.6859156615425375e+03 -1.7686531226984960e+04 -1.8769991863763180e+07 
-7.5999999999999899e+00 -5.6569440366170931e-01 +7.7484413210261822e+00 +7.4625059444138622e-02 -3.4421818383434314e+01 +1.7352121662591924e+03 -1.3840355551226217e+04 -1.8949298450564165e+07 
-7.6999999999999904e+00 -5.6569483262420461e-01 +7.7484741109685125e+00 +7.1009277108581362e-02 -3.5126190315458587e+01 +1.7820323684134473e+03 -1.0125539908443085e+04 -1.9109662248211201e+07 
-7.7999999999999901e+00 -5.6569526247804480e-01 +7.7485047529987838e+00 +6.7421001429378083e-02 -3.5796171641930442e+01 +1.8259522286988379e+03 -6.5734381341858361e+03 -1.9249141277009457e+07 
-7.8999999999999897e+00 -5.6569569361872241e-01 +7.7485328692001447e+00 +6.3883044276175069e-02 -3.6425336988346707e+01 +1.8665477666451411e+03 -3.2154046783678100e+03 -1.9365793775753699e+07 
-7.9999999999999902e+00 -5.6569612644156431e-01 +7.7485580816755366e+00 +6.0418211000570786e-02 -3.7007260961570793e+01 +1.9033951508515881e+03 -8.2794767163281691e+01 -1.9457678732663251e+07 
-8.0999999999999908e+00 -5.6569656139134339e-01 +7.7485801270043764e+00 +5.7046523665187018e-02 -3.7537163973072495e+01 +1.9361747872250280e+03 +2.8002256295955226e+03 -1.9523487303595856e+07 
-8.1999999999999904e+00 -5.6569699908585913e-01 +7.7485991301028454e+00 +5.3774996959914230e-02 -3.8016028448414438e+01 +1.9649598236772010e+03 +5.4353289582278048e+03 -1.9564199865563717e+07 
-8.2999999999999901e+00 -5.6569744018069645e-01 +7.7486152982488745e+00 +5.0607146896225585e-02 -3.8446091502601647e+01 +1.9899151421109825e+03 +7.8299531729294204e+03 -1.9581315206076417e+07 
-8.3999999999999897e+00 -5.6569788533135223e-01 +7.7486288387216629e+00 +4.7546485794648249e-02 -3.8829590341098523e+01 +2.0112057101641130e+03 +9.9915371037328623e+03 -1.9576332547835238e+07 
-8.4999999999999893e+00 -5.6569833519348478e-01 +7.7486399587828672e+00 +4.4596529324693102e-02 -3.9168761717501710e+01 +2.0289964427976249e+03 +1.1927517342976129e+04 -1.9550750877234031e+07 
-8.5999999999999908e+00 -5.6569879042265114e-01 +7.7486488656902104e+00 +4.1760791442949620e-02 -3.9465842331834345e+01 +2.0434523007699127e+03 +1.3645330560411059e+04 -1.9506069417721801e+07 
-8.6999999999999904e+00 -5.6569925167457880e-01 +7.7486557666898435e+00 +3.9042789609237676e-02 -3.9723068613209314e+01 +2.0547381961866217e+03 +1.5152412263060760e+04 -1.9443787193604283e+07 
-8.7999999999999794e+00 -5.6569971960491805e-01 +7.7486608690213234e+00 +3.6446039570470670e-02 -3.9942676865792912e+01 +2.0630190815465794e+03 +1.6456197661508049e+04 -1.9365403425124709e+07 
-8.8999999999999808e+00 -5.6570019486936196e-01 +7.7486643799112809e+00 +3.3974058339966404e-02 -4.0126903077660614e+01 +2.0684599071531707e+03 +1.7564120542108391e+04 -1.9272417364660349e+07 
-8.9999999999999805e+00 -5.6570067812373159e-01 +7.7486665065773144e+00 +3.1630365067095899e-02 -4.0277983053216325e+01 +2.0712255934153168e+03 +1.8483614095038243e+04 -1.9166328132509120e+07 
-9.0999999999999801e+00 -5.6570117002378506e-01 +7.7486674562275990e+00 +2.9418477977649658e-02 -4.0398152384869050e+01 +2.0714810960195923e+03 +1.9222110715380328e+04 -1.9048635046687767e+07 
-9.1999999999999797e+00 -5.6570167122533654e-01 +7.7486674360582208e+00 +2.7341918120046552e-02 -4.0489646394224962e+01 +2.0693913343783720e+03 +1.9787041715593929e+04 -1.8920837280752178e+07 
-9.2999999999999794e+00 -5.6570218238428904e-01 +7.7486666532595363e+00 +2.5404203842394914e-02 -4.0554700314099698e+01 +2.0651212932440594e+03 +2.0185838389402994e+04 -1.8784434337788202e+07 
-9.3999999999999808e+00 -5.6570270415655521e-01 +7.7486653149992053e+00 +2.3608860560632439e-02 -4.0595548789520002e+01 +2.0588358440579746e+03 +2.0425929096085485e+04 -1.8640925218682699e+07 
-9.4999999999999805e+00 -5.6570323719802995e-01 +7.7486636284468897e+00 +2.1959407714028326e-02 -4.0614426604033511e+01 +2.0506999870120644e+03 +2.0514743516061932e+04 -1.8491809557240400e+07 
-9.5999999999999801e+00 -5.6570378216478401e-01 +7.7486618007514991e+00 +2.0459372146009583e-02 -4.0613568022169879e+01 +2.0408786000537143e+03 +2.0459708848182305e+04 -1.8338586436031546e+07 
-9.6999999999999797e+00 -5.6570433971278611e-01 +7.7486600390547578e+00 +1.9112277110807509e-02 -4.0595207186077303e+01 +2.0295366510861231e+03 +2.0268252129074808e+04 -1.8182755402495459e+07 
-9.7999999999999794e+00 -5.6570491049817917e-01 +7.7486585504812879e+00 +1.7921649722019577e-02 -4.0561577826377757e+01 +2.0168390495722667e+03 +1.9947798555065503e+04 -1.8025815744610988e+07 
-9.8999999999999808e+00 -5.6570549517706403e-01 +7.7486575421503163e+00 +1.6891017531349459e-02 -4.0514913602268535e+01 +2.0029507186009957e+03 +1.9505773467408166e+04 -1.7869266852272078e+07 
-9.9999999999999805e+00 -5.6570609440545250e-01 +7.7486572211754012e+00 +1.6023901724875347e-02 -4.0457448757515131e+01 +1.9880366030345656e+03 +1.8949608267548287e+04 -1.7714607871131483e+07 
-1.0100000000000000e+01 -5.6570670848550364e-01 +7.7486577548654996e+00 +1.5315410184122746e-02 -4.0391331037680281e+01 +1.9722971179035192e+03 +1.8288117473912615e+04 -1.7563168836456634e+07 
