# multipoles
# s[mm] polynom_b[n=0][T/m^n] polynom_b[n=1][T/m^n] polynom_b[n=2][T/m^n] polynom_b[n=3][T/m^n] polynom_b[n=4][T/m^n] polynom_b[n=5][T/m^n] polynom_b[n=6][T/m^n] 
-0.0000000000000000e+00 -5.6444066437140294e-01 +7.7313435326927049e+00 -7.7515177729391327e-01 -2.4873700282657900e+01 +9.0110487176883544e+03 -3.1436151399344508e+04 -4.9034508978076585e+07 
-1.0000000000000001e-01 -5.6444055904437473e-01 +7.7313253967672155e+00 -7.8635334491603248e-01 -2.4850383272414664e+01 +9.1802801676161725e+03 -3.1431330774978684e+04 -4.9703356117998704e+07 
-2.0000000000000001e-01 -5.6444045205949045e-01 +7.7313017848416630e+00 -7.9850599745434769e-01 -2.4690445957594488e+01 +9.3614172190468908e+03 -3.2220351203272501e+04 -5.0410783047491081e+07 
-2.9999999999999999e-01 -5.6444034435696977e-01 +7.7312730848403035e+00 -8.1153137063237368e-01 -2.4402032269639744e+01 +9.5535454267423429e+03 -3.3751720073893295e+04 -5.1154012562686168e+07 
-4.0000000000000002e-01 -5.6444023687707279e-01 +7.7312396846993074e+00 -8.2535109645865445e-01 -2.3993286455632749e+01 +9.7557502696391457e+03 -3.5973943094410781e+04 -5.1930267077296227e+07 
-5.0000000000000000e-01 -5.6444013055989084e-01 +7.7312019723554313e+00 -8.3988681743072491e-01 -2.3472352770593353e+01 +9.9671174233459369e+03 -3.8835526020623336e+04 -5.2736769927163899e+07 
-5.9999999999999998e-01 -5.6444002634560397e-01 +7.7311603357435201e+00 -8.5506017170544979e-01 -2.2847375399725355e+01 +1.0186732476635645e+04 -4.2284975099329313e+04 -5.3570744017412759e+07 
-6.9999999999999996e-01 -5.6443992517444486e-01 +7.7311151628122126e+00 -8.7079280110695889e-01 -2.2126498915591455e+01 +1.0413681083802325e+04 -4.6270794412278767e+04 -5.4429412548980571e+07 
-8.0000000000000004e-01 -5.6443982798645453e-01 +7.7310668414992083e+00 -8.8700635098142733e-01 -2.1317867574620514e+01 +1.0647048964026386e+04 -5.0741489906411145e+04 -5.5309999020987697e+07 
-9.0000000000000002e-01 -5.6443973572181749e-01 +7.7310157597512283e+00 -9.0362246178270378e-01 -2.0429625892890904e+01 +1.0885921735289445e+04 -5.5645566052905415e+04 -5.6209726427446693e+07 
-1.0000000000000000e+00 -5.6443964932067503e-01 +7.7309623055093368e+00 -9.2056278012091197e-01 -1.9469918227581317e+01 +1.1129385130730359e+04 -6.0931528237018152e+04 -5.7125818301628411e+07 
-1.1000000000000001e+00 -5.6443956972311726e-01 +7.7309068667167731e+00 -9.3774894830649802e-01 -1.8446889012567208e+01 +1.1376524794934390e+04 -6.6547881373748824e+04 -5.8055497736404568e+07 
-1.2000000000000000e+00 -5.6443949786933734e-01 +7.7308498313109393e+00 -9.5510261025190724e-01 -1.7368682509692029e+01 +1.1626426400145639e+04 -7.2443131375055775e+04 -5.8995987947586320e+07 
-1.3000000000000000e+00 -5.6443943469944013e-01 +7.7307915872250828e+00 -9.7254540646987342e-01 -1.6243442896479934e+01 +1.1878175542991159e+04 -7.8565784525342140e+04 -5.9944511762003884e+07 
-1.3999999999999999e+00 -5.6443938115359238e-01 +7.7307325223903343e+00 -9.8999898122383911e-01 -1.5079314299406716e+01 +1.2130857891203705e+04 -8.4864347354742829e+04 -6.0898292345530033e+07 
-1.5000000000000000e+00 -5.6443933817201986e-01 +7.7306730247318756e+00 -1.0073849711595486e+00 -1.3884440706353544e+01 +1.2383558956696379e+04 -9.1287327064524812e+04 -6.1854552095177256e+07 
-1.6000000000000001e+00 -5.6443930669488407e-01 +7.7306134821678469e+00 -1.0246250149651512e+00 -1.2666965921675850e+01 +1.2635364288688746e+04 -9.7783231825209426e+04 -6.2810513583639972e+07 
-1.7000000000000000e+00 -5.6443928766238272e-01 +7.7305542826110178e+00 -1.0416407463841619e+00 -1.1435033638403436e+01 +1.2885359329111332e+04 -1.0430057026845444e+05 -6.3763398841554426e+07 
-1.8000000000000000e+00 -5.6443928201481897e-01 +7.7304958139623343e+00 -1.0583537980747686e+00 -1.0196787239785353e+01 +1.3132629498553093e+04 -1.1078785267457334e+05 -6.4710429798867159e+07 
-1.8999999999999999e+00 -5.6443929069241439e-01 +7.7304384641144059e+00 -1.0746857983831966e+00 -8.9603699116650724e+00 +1.3376260123687596e+04 -1.1719359026613916e+05 -6.5648827915097229e+07 
-2.0000000000000000e+00 -5.6443931463552288e-01 +7.7303826209527546e+00 -1.0905583744495171e+00 -7.7339246904123167e+00 +1.3615336502087703e+04 -1.2346629495150506e+05 -6.6575814502547719e+07 
-2.1000000000000001e+00 -5.6443935466663731e-01 +7.7303286016538157e+00 -1.1058961617909950e+00 -6.5244618669328469e+00 +1.3848905856484953e+04 -1.2956287298943300e+05 -6.7488249604641974e+07 
-2.2000000000000002e+00 -5.6443941115086416e-01 +7.7302764510923421e+00 -1.1206355276186528e+00 -5.3345601207454028e+00 +1.4075879311998508e+04 -1.3547286503804423e+05 -6.8381624461111307e+07 
-2.2999999999999998e+00 -5.6443948434236302e-01 +7.7302261485824433e+00 -1.1347156862389896e+00 -4.1657144528309766e+00 +1.4295137469889622e+04 -1.4119374754536804e+05 -6.9251104884555668e+07 
-2.3999999999999999e+00 -5.6443957449538429e-01 +7.7301776734317196e+00 -1.1480758510934750e+00 -3.0194196841567686e+00 +1.4505560915721460e+04 -1.4672299788565596e+05 -7.0091856615060896e+07 
-2.5000000000000000e+00 -5.6443968186410209e-01 +7.7301310049345506e+00 -1.1606552345286367e+00 -1.8971702419870324e+00 +1.4706030216075085e+04 -1.5205809564041923e+05 -7.0899045308255717e+07 
-2.6000000000000001e+00 -5.6443980670273297e-01 +7.7300861223780313e+00 -1.1723930473054258e+00 -8.0046034011484801e-01 +1.4895425910364887e+04 -1.5719652152839699e+05 -7.1667836498249829e+07 
-2.7000000000000002e+00 -5.6443994926548591e-01 +7.7300430050421491e+00 -1.1832285011612154e+00 +2.6921601988588584e-01 +1.5072628563333805e+04 -1.6213575739795790e+05 -7.2393395860106498e+07 
-2.7999999999999998e+00 -5.6444010980658632e-01 +7.7300016321901035e+00 -1.1931008057023396e+00 +1.3103653415982344e+00 +1.5236518702513855e+04 -1.6687328795468545e+05 -7.3070888900592566e+07 
-2.8999999999999999e+00 -5.6444028858026674e-01 +7.7299619830796935e+00 -1.2019491694823066e+00 +2.3214942848593760e+00 +1.5385976839333154e+04 -1.7140659867982636e+05 -7.3695481060456365e+07 
-3.0000000000000000e+00 -5.6444048584076123e-01 +7.7299240369579296e+00 -1.2097128011099321e+00 +3.3011098482478802e+00 +1.5519883496417458e+04 -1.7573317695214864e+05 -7.4262337862422973e+07 
-3.1000000000000001e+00 -5.6444070184230322e-01 +7.7298877730518729e+00 -1.2163309091720946e+00 +4.2477196194417957e+00 +1.5637119200921985e+04 -1.7985051345142009e+05 -7.4766624863463596e+07 
-3.2000000000000002e+00 -5.6444093683912910e-01 +7.7298531705895526e+00 -1.2217427013441786e+00 +5.1598311809209783e+00 +1.5736564470552548e+04 -1.8375609874269829e+05 -7.5203507599049553e+07 
-3.2999999999999998e+00 -5.6444119108550073e-01 +7.7298202087741874e+00 -1.2258873825429333e+00 +6.0359528535851990e+00 +1.5817099779687152e+04 -1.8744742756016253e+05 -7.5568151421265885e+07 
-3.3999999999999999e+00 -5.6444146483566560e-01 +7.7297888668035322e+00 -1.2287041591214733e+00 +6.8745931410909034e+00 +1.5877605641150398e+04 -1.9092199560840530e+05 -7.5855721897417903e+07 
-3.5000000000000000e+00 -5.6444175834385646e-01 +7.7297591238593064e+00 -1.2301322388723341e+00 +7.6742610368213136e+00 +1.5916962600512776e+04 -1.9417730132062532e+05 -7.6061384763827935e+07 
-3.6000000000000001e+00 -5.6444207186437023e-01 +7.7297309591119641e+00 -1.2301108255817728e+00 +8.4334658955743595e+00 +1.5934051146548407e+04 -1.9721084514608339e+05 -7.6180305540691018e+07 
-3.7000000000000002e+00 -5.6444240565141579e-01 +7.7297043517120745e+00 -1.2285791225665330e+00 +9.1507176673535398e+00 +1.5927751762677584e+04 -2.0002013084826327e+05 -7.6207649731288493e+07 
-3.7999999999999998e+00 -5.6444275995925408e-01 +7.7296792808031798e+00 -1.2254763373825694e+00 +9.8245265494121785e+00 +1.5896945029930743e+04 -2.0260266355566366e+05 -7.6138583349695668e+07 
-3.8999999999999999e+00 -5.6444313504219101e-01 +7.7296557255088434e+00 -1.2207416718832333e+00 +1.0453403352147932e+01 +1.5840511435915154e+04 -2.0495595183841971e+05 -7.5968272006538987e+07 
-4.0000000000000000e+00 -5.6444353115441248e-01 +7.7296336649356947e+00 -1.2143143313512099e+00 +1.1035859388156920e+01 +1.5757331541855043e+04 -2.0707750669594647e+05 -7.5691881657146454e+07 
-4.0999999999999996e+00 -5.6444394814576460e-01 +7.7296130709321877e+00 -1.2061700227676466e+00 +1.1571105243932754e+01 +1.5646857302715878e+04 -2.0896790809610870e+05 -7.5306795477286726e+07 
-4.2000000000000002e+00 -5.6444438439482059e-01 +7.7295938934196160e+00 -1.1964171281052070e+00 +1.2060915894615576e+01 +1.5510603575175539e+04 -2.1063990022601499e+05 -7.4818393050524652e+07 
-4.2999999999999998e+00 -5.6444483794576883e-01 +7.7295760783399290e+00 -1.1851941859225725e+00 +1.2507655261557662e+01 +1.5350550863846036e+04 -2.1210922171806850e+05 -7.4233856061065286e+07 
-4.4000000000000004e+00 -5.6444530684262628e-01 +7.7295595716496894e+00 -1.1726397433761198e+00 +1.2913686886388536e+01 +1.5168679847317779e+04 -2.1339160932327024e+05 -7.3560367046756655e+07 
-4.5000000000000000e+00 -5.6444578912956656e-01 +7.7295443193285971e+00 -1.1588923418928863e+00 +1.3281373663133166e+01 +1.4966971098372329e+04 -2.1450279631928363e+05 -7.2805108046751022e+07 
-4.5999999999999996e+00 -5.6444628285057796e-01 +7.7295302673741171e+00 -1.1440905334060709e+00 +1.3613078012414626e+01 +1.4747405401209464e+04 -2.1545851358783816e+05 -7.1975262133815512e+07 
-4.7000000000000002e+00 -5.6444678604981036e-01 +7.7295173618029809e+00 -1.1283728636636305e+00 +1.3911161838574218e+01 +1.4511963425399939e+04 -2.1627448938255527e+05 -7.1078011839775220e+07 
-4.7999999999999998e+00 -5.6444729677125993e-01 +7.7295055486596986e+00 -1.1118778850452311e+00 +1.4177986270232868e+01 +1.4262625978769960e+04 -2.1696644780626602e+05 -7.0120540381715566e+07 
-4.9000000000000004e+00 -5.6444781305902370e-01 +7.7294947740132098e+00 -1.0947441513651650e+00 +1.4415911777026629e+01 +1.4001373901188132e+04 -2.1755010956346957e+05 -6.9110031139594719e+07 
-5.0000000000000000e+00 -5.6444833295710151e-01 +7.7294849839565059e+00 -1.0771102157437664e+00 +1.4627298161935942e+01 +1.3730188028525219e+04 -2.1804119187352125e+05 -6.8053667492819995e+07 
-5.0999999999999996e+00 -5.6444885450955107e-01 +7.7294761246126180e+00 -1.0591146387222088e+00 +1.4814504411018913e+01 +1.3451049345916075e+04 -2.1845540769370057e+05 -6.6958633548714235e+07 
-5.2000000000000002e+00 -5.6444937576035925e-01 +7.7294681421322817e+00 -1.0408959801358961e+00 +1.4979888748295178e+01 +1.3165938835198489e+04 -2.1880846600834953e+05 -6.5832113422094792e+07 
-5.2999999999999998e+00 -5.6444989475351082e-01 +7.7294609826975078e+00 -1.0225928040656078e+00 +1.5125808536409057e+01 +1.2876837563926971e+04 -2.1911607128318114e+05 -6.4681291642832853e+07 
-5.4000000000000004e+00 -5.6445040953300896e-01 +7.7294545925257969e+00 -1.0043436737149198e+00 +1.5254620158460861e+01 +1.2585726596444178e+04 -2.1939392281164959e+05 -6.3513352756204560e+07 
-5.5000000000000000e+00 -5.6445091814275750e-01 +7.7294489178622579e+00 -9.8628716155348972e-01 +1.5368679245884348e+01 +1.2294587178087952e+04 -2.1965771605137747e+05 -6.2335482176787741e+07 
-5.5999999999999996e+00 -5.6445141862676607e-01 +7.7294439049954509e+00 -9.6856183866659817e-01 +1.5470340224217347e+01 +1.2005400540668332e+04 -2.1992314001458828e+05 -6.1154865283479393e+07 
-5.7000000000000002e+00 -5.6445190902894882e-01 +7.7294395002417069e+00 -9.5130627848379601e-01 +1.5561956763525878e+01 +1.1720147969422489e+04 -2.2020587989377594e+05 -5.9978687726471111e+07 
-5.7999999999999998e+00 -5.6445238739319703e-01 +7.7294356499663346e+00 -9.3465906170527313e-01 +1.5645881168831110e+01 +1.1440810896365963e+04 -2.2052161355858223e+05 -5.8814135870823324e+07 
-5.9000000000000004e+00 -5.6445285176339410e-01 +7.7294323005632011e+00 -9.1875877096264769e-01 +1.5724464968461064e+01 +1.1169370800189572e+04 -2.2088601496667095e+05 -5.7668396325071186e+07 
-5.9999999999999902e+00 -5.6445330018348261e-01 +7.7294293984755766e+00 -9.0374398698579772e-01 +1.5800058430785800e+01 +1.0907809163316124e+04 -2.2131475195529830e+05 -5.6548655835578553e+07 
-6.0999999999999899e+00 -5.6445373140058452e-01 +7.7294269157561644e+00 -8.8971291811961928e-01 +1.5874122262498361e+01 +1.0657608334309383e+04 -2.2181756799127930e+05 -5.5460509995891415e+07 
-6.1999999999999904e+00 -5.6445414661297755e-01 +7.7294249231204679e+00 -8.7662274282659836e-01 +1.5944511143157694e+01 +1.0418512779804301e+04 -2.2237945947587260e+05 -5.4404061694786429e+07 
-6.2999999999999901e+00 -5.6445454755314983e-01 +7.7294235148534423e+00 -8.6439982240976088e-01 +1.6008181139984806e+01 +1.0189888816759674e+04 -2.2297911079586699e+05 -5.3378232194654591e+07 
-6.3999999999999897e+00 -5.6445493595360274e-01 +7.7294227852234130e+00 -8.5297051581619376e-01 +1.6062088641582868e+01 +9.9711027126845966e+03 -2.2359520757563133e+05 -5.2381942519835897e+07 
-6.4999999999999902e+00 -5.6445531354687417e-01 +7.7294228284748696e+00 -8.4226117751958918e-01 +1.6103190579750628e+01 +9.7615206487277464e+03 -2.2420643799421759e+05 -5.1414113291512273e+07 
-6.5999999999999899e+00 -5.6445568206550500e-01 +7.7294237388311808e+00 -8.3219816124891710e-01 +1.6128444313319303e+01 +9.5605087882697371e+03 -2.2479149199664971e+05 -5.0473665047277875e+07 
-6.6999999999999904e+00 -5.6445604324209475e-01 +7.7294256104914432e+00 -8.2270781294476714e-01 +1.6134807746871559e+01 +9.3674331424044049e+03 -2.2532906204252967e+05 -4.9559517600611068e+07 
-6.7999999999999901e+00 -5.6445639880931908e-01 +7.7294285376312546e+00 -8.1371647279218307e-01 +1.6119239277696948e+01 +9.1816596133725980e+03 -2.2579784270623352e+05 -4.8670590261317216e+07 
-6.8999999999999897e+00 -5.6445675049975363e-01 +7.7294326144006646e+00 -8.0515048224317798e-01 +1.6078697851563668e+01 +9.0025541187158160e+03 -2.2617653097938423e+05 -4.7805802398858763e+07 
-6.9999999999999902e+00 -5.6445710004614791e-01 +7.7294379349210116e+00 -7.9693617139144979e-01 +1.6010143056109928e+01 +8.8294823597969371e+03 -2.2644382681171017e+05 -4.6964072368349679e+07 
-7.0999999999999899e+00 -5.6445744918122753e-01 +7.7294445932897169e+00 -7.8899986927627608e-01 +1.5910534964746240e+01 +8.6618100112163083e+03 -2.2657843213663858e+05 -4.6144318392693192e+07 
-7.1999999999999904e+00 -5.6445779963774934e-01 +7.7294526835695141e+00 -7.8126790075009689e-01 +1.5776834456832196e+01 +8.4989026630992976e+03 -2.2655905274936947e+05 -4.5345458292668551e+07 
-7.2999999999999901e+00 -5.6445815314856007e-01 +7.7294622997983726e+00 -7.7366658268269406e-01 +1.5606002900907173e+01 +8.3401257511772928e+03 -2.2636439637532600e+05 -4.4566409163066201e+07 
-7.3999999999999897e+00 -5.6445851144645987e-01 +7.7294735359808415e+00 -7.6612222672172292e-01 +1.5395002430690580e+01 +8.1848446043914219e+03 -2.2597317433096122e+05 -4.3806087583503187e+07 
-7.4999999999999902e+00 -5.6445887626438707e-01 +7.7294864860903116e+00 -7.5856114064136937e-01 +1.5140795827553115e+01 +8.0324244723096890e+03 -2.2536410068014581e+05 -4.3063409758121148e+07 
-7.5999999999999899e+00 -5.6445924933522573e-01 +7.7295012440649975e+00 -7.5090962499485692e-01 +1.4840346679796916e+01 +7.8822304631323423e+03 -2.2451589328403669e+05 -4.2337291220595084e+07 
-7.6999999999999904e+00 -5.6445963239197772e-01 +7.7295179038104989e+00 -7.4309397504781205e-01 +1.4490619267831335e+01 +7.7336275763049298e+03 -2.2340727299135900e+05 -4.1626646983765379e+07 
-7.7999999999999901e+00 -5.6446002716767152e-01 +7.7295365591953207e+00 -7.3504047927193505e-01 +1.4088578693247991e+01 +7.5859806771269350e+03 -2.2201696438259498e+05 -4.0930391423648424e+07 
-7.8999999999999897e+00 -5.6446043539539148e-01 +7.7295573040533005e+00 -7.2667542166924803e-01 +1.3631190814200332e+01 +7.4386545368787129e+03 -2.2032369541009871e+05 -4.0247438462608486e+07 
-7.9999999999999902e+00 -5.6446085880814889e-01 +7.7295802321789129e+00 -7.1792508225203455e-01 +1.3115422052644117e+01 +7.2910137826082109e+03 -2.1830619602850228e+05 -3.9576701212454438e+07 
-8.0999999999999908e+00 -5.6446129866710082e-01 +7.7296053798702760e+00 -7.0874045334440716e-01 +1.2539900501698213e+01 +7.1426283377420732e+03 -2.1595274181638565e+05 -3.8917471204652429e+07 
-8.1999999999999904e+00 -5.6446175465647386e-01 +7.7296325765199780e+00 -6.9915405496020155e-01 +1.1909592289805264e+01 +6.9937181772047688e+03 -2.1328838768682344e+05 -3.8270084079783328e+07 
-8.2999999999999901e+00 -5.6446222613107144e-01 +7.7296616050878990e+00 -6.8921520587000151e-01 +1.1230958110331908e+01 +6.8446302307486576e+03 -2.1034693542103519e+05 -3.7635038767960899e+07 
-8.3999999999999897e+00 -5.6446271244558577e-01 +7.7296922485460842e+00 -6.7897322761187806e-01 +1.0510458497644288e+01 +6.6957114602412557e+03 -2.0716218646026315e+05 -3.7012834279498763e+07 
-8.4999999999999893e+00 -5.6446321295474278e-01 +7.7297242898858300e+00 -6.6847745109990198e-01 +9.7545536234733312e+00 +6.5473089837697398e+03 -2.0376794072866265e+05 -3.6403970288868010e+07 
-8.5999999999999908e+00 -5.6446372701315528e-01 +7.7297575121202220e+00 -6.5777720655040228e-01 +8.9697032276454713e+00 +6.3997698814865789e+03 -2.0019799625367692e+05 -3.5808946204138547e+07 
-8.6999999999999904e+00 -5.6446425397544231e-01 +7.7297916982787997e+00 -6.4692183690471017e-01 +8.1623667822310129e+00 +6.2534414516090865e+03 -1.9648615013951424e+05 -3.5228262385482743e+07 
-8.7999999999999794e+00 -5.6446479319613363e-01 +7.7298266314118331e+00 -6.3596068505795855e-01 +7.3390033790709044e+00 +6.1086709673262485e+03 -1.9266619795497117e+05 -3.4662418988664076e+07 
-8.8999999999999808e+00 -5.6446534402967929e-01 +7.7298620945923604e+00 -6.2494310288872235e-01 +6.5060716747362468e+00 +5.9658058457667803e+03 -1.8877193341950726e+05 -3.4111916760314286e+07 
-8.9999999999999805e+00 -5.6446590583057177e-01 +7.7298978709108006e+00 -6.1391844752888824e-01 +5.6700300401326427e+00 +5.8251935811927715e+03 -1.8483714926143715e+05 -3.3577256729004435e+07 
-9.0999999999999801e+00 -5.6446647795316807e-01 +7.7299337434855131e+00 -6.0293608119457487e-01 +4.8373362931990576e+00 +5.6871817338101810e+03 -1.8089563578048075e+05 -3.3058940132195447e+07 
-9.1999999999999797e+00 -5.6446705975175560e-01 +7.7299694954524423e+00 -5.9204537403214730e-01 +4.0144479793746237e+00 +5.5521179888727766e+03 -1.7698118241120139e+05 -3.2557468710317027e+07 
-9.2999999999999794e+00 -5.6446765058065351e-01 +7.7300049099730375e+00 -5.8129570222908566e-01 +3.2078221595489094e+00 +5.4203501177979670e+03 -1.7312757655255942e+05 -3.2073344510523342e+07 
-9.3999999999999808e+00 -5.6446824979403953e-01 +7.7300397702370667e+00 -5.7073644832563653e-01 +2.4239153308544004e+00 +5.2922259839057651e+03 -1.6936860311525737e+05 -3.1607069914705023e+07 
-9.4999999999999805e+00 -5.6446885674601432e-01 +7.7300738594530465e+00 -5.6041700374597792e-01 +1.6691837122097006e+00 +5.1680935911669194e+03 -1.6573804620179749e+05 -3.1159147872851875e+07 
-9.5999999999999801e+00 -5.6446947079071608e-01 +7.7301069608565536e+00 -5.5038676452357083e-01 +9.5008302584348214e-01 +5.0483009978645969e+03 -1.6226968790603738e+05 -3.0730081477032803e+07 
-9.6999999999999797e+00 -5.6447009128209324e-01 +7.7301388577130874e+00 -5.4069513617143472e-01 +2.7306839538632771e-01 +4.9331964152795535e+03 -1.5899730766608292e+05 -3.0320374447030138e+07 
-9.7999999999999794e+00 -5.6447071757415201e-01 +7.7301693333080470e+00 -5.3139152956557179e-01 -3.5540533812597541e-01 +4.8231281204777360e+03 -1.5595468418059501e+05 -2.9930530689902354e+07 
-9.8999999999999808e+00 -5.6447134902073492e-01 +7.7301981709619749e+00 -5.2252536500188185e-01 -9.2888405310177169e-01 +4.7184445414518768e+03 -1.5317559288086928e+05 -2.9561054727897048e+07 
-9.9999999999999805e+00 -5.6447198497559858e-01 +7.7302251540352316e+00 -5.1414606883070679e-01 -1.4409142224622857e+00 +4.6194941915068530e+03 -1.5069380677276308e+05 -2.9212451365893006e+07 
-1.0100000000000000e+01 -5.6447262470686954e-01 +7.7302500884600631e+00 -5.0630091234835695e-01 -1.8861597235708860e+00 +4.5266592051307434e+03 -1.4853688036683397e+05 -2.8885519441155169e+07 
