# trajectory
# s[mm] rx[mm] ry[mm] rz[mm] px[rad] py[rad] pz[rad]
0.0000000000000000e+00 +5.4440000000000000e+00 +0.0000000000000000e+00 +0.0000000000000000e+00 +0.0000000000000000e+00 +0.0000000000000000e+00 +1.0000000000000000e+00
1.0000000000000001e-01 +5.4439997170336820e+00 +0.0000000000000000e+00 +9.9999999999466210e-02 -5.6593263536093550e-06 +0.0000000000000000e+00 +9.9999999998398603e-01
2.0000000000000001e-01 +5.4439988681347273e+00 +0.0000000000000000e+00 +1.9999999999572959e-01 -1.1318652750389081e-05 +0.0000000000000000e+00 +9.9999999993594402e-01
3.0000000000000004e-01 +5.4439974533031288e+00 +0.0000000000000000e+00 +2.9999999998558741e-01 -1.6977979233700163e-05 +0.0000000000000000e+00 +9.9999999985587407e-01
4.0000000000000002e-01 +5.4439954725388757e+00 +0.0000000000000000e+00 +3.9999999996583679e-01 -2.2637305847111529e-05 +0.0000000000000000e+00 +9.9999999974377618e-01
5.0000000000000000e-01 +5.4439929258419530e+00 +0.0000000000000000e+00 +4.9999999993327504e-01 -2.8296632634400054e-05 +0.0000000000000000e+00 +9.9999999959965025e-01
5.9999999999999998e-01 +5.4439898132123412e+00 +0.0000000000000000e+00 +5.9999999988469932e-01 -3.3955959639550552e-05 +0.0000000000000000e+00 +9.9999999942349638e-01
6.9999999999999996e-01 +5.4439861346500162e+00 +0.0000000000000000e+00 +6.9999999981690675e-01 -3.9615286906755765e-05 +0.0000000000000000e+00 +9.9999999921531446e-01
7.9999999999999993e-01 +5.4439818901549497e+00 +0.0000000000000000e+00 +7.9999999972669456e-01 -4.5274614480416352e-05 +0.0000000000000000e+00 +9.9999999897510461e-01
8.9999999999999991e-01 +5.4439770797271088e+00 +0.0000000000000000e+00 +8.9999999961086008e-01 -5.0933942405140872e-05 +0.0000000000000000e+00 +9.9999999870286671e-01
9.9999999999999989e-01 +5.4439717033664561e+00 +0.0000000000000000e+00 +9.9999999946620033e-01 -5.6593270725745775e-05 +0.0000000000000000e+00 +9.9999999839860076e-01
1.0999999999999999e+00 +5.4439657610729491e+00 +0.0000000000000000e+00 +1.0999999992895126e+00 -6.2252599487239662e-05 +0.0000000000000000e+00 +9.9999999806230688e-01
1.2000000000000000e+00 +5.4439592528465424e+00 +0.0000000000000000e+00 +1.1999999990775940e+00 -6.7911928734650499e-05 +0.0000000000000000e+00 +9.9999999769398495e-01
1.3000000000000000e+00 +5.4439521786871845e+00 +0.0000000000000000e+00 +1.2999999988272419e+00 -7.3571258512852879e-05 +0.0000000000000000e+00 +9.9999999729363498e-01
1.4000000000000001e+00 +5.4439445385948204e+00 +0.0000000000000000e+00 +1.3999999985352534e+00 -7.9230588866552334e-05 +0.0000000000000000e+00 +9.9999999686125696e-01
1.5000000000000002e+00 +5.4439363325693906e+00 +0.0000000000000000e+00 +1.4999999981984256e+00 -8.4889919840285368e-05 +0.0000000000000000e+00 +9.9999999639685078e-01
1.6000000000000003e+00 +5.4439275606108302e+00 +0.0000000000000000e+00 +1.5999999978135557e+00 -9.0549251478419486e-05 +0.0000000000000000e+00 +9.9999999590041655e-01
1.7000000000000004e+00 +5.4439182227190708e+00 +0.0000000000000000e+00 +1.6999999973774411e+00 -9.6208583825153232e-05 +0.0000000000000000e+00 +9.9999999537195416e-01
1.8000000000000005e+00 +5.4439083188940396e+00 +0.0000000000000000e+00 +1.7999999968868790e+00 -1.0186791692451626e-04 +0.0000000000000000e+00 +9.9999999481146373e-01
1.9000000000000006e+00 +5.4438978491356593e+00 +0.0000000000000000e+00 +1.8999999963386662e+00 -1.0752725082036939e-04 +0.0000000000000000e+00 +9.9999999421894514e-01
2.0000000000000004e+00 +5.4438868134438474e+00 +0.0000000000000000e+00 +1.9999999957296004e+00 -1.1318658555640466e-04 +0.0000000000000000e+00 +9.9999999359439840e-01
2.1000000000000005e+00 +5.4438752118185185e+00 +0.0000000000000000e+00 +2.0999999950564785e+00 -1.1884592117613413e-04 +0.0000000000000000e+00 +9.9999999293782349e-01
2.2000000000000006e+00 +5.4438630442595812e+00 +0.0000000000000000e+00 +2.1999999943160975e+00 -1.2450525772276586e-04 +0.0000000000000000e+00 +9.9999999224922043e-01
2.3000000000000007e+00 +5.4438503107669414e+00 +0.0000000000000000e+00 +2.2999999935052551e+00 -1.3016459523907976e-04 +0.0000000000000000e+00 +9.9999999152858909e-01
2.4000000000000008e+00 +5.4438370113404995e+00 +0.0000000000000000e+00 +2.3999999926207480e+00 -1.3582393376741623e-04 +0.0000000000000000e+00 +9.9999999077592949e-01
2.5000000000000009e+00 +5.4438231459801525e+00 +0.0000000000000000e+00 +2.4999999916593736e+00 -1.4148327334967596e-04 +0.0000000000000000e+00 +9.9999998999124162e-01
2.6000000000000010e+00 +5.4438087146857930e+00 +0.0000000000000000e+00 +2.5999999906179290e+00 -1.4714261402731983e-04 +0.0000000000000000e+00 +9.9999998917452548e-01
2.7000000000000011e+00 +5.4437937174573090e+00 +0.0000000000000000e+00 +2.6999999894932114e+00 -1.5280195584136869e-04 +0.0000000000000000e+00 +9.9999998832578108e-01
2.8000000000000012e+00 +5.4437781542945851e+00 +0.0000000000000000e+00 +2.7999999882820177e+00 -1.5846129883240317e-04 +0.0000000000000000e+00 +9.9999998744500829e-01
2.9000000000000012e+00 +5.4437620251975014e+00 +0.0000000000000000e+00 +2.8999999869811455e+00 -1.6412064304056353e-04 +0.0000000000000000e+00 +9.9999998653220712e-01
3.0000000000000013e+00 +5.4437453301659344e+00 +0.0000000000000000e+00 +2.9999999855873916e+00 -1.6977998850554934e-04 +0.0000000000000000e+00 +9.9999998558737757e-01
3.1000000000000014e+00 +5.4437280691997572e+00 +0.0000000000000000e+00 +3.0999999840975532e+00 -1.7543933526665631e-04 +0.0000000000000000e+00 +9.9999998461051964e-01
3.2000000000000015e+00 +5.4437102422988373e+00 +0.0000000000000000e+00 +3.1999999825084275e+00 -1.8109868336318278e-04 +0.0000000000000000e+00 +9.9999998360163322e-01
3.3000000000000016e+00 +5.4436918494630389e+00 +0.0000000000000000e+00 +3.2999999808168119e+00 -1.8675803283483661e-04 +0.0000000000000000e+00 +9.9999998256071831e-01
3.4000000000000017e+00 +5.4436728906922234e+00 +0.0000000000000000e+00 +3.3999999790195035e+00 -1.9241738372177249e-04 +0.0000000000000000e+00 +9.9999998148777491e-01
3.5000000000000018e+00 +5.4436533659862461e+00 +0.0000000000000000e+00 +3.4999999771132995e+00 -1.9807673606459233e-04 +0.0000000000000000e+00 +9.9999998038280302e-01
3.6000000000000019e+00 +5.4436332753449603e+00 +0.0000000000000000e+00 +3.5999999750949967e+00 -2.0373608990434559e-04 +0.0000000000000000e+00 +9.9999997924580253e-01
3.7000000000000020e+00 +5.4436126187682143e+00 +0.0000000000000000e+00 +3.6999999729613924e+00 -2.0939544528252987e-04 +0.0000000000000000e+00 +9.9999997807677343e-01
3.8000000000000020e+00 +5.4435913962558518e+00 +0.0000000000000000e+00 +3.7999999707092837e+00 -2.1505480224109122e-04 +0.0000000000000000e+00 +9.9999997687571562e-01
3.9000000000000021e+00 +5.4435696078077127e+00 +0.0000000000000000e+00 +3.8999999683354680e+00 -2.2071416082242471e-04 +0.0000000000000000e+00 +9.9999997564262921e-01
4.0000000000000018e+00 +5.4435472534236320e+00 +0.0000000000000000e+00 +3.9999999658367420e+00 -2.2637352106937502e-04 +0.0000000000000000e+00 +9.9999997437751409e-01
4.1000000000000014e+00 +5.4435243331034417e+00 +0.0000000000000000e+00 +4.0999999632099033e+00 -2.3203288302523951e-04 +0.0000000000000000e+00 +9.9999997308037014e-01
4.2000000000000011e+00 +5.4435008468469688e+00 +0.0000000000000000e+00 +4.1999999604517484e+00 -2.3769224673379812e-04 +0.0000000000000000e+00 +9.9999997175119748e-01
4.3000000000000007e+00 +5.4434767946540354e+00 +0.0000000000000000e+00 +4.2999999575590753e+00 -2.4335161223934244e-04 +0.0000000000000000e+00 +9.9999997038999588e-01
4.4000000000000004e+00 +5.4434521765244597e+00 +0.0000000000000000e+00 +4.3999999545286803e+00 -2.4901097958667803e-04 +0.0000000000000000e+00 +9.9999996899676546e-01
4.5000000000000000e+00 +5.4434269924580549e+00 +0.0000000000000000e+00 +4.4999999513573608e+00 -2.5467034882112387e-04 +0.0000000000000000e+00 +9.9999996757150611e-01
4.5999999999999996e+00 +5.4434012424546312e+00 +0.0000000000000000e+00 +4.5999999480419138e+00 -2.6032971998851191e-04 +0.0000000000000000e+00 +9.9999996611421782e-01
4.6999999999999993e+00 +5.4433749265139921e+00 +0.0000000000000000e+00 +4.6999999445791367e+00 -2.6598909313518647e-04 +0.0000000000000000e+00 +9.9999996462490048e-01
4.7999999999999989e+00 +5.4433480446359370e+00 +0.0000000000000000e+00 +4.7999999409658267e+00 -2.7164846830800369e-04 +0.0000000000000000e+00 +9.9999996310355410e-01
4.8999999999999986e+00 +5.4433205968202616e+00 +0.0000000000000000e+00 +4.8999999371987801e+00 -2.7730784555433089e-04 +0.0000000000000000e+00 +9.9999996155017856e-01
4.9999999999999982e+00 +5.4432925830667553e+00 +0.0000000000000000e+00 +4.9999999332747951e+00 -2.8296722492204607e-04 +0.0000000000000000e+00 +9.9999995996477387e-01
5.0999999999999979e+00 +5.4432640033752042e+00 +0.0000000000000000e+00 +5.0999999291906679e+00 -2.8862660645949926e-04 +0.0000000000000000e+00 +9.9999995834734001e-01
5.1999999999999975e+00 +5.4432348577453888e+00 +0.0000000000000000e+00 +5.1999999249431959e+00 -2.9428599021509783e-04 +0.0000000000000000e+00 +9.9999995669787689e-01
5.2999999999999972e+00 +5.4432051461770854e+00 +0.0000000000000000e+00 +5.2999999205291761e+00 -2.9994537623689171e-04 +0.0000000000000000e+00 +9.9999995501638450e-01
5.3999999999999968e+00 +5.4431748686700647e+00 +0.0000000000000000e+00 +5.3999999159454051e+00 -3.0560476457253621e-04 +0.0000000000000000e+00 +9.9999995330286273e-01
5.4999999999999964e+00 +5.4431440252240924e+00 +0.0000000000000000e+00 +5.4999999111886808e+00 -3.1126415526929217e-04 +0.0000000000000000e+00 +9.9999995155731158e-01
5.5999999999999961e+00 +5.4431126158389302e+00 +0.0000000000000000e+00 +5.5999999062557997e+00 -3.1692354837402646e-04 +0.0000000000000000e+00 +9.9999994977973095e-01
5.6999999999999957e+00 +5.4430806405143359e+00 +0.0000000000000000e+00 +5.6999999011435589e+00 -3.2258294393321232e-04 +0.0000000000000000e+00 +9.9999994797012071e-01
5.7999999999999954e+00 +5.4430480992500607e+00 +0.0000000000000000e+00 +5.7999998958487557e+00 -3.2824234199292965e-04 +0.0000000000000000e+00 +9.9999994612848098e-01
5.8999999999999950e+00 +5.4430149920458524e+00 +0.0000000000000000e+00 +5.8999998903681874e+00 -3.3390174259886548e-04 +0.0000000000000000e+00 +9.9999994425481153e-01
5.9999999999999947e+00 +5.4429813189014542e+00 +0.0000000000000000e+00 +5.9999998846986502e+00 -3.3956114579631447e-04 +0.0000000000000000e+00 +9.9999994234911238e-01
6.0999999999999943e+00 +5.4429470798166051e+00 +0.0000000000000000e+00 +6.0999998788369423e+00 -3.4522055163016584e-04 +0.0000000000000000e+00 +9.9999994041138351e-01
6.1999999999999940e+00 +5.4429122747910386e+00 +0.0000000000000000e+00 +6.1999998727798600e+00 -3.5087996014475679e-04 +0.0000000000000000e+00 +9.9999993844162482e-01
6.2999999999999936e+00 +5.4428769038244846e+00 +0.0000000000000000e+00 +6.2999998665241996e+00 -3.5653937138372511e-04 +0.0000000000000000e+00 +9.9999993643983620e-01
6.3999999999999932e+00 +5.4428409669166689e+00 +0.0000000000000000e+00 +6.3999998600667594e+00 -3.6219878538999560e-04 +0.0000000000000000e+00 +9.9999993440601764e-01
6.4999999999999929e+00 +5.4428044640673123e+00 +0.0000000000000000e+00 +6.4999998534043355e+00 -3.6785820220577956e-04 +0.0000000000000000e+00 +9.9999993234016915e-01
6.5999999999999925e+00 +5.4427673952761326e+00 +0.0000000000000000e+00 +6.5999998465337253e+00 -3.7351762187257445e-04 +0.0000000000000000e+00 +9.9999993024229050e-01
6.6999999999999922e+00 +5.4427297605428420e+00 +0.0000000000000000e+00 +6.6999998394517259e+00 -3.7917704443116336e-04 +0.0000000000000000e+00 +9.9999992811238181e-01
6.7999999999999918e+00 +5.4426915598671490e+00 +0.0000000000000000e+00 +6.7999998321551338e+00 -3.8483646992161459e-04 +0.0000000000000000e+00 +9.9999992595044285e-01
6.8999999999999915e+00 +5.4426527932487589e+00 +0.0000000000000000e+00 +6.8999998246407461e+00 -3.9049589838328116e-04 +0.0000000000000000e+00 +9.9999992375647362e-01
6.9999999999999911e+00 +5.4426134606873724e+00 +0.0000000000000000e+00 +6.9999998169053601e+00 -3.9615532985480030e-04 +0.0000000000000000e+00 +9.9999992153047412e-01
7.0999999999999908e+00 +5.4425735621826865e+00 +0.0000000000000000e+00 +7.0999998089457730e+00 -4.0181476437415573e-04 +0.0000000000000000e+00 +9.9999991927244425e-01
7.1999999999999904e+00 +5.4425330977343949e+00 +0.0000000000000000e+00 +7.1999998007587811e+00 -4.0747420197936738e-04 +0.0000000000000000e+00 +9.9999991698238389e-01
7.2999999999999901e+00 +5.4424920673421866e+00 +0.0000000000000000e+00 +7.2999997923411817e+00 -4.1313364270918203e-04 +0.0000000000000000e+00 +9.9999991466029292e-01
7.3999999999999897e+00 +5.4424504710057473e+00 +0.0000000000000000e+00 +7.3999997836897720e+00 -4.1879308660313692e-04 +0.0000000000000000e+00 +9.9999991230617136e-01
7.4999999999999893e+00 +5.4424083087247590e+00 +0.0000000000000000e+00 +7.4999997748013483e+00 -4.2445253370156067e-04 +0.0000000000000000e+00 +9.9999990992001919e-01
7.5999999999999890e+00 +5.4423655804988993e+00 +0.0000000000000000e+00 +7.5999997656727079e+00 -4.3011198404557441e-04 +0.0000000000000000e+00 +9.9999990750183620e-01
7.6999999999999886e+00 +5.4423222863278404e+00 +0.0000000000000000e+00 +7.6999997563006479e+00 -4.3577143767709270e-04 +0.0000000000000000e+00 +9.9999990505162240e-01
7.7999999999999883e+00 +5.4422784262112529e+00 +0.0000000000000000e+00 +7.7999997466819648e+00 -4.4143089463882464e-04 +0.0000000000000000e+00 +9.9999990256937776e-01
7.8999999999999879e+00 +5.4422340001488010e+00 +0.0000000000000000e+00 +7.8999997368134558e+00 -4.4709035497427505e-04 +0.0000000000000000e+00 +9.9999990005510209e-01
7.9999999999999876e+00 +5.4421890081401445e+00 +0.0000000000000000e+00 +7.9999997266919172e+00 -4.5274981872774539e-04 +0.0000000000000000e+00 +9.9999989750879537e-01
8.0999999999999872e+00 +5.4421434501849397e+00 +0.0000000000000000e+00 +8.0999997163141462e+00 -4.5840928594428947e-04 +0.0000000000000000e+00 +9.9999989493045760e-01
8.1999999999999869e+00 +5.4420973262828385e+00 +0.0000000000000000e+00 +8.1999997056769409e+00 -4.6406875666921192e-04 +0.0000000000000000e+00 +9.9999989232008857e-01
8.2999999999999865e+00 +5.4420506364334873e+00 +0.0000000000000000e+00 +8.2999996947770960e+00 -4.6972823094756537e-04 +0.0000000000000000e+00 +9.9999988967768827e-01
8.3999999999999861e+00 +5.4420033806365291e+00 +0.0000000000000000e+00 +8.3999996836114104e+00 -4.7538770882410311e-04 +0.0000000000000000e+00 +9.9999988700325659e-01
8.4999999999999858e+00 +5.4419555588916015e+00 +0.0000000000000000e+00 +8.4999996721766795e+00 -4.8104719034327767e-04 +0.0000000000000000e+00 +9.9999988429679343e-01
8.5999999999999854e+00 +5.4419071711983378e+00 +0.0000000000000000e+00 +8.5999996604697007e+00 -4.8670667554923911e-04 +0.0000000000000000e+00 +9.9999988155829878e-01
8.6999999999999851e+00 +5.4418582175563674e+00 +0.0000000000000000e+00 +8.6999996484872710e+00 -4.9236616448583342e-04 +0.0000000000000000e+00 +9.9999987878777252e-01
8.7999999999999847e+00 +5.4418086979653149e+00 +0.0000000000000000e+00 +8.7999996362261879e+00 -4.9802565719660088e-04 +0.0000000000000000e+00 +9.9999987598521456e-01
8.8999999999999844e+00 +5.4417586124248007e+00 +0.0000000000000000e+00 +8.8999996236832466e+00 -5.0368515372477415e-04 +0.0000000000000000e+00 +9.9999987315062477e-01
8.9999999999999840e+00 +5.4417079609344414e+00 +0.0000000000000000e+00 +8.9999996108552445e+00 -5.0934465411327636e-04 +0.0000000000000000e+00 +9.9999987028400306e-01
9.0999999999999837e+00 +5.4416567434938479e+00 +0.0000000000000000e+00 +9.0999995977389787e+00 -5.1500415840474625e-04 +0.0000000000000000e+00 +9.9999986738534941e-01
9.1999999999999833e+00 +5.4416049601026284e+00 +0.0000000000000000e+00 +9.1999995843312465e+00 -5.2066366664182907e-04 +0.0000000000000000e+00 +9.9999986445466371e-01
9.2999999999999829e+00 +5.4415526107603860e+00 +0.0000000000000000e+00 +9.2999995706288434e+00 -5.2632317886747019e-04 +0.0000000000000000e+00 +9.9999986149194586e-01
9.3999999999999826e+00 +5.4414996954667201e+00 +0.0000000000000000e+00 +9.3999995566285666e+00 -5.3198269512494368e-04 +0.0000000000000000e+00 +9.9999985849719575e-01
9.4999999999999822e+00 +5.4414462142212248e+00 +0.0000000000000000e+00 +9.4999995423272132e+00 -5.3764221545785399e-04 +0.0000000000000000e+00 +9.9999985547041337e-01
9.5999999999999819e+00 +5.4413921670234906e+00 +0.0000000000000000e+00 +9.5999995277215806e+00 -5.4330173991013820e-04 +0.0000000000000000e+00 +9.9999985241159850e-01
9.6999999999999815e+00 +5.4413375538731037e+00 +0.0000000000000000e+00 +9.6999995128084642e+00 -5.4896126852606807e-04 +0.0000000000000000e+00 +9.9999984932075114e-01
9.7999999999999812e+00 +5.4412823747696448e+00 +0.0000000000000000e+00 +9.7999994975846629e+00 -5.5462080135025192e-04 +0.0000000000000000e+00 +9.9999984619787119e-01
9.8999999999999808e+00 +5.4412266297126912e+00 +0.0000000000000000e+00 +9.8999994820469706e+00 -5.6028033842763728e-04 +0.0000000000000000e+00 +9.9999984304295852e-01
9.9999999999999805e+00 +5.4411703187018157e+00 +0.0000000000000000e+00 +9.9999994661921860e+00 -5.6593987980351271e-04 +0.0000000000000000e+00 +9.9999983985601304e-01
1.0099999999999980e+01 +5.4411134417365856e+00 +0.0000000000000000e+00 +1.0099999450017105e+01 -5.7159942552348396e-04 +0.0000000000000000e+00 +9.9999983663703462e-01
1.0199999999999980e+01 +5.4410559988165650e+00 +0.0000000000000000e+00 +1.0199999433518524e+01 -5.7725897563318512e-04 +0.0000000000000000e+00 +9.9999983338602327e-01
1.0299999999999979e+01 +5.4409979899413115e+00 +0.0000000000000000e+00 +1.0299999416693241e+01 -5.8291853017798754e-04 +0.0000000000000000e+00 +9.9999983010297877e-01
1.0399999999999979e+01 +5.4409394151103800e+00 +0.0000000000000000e+00 +1.0399999399538052e+01 -5.8857808920297159e-04 +0.0000000000000000e+00 +9.9999982678790111e-01
1.0499999999999979e+01 +5.4408802743233204e+00 +0.0000000000000000e+00 +1.0499999382049753e+01 -5.9423765275292437e-04 +0.0000000000000000e+00 +9.9999982344079008e-01
1.0599999999999978e+01 +5.4408205675796770e+00 +0.0000000000000000e+00 +1.0599999364225141e+01 -5.9989722087233730e-04 +0.0000000000000000e+00 +9.9999982006164567e-01
1.0699999999999978e+01 +5.4407602948789915e+00 +0.0000000000000000e+00 +1.0699999346061015e+01 -6.0555679360540409e-04 +0.0000000000000000e+00 +9.9999981665046767e-01
1.0799999999999978e+01 +5.4406994562208002e+00 +0.0000000000000000e+00 +1.0799999327554168e+01 -6.1121637099601802e-04 +0.0000000000000000e+00 +9.9999981320725606e-01
1.0899999999999977e+01 +5.4406380516046351e+00 +0.0000000000000000e+00 +1.0899999308701398e+01 -6.1687595308777007e-04 +0.0000000000000000e+00 +9.9999980973201075e-01
1.0999999999999977e+01 +5.4405760810300245e+00 +0.0000000000000000e+00 +1.0999999289499502e+01 -6.2253553992394595e-04 +0.0000000000000000e+00 +9.9999980622473161e-01
1.1099999999999977e+01 +5.4405135444964907e+00 +0.0000000000000000e+00 +1.1099999269945277e+01 -6.2819513154754121e-04 +0.0000000000000000e+00 +9.9999980268541855e-01
1.1199999999999976e+01 +5.4404504420035540e+00 +0.0000000000000000e+00 +1.1199999250035519e+01 -6.3385472800145035e-04 +0.0000000000000000e+00 +9.9999979911407133e-01
1.1299999999999976e+01 +5.4403867735507285e+00 +0.0000000000000000e+00 +1.1299999229767025e+01 -6.3951432932865852e-04 +0.0000000000000000e+00 +9.9999979551068996e-01
1.1399999999999975e+01 +5.4403225391375249e+00 +0.0000000000000000e+00 +1.1399999209136590e+01 -6.4517393557226102e-04 +0.0000000000000000e+00 +9.9999979187527432e-01
1.1499999999999975e+01 +5.4402577387634494e+00 +0.0000000000000000e+00 +1.1499999188141011e+01 -6.5083354677546547e-04 +0.0000000000000000e+00 +9.9999978820782431e-01
1.1599999999999975e+01 +5.4401923724280037e+00 +0.0000000000000000e+00 +1.1599999166777087e+01 -6.5649316298159400e-04 +0.0000000000000000e+00 +9.9999978450833982e-01
1.1699999999999974e+01 +5.4401264401306850e+00 +0.0000000000000000e+00 +1.1699999145041613e+01 -6.6215278423408539e-04 +0.0000000000000000e+00 +9.9999978077682072e-01
1.1799999999999974e+01 +5.4400599418709872e+00 +0.0000000000000000e+00 +1.1799999122931384e+01 -6.6781241057649776e-04 +0.0000000000000000e+00 +9.9999977701326681e-01
