# field on trajectory
# s[mm] rx[mm] ry[mm] rz[mm] bx[T] by[T] bz[T]
0.0000000000000000e+00 +8.1530000000000094e+00 +0.0000000000000000e+00 +0.0000000000000000e+00 -3.2416371666471960e-02 -5.9295244163934813e-01 +5.9111733147574914e-03
1.0000000000000001e-01 +8.1529997163925092e+00 +0.0000000000000000e+00 +9.9999999999463796e-02 -3.2416432980943030e-02 -5.9295242770497836e-01 +5.9112053643091082e-03
2.0000000000000001e-01 +8.1529988655711296e+00 +0.0000000000000000e+00 +1.9999999999571000e-01 -3.2416488257855071e-02 -5.9295241638919272e-01 +5.9112383104278163e-03
2.9999999999999999e-01 +8.1529974475415692e+00 +0.0000000000000000e+00 +2.9999999998552201e-01 -3.2416537716306197e-02 -5.9295240863170695e-01 +5.9112720883524560e-03
4.0000000000000002e-01 +8.1529954622965306e+00 +0.0000000000000000e+00 +3.9999999996568197e-01 -3.2416581575406014e-02 -5.9295240537234051e-01 +5.9113066333221480e-03
5.0000000000000000e-01 +8.1529929098396696e+00 +0.0000000000000000e+00 +4.9999999993297300e-01 -3.2416620054263219e-02 -5.9295240755082335e-01 +5.9113418805743318e-03
5.9999999999999998e-01 +8.1529897901673394e+00 +0.0000000000000000e+00 +5.9999999988417696e-01 -3.2416653371991296e-02 -5.9295241610694416e-01 +5.9113777653463633e-03
6.9999999999999996e-01 +8.1529861032831796e+00 +0.0000000000000000e+00 +6.9999999981607697e-01 -3.2416681747700064e-02 -5.9295243198043501e-01 +5.9114142228743581e-03
8.0000000000000004e-01 +8.1529818491871993e+00 +0.0000000000000000e+00 +7.9999999972545699e-01 -3.2416705400498250e-02 -5.9295245611105940e-01 +5.9114511883941638e-03
9.0000000000000002e-01 +8.1529770278793894e+00 +0.0000000000000000e+00 +8.9999999960909804e-01 -3.2416724549489781e-02 -5.9295248943858414e-01 +5.9114885971411268e-03
1.0000000000000000e+00 +8.1529716393597500e+00 +0.0000000000000000e+00 +9.9999999946378304e-01 -3.2416739413771656e-02 -5.9295253290278127e-01 +5.9115263843501501e-03
1.1000000000000001e+00 +8.1529656836210105e+00 +0.0000000000000000e+00 +1.0999999992862901e+00 -3.2416750212434918e-02 -5.9295258744348722e-01 +5.9115644852563744e-03
1.2000000000000000e+00 +8.1529591606740706e+00 +0.0000000000000000e+00 +1.1999999990734200e+00 -3.2416757164551495e-02 -5.9295265400039798e-01 +5.9116028350930877e-03
1.3000000000000000e+00 +8.1529520705153100e+00 +0.0000000000000000e+00 +1.2999999988219300e+00 -3.2416760489186215e-02 -5.9295273351333533e-01 +5.9116413690945488e-03
1.3999999999999999e+00 +8.1529444131410909e+00 +0.0000000000000000e+00 +1.3999999985286200e+00 -3.2416760405388378e-02 -5.9295282692212936e-01 +5.9116800224948375e-03
1.5000000000000000e+00 +8.1529361885550298e+00 +0.0000000000000000e+00 +1.4999999981902701e+00 -3.2416757132186509e-02 -5.9295293516656267e-01 +5.9117187305272843e-03
1.6000000000000001e+00 +8.1529273967571498e+00 +0.0000000000000000e+00 +1.5999999978036501e+00 -3.2416750888590758e-02 -5.9295305918645658e-01 +5.9117574284254636e-03
1.7000000000000000e+00 +8.1529180377474404e+00 +0.0000000000000000e+00 +1.6999999973655600e+00 -3.2416741893589458e-02 -5.9295319992164652e-01 +5.9117960514229566e-03
1.8000000000000000e+00 +8.1529081115222706e+00 +0.0000000000000000e+00 +1.7999999968727800e+00 -3.2416730366148255e-02 -5.9295335831200957e-01 +5.9118345347537070e-03
1.8999999999999999e+00 +8.1528976180852606e+00 +0.0000000000000000e+00 +1.8999999963220899e+00 -3.2416716525203546e-02 -5.9295353529737882e-01 +5.9118728136511789e-03
2.0000000000000000e+00 +8.1528865574327902e+00 +0.0000000000000000e+00 +1.9999999957102601e+00 -3.2416700589666329e-02 -5.9295373181766120e-01 +5.9119108233496353e-03
2.1000000000000001e+00 +8.1528749295721408e+00 +0.0000000000000000e+00 +2.0999999950340902e+00 -3.2416682752463989e-02 -5.9295394847703742e-01 +5.9119484962329369e-03
2.2000000000000002e+00 +8.1528627344960096e+00 +0.0000000000000000e+00 +2.1999999942903599e+00 -3.2416663102714231e-02 -5.9295418453719817e-01 +5.9119857532871451e-03
2.2999999999999998e+00 +8.1528499722080596e+00 +0.0000000000000000e+00 +2.2999999934758399e+00 -3.2416641703576277e-02 -5.9295443892409361e-01 +5.9120225126467882e-03
2.3999999999999999e+00 +8.1528366427046404e+00 +0.0000000000000000e+00 +2.3999999925873299e+00 -3.2416618618211060e-02 -5.9295471056373450e-01 +5.9120586924459335e-03
2.5000000000000000e+00 +8.1528227459894005e+00 +0.0000000000000000e+00 +2.4999999916215998e+00 -3.2416593909776192e-02 -5.9295499838207133e-01 +5.9120942108168697e-03
2.6000000000000001e+00 +8.1528082820659602e+00 +0.0000000000000000e+00 +2.5999999905754398e+00 -3.2416567641430666e-02 -5.9295530130505469e-01 +5.9121289858906512e-03
2.7000000000000002e+00 +8.1527932509234198e+00 +0.0000000000000000e+00 +2.6999999894456299e+00 -3.2416539876342403e-02 -5.9295561825875132e-01 +5.9121629357982187e-03
2.7999999999999998e+00 +8.1527776525726896e+00 +0.0000000000000000e+00 +2.7999999882289601e+00 -3.2416510677673996e-02 -5.9295594816904829e-01 +5.9121959786672439e-03
2.8999999999999999e+00 +8.1527614870065008e+00 +0.0000000000000000e+00 +2.8999999869222002e+00 -3.2416480108601417e-02 -5.9295628996197669e-01 +5.9122280326254235e-03
3.0000000000000000e+00 +8.1527447542284808e+00 +0.0000000000000000e+00 +2.9999999855221300e+00 -3.2416448232302796e-02 -5.9295664256347602e-01 +5.9122590157979380e-03
3.1000000000000001e+00 +8.1527274542386294e+00 +0.0000000000000000e+00 +3.0999999840255499e+00 -3.2416415111966163e-02 -5.9295700489950920e-01 +5.9122888463085822e-03
3.2000000000000002e+00 +8.1527095870333106e+00 +0.0000000000000000e+00 +3.1999999824292300e+00 -3.2416380810790825e-02 -5.9295737589606379e-01 +5.9123174422796862e-03
3.2999999999999998e+00 +8.1526911526198091e+00 +0.0000000000000000e+00 +3.2999999807299600e+00 -3.2416345391982439e-02 -5.9295775447903132e-01 +5.9123447218307913e-03
3.3999999999999999e+00 +8.1526721509872004e+00 +0.0000000000000000e+00 +3.3999999789245101e+00 -3.2416308918767102e-02 -5.9295813957444476e-01 +5.9123706030810219e-03
3.5000000000000000e+00 +8.1526525821464002e+00 +0.0000000000000000e+00 +3.4999999770096801e+00 -3.2416271454375326e-02 -5.9295853010815092e-01 +5.9123950041456213e-03
3.6000000000000001e+00 +8.1526324460901396e+00 +0.0000000000000000e+00 +3.5999999749822500e+00 -3.2416233062060797e-02 -5.9295892500613534e-01 +5.9124178431392439e-03
3.7000000000000002e+00 +8.1526117428220495e+00 +0.0000000000000000e+00 +3.6999999728389801e+00 -3.2416193805089207e-02 -5.9295932319428535e-01 +5.9124390381734039e-03
3.7999999999999998e+00 +8.1525904723421299e+00 +0.0000000000000000e+00 +3.7999999705766800e+00 -3.2416153746745918e-02 -5.9295972359850713e-01 +5.9124585073576158e-03
3.8999999999999999e+00 +8.1525686346503807e+00 +0.0000000000000000e+00 +3.8999999681921298e+00 -3.2416112950335821e-02 -5.9296012514469520e-01 +5.9124761687990067e-03
4.0000000000000000e+00 +8.1525462297431694e+00 +0.0000000000000000e+00 +3.9999999656820902e+00 -3.2416071479186258e-02 -5.9296052675876210e-01 +5.9124919406025288e-03
4.0999999999999996e+00 +8.1525232576241304e+00 +0.0000000000000000e+00 +4.0999999630433699e+00 -3.2416029379689668e-02 -5.9296092745198925e-01 +5.9125058029106470e-03
4.2000000000000002e+00 +8.1524997182896204e+00 +0.0000000000000000e+00 +4.1999999602727298e+00 -3.2415986630445252e-02 -5.9296132657747247e-01 +5.9125179840289668e-03
4.2999999999999998e+00 +8.1524756117469206e+00 +0.0000000000000000e+00 +4.2999999573669703e+00 -3.2415943193108726e-02 -5.9296172357365573e-01 +5.9125287743064048e-03
4.4000000000000004e+00 +8.1524509379887604e+00 +0.0000000000000000e+00 +4.3999999543228601e+00 -3.2415899029357251e-02 -5.9296211787909103e-01 +5.9125384640973215e-03
4.5000000000000000e+00 +8.1524256970187707e+00 +0.0000000000000000e+00 +4.4999999511372000e+00 -3.2415854100879320e-02 -5.9296250893223634e-01 +5.9125473437596872e-03
4.5999999999999996e+00 +8.1523998888369498e+00 +0.0000000000000000e+00 +4.5999999478067499e+00 -3.2415808369381773e-02 -5.9296289617157116e-01 +5.9125557036566190e-03
4.7000000000000002e+00 +8.1523735134396702e+00 +0.0000000000000000e+00 +4.6999999443283098e+00 -3.2415761796590538e-02 -5.9296327903559565e-01 +5.9125638341566708e-03
4.7999999999999998e+00 +8.1523465708305594e+00 +0.0000000000000000e+00 +4.7999999406986600e+00 -3.2415714344246768e-02 -5.9296365696274367e-01 +5.9125720256332330e-03
4.9000000000000004e+00 +8.1523190610096208e+00 +0.0000000000000000e+00 +4.8999999369145701e+00 -3.2415665974112218e-02 -5.9296402939146819e-01 +5.9125805684657308e-03
5.0000000000000000e+00 +8.1522909839768491e+00 +0.0000000000000000e+00 +4.9999999329728402e+00 -3.2415616647968624e-02 -5.9296439576021431e-01 +5.9125897530396612e-03
5.0999999999999996e+00 +8.1522623397286207e+00 +0.0000000000000000e+00 +5.0999999288702398e+00 -3.2415566327619841e-02 -5.9296475550744643e-01 +5.9125998697471529e-03
5.2000000000000002e+00 +8.1522331282685592e+00 +0.0000000000000000e+00 +5.1999999246035600e+00 -3.2415514974888052e-02 -5.9296510807156078e-01 +5.9126112089864027e-03
5.2999999999999998e+00 +8.1522033495966806e+00 +0.0000000000000000e+00 +5.2999999201695802e+00 -3.2415462551619166e-02 -5.9296545289097247e-01 +5.9126240611628491e-03
5.4000000000000004e+00 +8.1521730037093203e+00 +0.0000000000000000e+00 +5.3999999155650800e+00 -3.2415409019683684e-02 -5.9296578940411493e-01 +5.9126387166895189e-03
5.5000000000000000e+00 +8.1521420906137791e+00 +0.0000000000000000e+00 +5.4999999107868396e+00 -3.2415354340971113e-02 -5.9296611704932345e-01 +5.9126554659860615e-03
5.5999999999999996e+00 +8.1521106102991308e+00 +0.0000000000000000e+00 +5.5999999058316599e+00 -3.2415298477403334e-02 -5.9296643526506909e-01 +5.9126745994815526e-03
5.7000000000000002e+00 +8.1520785627762997e+00 +0.0000000000000000e+00 +5.6999999006963096e+00 -3.2415241390918087e-02 -5.9296674348963407e-01 +5.9126964076113816e-03
5.7999999999999998e+00 +8.1520459480379905e+00 +0.0000000000000000e+00 +5.7999998953775700e+00 -3.2415183043487061e-02 -5.9296704116143617e-01 +5.9127211808209521e-03
5.9000000000000004e+00 +8.1520127660915005e+00 +0.0000000000000000e+00 +5.8999998898722197e+00 -3.2415123397102431e-02 -5.9296732771876304e-01 +5.9127492095632141e-03
5.9999999999999902e+00 +8.1519790169259103e+00 +0.0000000000000000e+00 +5.9999998841770603e+00 -3.2415062413791960e-02 -5.9296760260003800e-01 +5.9127807843017367e-03
6.0999999999999899e+00 +8.1519447005521197e+00 +0.0000000000000000e+00 +6.0999998782888598e+00 -3.2415000112474703e-02 -5.9296786545714741e-01 +5.9128160990880810e-03
6.1999999999999904e+00 +8.1519098169665103e+00 +0.0000000000000000e+00 +6.1999998722044003e+00 -3.2414936739580916e-02 -5.9296811679670403e-01 +5.9128549623005478e-03
6.2999999999999901e+00 +8.1518743661654298e+00 +0.0000000000000000e+00 +6.2999998659204701e+00 -3.2414872598401839e-02 -5.9296835733896291e-01 +5.9128970858942156e-03
6.3999999999999897e+00 +8.1518383481488907e+00 +0.0000000000000000e+00 +6.3999998594338496e+00 -3.2414807992210637e-02 -5.9296858780413453e-01 +5.9129421818194614e-03
6.4999999999999902e+00 +8.1518017629241495e+00 +0.0000000000000000e+00 +6.4999998527413201e+00 -3.2414743224259746e-02 -5.9296880891235693e-01 +5.9129899620213961e-03
6.5999999999999899e+00 +8.1517646104839496e+00 +0.0000000000000000e+00 +6.5999998458396698e+00 -3.2414678597789293e-02 -5.9296902138387120e-01 +5.9130401384414263e-03
6.6999999999999904e+00 +8.1517268908319203e+00 +0.0000000000000000e+00 +6.6999998387256703e+00 -3.2414614416015113e-02 -5.9296922593881496e-01 +5.9130924230148714e-03
6.7999999999999901e+00 +8.1516886039680703e+00 +0.0000000000000000e+00 +6.7999998313961196e+00 -3.2414550982133895e-02 -5.9296942329733893e-01 +5.9131465276719168e-03
6.8999999999999897e+00 +8.1516497498923908e+00 +0.0000000000000000e+00 +6.8999998238477902e+00 -3.2414488599320626e-02 -5.9296961417957972e-01 +5.9132021643370416e-03
6.9999999999999902e+00 +8.1516103286012402e+00 +0.0000000000000000e+00 +6.9999998160774597e+00 -3.2414427570729133e-02 -5.9296979930568616e-01 +5.9132590449290758e-03
7.0999999999999899e+00 +8.1515703400982602e+00 +0.0000000000000000e+00 +7.0999998080819298e+00 -3.2414368199486267e-02 -5.9296997939573215e-01 +5.9133168813600111e-03
7.1999999999999904e+00 +8.1515297843834595e+00 +0.0000000000000000e+00 +7.1999997998579603e+00 -3.2414310788695673e-02 -5.9297015516980311e-01 +5.9133753855356583e-03
7.2999999999999901e+00 +8.1514886614531896e+00 +0.0000000000000000e+00 +7.2999997914023496e+00 -3.2414255641436671e-02 -5.9297032734799870e-01 +5.9134342693554021e-03
7.3999999999999897e+00 +8.1514469713147300e+00 +0.0000000000000000e+00 +7.3999997827118804e+00 -3.2414203060756978e-02 -5.9297049665031099e-01 +5.9134932447106889e-03
7.4999999999999902e+00 +8.1514047139571595e+00 +0.0000000000000000e+00 +7.4999997737833199e+00 -3.2414153349684241e-02 -5.9297066379686214e-01 +5.9135520234872433e-03
7.5999999999999899e+00 +8.1513618893914099e+00 +0.0000000000000000e+00 +7.5999997646134698e+00 -3.2414106811207669e-02 -5.9297082950757918e-01 +5.9136103175614204e-03
7.6999999999999904e+00 +8.1513184976138309e+00 +0.0000000000000000e+00 +7.6999997551991104e+00 -3.2414063748292775e-02 -5.9297099450248825e-01 +5.9136678388030193e-03
7.7999999999999901e+00 +8.1512745386207808e+00 +0.0000000000000000e+00 +7.7999997455370096e+00 -3.2414024463874022e-02 -5.9297115950159751e-01 +5.9137242990737896e-03
7.8999999999999897e+00 +8.1512300124159101e+00 +0.0000000000000000e+00 +7.8999997356239602e+00 -3.2413989260850623e-02 -5.9297132522483553e-01 +5.9137794102265611e-03
7.9999999999999902e+00 +8.1511849189955701e+00 +0.0000000000000000e+00 +7.9999997254567399e+00 -3.2413958442091814e-02 -5.9297149239217073e-01 +5.9138328841062075e-03
8.0999999999999908e+00 +8.1511392583670403e+00 +0.0000000000000000e+00 +8.0999997150321406e+00 -3.2413932265523172e-02 -5.9297166173737159e-01 +5.9138845197831084e-03
8.1999999999999904e+00 +8.1510930305230396e+00 +0.0000000000000000e+00 +8.1999997043469399e+00 -3.2413910809441511e-02 -5.9297183404997056e-01 +5.9139344652674687e-03
8.2999999999999901e+00 +8.1510462354672200e+00 +0.0000000000000000e+00 +8.2999996933979094e+00 -3.2413894107254579e-02 -5.9297201013337930e-01 +5.9139829558065094e-03
8.3999999999999897e+00 +8.1509988731995708e+00 +0.0000000000000000e+00 +8.3999996821818605e+00 -3.2413882192399018e-02 -5.9297219079110997e-01 +5.9140302266500744e-03
8.4999999999999893e+00 +8.1509509437164507e+00 +0.0000000000000000e+00 +8.4999996706955496e+00 -3.2413875098341045e-02 -5.9297237682677495e-01 +5.9140765130506878e-03
8.5999999999999908e+00 +8.1509024470215099e+00 +0.0000000000000000e+00 +8.5999996589357703e+00 -3.2413872858572577e-02 -5.9297256904400364e-01 +5.9141220502627340e-03
8.6999999999999904e+00 +8.1508533831147396e+00 +0.0000000000000000e+00 +8.6999996468993004e+00 -3.2413875506616951e-02 -5.9297276824652967e-01 +5.9141670735434644e-03
8.7999999999999794e+00 +8.1508037519961398e+00 +0.0000000000000000e+00 +8.7999996345829192e+00 -3.2413883076028008e-02 -5.9297297523816705e-01 +5.9142118181527790e-03
8.8999999999999808e+00 +8.1507535536620708e+00 +0.0000000000000000e+00 +8.8999996219834205e+00 -3.2413895600392630e-02 -5.9297319082284017e-01 +5.9142565193536292e-03
8.9999999999999805e+00 +8.1507027881161793e+00 +0.0000000000000000e+00 +8.9999996090975891e+00 -3.2413913113326830e-02 -5.9297341580449825e-01 +5.9143014124111784e-03
9.0999999999999801e+00 +8.1506514553584601e+00 +0.0000000000000000e+00 +9.0999995959221902e+00 -3.2413935648481267e-02 -5.9297365098720500e-01 +5.9143467325938094e-03
9.1999999999999797e+00 +8.1505995553889097e+00 +0.0000000000000000e+00 +9.1999995824540193e+00 -3.2413963239540627e-02 -5.9297389717511373e-01 +5.9143927151729253e-03
9.2999999999999794e+00 +8.1505470882038900e+00 +0.0000000000000000e+00 +9.2999995686898593e+00 -3.2413995920225952e-02 -5.9297415517249696e-01 +5.9144395954233205e-03
9.3999999999999808e+00 +8.1504940538070496e+00 +0.0000000000000000e+00 +9.3999995546264898e+00 -3.2414033724290733e-02 -5.9297442578366111e-01 +5.9144876086223664e-03
9.4999999999999805e+00 +8.1504404521983798e+00 +0.0000000000000000e+00 +9.4999995402606903e+00 -3.2414076685526531e-02 -5.9297470981303735e-01 +5.9145369900510097e-03
9.5999999999999801e+00 +8.1503862833778804e+00 +0.0000000000000000e+00 +9.5999995255892507e+00 -3.2414124837762320e-02 -5.9297500806515502e-01 +5.9145879749935709e-03
9.6999999999999797e+00 +8.1503315473419207e+00 +0.0000000000000000e+00 +9.6999995106089507e+00 -3.2414178214866668e-02 -5.9297532134467179e-01 +5.9146407987381196e-03
9.7999999999999794e+00 +8.1502762440941297e+00 +0.0000000000000000e+00 +9.7999994953165697e+00 -3.2414236850744099e-02 -5.9297565045628919e-01 +5.9146956965756628e-03
9.8999999999999808e+00 +8.1502203736345091e+00 +0.0000000000000000e+00 +9.8999994797088906e+00 -3.2414300779340481e-02 -5.9297599620484265e-01 +5.9147529038011360e-03
9.9999999999999805e+00 +8.1501639359594300e+00 +0.0000000000000000e+00 +9.9999994637827001e+00 -3.2414370034643925e-02 -5.9297635939530335e-01 +5.9148126557135115e-03
1.0100000000000000e+01 +8.1501069310761505e+00 +0.0000000000000000e+00 +1.0099999447534801e+01 -3.2414444531559589e-02 -5.9297674061057704e-01 +5.9148751221256100e-03
1.0199999999999999e+01 +8.1500493589774106e+00 +0.0000000000000000e+00 +1.0199999430961901e+01 -3.2414523708517232e-02 -5.9297713954537590e-01 +5.9149402108921367e-03
1.0300000000000001e+01 +8.1499912196668394e+00 +0.0000000000000000e+00 +1.0299999414060901e+01 -3.2414606884757724e-02 -5.9297755567217492e-01 +5.9150077643716596e-03
1.0400000000000000e+01 +8.1499325131444493e+00 +0.0000000000000000e+00 +1.0399999396828500e+01 -3.2414693379451839e-02 -5.9297798846340466e-01 +5.9150776249181245e-03
1.0500000000000000e+01 +8.1498732394065900e+00 +0.0000000000000000e+00 +1.0499999379261400e+01 -3.2414782511698402e-02 -5.9297843739145029e-01 +5.9151496348807450e-03
1.0600000000000000e+01 +8.1498133984568994e+00 +0.0000000000000000e+00 +1.0599999361356600e+01 -3.2414873600517605e-02 -5.9297890192856073e-01 +5.9152236366029412e-03
1.0699999999999999e+01 +8.1497529902953794e+00 +0.0000000000000000e+00 +1.0699999343110701e+01 -3.2414965964853978e-02 -5.9297938154693453e-01 +5.9152994724231429e-03
1.0800000000000001e+01 +8.1496920149220404e+00 +0.0000000000000000e+00 +1.0799999324520600e+01 -3.2415058923572770e-02 -5.9297987571868793e-01 +5.9153769846743568e-03
1.0900000000000000e+01 +8.1496304723332305e+00 +0.0000000000000000e+00 +1.0899999305583000e+01 -3.2415151795459757e-02 -5.9298038391588437e-01 +5.9154560156843543e-03
1.1000000000000000e+01 +8.1495683625325892e+00 +0.0000000000000000e+00 +1.0999999286294800e+01 -3.2415243899214574e-02 -5.9298090561044003e-01 +5.9155364077746117e-03
1.1100000000000000e+01 +8.1495056855201309e+00 +0.0000000000000000e+00 +1.1099999266652601e+01 -3.2415334553453551e-02 -5.9298144027421373e-01 +5.9156180032611241e-03
1.1199999999999999e+01 +8.1494424412958306e+00 +0.0000000000000000e+00 +1.1199999246653300e+01 -3.2415423076706321e-02 -5.9298198737897312e-01 +5.9157006444539549e-03
1.1300000000000001e+01 +8.1493786298560700e+00 +0.0000000000000000e+00 +1.1299999226293700e+01 -3.2415508787415469e-02 -5.9298254639642312e-01 +5.9157841736574377e-03
1.1400000000000000e+01 +8.1493142512044905e+00 +0.0000000000000000e+00 +1.1399999205570500e+01 -3.2415591003929850e-02 -5.9298311679811344e-01 +5.9158684331690999e-03
1.1500000000000000e+01 +8.1492493053447106e+00 +0.0000000000000000e+00 +1.1499999184480499e+01 -3.2415669044506039e-02 -5.9298369805549811e-01 +5.9159532652801952e-03
1.1600000000000000e+01 +8.1491837922658306e+00 +0.0000000000000000e+00 +1.1599999163020600e+01 -3.2415742227312631e-02 -5.9298428964004946e-01 +5.9160385122767646e-03
1.1699999999999999e+01 +8.1491177119787608e+00 +0.0000000000000000e+00 +1.1699999141187400e+01 -3.2415809870412586e-02 -5.9298489102296048e-01 +5.9161240164364642e-03
1.1800000000000001e+01 +8.1490510644762306e+00 +0.0000000000000000e+00 +1.1799999118977800e+01 -3.2415871291778746e-02 -5.9298550167546871e-01 +5.9162096200318171e-03
