# field on trajectory
# s[mm] rx[mm] ry[mm] rz[mm] bx[T] by[T] bz[T]
0.0000000000000000e+00 +8.1529999999999987e+00 +0.0000000000000000e+00 +0.0000000000000000e+00 -3.1172990118345713e-02 -5.9312945776325676e-01 +5.9597345646109339e-03
1.0000000000000001e-01 +8.1529997166576589e+00 +0.0000000000000000e+00 +9.9999999999464781e-02 -3.1173212202744136e-02 -5.9312921304271593e-01 +5.9597050367327558e-03
2.0000000000000001e-01 +8.1529988666307975e+00 +0.0000000000000000e+00 +1.9999999999571827e-01 -3.1173442052104674e-02 -5.9312896100673518e-01 +5.9596764009319870e-03
3.0000000000000004e-01 +8.1529974499196562e+00 +0.0000000000000000e+00 +2.9999999998554910e-01 -3.1173677960991325e-02 -5.9312870206631751e-01 +5.9596487148893236e-03
4.0000000000000002e-01 +8.1529954665244819e+00 +0.0000000000000000e+00 +3.9999999996574598e-01 -3.1173918223980069e-02 -5.9312843663245229e-01 +5.9596220362831843e-03
5.0000000000000000e-01 +8.1529929164455286e+00 +0.0000000000000000e+00 +4.9999999993309763e-01 -3.1174161135656346e-02 -5.9312816511611732e-01 +5.9595964227901520e-03
5.9999999999999998e-01 +8.1529897996830556e+00 +0.0000000000000000e+00 +5.9999999988439279e-01 -3.1174404990612452e-02 -5.9312788792827531e-01 +5.9595719320852990e-03
6.9999999999999996e-01 +8.1529861162373276e+00 +0.0000000000000000e+00 +6.9999999981642014e-01 -3.1174648083445021e-02 -5.9312760547987731e-01 +5.9595486218426089e-03
7.9999999999999993e-01 +8.1529818661086146e+00 +0.0000000000000000e+00 +7.9999999972596836e-01 -3.1174888708752495e-02 -5.9312731818185860e-01 +5.9595265497353611e-03
8.9999999999999991e-01 +8.1529770492971902e+00 +0.0000000000000000e+00 +8.9999999960982624e-01 -3.1175125161132518e-02 -5.9312702644514048e-01 +5.9595057734364940e-03
9.9999999999999989e-01 +8.1529716658033333e+00 +0.0000000000000000e+00 +9.9999999946478235e-01 -3.1175355735179412e-02 -5.9312673068062904e-01 +5.9594863506190077e-03
1.0999999999999999e+00 +8.1529657156273281e+00 +0.0000000000000000e+00 +1.0999999992876255e+00 -3.1175578725481663e-02 -5.9312643129921505e-01 +5.9594683389563412e-03
1.2000000000000000e+00 +8.1529591987694605e+00 +0.0000000000000000e+00 +1.1999999990751444e+00 -3.1175792426619289e-02 -5.9312612871177250e-01 +5.9594517961227564e-03
1.3000000000000000e+00 +8.1529521152300184e+00 +0.0000000000000000e+00 +1.2999999988241280e+00 -3.1175995133161362e-02 -5.9312582332916031e-01 +5.9594367797937281e-03
1.4000000000000001e+00 +8.1529444650092948e+00 +0.0000000000000000e+00 +1.3999999985313647e+00 -3.1176185139663422e-02 -5.9312551556222004e-01 +5.9594233476463303e-03
1.5000000000000002e+00 +8.1529362481075847e+00 +0.0000000000000000e+00 +1.4999999981936436e+00 -3.1176360740664905e-02 -5.9312520582177497e-01 +5.9594115573596068e-03
1.6000000000000003e+00 +8.1529274645251828e+00 +0.0000000000000000e+00 +1.5999999978077533e+00 -3.1176520230686660e-02 -5.9312489451863259e-01 +5.9594014666149719e-03
1.7000000000000004e+00 +8.1529181142623877e+00 +0.0000000000000000e+00 +1.6999999973704825e+00 -3.1176661904228322e-02 -5.9312458206358065e-01 +5.9593931330965870e-03
1.8000000000000005e+00 +8.1529081973194977e+00 +0.0000000000000000e+00 +1.7999999968786198e+00 -3.1176784055765829e-02 -5.9312426886738934e-01 +5.9593866144917436e-03
1.9000000000000006e+00 +8.1528977136968130e+00 +0.0000000000000000e+00 +1.8999999963289542e+00 -3.1176884979748805e-02 -5.9312395534080953e-01 +5.9593819684912565e-03
2.0000000000000004e+00 +8.1528866633946322e+00 +0.0000000000000000e+00 +1.9999999957182746e+00 -3.1176962970598073e-02 -5.9312364189457256e-01 +5.9593792527898402e-03
2.1000000000000005e+00 +8.1528750464132571e+00 +0.0000000000000000e+00 +2.0999999950433694e+00 -3.1177016923338411e-02 -5.9312332886925978e-01 +5.9593785020265969e-03
2.2000000000000006e+00 +8.1528628627529844e+00 +0.0000000000000000e+00 +2.1999999943010278e+00 -3.1177048135515084e-02 -5.9312301632492614e-01 +5.9593796586043871e-03
2.3000000000000007e+00 +8.1528501124141162e+00 +0.0000000000000000e+00 +2.2999999934880382e+00 -3.1177058505308410e-02 -5.9312270425151448e-01 +5.9593826418673753e-03
2.4000000000000008e+00 +8.1528367953969489e+00 +0.0000000000000000e+00 +2.3999999926011895e+00 -3.1177049930903054e-02 -5.9312239263899247e-01 +5.9593873711605789e-03
2.5000000000000009e+00 +8.1528229117017812e+00 +0.0000000000000000e+00 +2.4999999916372708e+00 -3.1177024310489781e-02 -5.9312208147735868e-01 +5.9593937658297767e-03
2.6000000000000010e+00 +8.1528084613289113e+00 +0.0000000000000000e+00 +2.5999999905930706e+00 -3.1176983542267205e-02 -5.9312177075664563e-01 +5.9594017452214388e-03
2.7000000000000011e+00 +8.1527934442786361e+00 +0.0000000000000000e+00 +2.6999999894653777e+00 -3.1176929524443533e-02 -5.9312146046692271e-01 +5.9594112286826383e-03
2.8000000000000012e+00 +8.1527778605512520e+00 +0.0000000000000000e+00 +2.7999999882509812e+00 -3.1176864155238477e-02 -5.9312115059830395e-01 +5.9594221355610006e-03
2.9000000000000012e+00 +8.1527617101470558e+00 +0.0000000000000000e+00 +2.8999999869466695e+00 -3.1176789332884907e-02 -5.9312084114094865e-01 +5.9594343852046074e-03
3.0000000000000013e+00 +8.1527449930663440e+00 +0.0000000000000000e+00 +2.9999999855492319e+00 -3.1176706955630698e-02 -5.9312053208506788e-01 +5.9594478969619315e-03
3.1000000000000014e+00 +8.1527277093094117e+00 +0.0000000000000000e+00 +3.0999999840554566e+00 -3.1176618921740486e-02 -5.9312022342092729e-01 +5.9594625901817494e-03
3.2000000000000015e+00 +8.1527098588765554e+00 +0.0000000000000000e+00 +3.1999999824621330e+00 -3.1176527129497481e-02 -5.9311991513885276e-01 +5.9594783842130865e-03
3.3000000000000016e+00 +8.1526914417680700e+00 +0.0000000000000000e+00 +3.2999999807660498e+00 -3.1176433477205192e-02 -5.9311960722923329e-01 +5.9594951984051191e-03
3.4000000000000017e+00 +8.1526724579842504e+00 +0.0000000000000000e+00 +3.3999999789639959e+00 -3.1176339863189309e-02 -5.9311929968252619e-01 +5.9595129521071155e-03
3.5000000000000018e+00 +8.1526529075253915e+00 +0.0000000000000000e+00 +3.4999999770527599e+00 -3.1176248185799355e-02 -5.9311899248926092e-01 +5.9595315646683526e-03
3.6000000000000019e+00 +8.1526327903917863e+00 +0.0000000000000000e+00 +3.5999999750291307e+00 -3.1176160343410583e-02 -5.9311868564004311e-01 +5.9595509554380413e-03
3.7000000000000020e+00 +8.1526121065837280e+00 +0.0000000000000000e+00 +3.6999999728898976e+00 -3.1176078234425669e-02 -5.9311837912555909e-01 +5.9595710437652548e-03
3.8000000000000020e+00 +8.1525908561015115e+00 +0.0000000000000000e+00 +3.7999999706318488e+00 -3.1176003757276586e-02 -5.9311807293658081e-01 +5.9595917489988475e-03
3.9000000000000021e+00 +8.1525690389454297e+00 +0.0000000000000000e+00 +3.8999999682517736e+00 -3.1175938810426278e-02 -5.9311776706396768e-01 +5.9596129904873818e-03
4.0000000000000018e+00 +8.1525466551157759e+00 +0.0000000000000000e+00 +3.9999999657464609e+00 -3.1175885292370514e-02 -5.9311746149867450e-01 +5.9596346875790572e-03
4.1000000000000014e+00 +8.1525237046128414e+00 +0.0000000000000000e+00 +4.0999999631126993e+00 -3.1175844705602841e-02 -5.9311715633767881e-01 +5.9596567873026743e-03
4.2000000000000011e+00 +8.1525001874369210e+00 +0.0000000000000000e+00 +4.1999999603472773e+00 -3.1175816968484083e-02 -5.9311685210172349e-01 +5.9596793474102558e-03
4.3000000000000007e+00 +8.1524761035883042e+00 +0.0000000000000000e+00 +4.2999999574469845e+00 -3.1175801603318662e-02 -5.9311654941746439e-01 +5.9597024533328104e-03
4.4000000000000004e+00 +8.1524514530672807e+00 +0.0000000000000000e+00 +4.3999999544086101e+00 -3.1175798132385569e-02 -5.9311624891152981e-01 +5.9597261904989355e-03
4.5000000000000000e+00 +8.1524262358741382e+00 +0.0000000000000000e+00 +4.4999999512289426e+00 -3.1175806077936567e-02 -5.9311595121051786e-01 +5.9597506443346488e-03
4.5999999999999996e+00 +8.1524004520091626e+00 +0.0000000000000000e+00 +4.5999999479047702e+00 -3.1175824962194246e-02 -5.9311565694099189e-01 +5.9597759002631935e-03
4.6999999999999993e+00 +8.1523741014726365e+00 +0.0000000000000000e+00 +4.6999999444328822e+00 -3.1175854307350249e-02 -5.9311536672947740e-01 +5.9598020437048949e-03
4.7999999999999989e+00 +8.1523471842648370e+00 +0.0000000000000000e+00 +4.7999999408100678e+00 -3.1175893635563414e-02 -5.9311508120246037e-01 +5.9598291600769680e-03
4.8999999999999986e+00 +8.1523197003860375e+00 +0.0000000000000000e+00 +4.8999999370331162e+00 -3.1175942468957850e-02 -5.9311480098638070e-01 +5.9598573347933526e-03
4.9999999999999982e+00 +8.1522916498365081e+00 +0.0000000000000000e+00 +4.9999999330988159e+00 -3.1176000329621246e-02 -5.9311452670763132e-01 +5.9598866532645433e-03
5.0999999999999979e+00 +8.1522630326165100e+00 +0.0000000000000000e+00 +5.0999999290039559e+00 -3.1176066739602850e-02 -5.9311425899255410e-01 +5.9599172008974067e-03
5.1999999999999975e+00 +8.1522338487263006e+00 +0.0000000000000000e+00 +5.1999999247453248e+00 -3.1176141220911700e-02 -5.9311399846743629e-01 +5.9599490630950162e-03
5.2999999999999972e+00 +8.1522040981661288e+00 +0.0000000000000000e+00 +5.2999999203197117e+00 -3.1176223295514824e-02 -5.9311374575850606e-01 +5.9599823252564832e-03
5.3999999999999968e+00 +8.1521737809362378e+00 +0.0000000000000000e+00 +5.3999999157239058e+00 -3.1176312485335304e-02 -5.9311350149193187e-01 +5.9600170727767739e-03
5.4999999999999964e+00 +8.1521428970368621e+00 +0.0000000000000000e+00 +5.4999999109546955e+00 -3.1176408312250464e-02 -5.9311326629381600e-01 +5.9600533910465414e-03
5.5999999999999961e+00 +8.1521114464682274e+00 +0.0000000000000000e+00 +5.5999999060088701e+00 -3.1176510298090019e-02 -5.9311304079019345e-01 +5.9600913654519602e-03
5.6999999999999957e+00 +8.1520794292305485e+00 +0.0000000000000000e+00 +5.6999999008832187e+00 -3.1176617964634262e-02 -5.9311282560702683e-01 +5.9601310813745395e-03
5.7999999999999954e+00 +8.1520468453240333e+00 +0.0000000000000000e+00 +5.7999998955745298e+00 -3.1176730833612151e-02 -5.9311262137020393e-01 +5.9601726241909651e-03
5.8999999999999950e+00 +8.1520136947488790e+00 +0.0000000000000000e+00 +5.8999998900795925e+00 -3.1176848426699530e-02 -5.9311242870553449e-01 +5.9602160792729068e-03
5.9999999999999947e+00 +8.1519799775052686e+00 +0.0000000000000000e+00 +5.9999998843951960e+00 -3.1176970265517200e-02 -5.9311224823874531e-01 +5.9602615319868700e-03
6.0999999999999943e+00 +8.1519456935933761e+00 +0.0000000000000000e+00 +6.0999998785181289e+00 -3.1177095951269312e-02 -5.9311208043466812e-01 +5.9603090416522611e-03
6.1999999999999940e+00 +8.1519108430133649e+00 +0.0000000000000000e+00 +6.1999998724451801e+00 -3.1177225403694102e-02 -5.9311192511482747e-01 +5.9603585634186258e-03
6.2999999999999936e+00 +8.1518754257653825e+00 +0.0000000000000000e+00 +6.2999998661731391e+00 -3.1177358622197192e-02 -5.9311178193992886e-01 +5.9604100263962855e-03
6.3999999999999932e+00 +8.1518394418495674e+00 +0.0000000000000000e+00 +6.3999998596987941e+00 -3.1177495606220355e-02 -5.9311165057067738e-01 +5.9604633596991863e-03
6.4999999999999929e+00 +8.1518028912660458e+00 +0.0000000000000000e+00 +6.4999998530189345e+00 -3.1177636355243499e-02 -5.9311153066777966e-01 +5.9605184924450879e-03
6.5999999999999925e+00 +8.1517657740149332e+00 +0.0000000000000000e+00 +6.5999998461303484e+00 -3.1177780868786583e-02 -5.9311142189194188e-01 +5.9605753537557609e-03
6.6999999999999922e+00 +8.1517280900963360e+00 +0.0000000000000000e+00 +6.6999998390298261e+00 -3.1177929146411574e-02 -5.9311132390387233e-01 +5.9606338727571789e-03
6.7999999999999918e+00 +8.1516898395103485e+00 +0.0000000000000000e+00 +6.7999998317141550e+00 -3.1178081187724339e-02 -5.9311123636427998e-01 +5.9606939785797029e-03
6.8999999999999915e+00 +8.1516510222570560e+00 +0.0000000000000000e+00 +6.8999998241801253e+00 -3.1178236992376665e-02 -5.9311115893387600e-01 +5.9607556003582916e-03
6.9999999999999911e+00 +8.1516116383365329e+00 +0.0000000000000000e+00 +6.9999998164245252e+00 -3.1178396560068114e-02 -5.9311109127337269e-01 +5.9608186672326716e-03
7.0999999999999908e+00 +8.1515716877488451e+00 +0.0000000000000000e+00 +7.0999998084441440e+00 -3.1178559890548026e-02 -5.9311103304348511e-01 +5.9608831083475524e-03
7.1999999999999904e+00 +8.1515311704940512e+00 +0.0000000000000000e+00 +7.1999998002357701e+00 -3.1178726983617389e-02 -5.9311098390493033e-01 +5.9609488528528046e-03
7.2999999999999901e+00 +8.1514900865721973e+00 +0.0000000000000000e+00 +7.2999997917961927e+00 -3.1178897839130835e-02 -5.9311094351842875e-01 +5.9610158299036563e-03
7.3999999999999897e+00 +8.1514484359833244e+00 +0.0000000000000000e+00 +7.3999997831222011e+00 -3.1179072456998566e-02 -5.9311091154470308e-01 +5.9610839686608918e-03
7.4999999999999893e+00 +8.1514062187274643e+00 +0.0000000000000000e+00 +7.4999997742105835e+00 -3.1179250837188251e-02 -5.9311088764447939e-01 +5.9611531982910332e-03
7.5999999999999890e+00 +8.1513634348046420e+00 +0.0000000000000000e+00 +7.5999997650581292e+00 -3.1179432979727004e-02 -5.9311087147848729e-01 +5.9612234479665448e-03
7.6999999999999886e+00 +8.1513200842148734e+00 +0.0000000000000000e+00 +7.6999997556616266e+00 -3.1179618884703313e-02 -5.9311086270746038e-01 +5.9612946468660258e-03
7.7999999999999883e+00 +8.1512761669581675e+00 +0.0000000000000000e+00 +7.7999997460178649e+00 -3.1179808552268935e-02 -5.9311086099213606e-01 +5.9613667241743846e-03
7.8999999999999879e+00 +8.1512316830345295e+00 +0.0000000000000000e+00 +7.8999997361236334e+00 -3.1180001982640898e-02 -5.9311086599325624e-01 +5.9614396090830633e-03
7.9999999999999876e+00 +8.1511866324439541e+00 +0.0000000000000000e+00 +7.9999997259757203e+00 -3.1180199176103384e-02 -5.9311087737156731e-01 +5.9615132307902045e-03
8.0999999999999872e+00 +8.1511410151864325e+00 +0.0000000000000000e+00 +8.0999997155709149e+00 -3.1180399984868861e-02 -5.9311089480441581e-01 +5.9615875124281511e-03
8.1999999999999869e+00 +8.1510948312619504e+00 +0.0000000000000000e+00 +8.1999997049060056e+00 -3.1180603668626412e-02 -5.9311091803553506e-01 +5.9616623528427094e-03
8.2999999999999865e+00 +8.1510480806704866e+00 +0.0000000000000000e+00 +8.2999996939777816e+00 -3.1180809338921308e-02 -5.9311094682525833e-01 +5.9617376448070089e-03
8.3999999999999861e+00 +8.1510007634120143e+00 +0.0000000000000000e+00 +8.3999996827830330e+00 -3.1181016107291303e-02 -5.9311098093392345e-01 +5.9618132810936083e-03
8.4999999999999858e+00 +8.1509528794865034e+00 +0.0000000000000000e+00 +8.4999996713185464e+00 -3.1181223085266181e-02 -5.9311102012187189e-01 +5.9618891544744703e-03
8.5999999999999854e+00 +8.1509044288939183e+00 +0.0000000000000000e+00 +8.5999996595811119e+00 -3.1181429384367271e-02 -5.9311106414945214e-01 +5.9619651577209167e-03
8.6999999999999851e+00 +8.1508554116342182e+00 +0.0000000000000000e+00 +8.6999996475675179e+00 -3.1181634116106933e-02 -5.9311111277701545e-01 +5.9620411836035702e-03
8.7999999999999847e+00 +8.1508058277073570e+00 +0.0000000000000000e+00 +8.7999996352745544e+00 -3.1181836391988120e-02 -5.9311116576491940e-01 +5.9621171248923424e-03
8.8999999999999844e+00 +8.1507556771132865e+00 +0.0000000000000000e+00 +8.8999996226990099e+00 -3.1182035323503880e-02 -5.9311122287352724e-01 +5.9621928743563484e-03
8.9999999999999840e+00 +8.1507049598519536e+00 +0.0000000000000000e+00 +8.9999996098376727e+00 -3.1182230022136867e-02 -5.9311128386320799e-01 +5.9622683247639021e-03
9.0999999999999837e+00 +8.1506536759233033e+00 +0.0000000000000000e+00 +9.0999995966873310e+00 -3.1182419599358916e-02 -5.9311134849433622e-01 +5.9623433688824525e-03
9.1999999999999833e+00 +8.1506018253272732e+00 +0.0000000000000000e+00 +9.1999995832447752e+00 -3.1182603166630473e-02 -5.9311141652729304e-01 +5.9624178994785457e-03
9.2999999999999829e+00 +8.1505494080638012e+00 +0.0000000000000000e+00 +9.2999995695067934e+00 -3.1182779835400215e-02 -5.9311148772246625e-01 +5.9624918093177789e-03
9.3999999999999826e+00 +8.1504964241328217e+00 +0.0000000000000000e+00 +9.3999995554701741e+00 -3.1182948717104520e-02 -5.9311156184025005e-01 +5.9625649911647640e-03
9.4999999999999822e+00 +8.1504428735342636e+00 +0.0000000000000000e+00 +9.4999995411317055e+00 -3.1183108923166985e-02 -5.9311163864104610e-01 +5.9626373377830817e-03
9.5999999999999819e+00 +8.1503887562680575e+00 +0.0000000000000000e+00 +9.5999995264881779e+00 -3.1183259564997994e-02 -5.9311171788526207e-01 +5.9627087419352317e-03
9.6999999999999815e+00 +8.1503340723341271e+00 +0.0000000000000000e+00 +9.6999995115363795e+00 -3.1183399753994197e-02 -5.9311179933331426e-01 +5.9627790963825977e-03
9.7999999999999812e+00 +8.1502788217323978e+00 +0.0000000000000000e+00 +9.7999994962730987e+00 -3.1183528601538061e-02 -5.9311188274562632e-01 +5.9628482938854062e-03
9.8999999999999808e+00 +8.1502230044627915e+00 +0.0000000000000000e+00 +9.8999994806951257e+00 -3.1183645218997389e-02 -5.9311196788262932e-01 +5.9629162272026755e-03
9.9999999999999805e+00 +8.1501666205252281e+00 +0.0000000000000000e+00 +9.9999994647992487e+00 -3.1183748717724856e-02 -5.9311205450476268e-01 +5.9629827890921808e-03
1.0099999999999980e+01 +8.1501096699196278e+00 +0.0000000000000000e+00 +1.0099999448582256e+01 -3.1183838515385989e-02 -5.9311214239595977e-01 +5.9630479065180108e-03
1.0199999999999980e+01 +8.1500521526459089e+00 +0.0000000000000000e+00 +1.0199999432040936e+01 -3.1183915254963515e-02 -5.9311223143410852e-01 +5.9631116432746463e-03
1.0299999999999979e+01 +8.1499940687039860e+00 +0.0000000000000000e+00 +1.0299999415172080e+01 -3.1183979885760816e-02 -5.9311232152059801e-01 +5.9631740973613376e-03
1.0399999999999979e+01 +8.1499354180937758e+00 +0.0000000000000000e+00 +1.0399999397972474e+01 -3.1184033357063004e-02 -5.9311241255683222e-01 +5.9632353667730606e-03
1.0499999999999979e+01 +8.1498762008151946e+00 +0.0000000000000000e+00 +1.0499999380438908e+01 -3.1184076618136460e-02 -5.9311250444423258e-01 +5.9632955495004178e-03
1.0599999999999978e+01 +8.1498164168681555e+00 +0.0000000000000000e+00 +1.0599999362568171e+01 -3.1184110618228265e-02 -5.9311259708423558e-01 +5.9633547435295059e-03
1.0699999999999978e+01 +8.1497560662525714e+00 +0.0000000000000000e+00 +1.0699999344357051e+01 -3.1184136306565701e-02 -5.9311269037829617e-01 +5.9634130468418220e-03
1.0799999999999978e+01 +8.1496951489683553e+00 +0.0000000000000000e+00 +1.0799999325802338e+01 -3.1184154632355771e-02 -5.9311278422788527e-01 +5.9634705574141333e-03
1.0899999999999977e+01 +8.1496336650154202e+00 +0.0000000000000000e+00 +1.0899999306900821e+01 -3.1184166544784626e-02 -5.9311287853449213e-01 +5.9635273732183674e-03
1.0999999999999977e+01 +8.1495716143936772e+00 +0.0000000000000000e+00 +1.0999999287649286e+01 -3.1184172993017085e-02 -5.9311297319962419e-01 +5.9635835922215085e-03
1.1099999999999977e+01 +8.1495089971030374e+00 +0.0000000000000000e+00 +1.1099999268044526e+01 -3.1184174926196125e-02 -5.9311306812480713e-01 +5.9636393123854783e-03
1.1199999999999976e+01 +8.1494458131434140e+00 +0.0000000000000000e+00 +1.1199999248083326e+01 -3.1184173293442349e-02 -5.9311316321158569e-01 +5.9636946316670072e-03
1.1299999999999976e+01 +8.1493820625147162e+00 +0.0000000000000000e+00 +1.1299999227762477e+01 -3.1184169043853498e-02 -5.9311325836152384e-01 +5.9637496480175467e-03
1.1399999999999975e+01 +8.1493177452168570e+00 +0.0000000000000000e+00 +1.1399999207078768e+01 -3.1184163126503850e-02 -5.9311335347620497e-01 +5.9638044593831336e-03
1.1499999999999975e+01 +8.1492528612497459e+00 +0.0000000000000000e+00 +1.1499999186028985e+01 -3.1184156490443846e-02 -5.9311344845723357e-01 +5.9638591637042881e-03
1.1599999999999975e+01 +8.1491874106132958e+00 +0.0000000000000000e+00 +1.1599999164609919e+01 -3.1184150084699450e-02 -5.9311354320623377e-01 +5.9639138589158954e-03
1.1699999999999974e+01 +8.1491213933074160e+00 +0.0000000000000000e+00 +1.1699999142818360e+01 -3.1184144858271687e-02 -5.9311363762485036e-01 +5.9639686429470914e-03
1.1799999999999974e+01 +8.1490548093320214e+00 +0.0000000000000000e+00 +1.1799999120651094e+01 -3.1184141760136126e-02 -5.9311373161475078e-01 +5.9640236137211387e-03
