# trajectory
# s[mm] rx[mm] ry[mm] rz[mm] px[rad] py[rad] pz[rad]
0.0000000000000000e+00 +8.1529999999999987e+00 +0.0000000000000000e+00 +0.0000000000000000e+00 +0.0000000000000000e+00 +0.0000000000000000e+00 +1.0000000000000000e+00
1.0000000000000001e-01 +8.1529997166576589e+00 +0.0000000000000000e+00 +9.9999999999464781e-02 -5.6668463939503580e-06 +0.0000000000000000e+00 +9.9999999998394340e-01
2.0000000000000001e-01 +8.1529988666307975e+00 +0.0000000000000000e+00 +1.9999999999571827e-01 -1.1333690414348445e-05 +0.0000000000000000e+00 +9.9999999993577371e-01
3.0000000000000004e-01 +8.1529974499196562e+00 +0.0000000000000000e+00 +2.9999999998554910e-01 -1.7000531993082877e-05 +0.0000000000000000e+00 +9.9999999985549093e-01
4.0000000000000002e-01 +8.1529954665244819e+00 +0.0000000000000000e+00 +3.9999999996574598e-01 -2.2667371065968986e-05 +0.0000000000000000e+00 +9.9999999974309517e-01
5.0000000000000000e-01 +8.1529929164455286e+00 +0.0000000000000000e+00 +4.9999999993309763e-01 -2.8334207572748706e-05 +0.0000000000000000e+00 +9.9999999959858632e-01
5.9999999999999998e-01 +8.1529897996830556e+00 +0.0000000000000000e+00 +5.9999999988439279e-01 -3.4001041457090448e-05 +0.0000000000000000e+00 +9.9999999942196460e-01
6.9999999999999996e-01 +8.1529861162373276e+00 +0.0000000000000000e+00 +6.9999999981642014e-01 -3.9667872666588960e-05 +0.0000000000000000e+00 +9.9999999921322991e-01
7.9999999999999993e-01 +8.1529818661086146e+00 +0.0000000000000000e+00 +7.9999999972596836e-01 -4.5334701152765205e-05 +0.0000000000000000e+00 +9.9999999897238245e-01
8.9999999999999991e-01 +8.1529770492971902e+00 +0.0000000000000000e+00 +8.9999999960982624e-01 -5.1001526871066220e-05 +0.0000000000000000e+00 +9.9999999869942213e-01
9.9999999999999989e-01 +8.1529716658033333e+00 +0.0000000000000000e+00 +9.9999999946478235e-01 -5.6668349780864971e-05 +0.0000000000000000e+00 +9.9999999839434905e-01
1.0999999999999999e+00 +8.1529657156273281e+00 +0.0000000000000000e+00 +1.0999999992876255e+00 -6.2335169845460211e-05 +0.0000000000000000e+00 +9.9999999805716333e-01
1.2000000000000000e+00 +8.1529591987694605e+00 +0.0000000000000000e+00 +1.1999999990751444e+00 -6.8001987032076326e-05 +0.0000000000000000e+00 +9.9999999768786496e-01
1.3000000000000000e+00 +8.1529521152300184e+00 +0.0000000000000000e+00 +1.2999999988241280e+00 -7.3668801311863190e-05 +0.0000000000000000e+00 +9.9999999728645395e-01
1.4000000000000001e+00 +8.1529444650092948e+00 +0.0000000000000000e+00 +1.3999999985313647e+00 -7.9335612659895986e-05 +0.0000000000000000e+00 +9.9999999685293040e-01
1.5000000000000002e+00 +8.1529362481075847e+00 +0.0000000000000000e+00 +1.4999999981936436e+00 -8.5002421055175057e-05 +0.0000000000000000e+00 +9.9999999638729431e-01
1.6000000000000003e+00 +8.1529274645251828e+00 +0.0000000000000000e+00 +1.5999999978077533e+00 -9.0669226480625753e-05 +0.0000000000000000e+00 +9.9999999588954580e-01
1.7000000000000004e+00 +8.1529181142623877e+00 +0.0000000000000000e+00 +1.6999999973704825e+00 -9.6336028923098231e-05 +0.0000000000000000e+00 +9.9999999535968487e-01
1.8000000000000005e+00 +8.1529081973194977e+00 +0.0000000000000000e+00 +1.7999999968786198e+00 -1.0200282837336730e-04 +0.0000000000000000e+00 +9.9999999479771162e-01
1.9000000000000006e+00 +8.1528977136968130e+00 +0.0000000000000000e+00 +1.8999999963289542e+00 -1.0766962482613224e-04 +0.0000000000000000e+00 +9.9999999420362606e-01
2.0000000000000004e+00 +8.1528866633946322e+00 +0.0000000000000000e+00 +1.9999999957182746e+00 -1.1333641828001661e-04 +0.0000000000000000e+00 +9.9999999357742830e-01
2.1000000000000005e+00 +8.1528750464132571e+00 +0.0000000000000000e+00 +2.0999999950433694e+00 -1.1900320873740055e-04 +0.0000000000000000e+00 +9.9999999291911834e-01
2.2000000000000006e+00 +8.1528628627529844e+00 +0.0000000000000000e+00 +2.1999999943010278e+00 -1.2466999620257805e-04 +0.0000000000000000e+00 +9.9999999222869618e-01
2.3000000000000007e+00 +8.1528501124141162e+00 +0.0000000000000000e+00 +2.2999999934880382e+00 -1.3033678067991442e-04 +0.0000000000000000e+00 +9.9999999150616192e-01
2.4000000000000008e+00 +8.1528367953969489e+00 +0.0000000000000000e+00 +2.3999999926011895e+00 -1.3600356217367902e-04 +0.0000000000000000e+00 +9.9999999075151569e-01
2.5000000000000009e+00 +8.1528229117017812e+00 +0.0000000000000000e+00 +2.4999999916372708e+00 -1.4167034068804547e-04 +0.0000000000000000e+00 +9.9999998996475747e-01
2.6000000000000010e+00 +8.1528084613289113e+00 +0.0000000000000000e+00 +2.5999999905930706e+00 -1.4733711622709204e-04 +0.0000000000000000e+00 +9.9999998914588728e-01
2.7000000000000011e+00 +8.1527934442786361e+00 +0.0000000000000000e+00 +2.6999999894653777e+00 -1.5300388879480189e-04 +0.0000000000000000e+00 +9.9999998829490522e-01
2.8000000000000012e+00 +8.1527778605512520e+00 +0.0000000000000000e+00 +2.7999999882509812e+00 -1.5867065839506354e-04 +0.0000000000000000e+00 +9.9999998741181129e-01
2.9000000000000012e+00 +8.1527617101470558e+00 +0.0000000000000000e+00 +2.8999999869466695e+00 -1.6433742503167126e-04 +0.0000000000000000e+00 +9.9999998649660560e-01
3.0000000000000013e+00 +8.1527449930663440e+00 +0.0000000000000000e+00 +2.9999999855492319e+00 -1.7000418870832557e-04 +0.0000000000000000e+00 +9.9999998554928815e-01
3.1000000000000014e+00 +8.1527277093094117e+00 +0.0000000000000000e+00 +3.0999999840554566e+00 -1.7567094942863370e-04 +0.0000000000000000e+00 +9.9999998456985895e-01
3.2000000000000015e+00 +8.1527098588765554e+00 +0.0000000000000000e+00 +3.1999999824621330e+00 -1.8133770719611019e-04 +0.0000000000000000e+00 +9.9999998355831810e-01
3.3000000000000016e+00 +8.1526914417680700e+00 +0.0000000000000000e+00 +3.2999999807660498e+00 -1.8700446201417740e-04 +0.0000000000000000e+00 +9.9999998251466571e-01
3.4000000000000017e+00 +8.1526724579842504e+00 +0.0000000000000000e+00 +3.3999999789639959e+00 -1.9267121388616624e-04 +0.0000000000000000e+00 +9.9999998143890179e-01
3.5000000000000018e+00 +8.1526529075253915e+00 +0.0000000000000000e+00 +3.4999999770527599e+00 -1.9833796281531674e-04 +0.0000000000000000e+00 +9.9999998033102633e-01
3.6000000000000019e+00 +8.1526327903917863e+00 +0.0000000000000000e+00 +3.5999999750291307e+00 -2.0400470880477885e-04 +0.0000000000000000e+00 +9.9999997919103945e-01
3.7000000000000020e+00 +8.1526121065837280e+00 +0.0000000000000000e+00 +3.6999999728898976e+00 -2.0967145185761313e-04 +0.0000000000000000e+00 +9.9999997801894114e-01
3.8000000000000020e+00 +8.1525908561015115e+00 +0.0000000000000000e+00 +3.7999999706318488e+00 -2.1533819197679154e-04 +0.0000000000000000e+00 +9.9999997681473152e-01
3.9000000000000021e+00 +8.1525690389454297e+00 +0.0000000000000000e+00 +3.8999999682517736e+00 -2.2100492916519836e-04 +0.0000000000000000e+00 +9.9999997557841058e-01
4.0000000000000018e+00 +8.1525466551157759e+00 +0.0000000000000000e+00 +3.9999999657464609e+00 -2.2667166342563090e-04 +0.0000000000000000e+00 +9.9999997430997845e-01
4.1000000000000014e+00 +8.1525237046128414e+00 +0.0000000000000000e+00 +4.0999999631126993e+00 -2.3233839476105361e-04 +0.0000000000000000e+00 +9.9999997300943511e-01
4.2000000000000011e+00 +8.1525001874369210e+00 +0.0000000000000000e+00 +4.1999999603472773e+00 -2.3800512317738182e-04 +0.0000000000000000e+00 +9.9999997167678056e-01
4.3000000000000007e+00 +8.1524761035883042e+00 +0.0000000000000000e+00 +4.2999999574469845e+00 -2.4367184868626516e-04 +0.0000000000000000e+00 +9.9999997031201493e-01
4.4000000000000004e+00 +8.1524514530672807e+00 +0.0000000000000000e+00 +4.3999999544086101e+00 -2.4933857130534032e-04 +0.0000000000000000e+00 +9.9999996891513820e-01
4.5000000000000000e+00 +8.1524262358741382e+00 +0.0000000000000000e+00 +4.4999999512289426e+00 -2.5500529105823067e-04 +0.0000000000000000e+00 +9.9999996748615050e-01
4.5999999999999996e+00 +8.1524004520091626e+00 +0.0000000000000000e+00 +4.5999999479047702e+00 -2.6067200797454609e-04 +0.0000000000000000e+00 +9.9999996602505181e-01
4.6999999999999993e+00 +8.1523741014726365e+00 +0.0000000000000000e+00 +4.6999999444328822e+00 -2.6633872208988254e-04 +0.0000000000000000e+00 +9.9999996453184214e-01
4.7999999999999989e+00 +8.1523471842648370e+00 +0.0000000000000000e+00 +4.7999999408100678e+00 -2.7200543344582168e-04 +0.0000000000000000e+00 +9.9999996300652161e-01
4.8999999999999986e+00 +8.1523197003860375e+00 +0.0000000000000000e+00 +4.8999999370331162e+00 -2.7767214208993061e-04 +0.0000000000000000e+00 +9.9999996144909020e-01
4.9999999999999982e+00 +8.1522916498365081e+00 +0.0000000000000000e+00 +4.9999999330988159e+00 -2.8333884807576115e-04 +0.0000000000000000e+00 +9.9999995985954793e-01
5.0999999999999979e+00 +8.1522630326165100e+00 +0.0000000000000000e+00 +5.0999999290039559e+00 -2.8900555146284967e-04 +0.0000000000000000e+00 +9.9999995823789489e-01
5.1999999999999975e+00 +8.1522338487263006e+00 +0.0000000000000000e+00 +5.1999999247453248e+00 -2.9467225231671635e-04 +0.0000000000000000e+00 +9.9999995658413110e-01
5.2999999999999972e+00 +8.1522040981661288e+00 +0.0000000000000000e+00 +5.2999999203197117e+00 -3.0033895070886475e-04 +0.0000000000000000e+00 +9.9999995489825655e-01
5.3999999999999968e+00 +8.1521737809362378e+00 +0.0000000000000000e+00 +5.3999999157239058e+00 -3.0600564671678129e-04 +0.0000000000000000e+00 +9.9999995318027124e-01
5.4999999999999964e+00 +8.1521428970368621e+00 +0.0000000000000000e+00 +5.4999999109546955e+00 -3.1167234042393452e-04 +0.0000000000000000e+00 +9.9999995143017517e-01
5.5999999999999961e+00 +8.1521114464682274e+00 +0.0000000000000000e+00 +5.5999999060088701e+00 -3.1733903191977453e-04 +0.0000000000000000e+00 +9.9999994964796834e-01
5.6999999999999957e+00 +8.1520794292305485e+00 +0.0000000000000000e+00 +5.6999999008832187e+00 -3.2300572129973236e-04 +0.0000000000000000e+00 +9.9999994783365087e-01
5.7999999999999954e+00 +8.1520468453240333e+00 +0.0000000000000000e+00 +5.7999998955745298e+00 -3.2867240866521919e-04 +0.0000000000000000e+00 +9.9999994598722264e-01
5.8999999999999950e+00 +8.1520136947488790e+00 +0.0000000000000000e+00 +5.8999998900795925e+00 -3.3433909412362568e-04 +0.0000000000000000e+00 +9.9999994410868376e-01
5.9999999999999947e+00 +8.1519799775052686e+00 +0.0000000000000000e+00 +5.9999998843951960e+00 -3.4000577778832116e-04 +0.0000000000000000e+00 +9.9999994219803412e-01
6.0999999999999943e+00 +8.1519456935933761e+00 +0.0000000000000000e+00 +6.0999998785181289e+00 -3.4567245977826873e-04 +0.0000000000000000e+00 +9.9999994025527372e-01
6.1999999999999940e+00 +8.1519108430133649e+00 +0.0000000000000000e+00 +6.1999998724451801e+00 -3.5133914021379944e-04 +0.0000000000000000e+00 +9.9999993828040257e-01
6.2999999999999936e+00 +8.1518754257653825e+00 +0.0000000000000000e+00 +6.2999998661731391e+00 -3.5700581921238676e-04 +0.0000000000000000e+00 +9.9999993627342065e-01
6.3999999999999932e+00 +8.1518394418495674e+00 +0.0000000000000000e+00 +6.3999998596987941e+00 -3.6267249688826244e-04 +0.0000000000000000e+00 +9.9999993423432798e-01
6.4999999999999929e+00 +8.1518028912660458e+00 +0.0000000000000000e+00 +6.4999998530189345e+00 -3.6833917335241665e-04 +0.0000000000000000e+00 +9.9999993216312455e-01
6.5999999999999925e+00 +8.1517657740149332e+00 +0.0000000000000000e+00 +6.5999998461303484e+00 -3.7400584871259782e-04 +0.0000000000000000e+00 +9.9999993005981025e-01
6.6999999999999922e+00 +8.1517280900963360e+00 +0.0000000000000000e+00 +6.6999998390298261e+00 -3.7967252307331275e-04 +0.0000000000000000e+00 +9.9999992792438519e-01
6.7999999999999918e+00 +8.1516898395103485e+00 +0.0000000000000000e+00 +6.7999998317141550e+00 -3.8533919653582663e-04 +0.0000000000000000e+00 +9.9999992575684926e-01
6.8999999999999915e+00 +8.1516510222570560e+00 +0.0000000000000000e+00 +6.8999998241801253e+00 -3.9100586919816298e-04 +0.0000000000000000e+00 +9.9999992355720246e-01
6.9999999999999911e+00 +8.1516116383365329e+00 +0.0000000000000000e+00 +6.9999998164245252e+00 -3.9667254115510373e-04 +0.0000000000000000e+00 +9.9999992132544469e-01
7.0999999999999908e+00 +8.1515716877488451e+00 +0.0000000000000000e+00 +7.0999998084441440e+00 -4.0233921249818928e-04 +0.0000000000000000e+00 +9.9999991906157604e-01
7.1999999999999904e+00 +8.1515311704940512e+00 +0.0000000000000000e+00 +7.1999998002357701e+00 -4.0800588331571833e-04 +0.0000000000000000e+00 +9.9999991676559641e-01
7.2999999999999901e+00 +8.1514900865721973e+00 +0.0000000000000000e+00 +7.2999997917961927e+00 -4.1367255369274808e-04 +0.0000000000000000e+00 +9.9999991443750580e-01
7.3999999999999897e+00 +8.1514484359833244e+00 +0.0000000000000000e+00 +7.3999997831222011e+00 -4.1933922371109426e-04 +0.0000000000000000e+00 +9.9999991207730421e-01
7.4999999999999893e+00 +8.1514062187274643e+00 +0.0000000000000000e+00 +7.4999997742105835e+00 -4.2500589344933112e-04 +0.0000000000000000e+00 +9.9999990968499153e-01
7.5999999999999890e+00 +8.1513634348046420e+00 +0.0000000000000000e+00 +7.5999997650581292e+00 -4.3067256298279135e-04 +0.0000000000000000e+00 +9.9999990726056776e-01
7.6999999999999886e+00 +8.1513200842148734e+00 +0.0000000000000000e+00 +7.6999997556616266e+00 -4.3633923238356633e-04 +0.0000000000000000e+00 +9.9999990480403289e-01
7.7999999999999883e+00 +8.1512761669581675e+00 +0.0000000000000000e+00 +7.7999997460178649e+00 -4.4200590172050597e-04 +0.0000000000000000e+00 +9.9999990231538693e-01
7.8999999999999879e+00 +8.1512316830345295e+00 +0.0000000000000000e+00 +7.8999997361236334e+00 -4.4767257105921888e-04 +0.0000000000000000e+00 +9.9999989979462978e-01
7.9999999999999876e+00 +8.1511866324439541e+00 +0.0000000000000000e+00 +7.9999997259757203e+00 -4.5333924046207238e-04 +0.0000000000000000e+00 +9.9999989724176153e-01
8.0999999999999872e+00 +8.1511410151864325e+00 +0.0000000000000000e+00 +8.0999997155709149e+00 -4.5900590998823219e-04 +0.0000000000000000e+00 +9.9999989465678207e-01
8.1999999999999869e+00 +8.1510948312619504e+00 +0.0000000000000000e+00 +8.1999997049060056e+00 -4.6467257969409840e-04 +0.0000000000000000e+00 +9.9999989203969131e-01
8.2999999999999865e+00 +8.1510480806704866e+00 +0.0000000000000000e+00 +8.2999996939777816e+00 -4.7033924963374164e-04 +0.0000000000000000e+00 +9.9999988939048934e-01
8.3999999999999861e+00 +8.1510007634120143e+00 +0.0000000000000000e+00 +8.3999996827830330e+00 -4.7600591985894286e-04 +0.0000000000000000e+00 +9.9999988670917606e-01
8.4999999999999858e+00 +8.1509528794865034e+00 +0.0000000000000000e+00 +8.4999996713185464e+00 -4.8167259041919313e-04 +0.0000000000000000e+00 +9.9999988399575146e-01
8.5999999999999854e+00 +8.1509044288939183e+00 +0.0000000000000000e+00 +8.5999996595811119e+00 -4.8733926136169389e-04 +0.0000000000000000e+00 +9.9999988125021544e-01
8.6999999999999851e+00 +8.1508554116342182e+00 +0.0000000000000000e+00 +8.6999996475675179e+00 -4.9300593273135691e-04 +0.0000000000000000e+00 +9.9999987847256810e-01
8.7999999999999847e+00 +8.1508058277073570e+00 +0.0000000000000000e+00 +8.7999996352745544e+00 -4.9867260457080436e-04 +0.0000000000000000e+00 +9.9999987566280935e-01
8.8999999999999844e+00 +8.1507556771132865e+00 +0.0000000000000000e+00 +8.8999996226990099e+00 -5.0433927692036882e-04 +0.0000000000000000e+00 +9.9999987282093916e-01
8.9999999999999840e+00 +8.1507049598519536e+00 +0.0000000000000000e+00 +8.9999996098376727e+00 -5.1000594981809343e-04 +0.0000000000000000e+00 +9.9999986994695744e-01
9.0999999999999837e+00 +8.1506536759233033e+00 +0.0000000000000000e+00 +9.0999995966873310e+00 -5.1567262329973182e-04 +0.0000000000000000e+00 +9.9999986704086430e-01
9.1999999999999833e+00 +8.1506018253272732e+00 +0.0000000000000000e+00 +9.1999995832447752e+00 -5.2133929739874832e-04 +0.0000000000000000e+00 +9.9999986410265962e-01
9.2999999999999829e+00 +8.1505494080638012e+00 +0.0000000000000000e+00 +9.2999995695067934e+00 -5.2700597214631786e-04 +0.0000000000000000e+00 +9.9999986113234340e-01
9.3999999999999826e+00 +8.1504964241328217e+00 +0.0000000000000000e+00 +9.3999995554701741e+00 -5.3267264757132619e-04 +0.0000000000000000e+00 +9.9999985812991554e-01
9.4999999999999822e+00 +8.1504428735342636e+00 +0.0000000000000000e+00 +9.4999995411317055e+00 -5.3833932370036966e-04 +0.0000000000000000e+00 +9.9999985509537614e-01
9.5999999999999819e+00 +8.1503887562680575e+00 +0.0000000000000000e+00 +9.5999995264881779e+00 -5.4400600055775575e-04 +0.0000000000000000e+00 +9.9999985202872510e-01
9.6999999999999815e+00 +8.1503340723341271e+00 +0.0000000000000000e+00 +9.6999995115363795e+00 -5.4967267816550278e-04 +0.0000000000000000e+00 +9.9999984892996241e-01
9.7999999999999812e+00 +8.1502788217323978e+00 +0.0000000000000000e+00 +9.7999994962730987e+00 -5.5533935654334006e-04 +0.0000000000000000e+00 +9.9999984579908807e-01
9.8999999999999808e+00 +8.1502230044627915e+00 +0.0000000000000000e+00 +9.8999994806951257e+00 -5.6100603570870798e-04 +0.0000000000000000e+00 +9.9999984263610198e-01
9.9999999999999805e+00 +8.1501666205252281e+00 +0.0000000000000000e+00 +9.9999994647992487e+00 -5.6667271567675814e-04 +0.0000000000000000e+00 +9.9999983944100412e-01
1.0099999999999980e+01 +8.1501096699196278e+00 +0.0000000000000000e+00 +1.0099999448582256e+01 -5.7233939646040947e-04 +0.0000000000000000e+00 +9.9999983621379462e-01
1.0199999999999980e+01 +8.1500521526459089e+00 +0.0000000000000000e+00 +1.0199999432040936e+01 -5.7800607807096532e-04 +0.0000000000000000e+00 +9.9999983295447337e-01
1.0299999999999979e+01 +8.1499940687039860e+00 +0.0000000000000000e+00 +1.0299999415172080e+01 -5.8367276051873081e-04 +0.0000000000000000e+00 +9.9999982966304024e-01
1.0399999999999979e+01 +8.1499354180937758e+00 +0.0000000000000000e+00 +1.0399999397972474e+01 -5.8933944381306890e-04 +0.0000000000000000e+00 +9.9999982633949536e-01
1.0499999999999979e+01 +8.1498762008151946e+00 +0.0000000000000000e+00 +1.0499999380438908e+01 -5.9500612796240080e-04 +0.0000000000000000e+00 +9.9999982298383860e-01
1.0599999999999978e+01 +8.1498164168681555e+00 +0.0000000000000000e+00 +1.0599999362568171e+01 -6.0067281297420576e-04 +0.0000000000000000e+00 +9.9999981959606998e-01
1.0699999999999978e+01 +8.1497560662525714e+00 +0.0000000000000000e+00 +1.0699999344357051e+01 -6.0633949885502154e-04 +0.0000000000000000e+00 +9.9999981617618949e-01
1.0799999999999978e+01 +8.1496951489683553e+00 +0.0000000000000000e+00 +1.0799999325802338e+01 -6.1200618561044434e-04 +0.0000000000000000e+00 +9.9999981272419713e-01
1.0899999999999977e+01 +8.1496336650154202e+00 +0.0000000000000000e+00 +1.0899999306900821e+01 -6.1767287324512930e-04 +0.0000000000000000e+00 +9.9999980924009291e-01
1.0999999999999977e+01 +8.1495716143936772e+00 +0.0000000000000000e+00 +1.0999999287649286e+01 -6.2333956176279035e-04 +0.0000000000000000e+00 +9.9999980572387681e-01
1.1099999999999977e+01 +8.1495089971030374e+00 +0.0000000000000000e+00 +1.1099999268044526e+01 -6.2900625116620046e-04 +0.0000000000000000e+00 +9.9999980217554874e-01
1.1199999999999976e+01 +8.1494458131434140e+00 +0.0000000000000000e+00 +1.1199999248083326e+01 -6.3467294145719180e-04 +0.0000000000000000e+00 +9.9999979859510868e-01
1.1299999999999976e+01 +8.1493820625147162e+00 +0.0000000000000000e+00 +1.1299999227762477e+01 -6.4033963263665614e-04 +0.0000000000000000e+00 +9.9999979498255664e-01
1.1399999999999975e+01 +8.1493177452168570e+00 +0.0000000000000000e+00 +1.1399999207078768e+01 -6.4600632470454469e-04 +0.0000000000000000e+00 +9.9999979133789263e-01
1.1499999999999975e+01 +8.1492528612497459e+00 +0.0000000000000000e+00 +1.1499999186028985e+01 -6.5167301765986865e-04 +0.0000000000000000e+00 +9.9999978766111663e-01
1.1599999999999975e+01 +8.1491874106132958e+00 +0.0000000000000000e+00 +1.1599999164609919e+01 -6.5733971150069913e-04 +0.0000000000000000e+00 +9.9999978395222866e-01
1.1699999999999974e+01 +8.1491213933074160e+00 +0.0000000000000000e+00 +1.1699999142818360e+01 -6.6300640622416742e-04 +0.0000000000000000e+00 +9.9999978021122871e-01
1.1799999999999974e+01 +8.1490548093320214e+00 +0.0000000000000000e+00 +1.1799999120651094e+01 -6.6867310182646528e-04 +0.0000000000000000e+00 +9.9999977643811666e-01
