# field on trajectory
# s[mm] rx[mm] ry[mm] rz[mm] bx[T] by[T] bz[T]
0.0000000000000000e+00 +8.1529999999999987e+00 +0.0000000000000000e+00 +0.0000000000000000e+00 -3.0935581977494853e-02 -5.9317712269659595e-01 +5.9152827273290251e-03
1.0000000000000001e-01 +8.1529997166348682e+00 +0.0000000000000000e+00 +9.9999999999464698e-02 -3.0935620615421357e-02 -5.9317701748649310e-01 +5.9152888326379658e-03
2.0000000000000001e-01 +8.1529988665395425e+00 +0.0000000000000000e+00 +1.9999999999571755e-01 -3.0935672243895335e-02 -5.9317691332451872e-01 +5.9152960029501371e-03
3.0000000000000004e-01 +8.1529974497141211e+00 +0.0000000000000000e+00 +2.9999999998554672e-01 -3.0935736244634852e-02 -5.9317681027186075e-01 +5.9153042598741965e-03
4.0000000000000002e-01 +8.1529954661587034e+00 +0.0000000000000000e+00 +3.9999999996574043e-01 -3.0935811999365886e-02 -5.9317670838969272e-01 +5.9153136250176749e-03
5.0000000000000000e-01 +8.1529929158733854e+00 +0.0000000000000000e+00 +4.9999999993308680e-01 -3.0935898889820748e-02 -5.9317660773917735e-01 +5.9153241199873339e-03
5.9999999999999998e-01 +8.1529897988582647e+00 +0.0000000000000000e+00 +5.9999999988437402e-01 -3.0935996297736731e-02 -5.9317650838147562e-01 +5.9153357663895585e-03
6.9999999999999996e-01 +8.1529861151134355e+00 +0.0000000000000000e+00 +6.9999999981639038e-01 -3.0936103604854527e-02 -5.9317641037775160e-01 +5.9153485858306973e-03
7.9999999999999993e-01 +8.1529818646389902e+00 +0.0000000000000000e+00 +7.9999999972592395e-01 -3.0936220192916909e-02 -5.9317631378917990e-01 +5.9153625999174616e-03
8.9999999999999991e-01 +8.1529770474350229e+00 +0.0000000000000000e+00 +8.9999999960976285e-01 -3.0936345443667152e-02 -5.9317621867695136e-01 +5.9153778302572756e-03
9.9999999999999989e-01 +8.1529716635016243e+00 +0.0000000000000000e+00 +9.9999999946469531e-01 -3.0936478738847605e-02 -5.9317612510227924e-01 +5.9153942984586433e-03
1.0999999999999999e+00 +8.1529657128388848e+00 +0.0000000000000000e+00 +1.0999999992875096e+00 -3.0936619460198284e-02 -5.9317603312640665e-01 +5.9154120261315441e-03
1.2000000000000000e+00 +8.1529591954468916e+00 +0.0000000000000000e+00 +1.1999999990749937e+00 -3.0936766989455328e-02 -5.9317594281061126e-01 +5.9154310348877755e-03
1.3000000000000000e+00 +8.1529521113257317e+00 +0.0000000000000000e+00 +1.2999999988239359e+00 -3.0936920708349584e-02 -5.9317585421621355e-01 +5.9154513463413362e-03
1.4000000000000001e+00 +8.1529444604754904e+00 +0.0000000000000000e+00 +1.3999999985311244e+00 -3.0937079998605191e-02 -5.9317576740458255e-01 +5.9154729821087942e-03
1.5000000000000002e+00 +8.1529362428962493e+00 +0.0000000000000000e+00 +1.4999999981933476e+00 -3.0937244241938010e-02 -5.9317568243714158e-01 +5.9154959638096534e-03
1.6000000000000003e+00 +8.1529274585880902e+00 +0.0000000000000000e+00 +1.5999999978073933e+00 -3.0937412820054223e-02 -5.9317559937537445e-01 +5.9155203130667276e-03
1.7000000000000004e+00 +8.1529181075510930e+00 +0.0000000000000000e+00 +1.6999999973700499e+00 -3.0937585114648922e-02 -5.9317551828083415e-01 +5.9155460515065090e-03
1.8000000000000005e+00 +8.1529081897853359e+00 +0.0000000000000000e+00 +1.7999999968781057e+00 -3.0937760507404558e-02 -5.9317543921514593e-01 +5.9155732007595352e-03
1.9000000000000006e+00 +8.1528977052908953e+00 +0.0000000000000000e+00 +1.8999999963283487e+00 -3.0937938379989535e-02 -5.9317536224001655e-01 +5.9156017824607676e-03
2.0000000000000004e+00 +8.1528866540678440e+00 +0.0000000000000000e+00 +1.9999999957175671e+00 -3.0938118114056730e-02 -5.9317528741723924e-01 +5.9156318182499472e-03
2.1000000000000005e+00 +8.1528750361162547e+00 +0.0000000000000000e+00 +2.0999999950425492e+00 -3.0938299129575617e-02 -5.9317521482281621e-01 +5.9156633273784748e-03
2.2000000000000006e+00 +8.1528628514361952e+00 +0.0000000000000000e+00 +2.1999999943000832e+00 -3.0938480999837769e-02 -5.9317514458928322e-01 +5.9156963195270817e-03
2.3000000000000007e+00 +8.1528501000277345e+00 +0.0000000000000000e+00 +2.2999999934869573e+00 -3.0938663336465982e-02 -5.9317507686329496e-01 +5.9157308019824988e-03
2.4000000000000008e+00 +8.1528367818909384e+00 +0.0000000000000000e+00 +2.3999999925999598e+00 -3.0938845751082772e-02 -5.9317501179149901e-01 +5.9157667820300460e-03
2.5000000000000009e+00 +8.1528228970258674e+00 +0.0000000000000000e+00 +2.4999999916358786e+00 -3.0939027855310990e-02 -5.9317494952052530e-01 +5.9158042669532427e-03
2.6000000000000010e+00 +8.1528084454325835e+00 +0.0000000000000000e+00 +2.5999999905915021e+00 -3.0939209260774498e-02 -5.9317489019698399e-01 +5.9158432640334093e-03
2.7000000000000011e+00 +8.1527934271111437e+00 +0.0000000000000000e+00 +2.6999999894636182e+00 -3.0939389579098794e-02 -5.9317483396745729e-01 +5.9158837805492583e-03
2.8000000000000012e+00 +8.1527778420616013e+00 +0.0000000000000000e+00 +2.7999999882490156e+00 -3.0939568421911649e-02 -5.9317478097849508e-01 +5.9159258237765156e-03
2.9000000000000012e+00 +8.1527616902840077e+00 +0.0000000000000000e+00 +2.8999999869444824e+00 -3.0939745400843800e-02 -5.9317473137660814e-01 +5.9159694009875046e-03
3.0000000000000013e+00 +8.1527449717784091e+00 +0.0000000000000000e+00 +2.9999999855468062e+00 -3.0939920127529521e-02 -5.9317468530826356e-01 +5.9160145194507643e-03
3.1000000000000014e+00 +8.1527276865448517e+00 +0.0000000000000000e+00 +3.0999999840527761e+00 -3.0940092213607343e-02 -5.9317464291987698e-01 +5.9160611864306333e-03
3.2000000000000015e+00 +8.1527098345833764e+00 +0.0000000000000000e+00 +3.1999999824591798e+00 -3.0940261270720661e-02 -5.9317460435780989e-01 +5.9161094091868763e-03
3.3000000000000016e+00 +8.1526914158940222e+00 +0.0000000000000000e+00 +3.2999999807628053e+00 -3.0940426910518362e-02 -5.9317456976835992e-01 +5.9161591949742692e-03
3.4000000000000017e+00 +8.1526724304768212e+00 +0.0000000000000000e+00 +3.3999999789604409e+00 -3.0940588744655526e-02 -5.9317453929775799e-01 +5.9162105510421987e-03
3.5000000000000018e+00 +8.1526528783318017e+00 +0.0000000000000000e+00 +3.4999999770488750e+00 -3.0940746384794035e-02 -5.9317451309216218e-01 +5.9162634846342821e-03
3.6000000000000019e+00 +8.1526327594589922e+00 +0.0000000000000000e+00 +3.5999999750248959e+00 -3.0940899442603184e-02 -5.9317449129765021e-01 +5.9163180029879539e-03
3.7000000000000020e+00 +8.1526120738584122e+00 +0.0000000000000000e+00 +3.6999999728852915e+00 -3.0941047529760450e-02 -5.9317447406021562e-01 +5.9163741133340777e-03
3.8000000000000020e+00 +8.1525908215300795e+00 +0.0000000000000000e+00 +3.7999999706268501e+00 -3.0941190257951969e-02 -5.9317446152576092e-01 +5.9164318228965449e-03
3.9000000000000021e+00 +8.1525690024740065e+00 +0.0000000000000000e+00 +3.8999999682463602e+00 -3.0941327238873301e-02 -5.9317445384009149e-01 +5.9164911388918696e-03
4.0000000000000018e+00 +8.1525466166902003e+00 +0.0000000000000000e+00 +3.9999999657406096e+00 -3.0941458084230065e-02 -5.9317445114891110e-01 +5.9165520685288131e-03
4.1000000000000014e+00 +8.1525236641786663e+00 +0.0000000000000000e+00 +4.0999999631063870e+00 -3.0941582453592919e-02 -5.9317445367856259e-01 +5.9166145959449121e-03
4.2000000000000011e+00 +8.1525001449394008e+00 +0.0000000000000000e+00 +4.1999999603404801e+00 -3.0941700197961702e-02 -5.9317446197829582e-01 +5.9166786130206567e-03
4.3000000000000007e+00 +8.1524760589723986e+00 +0.0000000000000000e+00 +4.2999999574396774e+00 -3.0941811216202830e-02 -5.9317447667808221e-01 +5.9167439885753469e-03
4.4000000000000004e+00 +8.1524514062776454e+00 +0.0000000000000000e+00 +4.3999999544007666e+00 -3.0941915407195483e-02 -5.9317449840787417e-01 +5.9168105914313941e-03
4.5000000000000000e+00 +8.1524261868551200e+00 +0.0000000000000000e+00 +4.4999999512205360e+00 -3.0942012669832267e-02 -5.9317452779760482e-01 +5.9168782904146216e-03
4.5999999999999996e+00 +8.1524004007047957e+00 +0.0000000000000000e+00 +4.5999999478957747e+00 -3.0942102903019828e-02 -5.9317456547718816e-01 +5.9169469543545608e-03
4.6999999999999993e+00 +8.1523740478266387e+00 +0.0000000000000000e+00 +4.6999999444232703e+00 -3.0942186005679561e-02 -5.9317461207652045e-01 +5.9170164520847505e-03
4.7999999999999989e+00 +8.1523471282206046e+00 +0.0000000000000000e+00 +4.7999999407998102e+00 -3.0942261876748242e-02 -5.9317466822547882e-01 +5.9170866524430330e-03
4.8999999999999986e+00 +8.1523196418866402e+00 +0.0000000000000000e+00 +4.8999999370221836e+00 -3.0942330415178701e-02 -5.9317473455392222e-01 +5.9171574242718348e-03
4.9999999999999982e+00 +8.1522915888246814e+00 +0.0000000000000000e+00 +4.9999999330871781e+00 -3.0942391519940451e-02 -5.9317481169169084e-01 +5.9172286364184874e-03
5.0999999999999979e+00 +8.1522629690346573e+00 +0.0000000000000000e+00 +5.0999999289915818e+00 -3.0942445090020379e-02 -5.9317490026860764e-01 +5.9173001577354995e-03
5.1999999999999975e+00 +8.1522337825164843e+00 +0.0000000000000000e+00 +5.1999999247321833e+00 -3.0942491024423372e-02 -5.9317500091447695e-01 +5.9173718570808675e-03
5.2999999999999972e+00 +8.1522040292700666e+00 +0.0000000000000000e+00 +5.2999999203057708e+00 -3.0942529222173016e-02 -5.9317511425908498e-01 +5.9174436033183689e-03
5.3999999999999968e+00 +8.1521737092952957e+00 +0.0000000000000000e+00 +5.3999999157091327e+00 -3.0942559582312207e-02 -5.9317524093220053e-01 +5.9175152653178544e-03
5.4999999999999964e+00 +8.1521428225920527e+00 +0.0000000000000000e+00 +5.4999999109390565e+00 -3.0942582003903863e-02 -5.9317538156357441e-01 +5.9175867119555430e-03
5.5999999999999961e+00 +8.1521113691602043e+00 +0.0000000000000000e+00 +5.5999999059923304e+00 -3.0942596386031557e-02 -5.9317553678294022e-01 +5.9176578121143244e-03
5.6999999999999957e+00 +8.1520793489996031e+00 +0.0000000000000000e+00 +5.6999999008657429e+00 -3.0942602627800152e-02 -5.9317570722001423e-01 +5.9177284346840480e-03
5.7999999999999954e+00 +8.1520467621100874e+00 +0.0000000000000000e+00 +5.7999998955560823e+00 -3.0942600628336526e-02 -5.9317589350449396e-01 +5.9177984485618267e-03
5.8999999999999950e+00 +8.1520136084914796e+00 +0.0000000000000000e+00 +5.8999998900601360e+00 -3.0942590286790191e-02 -5.9317609626606171e-01 +5.9178677226523245e-03
5.9999999999999947e+00 +8.1519798881435879e+00 +0.0000000000000000e+00 +5.9999998843746924e+00 -3.0942571502333944e-02 -5.9317631613438160e-01 +5.9179361258680559e-03
6.0999999999999943e+00 +8.1519456010662026e+00 +0.0000000000000000e+00 +6.0999998784965399e+00 -3.0942544375127390e-02 -5.9317655337182962e-01 +5.9180035532497210e-03
6.1999999999999940e+00 +8.1519107472590981e+00 +0.0000000000000000e+00 +6.1999998724224668e+00 -3.0942509809193403e-02 -5.9317680677169538e-01 +5.9180700043212119e-03
6.2999999999999936e+00 +8.1518753267220347e+00 +0.0000000000000000e+00 +6.2999998661492604e+00 -3.0942468909501177e-02 -5.9317707476003101e-01 +5.9181355047192765e-03
6.3999999999999932e+00 +8.1518393394547566e+00 +0.0000000000000000e+00 +6.3999998596737093e+00 -3.0942422780996983e-02 -5.9317735576292985e-01 +5.9182000800714930e-03
6.4999999999999929e+00 +8.1518027854569954e+00 +0.0000000000000000e+00 +6.4999998529926017e+00 -3.0942372528602970e-02 -5.9317764820652963e-01 +5.9182637559958597e-03
6.5999999999999925e+00 +8.1517656647284742e+00 +0.0000000000000000e+00 +6.5999998461027252e+00 -3.0942319257215946e-02 -5.9317795051701550e-01 +5.9183265581004060e-03
6.6999999999999922e+00 +8.1517279772689069e+00 +0.0000000000000000e+00 +6.6999998390008679e+00 -3.0942264071706135e-02 -5.9317826112062133e-01 +5.9183885119827766e-03
6.7999999999999918e+00 +8.1516897230779968e+00 +0.0000000000000000e+00 +6.7999998316838184e+00 -3.0942208076915952e-02 -5.9317857844363220e-01 +5.9184496432298211e-03
6.8999999999999915e+00 +8.1516509021554420e+00 +0.0000000000000000e+00 +6.8999998241483640e+00 -3.0942152377658769e-02 -5.9317890091238845e-01 +5.9185099774172059e-03
6.9999999999999911e+00 +8.1516115145009351e+00 +0.0000000000000000e+00 +6.9999998163912931e+00 -3.0942098078717679e-02 -5.9317922695328518e-01 +5.9185695401090012e-03
7.0999999999999908e+00 +8.1515715601141672e+00 +0.0000000000000000e+00 +7.0999998084093940e+00 -3.0942046284844323e-02 -5.9317955499277719e-01 +5.9186283568572751e-03
7.1999999999999904e+00 +8.1515310389948255e+00 +0.0000000000000000e+00 +7.1999998001994543e+00 -3.0941998100757533e-02 -5.9317988345737926e-01 +5.9186864532016891e-03
7.2999999999999901e+00 +8.1514899511425973e+00 +0.0000000000000000e+00 +7.2999997917582622e+00 -3.0941954631142281e-02 -5.9318021077367089e-01 +5.9187438546690983e-03
7.3999999999999897e+00 +8.1514482965571720e+00 +0.0000000000000000e+00 +7.3999997830826052e+00 -3.0941916980648250e-02 -5.9318053536829662e-01 +5.9188005867731484e-03
7.4999999999999893e+00 +8.1514060752382420e+00 +0.0000000000000000e+00 +7.4999997741692717e+00 -3.0941886253888742e-02 -5.9318085566796908e-01 +5.9188566750138540e-03
7.5999999999999890e+00 +8.1513632871855002e+00 +0.0000000000000000e+00 +7.5999997650150499e+00 -3.0941863555439396e-02 -5.9318117009947169e-01 +5.9189121448772206e-03
7.6999999999999886e+00 +8.1513199323986498e+00 +0.0000000000000000e+00 +7.6999997556167283e+00 -3.0941849989836939e-02 -5.9318147708966085e-01 +5.9189670218348219e-03
7.7999999999999883e+00 +8.1512760108773978e+00 +0.0000000000000000e+00 +7.7999997459710935e+00 -3.0941846661577978e-02 -5.9318177506546788e-01 +5.9190213313434015e-03
7.8999999999999879e+00 +8.1512315226214618e+00 +0.0000000000000000e+00 +7.8999997360749346e+00 -3.0941854675117751e-02 -5.9318206245390237e-01 +5.9190750988444641e-03
7.9999999999999876e+00 +8.1511864676305681e+00 +0.0000000000000000e+00 +7.9999997259250391e+00 -3.0941875134868888e-02 -5.9318233768205320e-01 +5.9191283497638802e-03
8.0999999999999872e+00 +8.1511408459044556e+00 +0.0000000000000000e+00 +8.0999997155181944e+00 -3.0941908816190699e-02 -5.9318259970682552e-01 +5.9191811367285728e-03
8.1999999999999869e+00 +8.1510946574428758e+00 +0.0000000000000000e+00 +8.1999997048511908e+00 -3.0941955178368567e-02 -5.9318284960413326e-01 +5.9192336212284397e-03
8.2999999999999865e+00 +8.1510479022455922e+00 +0.0000000000000000e+00 +8.2999996939208138e+00 -3.0942013351682254e-02 -5.9318308897965288e-01 +5.9192859919822817e-03
8.3999999999999861e+00 +8.1510005803123757e+00 +0.0000000000000000e+00 +8.3999996827238519e+00 -3.0942082466426230e-02 -5.9318331943907443e-01 +5.9193384377232670e-03
8.4999999999999858e+00 +8.1509526916430080e+00 +0.0000000000000000e+00 +8.4999996712570933e+00 -3.0942161652910301e-02 -5.9318354258810202e-01 +5.9193911471994510e-03
8.5999999999999854e+00 +8.1509042362372774e+00 +0.0000000000000000e+00 +8.5999996595173265e+00 -3.0942250041460222e-02 -5.9318376003245499e-01 +5.9194443091743071e-03
8.6999999999999851e+00 +8.1508552140949782e+00 +0.0000000000000000e+00 +8.6999996475013397e+00 -3.0942346762418270e-02 -5.9318397337786666e-01 +5.9194981124272338e-03
8.7999999999999847e+00 +8.1508056252159058e+00 +0.0000000000000000e+00 +8.7999996352059213e+00 -3.0942450946143920e-02 -5.9318418423008590e-01 +5.9195527457541024e-03
8.8999999999999844e+00 +8.1507554695998632e+00 +0.0000000000000000e+00 +8.8999996226278579e+00 -3.0942561723014367e-02 -5.9318439419487601e-01 +5.9196083979677662e-03
8.9999999999999840e+00 +8.1507047472466496e+00 +0.0000000000000000e+00 +8.9999996097639379e+00 -3.0942678223425168e-02 -5.9318460487801572e-01 +5.9196652578985846e-03
9.0999999999999837e+00 +8.1506534581560643e+00 +0.0000000000000000e+00 +9.0999995966109495e+00 -3.0942799577790898e-02 -5.9318481788529953e-01 +5.9197235143949546e-03
9.1999999999999833e+00 +8.1506016023279066e+00 +0.0000000000000000e+00 +9.1999995831656793e+00 -3.0942924916545645e-02 -5.9318503482253659e-01 +5.9197833563238225e-03
9.2999999999999829e+00 +8.1505491797619705e+00 +0.0000000000000000e+00 +9.2999995694249176e+00 -3.0943053370143709e-02 -5.9318525729555271e-01 +5.9198449725712237e-03
9.3999999999999826e+00 +8.1504961904580462e+00 +0.0000000000000000e+00 +9.3999995553854507e+00 -3.0943184069060208e-02 -5.9318548691018913e-01 +5.9199085520427941e-03
9.4999999999999822e+00 +8.1504426344159153e+00 +0.0000000000000000e+00 +9.4999995410440672e+00 -3.0943316143791602e-02 -5.9318572527230307e-01 +5.9199742836642940e-03
9.5999999999999819e+00 +8.1503885116353505e+00 +0.0000000000000000e+00 +9.5999995263975553e+00 -3.0943448724856392e-02 -5.9318597398776840e-01 +5.9200423563821360e-03
9.6999999999999815e+00 +8.1503338221161172e+00 +0.0000000000000000e+00 +9.6999995114427033e+00 -3.0943580942795684e-02 -5.9318623466247522e-01 +5.9201129591639132e-03
9.7999999999999812e+00 +8.1502785658579668e+00 +0.0000000000000000e+00 +9.7999994961762980e+00 -3.0943711928173776e-02 -5.9318650890232960e-01 +5.9201862809989021e-03
9.8999999999999808e+00 +8.1502227428606400e+00 +0.0000000000000000e+00 +9.8999994805951275e+00 -3.0943840811578839e-02 -5.9318679831325616e-01 +5.9202625108986124e-03
9.9999999999999805e+00 +8.1501663531238595e+00 +0.0000000000000000e+00 +9.9999994646959802e+00 -3.0943966723623418e-02 -5.9318710450119416e-01 +5.9203418378972845e-03
1.0099999999999980e+01 +8.1501093966473377e+00 +0.0000000000000000e+00 +1.0099999448475645e+01 -3.0944088925444261e-02 -5.9318742871645702e-01 +5.9204243653015907e-03
1.0199999999999980e+01 +8.1500518734307654e+00 +0.0000000000000000e+00 +1.0199999431930907e+01 -3.0944207200189255e-02 -5.9318777078676999e-01 +5.9205098534232158e-03
1.0299999999999979e+01 +8.1499937834738176e+00 +0.0000000000000000e+00 +1.0299999415058556e+01 -3.0944321461481829e-02 -5.9318813018420757e-01 +5.9205979768169516e-03
1.0399999999999979e+01 +8.1499351267761515e+00 +0.0000000000000000e+00 +1.0399999397855380e+01 -3.0944431622912012e-02 -5.9318850638085008e-01 +5.9206884100316487e-03
1.0499999999999979e+01 +8.1498759033374117e+00 +0.0000000000000000e+00 +1.0499999380318165e+01 -3.0944537598035619e-02 -5.9318889884878057e-01 +5.9207808276100166e-03
1.0599999999999978e+01 +8.1498161131572235e+00 +0.0000000000000000e+00 +1.0599999362443702e+01 -3.0944639300373455e-02 -5.9318930706008777e-01 +5.9208749040884192e-03
1.0699999999999978e+01 +8.1497557562352014e+00 +0.0000000000000000e+00 +1.0699999344228777e+01 -3.0944736643410457e-02 -5.9318973048686330e-01 +5.9209703139966579e-03
1.0799999999999978e+01 +8.1496948325709404e+00 +0.0000000000000000e+00 +1.0799999325670177e+01 -3.0944829540594913e-02 -5.9319016860120388e-01 +5.9210667318577853e-03
1.0899999999999977e+01 +8.1496333421640248e+00 +0.0000000000000000e+00 +1.0899999306764691e+01 -3.0944917905337575e-02 -5.9319062087520891e-01 +5.9211638321878847e-03
1.0999999999999977e+01 +8.1495712850140247e+00 +0.0000000000000000e+00 +1.0999999287509105e+01 -3.0945001651010901e-02 -5.9319108678098220e-01 +5.9212612894958818e-03
1.1099999999999977e+01 +8.1495086611204961e+00 +0.0000000000000000e+00 +1.1099999267900209e+01 -3.0945080690948236e-02 -5.9319156579063004e-01 +5.9213587782833308e-03
1.1199999999999976e+01 +8.1494454704829842e+00 +0.0000000000000000e+00 +1.1199999247934789e+01 -3.0945154938442937e-02 -5.9319205737626324e-01 +5.9214559730442181e-03
1.1299999999999976e+01 +8.1493817131010218e+00 +0.0000000000000000e+00 +1.1299999227609634e+01 -3.0945224306747635e-02 -5.9319256100999462e-01 +5.9215525482647531e-03
1.1399999999999975e+01 +8.1493173889741293e+00 +0.0000000000000000e+00 +1.1399999206921532e+01 -3.0945288709073315e-02 -5.9319307616393990e-01 +5.9216481784231736e-03
1.1499999999999975e+01 +8.1492524981018164e+00 +0.0000000000000000e+00 +1.1499999185867269e+01 -3.0945348058588590e-02 -5.9319360231021789e-01 +5.9217425379895312e-03
1.1599999999999975e+01 +8.1491870404835822e+00 +0.0000000000000000e+00 +1.1599999164443634e+01 -3.0945402268418850e-02 -5.9319413892095041e-01 +5.9218353014255072e-03
1.1699999999999974e+01 +8.1491210161189169e+00 +0.0000000000000000e+00 +1.1699999142647414e+01 -3.0945451251645446e-02 -5.9319468546826015e-01 +5.9219261431841990e-03
1.1799999999999974e+01 +8.1490544250073000e+00 +0.0000000000000000e+00 +1.1799999120475396e+01 -3.0945494921304852e-02 -5.9319524142427371e-01 +5.9220147377099137e-03
