# field on trajectory
# s[mm] rx[mm] ry[mm] rz[mm] bx[T] by[T] bz[T]
0.0000000000000000e+00 +8.1649999999999991e+00 +0.0000000000000000e+00 +0.0000000000000000e+00 -3.0680195344141428e-02 -5.6479243757649034e-01 +5.5927452499553512e-03
-1.0000000000000001e-01 +8.1649997168677775e+00 +0.0000000000000000e+00 -9.9999999999465586e-02 -3.0680178129958897e-02 -5.6479224816398188e-01 +5.5926611238253428e-03
-2.0000000000000001e-01 +8.1649988674712386e+00 +0.0000000000000000e+00 -1.9999999999572463e-01 -3.0680154082012575e-02 -5.6479205657586717e-01 +5.5925791371849243e-03
-3.0000000000000004e-01 +8.1649974518105743e+00 +0.0000000000000000e+00 -2.9999999998557059e-01 -3.0680124158475996e-02 -5.6479186433206485e-01 +5.5924991578755953e-03
-4.0000000000000002e-01 +8.1649954698859784e+00 +0.0000000000000000e+00 -3.9999999996579688e-01 -3.0680089317525673e-02 -5.6479167295250987e-01 +5.5924210537407161e-03
-5.0000000000000000e-01 +8.1649929216976425e+00 +0.0000000000000000e+00 -4.9999999993319699e-01 -3.0680050517341077e-02 -5.6479148395715173e-01 +5.5923446926253399e-03
-5.9999999999999998e-01 +8.1649898072457550e+00 +0.0000000000000000e+00 -5.9999999988456432e-01 -3.0680008716104681e-02 -5.6479129886595292e-01 +5.5922699423760413e-03
-6.9999999999999996e-01 +8.1649861265305024e+00 +0.0000000000000000e+00 -6.9999999981669236e-01 -3.0679964872001836e-02 -5.6479111919888636e-01 +5.5921966708407274e-03
-7.9999999999999993e-01 +8.1649818795520641e+00 +0.0000000000000000e+00 -7.9999999972637459e-01 -3.0679919943220856e-02 -5.6479094647593353e-01 +5.5921247458684837e-03
-8.9999999999999991e-01 +8.1649770663106143e+00 +0.0000000000000000e+00 -8.9999999961040456e-01 -3.0679874887952950e-02 -5.6479078221708157e-01 +5.5920540353093708e-03
-9.9999999999999989e-01 +8.1649716868063180e+00 +0.0000000000000000e+00 -9.9999999946557561e-01 -3.0679830664392171e-02 -5.6479062794232160e-01 +5.5919844070142638e-03
-1.0999999999999999e+00 +8.1649657410393282e+00 +0.0000000000000000e+00 -1.0999999992886813e+00 -3.0679788230735465e-02 -5.6479048517164709e-01 +5.5919157288346830e-03
-1.2000000000000000e+00 +8.1649592290097885e+00 +0.0000000000000000e+00 -1.1999999990765151e+00 -3.0679748545182680e-02 -5.6479035542505163e-01 +5.5918478686226049e-03
-1.3000000000000000e+00 +8.1649521507178306e+00 +0.0000000000000000e+00 -1.2999999988258704e+00 -3.0679712565936379e-02 -5.6479024022252489e-01 +5.5917806942302872e-03
-1.4000000000000001e+00 +8.1649445061635681e+00 +0.0000000000000000e+00 -1.3999999985335407e+00 -3.0679681251202035e-02 -5.6479014108405412e-01 +5.5917140735101001e-03
-1.5000000000000002e+00 +8.1649362953471023e+00 +0.0000000000000000e+00 -1.4999999981963197e+00 -3.0679655559187880e-02 -5.6479005952961803e-01 +5.5916478743143466e-03
-1.6000000000000003e+00 +8.1649275182685130e+00 +0.0000000000000000e+00 -1.5999999978110004e+00 -3.0679636448104904e-02 -5.6478999707918753e-01 +5.5915819644950888e-03
-1.7000000000000004e+00 +8.1649181749278643e+00 +0.0000000000000000e+00 -1.6999999973743767e+00 -3.0679624876166888e-02 -5.6478995525272246e-01 +5.5915162119039704e-03
-1.8000000000000005e+00 +8.1649082653251988e+00 +0.0000000000000000e+00 -1.7999999968832419e+00 -3.0679621801590336e-02 -5.6478993557016943e-01 +5.5914504843920330e-03
-1.9000000000000006e+00 +8.1648977894605359e+00 +0.0000000000000000e+00 -1.8999999963343894e+00 -3.0679628182594471e-02 -5.6478993955145984e-01 +5.5913846498095573e-03
-2.0000000000000004e+00 +8.1648867473338722e+00 +0.0000000000000000e+00 -1.9999999957246131e+00 -3.0679644977401260e-02 -5.6478996871650788e-01 +5.5913185760058754e-03
-2.1000000000000005e+00 +8.1648751389451775e+00 +0.0000000000000000e+00 -2.0999999950507062e+00 -3.0679672827932252e-02 -5.6479002401255951e-01 +5.5912521707470811e-03
-2.2000000000000006e+00 +8.1648629642943984e+00 +0.0000000000000000e+00 -2.1999999943094619e+00 -3.0679711110896762e-02 -5.6479010409625174e-01 +5.5911855014700454e-03
-2.3000000000000007e+00 +8.1648502233814551e+00 +0.0000000000000000e+00 -2.2999999934976740e+00 -3.0679758886695767e-02 -5.6479020705157135e-01 +5.5911186755294899e-03
-2.4000000000000008e+00 +8.1648369162062426e+00 +0.0000000000000000e+00 -2.3999999926121358e+00 -3.0679815215723428e-02 -5.6479033096250497e-01 +5.5910518002801873e-03
-2.5000000000000009e+00 +8.1648230427686403e+00 +0.0000000000000000e+00 -2.4999999916496409e+00 -3.0679879158366157e-02 -5.6479047391304038e-01 +5.5909849830769664e-03
-2.6000000000000010e+00 +8.1648086030685043e+00 +0.0000000000000000e+00 -2.5999999906069826e+00 -3.0679949775001599e-02 -5.6479063398716733e-01 +5.5909183312747059e-03
-2.7000000000000011e+00 +8.1647935971056746e+00 +0.0000000000000000e+00 -2.6999999894809545e+00 -3.0680026125997732e-02 -5.6479080926887681e-01 +5.5908519522283257e-03
-2.8000000000000012e+00 +8.1647780248799755e+00 +0.0000000000000000e+00 -2.7999999882683499e+00 -3.0680107271711884e-02 -5.6479099784216191e-01 +5.5907859532927737e-03
-2.9000000000000012e+00 +8.1647618863912186e+00 +0.0000000000000000e+00 -2.8999999869659621e+00 -3.0680192272489731e-02 -5.6479119779101905e-01 +5.5907204418230447e-03
-3.0000000000000013e+00 +8.1647451816392049e+00 +0.0000000000000000e+00 -2.9999999855705846e+00 -3.0680280188664390e-02 -5.6479140719944776e-01 +5.5906555251741437e-03
-3.1000000000000014e+00 +8.1647279106237249e+00 +0.0000000000000000e+00 -3.0999999840790111e+00 -3.0680370080555432e-02 -5.6479162415145090e-01 +5.5905913107011053e-03
-3.2000000000000015e+00 +8.1647100733445619e+00 +0.0000000000000000e+00 -3.1999999824880350e+00 -3.0680461008467906e-02 -5.6479184673103611e-01 +5.5905279057589744e-03
-3.3000000000000016e+00 +8.1646916698014937e+00 +0.0000000000000000e+00 -3.2999999807944493e+00 -3.0680552032691412e-02 -5.6479207302221557e-01 +5.5904654177028074e-03
-3.4000000000000017e+00 +8.1646726999942931e+00 +0.0000000000000000e+00 -3.3999999789950479e+00 -3.0680642213499108e-02 -5.6479230110900658e-01 +5.5904039538876666e-03
-3.5000000000000018e+00 +8.1646531639227327e+00 +0.0000000000000000e+00 -3.4999999770866239e+00 -3.0680730611146744e-02 -5.6479252907543165e-01 +5.5903436216686074e-03
-3.6000000000000019e+00 +8.1646330615865850e+00 +0.0000000000000000e+00 -3.5999999750659706e+00 -3.0680816285871743e-02 -5.6479275500552040e-01 +5.5902845284006800e-03
-3.7000000000000020e+00 +8.1646123929856245e+00 +0.0000000000000000e+00 -3.6999999729298816e+00 -3.0680898297892216e-02 -5.6479297698330788e-01 +5.5902267814389242e-03
-3.8000000000000020e+00 +8.1645911581196291e+00 +0.0000000000000000e+00 -3.7999999706751502e+00 -3.0680975707405932e-02 -5.6479319309283693e-01 +5.5901704881383546e-03
-3.9000000000000021e+00 +8.1645693569883839e+00 +0.0000000000000000e+00 -3.8999999682985700e+00 -3.0681047574589511e-02 -5.6479340141815815e-01 +5.5901157558539711e-03
-4.0000000000000018e+00 +8.1645469895916793e+00 +0.0000000000000000e+00 -3.9999999657969343e+00 -3.0681112959597297e-02 -5.6479360004332901e-01 +5.5900626919407380e-03
-4.1000000000000014e+00 +8.1645240559293182e+00 +0.0000000000000000e+00 -4.0999999631670363e+00 -3.0681171128524129e-02 -5.6479378756267529e-01 +5.5900113873816821e-03
-4.2000000000000011e+00 +8.1645005560011121e+00 +0.0000000000000000e+00 -4.1999999604056697e+00 -3.0681222171310415e-02 -5.6479396461155995e-01 +5.5899618676716820e-03
-4.3000000000000007e+00 +8.1644764898068853e+00 +0.0000000000000000e+00 -4.2999999575096277e+00 -3.0681266383876443e-02 -5.6479413233559927e-01 +5.5899141419324802e-03
-4.4000000000000004e+00 +8.1644518573464691e+00 +0.0000000000000000e+00 -4.3999999544757031e+00 -3.0681304062163493e-02 -5.6479429188040142e-01 +5.5898682192844244e-03
-4.5000000000000000e+00 +8.1644266586197052e+00 +0.0000000000000000e+00 -4.4999999513006905e+00 -3.0681335502135487e-02 -5.6479444439156590e-01 +5.5898241088464060e-03
-4.5999999999999996e+00 +8.1644008936264409e+00 +0.0000000000000000e+00 -4.5999999479813827e+00 -3.0681360999780617e-02 -5.6479459101468288e-01 +5.5897818197357587e-03
-4.6999999999999993e+00 +8.1643745623665307e+00 +0.0000000000000000e+00 -4.6999999445145724e+00 -3.0681380851113018e-02 -5.6479473289533222e-01 +5.5897413610681958e-03
-4.7999999999999989e+00 +8.1643476648398323e+00 +0.0000000000000000e+00 -4.7999999408970542e+00 -3.0681395352174446e-02 -5.6479487117908422e-01 +5.5897027419577290e-03
-4.8999999999999986e+00 +8.1643202010462090e+00 +0.0000000000000000e+00 -4.8999999371256209e+00 -3.0681404799035868e-02 -5.6479500701149876e-01 +5.5896659715165831e-03
-4.9999999999999982e+00 +8.1642921709855241e+00 +0.0000000000000000e+00 -4.9999999331970653e+00 -3.0681409487799145e-02 -5.6479514153812305e-01 +5.5896310588551198e-03
-5.0999999999999979e+00 +8.1642635746576442e+00 +0.0000000000000000e+00 -5.0999999291081819e+00 -3.0681409714598706e-02 -5.6479527590449363e-01 +5.5895980130817556e-03
-5.1999999999999975e+00 +8.1642344120624344e+00 +0.0000000000000000e+00 -5.1999999248557636e+00 -3.0681405775603156e-02 -5.6479541125613442e-01 +5.5895668433028874e-03
-5.2999999999999972e+00 +8.1642046831997614e+00 +0.0000000000000000e+00 -5.2999999204366031e+00 -3.0681397967016962e-02 -5.6479554873855642e-01 +5.5895375586228133e-03
-5.3999999999999968e+00 +8.1641743880694868e+00 +0.0000000000000000e+00 -5.3999999158474949e+00 -3.0681386585082081e-02 -5.6479568949725767e-01 +5.5895101681436472e-03
-5.4999999999999964e+00 +8.1641435266714719e+00 +0.0000000000000000e+00 -5.4999999110852320e+00 -3.0681371926079618e-02 -5.6479583467772132e-01 +5.5894846809652404e-03
-5.5999999999999961e+00 +8.1641120990055711e+00 +0.0000000000000000e+00 -5.5999999061466070e+00 -3.0681354286331473e-02 -5.6479598542541742e-01 +5.5894611061851080e-03
-5.6999999999999957e+00 +8.1640801050716334e+00 +0.0000000000000000e+00 -5.6999999010284146e+00 -3.0681333962202007e-02 -5.6479614288580060e-01 +5.5894394528983428e-03
-5.7999999999999954e+00 +8.1640475448695025e+00 +0.0000000000000000e+00 -5.7999998957274475e+00 -3.0681311250099669e-02 -5.6479630820430993e-01 +5.5894197301975448e-03
-5.8999999999999950e+00 +8.1640144183990149e+00 +0.0000000000000000e+00 -5.8999998902404984e+00 -3.0681286446478665e-02 -5.6479648252636927e-01 +5.5894019471727317e-03
-5.9999999999999947e+00 +8.1639807256599948e+00 +0.0000000000000000e+00 -5.9999998845643612e+00 -3.0681259847840613e-02 -5.6479666699738473e-01 +5.5893861129112645e-03
-6.0999999999999943e+00 +8.1639464666522592e+00 +0.0000000000000000e+00 -6.0999998786958294e+00 -3.0681231840787412e-02 -5.6479686248379257e-01 +5.5893722305652184e-03
-6.1999999999999940e+00 +8.1639116413756128e+00 +0.0000000000000000e+00 -6.1999998726316958e+00 -3.0681203172148227e-02 -5.6479706873619728e-01 +5.5893602795553717e-03
-6.2999999999999936e+00 +8.1638762498298512e+00 +0.0000000000000000e+00 -6.2999998663687542e+00 -3.0681174678772932e-02 -5.6479728522625516e-01 +5.5893502333720793e-03
-6.3999999999999932e+00 +8.1638402920147577e+00 +0.0000000000000000e+00 -6.3999998599037982e+00 -3.0681147197470962e-02 -5.6479751142563106e-01 +5.5893420655084378e-03
-6.4999999999999929e+00 +8.1638037679301068e+00 +0.0000000000000000e+00 -6.4999998532336205e+00 -3.0681121565009378e-02 -5.6479774680600103e-01 +5.5893357494604182e-03
-6.5999999999999925e+00 +8.1637666775756621e+00 +0.0000000000000000e+00 -6.5999998463550149e+00 -3.0681098618110851e-02 -5.6479799083905124e-01 +5.5893312587270297e-03
-6.6999999999999922e+00 +8.1637290209511821e+00 +0.0000000000000000e+00 -6.6999998392647742e+00 -3.0681079193451685e-02 -5.6479824299647996e-01 +5.5893285668104260e-03
-6.7999999999999918e+00 +8.1636907980564146e+00 +0.0000000000000000e+00 -6.7999998319596919e+00 -3.0681064127659835e-02 -5.6479850274999666e-01 +5.5893276472160835e-03
-6.8999999999999915e+00 +8.1636520088911020e+00 +0.0000000000000000e+00 -6.8999998244365610e+00 -3.0681054257312903e-02 -5.6479876957132458e-01 +5.5893284734529081e-03
-6.9999999999999911e+00 +8.1636126534549760e+00 +0.0000000000000000e+00 -6.9999998166921751e+00 -3.0681050418936224e-02 -5.6479904293219862e-01 +5.5893310190334045e-03
-7.0999999999999908e+00 +8.1635727317477649e+00 +0.0000000000000000e+00 -7.0999998087233278e+00 -3.0681053449000770e-02 -5.6479932230436847e-01 +5.5893352574737844e-03
-7.1999999999999904e+00 +8.1635322437691880e+00 +0.0000000000000000e+00 -7.1999998005268120e+00 -3.0681064183921265e-02 -5.6479960715959754e-01 +5.5893411622941437e-03
-7.2999999999999901e+00 +8.1634911895189628e+00 +0.0000000000000000e+00 -7.2999997920994204e+00 -3.0681083460054135e-02 -5.6479989696966371e-01 +5.5893487070185670e-03
-7.3999999999999897e+00 +8.1634495689967999e+00 +0.0000000000000000e+00 -7.3999997834379467e+00 -3.0681112113695584e-02 -5.6480019120636116e-01 +5.5893578651752939e-03
-7.4999999999999893e+00 +8.1634073822024060e+00 +0.0000000000000000e+00 -7.4999997745391846e+00 -3.0681150981079514e-02 -5.6480048934149829e-01 +5.5893686102968495e-03
-7.5999999999999890e+00 +8.1633646291354829e+00 +0.0000000000000000e+00 -7.5999997653999269e+00 -3.0681200898375647e-02 -5.6480079084690182e-01 +5.5893809159201788e-03
-7.6999999999999886e+00 +8.1633213097957302e+00 +0.0000000000000000e+00 -7.6999997560169673e+00 -3.0681262701687469e-02 -5.6480109519441413e-01 +5.5893947555868059e-03
-7.7999999999999883e+00 +8.1632774241828443e+00 +0.0000000000000000e+00 -7.7999997463870985e+00 -3.0681337227050264e-02 -5.6480140185589567e-01 +5.5894101028429455e-03
-7.8999999999999879e+00 +8.1632329722965196e+00 +0.0000000000000000e+00 -7.8999997365071133e+00 -3.0681425310429129e-02 -5.6480171030322457e-01 +5.5894269312396720e-03
-7.9999999999999876e+00 +8.1631879541364469e+00 +0.0000000000000000e+00 -7.9999997263738054e+00 -3.0681527787716979e-02 -5.6480202000829827e-01 +5.5894452143330445e-03
-8.0999999999999872e+00 +8.1631423697023173e+00 +0.0000000000000000e+00 -8.0999997159839676e+00 -3.0681645171856127e-02 -5.6480233037203920e-01 +5.5894649294989576e-03
-8.1999999999999869e+00 +8.1630962189938234e+00 +0.0000000000000000e+00 -8.1999997053343936e+00 -3.0681776684236904e-02 -5.6480264051138862e-01 +5.5894860693758153e-03
-8.2999999999999865e+00 +8.1630495020106526e+00 +0.0000000000000000e+00 -8.2999996944218761e+00 -3.0681921223403293e-02 -5.6480294947225240e-01 +5.5895086304173372e-03
-8.3999999999999861e+00 +8.1630022187524993e+00 +0.0000000000000000e+00 -8.3999996832432089e+00 -3.0682077687946292e-02 -5.6480325630048600e-01 +5.5895326090773514e-03
-8.4999999999999858e+00 +8.1629543692190563e+00 +0.0000000000000000e+00 -8.4999996717951856e+00 -3.0682244976505842e-02 -5.6480356004189602e-01 +5.5895580018097578e-03
-8.5999999999999854e+00 +8.1629059534100215e+00 +0.0000000000000000e+00 -8.5999996600745980e+00 -3.0682421987772414e-02 -5.6480385974223679e-01 +5.5895848050685256e-03
-8.6999999999999851e+00 +8.1628569713250947e+00 +0.0000000000000000e+00 -8.6999996480782400e+00 -3.0682607620488914e-02 -5.6480415444720966e-01 +5.5896130153076547e-03
-8.7999999999999847e+00 +8.1628074229639829e+00 +0.0000000000000000e+00 -8.7999996358029051e+00 -3.0682800773452350e-02 -5.6480444320246059e-01 +5.5896426289811629e-03
-8.8999999999999844e+00 +8.1627573083263982e+00 +0.0000000000000000e+00 -8.8999996232453871e+00 -3.0683000345515684e-02 -5.6480472505358048e-01 +5.5896736425430742e-03
-8.9999999999999840e+00 +8.1627066274120601e+00 +0.0000000000000000e+00 -8.9999996104024778e+00 -3.0683205235589518e-02 -5.6480499904610160e-01 +5.5897060524473840e-03
-9.0999999999999837e+00 +8.1626553802206949e+00 +0.0000000000000000e+00 -9.0999995972709709e+00 -3.0683414342643902e-02 -5.6480526422549793e-01 +5.5897398551480442e-03
-9.1999999999999833e+00 +8.1626035667520380e+00 +0.0000000000000000e+00 -9.1999995838476583e+00 -3.0683626565710064e-02 -5.6480551963718217e-01 +5.5897750470989445e-03
-9.2999999999999829e+00 +8.1625511870058354e+00 +0.0000000000000000e+00 -9.2999995701293354e+00 -3.0683840803882249e-02 -5.6480576432650553e-01 +5.5898116247538876e-03
-9.3999999999999826e+00 +8.1624982409818436e+00 +0.0000000000000000e+00 -9.3999995561127943e+00 -3.0684055956319400e-02 -5.6480599733875536e-01 +5.5898495845665757e-03
-9.4999999999999822e+00 +8.1624447286798318e+00 +0.0000000000000000e+00 -9.4999995417948266e+00 -3.0684270922246997e-02 -5.6480621771915440e-01 +5.5898889229905758e-03
-9.5999999999999819e+00 +8.1623906500995798e+00 +0.0000000000000000e+00 -9.5999995271722280e+00 -3.0684484600958739e-02 -5.6480642451285801e-01 +5.5899296364793185e-03
-9.6999999999999815e+00 +8.1623360052408831e+00 +0.0000000000000000e+00 -9.6999995122417904e+00 -3.0684695891818419e-02 -5.6480661676495425e-01 +5.5899717214860567e-03
-9.7999999999999812e+00 +8.1622807941035500e+00 +0.0000000000000000e+00 -9.7999994970003073e+00 -3.0684903694261592e-02 -5.6480679352046204e-01 +5.5900151744638594e-03
-9.8999999999999808e+00 +8.1622250166874046e+00 +0.0000000000000000e+00 -9.8999994814445724e+00 -3.0685106907797428e-02 -5.6480695382432855e-01 +5.5900599918655884e-03
-9.9999999999999805e+00 +8.1621686729922889e+00 +0.0000000000000000e+00 -9.9999994655713778e+00 -3.0685304432010434e-02 -5.6480709672142937e-01 +5.5901061701438661e-03
-1.0099999999999980e+01 +8.1621117630180606e+00 +0.0000000000000000e+00 -1.0099999449377517e+01 -3.0685495296795685e-02 -5.6480722183568000e-01 +5.5901536967361163e-03
-1.0199999999999980e+01 +8.1620542867645973e+00 +0.0000000000000000e+00 -1.0199999432859784e+01 -3.0685679053028665e-02 -5.6480733110748349e-01 +5.5902025230185693e-03
-1.0299999999999979e+01 +8.1619962442317906e+00 +0.0000000000000000e+00 -1.0299999416014970e+01 -3.0685855381789664e-02 -5.6480742705649190e-01 +5.5902525913504577e-03
-1.0399999999999979e+01 +8.1619376354195445e+00 +0.0000000000000000e+00 -1.0399999398839871e+01 -3.0686023964114774e-02 -5.6480751220249181e-01 +5.5903038440890578e-03
-1.0499999999999979e+01 +8.1618784603277774e+00 +0.0000000000000000e+00 -1.0499999381331278e+01 -3.0686184480994701e-02 -5.6480758906540962e-01 +5.5903562235896454e-03
-1.0599999999999978e+01 +8.1618187189564129e+00 +0.0000000000000000e+00 -1.0599999363485987e+01 -3.0686336613373489e-02 -5.6480766016531481e-01 +5.5904096722054313e-03
-1.0699999999999978e+01 +8.1617584113053816e+00 +0.0000000000000000e+00 -1.0699999345300787e+01 -3.0686480042147270e-02 -5.6480772802242329e-01 +5.5904641322874976e-03
-1.0799999999999978e+01 +8.1616975373746161e+00 +0.0000000000000000e+00 -1.0799999326772475e+01 -3.0686614448162994e-02 -5.6480779515710144e-01 +5.5905195461847558e-03
-1.0899999999999977e+01 +8.1616360971640525e+00 +0.0000000000000000e+00 -1.0899999307897843e+01 -3.0686739512217266e-02 -5.6480786408986894e-01 +5.5905758562438757e-03
-1.0999999999999977e+01 +8.1615740906736232e+00 +0.0000000000000000e+00 -1.0999999288673683e+01 -3.0686854915054997e-02 -5.6480793734140355e-01 +5.5906330048092374e-03
-1.1099999999999977e+01 +8.1615115179032554e+00 +0.0000000000000000e+00 -1.1099999269096790e+01 -3.0686960337368192e-02 -5.6480801743254350e-01 +5.5906909342228646e-03
-1.1199999999999976e+01 +8.1614483788528709e+00 +0.0000000000000000e+00 -1.1199999249163955e+01 -3.0687055459794742e-02 -5.6480810688429206e-01 +5.5907495868243746e-03
-1.1299999999999976e+01 +8.1613846735223827e+00 +0.0000000000000000e+00 -1.1299999228871974e+01 -3.0687139962917116e-02 -5.6480820821781985e-01 +5.5908089049509233e-03
-1.1399999999999975e+01 +8.1613204019116914e+00 +0.0000000000000000e+00 -1.1399999208217638e+01 -3.0687213527261146e-02 -5.6480832395447067e-01 +5.5908688309371348e-03
-1.1499999999999975e+01 +8.1612555640206814e+00 +0.0000000000000000e+00 -1.1499999187197743e+01 -3.0687275833294773e-02 -5.6480845661576284e-01 +5.5909293071150674e-03
-1.1599999999999975e+01 +8.1611901598492214e+00 +0.0000000000000000e+00 -1.1599999165809079e+01 -3.0687326561426836e-02 -5.6480860872339411e-01 +5.5909902758141334e-03
-1.1699999999999974e+01 +8.1611241893971620e+00 +0.0000000000000000e+00 -1.1699999144048441e+01 -3.0687365392005745e-02 -5.6480878279924462e-01 +5.5910516793610532e-03
