# field on trajectory
# s[mm] rx[mm] ry[mm] rz[mm] bx[T] by[T] bz[T]
0.0000000000000000e+00 +8.1649999999999991e+00 +0.0000000000000000e+00 +0.0000000000000000e+00 -2.9060706285224655e-02 -5.3628797848007859e-01 +5.2938187121330596e-03
-1.0000000000000001e-01 +8.1649997172072570e+00 +0.0000000000000000e+00 -9.9999999999466849e-02 -2.9060724763545834e-02 -5.3628814143882386e-01 +5.2938321505655922e-03
-2.0000000000000001e-01 +8.1649988688289117e+00 +0.0000000000000000e+00 -1.9999999999573484e-01 -2.9060750307284784e-02 -5.3628831746814865e-01 +5.2938476202482616e-03
-3.0000000000000004e-01 +8.1649974548647783e+00 +0.0000000000000000e+00 -2.9999999998560511e-01 -2.9060781623519796e-02 -5.3628850588503107e-01 +5.2938649834344846e-03
-4.0000000000000002e-01 +8.1649954753146581e+00 +0.0000000000000000e+00 -3.9999999996587876e-01 -2.9060817419333456e-02 -5.3628870600644607e-01 +5.2938841023778375e-03
-5.0000000000000000e-01 +8.1649929301783413e+00 +0.0000000000000000e+00 -4.9999999993335686e-01 -2.9060856401812992e-02 -5.3628891714936422e-01 +5.2939048393318934e-03
-5.9999999999999998e-01 +8.1649898194556041e+00 +0.0000000000000000e+00 -5.9999999988484065e-01 -2.9060897278050508e-02 -5.3628913863075400e-01 +5.2939270565500428e-03
-6.9999999999999996e-01 +8.1649861431462138e+00 +0.0000000000000000e+00 -6.9999999981713112e-01 -2.9060938755143245e-02 -5.3628936976757990e-01 +5.2939506162853313e-03
-7.9999999999999993e-01 +8.1649819012499254e+00 +0.0000000000000000e+00 -7.9999999972702940e-01 -2.9060979540193800e-02 -5.3628960987680074e-01 +5.2939753807902867e-03
-8.9999999999999991e-01 +8.1649770937664865e+00 +0.0000000000000000e+00 -8.9999999961133659e-01 -2.9061018340310447e-02 -5.3628985827537312e-01 +5.2940012123167480e-03
-9.9999999999999989e-01 +8.1649717206956360e+00 +0.0000000000000000e+00 -9.9999999946685381e-01 -2.9061053862607353e-02 -5.3629011428024753e-01 +5.2940279731156972e-03
-1.0999999999999999e+00 +8.1649657820371040e+00 +0.0000000000000000e+00 -1.0999999992903822e+00 -2.9061084814204854e-02 -5.3629037720837081e-01 +5.2940555254370946e-03
-1.2000000000000000e+00 +8.1649592777906133e+00 +0.0000000000000000e+00 -1.1999999990787227e+00 -2.9061109902229709e-02 -5.3629064637668367e-01 +5.2940837315297072e-03
-1.3000000000000000e+00 +8.1649522079558814e+00 +0.0000000000000000e+00 -1.2999999988286766e+00 -2.9061127833815377e-02 -5.3629092110212206e-01 +5.2941124536409192e-03
-1.4000000000000001e+00 +8.1649445725326171e+00 +0.0000000000000000e+00 -1.3999999985370448e+00 -2.9061137316102229e-02 -5.3629120070161596e-01 +5.2941415540166065e-03
-1.5000000000000002e+00 +8.1649363715205272e+00 +0.0000000000000000e+00 -1.4999999982006285e+00 -2.9061137056237842e-02 -5.3629148449209008e-01 +5.2941708949009137e-03
-1.6000000000000003e+00 +8.1649276049193116e+00 +0.0000000000000000e+00 -1.5999999978162287e+00 -2.9061125761377295e-02 -5.3629177179046283e-01 +5.2942003385361303e-03
-1.7000000000000004e+00 +8.1649182727286682e+00 +0.0000000000000000e+00 -1.6999999973806466e+00 -2.9061102138683337e-02 -5.3629206191364576e-01 +5.2942297471624909e-03
-1.8000000000000005e+00 +8.1649083749482916e+00 +0.0000000000000000e+00 -1.7999999968906830e+00 -2.9061064895326717e-02 -5.3629235417854437e-01 +5.2942589830180268e-03
-1.9000000000000006e+00 +8.1648979115778726e+00 +0.0000000000000000e+00 -1.8999999963431391e+00 -2.9061012738486457e-02 -5.3629264790205755e-01 +5.2942879083383767e-03
-2.0000000000000004e+00 +8.1648868826171022e+00 +0.0000000000000000e+00 -1.9999999957348160e+00 -2.9060944375350024e-02 -5.3629294240107606e-01 +5.2943163853566315e-03
-2.1000000000000005e+00 +8.1648752880656712e+00 +0.0000000000000000e+00 -2.0999999950625146e+00 -2.9060859016609843e-02 -5.3629323703856269e-01 +5.2943443267078087e-03
-2.2000000000000006e+00 +8.1648631279232688e+00 +0.0000000000000000e+00 -2.1999999943230359e+00 -2.9060757886947661e-02 -5.3629353136178859e-01 +5.2943718466439563e-03
-2.3000000000000007e+00 +8.1648504021895860e+00 +0.0000000000000000e+00 -2.2999999935131812e+00 -2.9060642714537871e-02 -5.3629382496410349e-01 +5.2943991098225174e-03
-2.4000000000000008e+00 +8.1648371108643119e+00 +0.0000000000000000e+00 -2.3999999926297511e+00 -2.9060515227548843e-02 -5.3629411743885946e-01 +5.2944262809022542e-03
-2.5000000000000009e+00 +8.1648232539471408e+00 +0.0000000000000000e+00 -2.4999999916695468e+00 -2.9060377154141628e-02 -5.3629440837941034e-01 +5.2944535245435199e-03
-2.6000000000000010e+00 +8.1648088314377638e+00 +0.0000000000000000e+00 -2.5999999906293696e+00 -2.9060230222468682e-02 -5.3629469737911328e-01 +5.2944810054085696e-03
-2.7000000000000011e+00 +8.1647938433358789e+00 +0.0000000000000000e+00 -2.6999999895060203e+00 -2.9060076160672622e-02 -5.3629498403133002e-01 +5.2945088881618200e-03
-2.8000000000000012e+00 +8.1647782896411822e+00 +0.0000000000000000e+00 -2.7999999882963000e+00 -2.9059916696884815e-02 -5.3629526792942606e-01 +5.2945373374701510e-03
-2.9000000000000012e+00 +8.1647621703533755e+00 +0.0000000000000000e+00 -2.8999999869970097e+00 -2.9059753559224178e-02 -5.3629554866677287e-01 +5.2945665180031826e-03
-3.0000000000000013e+00 +8.1647454854721637e+00 +0.0000000000000000e+00 -2.9999999856049500e+00 -2.9059588475795841e-02 -5.3629582583674817e-01 +5.2945965944335696e-03
-3.1000000000000014e+00 +8.1647282349972556e+00 +0.0000000000000000e+00 -3.0999999841169221e+00 -2.9059423174689857e-02 -5.3629609903273578e-01 +5.2946277314372767e-03
-3.2000000000000015e+00 +8.1647104189283617e+00 +0.0000000000000000e+00 -3.1999999825297274e+00 -2.9059259383979897e-02 -5.3629636784812806e-01 +5.2946600936938613e-03
-3.3000000000000016e+00 +8.1646920372652012e+00 +0.0000000000000000e+00 -3.2999999808401665e+00 -2.9059098831721971e-02 -5.3629663187632526e-01 +5.2946938458867726e-03
-3.4000000000000017e+00 +8.1646730900074953e+00 +0.0000000000000000e+00 -3.3999999790450404e+00 -2.9058943245953109e-02 -5.3629689071073650e-01 +5.2947291527036255e-03
-3.5000000000000018e+00 +8.1646535771549722e+00 +0.0000000000000000e+00 -3.4999999771411501e+00 -2.9058794354690068e-02 -5.3629714394478123e-01 +5.2947661788364866e-03
-3.6000000000000019e+00 +8.1646334987073654e+00 +0.0000000000000000e+00 -3.5999999751252965e+00 -2.9058653885928053e-02 -5.3629739117188890e-01 +5.2948050889821685e-03
-3.7000000000000020e+00 +8.1646128546644139e+00 +0.0000000000000000e+00 -3.6999999729942807e+00 -2.9058523567639379e-02 -5.3629763198550062e-01 +5.2948460478425014e-03
-3.8000000000000020e+00 +8.1645916450258653e+00 +0.0000000000000000e+00 -3.7999999707449037e+00 -2.9058405127772205e-02 -5.3629786597906925e-01 +5.2948892201246222e-03
-3.9000000000000021e+00 +8.1645698697914728e+00 +0.0000000000000000e+00 -3.8999999683739661e+00 -2.9058300294249221e-02 -5.3629809274606066e-01 +5.2949347705412760e-03
-4.0000000000000018e+00 +8.1645475289609983e+00 +0.0000000000000000e+00 -3.9999999658782692e+00 -2.9058210794966333e-02 -5.3629831187995425e-01 +5.2949828638110645e-03
-4.1000000000000014e+00 +8.1645246225342127e+00 +0.0000000000000000e+00 -4.0999999632546142e+00 -2.9058137863274193e-02 -5.3629852313782533e-01 +5.2950336408859478e-03
-4.2000000000000011e+00 +8.1645011505108922e+00 +0.0000000000000000e+00 -4.1999999604998015e+00 -2.9058080754433488e-02 -5.3629872693109470e-01 +5.2950871476300969e-03
-4.3000000000000007e+00 +8.1644771128908236e+00 +0.0000000000000000e+00 -4.2999999576106323e+00 -2.9058038229184808e-02 -5.3629892383478162e-01 +5.2951434061335959e-03
-4.4000000000000004e+00 +8.1644525096737990e+00 +0.0000000000000000e+00 -4.3999999545839072e+00 -2.9058009048269821e-02 -5.3629911442392186e-01 +5.2952024384843865e-03
-4.5000000000000000e+00 +8.1644273408596177e+00 +0.0000000000000000e+00 -4.4999999514164282e+00 -2.9057991972431859e-02 -5.3629929927356890e-01 +5.2952642667680773e-03
-4.5999999999999996e+00 +8.1644016064480880e+00 +0.0000000000000000e+00 -4.5999999481049949e+00 -2.9057985762416399e-02 -5.3629947895879493e-01 +5.2953289130676920e-03
-4.6999999999999993e+00 +8.1643753064390197e+00 +0.0000000000000000e+00 -4.6999999446464091e+00 -2.9057989178971653e-02 -5.3629965405469138e-01 +5.2953963994634649e-03
-4.7999999999999989e+00 +8.1643484408322280e+00 +0.0000000000000000e+00 -4.7999999410374716e+00 -2.9058000982849098e-02 -5.3629982513636854e-01 +5.2954667480326154e-03
-4.8999999999999986e+00 +8.1643210096275336e+00 +0.0000000000000000e+00 -4.8999999372749832e+00 -2.9058019934803975e-02 -5.3629999277895890e-01 +5.2955399808491156e-03
-4.9999999999999982e+00 +8.1642930128247624e+00 +0.0000000000000000e+00 -4.9999999333557454e+00 -2.9058044795595910e-02 -5.3630015755761495e-01 +5.2956161199834749e-03
-5.0999999999999979e+00 +8.1642644504237403e+00 +0.0000000000000000e+00 -5.0999999292765583e+00 -2.9058074325989381e-02 -5.3630032004751182e-01 +5.2956951875025131e-03
-5.1999999999999975e+00 +8.1642353224242967e+00 +0.0000000000000000e+00 -5.1999999250342235e+00 -2.9058107286754297e-02 -5.3630048082384796e-01 +5.2957772054691475e-03
-5.2999999999999972e+00 +8.1642056288262612e+00 +0.0000000000000000e+00 -5.2999999206255417e+00 -2.9058142438666557e-02 -5.3630064046184567e-01 +5.2958621959421507e-03
-5.3999999999999968e+00 +8.1641753696294685e+00 +0.0000000000000000e+00 -5.3999999160473138e+00 -2.9058178542508535e-02 -5.3630079953675069e-01 +5.2959501809759380e-03
-5.4999999999999964e+00 +8.1641445448337517e+00 +0.0000000000000000e+00 -5.4999999112963405e+00 -2.9058214359069696e-02 -5.3630095862383476e-01 +5.2960411826203542e-03
-5.5999999999999961e+00 +8.1641131544389438e+00 +0.0000000000000000e+00 -5.5999999063694226e+00 -2.9058248649147102e-02 -5.3630111829839588e-01 +5.2961352229204351e-03
-5.6999999999999957e+00 +8.1640811984448760e+00 +0.0000000000000000e+00 -5.6999999012633618e+00 -2.9058280173545965e-02 -5.3630127913575865e-01 +5.2962323239161878e-03
-5.7999999999999954e+00 +8.1640486768513814e+00 +0.0000000000000000e+00 -5.7999998959749579e+00 -2.9058307693080147e-02 -5.3630144171127403e-01 +5.2963325076423691e-03
-5.8999999999999950e+00 +8.1640155896582893e+00 +0.0000000000000000e+00 -5.8999998905010127e+00 -2.9058329968572810e-02 -5.3630160660032322e-01 +5.2964357961282635e-03
-5.9999999999999947e+00 +8.1639819368654258e+00 +0.0000000000000000e+00 -5.9999998848383269e+00 -2.9058345760856853e-02 -5.3630177437831517e-01 +5.2965422113974581e-03
-6.0999999999999943e+00 +8.1639477184726150e+00 +0.0000000000000000e+00 -6.0999998789837013e+00 -2.9058354113599322e-02 -5.3630194557962274e-01 +5.2966517546273236e-03
-6.1999999999999940e+00 +8.1639129344796793e+00 +0.0000000000000000e+00 -6.1999998729339367e+00 -2.9058355201768152e-02 -5.3630212057436744e-01 +5.2967643436302361e-03
-6.2999999999999936e+00 +8.1638775848864338e+00 +0.0000000000000000e+00 -6.2999998666858348e+00 -2.9058349483143397e-02 -5.3630229969158971e-01 +5.2968798753791737e-03
-6.3999999999999932e+00 +8.1638416696926903e+00 +0.0000000000000000e+00 -6.3999998602361954e+00 -2.9058337415488772e-02 -5.3630248326031316e-01 +5.2969982468488970e-03
-6.4999999999999929e+00 +8.1638051888982570e+00 +0.0000000000000000e+00 -6.4999998535818202e+00 -2.9058319456551081e-02 -5.3630267160953959e-01 +5.2971193550160525e-03
-6.5999999999999925e+00 +8.1637681425029367e+00 +0.0000000000000000e+00 -6.5999998467195100e+00 -2.9058296064059679e-02 -5.3630286506825164e-01 +5.2972430968592646e-03
-6.6999999999999922e+00 +8.1637305305065251e+00 +0.0000000000000000e+00 -6.6999998396460647e+00 -2.9058267695725937e-02 -5.3630306396540828e-01 +5.2973693693592408e-03
-6.7999999999999918e+00 +8.1636923529088143e+00 +0.0000000000000000e+00 -6.7999998323582860e+00 -2.9058234809242696e-02 -5.3630326862994648e-01 +5.2974980694988722e-03
-6.8999999999999915e+00 +8.1636536097095895e+00 +0.0000000000000000e+00 -6.8999998248529746e+00 -2.9058197862283697e-02 -5.3630347939077716e-01 +5.2976290942633236e-03
-6.9999999999999911e+00 +8.1636143009086304e+00 +0.0000000000000000e+00 -6.9999998171269322e+00 -2.9058157312503094e-02 -5.3630369657678745e-01 +5.2977623406401482e-03
-7.0999999999999908e+00 +8.1635744265057095e+00 +0.0000000000000000e+00 -7.0999998091769587e+00 -2.9058113617534798e-02 -5.3630392051683562e-01 +5.2978977056193678e-03
-7.1999999999999904e+00 +8.1635339865005907e+00 +0.0000000000000000e+00 -7.1999998009998549e+00 -2.9058067234992088e-02 -5.3630415153975353e-01 +5.2980350861935935e-03
-7.2999999999999901e+00 +8.1634929808930323e+00 +0.0000000000000000e+00 -7.2999997925924216e+00 -2.9058018622466913e-02 -5.3630438997434227e-01 +5.2981743793581067e-03
-7.3999999999999897e+00 +8.1634514096827839e+00 +0.0000000000000000e+00 -7.3999997839514604e+00 -2.9057968237529423e-02 -5.3630463614937340e-01 +5.2983154821109636e-03
-7.4999999999999893e+00 +8.1634092728695880e+00 +0.0000000000000000e+00 -7.4999997750737712e+00 -2.9057916537727446e-02 -5.3630489039358653e-01 +5.2984582914531054e-03
-7.5999999999999890e+00 +8.1633665704531762e+00 +0.0000000000000000e+00 -7.5999997659561558e+00 -2.9057863980585855e-02 -5.3630515303568882e-01 +5.2986027043884412e-03
-7.6999999999999886e+00 +8.1633233024332732e+00 +0.0000000000000000e+00 -7.6999997565954139e+00 -2.9057811023606120e-02 -5.3630542440435258e-01 +5.2987486179239575e-03
-7.7999999999999883e+00 +8.1632794688095949e+00 +0.0000000000000000e+00 -7.7999997469883473e+00 -2.9057758124265701e-02 -5.3630570482821505e-01 +5.2988959290698233e-03
-7.8999999999999879e+00 +8.1632350695818463e+00 +0.0000000000000000e+00 -7.8999997371317567e+00 -2.9057705740017523e-02 -5.3630599463587769e-01 +5.2990445348394706e-03
-7.9999999999999876e+00 +8.1631901047497237e+00 +0.0000000000000000e+00 -7.9999997270224421e+00 -2.9057654328289429e-02 -5.3630629415590403e-01 +5.2991943322497148e-03
-8.0999999999999872e+00 +8.1631445743129127e+00 +0.0000000000000000e+00 -8.0999997166572051e+00 -2.9057604288542684e-02 -5.3630660363818183e-01 +5.2993452274830944e-03
-8.1999999999999869e+00 +8.1630984782710883e+00 +0.0000000000000000e+00 -8.1999997060328464e+00 -2.9057555788479995e-02 -5.3630692301802307e-01 +5.2994971633724295e-03
-8.2999999999999865e+00 +8.1630518166239145e+00 +0.0000000000000000e+00 -8.2999996951461661e+00 -2.9057508937928446e-02 -5.3630725215208930e-01 +5.2996500919093520e-03
-8.3999999999999861e+00 +8.1630045893710470e+00 +0.0000000000000000e+00 -8.3999996839939648e+00 -2.9057463846792086e-02 -5.3630759089703384e-01 +5.2998039650811180e-03
-8.4999999999999858e+00 +8.1629567965121286e+00 +0.0000000000000000e+00 -8.4999996725730433e+00 -2.9057420625054446e-02 -5.3630793910949925e-01 +5.2999587348704739e-03
-8.5999999999999854e+00 +8.1629084380467933e+00 +0.0000000000000000e+00 -8.5999996608802043e+00 -2.9057379382781034e-02 -5.3630829664611868e-01 +5.3001143532555080e-03
-8.6999999999999851e+00 +8.1628595139746682e+00 +0.0000000000000000e+00 -8.6999996489122466e+00 -2.9057340230121902e-02 -5.3630866336351579e-01 +5.3002707722095274e-03
-8.7999999999999847e+00 +8.1628100242953661e+00 +0.0000000000000000e+00 -8.7999996366659712e+00 -2.9057303277314102e-02 -5.3630903911830252e-01 +5.3004279437008969e-03
-8.8999999999999844e+00 +8.1627599690084924e+00 +0.0000000000000000e+00 -8.8999996241381787e+00 -2.9057268634684250e-02 -5.3630942376708157e-01 +5.3005858196929117e-03
-8.9999999999999840e+00 +8.1627093481136423e+00 +0.0000000000000000e+00 -8.9999996113256699e+00 -2.9057236412651018e-02 -5.3630981716644432e-01 +5.3007443521436576e-03
-9.0999999999999837e+00 +8.1626581616104037e+00 +0.0000000000000000e+00 -9.0999995982252457e+00 -2.9057206721727683e-02 -5.3631021917297128e-01 +5.3009034930058723e-03
-9.1999999999999833e+00 +8.1626064094983555e+00 +0.0000000000000000e+00 -9.1999995848337068e+00 -2.9057179672524597e-02 -5.3631062964323184e-01 +5.3010631942267935e-03
-9.2999999999999829e+00 +8.1625540917770643e+00 +0.0000000000000000e+00 -9.2999995711478523e+00 -2.9057155375751730e-02 -5.3631104843378385e-01 +5.3012234077480383e-03
-9.3999999999999826e+00 +8.1625012084460913e+00 +0.0000000000000000e+00 -9.3999995571644845e+00 -2.9057133942221192e-02 -5.3631147540117363e-01 +5.3013840855054466e-03
-9.4999999999999822e+00 +8.1624477595049871e+00 +0.0000000000000000e+00 -9.4999995428804045e+00 -2.9057115482849734e-02 -5.3631191040193571e-01 +5.3015451794289495e-03
-9.5999999999999819e+00 +8.1623937449532953e+00 +0.0000000000000000e+00 -9.5999995282924111e+00 -2.9057100108661291e-02 -5.3631235329259275e-01 +5.3017066414424363e-03
-9.6999999999999815e+00 +8.1623391647905503e+00 +0.0000000000000000e+00 -9.6999995133973052e+00 -2.9057087930789430e-02 -5.3631280392965408e-01 +5.3018684234635953e-03
-9.7999999999999812e+00 +8.1622840190162780e+00 +0.0000000000000000e+00 -9.7999994981918892e+00 -2.9057079060479992e-02 -5.3631326216961828e-01 +5.3020304774037972e-03
-9.8999999999999808e+00 +8.1622283076299986e+00 +0.0000000000000000e+00 -9.8999994826729623e+00 -2.9057073609093449e-02 -5.3631372786897002e-01 +5.3021927551679428e-03
-9.9999999999999805e+00 +8.1621720306312220e+00 +0.0000000000000000e+00 -9.9999994668373251e+00 -2.9057071688107550e-02 -5.3631420088418114e-01 +5.3023552086543186e-03
-1.0099999999999980e+01 +8.1621151880194507e+00 +0.0000000000000000e+00 -1.0099999450681779e+01 -2.9057073345667109e-02 -5.3631468114096725e-01 +5.3025178091474865e-03
-1.0199999999999980e+01 +8.1620577797941802e+00 +0.0000000000000000e+00 -1.0199999434203121e+01 -2.9057078376158740e-02 -5.3631516884206520e-01 +5.3026806055045273e-03
-1.0299999999999979e+01 +8.1619998059548973e+00 +0.0000000000000000e+00 -1.0299999417398157e+01 -2.9057086510456038e-02 -5.3631566425946819e-01 +5.3028436659862174e-03
-1.0399999999999979e+01 +8.1619412665010813e+00 +0.0000000000000000e+00 -1.0399999400263683e+01 -2.9057097479355774e-02 -5.3631616766516876e-01 +5.3030070588652002e-03
-1.0499999999999979e+01 +8.1618821614322048e+00 +0.0000000000000000e+00 -1.0499999382796503e+01 -2.9057111013575519e-02 -5.3631667933115834e-01 +5.3031708524263321e-03
-1.0599999999999978e+01 +8.1618224907477277e+00 +0.0000000000000000e+00 -1.0599999364993415e+01 -2.9057126843751325e-02 -5.3631719952942736e-01 +5.3033351149669606e-03
-1.0699999999999978e+01 +8.1617622544471047e+00 +0.0000000000000000e+00 -1.0699999346851222e+01 -2.9057144700435369e-02 -5.3631772853196569e-01 +5.3034999147972516e-03
-1.0799999999999978e+01 +8.1617014525297797e+00 +0.0000000000000000e+00 -1.0799999328366720e+01 -2.9057164314093595e-02 -5.3631826661076243e-01 +5.3036653202405120e-03
-1.0899999999999977e+01 +8.1616400849951880e+00 +0.0000000000000000e+00 -1.0899999309536714e+01 -2.9057185415103427e-02 -5.3631881403780546e-01 +5.3038313996334810e-03
-1.0999999999999977e+01 +8.1615781518427539e+00 +0.0000000000000000e+00 -1.0999999290358002e+01 -2.9057207733751367e-02 -5.3631937108508343e-01 +5.3039982213266565e-03
-1.1099999999999977e+01 +8.1615156530718913e+00 +0.0000000000000000e+00 -1.1099999270827384e+01 -2.9057231000230679e-02 -5.3631993802458311e-01 +5.3041658536846000e-03
-1.1199999999999976e+01 +8.1614525886820033e+00 +0.0000000000000000e+00 -1.1199999250941662e+01 -2.9057254944639083e-02 -5.3632051512829182e-01 +5.3043343650862520e-03
-1.1299999999999976e+01 +8.1613889586724842e+00 +0.0000000000000000e+00 -1.1299999230697637e+01 -2.9057279296976355e-02 -5.3632110266819577e-01 +5.3045038239252487e-03
-1.1399999999999975e+01 +8.1613247630427175e+00 +0.0000000000000000e+00 -1.1399999210092107e+01 -2.9057303787141990e-02 -5.3632170091628095e-01 +5.3046742986102135e-03
-1.1499999999999975e+01 +8.1612600017920727e+00 +0.0000000000000000e+00 -1.1499999189121873e+01 -2.9057328144932924e-02 -5.3632231014453380e-01 +5.3048458575650987e-03
-1.1599999999999975e+01 +8.1611946749199102e+00 +0.0000000000000000e+00 -1.1599999167783736e+01 -2.9057352100041109e-02 -5.3632293062494008e-01 +5.3050185692294699e-03
-1.1699999999999974e+01 +8.1611287824255765e+00 +0.0000000000000000e+00 -1.1699999146074497e+01 -2.9057375382051272e-02 -5.3632356262948555e-01 +5.3051925020588322e-03
