# trajectory
# s[mm] rx[mm] ry[mm] rz[mm] px[rad] py[rad] pz[rad]
0.0000000000000000e+00 +8.1649999999999991e+00 +0.0000000000000000e+00 +0.0000000000000000e+00 +0.0000000000000000e+00 +0.0000000000000000e+00 +1.0000000000000000e+00
1.0000000000000001e-01 +8.1649997168270225e+00 +0.0000000000000000e+00 +9.9999999999465433e-02 -5.6634593380722847e-06 +0.0000000000000000e+00 +9.9999999998396261e-01
2.0000000000000001e-01 +8.1649988673081726e+00 +0.0000000000000000e+00 +1.9999999999572338e-01 -1.1326917484080913e-05 +0.0000000000000000e+00 +9.9999999993585043e-01
3.0000000000000004e-01 +8.1649974514435630e+00 +0.0000000000000000e+00 +2.9999999998556637e-01 -1.6990374530178499e-05 +0.0000000000000000e+00 +9.9999999985566357e-01
4.0000000000000002e-01 +8.1649954692333004e+00 +0.0000000000000000e+00 +3.9999999996578695e-01 -2.2653830562657599e-05 +0.0000000000000000e+00 +9.9999999974340192e-01
5.0000000000000000e-01 +8.1649929206774825e+00 +0.0000000000000000e+00 +4.9999999993317762e-01 -2.8317285661950739e-05 +0.0000000000000000e+00 +9.9999999959906560e-01
5.9999999999999998e-01 +8.1649898057761980e+00 +0.0000000000000000e+00 +5.9999999988453090e-01 -3.3980739902630480e-05 +0.0000000000000000e+00 +9.9999999942265461e-01
6.9999999999999996e-01 +8.1649861245295288e+00 +0.0000000000000000e+00 +6.9999999981663941e-01 -3.9644193353409410e-05 +0.0000000000000000e+00 +9.9999999921416893e-01
7.9999999999999993e-01 +8.1649818769375511e+00 +0.0000000000000000e+00 +7.9999999972629554e-01 -4.5307646077140191e-05 +0.0000000000000000e+00 +9.9999999897360858e-01
8.9999999999999991e-01 +8.1649770630003360e+00 +0.0000000000000000e+00 +8.9999999961029198e-01 -5.0971098130815557e-05 +0.0000000000000000e+00 +9.9999999870097356e-01
9.9999999999999989e-01 +8.1649716827179457e+00 +0.0000000000000000e+00 +9.9999999946542117e-01 -5.6634549565568339e-05 +0.0000000000000000e+00 +9.9999999839626386e-01
1.0999999999999999e+00 +8.1649657360904406e+00 +0.0000000000000000e+00 +1.0999999992884757e+00 -6.2298000426671453e-05 +0.0000000000000000e+00 +9.9999999805947948e-01
1.2000000000000000e+00 +8.1649592231178776e+00 +0.0000000000000000e+00 +1.1999999990762480e+00 -6.7961450753537884e-05 +0.0000000000000000e+00 +9.9999999769062053e-01
1.3000000000000000e+00 +8.1649521438003063e+00 +0.0000000000000000e+00 +1.2999999988255306e+00 -7.3624900579720713e-05 +0.0000000000000000e+00 +9.9999999728968691e-01
1.4000000000000001e+00 +8.1649444981377766e+00 +0.0000000000000000e+00 +1.3999999985331162e+00 -7.9288349932913040e-05 +0.0000000000000000e+00 +9.9999999685667873e-01
1.5000000000000002e+00 +8.1649362861303345e+00 +0.0000000000000000e+00 +1.4999999981957972e+00 -8.4951798834947986e-05 +0.0000000000000000e+00 +9.9999999639159587e-01
1.6000000000000003e+00 +8.1649275077780246e+00 +0.0000000000000000e+00 +1.5999999978103663e+00 -9.0615247301798667e-05 +0.0000000000000000e+00 +9.9999999589443844e-01
1.7000000000000004e+00 +8.1649181630808894e+00 +0.0000000000000000e+00 +1.6999999973736157e+00 -9.6278695343578142e-05 +0.0000000000000000e+00 +9.9999999536520634e-01
1.8000000000000005e+00 +8.1649082520389697e+00 +0.0000000000000000e+00 +1.7999999968823384e+00 -1.0194214296453936e-04 +0.0000000000000000e+00 +9.9999999480389967e-01
1.9000000000000006e+00 +8.1648977746523101e+00 +0.0000000000000000e+00 +1.8999999963333265e+00 -1.0760559016307509e-04 +0.0000000000000000e+00 +9.9999999421051844e-01
2.0000000000000004e+00 +8.1648867309209514e+00 +0.0000000000000000e+00 +1.9999999957233729e+00 -1.1326903693171790e-04 +0.0000000000000000e+00 +9.9999999358506264e-01
2.1000000000000005e+00 +8.1648751208449379e+00 +0.0000000000000000e+00 +2.0999999950492700e+00 -1.1893248325766002e-04 +0.0000000000000000e+00 +9.9999999292753217e-01
2.2000000000000006e+00 +8.1648629444243142e+00 +0.0000000000000000e+00 +2.1999999943078103e+00 -1.2459592912847308e-04 +0.0000000000000000e+00 +9.9999999223792713e-01
2.3000000000000007e+00 +8.1648502016591262e+00 +0.0000000000000000e+00 +2.2999999934957862e+00 -1.3025937453782767e-04 +0.0000000000000000e+00 +9.9999999151624752e-01
2.4000000000000008e+00 +8.1648368925494204e+00 +0.0000000000000000e+00 +2.3999999926099904e+00 -1.3592281948601335e-04 +0.0000000000000000e+00 +9.9999999076249346e-01
2.5000000000000009e+00 +8.1648230170952427e+00 +0.0000000000000000e+00 +2.4999999916472158e+00 -1.4158626397993857e-04 +0.0000000000000000e+00 +9.9999998997666484e-01
2.6000000000000010e+00 +8.1648085752966377e+00 +0.0000000000000000e+00 +2.5999999906042546e+00 -1.4724970803313054e-04 +0.0000000000000000e+00 +9.9999998915876165e-01
2.7000000000000011e+00 +8.1647935671536498e+00 +0.0000000000000000e+00 +2.6999999894778992e+00 -1.5291315166573516e-04 +0.0000000000000000e+00 +9.9999998830878389e-01
2.8000000000000012e+00 +8.1647779926663180e+00 +0.0000000000000000e+00 +2.7999999882649425e+00 -1.5857659490451693e-04 +0.0000000000000000e+00 +9.9999998742673168e-01
2.9000000000000012e+00 +8.1647618518346814e+00 +0.0000000000000000e+00 +2.8999999869621766e+00 -1.6424003778285886e-04 +0.0000000000000000e+00 +9.9999998651260491e-01
3.0000000000000013e+00 +8.1647451446587720e+00 +0.0000000000000000e+00 +2.9999999855663946e+00 -1.6990348034076237e-04 +0.0000000000000000e+00 +9.9999998556640357e-01
3.1000000000000014e+00 +8.1647278711386218e+00 +0.0000000000000000e+00 +3.0999999840743886e+00 -1.7556692262484717e-04 +0.0000000000000000e+00 +9.9999998458812767e-01
3.2000000000000015e+00 +8.1647100312742538e+00 +0.0000000000000000e+00 +3.1999999824829510e+00 -1.8123036468835118e-04 +0.0000000000000000e+00 +9.9999998357777731e-01
3.3000000000000016e+00 +8.1646916250656894e+00 +0.0000000000000000e+00 +3.2999999807888747e+00 -1.8689380659113038e-04 +0.0000000000000000e+00 +9.9999998253535238e-01
3.4000000000000017e+00 +8.1646726525129392e+00 +0.0000000000000000e+00 +3.3999999789889523e+00 -1.9255724839965869e-04 +0.0000000000000000e+00 +9.9999998146085289e-01
3.5000000000000018e+00 +8.1646531136160103e+00 +0.0000000000000000e+00 +3.4999999770799763e+00 -1.9822069018702790e-04 +0.0000000000000000e+00 +9.9999998035427884e-01
3.6000000000000019e+00 +8.1646330083749010e+00 +0.0000000000000000e+00 +3.5999999750587390e+00 -2.0388413203294744e-04 +0.0000000000000000e+00 +9.9999997921563022e-01
3.7000000000000020e+00 +8.1646123367896006e+00 +0.0000000000000000e+00 +3.6999999729220332e+00 -2.0954757402374437e-04 +0.0000000000000000e+00 +9.9999997804490692e-01
3.8000000000000020e+00 +8.1645910988600896e+00 +0.0000000000000000e+00 +3.7999999706666512e+00 -2.1521101625236313e-04 +0.0000000000000000e+00 +9.9999997684210906e-01
3.9000000000000021e+00 +8.1645692945863395e+00 +0.0000000000000000e+00 +3.8999999682893858e+00 -2.2087445881836543e-04 +0.0000000000000000e+00 +9.9999997560723652e-01
4.0000000000000018e+00 +8.1645469239683113e+00 +0.0000000000000000e+00 +3.9999999657870293e+00 -2.2653790182793014e-04 +0.0000000000000000e+00 +9.9999997434028931e-01
4.1000000000000014e+00 +8.1645239870059552e+00 +0.0000000000000000e+00 +4.0999999631563746e+00 -2.3220134539327797e-04 +0.0000000000000000e+00 +9.9999997304126731e-01
4.2000000000000011e+00 +8.1645004836992108e+00 +0.0000000000000000e+00 +4.1999999603942140e+00 -2.3786478962634493e-04 +0.0000000000000000e+00 +9.9999997171017063e-01
4.3000000000000007e+00 +8.1644764140480053e+00 +0.0000000000000000e+00 +4.2999999574973398e+00 -2.4352823463245603e-04 +0.0000000000000000e+00 +9.9999997034699917e-01
4.4000000000000004e+00 +8.1644517780522552e+00 +0.0000000000000000e+00 +4.3999999544625448e+00 -2.4919168050975017e-04 +0.0000000000000000e+00 +9.9999996895175280e-01
4.5000000000000000e+00 +8.1644265757118699e+00 +0.0000000000000000e+00 +4.4999999512866209e+00 -2.5485512734918037e-04 +0.0000000000000000e+00 +9.9999996752443165e-01
4.5999999999999996e+00 +8.1644008070267500e+00 +0.0000000000000000e+00 +4.5999999479663618e+00 -2.6051857523451378e-04 +0.0000000000000000e+00 +9.9999996606503561e-01
4.6999999999999993e+00 +8.1643744719967852e+00 +0.0000000000000000e+00 +4.6999999444985594e+00 -2.6618202424233189e-04 +0.0000000000000000e+00 +9.9999996457356455e-01
4.7999999999999989e+00 +8.1643475706218620e+00 +0.0000000000000000e+00 +4.7999999408800056e+00 -2.7184547444203064e-04 +0.0000000000000000e+00 +9.9999996305001848e-01
4.8999999999999986e+00 +8.1643201029018559e+00 +0.0000000000000000e+00 +4.8999999371074940e+00 -2.7750892589582056e-04 +0.0000000000000000e+00 +9.9999996149439740e-01
4.9999999999999982e+00 +8.1642920688366392e+00 +0.0000000000000000e+00 +4.9999999331778167e+00 -2.8317237865872703e-04 +0.0000000000000000e+00 +9.9999995990670132e-01
5.0999999999999979e+00 +8.1642634684260784e+00 +0.0000000000000000e+00 +5.0999999290877653e+00 -2.8883583277859037e-04 +0.0000000000000000e+00 +9.9999995828693011e-01
5.1999999999999975e+00 +8.1642343016700369e+00 +0.0000000000000000e+00 +5.1999999248341338e+00 -2.9449928829606610e-04 +0.0000000000000000e+00 +9.9999995663508379e-01
5.2999999999999972e+00 +8.1642045685683726e+00 +0.0000000000000000e+00 +5.2999999204137129e+00 -3.0016274524462505e-04 +0.0000000000000000e+00 +9.9999995495116234e-01
5.3999999999999968e+00 +8.1641742691209398e+00 +0.0000000000000000e+00 +5.3999999158232965e+00 -3.0582620365055371e-04 +0.0000000000000000e+00 +9.9999995323516566e-01
5.4999999999999964e+00 +8.1641434033275928e+00 +0.0000000000000000e+00 +5.4999999110596764e+00 -3.1148966353295436e-04 +0.0000000000000000e+00 +9.9999995148709375e-01
5.5999999999999961e+00 +8.1641119711881842e+00 +0.0000000000000000e+00 +5.5999999061196455e+00 -3.1715312490374526e-04 +0.0000000000000000e+00 +9.9999994970694661e-01
5.6999999999999957e+00 +8.1640799727025630e+00 +0.0000000000000000e+00 +5.6999999009999964e+00 -3.2281658776766101e-04 +0.0000000000000000e+00 +9.9999994789472413e-01
5.7999999999999954e+00 +8.1640474078705818e+00 +0.0000000000000000e+00 +5.7999998956975212e+00 -3.2848005212225272e-04 +0.0000000000000000e+00 +9.9999994605042641e-01
5.8999999999999950e+00 +8.1640142766920896e+00 +0.0000000000000000e+00 +5.8999998902090125e+00 -3.3414351795788840e-04 +0.0000000000000000e+00 +9.9999994417405336e-01
5.9999999999999947e+00 +8.1639805791669406e+00 +0.0000000000000000e+00 +5.9999998845312623e+00 -3.3980698525775305e-04 +0.0000000000000000e+00 +9.9999994226560496e-01
6.0999999999999943e+00 +8.1639463152949894e+00 +0.0000000000000000e+00 +6.0999998786610643e+00 -3.4547045399838436e-04 +0.0000000000000000e+00 +9.9999994032508122e-01
6.1999999999999940e+00 +8.1639114850760937e+00 +0.0000000000000000e+00 +6.1999998725952095e+00 -3.5113392415556105e-04 +0.0000000000000000e+00 +9.9999993835248202e-01
6.2999999999999936e+00 +8.1638760885101114e+00 +0.0000000000000000e+00 +6.2999998663304915e+00 -3.5679739571019107e-04 +0.0000000000000000e+00 +9.9999993634780748e-01
6.3999999999999932e+00 +8.1638401255969058e+00 +0.0000000000000000e+00 +6.3999998598637022e+00 -3.6246086864884642e-04 +0.0000000000000000e+00 +9.9999993431105749e-01
6.4999999999999929e+00 +8.1638035963363365e+00 +0.0000000000000000e+00 +6.4999998531916336e+00 -3.6812434296376308e-04 +0.0000000000000000e+00 +9.9999993224223205e-01
6.5999999999999925e+00 +8.1637665007282667e+00 +0.0000000000000000e+00 +6.5999998463110794e+00 -3.7378781865284060e-04 +0.0000000000000000e+00 +9.9999993014133115e-01
6.6999999999999922e+00 +8.1637288387725597e+00 +0.0000000000000000e+00 +6.6999998392188314e+00 -3.7945129571964175e-04 +0.0000000000000000e+00 +9.9999992800835480e-01
6.7999999999999918e+00 +8.1636906104690770e+00 +0.0000000000000000e+00 +6.7999998319116814e+00 -3.8511477417339232e-04 +0.0000000000000000e+00 +9.9999992584330288e-01
6.8999999999999915e+00 +8.1636518158176781e+00 +0.0000000000000000e+00 +6.8999998243864225e+00 -3.9077825402898073e-04 +0.0000000000000000e+00 +9.9999992364617540e-01
6.9999999999999911e+00 +8.1636124548182227e+00 +0.0000000000000000e+00 +6.9999998166398472e+00 -3.9644173530695761e-04 +0.0000000000000000e+00 +9.9999992141697236e-01
7.0999999999999908e+00 +8.1635725274705671e+00 +0.0000000000000000e+00 +7.0999998086687475e+00 -4.0210521803353555e-04 +0.0000000000000000e+00 +9.9999991915569375e-01
7.1999999999999904e+00 +8.1635320337745654e+00 +0.0000000000000000e+00 +7.1999998004699162e+00 -4.0776870224058873e-04 +0.0000000000000000e+00 +9.9999991686233947e-01
7.2999999999999901e+00 +8.1634909737300685e+00 +0.0000000000000000e+00 +7.2999997920401460e+00 -4.1343218796565246e-04 +0.0000000000000000e+00 +9.9999991453690951e-01
7.3999999999999897e+00 +8.1634493473369201e+00 +0.0000000000000000e+00 +7.3999997833762290e+00 -4.1909567525192282e-04 +0.0000000000000000e+00 +9.9999991217940387e-01
7.4999999999999893e+00 +8.1634071545949638e+00 +0.0000000000000000e+00 +7.4999997744749578e+00 -4.2475916414825622e-04 +0.0000000000000000e+00 +9.9999990978982245e-01
7.5999999999999890e+00 +8.1633643955040345e+00 +0.0000000000000000e+00 +7.5999997653331244e+00 -4.3042265470916906e-04 +0.0000000000000000e+00 +9.9999990736816513e-01
7.6999999999999886e+00 +8.1633210700639633e+00 +0.0000000000000000e+00 +7.6999997559475215e+00 -4.3608614699483723e-04 +0.0000000000000000e+00 +9.9999990491443191e-01
7.7999999999999883e+00 +8.1632771782745746e+00 +0.0000000000000000e+00 +7.7999997463149420e+00 -4.4174964107109575e-04 +0.0000000000000000e+00 +9.9999990242862280e-01
7.8999999999999879e+00 +8.1632327201356869e+00 +0.0000000000000000e+00 +7.8999997364321777e+00 -4.4741313700943810e-04 +0.0000000000000000e+00 +9.9999989991073768e-01
7.9999999999999876e+00 +8.1631876956471086e+00 +0.0000000000000000e+00 +7.9999997262960205e+00 -4.5307663488701607e-04 +0.0000000000000000e+00 +9.9999989736077644e-01
8.0999999999999872e+00 +8.1631421048086423e+00 +0.0000000000000000e+00 +8.0999997159032642e+00 -4.5874013478623563e-04 +0.0000000000000000e+00 +9.9999989477873907e-01
8.1999999999999869e+00 +8.1630959476200822e+00 +0.0000000000000000e+00 +8.1999997052507005e+00 -4.6440363679032057e-04 +0.0000000000000000e+00 +9.9999989216462548e-01
8.2999999999999865e+00 +8.1630492240812114e+00 +0.0000000000000000e+00 +8.2999996943351206e+00 -4.7006714097887626e-04 +0.0000000000000000e+00 +9.9999988951843566e-01
8.3999999999999861e+00 +8.1630019341918096e+00 +0.0000000000000000e+00 +8.3999996831533181e+00 -4.7573064742748689e-04 +0.0000000000000000e+00 +9.9999988684016938e-01
8.4999999999999858e+00 +8.1629540779516478e+00 +0.0000000000000000e+00 +8.4999996717020849e+00 -4.8139415620771626e-04 +0.0000000000000000e+00 +9.9999988412982665e-01
8.5999999999999854e+00 +8.1629056553604880e+00 +0.0000000000000000e+00 +8.5999996599782147e+00 -4.8705766738710825e-04 +0.0000000000000000e+00 +9.9999988138740747e-01
8.6999999999999851e+00 +8.1628566664180884e+00 +0.0000000000000000e+00 +8.6999996479784976e+00 -4.9272118102918763e-04 +0.0000000000000000e+00 +9.9999987861291173e-01
8.7999999999999847e+00 +8.1628071111241987e+00 +0.0000000000000000e+00 +8.7999996356997272e+00 -4.9838469719346067e-04 +0.0000000000000000e+00 +9.9999987580633931e-01
8.8999999999999844e+00 +8.1627569894785648e+00 +0.0000000000000000e+00 +8.8999996231386955e+00 -5.0404821593541592e-04 +0.0000000000000000e+00 +9.9999987296769011e-01
8.9999999999999840e+00 +8.1627063014809256e+00 +0.0000000000000000e+00 +8.9999996102921962e+00 -5.0971173730652490e-04 +0.0000000000000000e+00 +9.9999987009696412e-01
9.0999999999999837e+00 +8.1626550471310146e+00 +0.0000000000000000e+00 +9.0999995971570193e+00 -5.1537526135424293e-04 +0.0000000000000000e+00 +9.9999986719416134e-01
9.1999999999999833e+00 +8.1626032264285637e+00 +0.0000000000000000e+00 +9.1999995837299586e+00 -5.2103878812200985e-04 +0.0000000000000000e+00 +9.9999986425928156e-01
9.2999999999999829e+00 +8.1625508393732975e+00 +0.0000000000000000e+00 +9.2999995700078060e+00 -5.2670231764925075e-04 +0.0000000000000000e+00 +9.9999986129232477e-01
9.3999999999999826e+00 +8.1624978859649406e+00 +0.0000000000000000e+00 +9.3999995559873533e+00 -5.3236584997137695e-04 +0.0000000000000000e+00 +9.9999985829329097e-01
9.4999999999999822e+00 +8.1624443662032089e+00 +0.0000000000000000e+00 +9.4999995416653942e+00 -5.3802938511978674e-04 +0.0000000000000000e+00 +9.9999985526218005e-01
9.5999999999999819e+00 +8.1623902800878199e+00 +0.0000000000000000e+00 +9.5999995270387206e+00 -5.4369292312186630e-04 +0.0000000000000000e+00 +9.9999985219899190e-01
9.6999999999999815e+00 +8.1623356276184875e+00 +0.0000000000000000e+00 +9.6999995121041245e+00 -5.4935646400099049e-04 +0.0000000000000000e+00 +9.9999984910372652e-01
9.7999999999999812e+00 +8.1622804087949223e+00 +0.0000000000000000e+00 +9.7999994968583977e+00 -5.5502000777652393e-04 +0.0000000000000000e+00 +9.9999984597638381e-01
9.8999999999999808e+00 +8.1622246236168348e+00 +0.0000000000000000e+00 +9.8999994812983321e+00 -5.6068355446382162e-04 +0.0000000000000000e+00 +9.9999984281696375e-01
9.9999999999999805e+00 +8.1621682720839317e+00 +0.0000000000000000e+00 +9.9999994654207214e+00 -5.6634710407423038e-04 +0.0000000000000000e+00 +9.9999983962546624e-01
1.0099999999999980e+01 +8.1621113541959218e+00 +0.0000000000000000e+00 +1.0099999449222356e+01 -5.7201065661530398e-04 +0.0000000000000000e+00 +9.9999983640189127e-01
1.0199999999999980e+01 +8.1620538699525103e+00 +0.0000000000000000e+00 +1.0199999432700029e+01 -5.7767421209316489e-04 +0.0000000000000000e+00 +9.9999983314623875e-01
1.0299999999999979e+01 +8.1619958193534039e+00 +0.0000000000000000e+00 +1.0299999415850534e+01 -5.8333777051486520e-04 +0.0000000000000000e+00 +9.9999982985850855e-01
1.0399999999999979e+01 +8.1619372023983079e+00 +0.0000000000000000e+00 +1.0399999398670662e+01 -5.8900133188860104e-04 +0.0000000000000000e+00 +9.9999982653870079e-01
1.0499999999999979e+01 +8.1618780190869273e+00 +0.0000000000000000e+00 +1.0499999381157204e+01 -5.9466489622371239e-04 +0.0000000000000000e+00 +9.9999982318681524e-01
1.0599999999999978e+01 +8.1618182694189638e+00 +0.0000000000000000e+00 +1.0599999363306955e+01 -6.0032846353068293e-04 +0.0000000000000000e+00 +9.9999981980285202e-01
1.0699999999999978e+01 +8.1617579533941207e+00 +0.0000000000000000e+00 +1.0699999345116705e+01 -6.0599203382113965e-04 +0.0000000000000000e+00 +9.9999981638681090e-01
1.0799999999999978e+01 +8.1616970710120995e+00 +0.0000000000000000e+00 +1.0799999326583247e+01 -6.1165560710785272e-04 +0.0000000000000000e+00 +9.9999981293869189e-01
1.0899999999999977e+01 +8.1616356222725983e+00 +0.0000000000000000e+00 +1.0899999307703373e+01 -6.1731918340473515e-04 +0.0000000000000000e+00 +9.9999980945849498e-01
1.0999999999999977e+01 +8.1615736071753169e+00 +0.0000000000000000e+00 +1.0999999288473877e+01 -6.2298276272684263e-04 +0.0000000000000000e+00 +9.9999980594622007e-01
1.1099999999999977e+01 +8.1615110257199515e+00 +0.0000000000000000e+00 +1.1099999268891548e+01 -6.2864634509037312e-04 +0.0000000000000000e+00 +9.9999980240186714e-01
1.1199999999999976e+01 +8.1614478779061965e+00 +0.0000000000000000e+00 +1.1199999248953180e+01 -6.3430993051266681e-04 +0.0000000000000000e+00 +9.9999979882543610e-01
1.1299999999999976e+01 +8.1613841637337465e+00 +0.0000000000000000e+00 +1.1299999228655565e+01 -6.3997351901220578e-04 +0.0000000000000000e+00 +9.9999979521692683e-01
1.1399999999999975e+01 +8.1613198832022906e+00 +0.0000000000000000e+00 +1.1399999207995496e+01 -6.4563711060861332e-04 +0.0000000000000000e+00 +9.9999979157633934e-01
1.1499999999999975e+01 +8.1612550363115197e+00 +0.0000000000000000e+00 +1.1499999186969763e+01 -6.5130070532265418e-04 +0.0000000000000000e+00 +9.9999978790367350e-01
1.1599999999999975e+01 +8.1611896230611212e+00 +0.0000000000000000e+00 +1.1599999165575161e+01 -6.5696430317623391e-04 +0.0000000000000000e+00 +9.9999978419892921e-01
1.1699999999999974e+01 +8.1611236434507788e+00 +0.0000000000000000e+00 +1.1699999143808480e+01 -6.6262790419239863e-04 +0.0000000000000000e+00 +9.9999978046210647e-01
1.1799999999999974e+01 +8.1610570974801764e+00 +0.0000000000000000e+00 +1.1799999121666513e+01 -6.6829150839533473e-04 +0.0000000000000000e+00 +9.9999977669320528e-01
