# field on trajectory
# s[mm] rx[mm] ry[mm] rz[mm] bx[T] by[T] bz[T]
0.0000000000000000e+00 +7.9199999999999999e+00 +0.0000000000000000e+00 +0.0000000000000000e+00 -2.8052471358790371e-02 -5.3883344489832097e-01 +5.3503229878606381e-03
1.0000000000000001e-01 +7.9199997167983884e+00 +0.0000000000000000e+00 +9.9999999999465322e-02 -2.8052505919550746e-02 -5.3883336638014645e-01 +5.3503213941998289e-03
2.0000000000000001e-01 +7.9199988671936019e+00 +0.0000000000000000e+00 +1.9999999999572249e-01 -2.8052551915909964e-02 -5.3883331970123050e-01 +5.3503187747315443e-03
3.0000000000000004e-01 +7.9199974511856901e+00 +0.0000000000000000e+00 +2.9999999998556343e-01 -2.8052608397562434e-02 -5.3883330275278529e-01 +5.3503153283343090e-03
4.0000000000000002e-01 +7.9199954687746716e+00 +0.0000000000000000e+00 +3.9999999996578001e-01 -2.8052674414204844e-02 -5.3883331342601726e-01 +5.3503112538873000e-03
5.0000000000000000e-01 +7.9199929199605350e+00 +0.0000000000000000e+00 +4.9999999993316402e-01 -2.8052749015533677e-02 -5.3883334961212648e-01 +5.3503067502699321e-03
5.9999999999999998e-01 +7.9199898047432429e+00 +0.0000000000000000e+00 +5.9999999988450747e-01 -2.8052831251242812e-02 -5.3883340920230716e-01 +5.3503020163614360e-03
6.9999999999999996e-01 +7.9199861231227322e+00 +0.0000000000000000e+00 +6.9999999981660210e-01 -2.8052920171020977e-02 -5.3883349008774606e-01 +5.3502972510404501e-03
7.9999999999999993e-01 +7.9199818750989186e+00 +0.0000000000000000e+00 +7.9999999972623992e-01 -2.8053014824549364e-02 -5.3883359015962562e-01 +5.3502926531846092e-03
8.9999999999999991e-01 +7.9199770606716973e+00 +0.0000000000000000e+00 +8.9999999961021271e-01 -2.8053114261499132e-02 -5.3883370730912028e-01 +5.3502884216701371e-03
9.9999999999999989e-01 +7.9199716798409456e+00 +0.0000000000000000e+00 +9.9999999946531237e-01 -2.8053217531528958e-02 -5.3883383942739915e-01 +5.3502847553714202e-03
1.0999999999999999e+00 +7.9199657326065251e+00 +0.0000000000000000e+00 +1.0999999992883307e+00 -2.8053323684282573e-02 -5.3883398440562491e-01 +5.3502818531605996e-03
1.2000000000000000e+00 +7.9199592189682830e+00 +0.0000000000000000e+00 +1.1999999990760597e+00 -2.8053431769386322e-02 -5.3883414013495401e-01 +5.3502799139071664e-03
1.3000000000000000e+00 +7.9199521389260568e+00 +0.0000000000000000e+00 +1.2999999988252910e+00 -2.8053540836446674e-02 -5.3883430450653669e-01 +5.3502791364775371e-03
1.4000000000000001e+00 +7.9199444924796740e+00 +0.0000000000000000e+00 +1.3999999985328166e+00 -2.8053649935047768e-02 -5.3883447541151674e-01 +5.3502797197346472e-03
1.5000000000000002e+00 +7.9199362796289545e+00 +0.0000000000000000e+00 +1.4999999981954284e+00 -2.8053758114749007e-02 -5.3883465074103221e-01 +5.3502818625375381e-03
1.6000000000000003e+00 +7.9199275003737153e+00 +0.0000000000000000e+00 +1.5999999978099182e+00 -2.8053864425082498e-02 -5.3883482838621433e-01 +5.3502857637409400e-03
1.7000000000000004e+00 +7.9199181547137698e+00 +0.0000000000000000e+00 +1.6999999973730777e+00 -2.8053967915550700e-02 -5.3883500623818836e-01 +5.3502916221948634e-03
1.8000000000000005e+00 +7.9199082426489325e+00 +0.0000000000000000e+00 +1.7999999968816989e+00 -2.8054067635623903e-02 -5.3883518218807347e-01 +5.3502996367441802e-03
1.9000000000000006e+00 +7.9198977641790176e+00 +0.0000000000000000e+00 +1.8999999963325735e+00 -2.8054162634737759e-02 -5.3883535412698191e-01 +5.3503100062282189e-03
2.0000000000000004e+00 +7.9198867193038458e+00 +0.0000000000000000e+00 +1.9999999957224934e+00 -2.8054251962290857e-02 -5.3883551994602030e-01 +5.3503229294803384e-03
2.1000000000000005e+00 +7.9198751080232430e+00 +0.0000000000000000e+00 +2.0999999950482504e+00 -2.8054334899783220e-02 -5.3883567789399989e-01 +5.3503385501800079e-03
2.2000000000000006e+00 +7.9198629303370431e+00 +0.0000000000000000e+00 +2.1999999943066366e+00 -2.8054411657252098e-02 -5.3883582765056970e-01 +5.3503567914122297e-03
2.3000000000000007e+00 +7.9198501862450899e+00 +0.0000000000000000e+00 +2.2999999934944437e+00 -2.8054482676876363e-02 -5.3883596925309041e-01 +5.3503775211145056e-03
2.4000000000000008e+00 +7.9198368757472339e+00 +0.0000000000000000e+00 +2.3999999926084632e+00 -2.8054548400842025e-02 -5.3883610273892535e-01 +5.3504006072253906e-03
2.5000000000000009e+00 +7.9198229988433368e+00 +0.0000000000000000e+00 +2.4999999916454874e+00 -2.8054609271345111e-02 -5.3883622814544008e-01 +5.3504259176849435e-03
2.6000000000000010e+00 +7.9198085555332662e+00 +0.0000000000000000e+00 +2.5999999906023077e+00 -2.8054665730594737e-02 -5.3883634551000470e-01 +5.3504533204351981e-03
2.7000000000000011e+00 +7.9197935458168987e+00 +0.0000000000000000e+00 +2.6999999894757161e+00 -2.8054718220815927e-02 -5.3883645486999399e-01 +5.3504826834206050e-03
2.8000000000000012e+00 +7.9197779696941204e+00 +0.0000000000000000e+00 +2.7999999882625044e+00 -2.8054767184252680e-02 -5.3883655626278804e-01 +5.3505138745884905e-03
2.9000000000000012e+00 +7.9197618271648258e+00 +0.0000000000000000e+00 +2.8999999869594646e+00 -2.8054813063170796e-02 -5.3883664972577361e-01 +5.3505467618895040e-03
3.0000000000000013e+00 +7.9197451182289162e+00 +0.0000000000000000e+00 +2.9999999855633881e+00 -2.8054856299860903e-02 -5.3883673529634468e-01 +5.3505812132780836e-03
3.1000000000000014e+00 +7.9197278428863029e+00 +0.0000000000000000e+00 +3.0999999840710672e+00 -2.8054897336641380e-02 -5.3883681301190323e-01 +5.3506170967129027e-03
3.2000000000000015e+00 +7.9197100011369042e+00 +0.0000000000000000e+00 +3.1999999824792935e+00 -2.8054936615861323e-02 -5.3883688290986076e-01 +5.3506542801573225e-03
3.3000000000000016e+00 +7.9196915929806471e+00 +0.0000000000000000e+00 +3.2999999807848588e+00 -2.8054974579903420e-02 -5.3883694502763813e-01 +5.3506926315798533e-03
3.4000000000000017e+00 +7.9196726184174677e+00 +0.0000000000000000e+00 +3.3999999789845550e+00 -2.8055011671186986e-02 -5.3883699940266738e-01 +5.3507320189546022e-03
3.5000000000000018e+00 +7.9196530774473084e+00 +0.0000000000000000e+00 +3.4999999770751735e+00 -2.8055048332170842e-02 -5.3883704607239169e-01 +5.3507723102617331e-03
3.6000000000000019e+00 +7.9196329700701211e+00 +0.0000000000000000e+00 +3.5999999750535068e+00 -2.8055085005356313e-02 -5.3883708507426697e-01 +5.3508133734879110e-03
3.7000000000000020e+00 +7.9196122962858659e+00 +0.0000000000000000e+00 +3.6999999729163462e+00 -2.8055122133290127e-02 -5.3883711644576238e-01 +5.3508550766267734e-03
3.8000000000000020e+00 +7.9195910560945109e+00 +0.0000000000000000e+00 +3.7999999706604837e+00 -2.8055160158567398e-02 -5.3883714022436136e-01 +5.3508972876793711e-03
3.9000000000000021e+00 +7.9195692494960310e+00 +0.0000000000000000e+00 +3.8999999682827111e+00 -2.8055199523834520e-02 -5.3883715644756192e-01 +5.3509398746546177e-03
4.0000000000000018e+00 +7.9195468764904096e+00 +0.0000000000000000e+00 +3.9999999657798204e+00 -2.8055240671792173e-02 -5.3883716515287872e-01 +5.3509827055697682e-03
4.1000000000000014e+00 +7.9195239370776385e+00 +0.0000000000000000e+00 +4.0999999631486030e+00 -2.8055283936687277e-02 -5.3883716661564629e-01 +5.3510256782546553e-03
4.2000000000000011e+00 +7.9195004312577169e+00 +0.0000000000000000e+00 +4.1999999603858518e+00 -2.8055329218762189e-02 -5.3883716206242138e-01 +5.3510688097619073e-03
4.3000000000000007e+00 +7.9194763590306501e+00 +0.0000000000000000e+00 +4.2999999574883576e+00 -2.8055376309753452e-02 -5.3883715295754941e-01 +5.3511121469525481e-03
4.4000000000000004e+00 +7.9194517203964487e+00 +0.0000000000000000e+00 +4.3999999544529125e+00 -2.8055425001397332e-02 -5.3883714076535649e-01 +5.3511557366918202e-03
4.5000000000000000e+00 +7.9194265153551262e+00 +0.0000000000000000e+00 +4.4999999512763083e+00 -2.8055475085429108e-02 -5.3883712695014729e-01 +5.3511996258493021e-03
4.5999999999999996e+00 +7.9194007439066976e+00 +0.0000000000000000e+00 +4.5999999479553368e+00 -2.8055526353582279e-02 -5.3883711297620451e-01 +5.3512438612990289e-03
4.6999999999999993e+00 +7.9193744060511779e+00 +0.0000000000000000e+00 +4.6999999444867901e+00 -2.8055578597587873e-02 -5.3883710030778631e-01 +5.3512884899196310e-03
4.7999999999999989e+00 +7.9193475017885815e+00 +0.0000000000000000e+00 +4.7999999408674601e+00 -2.8055631609173726e-02 -5.3883709040912731e-01 +5.3513335585944517e-03
4.8999999999999986e+00 +7.9193200311189198e+00 +0.0000000000000000e+00 +4.8999999370941376e+00 -2.8055685180063673e-02 -5.3883708474443459e-01 +5.3513791142116712e-03
4.9999999999999982e+00 +7.9192919940421991e+00 +0.0000000000000000e+00 +4.9999999331636156e+00 -2.8055739101976888e-02 -5.3883708477788816e-01 +5.3514252036644316e-03
5.0999999999999979e+00 +7.9192633905584202e+00 +0.0000000000000000e+00 +5.0999999290726858e+00 -2.8055793166627107e-02 -5.3883709197363971e-01 +5.3514718738509682e-03
5.1999999999999975e+00 +7.9192342206675761e+00 +0.0000000000000000e+00 +5.1999999248181394e+00 -2.8055847165721910e-02 -5.3883710779580951e-01 +5.3515191716747229e-03
5.2999999999999972e+00 +7.9192044843696507e+00 +0.0000000000000000e+00 +5.2999999203967683e+00 -2.8055900890961979e-02 -5.3883713370848751e-01 +5.3515671440444871e-03
5.3999999999999968e+00 +7.9191741816646184e+00 +0.0000000000000000e+00 +5.3999999158053651e+00 -2.8055954134040367e-02 -5.3883717117573027e-01 +5.3516158378745099e-03
5.4999999999999964e+00 +7.9191433125524409e+00 +0.0000000000000000e+00 +5.4999999110407209e+00 -2.8056006686641766e-02 -5.3883722166156045e-01 +5.3516653000846353e-03
5.5999999999999961e+00 +7.9191118770330649e+00 +0.0000000000000000e+00 +5.5999999060996277e+00 -2.8056058340441767e-02 -5.3883728662996533e-01 +5.3517155776004136e-03
5.6999999999999957e+00 +7.9190798751064237e+00 +0.0000000000000000e+00 +5.6999999009788773e+00 -2.8056108887106135e-02 -5.3883736754489509e-01 +5.3517667173532506e-03
5.7999999999999954e+00 +7.9190473067724332e+00 +0.0000000000000000e+00 +5.7999998956752616e+00 -2.8056158118290059e-02 -5.3883746587026260e-01 +5.3518187662805082e-03
5.8999999999999950e+00 +7.9190141720309910e+00 +0.0000000000000000e+00 +5.8999998901855726e+00 -2.8056205825637427e-02 -5.3883758306994056e-01 +5.3518717713256381e-03
5.9999999999999947e+00 +7.9189804708819738e+00 +0.0000000000000000e+00 +5.9999998845066012e+00 -2.8056251800780117e-02 -5.3883772060776192e-01 +5.3519257794383173e-03
6.0999999999999943e+00 +7.9189462033252394e+00 +0.0000000000000000e+00 +6.0999998786351401e+00 -2.8056295884303341e-02 -5.3883787956723206e-01 +5.3519808161668929e-03
6.1999999999999940e+00 +7.9189113693606208e+00 +0.0000000000000000e+00 +6.1999998725679806e+00 -2.8056338112642666e-02 -5.3883805951069785e-01 +5.3520368214293743e-03
6.2999999999999936e+00 +7.9188759689879307e+00 +0.0000000000000000e+00 +6.2999998663019152e+00 -2.8056378571182299e-02 -5.3883825962025500e-01 +5.3520937137262053e-03
6.3999999999999932e+00 +7.9188400022069594e+00 +0.0000000000000000e+00 +6.3999998598337351e+00 -2.8056417345287448e-02 -5.3883847907804505e-01 +5.3521514115460822e-03
6.4999999999999929e+00 +7.9188034690174778e+00 +0.0000000000000000e+00 +6.4999998531602312e+00 -2.8056454520303382e-02 -5.3883871706625741e-01 +5.3522098333653482e-03
6.5999999999999925e+00 +7.9187663694192372e+00 +0.0000000000000000e+00 +6.5999998462781964e+00 -2.8056490181554573e-02 -5.3883897276713189e-01 +5.3522688976474315e-03
6.6999999999999922e+00 +7.9187287034119702e+00 +0.0000000000000000e+00 +6.6999998391844215e+00 -2.8056524414343781e-02 -5.3883924536296013e-01 +5.3523285228422408e-03
6.7999999999999918e+00 +7.9186904709953909e+00 +0.0000000000000000e+00 +6.7999998318756996e+00 -2.8056557303951180e-02 -5.3883953403608842e-01 +5.3523886273855893e-03
6.8999999999999915e+00 +7.9186516721691973e+00 +0.0000000000000000e+00 +6.8999998243488214e+00 -2.8056588935633391e-02 -5.3883983796892021e-01 +5.3524491296986030e-03
6.9999999999999911e+00 +7.9186123069330714e+00 +0.0000000000000000e+00 +6.9999998166005781e+00 -2.8056619394622704e-02 -5.3884015634391724e-01 +5.3525099481871417e-03
7.0999999999999908e+00 +7.9185723752866801e+00 +0.0000000000000000e+00 +7.0999998086277625e+00 -2.8056648766126065e-02 -5.3884048834360299e-01 +5.3525710012412046e-03
7.1999999999999904e+00 +7.9185318772296753e+00 +0.0000000000000000e+00 +7.1999998004271655e+00 -2.8056677135324226e-02 -5.3884083315056397e-01 +5.3526322072343481e-03
7.2999999999999901e+00 +7.9184908127616964e+00 +0.0000000000000000e+00 +7.2999997919955790e+00 -2.8056704587370869e-02 -5.3884118994745256e-01 +5.3526934845231017e-03
7.3999999999999897e+00 +7.9184491818823695e+00 +0.0000000000000000e+00 +7.3999997833297941e+00 -2.8056731207391640e-02 -5.3884155791698829e-01 +5.3527547514463760e-03
7.4999999999999893e+00 +7.9184069845913090e+00 +0.0000000000000000e+00 +7.4999997744266036e+00 -2.8056757080483320e-02 -5.3884193624196142e-01 +5.3528159263248800e-03
7.5999999999999890e+00 +7.9183642208881189e+00 +0.0000000000000000e+00 +7.5999997652827975e+00 -2.8056782291712885e-02 -5.3884232410523425e-01 +5.3528769274605384e-03
7.6999999999999886e+00 +7.9183208907723923e+00 +0.0000000000000000e+00 +7.6999997558951687e+00 -2.8056806926116604e-02 -5.3884272068974304e-01 +5.3529376731358937e-03
7.7999999999999883e+00 +7.9182769942437146e+00 +0.0000000000000000e+00 +7.7999997462605082e+00 -2.8056831068699141e-02 -5.3884312517850086e-01 +5.3529980816135331e-03
7.8999999999999879e+00 +7.9182325313016619e+00 +0.0000000000000000e+00 +7.8999997363756078e+00 -2.8056854804432683e-02 -5.3884353675460006e-01 +5.3530580711354950e-03
7.9999999999999876e+00 +7.9181875019458028e+00 +0.0000000000000000e+00 +7.9999997262372595e+00 -2.8056878218255980e-02 -5.3884395460121359e-01 +5.3531175599226795e-03
8.0999999999999872e+00 +7.9181419061757001e+00 +0.0000000000000000e+00 +8.0999997158422534e+00 -2.8056901387998153e-02 -5.3884437793761020e-01 +5.3531764930923494e-03
8.1999999999999869e+00 +7.9180957439909099e+00 +0.0000000000000000e+00 +8.1999997051873823e+00 -2.8056924363173794e-02 -5.3884480612715979e-01 +5.3532349234226744e-03
8.2999999999999865e+00 +7.9180490153909835e+00 +0.0000000000000000e+00 +8.2999996942694381e+00 -2.8056947186247964e-02 -5.3884523856923250e-01 +5.3532929306153651e-03
8.3999999999999861e+00 +7.9180017203754680e+00 +0.0000000000000000e+00 +8.3999996830852108e+00 -2.8056969899718325e-02 -5.3884567466317546e-01 +5.3533505943799409e-03
8.4999999999999858e+00 +7.9179538589439069e+00 +0.0000000000000000e+00 +8.4999996716314925e+00 -2.8056992546116207e-02 -5.3884611380831215e-01 +5.3534079944340569e-03
8.5999999999999854e+00 +7.9179054310958401e+00 +0.0000000000000000e+00 +8.5999996599050750e+00 -2.8057015168007824e-02 -5.3884655540394033e-01 +5.3534652105038470e-03
8.6999999999999851e+00 +7.9178564368308049e+00 +0.0000000000000000e+00 +8.6999996479027502e+00 -2.8057037807995344e-02 -5.3884699884933163e-01 +5.3535223223242501e-03
8.7999999999999847e+00 +7.9178068761483367e+00 +0.0000000000000000e+00 +8.7999996356213099e+00 -2.8057060508718114e-02 -5.3884744354373082e-01 +5.3535794096393509e-03
8.8999999999999844e+00 +7.9177567490479701e+00 +0.0000000000000000e+00 +8.8999996230575444e+00 -2.8057083312853750e-02 -5.3884788888635338e-01 +5.3536365522027082e-03
8.9999999999999840e+00 +7.9177060555292380e+00 +0.0000000000000000e+00 +8.9999996102082456e+00 -2.8057106263119330e-02 -5.3884833427638634e-01 +5.3536938297777054e-03
9.0999999999999837e+00 +7.9176547955916741e+00 +0.0000000000000000e+00 +9.0999995970702052e+00 -2.8057129402272462e-02 -5.3884877911298490e-01 +5.3537513221378575e-03
9.1999999999999833e+00 +7.9176029692348129e+00 +0.0000000000000000e+00 +9.1999995836402135e+00 -2.8057152773112534e-02 -5.3884922279527336e-01 +5.3538091090671704e-03
9.2999999999999829e+00 +7.9175505764581890e+00 +0.0000000000000000e+00 +9.2999995699150642e+00 -2.8057176418481787e-02 -5.3884966472234264e-01 +5.3538672703604641e-03
9.3999999999999826e+00 +7.9174976172613398e+00 +0.0000000000000000e+00 +9.3999995558915472e+00 -2.8057200381266439e-02 -5.3885010429324975e-01 +5.3539258858237050e-03
9.4999999999999822e+00 +7.9174440916438051e+00 +0.0000000000000000e+00 +9.4999995415664547e+00 -2.8057224704397952e-02 -5.3885054090701712e-01 +5.3539850352743515e-03
9.5999999999999819e+00 +7.9173899996051285e+00 +0.0000000000000000e+00 +9.5999995269365765e+00 -2.8057249430854025e-02 -5.3885097396263026e-01 +5.3540447985416769e-03
9.6999999999999815e+00 +7.9173353411448559e+00 +0.0000000000000000e+00 +9.6999995119987048e+00 -2.8057274603659824e-02 -5.3885140285903788e-01 +5.3541052554671115e-03
9.7999999999999812e+00 +7.9172801162625381e+00 +0.0000000000000000e+00 +9.7999994967496313e+00 -2.8057300265889148e-02 -5.3885182699515022e-01 +5.3541664859045723e-03
9.8999999999999808e+00 +7.9172243249577310e+00 +0.0000000000000000e+00 +9.8999994811861480e+00 -2.8057326460665485e-02 -5.3885224576983803e-01 +5.3542285697208026e-03
9.9999999999999805e+00 +7.9171679672299966e+00 +0.0000000000000000e+00 +9.9999994653050450e+00 -2.8057353231163231e-02 -5.3885265858193132e-01 +5.3542915867957003e-03
1.0099999999999980e+01 +7.9171110430789025e+00 +0.0000000000000000e+00 +1.0099999449103116e+01 -2.8057380681684237e-02 -5.3885306502306196e-01 +5.3543555898510169e-03
1.0199999999999980e+01 +7.9170535525040240e+00 +0.0000000000000000e+00 +1.0199999432577149e+01 -2.8057409160861840e-02 -5.3885346545620194e-01 +5.3544205229290433e-03
1.0299999999999979e+01 +7.9169954955049411e+00 +0.0000000000000000e+00 +1.0299999415723939e+01 -2.8057439078385066e-02 -5.3885386043712014e-01 +5.3544863028998401e-03
1.0399999999999979e+01 +7.9169368720812408e+00 +0.0000000000000000e+00 +1.0399999398540274e+01 -2.8057470843913683e-02 -5.3885425052153013e-01 +5.3545528466325022e-03
1.0499999999999979e+01 +7.9168776822325144e+00 +0.0000000000000000e+00 +1.0499999381022947e+01 -2.8057504867077341e-02 -5.3885463626509011e-01 +5.3546200709951221e-03
1.0599999999999978e+01 +7.9168179259583589e+00 +0.0000000000000000e+00 +1.0599999363168751e+01 -2.8057541557474669e-02 -5.3885501822339932e-01 +5.3546878928547514e-03
1.0699999999999978e+01 +7.9167576032583744e+00 +0.0000000000000000e+00 +1.0699999344974474e+01 -2.8057581324672478e-02 -5.3885539695199935e-01 +5.3547562290773756e-03
1.0799999999999978e+01 +7.9166967141321649e+00 +0.0000000000000000e+00 +1.0799999326436909e+01 -2.8057624578204890e-02 -5.3885577300637133e-01 +5.3548249965278839e-03
1.0899999999999977e+01 +7.9166352585793369e+00 +0.0000000000000000e+00 +1.0899999307552848e+01 -2.8057671727572425e-02 -5.3885614694193351e-01 +5.3548941120700232e-03
1.0999999999999977e+01 +7.9165732365994996e+00 +0.0000000000000000e+00 +1.0999999288319083e+01 -2.8057723182241229e-02 -5.3885651931404255e-01 +5.3549634925663860e-03
1.1099999999999977e+01 +7.9165106481922631e+00 +0.0000000000000000e+00 +1.1099999268732404e+01 -2.8057779351642182e-02 -5.3885689067799014e-01 +5.3550330548783609e-03
1.1199999999999976e+01 +7.9164474933572393e+00 +0.0000000000000000e+00 +1.1199999248789602e+01 -2.8057840645170036e-02 -5.3885726158900182e-01 +5.3551027158661099e-03
1.1299999999999976e+01 +7.9163837720940400e+00 +0.0000000000000000e+00 +1.1299999228487470e+01 -2.8057907472182550e-02 -5.3885763260223685e-01 +5.3551723923885314e-03
1.1399999999999975e+01 +7.9163194844022771e+00 +0.0000000000000000e+00 +1.1399999207822798e+01 -2.8057980241999687e-02 -5.3885800427278474e-01 +5.3552420013032323e-03
1.1499999999999975e+01 +7.9162546302815615e+00 +0.0000000000000000e+00 +1.1499999186792378e+01 -2.8058059363902727e-02 -5.3885837715566676e-01 +5.3553114594664985e-03
1.1599999999999975e+01 +7.9161892097315043e+00 +0.0000000000000000e+00 +1.1599999165392999e+01 -2.8058145247133424e-02 -5.3885875180583154e-01 +5.3553806837332513e-03
1.1699999999999974e+01 +7.9161232227517129e+00 +0.0000000000000000e+00 +1.1699999143621456e+01 -2.8058238300893129e-02 -5.3885912877815567e-01 +5.3554495909570324e-03
1.1799999999999974e+01 +7.9160566693417938e+00 +0.0000000000000000e+00 +1.1799999121474539e+01 -2.8058338934342009e-02 -5.3885950862744170e-01 +5.3555180979899574e-03
