# field on trajectory
# s[mm] rx[mm] ry[mm] rz[mm] bx[T] by[T] bz[T]
0.0000000000000000e+00 +8.1530000000000005e+00 +0.0000000000000000e+00 +0.0000000000000000e+00 -2.9741067292620244e-02 -5.3641688210190663e-01 +5.2982980923450855e-03
1.0000000000000001e-01 +8.1529997163961507e+00 +0.0000000000000000e+00 +9.9999999999463796e-02 -2.9741263838799298e-02 -5.3641672713311128e-01 +5.2983553123037560e-03
2.0000000000000001e-01 +8.1529988655856904e+00 +0.0000000000000000e+00 +1.9999999999571000e-01 -2.9741465935193445e-02 -5.3641658984334117e-01 +5.2984114127017177e-03
2.9999999999999999e-01 +8.1529974475670297e+00 +0.0000000000000000e+00 +2.9999999998552201e-01 -2.9741673141315653e-02 -5.3641647016908622e-01 +5.2984665325553392e-03
4.0000000000000002e-01 +8.1529954623438208e+00 +0.0000000000000000e+00 +3.9999999996568297e-01 -2.9741885016675192e-02 -5.3641636804678994e-01 +5.2985208108800403e-03
5.0000000000000000e-01 +8.1529929099124292e+00 +0.0000000000000000e+00 +4.9999999993297400e-01 -2.9742101120781645e-02 -5.3641628341294234e-01 +5.2985743866916417e-03
5.9999999999999998e-01 +8.1529897902728408e+00 +0.0000000000000000e+00 +5.9999999988417896e-01 -2.9742321013140668e-02 -5.3641621620400370e-01 +5.2986273990060055e-03
6.9999999999999996e-01 +8.1529861034287006e+00 +0.0000000000000000e+00 +6.9999999981608096e-01 -2.9742544253253417e-02 -5.3641616635640266e-01 +5.2986799868394415e-03
8.0000000000000004e-01 +8.1529818493763706e+00 +0.0000000000000000e+00 +7.9999999972546199e-01 -2.9742770400620205e-02 -5.3641613380662290e-01 +5.2987322892099611e-03
9.0000000000000002e-01 +8.1529770281158598e+00 +0.0000000000000000e+00 +8.9999999960910604e-01 -2.9742999014736069e-02 -5.3641611849112181e-01 +5.2987844451368891e-03
1.0000000000000000e+00 +8.1529716396507901e+00 +0.0000000000000000e+00 +9.9999999946379403e-01 -2.9743229655090322e-02 -5.3641612034633279e-01 +5.2988365936413005e-03
1.1000000000000001e+00 +8.1529656839775306e+00 +0.0000000000000000e+00 +1.0999999992863101e+00 -2.9743461881170163e-02 -5.3641613930874887e-01 +5.2988888737472437e-03
1.2000000000000000e+00 +8.1529591610960797e+00 +0.0000000000000000e+00 +1.1999999990734400e+00 -2.9743695252456237e-02 -5.3641617531484220e-01 +5.2989414244813821e-03
1.3000000000000000e+00 +8.1529520710100805e+00 +0.0000000000000000e+00 +1.2999999988219599e+00 -2.9743929328422215e-02 -5.3641622830106839e-01 +5.2989943848734053e-03
1.3999999999999999e+00 +8.1529444137122500e+00 +0.0000000000000000e+00 +1.3999999985286500e+00 -2.9744163668539721e-02 -5.3641629820397296e-01 +5.2990478939575472e-03
1.5000000000000000e+00 +8.1529361892135093e+00 +0.0000000000000000e+00 +1.4999999981903001e+00 -2.9744397832267226e-02 -5.3641638495998212e-01 +5.2991020907708596e-03
1.6000000000000001e+00 +8.1529273975065699e+00 +0.0000000000000000e+00 +1.5999999978037001e+00 -2.9744631379062983e-02 -5.3641648850566925e-01 +5.2991571143563218e-03
1.7000000000000000e+00 +8.1529180385914497e+00 +0.0000000000000000e+00 +1.6999999973656199e+00 -2.9744863868375212e-02 -5.3641660877757158e-01 +5.2992131037614054e-03
1.8000000000000000e+00 +8.1529081124681397e+00 +0.0000000000000000e+00 +1.7999999968728499e+00 -2.9745094859644439e-02 -5.3641674571224396e-01 +5.2992701980390218e-03
1.8999999999999999e+00 +8.1528976191402798e+00 +0.0000000000000000e+00 +1.8999999963221601e+00 -2.9745323912301679e-02 -5.3641689924623714e-01 +5.2993285362476997e-03
2.0000000000000000e+00 +8.1528865586042194e+00 +0.0000000000000000e+00 +1.9999999957103500e+00 -2.9745550585772031e-02 -5.3641706931617605e-01 +5.2993882574528042e-03
2.1000000000000001e+00 +8.1528749308599799e+00 +0.0000000000000000e+00 +2.0999999950341901e+00 -2.9745774508412672e-02 -5.3641725565668752e-01 +5.2994494638516857e-03
2.2000000000000002e+00 +8.1528627359111905e+00 +0.0000000000000000e+00 +2.1999999942904802e+00 -2.9745995584341999e-02 -5.3641745719441003e-01 +5.2995121101479005e-03
2.2999999999999998e+00 +8.1528499737542006e+00 +0.0000000000000000e+00 +2.2999999934759798e+00 -2.9746213786619968e-02 -5.3641767265405360e-01 +5.2995761141708233e-03
2.3999999999999999e+00 +8.1528366443890299e+00 +0.0000000000000000e+00 +2.3999999925874800e+00 -2.9746429088302599e-02 -5.3641790076031626e-01 +5.2996413937482032e-03
2.5000000000000000e+00 +8.1528227478193003e+00 +0.0000000000000000e+00 +2.4999999916217801e+00 -2.9746641462442297e-02 -5.3641814023788359e-01 +5.2997078667056637e-03
2.6000000000000001e+00 +8.1528082840413791e+00 +0.0000000000000000e+00 +2.5999999905756401e+00 -2.9746850882092103e-02 -5.3641838981150980e-01 +5.2997754508670005e-03
2.7000000000000002e+00 +8.1527932530552807e+00 +0.0000000000000000e+00 +2.6999999894458502e+00 -2.9747057320302153e-02 -5.3641864820593654e-01 +5.2998440640528496e-03
2.7999999999999998e+00 +8.1527776548646198e+00 +0.0000000000000000e+00 +2.7999999882291999e+00 -2.9747260750119953e-02 -5.3641891414589515e-01 +5.2999136240802006e-03
2.8999999999999999e+00 +8.1527614894657692e+00 +0.0000000000000000e+00 +2.8999999869224702e+00 -2.9747461144594721e-02 -5.3641918635618635e-01 +5.2999840487626846e-03
3.0000000000000000e+00 +8.1527447568587394e+00 +0.0000000000000000e+00 +2.9999999855224302e+00 -2.9747658476773749e-02 -5.3641946356159931e-01 +5.3000552559092622e-03
3.1000000000000001e+00 +8.1527274570471508e+00 +0.0000000000000000e+00 +3.0999999840258798e+00 -2.9747852719702757e-02 -5.3641974448691376e-01 +5.3001271633237044e-03
3.2000000000000002e+00 +8.1527095900273707e+00 +0.0000000000000000e+00 +3.1999999824295902e+00 -2.9748043846430178e-02 -5.3642002785697973e-01 +5.3001996888049109e-03
3.2999999999999998e+00 +8.1526911557994008e+00 +0.0000000000000000e+00 +3.2999999807303602e+00 -2.9748231830003538e-02 -5.3642031239663690e-01 +5.3002727501455819e-03
3.3999999999999999e+00 +8.1526721543668792e+00 +0.0000000000000000e+00 +3.3999999789249502e+00 -2.9748416643469815e-02 -5.3642059683071652e-01 +5.3003462651317040e-03
3.5000000000000000e+00 +8.1526525857261696e+00 +0.0000000000000000e+00 +3.4999999770101602e+00 -2.9748598259879709e-02 -5.3642087988412024e-01 +5.3004201515428669e-03
3.6000000000000001e+00 +8.1526324498772702e+00 +0.0000000000000000e+00 +3.5999999749827598e+00 -2.9748776652284058e-02 -5.3642116028174180e-01 +5.3004943271509359e-03
3.7000000000000002e+00 +8.1526117468238208e+00 +0.0000000000000000e+00 +3.6999999728395401e+00 -2.9748951793734123e-02 -5.3642143674846610e-01 +5.3005687097195395e-03
3.7999999999999998e+00 +8.1525904765621799e+00 +0.0000000000000000e+00 +3.7999999705772902e+00 -2.9749123657285971e-02 -5.3642170800925082e-01 +5.3006432170043839e-03
3.8999999999999999e+00 +8.1525686390959908e+00 +0.0000000000000000e+00 +3.8999999681927799e+00 -2.9749292215995430e-02 -5.3642197278901893e-01 +5.3007177667516499e-03
4.0000000000000000e+00 +8.1525462344179704e+00 +0.0000000000000000e+00 +3.9999999656827998e+00 -2.9749457442925134e-02 -5.3642222981279275e-01 +5.3007922766988499e-03
4.0999999999999996e+00 +8.1525232625354001e+00 +0.0000000000000000e+00 +4.0999999630441302e+00 -2.9749619349253201e-02 -5.3642247814161892e-01 +5.3008667047011702e-03
4.2000000000000002e+00 +8.1524997234482708e+00 +0.0000000000000000e+00 +4.1999999602735496e+00 -2.9749778098635604e-02 -5.3642271818104226e-01 +5.3009411691224721e-03
4.2999999999999998e+00 +8.1524756171529607e+00 +0.0000000000000000e+00 +4.2999999573678496e+00 -2.9749933892853787e-02 -5.3642295067270407e-01 +5.3010158284545559e-03
4.4000000000000004e+00 +8.1524509436494608e+00 +0.0000000000000000e+00 +4.3999999543238104e+00 -2.9750086933694863e-02 -5.3642317635816750e-01 +5.3010908411887502e-03
4.5000000000000000e+00 +8.1524257029377605e+00 +0.0000000000000000e+00 +4.4999999511382098e+00 -2.9750237422953549e-02 -5.3642339597894162e-01 +5.3011663658162917e-03
4.5999999999999996e+00 +8.1523998950215208e+00 +0.0000000000000000e+00 +4.5999999478078299e+00 -2.9750385562431252e-02 -5.3642361027644936e-01 +5.3012425608281758e-03
4.7000000000000002e+00 +8.1523735198970808e+00 +0.0000000000000000e+00 +4.6999999443294600e+00 -2.9750531553940640e-02 -5.3642381999210598e-01 +5.3013195847160981e-03
4.7999999999999998e+00 +8.1523465775644599e+00 +0.0000000000000000e+00 +4.7999999406998803e+00 -2.9750675599302057e-02 -5.3642402586723403e-01 +5.3013975959717531e-03
4.9000000000000004e+00 +8.1523190680272801e+00 +0.0000000000000000e+00 +4.8999999369158704e+00 -2.9750817900344138e-02 -5.3642422864305950e-01 +5.3014767530869490e-03
5.0000000000000000e+00 +8.1522909912819195e+00 +0.0000000000000000e+00 +4.9999999329742204e+00 -2.9750958658908200e-02 -5.3642442906078924e-01 +5.3015572145545600e-03
5.0999999999999996e+00 +8.1522623473319999e+00 +0.0000000000000000e+00 +5.0999999288717000e+00 -2.9751098076843480e-02 -5.3642462786149958e-01 +5.3016391388675376e-03
5.2000000000000002e+00 +8.1522331361738907e+00 +0.0000000000000000e+00 +5.1999999246051098e+00 -2.9751236356012928e-02 -5.3642482578624018e-01 +5.3017226845201246e-03
5.2999999999999998e+00 +8.1522033578075899e+00 +0.0000000000000000e+00 +5.2999999201712198e+00 -2.9751373698289747e-02 -5.3642502357594990e-01 +5.3018080100071720e-03
5.4000000000000004e+00 +8.1521730122331100e+00 +0.0000000000000000e+00 +5.3999999155668199e+00 -2.9751510305559191e-02 -5.3642522197147946e-01 +5.3018952738245065e-03
5.5000000000000000e+00 +8.1521420994540694e+00 +0.0000000000000000e+00 +5.4999999107886799e+00 -2.9751646379717774e-02 -5.3642542171356145e-01 +5.3019846344687961e-03
5.5999999999999996e+00 +8.1521106194668391e+00 +0.0000000000000000e+00 +5.5999999058335996e+00 -2.9751782122677716e-02 -5.3642562354288770e-01 +5.3020762504384792e-03
5.7000000000000002e+00 +8.1520785722750606e+00 +0.0000000000000000e+00 +5.6999999006983604e+00 -2.9751917736362161e-02 -5.3642582819999651e-01 +5.3021702802327885e-03
5.7999999999999998e+00 +8.1520459578750906e+00 +0.0000000000000000e+00 +5.7999998953797300e+00 -2.9752053422710981e-02 -5.3642603642537801e-01 +5.3022668823529745e-03
5.9000000000000004e+00 +8.1520127762669308e+00 +0.0000000000000000e+00 +5.8999998898744996e+00 -2.9752189383677307e-02 -5.3642624895938973e-01 +5.3023662153015927e-03
5.9999999999999902e+00 +8.1519790274505795e+00 +0.0000000000000000e+00 +5.9999998841794504e+00 -2.9752325821229320e-02 -5.3642646654227855e-01 +5.3024684375828973e-03
6.0999999999999899e+00 +8.1519447114296799e+00 +0.0000000000000000e+00 +6.0999998782913698e+00 -2.9752462815159180e-02 -5.3642668969382001e-01 +5.3025736623487692e-03
6.1999999999999904e+00 +8.1519098282005906e+00 +0.0000000000000000e+00 +6.1999998722070400e+00 -2.9752599956511281e-02 -5.3642691805245479e-01 +5.3026818213380306e-03
6.2999999999999901e+00 +8.1518743777669407e+00 +0.0000000000000000e+00 +6.2999998659232403e+00 -2.9752736714142230e-02 -5.3642715103627703e-01 +5.3027928009389087e-03
6.3999999999999897e+00 +8.1518383601214701e+00 +0.0000000000000000e+00 +6.3999998594367504e+00 -2.9752872556917855e-02 -5.3642738806351897e-01 +5.3029064875450413e-03
6.4999999999999902e+00 +8.1518017752750893e+00 +0.0000000000000000e+00 +6.4999998527443603e+00 -2.9753006953702556e-02 -5.3642762855234094e-01 +5.3030227675535157e-03
6.5999999999999899e+00 +8.1517646232205205e+00 +0.0000000000000000e+00 +6.5999998458428504e+00 -2.9753139373372640e-02 -5.3642787192110131e-01 +5.3031415273677891e-03
6.6999999999999904e+00 +8.1517269039541098e+00 +0.0000000000000000e+00 +6.6999998387290001e+00 -2.9753269284808457e-02 -5.3642811758820086e-01 +5.3032626533962802e-03
6.7999999999999901e+00 +8.1516886174867995e+00 +0.0000000000000000e+00 +6.7999998313996004e+00 -2.9753396156890360e-02 -5.3642836497200297e-01 +5.3033860320517660e-03
6.8999999999999897e+00 +8.1516497638112906e+00 +0.0000000000000000e+00 +6.8999998238514202e+00 -2.9753519458510833e-02 -5.3642861349108062e-01 +5.3035115497540369e-03
6.9999999999999902e+00 +8.1516103429239593e+00 +0.0000000000000000e+00 +6.9999998160812602e+00 -2.9753638658566454e-02 -5.3642886256405864e-01 +5.3036390929284772e-03
7.0999999999999899e+00 +8.1515703548320708e+00 +0.0000000000000000e+00 +7.0999998080858804e+00 -2.9753753225955349e-02 -5.3642911160956230e-01 +5.3037685480057436e-03
7.1999999999999904e+00 +8.1515297995356395e+00 +0.0000000000000000e+00 +7.1999997998620904e+00 -2.9753862629583898e-02 -5.3642936004635555e-01 +5.3038998014233235e-03
7.2999999999999901e+00 +8.1514886770310095e+00 +0.0000000000000000e+00 +7.2999997914066501e+00 -2.9753966338365391e-02 -5.3642960729331735e-01 +5.3040327396254843e-03
7.3999999999999897e+00 +8.1514469873182005e+00 +0.0000000000000000e+00 +7.3999997827163604e+00 -2.9754063821217484e-02 -5.3642985276939148e-01 +5.3041672490629450e-03
7.4999999999999902e+00 +8.1514047304008308e+00 +0.0000000000000000e+00 +7.4999997737879900e+00 -2.9754154547062251e-02 -5.3643009589359070e-01 +5.3043032161930858e-03
7.5999999999999899e+00 +8.1513619062752696e+00 +0.0000000000000000e+00 +7.5999997646183202e+00 -2.9754237984830130e-02 -5.3643033608507795e-01 +5.3044405274809718e-03
7.6999999999999904e+00 +8.1513185149451601e+00 +0.0000000000000000e+00 +7.6999997552041499e+00 -2.9754313603454770e-02 -5.3643057276306616e-01 +5.3045790693984872e-03
7.7999999999999901e+00 +8.1512745564032194e+00 +0.0000000000000000e+00 +7.7999997455422498e+00 -2.9754380871879687e-02 -5.3643080534695275e-01 +5.3047187284259011e-03
7.8999999999999897e+00 +8.1512300306567305e+00 +0.0000000000000000e+00 +7.8999997356294100e+00 -2.9754439259048984e-02 -5.3643103325613672e-01 +5.3048593910501804e-03
7.9999999999999902e+00 +8.1511849377056897e+00 +0.0000000000000000e+00 +7.9999997254624002e+00 -2.9754488233915431e-02 -5.3643125591018248e-01 +5.3050009437668405e-03
8.0999999999999908e+00 +8.1511392775464593e+00 +0.0000000000000000e+00 +8.0999997150380096e+00 -2.9754527564584573e-02 -5.3643147307091843e-01 +5.3051432661057199e-03
8.1999999999999904e+00 +8.1510930501790408e+00 +0.0000000000000000e+00 +8.1999997043530293e+00 -2.9754558215752149e-02 -5.3643168586872536e-01 +5.3052862097041588e-03
8.2999999999999901e+00 +8.1510462556034309e+00 +0.0000000000000000e+00 +8.2999996934042404e+00 -2.9754581451252565e-02 -5.3643189577612393e-01 +5.3054296192231428e-03
8.3999999999999897e+00 +8.1509988938232691e+00 +0.0000000000000000e+00 +8.3999996821884100e+00 -2.9754598534905235e-02 -5.3643210426561205e-01 +5.3055733393202386e-03
8.4999999999999893e+00 +8.1509509648349194e+00 +0.0000000000000000e+00 +8.4999996707023406e+00 -2.9754610730517918e-02 -5.3643231280974313e-01 +5.3057172146502513e-03
8.5999999999999908e+00 +8.1509024686420197e+00 +0.0000000000000000e+00 +8.5999996589427994e+00 -2.9754619301880884e-02 -5.3643252288102072e-01 +5.3058610898640028e-03
8.6999999999999904e+00 +8.1508534052409196e+00 +0.0000000000000000e+00 +8.6999996469065692e+00 -2.9754625512771690e-02 -5.3643273595200280e-01 +5.3060048096092872e-03
8.7999999999999794e+00 +8.1508037746316404e+00 +0.0000000000000000e+00 +8.7999996345904599e+00 -2.9754630626950638e-02 -5.3643295349522380e-01 +5.3061482185299087e-03
8.8999999999999808e+00 +8.1507535768178094e+00 +0.0000000000000000e+00 +8.8999996219912205e+00 -2.9754635908160219e-02 -5.3643317698319271e-01 +5.3062911612655394e-03
8.9999999999999805e+00 +8.1507028117957798e+00 +0.0000000000000000e+00 +8.9999996091056396e+00 -2.9754642620128575e-02 -5.3643340788847371e-01 +5.3064334824524054e-03
9.0999999999999801e+00 +8.1506514795655693e+00 +0.0000000000000000e+00 +9.0999995959305195e+00 -2.9754652026564979e-02 -5.3643364768360580e-01 +5.3065750267223275e-03
9.1999999999999797e+00 +8.1505995801308000e+00 +0.0000000000000000e+00 +9.1999995824626293e+00 -2.9754665391159191e-02 -5.3643389784110151e-01 +5.3067156387025813e-03
9.2999999999999794e+00 +8.1505471134878498e+00 +0.0000000000000000e+00 +9.2999995686987500e+00 -2.9754683977585017e-02 -5.3643415983352860e-01 +5.3068551630165699e-03
9.3999999999999808e+00 +8.1504940796366991e+00 +0.0000000000000000e+00 +9.3999995546356701e+00 -2.9754709049495724e-02 -5.3643443513342814e-01 +5.3069934442828842e-03
9.4999999999999805e+00 +8.1504404785773694e+00 +0.0000000000000000e+00 +9.4999995402701707e+00 -2.9754741870524723e-02 -5.3643472521334101e-01 +5.3071303271154174e-03
9.5999999999999801e+00 +8.1503863103171206e+00 +0.0000000000000000e+00 +9.5999995255990296e+00 -2.9754783704282584e-02 -5.3643503154575600e-01 +5.3072656561226990e-03
9.6999999999999797e+00 +8.1503315748450404e+00 +0.0000000000000000e+00 +9.6999995106190298e+00 -2.9754835814365523e-02 -5.3643535560329358e-01 +5.3073992759096493e-03
9.7999999999999794e+00 +8.1502762721684103e+00 +0.0000000000000000e+00 +9.7999994953269702e+00 -2.9754899464341747e-02 -5.3643569885844145e-01 +5.3075310310747234e-03
9.8999999999999808e+00 +8.1502204022835905e+00 +0.0000000000000000e+00 +9.8999994797196091e+00 -2.9754975917761464e-02 -5.3643606278376610e-01 +5.3076607662119555e-03
9.9999999999999805e+00 +8.1501639651905897e+00 +0.0000000000000000e+00 +9.9999994637937508e+00 -2.9755066438150988e-02 -5.3643644885180564e-01 +5.3077883259097262e-03
1.0100000000000000e+01 +8.1501069608966592e+00 +0.0000000000000000e+00 +1.0099999447546200e+01 -2.9755171955571924e-02 -5.3643685797719243e-01 +5.3079136068865098e-03
1.0199999999999999e+01 +8.1500493893909205e+00 +0.0000000000000000e+00 +1.0199999430973600e+01 -2.9755292066297710e-02 -5.3643728884321573e-01 +5.3080367144054518e-03
1.0300000000000001e+01 +8.1499912506769796e+00 +0.0000000000000000e+00 +1.0299999414073000e+01 -2.9755426033140648e-02 -5.3643773957511054e-01 +5.3081578058633821e-03
1.0400000000000000e+01 +8.1499325447584905e+00 +0.0000000000000000e+00 +1.0399999396840901e+01 -2.9755573118908418e-02 -5.3643820829802435e-01 +5.3082770386542423e-03
1.0500000000000000e+01 +8.1498732716317992e+00 +0.0000000000000000e+00 +1.0499999379274200e+01 -2.9755732586406701e-02 -5.3643869313707038e-01 +5.3083945701695549e-03
1.0600000000000000e+01 +8.1498134313005703e+00 +0.0000000000000000e+00 +1.0599999361369800e+01 -2.9755903698433804e-02 -5.3643919221721548e-01 +5.3085105577972700e-03
1.0699999999999999e+01 +8.1497530237611500e+00 +0.0000000000000000e+00 +1.0699999343124301e+01 -2.9756085717785909e-02 -5.3643970366338734e-01 +5.3086251589227907e-03
1.0800000000000001e+01 +8.1496920490171796e+00 +0.0000000000000000e+00 +1.0799999324534600e+01 -2.9756277907251737e-02 -5.3644022560036453e-01 +5.3087385309278099e-03
1.0900000000000000e+01 +8.1496305070650106e+00 +0.0000000000000000e+00 +1.0899999305597399e+01 -2.9756479529617741e-02 -5.3644075615288089e-01 +5.3088508311913297e-03
1.1000000000000000e+01 +8.1495683979046607e+00 +0.0000000000000000e+00 +1.0999999286309500e+01 -2.9756689847664098e-02 -5.3644129344554281e-01 +5.3089622170887849e-03
1.1100000000000000e+01 +8.1495057215361193e+00 +0.0000000000000000e+00 +1.1099999266667700e+01 -2.9756908124165975e-02 -5.3644183560285474e-01 +5.3090728459922352e-03
1.1199999999999999e+01 +8.1494424779630208e+00 +0.0000000000000000e+00 +1.1199999246668799e+01 -2.9757133621892147e-02 -5.3644238074918904e-01 +5.3091828752700309e-03
1.1300000000000001e+01 +8.1493786671817396e+00 +0.0000000000000000e+00 +1.1299999226309600e+01 -2.9757365603608903e-02 -5.3644292700886509e-01 +5.3092924622875539e-03
1.1400000000000000e+01 +8.1493142891922599e+00 +0.0000000000000000e+00 +1.1399999205586900e+01 -2.9757603332076030e-02 -5.3644347250606605e-01 +5.3094017644063508e-03
1.1500000000000000e+01 +8.1492493440018698e+00 +0.0000000000000000e+00 +1.1499999184497300e+01 -2.9757846070045408e-02 -5.3644401536481012e-01 +5.3095109389837665e-03
1.1600000000000000e+01 +8.1491838315996592e+00 +0.0000000000000000e+00 +1.1599999163037801e+01 -2.9758093080270255e-02 -5.3644455370913546e-01 +5.3096201433747965e-03
1.1699999999999999e+01 +8.1491177519928897e+00 +0.0000000000000000e+00 +1.1699999141205099e+01 -2.9758343625491804e-02 -5.3644508566283022e-01 +5.3097295349292918e-03
1.1800000000000001e+01 +8.1490511051779304e+00 +0.0000000000000000e+00 +1.1799999118996000e+01 -2.9758596968449826e-02 -5.3644560934964503e-01 +5.3098392709940634e-03
