# multipoles
# s[mm] polynom_b[n=0][T/m^n] polynom_b[n=1][T/m^n] polynom_b[n=2][T/m^n] polynom_b[n=3][T/m^n] polynom_b[n=4][T/m^n] polynom_b[n=5][T/m^n] polynom_b[n=6][T/m^n] 
+0.0000000000000000e+00 -5.3641848369113965e-01 +7.3402291382291676e+00 -8.4436387829853554e-01 +3.3583542849669811e+01 +4.2197564506042336e+03 -3.3342900674843643e+05 -1.8819693595322896e+07 
+1.0000000000000001e-01 -5.3641835370904978e-01 +7.3402261088689471e+00 -8.5433523111161513e-01 +3.3956196650270563e+01 +4.3423853290782718e+03 -3.3624870826666395e+05 -1.9260060273609143e+07 
+2.0000000000000001e-01 -5.3641823705975933e-01 +7.3402201302196488e+00 -8.6338838890706116e-01 +3.4387751432520481e+01 +4.4488553374784506e+03 -3.3937060707728582e+05 -1.9630616944060795e+07 
+2.9999999999999999e-01 -5.3641813400275673e-01 +7.3402114458477996e+00 -8.7152608281755295e-01 +3.4870772077164240e+01 +4.5396822111078691e+03 -3.4275171380189492e+05 -1.9934539562850002e+07 
+4.0000000000000002e-01 -5.3641804479749444e-01 +7.3402002993125652e+00 -8.7875104346432520e-01 +3.5397823675354722e+01 +4.6153816749112048e+03 -3.4634904025011125e+05 -2.0175004034882881e+07 
+5.0000000000000000e-01 -5.3641796970343503e-01 +7.3401869341698758e+00 -8.8506600608412556e-01 +3.5961471414266327e+01 +4.6764695357217215e+03 -3.5011959876930795e+05 -2.0355186638823636e+07 
+5.9999999999999998e-01 -5.3641790898004527e-01 +7.3401715939680603e+00 -8.9047370181539198e-01 +3.6554280688599064e+01 +4.7234615233325758e+03 -3.5402040283925267e+05 -2.0478263291862026e+07 
+6.9999999999999996e-01 -5.3641786288674531e-01 +7.3401545222521243e+00 -8.9497686399636689e-01 +3.7168816972192182e+01 +4.7568734075653620e+03 -3.5800846632256440e+05 -2.0547410098336693e+07 
+8.0000000000000004e-01 -5.3641783168298929e-01 +7.3401359625638793e+00 -8.9857822733582837e-01 +3.7797645806815154e+01 +4.7772209811282401e+03 -3.6204080337072856e+05 -2.0565803268032916e+07 
+9.0000000000000002e-01 -5.3641781562826685e-01 +7.3401161584354337e+00 -9.0128051867367509e-01 +3.8433332974994812e+01 +4.7850198877298753e+03 -3.6607442938403646e+05 -2.0536618307934359e+07 
+1.0000000000000000e+00 -5.3641781498197405e-01 +7.3400953533961335e+00 -9.0308647297466349e-01 +3.9068444300079967e+01 +4.7807859264078706e+03 -3.7006635985004128e+05 -2.0463031471739192e+07 
+1.1000000000000001e+00 -5.3641783000359922e-01 +7.3400737909652207e+00 -9.0399881928377901e-01 +3.9695545847939954e+01 +4.7650347801345433e+03 -3.7397361148561112e+05 -2.0348218458756216e+07 
+1.2000000000000000e+00 -5.3641786095260291e-01 +7.3400517146620272e+00 -9.0402028673482859e-01 +4.0307203623458783e+01 +4.7382821367024999e+03 -3.7775320044891082e+05 -2.0195355007705811e+07 
+1.3000000000000000e+00 -5.3641790808843148e-01 +7.3400293679914288e+00 -9.0315360238613873e-01 +4.0895983983586568e+01 +4.7010436444664892e+03 -3.8136214470646734e+05 -2.0007616678512000e+07 
+1.3999999999999999e+00 -5.3641797167062788e-01 +7.3400069944589585e+00 -9.0140149062051955e-01 +4.1454453190411499e+01 +4.6538349020814039e+03 -3.8475746142077306e+05 -1.9788178808426261e+07 
+1.5000000000000000e+00 -5.3641805195860870e-01 +7.3399848375578056e+00 -8.9876667460707638e-01 +4.1975177779657557e+01 +4.5971714873783967e+03 -3.8789616905965703e+05 -1.9540216652756318e+07 
+1.6000000000000001e+00 -5.3641814921194497e-01 +7.3399631407787611e+00 -8.9525187461379097e-01 +4.2450724267461226e+01 +4.5315689252478924e+03 -3.9073528567861934e+05 -1.9266905232377857e+07 
+1.7000000000000000e+00 -5.3641826369014844e-01 +7.3399421475988742e+00 -8.9085981067659492e-01 +4.2873659475262386e+01 +4.4575427356401688e+03 -3.9323183079308685e+05 -1.8971419557044212e+07 
+1.8000000000000000e+00 -5.3641839565279770e-01 +7.3399221014960201e+00 -8.8559319473228781e-01 +4.3236550082985744e+01 +4.3756082926067611e+03 -3.9534282271794917e+05 -1.8656933978528138e+07 
+1.8999999999999999e+00 -5.3641854535942379e-01 +7.3399032459315690e+00 -8.7945474025471448e-01 +4.3531963143353366e+01 +4.2862809981928649e+03 -3.9702528158098186e+05 -1.8326622993439212e+07 
+2.0000000000000000e+00 -5.3641871306964750e-01 +7.3398858243651617e+00 -8.7244715608871948e-01 +4.3752465630863085e+01 +4.1900761717664818e+03 -3.9823622664111131e+05 -1.7983660736114390e+07 
+2.1000000000000001e+00 -5.3641889879847782e-01 +7.3398700658449911e+00 -8.6458987925725628e-01 +4.3892169149212080e+01 +4.0876179043453535e+03 -3.9894322877218603e+05 -1.7631314403836790e+07 
+2.2000000000000002e+00 -5.3641910157681127e-01 +7.3398561387792336e+00 -8.5596987246316081e-01 +4.3951573320564300e+01 +3.9799604347599479e+03 -3.9915725861927168e+05 -1.7273158991953503e+07 
+2.2999999999999998e+00 -5.3641932018817273e-01 +7.3398441956403193e+00 -8.4669112704625771e-01 +4.3932828684133476e+01 +3.8682640670539754e+03 -3.9890044445760455e+05 -1.6912829065275587e+07 
+2.3999999999999999e+00 -5.3641955341608394e-01 +7.3398343889055928e+00 -8.3685763242913769e-01 +4.3838085646451347e+01 +3.7536890736376176e+03 -3.9819491385301761e+05 -1.6553959043713616e+07 
+2.5000000000000000e+00 -5.3641980004405521e-01 +7.3398268710579275e+00 -8.2657337817001519e-01 +4.3669494467380872e+01 +3.6373957390851533e+03 -3.9706279360883270e+05 -1.6200183421682078e+07 
+2.6000000000000001e+00 -5.3642005885565314e-01 +7.3398217945884650e+00 -8.1594235446886376e-01 +4.3429205197570305e+01 +3.5205443620881156e+03 -3.9552620945246617e+05 -1.5855136753548326e+07 
+2.7000000000000002e+00 -5.3642032863443523e-01 +7.3398193119951367e+00 -8.0506855134034505e-01 +4.3119367722196898e+01 +3.4042952475059933e+03 -3.9360728630038979e+05 -1.5522453637165014e+07 
+2.7999999999999998e+00 -5.3642060816396753e-01 +7.3398195757844826e+00 -7.9405595653273320e-01 +4.2742131719476667e+01 +3.2898086649062652e+03 -3.9132814806140476e+05 -1.5205768508022051e+07 
+2.8999999999999999e+00 -5.3642089622788203e-01 +7.3398227384767631e+00 -7.8300855797749125e-01 +4.2299646515220836e+01 +3.1782448922374097e+03 -3.8871091680582106e+05 -1.4908715837283934e+07 
+3.0000000000000000e+00 -5.3642119160978063e-01 +7.3398289525994862e+00 -7.7203034668255632e-01 +4.1794061290621123e+01 +3.0707642775353770e+03 -3.8577771403555846e+05 -1.4634930443807581e+07 
+3.1000000000000001e+00 -5.3642149309329112e-01 +7.3398383706943235e+00 -7.6122530940909738e-01 +4.1227524878837031e+01 +2.9685270940734654e+03 -3.8255065950626525e+05 -1.4388046784677567e+07 
+3.2000000000000002e+00 -5.3642179946206270e-01 +7.3398511453179855e+00 -7.5069743925759258e-01 +4.0602185749937675e+01 +2.8726937445571180e+03 -3.7905187117194553e+05 -1.4171699936351616e+07 
+3.2999999999999998e+00 -5.3642210949979130e-01 +7.3398674290432080e+00 -7.4055072363107788e-01 +3.9920191998363009e+01 +2.7844245363521504e+03 -3.7530346517454012e+05 -1.3989524531741403e+07 
+3.3999999999999999e+00 -5.3642242199013124e-01 +7.3398873744550421e+00 -7.3088915411747657e-01 +3.9183691447752231e+01 +2.7048798607866606e+03 -3.7132755644519429e+05 -1.3845155588968202e+07 
+3.5000000000000000e+00 -5.3642273571681742e-01 +7.3399111341583998e+00 -7.2181672260260432e-01 +3.8394831454612735e+01 +2.6352201318178004e+03 -3.6714625763609773e+05 -1.3742228253979597e+07 
+3.6000000000000001e+00 -5.3642304946359054e-01 +7.3399388607739970e+00 -7.1343741981922859e-01 +3.7555759015211073e+01 +2.5766057459640642e+03 -3.6278167972208775e+05 -1.3684377570216935e+07 
+3.7000000000000002e+00 -5.3642336201417051e-01 +7.3399707069461462e+00 -7.0585523950225992e-01 +3.6668620564673724e+01 +2.5301971720331630e+03 -3.5825593091694656e+05 -1.3675238936621116e+07 
+3.7999999999999998e+00 -5.3642367215235942e-01 +7.3400068253360473e+00 -6.9917417510618363e-01 +3.5735562169245455e+01 +2.4971548817539315e+03 -3.5359111778093566e+05 -1.3718447755036799e+07 
+3.8999999999999999e+00 -5.3642397866190239e-01 +7.3400473686288494e+00 -6.9349822529197735e-01 +3.4758729339193266e+01 +2.4786394641301431e+03 -3.4880934420126938e+05 -1.3817639998938430e+07 
+4.0000000000000000e+00 -5.3642428032669121e-01 +7.3400924895332977e+00 -6.8893138332153381e-01 +3.3740267039896075e+01 +2.4758114102420418e+03 -3.4393271147160360e+05 -1.3976451153716018e+07 
+4.0999999999999996e+00 -5.3642457615832417e-01 +7.3401422063699044e+00 -6.8554519335917208e-01 +3.2683404254115182e+01 +2.4893647175208098e+03 -3.3898477847837820e+05 -1.4196700673784800e+07 
+4.2000000000000002e+00 -5.3642486608190509e-01 +7.3401959929013971e+00 -6.8327739071323723e-01 +3.1595609641171002e+01 +2.5180915096731578e+03 -3.3399399877201539e+05 -1.4472874230721261e+07 
+4.2999999999999998e+00 -5.3642515025153970e-01 +7.3402531849912851e+00 -6.8203123606104743e-01 +3.0485382325393346e+01 +2.5602994902442083e+03 -3.2898978092724259e+05 -1.4797607514479682e+07 
+4.4000000000000004e+00 -5.3642542882123578e-01 +7.3403131184970078e+00 -6.8170999393147891e-01 +2.9361221647374769e+01 +2.6142964100056229e+03 -3.2400153488483332e+05 -1.5163536391188510e+07 
+4.5000000000000000e+00 -5.3642570194494299e-01 +7.3403751292673354e+00 -6.8221693258050298e-01 +2.8231627269173664e+01 +2.6783900684937221e+03 -3.1905867260970757e+05 -1.5563296919718517e+07 
+4.5999999999999996e+00 -5.3642596977652013e-01 +7.3404385531477665e+00 -6.8345532326563074e-01 +2.7105098997120304e+01 +2.7508882952868062e+03 -3.1419060700596671e+05 -1.5989525255145209e+07 
+4.7000000000000002e+00 -5.3642623246981747e-01 +7.3405027259736775e+00 -6.8532844016037187e-01 +2.5990136998232888e+01 +2.8300989476746936e+03 -3.0942675321236224e+05 -1.6434857635120273e+07 
+4.7999999999999998e+00 -5.3642649017857047e-01 +7.3405669835747629e+00 -6.8773956349580145e-01 +2.4895241664882537e+01 +2.9143299707556698e+03 -3.0479652780369372e+05 -1.6891930668709513e+07 
+4.9000000000000004e+00 -5.3642674305643512e-01 +7.3406306617702874e+00 -6.9059197428651664e-01 +2.3828913760031213e+01 +3.0018892911086068e+03 -3.0032934963574191e+05 -1.7353380816671312e+07 
+5.0000000000000000e+00 -5.3642699125700577e-01 +7.3406930963699963e+00 -6.9378896215547170e-01 +2.2799654386196810e+01 +3.0910849678086361e+03 -2.9605463966167823e+05 -1.7811845118028149e+07 
+5.0999999999999996e+00 -5.3642723493377031e-01 +7.3407536231761101e+00 -6.9723381733986534e-01 +2.1815964928959815e+01 +3.1802250377520359e+03 -2.9200182059184235e+05 -1.8259960447474714e+07 
+5.2000000000000002e+00 -5.3642747424017223e-01 +7.3408115779785472e+00 -7.0082983572556667e-01 +2.0886347212559155e+01 +3.2676176091075654e+03 -2.8820031784603372e+05 -1.8690363956896838e+07 
+5.2999999999999998e+00 -5.3642770932952155e-01 +7.3408662965563458e+00 -7.0448031967869296e-01 +2.0019303438275315e+01 +3.3515708742236334e+03 -2.8467955913558102e+05 -1.9095693129818723e+07 
+5.4000000000000004e+00 -5.3642794035505170e-01 +7.3409171146738048e+00 -7.0808857430944894e-01 +1.9223336309438942e+01 +3.4303930417801744e+03 -2.8146897521410207e+05 -1.9468585470062811e+07 
+5.5000000000000000e+00 -5.3642816746983613e-01 +7.3409633680887270e+00 -7.1155791395881329e-01 +1.8506948800373674e+01 +3.5023924539428672e+03 -2.7859799856097507e+05 -1.9801679043188237e+07 
+5.5999999999999996e+00 -5.3642839082693061e-01 +7.3410043925377773e+00 -7.1479165389820243e-01 +1.7878644569005196e+01 +3.5658774268227035e+03 -2.7609606573353609e+05 -2.0087611714667302e+07 
+5.7000000000000002e+00 -5.3642861057921087e-01 +7.3410395237487363e+00 -7.1769311747287268e-01 +1.7346927608006013e+01 +3.6191563877952171e+03 -2.7399261535838351e+05 -2.0319021809866175e+07 
+5.7999999999999998e+00 -5.3642882687951343e-01 +7.3410680974330331e+00 -7.2016563124461230e-01 +1.6920302472510343e+01 +3.6605377802195553e+03 -2.7231708947582362e+05 -2.0488547654150277e+07 
+5.9000000000000004e+00 -5.3642903988049107e-01 +7.3410894492878942e+00 -7.2211253285064025e-01 +1.6607274203824087e+01 +3.6883302103738533e+03 -2.7109893305778032e+05 -2.0588828266447142e+07 
+5.9999999999999902e+00 -5.3642924973471329e-01 +7.3411029149916933e+00 -7.2343716109264322e-01 +1.6416348492759589e+01 +3.7008422585325129e+03 -2.7036759500493732e+05 -2.0612502461523321e+07 
+6.0999999999999899e+00 -5.3642945662239960e-01 +7.3411080396323518e+00 -7.2406862728237664e-01 +1.6353110474380600e+01 +3.6969072114119322e+03 -2.7014189643981558e+05 -2.0554698183209777e+07 
+6.1999999999999904e+00 -5.3642966084202393e-01 +7.3411052344920407e+00 -7.2404680900325991e-01 +1.6410890185629068e+01 +3.6775589456970001e+03 -2.7039535758398758e+05 -2.0420847504473127e+07 
+6.2999999999999901e+00 -5.3642986272326210e-01 +7.3410951348017468e+00 -7.2344128810025210e-01 +1.6579815674437814e+01 +3.6444087419076800e+03 -2.7108952138147503e+05 -2.0219054176564459e+07 
+6.3999999999999897e+00 -5.3643006259593795e-01 +7.3410783757937406e+00 -7.2232164236270413e-01 +1.6850014848123923e+01 +3.5990678303126647e+03 -2.7218592952348531e+05 -1.9957421763720173e+07 
+6.4999999999999902e+00 -5.3643026078982092e-01 +7.3410555927019123e+00 -7.2075744524183938e-01 +1.7211615439892217e+01 +3.5431473971087958e+03 -2.7364612222710403e+05 -1.9644053702672366e+07 
+6.5999999999999899e+00 -5.3643045763489428e-01 +7.3410274207664958e+00 -7.1881826512985869e-01 +1.7654744874930113e+01 +3.4782585663978898e+03 -2.7543163746602886e+05 -1.9287053203240838e+07 
+6.6999999999999904e+00 -5.3643065346118268e-01 +7.3409944952287143e+00 -7.1657366743474249e-01 +1.8169530410988639e+01 +3.4060124432219536e+03 -2.7750401173321076e+05 -1.8894523462015662e+07 
+6.7999999999999901e+00 -5.3643084859870493e-01 +7.3409574513342504e+00 -7.1409321086748689e-01 +1.8746099026043122e+01 +3.3280200464390286e+03 -2.7982477936116006e+05 -1.8474567350835901e+07 
+6.8999999999999897e+00 -5.3643104337768699e-01 +7.3409169243298500e+00 -7.1144645070204515e-01 +1.9374577529077140e+01 +3.2458923683678340e+03 -2.8235547319061140e+05 -1.8035287693572599e+07 
+6.9999999999999902e+00 -5.3643123812843263e-01 +7.3408735494720077e+00 -7.0870293590156419e-01 +2.0045092285800596e+01 +3.1612403273592072e+03 -2.8505762291273056e+05 -1.7584787057866324e+07 
+7.0999999999999899e+00 -5.3643143318126008e-01 +7.3408279620151724e+00 -7.0593220968950710e-01 +2.0747769556109198e+01 +3.0756747748218104e+03 -2.8789275701129489e+05 -1.7131167777802981e+07 
+7.1999999999999904e+00 -5.3643162886663176e-01 +7.3407807972193737e+00 -7.0320381115957908e-01 +2.1472735270388821e+01 +2.9908065319669522e+03 -2.9082240145058674e+05 -1.6682532144219404e+07 
+7.2999999999999901e+00 -5.3643182551516488e-01 +7.3407326903476307e+00 -7.0058727036111423e-01 +2.2210115103873008e+01 +2.9082462957554717e+03 -2.9380808010602847e+05 -1.6246981953078471e+07 
+7.3999999999999897e+00 -5.3643202345754704e-01 +7.3406842766715030e+00 -6.9815211257364074e-01 +2.2950034296236169e+01 +2.8296047235975202e+03 -2.9681131365601008e+05 -1.5832618918889044e+07 
+7.4999999999999902e+00 -5.3643222302454252e-01 +7.3406361914641867e+00 -6.9596785778078318e-01 +2.3682617852803315e+01 +2.7564924218645588e+03 -2.9979362074798928e+05 -1.5447544611659102e+07 
+7.5999999999999899e+00 -5.3643242454708973e-01 +7.3405890700008829e+00 -6.9410401900428065e-01 +2.4397990531033958e+01 +2.6905199215200792e+03 -3.0271651790798415e+05 -1.5099860362362918e+07 
+7.6999999999999904e+00 -5.3643262835620764e-01 +7.3405435475670719e+00 -6.9263010010866755e-01 +2.5086276588522736e+01 +2.6332976306039086e+03 -3.0554151804291306e+05 -1.4797667018944925e+07 
+7.7999999999999901e+00 -5.3643283478312165e-01 +7.3405002594483921e+00 -6.9161559809688156e-01 +2.5737600070106588e+01 +2.5864358868454465e+03 -3.0823013208247244e+05 -1.4549065219325047e+07 
+7.8999999999999897e+00 -5.3643304415904336e-01 +7.3404598409380553e+00 -6.9113000688151882e-01 +2.6342084591341763e+01 +2.5515450276641714e+03 -3.1074386771532986e+05 -1.4362155719435336e+07 
+7.9999999999999902e+00 -5.3643325681541776e-01 +7.3404229273365997e+00 -6.9124280679010452e-01 +2.6889853297855183e+01 +2.5302351881988411e+03 -3.1304422900469945e+05 -1.4245038418839471e+07 
+8.0999999999999908e+00 -5.3643347313530687e-01 +7.3403900287683452e+00 -6.9200196217771948e-01 +2.7372926001780773e+01 +2.5236338612658028e+03 -3.1509932618640823e+05 -1.4203352615107616e+07 
+8.1999999999999904e+00 -5.3643369370765781e-01 +7.3403611213311235e+00 -6.9336235253813494e-01 +2.7791887936769825e+01 +2.5308281140884383e+03 -3.1690934974763606e+05 -1.4232496493671849e+07 
+8.2999999999999901e+00 -5.3643391917290828e-01 +7.3403360388881733e+00 -6.9525370700249556e-01 +2.8149709799260435e+01 +2.5503640226776170e+03 -3.1848388470494794e+05 -1.4325188989268966e+07 
+8.3999999999999897e+00 -5.3643415017144946e-01 +7.3403146152901488e+00 -6.9760575513761169e-01 +2.8449362726033886e+01 +2.5807876503752254e+03 -3.1983251909598720e+05 -1.4474148927776240e+07 
+8.4999999999999893e+00 -5.3643438734372573e-01 +7.3402966843834054e+00 -7.0034822476999092e-01 +2.8693818062706150e+01 +2.6206450021682699e+03 -3.2096484269728523e+05 -1.4672094791129140e+07 
+8.5999999999999908e+00 -5.3643463133009350e-01 +7.3402820800086257e+00 -7.0341084673409471e-01 +2.8886047410259202e+01 +2.6684821223169947e+03 -3.2189044731090858e+05 -1.4911745204873528e+07 
+8.6999999999999904e+00 -5.3643488277097529e-01 +7.3402706359926633e+00 -7.0672334818133897e-01 +2.9029022859224163e+01 +2.7228449568152905e+03 -3.2261892813280033e+05 -1.5185818253259830e+07 
+8.7999999999999794e+00 -5.3643514230672551e-01 +7.3402621861611292e+00 -7.1021545959117605e-01 +2.9125716631104009e+01 +2.7822794918411687e+03 -3.2315988170308899e+05 -1.5487032154733244e+07 
+8.8999999999999808e+00 -5.3643541057768085e-01 +7.3402565643282580e+00 -7.1381690830595990e-01 +2.9179101376245576e+01 +2.8453316276477099e+03 -3.2352290764349274e+05 -1.5808104651773678e+07 
+8.9999999999999805e+00 -5.3643568822419174e-01 +7.3402536042994511e+00 -7.1745742492756603e-01 +2.9192150105820083e+01 +2.9105473013664032e+03 -3.2371760830169992e+05 -1.6141753598888028e+07 
+9.0999999999999801e+00 -5.3643597588658254e-01 +7.3402531398725230e+00 -7.2106673759068851e-01 +2.9167836150929503e+01 +2.9764723743468253e+03 -3.2375358849893924e+05 -1.6480696417419666e+07 
+9.1999999999999797e+00 -5.3643627420513385e-01 +7.3402550048342619e+00 -7.2457457434464712e-01 +2.9109133276717472e+01 +3.0416526781001312e+03 -3.2364045625273656e+05 -1.6817650315180596e+07 
+9.2999999999999794e+00 -5.3643658382014880e-01 +7.3402590329669213e+00 -7.2791066491819867e-01 +2.9019015485004829e+01 +3.1046340471901808e+03 -3.2338782160502020e+05 -1.7145332442229599e+07 
+9.3999999999999808e+00 -5.3643690537188582e-01 +7.3402650580373798e+00 -7.3100473933399179e-01 +2.8900457341270076e+01 +3.1639622940678573e+03 -3.2300529857062089e+05 -1.7456459773359030e+07 
+9.4999999999999805e+00 -5.3643723950059186e-01 +7.3402729138079739e+00 -7.3378652582184012e-01 +2.8756433658287062e+01 +3.2181831618237343e+03 -3.2250250330565474e+05 -1.7743748864670668e+07 
+9.5999999999999801e+00 -5.3643758684644038e-01 +7.3402824340286230e+00 -7.3618575365114891e-01 +2.8589919735253737e+01 +3.2658423867586016e+03 -3.2188905553183600e+05 -1.7999916172987953e+07 
+9.6999999999999797e+00 -5.3643794804970490e-01 +7.3402934524415953e+00 -7.3813215271514343e-01 +2.8403891219280101e+01 +3.3054856789931514e+03 -3.2117457774136931e+05 -1.8217677934971686e+07 
+9.7999999999999794e+00 -5.3643832375051548e-01 +7.3403058027733845e+00 -7.3955545248554433e-01 +2.8201324331271586e+01 +3.3356587131539422e+03 -3.2036869649108214e+05 -1.8389750149919555e+07 
+9.8999999999999808e+00 -5.3643871458904580e-01 +7.3403193187493327e+00 -7.4038538334365478e-01 +2.7985195469839429e+01 +3.3549071415296316e+03 -3.1948104019445204e+05 -1.8508848611281000e+07 
+9.9999999999999805e+00 -5.3643912120542481e-01 +7.3403338340732720e+00 -7.4055167605952765e-01 +2.7758481823935515e+01 +3.3617765985225042e+03 -3.1852124281387165e+05 -1.8567688975471992e+07 
+1.0100000000000000e+01 -5.3643954388538762e-01 +7.3403491650229560e+00 -7.4000531700037153e-01 +2.7524642597007709e+01 +3.3552052653434521e+03 -3.1750267640059150e+05 -1.8560889550706021e+07 
