# field on trajectory
# s[mm] rx[mm] ry[mm] rz[mm] bx[T] by[T] bz[T]
0.0000000000000000e+00 +8.1530000000000005e+00 +0.0000000000000000e+00 +0.0000000000000000e+00 -9.0275291068620651e-04 -5.9203904701121779e-01 -1.1448696909931388e-03
1.0000000000000001e-01 +8.1529997163961507e+00 +0.0000000000000000e+00 +9.9999999999463796e-02 -9.0294052320271073e-04 -5.9203913979953360e-01 -1.1448184082215880e-03
2.0000000000000001e-01 +8.1529988655856904e+00 +0.0000000000000000e+00 +1.9999999999571000e-01 -9.0320899018130855e-04 -5.9203924191303958e-01 -1.1447646866734019e-03
2.9999999999999999e-01 +8.1529974475670297e+00 +0.0000000000000000e+00 +2.9999999998552201e-01 -9.0353993283641269e-04 -5.9203934849219197e-01 -1.1447103573518044e-03
4.0000000000000002e-01 +8.1529954623438208e+00 +0.0000000000000000e+00 +3.9999999996568297e-01 -9.0391497235940298e-04 -5.9203945467729746e-01 -1.1446572512670249e-03
5.0000000000000000e-01 +8.1529929099124292e+00 +0.0000000000000000e+00 +4.9999999993297400e-01 -9.0431572984502159e-04 -5.9203955560868005e-01 -1.1446071994368238e-03
5.9999999999999998e-01 +8.1529897902728408e+00 +0.0000000000000000e+00 +5.9999999988417896e-01 -9.0472382621798798e-04 -5.9203964642665952e-01 -1.1445620328866403e-03
6.9999999999999996e-01 +8.1529861034287006e+00 +0.0000000000000000e+00 +6.9999999981608096e-01 -9.0512088215950986e-04 -5.9203972227161294e-01 -1.1445235826499122e-03
8.0000000000000004e-01 +8.1529818493763706e+00 +0.0000000000000000e+00 +7.9999999972546199e-01 -9.0548851803372190e-04 -5.9203977828413268e-01 -1.1444936797685801e-03
9.0000000000000002e-01 +8.1529770281158598e+00 +0.0000000000000000e+00 +8.9999999960910604e-01 -9.0580835381430882e-04 -5.9203980960500202e-01 -1.1444741552932309e-03
1.0000000000000000e+00 +8.1529716396507901e+00 +0.0000000000000000e+00 +9.9999999946379403e-01 -9.0606200901105017e-04 -5.9203981137525874e-01 -1.1444668402834166e-03
1.1000000000000001e+00 +8.1529656839775306e+00 +0.0000000000000000e+00 +1.0999999992863101e+00 -9.0623536969001951e-04 -5.9203978047811734e-01 -1.1444728663879851e-03
1.2000000000000000e+00 +8.1529591610960797e+00 +0.0000000000000000e+00 +1.1999999990734400e+00 -9.0633138990424921e-04 -5.9203972076419331e-01 -1.1444905675743516e-03
1.3000000000000000e+00 +8.1529520710100805e+00 +0.0000000000000000e+00 +1.2999999988219599e+00 -9.0635729079380559e-04 -5.9203963782617530e-01 -1.1445175783682782e-03
1.3999999999999999e+00 +8.1529444137122500e+00 +0.0000000000000000e+00 +1.3999999985286500e+00 -9.0632029361190243e-04 -5.9203953725719916e-01 -1.1445515332656657e-03
1.5000000000000000e+00 +8.1529361892135093e+00 +0.0000000000000000e+00 +1.4999999981903001e+00 -9.0622761979682997e-04 -5.9203942465064607e-01 -1.1445900667256706e-03
1.6000000000000001e+00 +8.1529273975065699e+00 +0.0000000000000000e+00 +1.5999999978037001e+00 -9.0608649104334581e-04 -5.9203930560047335e-01 -1.1446308131649026e-03
1.7000000000000000e+00 +8.1529180385914497e+00 +0.0000000000000000e+00 +1.6999999973656199e+00 -9.0590412937455905e-04 -5.9203918570104119e-01 -1.1446714069506079e-03
1.8000000000000000e+00 +8.1529081124681397e+00 +0.0000000000000000e+00 +1.7999999968728499e+00 -9.0568775721353554e-04 -5.9203907054720495e-01 -1.1447094823943897e-03
1.8999999999999999e+00 +8.1528976191402798e+00 +0.0000000000000000e+00 +1.8999999963221601e+00 -9.0544459745498939e-04 -5.9203896573432013e-01 -1.1447426737457537e-03
2.0000000000000000e+00 +8.1528865586042194e+00 +0.0000000000000000e+00 +1.9999999957103500e+00 -9.0518187353681311e-04 -5.9203887685836620e-01 -1.1447686151858922e-03
2.1000000000000001e+00 +8.1528749308599799e+00 +0.0000000000000000e+00 +2.0999999950341901e+00 -9.0490722375938303e-04 -5.9203880858952473e-01 -1.1447854745049643e-03
2.2000000000000002e+00 +8.1528627359111905e+00 +0.0000000000000000e+00 +2.1999999942904802e+00 -9.0462994394625157e-04 -5.9203876189259941e-01 -1.1447935541914905e-03
2.2999999999999998e+00 +8.1528499737542006e+00 +0.0000000000000000e+00 +2.2999999934759798e+00 -9.0435974447935076e-04 -5.9203873680523900e-01 -1.1447936904582570e-03
2.3999999999999999e+00 +8.1528366443890299e+00 +0.0000000000000000e+00 +2.3999999925874800e+00 -9.0410633603356621e-04 -5.9203873336394253e-01 -1.1447867195773004e-03
2.5000000000000000e+00 +8.1528227478193003e+00 +0.0000000000000000e+00 +2.4999999916217801e+00 -9.0387942959466779e-04 -5.9203875160391328e-01 -1.1447734778888378e-03
2.6000000000000001e+00 +8.1528082840413791e+00 +0.0000000000000000e+00 +2.5999999905756401e+00 -9.0368873647710243e-04 -5.9203879155899941e-01 -1.1447548018103748e-03
2.7000000000000002e+00 +8.1527932530552807e+00 +0.0000000000000000e+00 +2.6999999894458502e+00 -9.0354396834201977e-04 -5.9203885326145744e-01 -1.1447315278454500e-03
2.7999999999999998e+00 +8.1527776548646198e+00 +0.0000000000000000e+00 +2.7999999882291999e+00 -9.0345483721516410e-04 -5.9203893674180486e-01 -1.1447044925925677e-03
2.8999999999999999e+00 +8.1527614894657692e+00 +0.0000000000000000e+00 +2.8999999869224702e+00 -9.0343105550462878e-04 -5.9203904202876056e-01 -1.1446745327542880e-03
3.0000000000000000e+00 +8.1527447568587394e+00 +0.0000000000000000e+00 +2.9999999855224302e+00 -9.0348233601884778e-04 -5.9203916914901034e-01 -1.1446424851459813e-03
3.1000000000000001e+00 +8.1527274570471508e+00 +0.0000000000000000e+00 +3.0999999840258798e+00 -9.0361470627685055e-04 -5.9203931932833465e-01 -1.1446091466504158e-03
3.2000000000000002e+00 +8.1527095900273707e+00 +0.0000000000000000e+00 +3.1999999824295902e+00 -9.0381945096245850e-04 -5.9203949859643989e-01 -1.1445751540188889e-03
3.2999999999999998e+00 +8.1526911557994008e+00 +0.0000000000000000e+00 +3.2999999807303602e+00 -9.0408416826167281e-04 -5.9203971418483692e-01 -1.1445411039595491e-03
3.3999999999999999e+00 +8.1526721543668792e+00 +0.0000000000000000e+00 +3.3999999789249502e+00 -9.0439645538468582e-04 -5.9203997332591463e-01 -1.1445075931792866e-03
3.5000000000000000e+00 +8.1526525857261696e+00 +0.0000000000000000e+00 +3.4999999770101602e+00 -9.0474390848045022e-04 -5.9204028325313274e-01 -1.1444752183821369e-03
3.6000000000000001e+00 +8.1526324498772702e+00 +0.0000000000000000e+00 +3.5999999749827598e+00 -9.0511412255150426e-04 -5.9204065120103289e-01 -1.1444445762673350e-03
3.7000000000000002e+00 +8.1526117468238208e+00 +0.0000000000000000e+00 +3.6999999728395401e+00 -9.0549469136870758e-04 -5.9204108440534231e-01 -1.1444162635275410e-03
3.7999999999999998e+00 +8.1525904765621799e+00 +0.0000000000000000e+00 +3.7999999705772902e+00 -9.0587320738592199e-04 -5.9204159010316437e-01 -1.1443908768472455e-03
3.8999999999999999e+00 +8.1525686390959908e+00 +0.0000000000000000e+00 +3.8999999681927799e+00 -9.0623726165496056e-04 -5.9204217553296135e-01 -1.1443690129007594e-03
4.0000000000000000e+00 +8.1525462344179704e+00 +0.0000000000000000e+00 +3.9999999656827998e+00 -9.0657444374028177e-04 -5.9204284793480710e-01 -1.1443512683507375e-03
4.0999999999999996e+00 +8.1525232625354001e+00 +0.0000000000000000e+00 +4.0999999630441302e+00 -9.0687403138950992e-04 -5.9204361020835039e-01 -1.1443380092981594e-03
4.2000000000000002e+00 +8.1524997234482708e+00 +0.0000000000000000e+00 +4.1999999602735496e+00 -9.0713206054353758e-04 -5.9204444788664945e-01 -1.1443286796222810e-03
4.2999999999999998e+00 +8.1524756171529607e+00 +0.0000000000000000e+00 +4.2999999573678496e+00 -9.0734625748731842e-04 -5.9204534216085269e-01 -1.1443224925967936e-03
4.4000000000000004e+00 +8.1524509436494608e+00 +0.0000000000000000e+00 +4.3999999543238104e+00 -9.0751434935234523e-04 -5.9204627422190648e-01 -1.1443186614302813e-03
4.5000000000000000e+00 +8.1524257029377605e+00 +0.0000000000000000e+00 +4.4999999511382098e+00 -9.0763406417977471e-04 -5.9204722526057185e-01 -1.1443163992619655e-03
4.5999999999999996e+00 +8.1523998950215208e+00 +0.0000000000000000e+00 +4.5999999478078299e+00 -9.0770313098359826e-04 -5.9204817646737884e-01 -1.1443149191573345e-03
4.7000000000000002e+00 +8.1523735198970808e+00 +0.0000000000000000e+00 +4.6999999443294600e+00 -9.0771927981366928e-04 -5.9204910903270369e-01 -1.1443134341040154e-03
4.7999999999999998e+00 +8.1523465775644599e+00 +0.0000000000000000e+00 +4.7999999406998803e+00 -9.0768024181891224e-04 -5.9205000414666387e-01 -1.1443111570072916e-03
4.9000000000000004e+00 +8.1523190680272801e+00 +0.0000000000000000e+00 +4.8999999369158704e+00 -9.0758374931041678e-04 -5.9205084299910660e-01 -1.1443073006858063e-03
5.0000000000000000e+00 +8.1522909912819195e+00 +0.0000000000000000e+00 +4.9999999329742204e+00 -9.0742753582441016e-04 -5.9205160677968161e-01 -1.1443010778674383e-03
5.0999999999999996e+00 +8.1522623473319999e+00 +0.0000000000000000e+00 +5.0999999288717000e+00 -9.0721252188443737e-04 -5.9205228139920396e-01 -1.1442919711579505e-03
5.2000000000000002e+00 +8.1522331361738907e+00 +0.0000000000000000e+00 +5.1999999246051098e+00 -9.0695237186533967e-04 -5.9205287165471021e-01 -1.1442805429878260e-03
5.2999999999999998e+00 +8.1522033578075899e+00 +0.0000000000000000e+00 +5.2999999201712198e+00 -9.0666393636292756e-04 -5.9205338706565069e-01 -1.1442676257401392e-03
5.4000000000000004e+00 +8.1521730122331100e+00 +0.0000000000000000e+00 +5.3999999155668199e+00 -9.0636406642022218e-04 -5.9205383715256155e-01 -1.1442540517833345e-03
5.5000000000000000e+00 +8.1521420994540694e+00 +0.0000000000000000e+00 +5.4999999107886799e+00 -9.0606961354356308e-04 -5.9205423143708558e-01 -1.1442406534710634e-03
5.5999999999999996e+00 +8.1521106194668391e+00 +0.0000000000000000e+00 +5.5999999058335996e+00 -9.0579742971852342e-04 -5.9205457944210871e-01 -1.1442282631422534e-03
5.7000000000000002e+00 +8.1520785722750606e+00 +0.0000000000000000e+00 +5.6999999006983604e+00 -9.0556436742607045e-04 -5.9205489069169071e-01 -1.1442177131207522e-03
5.7999999999999998e+00 +8.1520459578750906e+00 +0.0000000000000000e+00 +5.7999998953797300e+00 -9.0538727965837958e-04 -5.9205517471123303e-01 -1.1442098357154508e-03
5.9000000000000004e+00 +8.1520127762669308e+00 +0.0000000000000000e+00 +5.8999998898744996e+00 -9.0528301993488436e-04 -5.9205544102743835e-01 -1.1442054632199812e-03
5.9999999999999902e+00 +8.1519790274505795e+00 +0.0000000000000000e+00 +5.9999998841794504e+00 -9.0526844231813967e-04 -5.9205569916838818e-01 -1.1442054279126464e-03
6.0999999999999899e+00 +8.1519447114296799e+00 +0.0000000000000000e+00 +6.0999998782913698e+00 -9.0535499359937089e-04 -5.9205595800557020e-01 -1.1442103404375767e-03
6.1999999999999904e+00 +8.1519098282005906e+00 +0.0000000000000000e+00 +6.1999998722070400e+00 -9.0553248898177035e-04 -5.9205622377898803e-01 -1.1442199249722858e-03
6.2999999999999901e+00 +8.1518743777669407e+00 +0.0000000000000000e+00 +6.2999998659232403e+00 -9.0578533424263573e-04 -5.9205650206920868e-01 -1.1442336841327950e-03
6.3999999999999897e+00 +8.1518383601214701e+00 +0.0000000000000000e+00 +6.3999998594367504e+00 -9.0609793333754237e-04 -5.9205679845517800e-01 -1.1442511206037642e-03
6.4999999999999902e+00 +8.1518017752750893e+00 +0.0000000000000000e+00 +6.4999998527443603e+00 -9.0645468832403775e-04 -5.9205711851390597e-01 -1.1442717371411898e-03
6.5999999999999899e+00 +8.1517646232205205e+00 +0.0000000000000000e+00 +6.5999998458428504e+00 -9.0683999928475422e-04 -5.9205746782068824e-01 -1.1442950365761664e-03
6.6999999999999904e+00 +8.1517269039541098e+00 +0.0000000000000000e+00 +6.6999998387290001e+00 -9.0723826425115263e-04 -5.9205785194884886e-01 -1.1443205218176981e-03
6.7999999999999901e+00 +8.1516886174867995e+00 +0.0000000000000000e+00 +6.7999998313996004e+00 -9.0763387912720140e-04 -5.9205827646957510e-01 -1.1443476958557014e-03
6.8999999999999897e+00 +8.1516497638112906e+00 +0.0000000000000000e+00 +6.8999998238514202e+00 -9.0801123761274243e-04 -5.9205874695210814e-01 -1.1443760617647070e-03
6.9999999999999902e+00 +8.1516103429239593e+00 +0.0000000000000000e+00 +6.9999998160812602e+00 -9.0835473112740753e-04 -5.9205926896348648e-01 -1.1444051227066817e-03
7.0999999999999899e+00 +8.1515703548320708e+00 +0.0000000000000000e+00 +7.0999998080858804e+00 -9.0865132433783633e-04 -5.9205984551700896e-01 -1.1444344224489562e-03
7.1999999999999904e+00 +8.1515297995356395e+00 +0.0000000000000000e+00 +7.1999997998620904e+00 -9.0889828326427228e-04 -5.9206046941897417e-01 -1.1444636668762355e-03
7.2999999999999901e+00 +8.1514886770310095e+00 +0.0000000000000000e+00 +7.2999997914066501e+00 -9.0909545073045422e-04 -5.9206113092449930e-01 -1.1444926023823103e-03
7.3999999999999897e+00 +8.1514469873182005e+00 +0.0000000000000000e+00 +7.3999997827163604e+00 -9.0924267111478147e-04 -5.9206182028914245e-01 -1.1445209753448992e-03
7.4999999999999902e+00 +8.1514047304008308e+00 +0.0000000000000000e+00 +7.4999997737879900e+00 -9.0933979041104283e-04 -5.9206252776892410e-01 -1.1445485321249682e-03
7.5999999999999899e+00 +8.1513619062752696e+00 +0.0000000000000000e+00 +7.5999997646183202e+00 -9.0938665628901541e-04 -5.9206324362043783e-01 -1.1445750190662222e-03
7.6999999999999904e+00 +8.1513185149451601e+00 +0.0000000000000000e+00 +7.6999997552041499e+00 -9.0938311815525700e-04 -5.9206395810075463e-01 -1.1446001824941927e-03
7.7999999999999901e+00 +8.1512745564032194e+00 +0.0000000000000000e+00 +7.7999997455422498e+00 -9.0932902721356957e-04 -5.9206466146759096e-01 -1.1446237687158488e-03
7.8999999999999897e+00 +8.1512300306567305e+00 +0.0000000000000000e+00 +7.8999997356294100e+00 -9.0922423652583877e-04 -5.9206534397912625e-01 -1.1446455240185218e-03
7.9999999999999902e+00 +8.1511849377056897e+00 +0.0000000000000000e+00 +7.9999997254624002e+00 -9.0906860107239180e-04 -5.9206599589419928e-01 -1.1446651946695769e-03
8.0999999999999908e+00 +8.1511392775464593e+00 +0.0000000000000000e+00 +8.0999997150380096e+00 -9.0886413931138437e-04 -5.9206661036694619e-01 -1.1446826331991758e-03
8.1999999999999904e+00 +8.1510930501790408e+00 +0.0000000000000000e+00 +8.1999997043530293e+00 -9.0862151721021463e-04 -5.9206719213034398e-01 -1.1446981172713610e-03
8.2999999999999901e+00 +8.1510462556034309e+00 +0.0000000000000000e+00 +8.2999996934042404e+00 -9.0835356270464838e-04 -5.9206774881149771e-01 -1.1447120308632692e-03
8.3999999999999897e+00 +8.1509988938232691e+00 +0.0000000000000000e+00 +8.3999996821884100e+00 -9.0807310402341729e-04 -5.9206828803679179e-01 -1.1447247579851249e-03
8.4999999999999893e+00 +8.1509509648349194e+00 +0.0000000000000000e+00 +8.4999996707023406e+00 -9.0779296969350706e-04 -5.9206881743195960e-01 -1.1447366826812940e-03
8.5999999999999908e+00 +8.1509024686420197e+00 +0.0000000000000000e+00 +8.5999996589427994e+00 -9.0752598854568201e-04 -5.9206934462194394e-01 -1.1447481890309334e-03
8.6999999999999904e+00 +8.1508534052409196e+00 +0.0000000000000000e+00 +8.6999996469065692e+00 -9.0728498971965178e-04 -5.9206987723099669e-01 -1.1447596611490953e-03
8.7999999999999794e+00 +8.1508037746316404e+00 +0.0000000000000000e+00 +8.7999996345904599e+00 -9.0708280266946955e-04 -5.9207042288256828e-01 -1.1447714831874249e-03
8.8999999999999808e+00 +8.1507535768178094e+00 +0.0000000000000000e+00 +8.8999996219912205e+00 -9.0693225716876929e-04 -5.9207098919928836e-01 -1.1447840393350275e-03
8.9999999999999805e+00 +8.1507028117957798e+00 +0.0000000000000000e+00 +8.9999996091056396e+00 -9.0684618331583256e-04 -5.9207158380303471e-01 -1.1447977138194997e-03
9.0999999999999801e+00 +8.1506514795655693e+00 +0.0000000000000000e+00 +9.0999995959305195e+00 -9.0683375544982250e-04 -5.9207221174957914e-01 -1.1448128374796922e-03
9.1999999999999797e+00 +8.1505995801308000e+00 +0.0000000000000000e+00 +9.1999995824626293e+00 -9.0688952308531283e-04 -5.9207286783329927e-01 -1.1448295274586707e-03
9.2999999999999794e+00 +8.1505471134878498e+00 +0.0000000000000000e+00 +9.2999995686987500e+00 -9.0700437814170663e-04 -5.9207354428406433e-01 -1.1448478474511844e-03
9.3999999999999808e+00 +8.1504940796366991e+00 +0.0000000000000000e+00 +9.3999995546356701e+00 -9.0716921091792309e-04 -5.9207423333261699e-01 -1.1448678611265357e-03
9.4999999999999805e+00 +8.1504404785773694e+00 +0.0000000000000000e+00 +9.4999995402701707e+00 -9.0737491004772779e-04 -5.9207492721063337e-01 -1.1448896321278336e-03
9.5999999999999801e+00 +8.1503863103171206e+00 +0.0000000000000000e+00 +9.5999995255990296e+00 -9.0761236245526559e-04 -5.9207561815069254e-01 -1.1449132240710744e-03
9.6999999999999797e+00 +8.1503315748450404e+00 +0.0000000000000000e+00 +9.6999995106190298e+00 -9.0787245331034098e-04 -5.9207629838651055e-01 -1.1449387005447328e-03
9.7999999999999794e+00 +8.1502762721684103e+00 +0.0000000000000000e+00 +9.7999994953269702e+00 -9.0814606598442840e-04 -5.9207696015267297e-01 -1.1449661251084007e-03
9.8999999999999808e+00 +8.1502204022835905e+00 +0.0000000000000000e+00 +9.8999994797196091e+00 -9.0842408200609702e-04 -5.9207759568490204e-01 -1.1449955612924418e-03
9.9999999999999805e+00 +8.1501639651905897e+00 +0.0000000000000000e+00 +9.9999994637937508e+00 -9.0869738101697630e-04 -5.9207819721996502e-01 -1.1450270725969704e-03
1.0100000000000000e+01 +8.1501069608966592e+00 +0.0000000000000000e+00 +1.0099999447546200e+01 -9.0895767916764124e-04 -5.9207875856173464e-01 -1.1450606605854312e-03
1.0199999999999999e+01 +8.1500493893909205e+00 +0.0000000000000000e+00 +1.0199999430973600e+01 -9.0920004553345936e-04 -5.9207927977990615e-01 -1.1450960792004417e-03
1.0300000000000001e+01 +8.1499912506769796e+00 +0.0000000000000000e+00 +1.0299999414073000e+01 -9.0942038866021857e-04 -5.9207976251187944e-01 -1.1451330205470380e-03
1.0400000000000000e+01 +8.1499325447584905e+00 +0.0000000000000000e+00 +1.0399999396840901e+01 -9.0961461839859199e-04 -5.9208020839685771e-01 -1.1451711768114402e-03
1.0500000000000000e+01 +8.1498732716317992e+00 +0.0000000000000000e+00 +1.0499999379274200e+01 -9.0977864593784876e-04 -5.9208061907595022e-01 -1.1452102402630352e-03
1.0600000000000000e+01 +8.1498134313005703e+00 +0.0000000000000000e+00 +1.0599999361369800e+01 -9.0990838383972331e-04 -5.9208099619209498e-01 -1.1452499032560191e-03
1.0699999999999999e+01 +8.1497530237611500e+00 +0.0000000000000000e+00 +1.0699999343124301e+01 -9.0999974607194412e-04 -5.9208134139022139e-01 -1.1452898582314929e-03
1.0800000000000001e+01 +8.1496920490171796e+00 +0.0000000000000000e+00 +1.0799999324534600e+01 -9.1004864804199647e-04 -5.9208165631717269e-01 -1.1453297977190976e-03
1.0900000000000000e+01 +8.1496305070650106e+00 +0.0000000000000000e+00 +1.0899999305597399e+01 -9.1005100663053677e-04 -5.9208194262186853e-01 -1.1453694143391110e-03
1.1000000000000000e+01 +8.1495683979046607e+00 +0.0000000000000000e+00 +1.0999999286309500e+01 -9.1000274022500947e-04 -5.9208220195525807e-01 -1.1454084008041365e-03
1.1100000000000000e+01 +8.1495057215361193e+00 +0.0000000000000000e+00 +1.1099999266667700e+01 -9.0990232702910755e-04 -5.9208243757546097e-01 -1.1454464748928818e-03
1.1199999999999999e+01 +8.1494424779630208e+00 +0.0000000000000000e+00 +1.1199999246668799e+01 -9.0975847977826029e-04 -5.9208265916162162e-01 -1.1454834542711462e-03
1.1300000000000001e+01 +8.1493786671817396e+00 +0.0000000000000000e+00 +1.1299999226309600e+01 -9.0958247018524787e-04 -5.9208287799608694e-01 -1.1455191814018345e-03
1.1400000000000000e+01 +8.1493142891922599e+00 +0.0000000000000000e+00 +1.1399999205586900e+01 -9.0938557047396036e-04 -5.9208310535874642e-01 -1.1455534985429082e-03
1.1500000000000000e+01 +8.1492493440018698e+00 +0.0000000000000000e+00 +1.1499999184497300e+01 -9.0917905338875889e-04 -5.9208335252694544e-01 -1.1455862477426902e-03
1.1600000000000000e+01 +8.1491838315996592e+00 +0.0000000000000000e+00 +1.1599999163037801e+01 -9.0897419220350084e-04 -5.9208363077563120e-01 -1.1456172708356356e-03
1.1699999999999999e+01 +8.1491177519928897e+00 +0.0000000000000000e+00 +1.1699999141205099e+01 -9.0878226073119761e-04 -5.9208395137699743e-01 -1.1456464094371352e-03
1.1800000000000001e+01 +8.1490511051779304e+00 +0.0000000000000000e+00 +1.1799999118996000e+01 -9.0861453333294158e-04 -5.9208432560066115e-01 -1.1456735049393499e-03
