# multipoles
# s[mm] polynom_b[n=0][T/m^n] polynom_b[n=1][T/m^n] polynom_b[n=2][T/m^n] polynom_b[n=3][T/m^n] polynom_b[n=4][T/m^n] polynom_b[n=5][T/m^n] polynom_b[n=6][T/m^n] 
-0.0000000000000000e+00 -5.6468398664073083e-01 +7.7346385280877765e+00 -2.4908135222484348e-01 -2.6020710911660348e+01 -1.5196879567401245e+03 -3.9736376519012898e+04 +3.7546192737487187e+06 
-1.0000000000000001e-01 -5.6468428299855777e-01 +7.7346543761034319e+00 -2.4342383448340565e-01 -2.6338001622656005e+01 -1.5860069936859866e+03 -3.8127821014813140e+04 +3.9500141423569955e+06 
-2.0000000000000001e-01 -5.6468459290459494e-01 +7.7346700713503305e+00 -2.3817184027234173e-01 -2.6676786949710461e+01 -1.6369782814710763e+03 -3.6416771685029715e+04 +4.0603076471821903e+06 
-2.9999999999999999e-01 -5.6468491488236472e-01 +7.7346854590745568e+00 -2.3332639417262185e-01 -2.7031724398833283e+01 -1.6733274907848172e+03 -3.4630417997985656e+04 +4.0902863967022025e+06 
-4.0000000000000002e-01 -5.6468524745528048e-01 +7.7347003845161160e+00 -2.2888852739394658e-01 -2.7397471357191712e+01 -1.6957801737401458e+03 -3.2795949928761074e+04 +4.0447364519108571e+06 
-5.0000000000000000e-01 -5.6468558914688005e-01 +7.7347146929216315e+00 -2.2485926398207273e-01 -2.7768685460373860e+01 -1.7050620078561601e+03 -3.0940555844072438e+04 +3.9284444405437177e+06 
-5.9999999999999998e-01 -5.6468593848061521e-01 +7.7347282295331157e+00 -2.2123963411181014e-01 -2.8140024257541626e+01 -1.7018985593685920e+03 -2.9091424460908955e+04 +3.7461964736440498e+06 
-6.9999999999999996e-01 -5.6468629397993686e-01 +7.7347408395956574e+00 -2.1803066454894740e-01 -2.8506145408857094e+01 -1.6870154558131319e+03 -2.7275743795560269e+04 +3.5027789434884032e+06 
-8.0000000000000004e-01 -5.6468665416832786e-01 +7.7347523683540516e+00 -2.1523338477345130e-01 -2.8861706598955081e+01 -1.6611382762748090e+03 -2.5520701626797851e+04 +3.2029780216296576e+06 
-9.0000000000000002e-01 -5.6468701756923090e-01 +7.7347626610543587e+00 -2.1284882539040098e-01 -2.9201365542419172e+01 -1.6249925789171507e+03 -2.3853485581819372e+04 +2.8515797812850378e+06 
-1.0000000000000000e+00 -5.6468738270607033e-01 +7.7347715629496578e+00 -2.1087801538856082e-01 -2.9519780158156163e+01 -1.5793039570755518e+03 -2.2301282116068578e+04 +2.4533704781541317e+06 
-1.1000000000000001e+00 -5.6468774810229871e-01 +7.7347789192867316e+00 -2.0932198725451576e-01 -2.9811608170459344e+01 -1.5247979379669828e+03 -2.0891278861905168e+04 +2.0131360562960501e+06 
-1.2000000000000000e+00 -5.6468811228134619e-01 +7.7347845753223678e+00 -2.0818177243758534e-01 -3.0071507560982351e+01 -1.4622000732725030e+03 -1.9650662070864091e+04 +1.5356625933267151e+06 
-1.3000000000000000e+00 -5.6468847376657272e-01 +7.7347883763161756e+00 -2.0745840680109104e-01 -3.0294136360176910e+01 -1.3922358384039294e+03 -1.8606617833384291e+04 +1.0257358275872584e+06 
-1.3999999999999999e+00 -5.6468883108145984e-01 +7.7347901675306598e+00 -2.0715292166256549e-01 -3.0474152624310925e+01 -1.3156307994629149e+03 -1.7786332279735088e+04 +4.8814194756986969e+05 
-1.5000000000000000e+00 -5.6468918274926982e-01 +7.7347897942275763e+00 -2.0726635788854536e-01 -3.0606214333753062e+01 -1.2331103433096634e+03 -1.7216992175632746e+04 -7.2333702501635460e+04 
-1.6000000000000001e+00 -5.6468952729345945e-01 +7.7347871016816292e+00 -2.0779974890126660e-01 -3.0684979761580365e+01 -1.1454000122003779e+03 -1.6925782860934138e+04 -6.5090499154202256e+05 
-1.7000000000000000e+00 -5.6468986323734804e-01 +7.7347819351718909e+00 -2.0875413802444792e-01 -3.0705107231591043e+01 -1.0532251646403115e+03 -1.6939889637269487e+04 -1.2427866453871552e+06 
-1.8000000000000000e+00 -5.6469018910428992e-01 +7.7347741399763947e+00 -2.1013056382247011e-01 -3.0661254936265056e+01 -9.5731125965833405e+02 -1.7286498907840352e+04 -1.8431928754852861e+06 
-1.8999999999999999e+00 -5.6469050341755733e-01 +7.7347635613857637e+00 -2.1193007138491685e-01 -3.0548081323022313e+01 -8.5838363989082916e+02 -1.7992795962375134e+04 -2.4473384180948283e+06 
-2.0000000000000000e+00 -5.6469080470048150e-01 +7.7347500446960620e+00 -2.1415370465564018e-01 -3.0360244875401030e+01 -7.5716768400495812e+02 -1.9085966286668201e+04 -3.0504377897866005e+06 
-2.1000000000000001e+00 -5.6469109195478739e-01 +7.7347335002030899e+00 -2.1679074964187284e-01 -3.0094371368966055e+01 -6.5444153848722965e+02 -2.0582657810279041e+04 -3.6478023767583938e+06 
-2.2000000000000002e+00 -5.6469136609977977e-01 +7.7347141050931203e+00 -2.1978380533697883e-01 -2.9755138830186031e+01 -5.5117844345861204e+02 -2.2456324119012123e+04 -4.2352214696728215e+06 
-2.2999999999999998e+00 -5.6469162853512700e-01 +7.7346921050215416e+00 -2.2306389958778830e-01 -2.9349284942123457e+01 -4.4839611247090915e+02 -2.4669355471527935e+04 -4.8086279956138963e+06 
-2.3999999999999999e+00 -5.6469188066050757e-01 +7.7346677456470720e+00 -2.2656205557989653e-01 -2.8883547453443658e+01 -3.4711234748134854e+02 -2.7184141831088018e+04 -5.3639544634042084e+06 
-2.5000000000000000e+00 -5.6469212387554180e-01 +7.7346412726240414e+00 -2.3020929970464468e-01 -2.8364663948316217e+01 -2.4834489412901610e+02 -2.9963074227116253e+04 -5.8971336389773255e+06 
-2.6000000000000001e+00 -5.6469235957995778e-01 +7.7346129315990737e+00 -2.3393665263524638e-01 -2.7799371762027373e+01 -1.5311160145689368e+02 -3.2968545197447231e+04 -6.4040978130798079e+06 
-2.7000000000000002e+00 -5.6469258917344956e-01 +7.7345829682188816e+00 -2.3767513488517175e-01 -2.7194408198319980e+01 -6.2430327802322651e+01 -3.6162947564584836e+04 -6.8807792190127065e+06 
-2.7999999999999998e+00 -5.6469281405569294e-01 +7.7345516281256801e+00 -2.4135576604020598e-01 -2.6556510410007380e+01 +2.2681052663331368e+01 -3.9508675070236473e+04 -7.3231100227234149e+06 
-2.8999999999999999e+00 -5.6469303562646078e-01 +7.7345191569557326e+00 -2.4490956066832900e-01 -2.5892415341922092e+01 +1.0120457232177198e+02 -4.2968122761297294e+04 -7.7270219557432607e+06 
-3.0000000000000000e+00 -5.6469325528549896e-01 +7.7344858003391055e+00 -2.4826753279885283e-01 -2.5208859738583506e+01 +1.7212225095931566e+02 -4.6503686886636395e+04 -8.0884466883638781e+06 
-3.1000000000000001e+00 -5.6469347443254836e-01 +7.7344518038998933e+00 -2.5136069376600373e-01 -2.4512580151675810e+01 +2.3441605895696549e+02 -5.0077764861775577e+04 -8.4033156661989354e+06 
-3.2000000000000002e+00 -5.6469369446743767e-01 +7.7344174132542287e+00 -2.5412005116958986e-01 -2.3810312883346842e+01 +2.8706789984793477e+02 -5.3652755578592005e+04 -8.6675600347534455e+06 
-3.2999999999999998e+00 -5.6469391678999303e-01 +7.7343828740144387e+00 -2.5647660923316751e-01 -2.3108794095771533e+01 +3.2905961144584455e+02 -5.7191058812919844e+04 -8.8771106290188637e+06 
-3.3999999999999999e+00 -5.6469414280004360e-01 +7.7343484317803766e+00 -2.5836136840797919e-01 -2.2414759581439718e+01 +3.5937296400981512e+02 -6.0655076483125536e+04 -9.0278979815461934e+06 
-3.5000000000000000e+00 -5.6469437389748522e-01 +7.7343143321452175e+00 -2.5970532758144793e-01 -2.1734944921533085e+01 +3.7698969823068029e+02 -6.4007211755093202e+04 -9.1158524940376170e+06 
-3.6000000000000001e+00 -5.6469461148223377e-01 +7.7342808206914357e+00 -2.6043948042389564e-01 -2.1076085365259388e+01 +3.8089146279731369e+02 -6.7209869760271074e+04 -9.1369041576034743e+06 
-3.7000000000000002e+00 -5.6469485695423560e-01 +7.7342481429929437e+00 -2.6049481290500792e-01 -2.0444915911311096e+01 +3.7005975973805471e+02 -7.0225457058375672e+04 -9.0869822736474592e+06 
-3.7999999999999998e+00 -5.6469511171347087e-01 +7.7342165446135773e+00 -2.5980231411045679e-01 -1.9848171249961538e+01 +3.4347615583662071e+02 -7.3016382010011032e+04 -8.9620164781150110e+06 
-3.8999999999999999e+00 -5.6469537715996210e-01 +7.7341862711035878e+00 -2.5829296065291957e-01 -1.9292585661834536e+01 +3.0012198350034225e+02 -7.5545055363514926e+04 -8.7579353094635271e+06 
-4.0000000000000000e+00 -5.6469565469380922e-01 +7.7341575680044352e+00 -2.5589773075632682e-01 -1.8784893182040264e+01 +2.3897861386109983e+02 -7.7773889215876261e+04 -8.4706675233279690e+06 
-4.0999999999999996e+00 -5.6469594543195689e-01 +7.7341306499715925e+00 -2.5257240046983703e-01 -1.8330701863854426e+01 +1.5949751916281878e+02 -7.9672360218063855e+04 -8.0982832596782530e+06 
-4.2000000000000002e+00 -5.6469624934756557e-01 +7.7341056158256896e+00 -2.4837277185668885e-01 -1.7931376209319392e+01 +6.3014166479502464e+01 -8.1237080920067820e+04 -7.6473945760186743e+06 
-4.2999999999999998e+00 -5.6469656612500152e-01 +7.7340825373117745e+00 -2.4337987106562475e-01 -1.7587282524802017e+01 -4.8663701212306343e+01 -8.2471185032712950e+04 -7.1267447702682642e+06 
-4.4000000000000004e+00 -5.6469689544859514e-01 +7.7340614861768202e+00 -2.3767472597506936e-01 -1.7298787272610813e+01 -1.7372829939026647e+02 -8.3377805093671952e+04 -6.5450773616564125e+06 
-4.5000000000000000e+00 -5.6469723700271979e-01 +7.7340425341714303e+00 -2.3133836041903061e-01 -1.7066257137139157e+01 -3.1037190758762017e+02 -8.3960072027889502e+04 -5.9111356005605692e+06 
-4.5999999999999996e+00 -5.6469759047170476e-01 +7.7340257530510375e+00 -2.2445180163101666e-01 -1.6890059075814069e+01 -4.5678672923164157e+02 -8.4221114791220374e+04 -5.2336631296578543e+06 
-4.7000000000000002e+00 -5.6469795553996527e-01 +7.7340112145751085e+00 -2.1709607408310042e-01 -1.6770560291580924e+01 -6.1116500963173360e+02 -8.4164060560202415e+04 -4.5214034226038912e+06 
-4.7999999999999998e+00 -5.6469833189188234e-01 +7.7339989905041255e+00 -2.0935220487592598e-01 -1.6708128152075318e+01 -7.7169892586979870e+02 -8.3792035170181873e+04 -3.7831003279467397e+06 
-4.9000000000000004e+00 -5.6469871921183135e-01 +7.7339891526084168e+00 -2.0130121943435114e-01 -1.6703130464856994e+01 -9.3658067818509903e+02 -8.3108161469751372e+04 -3.0274976066628438e+06 
-5.0000000000000000e+00 -5.6469911718426480e-01 +7.7339817726596856e+00 -1.9302414261132689e-01 -1.6755935227345759e+01 -1.1040024573109272e+03 -8.2115560783358087e+04 -2.2633391210903199e+06 
-5.0999999999999996e+00 -5.6469952549356739e-01 +7.7339769224339099e+00 -1.8460200139407612e-01 -1.6866910732042026e+01 -1.2721564067482964e+03 -8.0817352239855580e+04 -1.4993689756870966e+06 
-5.2000000000000002e+00 -5.6469994382419464e-01 +7.7339746737197936e+00 -1.7611582376150531e-01 -1.7036425801161336e+01 -1.4392346250301243e+03 -7.9216651438500819e+04 -7.4433156055711512e+05 
-5.2999999999999998e+00 -5.6470037186061250e-01 +7.7339750983040121e+00 -1.6764663384750211e-01 -1.7264849385780376e+01 -1.6034292745509533e+03 -7.7316572707560292e+04 -6.9709857302203209e+03 
-5.4000000000000004e+00 -5.6470080928726307e-01 +7.7339782679847699e+00 -1.5927546082599767e-01 -1.7552550954959766e+01 -1.7629324022555934e+03 -7.5120226846984209e+04 +7.0396803632290126e+05 
-5.5000000000000000e+00 -5.6470125578858643e-01 +7.7339842545609612e+00 -1.5108333260028417e-01 -1.7899900189664319e+01 -1.9159360594532839e+03 -7.2630722889670535e+04 +1.3797407591010339e+06 
-5.5999999999999996e+00 -5.6470171104910938e-01 +7.7339931298479705e+00 -1.4315127506432576e-01 -1.8307267455932756e+01 -2.0606323201822611e+03 -6.9851165303846938e+04 +2.0116025048435752e+06 
-5.7000000000000002e+00 -5.6470217475327711e-01 +7.7340049656630612e+00 -1.3556031925455214e-01 -1.8775023380720928e+01 -2.1952131416785605e+03 -6.6784656469382302e+04 +2.5908079882726874e+06 
-5.7999999999999998e+00 -5.6470264658562697e-01 +7.7340198338290467e+00 -1.2839149438166395e-01 -1.9303538968441316e+01 -2.3178704910976849e+03 -6.3434295960417767e+04 +3.1086119046947542e+06 
-5.9000000000000004e+00 -5.6470312623066954e-01 +7.7340378061839790e+00 -1.2172583078008727e-01 -1.9893185901090927e+01 -2.4267963004415019e+03 -5.9803178756133559e+04 +3.5562687456073500e+06 
-5.9999999999999902e+00 -5.6470361337293484e-01 +7.7340589545664438e+00 -1.1564435924769131e-01 -2.0544336098545909e+01 -2.5201824682524830e+03 -5.5894397860159545e+04 +3.9250327754986114e+06 
-6.0999999999999899e+00 -5.6470410773730495e-01 +7.7340832945377480e+00 -1.1020550650289004e-01 -2.1256457560684147e+01 -2.5967401639810273e+03 -5.1714408493526469e+04 +4.2087062859586701e+06 
-6.1999999999999904e+00 -5.6470460921453669e-01 +7.7341105903550122e+00 -1.0537423081322790e-01 -2.2024647144007140e+01 -2.6573110913173082e+03 -4.7286802908214435e+04 +4.4115027937890589e+06 
-6.2999999999999901e+00 -5.6470511773797005e-01 +7.7341405367636193e+00 -1.0109127840689425e-01 -2.2842718888315130e+01 -2.7032851551454605e+03 -4.2640375691840069e+04 +4.5403041187104788e+06 
-6.3999999999999897e+00 -5.6470563324097367e-01 +7.7341728285083891e+00 -9.7297400098886058e-02 -2.3704486707861314e+01 -2.7360521967610712e+03 -3.7803922455130138e+04 +4.6019918419614034e+06 
-6.4999999999999902e+00 -5.6470615565673610e-01 +7.7342071603228986e+00 -9.3933350143074204e-02 -2.4603764082816753e+01 -2.7570020061782361e+03 -3.2806241663705187e+04 +4.6034473411846748e+06 
-6.5999999999999899e+00 -5.6470668491857434e-01 +7.7342432269426853e+00 -9.0939881974466091e-02 -2.5534364414383038e+01 -2.7675244110822869e+03 -2.7676132670329796e+04 +4.5515522375897150e+06 
-6.6999999999999904e+00 -5.6470722095966619e-01 +7.7342807230935691e+00 -8.8257761083568878e-02 -2.6490100709406963e+01 -2.7690090289381033e+03 -2.2442397466443377e+04 +4.4531872065342227e+06 
-6.7999999999999901e+00 -5.6470776371309794e-01 +7.7343193435016477e+00 -8.5827747991681094e-02 -2.7464785844120112e+01 -2.7628455914604592e+03 -1.7133839232426115e+04 +4.3152335239739371e+06 
-6.8999999999999897e+00 -5.6470831311199654e-01 +7.7343587828782354e+00 -8.3590613217136053e-02 -2.8452232123735946e+01 -2.7504236659622088e+03 -1.1779264902447501e+04 +4.1445717574674725e+06 
-6.9999999999999902e+00 -5.6470886908945417e-01 +7.7343987359425688e+00 -8.1487126365039353e-02 -2.9446251936392777e+01 -2.7331328555883174e+03 -6.4074813925825156e+03 +3.9480827002930073e+06 
-7.0999999999999899e+00 -5.6470943157838871e-01 +7.7344388973978244e+00 -7.9458065150579377e-02 -3.0440657054882433e+01 -2.7123626363062663e+03 -1.0472996475608882e+03 +3.7326466163880727e+06 
-7.1999999999999904e+00 -5.6471000051172116e-01 +7.7344789619426528e+00 -7.7444211438804103e-02 -3.1429258956274737e+01 -2.6895024297807468e+03 +4.2724671587385483e+03 +3.5051435830845512e+06 
-7.2999999999999901e+00 -5.6471057582237183e-01 +7.7345186242748616e+00 -7.5386348393857064e-02 -3.2405868926422237e+01 -2.6659416561393487e+03 +9.5230042241806259e+03 +3.2724537376188249e+06 
-7.3999999999999897e+00 -5.6471115744314826e-01 +7.7345575790821943e+00 -7.3225266692140745e-02 -3.3364297791183141e+01 -2.6430696223390732e+03 +1.4675493562320587e+04 +3.0414567646902208e+06 
-7.4999999999999902e+00 -5.6471174530676860e-01 +7.7345955210440245e+00 -7.0901761893421539e-02 -3.4298355948518541e+01 -2.6222755677984906e+03 +1.9701114125701293e+04 +2.8190321002415139e+06 
-7.5999999999999899e+00 -5.6471233934595477e-01 +7.7346321448398836e+00 -6.8356632604204576e-02 -3.5201853618637564e+01 -2.6049487068502390e+03 +2.4571043272661358e+04 +2.6120591547103059e+06 
-7.6999999999999904e+00 -5.6471293949331303e-01 +7.7346671451338160e+00 -6.5530682969107551e-02 -3.6068600376402571e+01 -2.5924781704021516e+03 +2.9256454013086663e+04 +2.4274170076732417e+06 
-7.7999999999999901e+00 -5.6471354568144794e-01 +7.7347002165910439e+00 -6.2364723512631559e-02 -3.6892405631500829e+01 -2.5862530060282361e+03 +3.3728517783373347e+04 +2.2719844492328786e+06 
-7.8999999999999897e+00 -5.6471415784279244e-01 +7.7347310538658256e+00 -5.8799569522646346e-02 -3.7667078276985954e+01 -2.5876621980766722e+03 +3.7958402404982102e+04 +2.1526400484239748e+06 
-7.9999999999999902e+00 -5.6471477590975394e-01 +7.7347593516013040e+00 -5.4776043082435312e-02 -3.8386426649888790e+01 -2.5980946330869938e+03 +4.1917271786581157e+04 +2.0762620017226534e+06 
-8.0999999999999908e+00 -5.6471539968340345e-01 +7.7347848523471434e+00 -5.0254790469897212e-02 -3.9044988225191801e+01 -2.6185581999610954e+03 +4.5578798195878415e+04 +2.0479764843748896e+06 
-8.1999999999999904e+00 -5.6471602843707325e-01 +7.7348075086521764e+00 -4.5278824231691162e-02 -3.9640671454307373e+01 -2.6484870387006385e+03 +4.8928719061064359e+04 +2.0657163380362156e+06 
-8.2999999999999901e+00 -5.6471666131136888e-01 +7.7348273303580779e+00 -3.9912609498504198e-02 -4.0172341886525167e+01 -2.6869072883754120e+03 +5.1956282104012964e+04 +2.1255601607764917e+06 
-8.3999999999999897e+00 -5.6471729744681365e-01 +7.7348443273211602e+00 -3.4220619977837576e-02 -4.0638865426011193e+01 -2.7328449173999679e+03 +5.4650736745420894e+04 +2.2235857474931167e+06 
-8.4999999999999893e+00 -5.6471793598398889e-01 +7.7348585094166822e+00 -2.8267329469189143e-02 -4.1039108479695464e+01 -2.7853258917971475e+03 +5.7001335071759902e+04 +2.3558709016852127e+06 
-8.5999999999999908e+00 -5.6471857606338527e-01 +7.7348698865375631e+00 -2.2117217969114245e-02 -4.1371937916172882e+01 -2.8433760507278243e+03 +5.8997331596960918e+04 +2.5184928227975667e+06 
-8.6999999999999904e+00 -5.6471921682554327e-01 +7.7348784685975760e+00 -1.5834767043540674e-02 -4.1636221145000242e+01 -2.9060211996373914e+03 +6.0627983670058558e+04 +2.7075285634534457e+06 
-8.7999999999999794e+00 -5.6471985741092612e-01 +7.7348842655292982e+00 -9.4844656532063615e-03 -4.1830826072801436e+01 -2.9722869977532719e+03 +6.1882551264401009e+04 +2.9190544893294270e+06 
-8.8999999999999808e+00 -5.6472049695997795e-01 +7.7348872872884948e+00 -3.1308029547815691e-03 -4.1954621222122128e+01 -3.0411990953041995e+03 +6.2750297642329482e+04 +3.1491469355571433e+06 
-8.9999999999999805e+00 -5.6472113461316220e-01 +7.7348875438478570e+00 +3.1617255367474071e-03 -4.2006475546185307e+01 -3.1117830119144355e+03 +6.3220488271143637e+04 +3.3938816149282064e+06 
-9.0999999999999801e+00 -5.6472176951089326e-01 +7.7348850452068358e+00 +9.3286212590320966e-03 -4.1985258715773007e+01 -3.1830642090400834e+03 +6.3282392482150550e+04 +3.6493339890642022e+06 
-9.1999999999999797e+00 -5.6472240079353020e-01 +7.7348798013813740e+00 +1.5305379919367191e-02 -4.1889840822928413e+01 -3.2540680264375837e+03 +6.2925281757644967e+04 +3.9115789342170232e+06 
-9.2999999999999794e+00 -5.6472302760148030e-01 +7.7348718224145223e+00 +2.1027495562936122e-02 -4.1719092687195719e+01 -3.3238197697112105e+03 +6.2138431500561106e+04 +4.1766911836996819e+06 
-9.3999999999999808e+00 -5.6472364907505990e-01 +7.7348611183703220e+00 +2.6430452205500839e-02 -4.1471885669368511e+01 -3.3913445435525359e+03 +6.0911119922608341e+04 +4.4407445173303206e+06 
-9.4999999999999805e+00 -5.6472426435462542e-01 +7.7348476993420654e+00 +3.1449737613827619e-02 -4.1147091921551635e+01 -3.4556675173787003e+03 +5.9232629523286043e+04 +4.6998130332100950e+06 
-9.5999999999999801e+00 -5.6472487258039739e-01 +7.7348315754377222e+00 +3.6020828339786766e-02 -4.0743583953793177e+01 -3.5158136402972832e+03 +5.7092244545484566e+04 +4.9499697909665117e+06 
-9.6999999999999797e+00 -5.6472547289273289e-01 +7.7348127567986387e+00 +4.0079198334664910e-02 -4.0260235184445996e+01 -3.5708078042812595e+03 +5.4479254186509934e+04 +5.1872875902663535e+06 
-9.7999999999999794e+00 -5.6472606443183648e-01 +7.7347912535886767e+00 +4.3560318270224573e-02 -3.9695919611669957e+01 -3.6196748273839698e+03 +5.1382950648850361e+04 +5.4078388772388445e+06 
-9.8999999999999808e+00 -5.6472664633795711e-01 +7.7347670759974578e+00 +4.6399652764988752e-02 -3.9049511923464500e+01 -3.6614394086239008e+03 +4.7792629823349787e+04 +5.6076955523552336e+06 
-9.9999999999999805e+00 -5.6472721775128343e-01 +7.7347402342442155e+00 +4.8532660358729114e-02 -3.8319887599799195e+01 -3.6951261213422335e+03 +4.3697591823781637e+04 +5.7829289215655588e+06 
-1.0100000000000000e+01 -5.6472777808010255e-01 +7.7347107991353807e+00 +4.9908673006191000e-02 -3.7507706674650358e+01 -3.7199404804138444e+03 +3.9097695094594077e+04 +5.9302440582584869e+06 
