# multipoles
# s[mm] polynom_b[n=0][T/m^n] polynom_b[n=1][T/m^n] polynom_b[n=2][T/m^n] polynom_b[n=3][T/m^n] polynom_b[n=4][T/m^n] polynom_b[n=5][T/m^n] polynom_b[n=6][T/m^n] 
-0.0000000000000000e+00 -5.6468398664073194e-01 +7.7346385280881549e+00 -2.4908135198633372e-01 -2.6020710922329069e+01 -1.5196879617470322e+03 -3.9736376457440165e+04 +3.7546192986493632e+06 
-1.0000000000000001e-01 -5.6468428299858153e-01 +7.7346543761043201e+00 -2.4342383493520142e-01 -2.6338001651833160e+01 -1.5860069853981881e+03 -3.8127820845675706e+04 +3.9500141036144434e+06 
-2.0000000000000001e-01 -5.6468459290471318e-01 +7.7346700713498429e+00 -2.3817183974803649e-01 -2.6676786940739717e+01 -1.6369782903208186e+03 -3.6416771740534597e+04 +4.0603076864003181e+06 
-2.9999999999999999e-01 -5.6468491488255335e-01 +7.7346854590734004e+00 -2.3332639505058370e-01 -2.7031724372324753e+01 -1.6733274749570405e+03 -3.4630418159931316e+04 +4.0902863236365737e+06 
-4.0000000000000002e-01 -5.6468524745564885e-01 +7.7347003845147499e+00 -2.2888852705729801e-01 -2.7397471326723227e+01 -1.6957801800568122e+03 -3.2795950115799977e+04 +4.0447364817065285e+06 
-5.0000000000000000e-01 -5.6468558914744638e-01 +7.7347146929199244e+00 -2.2485926354749006e-01 -2.7768685422994754e+01 -1.7050620159716468e+03 -3.0940556069875332e+04 +3.9284444785538628e+06 
-5.9999999999999998e-01 -5.6468593848143378e-01 +7.7347282295315098e+00 -2.2123963378806910e-01 -2.8140024225698696e+01 -1.7018985655560693e+03 -2.9091424653641221e+04 +3.7461965028906353e+06 
-6.9999999999999996e-01 -5.6468629398105985e-01 +7.7347408395921926e+00 -2.1803066483049233e-01 -2.8506145326176053e+01 -1.6870154503754013e+03 -2.7275744280949923e+04 +3.5027789167565457e+06 
-8.0000000000000004e-01 -5.6468665416979191e-01 +7.7347523683513195e+00 -2.1523338455215046e-01 -2.8861706538864176e+01 -1.6611382811094888e+03 -2.5520701981439121e+04 +3.2029780457983105e+06 
-9.0000000000000002e-01 -5.6468701757105932e-01 +7.7347626610526872e+00 -2.1284882526722129e-01 -2.9201365515990833e+01 -1.6249925824424165e+03 -2.3853485739570537e+04 +2.8515798005603258e+06 
-1.0000000000000000e+00 -5.6468738270832342e-01 +7.7347715629464266e+00 -2.1087801508633791e-01 -2.9519780090789627e+01 -1.5793039630476046e+03 -2.2301282503743820e+04 +2.4533705064850375e+06 
-1.1000000000000001e+00 -5.6468774810505407e-01 +7.7347789192838876e+00 -2.0932198746779782e-01 -2.9811608115539610e+01 -1.5247979346861709e+03 -2.0891279177745782e+04 +2.0131360424545333e+06 
-1.2000000000000000e+00 -5.6468811228460691e-01 +7.7347845753185842e+00 -2.0818177276601108e-01 -3.0071507481774507e+01 -1.4622000680206233e+03 -1.9650662523520943e+04 +1.5356625705386107e+06 
-1.3000000000000000e+00 -5.6468847377040932e-01 +7.7347883763121050e+00 -2.0745840551429329e-01 -3.0294136275593189e+01 -1.3922358637270929e+03 -1.8606618310723228e+04 +1.0257359501638040e+06 
-1.3999999999999999e+00 -5.6468883108587031e-01 +7.7347901675259187e+00 -2.0715292254079345e-01 -3.0474152523077041e+01 -1.3156307824860585e+03 -1.7786332850182331e+04 +4.8814186522540555e+05 
-1.5000000000000000e+00 -5.6468918275436997e-01 +7.7347897942229897e+00 -2.0726635696812895e-01 -3.0606214236844217e+01 -1.2331103610361133e+03 -1.7216992726716322e+04 -7.2333617643200996e+04 
-1.6000000000000001e+00 -5.6468952729925392e-01 +7.7347871016782133e+00 -2.0779974898237574e-01 -3.0684979701848771e+01 -1.1454000115524109e+03 -1.6925783188499310e+04 -6.5090499238316622e+05 
-1.7000000000000000e+00 -5.6468986324387827e-01 +7.7347819351669811e+00 -2.0875413765786963e-01 -3.0705107133103123e+01 -1.0532251717478059e+03 -1.6939890179927399e+04 -1.2427866109892733e+06 
-1.8000000000000000e+00 -5.6469018911160884e-01 +7.7347741399723242e+00 -2.1013056346842260e-01 -3.0661254862468873e+01 -9.5731126565787577e+02 -1.7286499309113504e+04 -1.8431928482784883e+06 
-1.8999999999999999e+00 -5.6469050342571792e-01 +7.7347635613801655e+00 -2.1193007135459951e-01 -3.0548081205218452e+01 -8.5838363970310570e+02 -1.7992796621736183e+04 -2.4473384201335898e+06 
-2.0000000000000000e+00 -5.6469080470953836e-01 +7.7347500446919382e+00 -2.1415370513202434e-01 -3.0360244803988586e+01 -7.5716767416130619e+02 -1.9085966670825517e+04 -3.0504378369518104e+06 
-2.1000000000000001e+00 -5.6469109196475664e-01 +7.7347335001984172e+00 -2.1679074878829882e-01 -3.0094371285872676e+01 -6.5444155227000738e+02 -2.0582658251028963e+04 -3.6478023154352852e+06 
-2.2000000000000002e+00 -5.6469136611073423e-01 +7.7347141050884991e+00 -2.1978380440203718e-01 -2.9755138751052602e+01 -5.5117845903828345e+02 -2.2456324534668813e+04 -4.2352213982304912e+06 
-2.2999999999999998e+00 -5.6469162854709165e-01 +7.7346921050180306e+00 -2.2306389909134688e-01 -2.9349284897379906e+01 -4.4839611891342486e+02 -2.4669355685350583e+04 -4.8086279690059815e+06 
-2.3999999999999999e+00 -5.6469188067352294e-01 +7.7346677456437005e+00 -2.2656205726928363e-01 -2.8883547413832495e+01 -3.4711231321709471e+02 -2.7184142016409482e+04 -5.3639546273968117e+06 
-2.5000000000000000e+00 -5.6469212388969348e-01 +7.7346412726191902e+00 -2.3020930029398046e-01 -2.8364663869141232e+01 -2.4834487857036581e+02 -2.9963074636668891e+04 -5.8971337190164188e+06 
-2.6000000000000001e+00 -5.6469235959523523e-01 +7.7346129315933263e+00 -2.3393665313890977e-01 -2.7799371657273035e+01 -1.5311158773824451e+02 -3.2968545761717105e+04 -6.4040978828164311e+06 
-2.7000000000000002e+00 -5.6469258918993603e-01 +7.7345829682143332e+00 -2.3767513540540181e-01 -2.7194408134379312e+01 -6.2430314081742203e+01 -3.6162947880617561e+04 -6.8807792868446065e+06 
-2.7999999999999998e+00 -5.6469281407342653e-01 +7.7345516281204683e+00 -2.4135576549455531e-01 -2.6556510326468807e+01 +2.2681046874058580e+01 -3.9508675509450870e+04 -7.3231099987887852e+06 
-2.8999999999999999e+00 -5.6469303564548923e-01 +7.7345191569506797e+00 -2.4490956007104381e-01 -2.5892415264970463e+01 +1.0120456601565806e+02 -4.2968123162123105e+04 -7.7270219296118738e+06 
-3.0000000000000000e+00 -5.6469325530584391e-01 +7.7344858003337622e+00 -2.4826753299346602e-01 -2.5208859660619737e+01 +1.7212225961946518e+02 -4.6503687282481616e+04 -8.0884467316363296e+06 
-3.1000000000000001e+00 -5.6469347445428186e-01 +7.7344518038943253e+00 -2.5136069277958151e-01 -2.4512580070155806e+01 +2.3441604613597687e+02 -5.0077765278145038e+04 -8.4033156087572183e+06 
-3.2000000000000002e+00 -5.6469369449060203e-01 +7.7344174132512444e+00 -2.5412005078331584e-01 -2.3810312876267218e+01 +2.8706789892808757e+02 -5.3652755576536285e+04 -8.6675600337910000e+06 
-3.2999999999999998e+00 -5.6469391681459380e-01 +7.7343828740096248e+00 -2.5647660868010513e-01 -2.3108794041086508e+01 +3.2905960803789651e+02 -5.7191059083371751e+04 -8.8771106169121694e+06 
-3.3999999999999999e+00 -5.6469414282617880e-01 +7.7343484317760138e+00 -2.5836136930328252e-01 -2.2414759545141461e+01 +3.5937298705050512e+02 -6.0655076644102737e+04 -9.0278980910608098e+06 
-3.5000000000000000e+00 -5.6469437392517230e-01 +7.7343143321407100e+00 -2.5970532807967961e-01 -2.1734944884427321e+01 +3.7698971484122234e+02 -6.4007211925208845e+04 -9.1158525745152738e+06 
-3.6000000000000001e+00 -5.6469461151153055e-01 +7.7342808206876201e+00 -2.6043948006476020e-01 -2.1076085352038014e+01 +3.8089146247583159e+02 -6.7209869798139465e+04 -9.1369041540141907e+06 
-3.7000000000000002e+00 -5.6469485698517841e-01 +7.7342481429890872e+00 -2.6049481442440220e-01 -2.0444915901969491e+01 +3.7005979606537471e+02 -7.0225457075345330e+04 -9.0869824454269502e+06 
-3.7999999999999998e+00 -5.6469511174610909e-01 +7.7342165446096933e+00 -2.5980231455529140e-01 -1.9848171237755224e+01 +3.4347617092957336e+02 -7.3016382069262618e+04 -8.9620165451624338e+06 
-3.8999999999999999e+00 -5.6469537719433915e-01 +7.7341862711000040e+00 -2.5829296195773260e-01 -1.9292585669104465e+01 +3.0012201620596721e+02 -7.5545055297674829e+04 -8.7579354621266536e+06 
-4.0000000000000000e+00 -5.6469565472996686e-01 +7.7341575679992385e+00 -2.5589773109704916e-01 -1.8784893141588825e+01 +2.3897862823921432e+02 -7.7773889453439915e+04 -8.4706675866650008e+06 
-4.0999999999999996e+00 -5.6469594546994628e-01 +7.7341306499678337e+00 -2.5257240007687753e-01 -1.8330701869999178e+01 +1.5949751702791792e+02 -7.9672360194541878e+04 -8.0982832356624864e+06 
-4.2000000000000002e+00 -5.6469624938745977e-01 +7.7341056158233386e+00 -2.4837277269869928e-01 -1.7931376263553368e+01 +6.3014189640217225e+01 -8.1237080615275190e+04 -7.6473946757032918e+06 
-4.2999999999999998e+00 -5.6469656616680275e-01 +7.7340825373088791e+00 -2.4337987265670252e-01 -1.7587282564814039e+01 -4.8663664005232654e+01 -8.2471184826419441e+04 -7.1267449342059372e+06 
-4.4000000000000004e+00 -5.6469689549237456e-01 +7.7340614861737791e+00 -2.3767472635538581e-01 -1.7298787312785986e+01 -1.7372828494424550e+02 -8.3377804895392954e+04 -6.5450774169581132e+06 
-4.5000000000000000e+00 -5.6469723704848973e-01 +7.7340425341686938e+00 -2.3133836159099042e-01 -1.7066257192144857e+01 -3.1037187932419914e+02 -8.3960071740660045e+04 -5.9111357159883231e+06 
-4.5999999999999996e+00 -5.6469759051953949e-01 +7.7340257530481793e+00 -2.2445180145984128e-01 -1.6890059131588561e+01 -4.5678672587297802e+02 -8.4221114505151505e+04 -5.2336631267690994e+06 
-4.7000000000000002e+00 -5.6469795558989588e-01 +7.7340112145711828e+00 -2.1709607562425046e-01 -1.6770560320603554e+01 -6.1116497358014999e+02 -8.4164060432259183e+04 -4.5214035739784110e+06 
-4.7999999999999998e+00 -5.6469833194395769e-01 +7.7339989904998276e+00 -2.0935220564070314e-01 -1.6708128175843740e+01 -7.7169890397451320e+02 -8.3792035068830737e+04 -3.7831004120158809e+06 
-4.9000000000000004e+00 -5.6469871926610593e-01 +7.7339891526039191e+00 -2.0130121959730510e-01 -1.6703130485312592e+01 -9.3658066755304935e+02 -8.3108161392744034e+04 -3.0274976356200115e+06 
-5.0000000000000000e+00 -5.6469911724075528e-01 +7.7339817726557216e+00 -1.9302414336593665e-01 -1.6755935268773630e+01 -1.1040024369916714e+03 -8.2115560577476193e+04 -2.2633391902400153e+06 
-5.0999999999999996e+00 -5.6469952555235337e-01 +7.7339769224293224e+00 -1.8460200354998144e-01 -1.6866910758395957e+01 -1.2721563593051792e+03 -8.0817352119104573e+04 -1.4993691737228439e+06 
-5.2000000000000002e+00 -5.6469994388532629e-01 +7.7339746737141866e+00 -1.7611582453164198e-01 -1.7036425803711140e+01 -1.4392346039008683e+03 -7.9216651445802112e+04 -7.4433163180546463e+05 
-5.2999999999999998e+00 -5.6470037192409850e-01 +7.7339750982976758e+00 -1.6764663567799140e-01 -1.7264849372042246e+01 -1.6034292326574077e+03 -7.7316572797296394e+04 -6.9711558866801752e+03 
-5.4000000000000004e+00 -5.6470080935316802e-01 +7.7339782679772879e+00 -1.5927546263477910e-01 -1.7552550911557656e+01 -1.7629323600881146e+03 -7.5120227098218631e+04 +7.0396786376123200e+05 
-5.5000000000000000e+00 -5.6470125585694919e-01 +7.7339842545537367e+00 -1.5108333301487997e-01 -1.7899900158382557e+01 -1.9159360441751842e+03 -7.2630723053042209e+04 +1.3797407170138797e+06 
-5.5999999999999996e+00 -5.6470171112000245e-01 +7.7339931298403144e+00 -1.4315127551224538e-01 -1.8307267416283040e+01 -2.0606323053896413e+03 -6.9851165499466500e+04 +2.0116024698866829e+06 
-5.7000000000000002e+00 -5.6470217482673457e-01 +7.7340049656534315e+00 -1.3556031919884512e-01 -1.8775023286391889e+01 -2.1952131352013503e+03 -6.6784656968259893e+04 +2.5908079909348260e+06 
-5.7999999999999998e+00 -5.6470264666169678e-01 +7.7340198338206356e+00 -1.2839149476014800e-01 -1.9303538916053984e+01 -2.3178704755265098e+03 -6.3434296185143146e+04 +3.1086118627061178e+06 
-5.9000000000000004e+00 -5.6470312630936192e-01 +7.7340378061711821e+00 -1.2172583041212985e-01 -1.9893185726171058e+01 -2.4267962982357567e+03 -5.9803179664152172e+04 +3.5562687663216619e+06 
-5.9999999999999902e+00 -5.6470361345432962e-01 +7.7340589545532428e+00 -1.1564435848303146e-01 -2.0544335918891434e+01 -2.5201824734558027e+03 -5.5894398759305623e+04 +3.9250328318926394e+06 
-6.0999999999999899e+00 -5.6470410782142433e-01 +7.7340832945230025e+00 -1.1020550607012142e-01 -2.1256457338512334e+01 -2.5967401635704459e+03 -5.1714409614171425e+04 +4.2087063186979033e+06 
-6.1999999999999904e+00 -5.6470460930141653e-01 +7.7341105903379281e+00 -1.0537422996662275e-01 -2.2024646860524573e+01 -2.6573110968496180e+03 -4.7286804347999365e+04 +4.4115028503404716e+06 
-6.2999999999999901e+00 -5.6470511782769017e-01 +7.7341405367468736e+00 -1.0109127755963600e-01 -2.2842718618446174e+01 -2.7032851608482783e+03 -4.2640377023575842e+04 +4.5403041778996326e+06 
-6.3999999999999897e+00 -5.6470563333356161e-01 +7.7341728284887967e+00 -9.7297399395858186e-02 -2.3704486365727995e+01 -2.7360521993831480e+03 -3.7803924157654554e+04 +4.6019918869186351e+06 
-6.4999999999999902e+00 -5.6470615575225702e-01 +7.7342071603036819e+00 -9.3933348472110642e-02 -2.4603763751874606e+01 -2.7570020265111339e+03 -3.2806243285595294e+04 +4.6034474696929352e+06 
-6.5999999999999899e+00 -5.6470668501706967e-01 +7.7342432269227848e+00 -9.0939881287237290e-02 -2.5534364071270364e+01 -2.7675244117451757e+03 -2.7676134324769871e+04 +4.5515522711689677e+06 
-6.6999999999999904e+00 -5.6470722106114968e-01 +7.7342807230722777e+00 -8.8257759573277791e-02 -2.6490100332907996e+01 -2.7690090440607573e+03 -2.2442399278488901e+04 +4.4531873067957712e+06 
-6.7999999999999901e+00 -5.6470776381764420e-01 +7.7343193434776021e+00 -8.5827746791766857e-02 -2.7464785392450594e+01 -2.7628456011845624e+03 -1.7133841451437693e+04 +4.3152336014960045e+06 
-6.8999999999999897e+00 -5.6470831321964721e-01 +7.7343587828564813e+00 -8.3590611027374306e-02 -2.8452231743832414e+01 -2.7504236926341132e+03 -1.1779266677420008e+04 +4.1445719128157655e+06 
-6.9999999999999902e+00 -5.6470886920022778e-01 +7.7343987359182647e+00 -8.1487123974446740e-02 -2.9446251489440456e+01 -2.7331328860715766e+03 -6.4074835220501191e+03 +3.9480828748917263e+06 
-7.0999999999999899e+00 -5.6470943169234156e-01 +7.7344388973702918e+00 -7.9458062810207980e-02 -3.0440656521241870e+01 -2.7123626644857941e+03 -1.0473022486012087e+03 +3.7326467781443903e+06 
-7.1999999999999904e+00 -5.6471000062891563e-01 +7.7344789619156424e+00 -7.7444208334770961e-02 -3.1429258443481856e+01 -2.6895024714981578e+03 +4.2724647048854058e+03 +3.5051438082769080e+06 
-7.2999999999999901e+00 -5.6471057594285490e-01 +7.7345186242464541e+00 -7.5386345727674858e-02 -3.2405868381697687e+01 -2.6659416888900341e+03 +9.5230016226099033e+03 +3.2724539206141178e+06 
-7.3999999999999897e+00 -5.6471115756691881e-01 +7.7345575790520611e+00 -7.3225264638627025e-02 -3.3364297201961165e+01 -2.6430696420808713e+03 +1.4675490726703674e+04 +3.0414568840161599e+06 
-7.4999999999999902e+00 -5.6471174543394909e-01 +7.7345955210154704e+00 -7.0901758990954175e-02 -3.4298355412554180e+01 -2.6222756038968587e+03 +1.9701111626559217e+04 +2.8190322999475701e+06 
-7.5999999999999899e+00 -5.6471233947654742e-01 +7.7346321448085034e+00 -6.8356629035446925e-02 -3.5201853005766061e+01 -2.6049487532194667e+03 +2.4571040350186828e+04 +2.6120593996746237e+06 
-7.6999999999999904e+00 -5.6471293962736213e-01 +7.7346671451043747e+00 -6.5530679808464137e-02 -3.6068599828062901e+01 -2.5924782090847834e+03 +2.9256451495512720e+04 +2.4274172183633507e+06 
-7.7999999999999901e+00 -5.6471354581898980e-01 +7.7347002165610856e+00 -6.2364719976031650e-02 -3.6892405078346442e+01 -2.5862530499473414e+03 +3.3728515270477903e+04 +2.2719846814047624e+06 
-7.8999999999999897e+00 -5.6471415798387226e-01 +7.7347310538337810e+00 -5.8799566964827403e-02 -3.7667077666445067e+01 -2.5876622225393048e+03 +3.7958399571338770e+04 +2.1526401884874492e+06 
-7.9999999999999902e+00 -5.6471477605447307e-01 +7.7347593515703448e+00 -5.4776039513251155e-02 -3.8386426075029036e+01 -2.5980946747128469e+03 +4.1917269172672874e+04 +2.0762622205280093e+06 
-8.0999999999999908e+00 -5.6471539983175223e-01 +7.7347848523152614e+00 -5.0254787001724970e-02 -3.9044987630122712e+01 -2.6185582384475465e+03 +4.5578795484740178e+04 +2.0479766874580365e+06 
-8.1999999999999904e+00 -5.6471602858910908e-01 +7.7348075086201096e+00 -4.5278820668659465e-02 -3.9640670861699355e+01 -2.6484870776453959e+03 +4.8928716387639521e+04 +2.0657165418264435e+06 
-8.2999999999999901e+00 -5.6471666146712352e-01 +7.7348273303267359e+00 -3.9912605537550022e-02 -4.0172341322726290e+01 -2.6869073334316308e+03 +5.1956279621857720e+04 +2.1255603929213383e+06 
-8.3999999999999897e+00 -5.6471729760633871e-01 +7.7348443272895651e+00 -3.4220615985919800e-02 -4.0638864861764205e+01 -2.7328449624388390e+03 +5.4650734281203768e+04 +2.2235859802363073e+06 
-8.4999999999999893e+00 -5.6471793614734200e-01 +7.7348585093835194e+00 -2.8267325484456915e-02 -4.1039107881940510e+01 -2.7853259349631194e+03 +5.7001332451847338e+04 +2.3558711234172639e+06 
-8.5999999999999908e+00 -5.6471857623062260e-01 +7.7348698865037475e+00 -2.2117213701990979e-02 -4.1371937302857233e+01 -2.8433760990127462e+03 +5.8997328899557018e+04 +2.5184930705786697e+06 
-8.6999999999999904e+00 -5.6471921699668048e-01 +7.7348784685630774e+00 -1.5834764339231425e-02 -4.1636220521657222e+01 -2.9060212159069929e+03 +6.0627980944637013e+04 +2.7075286547846138e+06 
-8.7999999999999794e+00 -5.6471985758600562e-01 +7.7348842654952419e+00 -9.4844626536697684e-03 -4.1830825472042697e+01 -2.9722870176326746e+03 +6.1882548702533044e+04 +2.9190545946594961e+06 
-8.8999999999999808e+00 -5.6472049713909400e-01 +7.7348872872542120e+00 -3.1307986242537001e-03 -4.1954620624186617e+01 -3.0411991380018353e+03 +6.2750295128847953e+04 +3.1491471453715423e+06 
-8.9999999999999805e+00 -5.6472113479633002e-01 +7.7348875438140166e+00 +3.1617298555978884e-03 -4.2006474971237786e+01 -3.1117830531854761e+03 +6.3220485925784677e+04 +3.3938818168693753e+06 
-9.0999999999999801e+00 -5.6472176969813648e-01 +7.7348850451703957e+00 +9.3286249397859320e-03 -4.1985258074423832e+01 -3.1830642360652864e+03 +6.3282389783045925e+04 +3.6493341195967523e+06 
-9.1999999999999797e+00 -5.6472240098491644e-01 +7.7348798013453788e+00 +1.5305384513157529e-02 -4.1889840207758461e+01 -3.2540680698056049e+03 +6.2925279252917178e+04 +3.9115791419173172e+06 
-9.2999999999999794e+00 -5.6472302779704975e-01 +7.7348718223781461e+00 +2.1027498785673195e-02 -4.1719092070241835e+01 -3.3238197841292404e+03 +6.2138429018376621e+04 +4.1766912478756090e+06 
-9.3999999999999808e+00 -5.6472364927486274e-01 +7.7348611183351430e+00 +2.6430456929278687e-02 -4.1471885098800193e+01 -3.3913445841279968e+03 +6.0911117748432785e+04 +4.4407447013210608e+06 
-9.4999999999999805e+00 -5.6472426455866831e-01 +7.7348476993047752e+00 +3.1449741294662846e-02 -4.1147091301876024e+01 -3.4556675368729634e+03 +5.9232627105625157e+04 +4.6998131157049034e+06 
-9.5999999999999801e+00 -5.6472487278877381e-01 +7.7348315753994568e+00 +3.6020832000528628e-02 -4.0743583319480273e+01 -3.5158136577894534e+03 +5.7092242090366432e+04 +4.9499698619010700e+06 
-9.6999999999999797e+00 -5.6472547310548382e-01 +7.7348127567614329e+00 +4.0079203292090713e-02 -4.0260234589245947e+01 -3.5708078421193591e+03 +5.4479251989964170e+04 +5.1872877483004006e+06 
-9.7999999999999794e+00 -5.6472606464899755e-01 +7.7347912535502372e+00 +4.3560322529585749e-02 -3.9695918994921918e+01 -3.6196748515224522e+03 +5.1382948376082888e+04 +5.4078389705808079e+06 
-9.8999999999999808e+00 -5.6472664655956140e-01 +7.7347670759594465e+00 +4.6399656497026258e-02 -3.9049511332450415e+01 -3.6614394188062711e+03 +4.7792627746494210e+04 +5.6076955704531698e+06 
-9.9999999999999805e+00 -5.6472721797739289e-01 +7.7347402342061224e+00 +4.8532664245605227e-02 -3.8319887021425146e+01 -3.6951261314369108e+03 +4.3697589870253905e+04 +5.7829289336551158e+06 
-1.0100000000000000e+01 -5.6472777831076371e-01 +7.7347107990964998e+00 +4.9908676079966248e-02 -3.7507706085438663e+01 -3.7199404727099304e+03 +3.9097693120313786e+04 +5.9302439807882458e+06 
