# multipoles
# s[mm] polynom_b[n=0][T/m^n] polynom_b[n=1][T/m^n] polynom_b[n=2][T/m^n] polynom_b[n=3][T/m^n] polynom_b[n=4][T/m^n] polynom_b[n=5][T/m^n] polynom_b[n=6][T/m^n] 
-0.0000000000000000e+00 -5.9305174188401688e-01 +8.1235609482038758e+00 -8.8777218198602825e-01 -5.7972587511850338e-01 +4.5271852602742420e+03 -2.6728645257934404e+05 -1.4611579463740749e+07 
-1.0000000000000001e-01 -5.9305158682631487e-01 +8.1235825856627741e+00 -8.8834048227394391e-01 -8.4816741241280758e-01 +4.5329362772104751e+03 -2.6674486158838606e+05 -1.4663211349677108e+07 
-2.0000000000000001e-01 -5.9305144393838038e-01 +8.1236049513926698e+00 -8.8888318136932409e-01 -1.1187125023423821e+00 +4.5444440314465428e+03 -2.6625773711730819e+05 -1.4755563191955542e+07 
-2.9999999999999999e-01 -5.9305131255829269e-01 +8.1236278378492255e+00 -8.8938786586029328e-01 -1.3896106436813718e+00 +4.5610425969854577e+03 -2.6582165564960352e+05 -1.4884308366808265e+07 
-4.0000000000000002e-01 -5.9305119202424050e-01 +8.1236510374857431e+00 -8.8984212238959837e-01 -1.6591113132294493e+00 +4.5820660518159248e+03 -2.6543319361833110e+05 -1.5045120276094943e+07 
-5.0000000000000000e-01 -5.9305108167433385e-01 +8.1236743427571518e+00 -8.9023353604612554e-01 -1.9254640727893435e+00 +4.6068484464220082e+03 -2.6508892683312035e+05 -1.5233672200062806e+07 
-5.9999999999999998e-01 -5.9305098084672059e-01 +8.1236975461142098e+00 -8.9054969486368518e-01 -2.1869184078801309e+00 +4.6347238881072808e+03 -2.6478543139496417e+05 -1.5445637692057801e+07 
-6.9999999999999996e-01 -5.9305088887949020e-01 +8.1237204400045382e+00 -8.9077818608590442e-01 -2.4417237391073936e+00 +4.6650264648049897e+03 -2.6451928370560508e+05 -1.5676690206134804e+07 
-8.0000000000000004e-01 -5.9305080511077490e-01 +8.1237428168796750e+00 -8.9090659576855979e-01 -2.6881296314510554e+00 +4.6970902455193527e+03 -2.6428705924287281e+05 -1.5922503119097115e+07 
-9.0000000000000002e-01 -5.9305072887866916e-01 +8.1237644691880355e+00 -8.9092251345667128e-01 -2.9243855746410503e+00 +4.7302493561179490e+03 -2.6408533389575320e+05 -1.6178750058387058e+07 
-1.0000000000000000e+00 -5.9305065952129599e-01 +8.1237851893783084e+00 -8.9081352491420485e-01 -3.1487410899619968e+00 +4.7638378515512295e+03 -2.6391068333417567e+05 -1.6441104323442936e+07 
-1.1000000000000001e+00 -5.9305059637682034e-01 +8.1238047698987454e+00 -8.9056721703718267e-01 -3.3594456915888569e+00 +4.7971897954790074e+03 -2.6375968328552140e+05 -1.6705239224611515e+07 
-1.2000000000000000e+00 -5.9305053878324199e-01 +8.1238230032010801e+00 -8.9017117781392374e-01 -3.5547490026933861e+00 +4.8296392698632490e+03 -2.6362890888132667e+05 -1.6966828164146751e+07 
-1.3000000000000000e+00 -5.9305048607868072e-01 +8.1238396817364933e+00 -8.8961299432383945e-01 -3.7329006289592335e+00 +4.8605203279194284e+03 -2.6351493541488441e+05 -1.7221544381478723e+07 
-1.3999999999999999e+00 -5.9305043760125686e-01 +8.1238545979538728e+00 -8.8888025175214458e-01 -3.8921501086379111e+00 +4.8891669767250669e+03 -2.6341433865337056e+05 -1.7465060881257683e+07 
-1.5000000000000000e+00 -5.9305039268901694e-01 +8.1238675443122688e+00 -8.8796053620937487e-01 -4.0307472615495570e+00 +4.9149132304903005e+03 -2.6332369285051228e+05 -1.7693050682577919e+07 
-1.6000000000000001e+00 -5.9305035068001999e-01 +8.1238783132686176e+00 -8.8684143393239112e-01 -4.1469418307572576e+00 +4.9370930915904282e+03 -2.6323957284931029e+05 -1.7901186722639754e+07 
-1.7000000000000000e+00 -5.9305031091234328e-01 +8.1238866972787278e+00 -8.8551052757164062e-01 -4.2389835109372980e+00 +4.9550404818053175e+03 -2.6315855392203620e+05 -1.8085141532638371e+07 
-1.8000000000000000e+00 -5.9305027272405464e-01 +8.1238924888076500e+00 -8.8395540220539792e-01 -4.3051222313133826e+00 +4.9680893490151184e+03 -2.6307721020188287e+05 -1.8240587726270795e+07 
-1.8999999999999999e+00 -5.9305023545316393e-01 +8.1238954803180885e+00 -8.8216364109224588e-01 -4.3436078268646492e+00 +4.9755735939062160e+03 -2.6299211657306988e+05 -1.8363197674915295e+07 
-2.0000000000000000e+00 -5.9305019843773665e-01 +8.1238954642803680e+00 -8.8012282587873558e-01 -4.3526903227478684e+00 +4.9768270674637924e+03 -2.6289984704949876e+05 -1.8448643474896777e+07 
-2.1000000000000001e+00 -5.9305016118514420e-01 +8.1238923051240590e+00 -8.7782431934602190e-01 -4.3315239898850963e+00 +4.9713309831278420e+03 -2.6279587095202925e+05 -1.8493569324674729e+07 
-2.2000000000000002e+00 -5.9305012387600808e-01 +8.1238861609370918e+00 -8.7527623872027549e-01 -4.2830406847390377e+00 +4.9591816261543709e+03 -2.6267009155184793e+05 -1.8498589494341034e+07 
-2.2999999999999998e+00 -5.9305008685805760e-01 +8.1238772646951372e+00 -8.7249129677077764e-01 -4.2111565957688342e+00 +4.9406354668593603e+03 -2.6251073882997292e+05 -1.8465331519165970e+07 
-2.3999999999999999e+00 -5.9305005047910841e-01 +8.1238658493764877e+00 -8.6948220217400585e-01 -4.1197879599791776e+00 +4.9159488972637728e+03 -2.6230604255330114e+05 -1.8395422565801416e+07 
-2.5000000000000000e+00 -5.9305001508689192e-01 +8.1238521479591022e+00 -8.6626166742015442e-01 -4.0128509772899790e+00 +4.8853783850548634e+03 -2.6204423277366033e+05 -1.8290490169253334e+07 
-2.6000000000000001e+00 -5.9304998102915840e-01 +8.1238363934184239e+00 -8.6284240208649543e-01 -3.8942617682106686e+00 +4.8491803440418917e+03 -2.6171353999782432e+05 -1.8152161616547633e+07 
-2.7000000000000002e+00 -5.9304994865379124e-01 +8.1238188187296387e+00 -8.5923711396955349e-01 -3.7679364052177244e+00 +4.8076111590781202e+03 -2.6130219510195410e+05 -1.7982064071996629e+07 
-2.7999999999999998e+00 -5.9304991830850684e-01 +8.1237996568727286e+00 -8.5545851011906193e-01 -3.6377910791558192e+00 +4.7609272042676166e+03 -2.6079842828989017e+05 -1.7781824656446729e+07 
-2.8999999999999999e+00 -5.9304989034115152e-01 +8.1237791408247535e+00 -8.5151929993340614e-01 -3.5077418816594301e+00 +4.7093849050575800e+03 -2.6019047034588497e+05 -1.7553070755300537e+07 
-3.0000000000000000e+00 -5.9304986509953794e-01 +8.1237575035558596e+00 -8.4743218638761897e-01 -3.3817046480916901e+00 +4.6532405716848580e+03 -2.5946655364293032e+05 -1.7297429222594336e+07 
-3.1000000000000001e+00 -5.9304984293148455e-01 +8.1237349780446007e+00 -8.4320987607004938e-01 -3.2635954486814169e+00 +4.5927505923043300e+03 -2.5861490915822747e+05 -1.7016527308539700e+07 
-3.2000000000000002e+00 -5.9304982418488206e-01 +8.1237117972669939e+00 -8.3886507093925333e-01 -3.1573302426926171e+00 +4.5281712764777412e+03 -2.5762376854297801e+05 -1.6711991912283123e+07 
-3.2999999999999998e+00 -5.9304980920752515e-01 +8.1236881941911552e+00 -8.3441047424751502e-01 -3.0668247224786764e+00 +4.4597589652179367e+03 -2.5648136503919176e+05 -1.6385450098397352e+07 
-3.3999999999999999e+00 -5.9304979834738980e-01 +8.1236644017901174e+00 -8.2985878667088764e-01 -2.9959946990371908e+00 +4.3877699681875638e+03 -2.5517593117727496e+05 -1.6038528827621393e+07 
-3.5000000000000000e+00 -5.9304979195226948e-01 +8.1236406530374108e+00 -8.2522270957366373e-01 -2.9487559430059105e+00 +4.3124606137273149e+03 -2.5369569978661515e+05 -1.5672855160869151e+07 
-3.6000000000000001e+00 -5.9304979037015471e-01 +8.1236171808991955e+00 -8.2051493987666935e-01 -2.9290239931729563e+00 +4.2340871645841344e+03 -2.5202890499251330e+05 -1.5290055894366795e+07 
-3.7000000000000002e+00 -5.9304979394894652e-01 +8.1235942183446550e+00 -8.1574817584769377e-01 -2.9407144212703158e+00 +4.1529059223660479e+03 -2.5016378077753293e+05 -1.4891758038634390e+07 
-3.7999999999999998e+00 -5.9304980303659915e-01 +8.1235719983406778e+00 -8.1093511382144357e-01 -2.9877426961399336e+00 +4.0691731680252492e+03 -2.4808856170685522e+05 -1.4479588546073163e+07 
-3.8999999999999999e+00 -5.9304981798109235e-01 +8.1235507538496758e+00 -8.0608844815942371e-01 -3.0740241193173263e+00 +3.9831451594907799e+03 -2.4579148330228651e+05 -1.4055174291441478e+07 
-4.0000000000000000e+00 -5.9304983913044595e-01 +8.1235307178348304e+00 -8.0122087387388652e-01 -3.2034739723275818e+00 +3.8950781878950493e+03 -2.4326078116417630e+05 -1.3620142355047833e+07 
-4.0999999999999996e+00 -5.9304986673494919e-01 +8.1235120759272039e+00 -7.9635108486064798e-01 -3.3787843856516444e+00 +3.8053580111257684e+03 -2.4049032363314828e+05 -1.3176646892702961e+07 
-4.2000000000000002e+00 -5.9304990065140650e-01 +8.1234948254524042e+00 -7.9152088128424913e-01 -3.5978194041552709e+00 +3.7148630973470204e+03 -2.3749660856541761e+05 -1.2728835587053524e+07 
-4.2999999999999998e+00 -5.9304994063743999e-01 +8.1234789168603267e+00 -7.8677762142470864e-01 -3.8572505579743086e+00 +3.6245889783241746e+03 -2.3430182019756027e+05 -1.2281326040209085e+07 
-4.4000000000000004e+00 -5.9304998645082374e-01 +8.1234643006085623e+00 -7.8216866017599929e-01 -4.1537496363920914e+00 +3.5355311250792988e+03 -2.3092814120074292e+05 -1.1838735561247056e+07 
-4.5000000000000000e+00 -5.9305003784920485e-01 +8.1234509271582258e+00 -7.7774135815729040e-01 -4.4839885884983861e+00 +3.4486851214415192e+03 -2.2739775319359926e+05 -1.1405681993477540e+07 
-4.5999999999999996e+00 -5.9305009459025348e-01 +8.1234387469734539e+00 -7.7354307750164819e-01 -4.8446395036728793e+00 +3.3650465812897701e+03 -2.2373283687763012e+05 -1.0986783311089028e+07 
-4.7000000000000002e+00 -5.9305015643168157e-01 +8.1234277105288815e+00 -7.6962118005331015e-01 -5.2323748173671580e+00 +3.2856111170846762e+03 -2.1995557087195679e+05 -1.0586657476968698e+07 
-4.7999999999999998e+00 -5.9305022313110456e-01 +8.1234177682964841e+00 -7.6602303320990583e-01 -5.6438669713443312e+00 +3.2113744497540906e+03 -2.1608813357306278e+05 -1.0209922961672897e+07 
-4.9000000000000004e+00 -5.9305029444618462e-01 +8.1234088707658945e+00 -7.6279600361418387e-01 -6.0757889580854796e+00 +3.1433322900487251e+03 -2.1215270012292752e+05 -9.8611981798855476e+06 
-5.0000000000000000e+00 -5.9305037013455852e-01 +8.1234009684187427e+00 -7.5998746211981449e-01 -6.5248136225782227e+00 +3.0824804324524985e+03 -2.0817144633676202e+05 -9.5451019382821042e+06 
-5.0999999999999996e+00 -5.9305044995387490e-01 +8.1233940117544634e+00 -7.5764478242605449e-01 -6.9876143890077769e+00 +3.0298147244874149e+03 -2.0416654455157387e+05 -9.2662532725407742e+06 
-5.2000000000000002e+00 -5.9305053366174232e-01 +8.1233879512750349e+00 -7.5581533798788758e-01 -7.4608648356180556e+00 +2.9863310179426499e+03 -2.0016016603799045e+05 -9.0292712429406792e+06 
-5.2999999999999998e+00 -5.9305062101573591e-01 +8.1233827374858834e+00 -7.5454651091879810e-01 -7.9412387098748853e+00 +2.9530253306770715e+03 -1.9617448096013971e+05 -8.8387756842908766e+06 
-5.4000000000000004e+00 -5.9305071177348812e-01 +8.1233783209037966e+00 -7.5388568112220000e-01 -8.4254101820745468e+00 +2.9308936394334796e+03 -1.9223165682690765e+05 -8.6993862146573476e+06 
-5.5000000000000000e+00 -5.9305080569252955e-01 +8.1233746520522896e+00 -7.5388023162765627e-01 -8.9100536949432581e+00 +2.9209319856435541e+03 -1.8835385942488167e+05 -8.6157227529656254e+06 
-5.5999999999999996e+00 -5.9305090253050008e-01 +8.1233716814628814e+00 -7.5457755201568000e-01 -9.3918440105475547e+00 +2.9241365403235900e+03 -1.8456325250768589e+05 -8.5924058242029231e+06 
-5.7000000000000002e+00 -5.9305100204485206e-01 +8.1233693596709511e+00 -7.5602503403328636e-01 -9.8674561116023654e+00 +2.9415035150001145e+03 -1.8088199832451623e+05 -8.6340561206311751e+06 
-5.7999999999999998e+00 -5.9305110399317762e-01 +8.1233676372242556e+00 -7.5827007249200540e-01 -1.0333565422452187e+01 +2.9740291870728538e+03 -1.7733225640449184e+05 -8.7452946434567031e+06 
-5.9000000000000004e+00 -5.9305120813293655e-01 +8.1233664646764314e+00 -7.6136006523376132e-01 -1.0786847642970571e+01 +3.0227098930860525e+03 -1.7393618446676433e+05 -8.9307426536003426e+06 
-5.9999999999999902e+00 -5.9305131422169810e-01 +8.1233657925935763e+00 -7.6534241634814504e-01 -1.1223978944031810e+01 +3.0885420886002571e+03 -1.7071593728977302e+05 -9.1950219525985736e+06 
-6.0999999999999899e+00 -5.9305142215041551e-01 +8.1233655692691507e+00 -7.7024306960826117e-01 -1.1642123929799400e+01 +3.1721323366150136e+03 -1.6768979040356446e+05 -9.5410309658630900e+06 
-6.1999999999999904e+00 -5.9305153235245367e-01 +8.1233657208408427e+00 -7.7600081540734656e-01 -1.2040154805796194e+01 +3.2725229130810985e+03 -1.6486134125692921e+05 -9.9648128784229215e+06 
-6.2999999999999901e+00 -5.9305164539890798e-01 +8.1233661646687665e+00 -7.8253227626141186e-01 -1.2417313630258374e+01 +3.3883628761013351e+03 -1.6223069393804128e+05 -1.0460702862364147e+07 
-6.3999999999999897e+00 -5.9305176186087749e-01 +8.1233668181010916e+00 -7.8975406933718639e-01 -1.2772842159024327e+01 +3.5183011745688314e+03 -1.5979795407059151e+05 -1.1023035555423353e+07 
-6.4999999999999902e+00 -5.9305188230936356e-01 +8.1233675984715124e+00 -7.9758281631245787e-01 -1.3105981736686083e+01 +3.6609868395312519e+03 -1.5756322955916473e+05 -1.1646145981032198e+07 
-6.5999999999999899e+00 -5.9305200731548158e-01 +8.1233684230934564e+00 -8.0593513812246653e-01 -1.3415973167250995e+01 +3.8150688805225864e+03 -1.5552663121478673e+05 -1.2324369046103682e+07 
-6.6999999999999904e+00 -5.9305213745022978e-01 +8.1233692092687946e+00 -8.1472765885028775e-01 -1.3702056922123353e+01 +3.9791963623246047e+03 -1.5368827168968113e+05 -1.3052039913369412e+07 
-6.7999999999999901e+00 -5.9305227328463317e-01 +8.1233698742833180e+00 -8.2387700154278931e-01 -1.3963473051214864e+01 +4.1520183206816801e+03 -1.5204826584884856e+05 -1.3823493588480784e+07 
-6.8999999999999897e+00 -5.9305241538971010e-01 +8.1233703354035605e+00 -8.3329978943796346e-01 -1.4199461054132826e+01 +4.3321837904677877e+03 -1.5060673163289731e+05 -1.4633065067857211e+07 
-6.9999999999999902e+00 -5.9305256433648623e-01 +8.1233705098736682e+00 -8.4291264740526395e-01 -1.4409259819424433e+01 +4.5183418289440851e+03 -1.4936379031501905e+05 -1.5475089437386511e+07 
-7.0999999999999899e+00 -5.9305272069590387e-01 +8.1233703149314405e+00 -8.5263220218103131e-01 -1.4592108068750102e+01 +4.7091415210620771e+03 -1.4831956397893809e+05 -1.6343901902409840e+07 
-7.1999999999999904e+00 -5.9305288503895237e-01 +8.1233696677799561e+00 -8.6237507740323949e-01 -1.4747243551351847e+01 +4.9032318862147740e+03 -1.4747418014513998e+05 -1.7233837345824234e+07 
-7.2999999999999901e+00 -5.9305305793658758e-01 +8.1233684856138062e+00 -8.7205790327732680e-01 -1.4873903792842333e+01 +5.0992620588114314e+03 -1.4682776744824031e+05 -1.8139231179930784e+07 
-7.3999999999999897e+00 -5.9305323995970771e-01 +8.1233666856031341e+00 -8.8159730492094590e-01 -1.4971325624576432e+01 +5.2958810691250364e+03 -1.4638045839269483e+05 -1.9054418310449414e+07 
-7.4999999999999902e+00 -5.9305343167930802e-01 +8.1233641848921394e+00 -8.9090991240916528e-01 -1.5038745167230561e+01 +5.4917380315946166e+03 -1.4613238936770984e+05 -1.9973734026642475e+07 
-7.5999999999999899e+00 -5.9305363366621822e-01 +8.1233609006112353e+00 -8.9991235332446096e-01 -1.5075398162831867e+01 +5.6854820052562072e+03 -1.4608369876980095e+05 -2.0891513341335971e+07 
-7.6999999999999904e+00 -5.9305384649133885e-01 +8.1233567498632961e+00 -9.0852125944884710e-01 -1.5080519578885639e+01 +5.8757621180314909e+03 -1.4623452929049096e+05 -2.1802091577006005e+07 
-7.7999999999999901e+00 -5.9305407072557914e-01 +8.1233516497288107e+00 -9.1665326019222126e-01 -1.5053343757938558e+01 +6.0612274436450507e+03 -1.4658502705201128e+05 -2.2699803784817804e+07 
-7.8999999999999897e+00 -5.9305430693974104e-01 +8.1233455172608249e+00 -9.2422498954689691e-01 -1.4993104281302749e+01 +6.2405271323043808e+03 -1.4713534234752247e+05 -2.3578985361393426e+07 
-7.9999999999999902e+00 -5.9305455570471588e-01 +8.1233382694971024e+00 -9.3115307634225430e-01 -1.4899034307832476e+01 +6.4123102272006399e+03 -1.4788562771689415e+05 -2.4433971182154290e+07 
-8.0999999999999908e+00 -5.9305481731108778e-01 +8.1233298533582836e+00 -9.3737098382527251e-01 -1.4770737091733608e+01 +6.5754315662137788e+03 -1.4883453106487571e+05 -2.5259822166267198e+07 
-8.1999999999999904e+00 -5.9305509093169473e-01 +8.1233203306998263e+00 -9.4288069317199119e-01 -1.4609014472071982e+01 +6.7295790567338781e+03 -1.4997643251756969e+05 -2.6054532260421939e+07 
-8.2999999999999901e+00 -5.9305537546022047e-01 +8.1233097909668608e+00 -9.4770164249084976e-01 -1.4414893860100081e+01 +6.8746513220714169e+03 -1.5130510031344753e+05 -2.6816834512080122e+07 
-8.3999999999999897e+00 -5.9305566979040236e-01 +8.1232983236151419e+00 -9.5185326798251990e-01 -1.4189402761874934e+01 +7.0105469445015160e+03 -1.5281430259760746e+05 -2.7545461762849730e+07 
-8.4999999999999893e+00 -5.9305597281601219e-01 +8.1232860181109174e+00 -9.5535500642300619e-01 -1.3933568794181316e+01 +7.1371645154962926e+03 -1.5449780733360763e+05 -2.8239146893120341e+07 
-8.5999999999999908e+00 -5.9305628343079497e-01 +8.1232729639281764e+00 -9.5822629182993468e-01 -1.3648419589775234e+01 +7.2544025714111694e+03 -1.5634938289922310e+05 -2.8896622511009492e+07 
-8.6999999999999904e+00 -5.9305660052854026e-01 +8.1232592505522234e+00 -9.6048655774304703e-01 -1.3334982903744047e+01 +7.3621596372692029e+03 -1.5836279745469388e+05 -2.9516621162921779e+07 
-8.7999999999999794e+00 -5.9305692300304480e-01 +8.1232449674844691e+00 -9.6215523787259771e-01 -1.2994286733094203e+01 +7.4603342383255958e+03 -1.6053181830590760e+05 -3.0097875388027400e+07 
-8.8999999999999808e+00 -5.9305724974817464e-01 +8.1232302042319358e+00 -9.6325176236126064e-01 -1.2627359021741551e+01 +7.5488248300715231e+03 -1.6285021358311584e+05 -3.0639117386418078e+07 
-8.9999999999999805e+00 -5.9305757965776174e-01 +8.1232150503147835e+00 -9.6379555968059150e-01 -1.2235227857688836e+01 +7.6275298330971436e+03 -1.6531175115333512e+05 -3.1139079181921721e+07 
-9.0999999999999801e+00 -5.9305791162566024e-01 +8.1231995952684954e+00 -9.6380606055587548e-01 -1.1818921538050560e+01 +7.6963477080683806e+03 -1.6791019825588859e+05 -3.1596492979976490e+07 
-9.1999999999999797e+00 -5.9305824454577005e-01 +8.1231839286385217e+00 -9.6330269147218928e-01 -1.1379468411928018e+01 +7.7551768334246908e+03 -1.7063932238982187e+05 -3.2010090589990567e+07 
-9.2999999999999794e+00 -5.9305857731204503e-01 +8.1231681399853297e+00 -9.6230487721774771e-01 -1.0917897004123818e+01 +7.8039155503174543e+03 -1.7349289067640499e+05 -3.2378603628085047e+07 
-9.3999999999999808e+00 -5.9305890881840473e-01 +8.1231523188827293e+00 -9.6083204163837677e-01 -1.0435235973876399e+01 +7.8424621850634639e+03 -1.7646467007303357e+05 -3.2700763647173103e+07 
-9.4999999999999805e+00 -5.9305923795879889e-01 +8.1231365549183536e+00 -9.5890360900213778e-01 -9.9325141319121002e+00 +7.8707150613267022e+03 -1.7954842725914196e+05 -3.2975302158025291e+07 
-9.5999999999999801e+00 -5.9305956362723411e-01 +8.1231209376942584e+00 -9.5653899875176174e-01 -9.4107604192485628e+00 +7.8885724125598917e+03 -1.8273792887608503e+05 -3.3200950243563097e+07 
-9.6999999999999797e+00 -5.9305988471776283e-01 +8.1231055568302537e+00 -9.5375762975079736e-01 -8.8710040270424511e+00 +7.8959324582314621e+03 -1.8602694075261281e+05 -3.3376438912584685e+07 
-9.7999999999999794e+00 -5.9306020012440386e-01 +8.1230905019580746e+00 -9.5057891977466547e-01 -8.3142742107051841e+00 +7.8926933962756748e+03 -1.8940922903887081e+05 -3.3500499065968931e+07 
-9.8999999999999808e+00 -5.9306050874122096e-01 +8.1230758627246740e+00 -9.4702228515990228e-01 -7.7416003774378694e+00 +7.8787533871382511e+03 -1.9287855971538703e+05 -3.3571861400426589e+07 
-9.9999999999999805e+00 -5.9306080946235540e-01 +8.1230617287982341e+00 -9.4310713932482793e-01 -7.1540122911002682e+00 +7.8540105360242405e+03 -1.9642869753347785e+05 -3.3589256361584187e+07 
-1.0100000000000000e+01 -5.9306110157603775e-01 +8.1230482021804580e+00 -9.3885228610383531e-01 -6.5535004221657509e+00 +7.8184546155813196e+03 -2.0004852386343750e+05 -3.3551965574033920e+07 
