# multipoles
# s[mm] polynom_b[n=0][T/m^n] polynom_b[n=1][T/m^n] polynom_b[n=2][T/m^n] polynom_b[n=3][T/m^n] polynom_b[n=4][T/m^n] polynom_b[n=5][T/m^n] polynom_b[n=6][T/m^n] 
+0.0000000000000000e+00 -5.9225124742352908e-01 +8.1180203285078338e+00 +1.1153641243091394e-01 -6.6905024804505317e+01 +2.3875237078677660e+03 +2.0400624876407263e+05 -3.1654899438340370e+07 
-1.0000000000000001e-01 -5.9225142926579699e-01 +8.1179810696121475e+00 +1.0797857861012623e-01 -6.5933111374657074e+01 +2.4518994471474002e+03 +1.9973135246951284e+05 -3.1947095445895486e+07 
-2.0000000000000001e-01 -5.9225160750558259e-01 +8.1179375013746746e+00 +1.0397075899098121e-01 -6.4852691339673754e+01 +2.5221814156588798e+03 +1.9486616829549169e+05 -3.2259274704124644e+07 
-3.0000000000000004e-01 -5.9225178341077023e-01 +8.1178900643809104e+00 +9.9602439666825610e-02 -6.3675979346300991e+01 +2.5970066843577815e+03 +1.8947456385582930e+05 -3.2586019806406200e+07 
-4.0000000000000002e-01 -5.9225195824925858e-01 +8.1178391992221819e+00 +9.4963108518874087e-02 -6.2415190191064262e+01 +2.6750122896037419e+03 +1.8362040754891693e+05 -3.2921913174873993e+07 
-5.0000000000000000e-01 -5.9225213328889126e-01 +8.1177853464866665e+00 +9.0142247548483836e-02 -6.1082538591037874e+01 +2.7548353717958762e+03 +1.7736756732430903e+05 -3.3261537702570207e+07 
-5.9999999999999998e-01 -5.9225230979752808e-01 +8.1177289467675546e+00 +8.5229340279956864e-02 -5.9690239388746683e+01 +2.8351130459390401e+03 +1.7077991178542108e+05 -3.3599476168447748e+07 
-6.9999999999999996e-01 -5.9225248904302918e-01 +8.1176704406545230e+00 +8.0313871072860157e-02 -5.8250507321607472e+01 +2.9144824088536943e+03 +1.6392130891151569e+05 -3.3930311258346908e+07 
-7.9999999999999993e-01 -5.9225267229322653e-01 +8.1176102687375007e+00 +7.5485320469587683e-02 -5.6775557136613571e+01 +2.9915806333884279e+03 +1.5685562674421514e+05 -3.4248626027327828e+07 
-8.9999999999999991e-01 -5.9225286081598727e-01 +8.1175488716056563e+00 +7.0833173256444865e-02 -5.5277603556309735e+01 +3.0650448156956318e+03 +1.4964673317993613e+05 -3.4549003177986391e+07 
-9.9999999999999989e-01 -5.9225305587915167e-01 +8.1174866898385147e+00 +6.6446911492135399e-02 -5.3768861024275324e+01 +3.1335121028053800e+03 +1.4235849452263155e+05 -3.4826025652747303e+07 
-1.0999999999999999e+00 -5.9225325875058754e-01 +8.1174241640213900e+00 +6.2416019987262955e-02 -5.2261544141899925e+01 +3.1956196012715409e+03 +1.3505477797471560e+05 -3.5074276237297423e+07 
-1.2000000000000000e+00 -5.9225347069816725e-01 +8.1173617347296219e+00 +5.8829984284402712e-02 -5.0767867237295349e+01 +3.2500044059016536e+03 +1.2779944923680525e+05 -3.5288337669723190e+07 
-1.3000000000000000e+00 -5.9225369298977582e-01 +8.1172998425340097e+00 +5.5778291155860950e-02 -4.9300044507714539e+01 +3.2953035983784066e+03 +1.2065637328787285e+05 -3.5462792658744372e+07 
-1.4000000000000001e+00 -5.9225392689331746e-01 +8.1172389280004023e+00 +5.3350429945965942e-02 -4.7870290001731099e+01 +3.3301542166321774e+03 +1.1368941427232209e+05 -3.5592223723598391e+07 
-1.5000000000000002e+00 -5.9225417367672395e-01 +8.1171794316887471e+00 +5.1635892621638847e-02 -4.6490817621042382e+01 +3.3531932643243736e+03 +1.0696243560256789e+05 -3.5671213270074964e+07 
-1.6000000000000003e+00 -5.9225443460793981e-01 +8.1171217941501066e+00 +5.0724172630181190e-02 -4.5173841006478916e+01 +3.3630577248982177e+03 +1.0053929923436063e+05 -3.5694343635864824e+07 
-1.7000000000000004e+00 -5.9225471095494620e-01 +8.1170664559280841e+00 +5.0704767562121347e-02 -4.3931573588273281e+01 +3.3583845162620705e+03 +9.4483865979295369e+04 -3.5656196891274251e+07 
-1.8000000000000005e+00 -5.9225500398577624e-01 +8.1170138575587423e+00 +5.1667181085146327e-02 -4.2776228596517925e+01 +3.3378104558789478e+03 +8.8859995613305975e+04 -3.5551354680034488e+07 
-1.9000000000000006e+00 -5.9225531496843875e-01 +8.1169644395624356e+00 +5.3700913258166047e-02 -4.1720018810133105e+01 +3.2999724433435945e+03 +8.3731545396529255e+04 -3.5374399082711421e+07 
-2.0000000000000004e+00 -5.9225564517104756e-01 +8.1169186424576285e+00 +5.6895476736834254e-02 -4.0775156976814309e+01 +3.2435071563918978e+03 +7.9162372561146956e+04 -3.5119911183826521e+07 
-2.1000000000000005e+00 -5.9225599539850005e-01 +8.1168768241739944e+00 +6.1302290199016826e-02 -3.9951013882306675e+01 +3.1676454904208299e+03 +7.5201287333723230e+04 -3.4784856655501321e+07 
-2.2000000000000006e+00 -5.9225636459711739e-01 +8.1168390145380869e+00 +6.6820706880093159e-02 -3.9245594448872723e+01 +3.0739729224438724e+03 +7.1836580693010081e+04 -3.4375615130912699e+07 
-2.3000000000000007e+00 -5.9225675124712029e-01 +8.1168051618798156e+00 +7.3312133512436553e-02 -3.8654061148592248e+01 +2.9646581342922318e+03 +6.9041324341825573e+04 -3.3900889035445482e+07 
-2.4000000000000008e+00 -5.9225715382871114e-01 +8.1167752145365810e+00 +8.0637973535285290e-02 -3.8171576680018639e+01 +2.8418698761245801e+03 +6.6788591254218030e+04 -3.3369381133765012e+07 
-2.5000000000000009e+00 -5.9225757082214736e-01 +8.1167491208497093e+00 +8.8659636394223598e-02 -3.7793303845378915e+01 +2.7077767880445085e+03 +6.5051454903680955e+04 -3.2789793674567658e+07 
-2.6000000000000010e+00 -5.9225800070767631e-01 +8.1167268291696590e+00 +9.7238529487820718e-02 -3.7514405721991629e+01 +2.5645475486536770e+03 +6.3802990302467508e+04 -3.2170829082695555e+07 
-2.7000000000000011e+00 -5.9225844196553334e-01 +8.1167082878599786e+00 +1.0623605758703424e-01 -3.7330045765486048e+01 +2.4143508926530790e+03 +6.3016274551776180e+04 -3.1521190063730292e+07 
-2.8000000000000012e+00 -5.9225889307601620e-01 +8.1166934452934587e+00 +1.1551363183391374e-01 -3.7235387692209315e+01 +2.2593554348149196e+03 +6.2664386135468827e+04 -3.0849578746600706e+07 
-2.9000000000000012e+00 -5.9225935251937933e-01 +8.1166822498553746e+00 +1.2493265709952739e-01 -3.7225595589220475e+01 +2.1017299117842508e+03 +6.2720405592945986e+04 -3.0164697843600627e+07 
-3.0000000000000013e+00 -5.9225981877591261e-01 +8.1166746499445406e+00 +1.3435454133644267e-01 -3.7295833933938198e+01 +1.9436430012004387e+03 +6.3157415587014024e+04 -2.9475249775068905e+07 
-3.1000000000000014e+00 -5.9226029032590755e-01 +8.1166705939752770e+00 +1.4364069152103623e-01 -3.7441267644498303e+01 +1.7872633994777289e+03 +6.3948501171378222e+04 -2.8789937042903956e+07 
-3.2000000000000015e+00 -5.9226076564967234e-01 +8.1166700303761665e+00 +1.5265251514098577e-01 -3.7657062059784906e+01 +1.6347597959472653e+03 +6.5066749705996372e+04 -2.8117462113934577e+07 
-3.3000000000000016e+00 -5.9226124322750417e-01 +8.1166729075993800e+00 +1.6125141706398918e-01 -3.7938383193507718e+01 +1.4883009281018453e+03 +6.6485252273065154e+04 -2.7466527668642517e+07 
-3.4000000000000017e+00 -5.9226172153971035e-01 +8.1166791741080431e+00 +1.6929880183032717e-01 -3.8280397380354145e+01 +1.3500555394934440e+03 +6.8177101651265679e+04 -2.6845836405301735e+07 
-3.5000000000000018e+00 -5.9226219906663990e-01 +8.1166887783889301e+00 +1.7665607756163518e-01 -3.8678271632547563e+01 +1.2221923040978832e+03 +7.0115394342606975e+04 -2.6264090674237765e+07 
-3.6000000000000019e+00 -5.9226267428857371e-01 +8.1167016689474512e+00 +1.8318464268998935e-01 -3.9127173504912086e+01 +1.1068800767017983e+03 +7.2273229794789309e+04 -2.5729993665134043e+07 
-3.7000000000000020e+00 -5.9226314568587346e-01 +8.1167177943157718e+00 +1.8874590332502272e-01 -3.9622271320978605e+01 +1.0062875692625046e+03 +7.4623711694569371e+04 -2.5252247882361259e+07 
-3.8000000000000020e+00 -5.9226361173884789e-01 +8.1167371030485587e+00 +1.9320125810780284e-01 -4.0158734051470049e+01 +9.2258362628371322e+02 +7.7139947246679905e+04 -2.4839556421228051e+07 
-3.9000000000000021e+00 -5.9226407092784339e-01 +8.1167595437186062e+00 +1.9641210796245046e-01 -4.0731731189512317e+01 +8.5793704993240681e+02 +7.9795046438703954e+04 -2.4500622162866775e+07 
-4.0000000000000018e+00 -5.9226452173318789e-01 +8.1167850649327402e+00 +1.9823984982207635e-01 -4.1336433219205738e+01 +8.1451671408287029e+02 +8.2562124763642176e+04 -2.4244148304468676e+07 
-4.1000000000000014e+00 -5.9226496291695474e-01 +8.1168135649041666e+00 +1.9858214175860589e-01 -4.1967933074362193e+01 +7.9390882035446236e+02 +8.5415186444754392e+04 -2.4076509278010029e+07 
-4.2000000000000011e+00 -5.9226539436961823e-01 +8.1168447311287562e+00 +1.9748329639192053e-01 -4.2620984625313731e+01 +7.9536243459321861e+02 +8.8332506347153205e+04 -2.3994770193507608e+07 
-4.3000000000000007e+00 -5.9226581626431640e-01 +8.1168781961580549e+00 +1.9502473677128357e-01 -4.3290253066674403e+01 +8.1754009206683429e+02 +9.1293621720837065e+04 -2.3993668524442684e+07 
-4.4000000000000004e+00 -5.9226622877412705e-01 +8.1169135925371698e+00 +1.9128788116759335e-01 -4.3970403390585076e+01 +8.5910440059123277e+02 +9.4278068707717961e+04 -2.4067942049142338e+07 
-4.5000000000000000e+00 -5.9226663207211738e-01 +8.1169505528033827e+00 +1.8635414760068286e-01 -4.4656100321094371e+01 +9.1871796492821397e+02 +9.7265381904697031e+04 -2.4212328517389838e+07 
-4.5999999999999996e+00 -5.9226702633134254e-01 +8.1169887094887496e+00 +1.8030495564103019e-01 -4.5342008383870819e+01 +9.9504333616706617e+02 +1.0023509475815989e+05 -2.4421565364958823e+07 
-4.6999999999999993e+00 -5.9226741172476305e-01 +8.1170276951214682e+00 +1.7322171512446069e-01 -4.6022791966804199e+01 +1.0867432358540709e+03 +1.0316674000328845e+05 -2.4690390809167620e+07 
-4.7999999999999989e+00 -5.9226778842535721e-01 +8.1170671422100291e+00 +1.6518584052638274e-01 -4.6693114816866675e+01 +1.1924802806447508e+03 +1.0603984660615904e+05 -2.5013542532315943e+07 
-4.8999999999999986e+00 -5.9226815660603216e-01 +8.1171066832647512e+00 +1.5627874083144086e-01 -4.7347640699604106e+01 +1.3109171663811451e+03 +1.0883394372661834e+05 -2.5385758535029855e+07 
-4.9999999999999982e+00 -5.9226851643965872e-01 +8.1171459507819801e+00 +1.4658182222775590e-01 -4.7981032930773537e+01 +1.4407166275371542e+03 +1.1152855796520243e+05 -2.5801776971538678e+07 
-5.0999999999999979e+00 -5.9226886809907109e-01 +8.1171845772424938e+00 +1.3617649077121405e-01 -4.8587954318676886e+01 +1.5805413737109384e+03 +1.1410321301950311e+05 -2.6256335818162035e+07 
-5.1999999999999975e+00 -5.9226921175704939e-01 +8.1172221951224550e+00 +1.2514414790546061e-01 -4.9163067481230016e+01 +1.7290541847315208e+03 +1.1653743152378185e+05 -2.6744173347559974e+07 
-5.2999999999999972e+00 -5.9226954758633077e-01 +8.1172584368819809e+00 +1.1356619336624661e-01 -4.9701034522663363e+01 +1.8849178460585415e+03 +1.1881073321444741e+05 -2.7260027798883501e+07 
-5.3999999999999968e+00 -5.9226987575958501e-01 +8.1172929349661267e+00 +1.0152402245741550e-01 -5.0196517043430369e+01 +2.0467952014255254e+03 +1.2090263494357985e+05 -2.7798637632656459e+07 
-5.4999999999999964e+00 -5.9227019644945667e-01 +8.1173253218099166e+00 +8.9099030487872904e-02 -5.0644176303862814e+01 +2.2133490727375156e+03 +1.2279265169284986e+05 -2.8354741160111040e+07 
-5.5999999999999961e+00 -5.9227050982849716e-01 +8.1173552298280285e+00 +7.6372605236462221e-02 -5.1038672911189479e+01 +2.3832423954144565e+03 +1.2446029472428421e+05 -2.8923077166384868e+07 
-5.6999999999999957e+00 -5.9227081606923249e-01 +8.1173822914244607e+00 +6.3426135393315375e-02 -5.1374667088720507e+01 +2.5551380603872176e+03 +1.2588507312448953e+05 -2.9498384167171609e+07 
-5.7999999999999954e+00 -5.9227111534412380e-01 +8.1174061389858654e+00 +5.0341005399884002e-02 -5.1646818511355256e+01 +2.7276990122430038e+03 +1.2704649294562012e+05 -3.0075400874378931e+07 
-5.8999999999999950e+00 -5.9227140782553500e-01 +8.1174264048772127e+00 +3.7198592208326872e-02 -5.1849786134945496e+01 +2.8995883065475573e+03 +1.2792405609929576e+05 -3.0648866460660890e+07 
-5.9999999999999947e+00 -5.9227169368582844e-01 +8.1174427214500717e+00 +2.4080277315721998e-02 -5.1978228467806794e+01 +3.0694688803500380e+03 +1.2849726200605546e+05 -3.1213519465926129e+07 
-6.0999999999999943e+00 -5.9227197325816550e-01 +8.1174548334830483e+00 +1.1060754774769668e-02 -5.2028823795853427e+01 +3.2361323320852730e+03 +1.2875392009505090e+05 -3.1764626518121950e+07 
-6.1999999999999940e+00 -5.9227224752438834e-01 +8.1174629481513598e+00 -1.8159223607435489e-03 -5.2006406935965728e+01 +3.3989524839683622e+03 +1.2871497031849899e+05 -3.2299830258307569e+07 
-6.2999999999999936e+00 -5.9227251762958433e-01 +8.1174673915782556e+00 -1.4514404673286125e-02 -5.1917871498416119e+01 +3.5574665369429140e+03 +1.2840959313342717e+05 -3.2817436427932762e+07 
-6.3999999999999932e+00 -5.9227278471895506e-01 +8.1174684898700402e+00 -2.6999330378286654e-02 -5.1770110581219008e+01 +3.7112114792678030e+03 +1.2786696603298755e+05 -3.3315749810776789e+07 
-6.4999999999999929e+00 -5.9227304993769736e-01 +8.1174665691270658e+00 -3.9235339920833286e-02 -5.1570017139145669e+01 +3.8597243637639544e+03 +1.2711626581946216e+05 -3.3793075553757399e+07 
-6.5999999999999925e+00 -5.9227331443105768e-01 +8.1174619554414100e+00 -5.1187069433718667e-02 -5.1324483882549039e+01 +4.0025421865040735e+03 +1.2618666792929362e+05 -3.4247718597228087e+07 
-6.6999999999999922e+00 -5.9227357934433300e-01 +8.1174549748836888e+00 -6.2819150451464245e-02 -5.1040402923020501e+01 +4.1392018780554681e+03 +1.2510734446417903e+05 -3.4677983622866131e+07 
-6.7999999999999918e+00 -5.9227384582285136e-01 +8.1174459535191801e+00 -7.4096213319451112e-02 -5.0724666231300574e+01 +4.2692403788638012e+03 +1.2390746680285194e+05 -3.5082175442333676e+07 
-6.8999999999999915e+00 -5.9227411501201344e-01 +8.1174352173996773e+00 -8.4982881295768434e-02 -5.0384165397636842e+01 +4.3921945196369161e+03 +1.2261620422026739e+05 -3.5458598406287797e+07 
-6.9999999999999911e+00 -5.9227438805723798e-01 +8.1174230925593047e+00 -9.5443777531487084e-02 -5.0025791523598016e+01 +4.5076011576856090e+03 +1.2126272328449516e+05 -3.5805557063355267e+07 
-7.0999999999999908e+00 -5.9227466610401969e-01 +8.1174099050280546e+00 -1.0544351798359210e-01 -4.9656435607803807e+01 +4.6149970429529349e+03 +1.1987619008550783e+05 -3.6121355524415754e+07 
-7.1999999999999904e+00 -5.9227495029791200e-01 +8.1173959808124092e+00 -1.1494671412043933e-01 -4.9282987979761799e+01 +4.7139188739103474e+03 +1.1848576693407939e+05 -3.6404297739995837e+07 
-7.2999999999999901e+00 -5.9227524178448998e-01 +8.1173816459092389e+00 -1.2391797697904222e-01 -4.8912338719655317e+01 +4.8039033709125924e+03 +1.1712061484124266e+05 -3.6652687839306675e+07 
-7.3999999999999897e+00 -5.9227554170941665e-01 +8.1173672263022052e+00 -1.3232190968114044e-01 -4.8551377544587652e+01 +4.8844871407117380e+03 +1.1580989283900335e+05 -3.6864829503287174e+07 
-7.4999999999999893e+00 -5.9227585121842607e-01 +8.1173530479578719e+00 -1.4012310929111066e-01 -4.8206993697650731e+01 +4.9552067088058348e+03 +1.1458275734944791e+05 -3.7039026109855413e+07 
-7.5999999999999890e+00 -5.9227617145727107e-01 +8.1173394368243859e+00 -1.4728617288466722e-01 -4.7886075914829348e+01 +5.0155986338840621e+03 +1.1346836198440725e+05 -3.7173581276551202e+07 
-7.6999999999999886e+00 -5.9227650357181405e-01 +8.1173267188419000e+00 -1.5377568747790837e-01 -4.7595512730546446e+01 +5.0651993246712182e+03 +1.1249585935326797e+05 -3.7266798010436945e+07 
-7.7999999999999883e+00 -5.9227684870795438e-01 +8.1173152199284573e+00 -1.5955623841414737e-01 -4.7342192055735758e+01 +5.1035451955849758e+03 +1.1169439856258381e+05 -3.7316979438421905e+07 
-7.8999999999999879e+00 -5.9227720801167616e-01 +8.1173052659869107e+00 -1.6459240341099321e-01 -4.7133001395164243e+01 +5.1301725544320252e+03 +1.1109312653823309e+05 -3.7322428276202537e+07 
-7.9999999999999876e+00 -5.9227758262901053e-01 +8.1172971829039895e+00 -1.6884875826497722e-01 -4.6974827825575709e+01 +5.1446177163184884e+03 +1.1072118809034135e+05 -3.7281447364496619e+07 
-8.0999999999999872e+00 -5.9227797340947153e-01 +8.1172912364728784e+00 -1.7230694782221523e-01 -4.6872965710471654e+01 +5.1467001193598608e+03 +1.1060061256418216e+05 -3.7193479220822871e+07 
-8.1999999999999869e+00 -5.9227838000989286e-01 +8.1172874518399816e+00 -1.7501455049233558e-01 -4.6826391777765743e+01 +5.1373040801050192e+03 +1.1072437766925254e+05 -3.7062225465930104e+07 
-8.2999999999999865e+00 -5.9227880178704007e-01 +8.1172857936381764e+00 -1.7703507876168714e-01 -4.6832508485059492e+01 +5.1175641867016511e+03 +1.1107803477145905e+05 -3.6892379774385110e+07 
-8.3999999999999861e+00 -5.9227923809766880e-01 +8.1172862265075079e+00 -1.7843204697565881e-01 -4.6888718601555389e+01 +5.0886150550701432e+03 +1.1164713711305411e+05 -3.6688635915483370e+07 
-8.4999999999999858e+00 -5.9227968829851929e-01 +8.1172887151095914e+00 -1.7926897341434422e-01 -4.6992425623326547e+01 +5.0515913786610909e+03 +1.1241724222123748e+05 -3.6455688019958474e+07 
-8.5999999999999854e+00 -5.9228015174633475e-01 +8.1172932241184625e+00 -1.7960937682693473e-01 -4.7141033517629737e+01 +5.0076278502133600e+03 +1.1337391044108394e+05 -3.6198230170383044e+07 
-8.6999999999999851e+00 -5.9228062779785462e-01 +8.1172997182236521e+00 -1.7951677811190758e-01 -4.7331946816376764e+01 +4.9578592028050562e+03 +1.1450270548059570e+05 -3.5920956624873959e+07 
-8.7999999999999847e+00 -5.9228111580982723e-01 +8.1173081621364034e+00 -1.7905469794639189e-01 -4.7562570789544111e+01 +4.9034201576351143e+03 +1.1578919539695360e+05 -3.5628561545662008e+07 
-8.8999999999999844e+00 -5.9228161513896116e-01 +8.1173185205764291e+00 -1.7828666357560330e-01 -4.7830311082228938e+01 +4.8454455586184140e+03 +1.1721895053356545e+05 -3.5325739657058045e+07 
-8.9999999999999840e+00 -5.9228212514200862e-01 +8.1173307582912049e+00 -1.7727619839971692e-01 -4.8132574251569586e+01 +4.7850701695933731e+03 +1.1877754656582358e+05 -3.5017185261943705e+07 
-9.0999999999999837e+00 -5.9228264517566653e-01 +8.1173448400412092e+00 -1.7608683374706666e-01 -4.8466767367989846e+01 +4.7234289010421608e+03 +1.2045056226953521e+05 -3.4707593335049950e+07 
-9.1999999999999833e+00 -5.9228317459665814e-01 +8.1173607306057800e+00 -1.7478209943147047e-01 -4.8830298180407148e+01 +4.6616566278179007e+03 +1.2222358045051081e+05 -3.4401658640469760e+07 
-9.2999999999999829e+00 -5.9228371276168090e-01 +8.1173783947864457e+00 -1.7342552995492772e-01 -4.9220575201708812e+01 +4.6008883088615476e+03 +1.2408218840242528e+05 -3.4104076311132923e+07 
-9.3999999999999826e+00 -5.9228425902744064e-01 +8.1173977974079303e+00 -1.7208066032147915e-01 -4.9635007758288111e+01 +4.5422589082994382e+03 +1.2601197824719016e+05 -3.3819541472435974e+07 
-9.4999999999999822e+00 -5.9228481275064027e-01 +8.1174189033054773e+00 -1.7081102684728816e-01 -5.0071005622866785e+01 +4.4869034027315920e+03 +1.2799854479121955e+05 -3.3552749254659660e+07 
-9.5999999999999819e+00 -5.9228537328793074e-01 +8.1174416773485714e+00 -1.6968017492420528e-01 -5.0525979696280245e+01 +4.4359569432603994e+03 +1.3002748947106350e+05 -3.3308395603214059e+07 
-9.6999999999999815e+00 -5.9228593999602031e-01 +8.1174660844187052e+00 -1.6875164348281152e-01 -5.0997341377661598e+01 +4.3905545434524556e+03 +1.3208441670994574e+05 -3.3091175747339696e+07 
-9.7999999999999812e+00 -5.9228651223156648e-01 +8.1174920894263245e+00 -1.6808897996223979e-01 -5.1482503057983756e+01 +4.3518313762032194e+03 +1.3415493680459692e+05 -3.2905785645921424e+07 
-9.8999999999999808e+00 -5.9228708935123320e-01 +8.1175196573028359e+00 -1.6775573249097275e-01 -5.1978877866533395e+01 +4.3209226193389804e+03 +1.3622466436430052e+05 -3.2756921237854213e+07 
-9.9999999999999805e+00 -5.9228767071165145e-01 +8.1175487530032608e+00 -1.6781545448750970e-01 -5.2483879808977079e+01 +4.2989635368692234e+03 +1.3827921899576744e+05 -3.2649278834347155e+07 
-1.0099999999999980e+01 -5.9228825575964661e-01 +8.1175793115947883e+00 -1.6831221543811220e-01 -5.2994968749894753e+01 +4.2867104357586686e+03 +1.4030525199243485e+05 -3.2585897451023925e+07 
