# trajectory
# s[mm] rx[mm] ry[mm] rz[mm] px[rad] py[rad] pz[rad]
0.0000000000000000e+00 +7.9199999999999999e+00 +0.0000000000000000e+00 +0.0000000000000000e+00 +0.0000000000000000e+00 +0.0000000000000000e+00 +1.0000000000000000e+00
-1.0000000000000001e-01 +7.9199997170158669e+00 +0.0000000000000000e+00 -9.9999999999466141e-02 +5.6596824215552732e-06 +0.0000000000000000e+00 +9.9999999998398403e-01
-2.0000000000000001e-01 +7.9199988680635576e+00 +0.0000000000000000e+00 -1.9999999999572907e-01 +1.1319363562374158e-05 +0.0000000000000000e+00 +9.9999999993593602e-01
-3.0000000000000004e-01 +7.9199974531431900e+00 +0.0000000000000000e+00 -2.9999999998558557e-01 +1.6979043613943777e-05 +0.0000000000000000e+00 +9.9999999985585608e-01
-4.0000000000000002e-01 +7.9199954722548647e+00 +0.0000000000000000e+00 -3.9999999996583252e-01 +2.2638722750144715e-05 +0.0000000000000000e+00 +9.9999999974374421e-01
-5.0000000000000000e-01 +7.9199929253986650e+00 +0.0000000000000000e+00 -4.9999999993326666e-01 +2.8298401127250887e-05 +0.0000000000000000e+00 +9.9999999959960029e-01
-5.9999999999999998e-01 +7.9199898125746602e+00 +0.0000000000000000e+00 -5.9999999988468478e-01 +3.3958078883929380e-05 +0.0000000000000000e+00 +9.9999999942342443e-01
-6.9999999999999996e-01 +7.9199861337829054e+00 +0.0000000000000000e+00 -6.9999999981688377e-01 +3.9617756141240289e-05 +0.0000000000000000e+00 +9.9999999921521665e-01
-7.9999999999999993e-01 +7.9199818890234450e+00 +0.0000000000000000e+00 -7.9999999972666036e-01 +4.5277433002636588e-05 +0.0000000000000000e+00 +9.9999999897497693e-01
-8.9999999999999991e-01 +7.9199770782963146e+00 +0.0000000000000000e+00 -8.9999999961081145e-01 +5.0937109553963934e-05 +0.0000000000000000e+00 +9.9999999870270528e-01
-9.9999999999999989e-01 +7.9199717016015416e+00 +0.0000000000000000e+00 -9.9999999946613372e-01 +5.6596785863460500e-05 +0.0000000000000000e+00 +9.9999999839840181e-01
-1.0999999999999999e+00 +7.9199657589391483e+00 +0.0000000000000000e+00 -1.0999999992894240e+00 +6.2256461981756813e-05 +0.0000000000000000e+00 +9.9999999806206641e-01
-1.2000000000000000e+00 +7.9199592503091507e+00 +0.0000000000000000e+00 -1.1999999990774792e+00 +6.7916137941875578e-05 +0.0000000000000000e+00 +9.9999999769369907e-01
-1.3000000000000000e+00 +7.9199521757115647e+00 +0.0000000000000000e+00 -1.2999999988270960e+00 +7.3575813759231453e-05 +0.0000000000000000e+00 +9.9999999729329980e-01
-1.4000000000000001e+00 +7.9199445351464037e+00 +0.0000000000000000e+00 -1.3999999985350713e+00 +7.9235489431630894e-05 +0.0000000000000000e+00 +9.9999999686086860e-01
-1.5000000000000002e+00 +7.9199363286136837e+00 +0.0000000000000000e+00 -1.4999999981982020e+00 +8.4895164939271950e-05 +0.0000000000000000e+00 +9.9999999639640547e-01
-1.6000000000000003e+00 +7.9199275561134224e+00 +0.0000000000000000e+00 -1.5999999978132846e+00 +9.0554840244744050e-05 +0.0000000000000000e+00 +9.9999999589991040e-01
-1.7000000000000004e+00 +7.9199182176456429e+00 +0.0000000000000000e+00 -1.6999999973771163e+00 +9.6214515293027781e-05 +0.0000000000000000e+00 +9.9999999537138351e-01
-1.8000000000000005e+00 +7.9199083132103745e+00 +0.0000000000000000e+00 -1.7999999968864937e+00 +1.0187419001149472e-04 +0.0000000000000000e+00 +9.9999999481082469e-01
-1.9000000000000006e+00 +7.9198978428076545e+00 +0.0000000000000000e+00 -1.8999999963382135e+00 +1.0753386430990716e-04 +0.0000000000000000e+00 +9.9999999421823405e-01
-2.0000000000000004e+00 +7.9198868064375301e+00 +0.0000000000000000e+00 -1.9999999957290726e+00 +1.1319353808041794e-04 +0.0000000000000000e+00 +9.9999999359361147e-01
-2.1000000000000005e+00 +7.9198752041000597e+00 +0.0000000000000000e+00 -2.0999999950558679e+00 +1.1885321119852728e-04 +0.0000000000000000e+00 +9.9999999293695707e-01
-2.2000000000000006e+00 +7.9198630357953164e+00 +0.0000000000000000e+00 -2.1999999943153963e+00 +1.2451288353361120e-04 +0.0000000000000000e+00 +9.9999999224827085e-01
-2.3000000000000007e+00 +7.9198503015233834e+00 +0.0000000000000000e+00 -2.2999999935044544e+00 +1.3017255495944999e-04 +0.0000000000000000e+00 +9.9999999152755292e-01
-2.4000000000000008e+00 +7.9198370012843586e+00 +0.0000000000000000e+00 -2.3999999926198390e+00 +1.3583222535518556e-04 +0.0000000000000000e+00 +9.9999999077480317e-01
-2.5000000000000009e+00 +7.9198231350783503e+00 +0.0000000000000000e+00 -2.4999999916583473e+00 +1.4149189460532164e-04 +0.0000000000000000e+00 +9.9999998999002182e-01
-2.6000000000000010e+00 +7.9198087029054793e+00 +0.0000000000000000e+00 -2.5999999906167757e+00 +1.4715156259972404e-04 +0.0000000000000000e+00 +9.9999998917320876e-01
-2.7000000000000011e+00 +7.9197937047658762e+00 +0.0000000000000000e+00 -2.6999999894919213e+00 +1.5281122923362092e-04 +0.0000000000000000e+00 +9.9999998832436410e-01
-2.8000000000000012e+00 +7.9197781406596812e+00 +0.0000000000000000e+00 -2.7999999882805811e+00 +1.5847089440760320e-04 +0.0000000000000000e+00 +9.9999998744348784e-01
-2.9000000000000012e+00 +7.9197620105870463e+00 +0.0000000000000000e+00 -2.8999999869795512e+00 +1.6413055802762483e-04 +0.0000000000000000e+00 +9.9999998653057998e-01
-3.0000000000000013e+00 +7.9197453145481305e+00 +0.0000000000000000e+00 -2.9999999855856290e+00 +1.6979022000500330e-04 +0.0000000000000000e+00 +9.9999998558564063e-01
-3.1000000000000014e+00 +7.9197280525431024e+00 +0.0000000000000000e+00 -3.0999999840956116e+00 +1.7544988025642002e-04 +0.0000000000000000e+00 +9.9999998460866979e-01
-3.2000000000000015e+00 +7.9197102245721389e+00 +0.0000000000000000e+00 -3.1999999825062955e+00 +1.8110953870392084e-04 +0.0000000000000000e+00 +9.9999998359966746e-01
-3.3000000000000016e+00 +7.9196918306354238e+00 +0.0000000000000000e+00 -3.2999999808144773e+00 +1.8676919527491661e-04 +0.0000000000000000e+00 +9.9999998255863376e-01
-3.4000000000000017e+00 +7.9196728707331481e+00 +0.0000000000000000e+00 -3.3999999790169544e+00 +1.9242884990218367e-04 +0.0000000000000000e+00 +9.9999998148556879e-01
-3.5000000000000018e+00 +7.9196533448655098e+00 +0.0000000000000000e+00 -3.4999999771105235e+00 +1.9808850252386455e-04 +0.0000000000000000e+00 +9.9999998038047244e-01
-3.6000000000000019e+00 +7.9196332530327123e+00 +0.0000000000000000e+00 -3.5999999750919813e+00 +2.0374815308346858e-04 +0.0000000000000000e+00 +9.9999997924334494e-01
-3.7000000000000020e+00 +7.9196125952349634e+00 +0.0000000000000000e+00 -3.6999999729581248e+00 +2.0940780152987255e-04 +0.0000000000000000e+00 +9.9999997807418617e-01
-3.8000000000000020e+00 +7.9195913714724782e+00 +0.0000000000000000e+00 -3.7999999707057510e+00 +2.1506744781732149e-04 +0.0000000000000000e+00 +9.9999997687299624e-01
-3.9000000000000021e+00 +7.9195695817454732e+00 +0.0000000000000000e+00 -3.8999999683316564e+00 +2.2072709190542941e-04 +0.0000000000000000e+00 +9.9999997563977527e-01
-4.0000000000000018e+00 +7.9195472260541715e+00 +0.0000000000000000e+00 -3.9999999658326382e+00 +2.2638673375918010e-04 +0.0000000000000000e+00 +9.9999997437452315e-01
-4.1000000000000014e+00 +7.9195243043987968e+00 +0.0000000000000000e+00 -4.0999999632054935e+00 +2.3204637334923363e-04 +0.0000000000000000e+00 +9.9999997307723998e-01
-4.2000000000000011e+00 +7.9195008167795775e+00 +0.0000000000000000e+00 -4.1999999604470188e+00 +2.3770601065528917e-04 +0.0000000000000000e+00 +9.9999997174792588e-01
-4.3000000000000007e+00 +7.9194767631967418e+00 +0.0000000000000000e+00 -4.2999999575540109e+00 +2.4336564566944732e-04 +0.0000000000000000e+00 +9.9999997038658084e-01
-4.4000000000000004e+00 +7.9194521436505196e+00 +0.0000000000000000e+00 -4.3999999545232669e+00 +2.4902527839651596e-04 +0.0000000000000000e+00 +9.9999996899320487e-01
-4.5000000000000000e+00 +7.9194269581411385e+00 +0.0000000000000000e+00 -4.4999999513515840e+00 +2.5468490885401015e-04 +0.0000000000000000e+00 +9.9999996756779808e-01
-4.5999999999999996e+00 +7.9194012066688240e+00 +0.0000000000000000e+00 -4.5999999480357587e+00 +2.6034453707215246e-04 +0.0000000000000000e+00 +9.9999996611036046e-01
-4.6999999999999993e+00 +7.9193748892337972e+00 +0.0000000000000000e+00 -4.6999999445725882e+00 +2.6600416309387274e-04 +0.0000000000000000e+00 +9.9999996462089202e-01
-4.7999999999999989e+00 +7.9193480058362757e+00 +0.0000000000000000e+00 -4.7999999409588696e+00 +2.7166378697480851e-04 +0.0000000000000000e+00 +9.9999996309939276e-01
-4.8999999999999986e+00 +7.9193205564764710e+00 +0.0000000000000000e+00 -4.8999999371913994e+00 +2.7732340878330468e-04 +0.0000000000000000e+00 +9.9999996154586279e-01
-4.9999999999999982e+00 +7.9192925411545856e+00 +0.0000000000000000e+00 -4.9999999332669747e+00 +2.8298302860041376e-04 +0.0000000000000000e+00 +9.9999995996030200e-01
-5.0999999999999979e+00 +7.9192639598708139e+00 +0.0000000000000000e+00 -5.0999999291823919e+00 +2.8864264651989587e-04 +0.0000000000000000e+00 +9.9999995834271049e-01
-5.1999999999999975e+00 +7.9192348126253407e+00 +0.0000000000000000e+00 -5.1999999249344491e+00 +2.9430226264821874e-04 +0.0000000000000000e+00 +9.9999995669308817e-01
-5.2999999999999972e+00 +7.9192050994183401e+00 +0.0000000000000000e+00 -5.2999999205199417e+00 +2.9996187710455767e-04 +0.0000000000000000e+00 +9.9999995501143513e-01
-5.3999999999999968e+00 +7.9191748202499719e+00 +0.0000000000000000e+00 -5.3999999159356680e+00 +3.0562149002079554e-04 +0.0000000000000000e+00 +9.9999995329775138e-01
-5.4999999999999964e+00 +7.9191439751203827e+00 +0.0000000000000000e+00 -5.4999999111784241e+00 +3.1128110154152281e-04 +0.0000000000000000e+00 +9.9999995155203680e-01
-5.5999999999999961e+00 +7.9191125640297049e+00 +0.0000000000000000e+00 -5.5999999062450074e+00 +3.1694071182403747e-04 +0.0000000000000000e+00 +9.9999994977429141e-01
-5.6999999999999957e+00 +7.9190805869780538e+00 +0.0000000000000000e+00 -5.6999999011322151e+00 +3.2260032103834509e-04 +0.0000000000000000e+00 +9.9999994796451519e-01
-5.7999999999999954e+00 +7.9190480439655273e+00 +0.0000000000000000e+00 -5.7999998958368435e+00 +3.2825992936715860e-04 +0.0000000000000000e+00 +9.9999994612270804e-01
-5.8999999999999950e+00 +7.9190149349922034e+00 +0.0000000000000000e+00 -5.8999998903556889e+00 +3.3391953700589837e-04 +0.0000000000000000e+00 +9.9999994424886995e-01
-5.9999999999999947e+00 +7.9189812600581417e+00 +0.0000000000000000e+00 -5.9999998846855496e+00 +3.3957914416269205e-04 +0.0000000000000000e+00 +9.9999994234300082e-01
-6.0999999999999943e+00 +7.9189470191633795e+00 +0.0000000000000000e+00 -6.0999998788232217e+00 +3.4523875105764066e-04 +0.0000000000000000e+00 +9.9999994040510065e-01
-6.1999999999999940e+00 +7.9189122123079319e+00 +0.0000000000000000e+00 -6.1999998727655026e+00 +3.5089835791474568e-04 +0.0000000000000000e+00 +9.9999993843516932e-01
-6.2999999999999936e+00 +7.9188768394917908e+00 +0.0000000000000000e+00 -6.2999998665091885e+00 +3.5655796495383582e-04 +0.0000000000000000e+00 +9.9999993643320684e-01
-6.3999999999999932e+00 +7.9188409007149279e+00 +0.0000000000000000e+00 -6.3999998600510768e+00 +3.6221757238983265e-04 +0.0000000000000000e+00 +9.9999993439921298e-01
-6.4999999999999929e+00 +7.9188043959772925e+00 +0.0000000000000000e+00 -6.4999998533879637e+00 +3.6787718043274981e-04 +0.0000000000000000e+00 +9.9999993233318774e-01
-6.5999999999999925e+00 +7.9187673252788144e+00 +0.0000000000000000e+00 -6.5999998465166465e+00 +3.7353678928769265e-04 +0.0000000000000000e+00 +9.9999993023513101e-01
-6.6999999999999922e+00 +7.9187296886194014e+00 +0.0000000000000000e+00 -6.6999998394339224e+00 +3.7919639915485727e-04 +0.0000000000000000e+00 +9.9999992810504279e-01
-6.7999999999999918e+00 +7.9186914859989432e+00 +0.0000000000000000e+00 -6.7999998321365878e+00 +3.8485601022953010e-04 +0.0000000000000000e+00 +9.9999992594292286e-01
-6.8999999999999915e+00 +7.9186527174173094e+00 +0.0000000000000000e+00 -6.8999998246214398e+00 +3.9051562270208697e-04 +0.0000000000000000e+00 +9.9999992374877122e-01
-6.9999999999999911e+00 +7.9186133828743506e+00 +0.0000000000000000e+00 -6.9999998168852748e+00 +3.9617523675799246e-04 +0.0000000000000000e+00 +9.9999992152258776e-01
-7.0999999999999908e+00 +7.9185734823698990e+00 +0.0000000000000000e+00 -7.0999998089248901e+00 +4.0183485257779916e-04 +0.0000000000000000e+00 +9.9999991926437237e-01
-7.1999999999999904e+00 +7.9185330159037699e+00 +0.0000000000000000e+00 -7.1999998007370820e+00 +4.0749447033714678e-04 +0.0000000000000000e+00 +9.9999991697412483e-01
-7.2999999999999901e+00 +7.9184919834757608e+00 +0.0000000000000000e+00 -7.2999997923186477e+00 +4.1315409020676138e-04 +0.0000000000000000e+00 +9.9999991465184523e-01
-7.3999999999999897e+00 +7.9184503850856522e+00 +0.0000000000000000e+00 -7.3999997836663836e+00 +4.1881371235245445e-04 +0.0000000000000000e+00 +9.9999991229753338e-01
-7.4999999999999893e+00 +7.9184082207332089e+00 +0.0000000000000000e+00 -7.4999997747770868e+00 +4.2447333693512203e-04 +0.0000000000000000e+00 +9.9999990991118914e-01
-7.5999999999999890e+00 +7.9183654904181786e+00 +0.0000000000000000e+00 -7.5999997656475538e+00 +4.3013296411074383e-04 +0.0000000000000000e+00 +9.9999990749281242e-01
-7.6999999999999886e+00 +7.9183221941402948e+00 +0.0000000000000000e+00 -7.6999997562745817e+00 +4.3579259403038229e-04 +0.0000000000000000e+00 +9.9999990504240310e-01
-7.7999999999999883e+00 +7.9182783318992760e+00 +0.0000000000000000e+00 -7.7999997466549669e+00 +4.4145222684018157e-04 +0.0000000000000000e+00 +9.9999990255996107e-01
-7.8999999999999879e+00 +7.9182339036948255e+00 +0.0000000000000000e+00 -7.8999997367855066e+00 +4.4711186268136648e-04 +0.0000000000000000e+00 +9.9999990004548622e-01
-7.9999999999999876e+00 +7.9181889095266342e+00 +0.0000000000000000e+00 -7.9999997266629972e+00 +4.5277150169024163e-04 +0.0000000000000000e+00 +9.9999989749897844e-01
-8.0999999999999872e+00 +7.9181433493943780e+00 +0.0000000000000000e+00 -8.0999997162842341e+00 +4.5843114399767829e-04 +0.0000000000000000e+00 +9.9999989492043762e-01
-8.1999999999999869e+00 +7.9180972232977211e+00 +0.0000000000000000e+00 -8.1999997056460163e+00 +4.6409078972348334e-04 +0.0000000000000000e+00 +9.9999989230986364e-01
-8.2999999999999865e+00 +7.9180505312363163e+00 +0.0000000000000000e+00 -8.2999996947451393e+00 +4.6975043897076854e-04 +0.0000000000000000e+00 +9.9999988966725639e-01
-8.3999999999999861e+00 +7.9180032732098065e+00 +0.0000000000000000e+00 -8.3999996835784003e+00 +4.7541009182543886e-04 +0.0000000000000000e+00 +9.9999988699261588e-01
-8.4999999999999858e+00 +7.9179554492178283e+00 +0.0000000000000000e+00 -8.4999996721425948e+00 +4.8106974835619275e-04 +0.0000000000000000e+00 +9.9999988428594189e-01
-8.5999999999999854e+00 +7.9179070592600107e+00 +0.0000000000000000e+00 -8.5999996604345199e+00 +4.8672940861452219e-04 +0.0000000000000000e+00 +9.9999988154723440e-01
-8.6999999999999851e+00 +7.9178581033359796e+00 +0.0000000000000000e+00 -8.6999996484509730e+00 +4.9238907263471300e-04 +0.0000000000000000e+00 +9.9999987877649321e-01
-8.7999999999999847e+00 +7.9178085814453576e+00 +0.0000000000000000e+00 -8.7999996361887511e+00 +4.9804874043384495e-04 +0.0000000000000000e+00 +9.9999987597371842e-01
-8.8999999999999844e+00 +7.9177584935877672e+00 +0.0000000000000000e+00 -8.8999996236446499e+00 +5.0370841201179226e-04 +0.0000000000000000e+00 +9.9999987313890981e-01
-8.9999999999999840e+00 +7.9177078397628300e+00 +0.0000000000000000e+00 -8.9999996108154665e+00 +5.0936808735122354e-04 +0.0000000000000000e+00 +9.9999987027206738e-01
-9.0999999999999837e+00 +7.9176566199701721e+00 +0.0000000000000000e+00 -9.0999995976979964e+00 +5.1502776641760217e-04 +0.0000000000000000e+00 +9.9999986737319113e-01
-9.1999999999999833e+00 +7.9176048342094241e+00 +0.0000000000000000e+00 -9.1999995842890367e+00 +5.2068744915918644e-04 +0.0000000000000000e+00 +9.9999986444228095e-01
-9.2999999999999829e+00 +7.9175524824802208e+00 +0.0000000000000000e+00 -9.2999995705853848e+00 +5.2634713550703011e-04 +0.0000000000000000e+00 +9.9999986147933684e-01
-9.3999999999999826e+00 +7.9174995647822053e+00 +0.0000000000000000e+00 -9.3999995565838361e+00 +5.3200682537498246e-04 +0.0000000000000000e+00 +9.9999985848435879e-01
-9.4999999999999822e+00 +7.9174460811150311e+00 +0.0000000000000000e+00 -9.4999995422811878e+00 +5.3766651865968856e-04 +0.0000000000000000e+00 +9.9999985545734682e-01
-9.5999999999999819e+00 +7.9173920314783635e+00 +0.0000000000000000e+00 -9.5999995276742371e+00 +5.4332621524058979e-04 +0.0000000000000000e+00 +9.9999985239830091e-01
-9.6999999999999815e+00 +7.9173374158718781e+00 +0.0000000000000000e+00 -9.6999995127597796e+00 +5.4898591497992385e-04 +0.0000000000000000e+00 +9.9999984930722108e-01
-9.7999999999999812e+00 +7.9172822342952669e+00 +0.0000000000000000e+00 -9.7999994975346123e+00 +5.5464561772272539e-04 +0.0000000000000000e+00 +9.9999984618410742e-01
-9.8999999999999808e+00 +7.9172264867482385e+00 +0.0000000000000000e+00 -9.8999994819955326e+00 +5.6030532329682625e-04 +0.0000000000000000e+00 +9.9999984302895994e-01
-9.9999999999999805e+00 +7.9171701732305193e+00 +0.0000000000000000e+00 -9.9999994661393359e+00 +5.6596503151285578e-04 +0.0000000000000000e+00 +9.9999983984177865e-01
-1.0099999999999980e+01 +7.9171132937418545e+00 +0.0000000000000000e+00 -1.0099999449962819e+01 +5.7162474216574560e-04 +0.0000000000000000e+00 +9.9999983662256364e-01
-1.0199999999999980e+01 +7.9170558482820113e+00 +0.0000000000000000e+00 -1.0199999433462780e+01 +5.7728445505128025e-04 +0.0000000000000000e+00 +9.9999983337131504e-01
-1.0299999999999979e+01 +7.9169978368507756e+00 +0.0000000000000000e+00 -1.0299999416636014e+01 +5.8294416998264792e-04 +0.0000000000000000e+00 +9.9999983008803284e-01
-1.0399999999999979e+01 +7.9169392594479522e+00 +0.0000000000000000e+00 -1.0399999399479318e+01 +5.8860388679194493e-04 +0.0000000000000000e+00 +9.9999982677271715e-01
-1.0499999999999979e+01 +7.9168801160733597e+00 +0.0000000000000000e+00 -1.0499999381989490e+01 +5.9426360533017632e-04 +0.0000000000000000e+00 +9.9999982342536797e-01
-1.0599999999999978e+01 +7.9168204067268331e+00 +0.0000000000000000e+00 -1.0599999364163324e+01 +5.9992332546725605e-04 +0.0000000000000000e+00 +9.9999982004598542e-01
-1.0699999999999978e+01 +7.9167601314082168e+00 +0.0000000000000000e+00 -1.0699999345997618e+01 +6.0558304709200730e-04 +0.0000000000000000e+00 +9.9999981663456960e-01
-1.0799999999999978e+01 +7.9166992901173678e+00 +0.0000000000000000e+00 -1.0799999327489170e+01 +6.1124277011216286e-04 +0.0000000000000000e+00 +9.9999981319112041e-01
-1.0899999999999977e+01 +7.9166378828541504e+00 +0.0000000000000000e+00 -1.0899999308634774e+01 +6.1690249445436537e-04 +0.0000000000000000e+00 +9.9999980971563796e-01
-1.0999999999999977e+01 +7.9165759096184347e+00 +0.0000000000000000e+00 -1.0999999289431228e+01 +6.2256222006416774e-04 +0.0000000000000000e+00 +9.9999980620812223e-01
-1.1099999999999977e+01 +7.9165133704100965e+00 +0.0000000000000000e+00 -1.1099999269875330e+01 +6.2822194690603317e-04 +0.0000000000000000e+00 +9.9999980266857313e-01
-1.1199999999999976e+01 +7.9164502652290132e+00 +0.0000000000000000e+00 -1.1199999249963875e+01 +6.3388167496333607e-04 +0.0000000000000000e+00 +9.9999979909699077e-01
-1.1299999999999976e+01 +7.9163865940750631e+00 +0.0000000000000000e+00 -1.1299999229693661e+01 +6.3954140423836184e-04 +0.0000000000000000e+00 +9.9999979549337514e-01
-1.1399999999999975e+01 +7.9163223569481236e+00 +0.0000000000000000e+00 -1.1399999209061484e+01 +6.4520113475230760e-04 +0.0000000000000000e+00 +9.9999979185772614e-01
-1.1499999999999975e+01 +7.9162575538480695e+00 +0.0000000000000000e+00 -1.1499999188064139e+01 +6.5086086654528243e-04 +0.0000000000000000e+00 +9.9999978819004376e-01
-1.1599999999999975e+01 +7.9161921847747703e+00 +0.0000000000000000e+00 -1.1599999166698424e+01 +6.5652059967630770e-04 +0.0000000000000000e+00 +9.9999978449032789e-01
-1.1699999999999974e+01 +7.9161262497280873e+00 +0.0000000000000000e+00 -1.1699999144961136e+01 +6.6218033422331759e-04 +0.0000000000000000e+00 +9.9999978075857843e-01
