# multipoles
# s[mm] polynom_b[n=0][T/m^n] polynom_b[n=1][T/m^n] polynom_b[n=2][T/m^n] polynom_b[n=3][T/m^n] polynom_b[n=4][T/m^n] polynom_b[n=5][T/m^n] polynom_b[n=6][T/m^n] 
-0.0000000000000000e+00 -5.3704233816985414e-01 +7.3645405679123153e+00 -5.1914118061611303e-01 -1.7330290580431356e+01 +4.1811105066300433e+03 -8.5724755628193903e+04 -2.5209257879241213e+07 
-1.0000000000000001e-01 -5.3704280575887609e-01 +7.3645170349580953e+00 -5.2253574089841826e-01 -1.6840494798466001e+01 +4.2280618504417553e+03 -8.7569689983380944e+04 -2.5393230244782284e+07 
-2.0000000000000001e-01 -5.3704327752468883e-01 +7.3644944045909329e+00 -5.2541545580908400e-01 -1.6335404499752112e+01 +4.2666413559872735e+03 -8.9602267622069397e+04 -2.5544377574572712e+07 
-2.9999999999999999e-01 -5.3704375330290455e-01 +7.3644726424410702e+00 -5.2782299677312516e-01 -1.5816243722437481e+01 +4.2975038538890713e+03 -9.1809754438402539e+04 -2.5665104805890705e+07 
-4.0000000000000002e-01 -5.3704423292915293e-01 +7.3644517141326240e+00 -5.2980103663502098e-01 -1.5284236337877559e+01 +4.3213042141925198e+03 -9.4179417214876943e+04 -2.5757817090783346e+07 
-5.0000000000000000e-01 -5.3704471623898675e-01 +7.3644315852923965e+00 -5.3139224740133439e-01 -1.4740606275767112e+01 +4.3386972864388417e+03 -9.6698522425467949e+04 -2.5824919465037894e+07 
-5.9999999999999998e-01 -5.3704520306800330e-01 +7.3644122215420946e+00 -5.3263930332551312e-01 -1.4186577325484317e+01 +4.3503379703291412e+03 -9.9354337313662283e+04 -2.5868817217557453e+07 
-6.9999999999999996e-01 -5.3704569325187335e-01 +7.3643935885044680e+00 -5.3358488004367055e-01 -1.3623373300451817e+01 +4.3568811943028713e+03 -1.0213412898231231e+05 -2.5891915776043922e+07 
-8.0000000000000004e-01 -5.3704618662614689e-01 +7.3643756518004508e+00 -5.3427164814901340e-01 -1.3052217963999381e+01 +4.3589817894975604e+03 -1.0502516480863278e+05 -2.5896620097802587e+07 
-9.0000000000000002e-01 -5.3704668302642367e-01 +7.3643583770555940e+00 -5.3474228603194751e-01 -1.2474335206958866e+01 +4.3572947405730447e+03 -1.0801471145002764e+05 -2.5885335882896464e+07 
-1.0000000000000000e+00 -5.3704718228835002e-01 +7.3643417298903850e+00 -5.3503946654650614e-01 -1.1890948777870838e+01 +4.3524749281477198e+03 -1.1109003637876759e+05 -2.5860468338291712e+07 
-1.1000000000000001e+00 -5.3704768424747318e-01 +7.3643256759286091e+00 -5.3520586496657607e-01 -1.1303282519459920e+01 +4.3451772790000932e+03 -1.1423840654687873e+05 -2.5824422889594160e+07 
-1.2000000000000000e+00 -5.3704818873944093e-01 +7.3643101807971076e+00 -5.3528415746147340e-01 -1.0712560359521126e+01 +4.3360567370576218e+03 -1.1744708843668827e+05 -2.5779605045485478e+07 
-1.3000000000000000e+00 -5.3704869559982615e-01 +7.3642952101210870e+00 -5.3531701663813425e-01 -1.0120006185783646e+01 +4.3257681832498893e+03 -1.2070334877687010e+05 -2.5728420028782923e+07 
-1.3999999999999999e+00 -5.3704920466423045e-01 +7.3642807295320285e+00 -5.3534712110963012e-01 -9.5268440653915096e+00 +4.3149666090505298e+03 -1.2399445329776558e+05 -2.5673273581591792e+07 
-1.5000000000000000e+00 -5.3704971576830618e-01 +7.3642667046616159e+00 -5.3541714335774804e-01 -8.9342980746283125e+00 +4.3043068913535180e+03 -1.2730766771503192e+05 -2.5616570908542100e+07 
-1.6000000000000001e+00 -5.3705022874764607e-01 +7.3642531011471366e+00 -5.3556975656559203e-01 -8.3435924517968534e+00 +4.2944439216047303e+03 -1.3063025685739845e+05 -2.5560717292143408e+07 
-1.7000000000000000e+00 -5.3705074343781722e-01 +7.3642398846274855e+00 -5.3584763657374213e-01 -7.7559514888935031e+00 +4.2860326373325406e+03 -1.3394948528121458e+05 -2.5508118227010559e+07 
-1.8000000000000000e+00 -5.3705125967448186e-01 +7.3642270207455045e+00 -5.3629345768690129e-01 -7.1725995963715556e+00 +4.2797279505427468e+03 -1.3725261691552395e+05 -2.5461179102119766e+07 
-1.8999999999999999e+00 -5.3705177729320630e-01 +7.3642144751488416e+00 -5.3694989216411015e-01 -6.5947613191082377e+00 +4.2761847313180624e+03 -1.4052691499640860e+05 -2.5422305107057631e+07 
-2.0000000000000000e+00 -5.3705229612966021e-01 +7.3642022134965437e+00 -5.3785961222622036e-01 -6.0236615375102245e+00 +4.2760578478862435e+03 -1.4375964088563100e+05 -2.5393901428799666e+07 
-2.1000000000000001e+00 -5.3705281612046984e-01 +7.3641902327208166e+00 -5.3905168384575053e-01 -5.4607923641268235e+00 +4.2797883588900040e+03 -1.4693799158257607e+05 -2.5377540484523199e+07 
-2.2000000000000002e+00 -5.3705333758748330e-01 +7.3641786474751081e+00 -5.4050370332796116e-01 -4.9086676853025804e+00 +4.2870056943895597e+03 -1.5004872917807210e+05 -2.5371621231761817e+07 
-2.2999999999999998e+00 -5.3705386094431806e-01 +7.3641676000859011e+00 -5.4218109624075450e-01 -4.3700447689644832e+00 +4.2971466904954113e+03 -1.5307847223327626e+05 -2.5373786739880294e+07 
-2.3999999999999999e+00 -5.3705438660466565e-01 +7.3641572328896867e+00 -5.4404928953289544e-01 -3.8476811556101889e+00 +4.3096482148231962e+03 -1.5601383781554800e+05 -2.5381680243330896e+07 
-2.5000000000000000e+00 -5.3705491498216607e-01 +7.3641476882082335e+00 -5.4607370716536341e-01 -3.3443339623110777e+00 +4.3239470810155281e+03 -1.5884144548001533e+05 -2.5392944726837534e+07 
-2.6000000000000001e+00 -5.3705544649050108e-01 +7.3641391083683763e+00 -5.4821977102866237e-01 -2.8627604393275980e+00 +4.3394800634903077e+03 -1.6154791408309713e+05 -2.5405222990150858e+07 
-2.7000000000000002e+00 -5.3705598154337020e-01 +7.3641316357003728e+00 -5.5045290199328456e-01 -2.4057179284230981e+00 +4.3556839231822487e+03 -1.6411986201431847e+05 -2.5416157782433625e+07 
-2.7999999999999998e+00 -5.3705652055447717e-01 +7.3641254125198730e+00 -5.5273852049109506e-01 -1.9759633448858749e+00 +4.3719954140164336e+03 -1.6654391018218908e+05 -2.5423391823933426e+07 
-2.8999999999999999e+00 -5.3705706393754860e-01 +7.3641205811487502e+00 -5.5504204499239229e-01 -1.5762537733611437e+00 +4.3878512575141422e+03 -1.6880667858441439e+05 -2.5424567691893868e+07 
-3.0000000000000000e+00 -5.3705761210632907e-01 +7.3641172839062081e+00 -5.5732889174310540e-01 -1.2093462020480186e+00 +4.4026881336128190e+03 -1.7089478786973451e+05 -2.5417327767989222e+07 
-3.1000000000000001e+00 -5.3705816547458429e-01 +7.3641156631033535e+00 -5.5956447597295289e-01 -8.7799738698692442e-01 +4.4159427119160891e+03 -1.7279486006519143e+05 -2.5399314406050157e+07 
-3.2000000000000002e+00 -5.3705872445611924e-01 +7.3641158610502933e+00 -5.6171420764011737e-01 -5.8496403230767535e-01 +4.4270515601452880e+03 -1.7449351760452057e+05 -2.5368169470248733e+07 
-3.2999999999999998e+00 -5.3705928946472592e-01 +7.3641180200536818e+00 -5.6374349952671088e-01 -3.3300274313870692e-01 +4.4354513063783234e+03 -1.7597738353238342e+05 -2.5321535127882738e+07 
-3.3999999999999999e+00 -5.3705986091423452e-01 +7.3641222824146428e+00 -5.6561776068032532e-01 -1.2486993505853397e-01 +4.4405785139719801e+03 -1.7723308211166298e+05 -2.5257053253060985e+07 
-3.5000000000000000e+00 -5.3706043921851021e-01 +7.3641287904290254e+00 -5.6730239594587162e-01 +3.6678127930992552e-02 +4.4418696673791428e+03 -1.7824723852519563e+05 -2.5172365345429260e+07 
-3.6000000000000001e+00 -5.3706102479147533e-01 +7.3641376863936570e+00 -5.6876280752008623e-01 +1.4888517861639466e-01 +4.4387612068646476e+03 -1.7900647804438206e+05 -2.5065112708128586e+07 
-3.7000000000000002e+00 -5.3706161804696284e-01 +7.3641491125887670e+00 -5.6996439957574829e-01 +2.0899544166115305e-01 +4.4306896158858090e+03 -1.7949742886449210e+05 -2.4932936863044906e+07 
-3.7999999999999998e+00 -5.3706221939894494e-01 +7.3641632113002808e+00 -5.7087256984879675e-01 +2.1425298865681572e-01 +4.4170912602613089e+03 -1.7970671836882850e+05 -2.4773478781586632e+07 
-3.8999999999999999e+00 -5.3706282926142868e-01 +7.3641801248030685e+00 -5.7145271247275475e-01 +1.6190223715936586e-01 +4.3974024420832629e+03 -1.7962097605473234e+05 -2.4584379142374568e+07 
-4.0000000000000000e+00 -5.3706344804833495e-01 +7.3641999953621236e+00 -5.7167022401791279e-01 +4.9187883812535929e-02 +4.3710595177973228e+03 -1.7922683312186666e+05 -2.4363278903759681e+07 
-4.0999999999999996e+00 -5.3706407609002793e-01 +7.3642228944029045e+00 -5.7149384470420816e-01 -1.2539359287606600e-01 +4.3375763773600502e+03 -1.7851699937567479e+05 -2.4108253280392814e+07 
-4.2000000000000002e+00 -5.3706471340588435e-01 +7.3642486365979831e+00 -5.7090368800200364e-01 -3.5888610243104063e-01 +4.2967376605474956e+03 -1.7750563097221719e+05 -2.3818904615324575e+07 
-4.2999999999999998e+00 -5.3706535994326010e-01 +7.3642769784357913e+00 -5.6988226859027347e-01 -6.4734110423365332e-01 +4.2483870167317655e+03 -1.7621160937744618e+05 -2.3495170911114406e+07 
-4.4000000000000004e+00 -5.3706601564940026e-01 +7.3643076764000286e+00 -5.6841210069389236e-01 -9.8680992028457759e-01 +4.1923680836994627e+03 -1.7465381673114208e+05 -2.3136990110789396e+07 
-4.5000000000000000e+00 -5.3706668047160988e-01 +7.3643404869645872e+00 -5.6647570292102367e-01 -1.3733436039560665e+00 +4.1285245766739135e+03 -1.7285113654337492e+05 -2.2744300514332522e+07 
-4.5999999999999996e+00 -5.3706735435709241e-01 +7.3643751665965480e+00 -5.6405559210534817e-01 -1.8029930324718801e+00 +4.0567001733062589e+03 -1.7082245314752409e+05 -2.2317040237469696e+07 
-4.7000000000000002e+00 -5.3706803725313501e-01 +7.3644114717552691e+00 -5.6113428689390898e-01 -2.2718088732243427e+00 +3.9767385833148705e+03 -1.6858665189411436e+05 -2.1855147546393011e+07 
-4.7999999999999998e+00 -5.3706872910686987e-01 +7.3644491588931098e+00 -5.5769431052628060e-01 -2.7758416111698327e+00 +3.8884835982416339e+03 -1.6616261897554141e+05 -2.1358561087187622e+07 
-4.9000000000000004e+00 -5.3706942986553075e-01 +7.3644879844530173e+00 -5.5371818500893111e-01 -3.3111414742287617e+00 +3.7917789778016063e+03 -1.6356924185288171e+05 -2.0827219336433500e+07 
-5.0000000000000000e+00 -5.3707013947621718e-01 +7.3645277048704036e+00 -5.4918843436738762e-01 -3.8737584965641561e+00 +3.6864685161633470e+03 -1.6082540885859821e+05 -2.0261060930647332e+07 
-5.0999999999999996e+00 -5.3707085788609010e-01 +7.3645680765701682e+00 -5.4408758719357952e-01 -4.4597424255973532e+00 +3.5723960916774340e+03 -1.5795000974922991e+05 -1.9660024904380754e+07 
-5.2000000000000002e+00 -5.3707158504222241e-01 +7.3646088559686973e+00 -5.3839817054479722e-01 -5.0651427851861017e+00 +3.4494055412999278e+03 -1.5496193530923725e+05 -1.9024050068467341e+07 
-5.2999999999999998e+00 -5.3707232089165724e-01 +7.3646497994767000e+00 -5.3210271729860159e-01 -5.6860089613751041e+00 +3.3173408109991265e+03 -1.5188007683744843e+05 -1.8353075754842024e+07 
-5.4000000000000004e+00 -5.3707306538141752e-01 +7.3646906634890836e+00 -5.2518376053201343e-01 -6.3183899033515454e+00 +3.1760458394060101e+03 -1.4872332788787188e+05 -1.7647041236178365e+07 
-5.5000000000000000e+00 -5.3707381845845026e-01 +7.3647312043920818e+00 -5.1762383778333876e-01 -6.9583343389539705e+00 +3.0253646456619285e+03 -1.4551058298450042e+05 -1.6905886163959589e+07 
-5.5999999999999996e+00 -5.3707458006977160e-01 +7.3647711785667189e+00 -5.0940548590813362e-01 -7.6018908707910366e+00 +2.8651412273380611e+03 -1.4226073706601837e+05 -1.6129550069756398e+07 
-5.7000000000000002e+00 -5.3707535016223384e-01 +7.3648103423782381e+00 -5.0051124975244998e-01 -8.2451076734960509e+00 +2.6952197238723070e+03 -1.3899268722576968e+05 -1.5317973141026998e+07 
-5.7999999999999998e+00 -5.3707612868271226e-01 +7.3648484521818114e+00 -4.9092367266603776e-01 -8.8840326515756214e+00 +2.5154442400780722e+03 -1.3572533180299969e+05 -1.4471095390916072e+07 
-5.9000000000000004e+00 -5.3707691557801018e-01 +7.3648852643215328e+00 -4.8062530457409830e-01 -9.5147134371120465e+00 +2.3256589957013143e+03 -1.3247757031681688e+05 -1.3588857359704038e+07 
-5.9999999999999902e+00 -5.3707771079490541e-01 +7.3649205351347762e+00 -4.6959869553874528e-01 -1.0133197448131877e+01 +2.1257082067769370e+03 -1.2926830274645540e+05 -1.2671199517093534e+07 
-6.0999999999999899e+00 -5.3707851413987351e-01 +7.3649540523984047e+00 -4.5783971371593341e-01 -1.0735652027562608e+01 +1.9156265336967674e+03 -1.2611612886034323e+05 -1.1718720373856904e+07 
-6.1999999999999904e+00 -5.3707932493486210e-01 +7.3649857140238142e+00 -4.4539127086550323e-01 -1.1318558729964741e+01 +1.6961079513460631e+03 -1.2303978230297286e+05 -1.0734281860760035e+07 
-6.2999999999999901e+00 -5.3708014239708324e-01 +7.3650154420283025e+00 -4.3230668678327844e-01 -1.1878442769672969e+01 +1.4679893097905517e+03 -1.2005828883544188e+05 -9.7212321888973601e+06 
-6.3999999999999897e+00 -5.3708096574372055e-01 +7.3650431584249398e+00 -4.1863928471475337e-01 -1.2411829261922955e+01 +1.2321075158891135e+03 -1.1719067473555224e+05 -8.6829198100355845e+06 
-6.4999999999999902e+00 -5.3708179419192614e-01 +7.3650687852441470e+00 -4.0444239188785897e-01 -1.2915243840988655e+01 +9.8929954435684397e+02 -1.1445596322734788e+05 -7.6226934721156033e+06 
-6.5999999999999899e+00 -5.3708262695885034e-01 +7.3650922445243880e+00 -3.8976933580840079e-01 -1.3385212405543424e+01 +7.4040236466444856e+02 -1.1187317592646502e+05 -6.5439018610282065e+06 
-6.6999999999999904e+00 -5.3708346326156797e-01 +7.3651134583103692e+00 -3.7467345382430051e-01 -1.3818261052816499e+01 +4.8625312911236580e+02 -1.0946133325987942e+05 -5.4498945163422292e+06 
-6.7999999999999901e+00 -5.3708430231717974e-01 +7.3651323486617102e+00 -3.5920808290123485e-01 -1.4210916331649271e+01 +2.2768896799777352e+02 -1.0723945299573196e+05 -4.3440208246971508e+06 
-6.8999999999999897e+00 -5.3708514334269053e-01 +7.3651488376493148e+00 -3.4342656259693322e-01 -1.4559705146150776e+01 -3.4452944265919278e+01 -1.0522655078145255e+05 -3.2296303611766105e+06 
-6.9999999999999902e+00 -5.3708598555511866e-01 +7.3651628473552186e+00 -3.2738224057618459e-01 -1.4861154747839809e+01 -2.9933529121699871e+02 -1.0344164020310479e+05 -2.1100733370491937e+06 
-7.0999999999999899e+00 -5.3708682817145081e-01 +7.3651742998717049e+00 -3.1112846561202778e-01 -1.5111792710428139e+01 -5.6612074366605145e+02 -1.0190373292942753e+05 -9.8869999183129973e+05 
-7.1999999999999904e+00 -5.3708767040864325e-01 +7.3651831173061630e+00 -2.9471859021628505e-01 -1.5308147067020043e+01 -8.3397191306548086e+02 -1.0063183793157886e+05 +1.3113919171061728e+05 
-7.2999999999999901e+00 -5.3708851148360903e-01 +7.3651892217786674e+00 -2.7820597595296553e-01 -1.5446746248602862e+01 -1.1020512478977664e+03 -9.9644961820961951e+04 +1.2460929887401466e+06 
-7.3999999999999897e+00 -5.3708935061319385e-01 +7.3651925354251500e+00 -2.6164398292060181e-01 -1.5524119166914605e+01 -1.3695212362035052e+03 -9.8962108391306145e+04 +2.3528104039309532e+06 
-7.4999999999999902e+00 -5.3709018701428390e-01 +7.3651929803925729e+00 -2.4508598012417254e-01 -1.5536795088334667e+01 -1.6355442059860441e+03 -9.8602279319430803e+04 +3.4479397160745561e+06 
-7.5999999999999899e+00 -5.3709101990364505e-01 +7.3651904788452613e+00 -2.2858533803610961e-01 -1.5481303800064616e+01 -1.8992824705640105e+03 -9.8584473250941082e+04 +4.5281291775307423e+06 
-7.6999999999999904e+00 -5.3709184849806046e-01 +7.3651849529623279e+00 -2.1219543560433901e-01 -1.5354175557461639e+01 -2.1598981914620872e+03 -9.8927686047835363e+04 +5.5900263552438198e+06 
-7.7999999999999901e+00 -5.3709267201429023e-01 +7.3651763249375053e+00 -1.9596965136809569e-01 -1.5151941059700144e+01 -2.4165535526366780e+03 -9.9650910981773966e+04 +6.6302789728213493e+06 
-7.8999999999999897e+00 -5.3709348966902637e-01 +7.3651645169841515e+00 -1.7996137650978900e-01 -1.4871131605797585e+01 -2.6684105062230046e+03 -1.0077313781307750e+05 +7.6455336854951046e+06 
-7.9999999999999902e+00 -5.3709430067896669e-01 +7.3651494513489926e+00 -1.6422399795136947e-01 -1.4508279928597750e+01 -2.9146311598068701e+03 -1.0231334881548512e+05 +8.6324379802634418e+06 
-8.0999999999999908e+00 -5.3709510452301812e-01 +7.3651311296529762e+00 -1.4880711604548166e-01 -1.4062354462831864e+01 -3.1544644776077207e+03 -1.0427809683795867e+05 +9.5880839958156105e+06 
-8.1999999999999904e+00 -5.3709590156442899e-01 +7.3651098228703074e+00 -1.3374885027100286e-01 -1.3540248363983530e+01 -3.3873907166758786e+03 -1.0663363332623293e+05 +1.0510741606000187e+07 
-8.2999999999999901e+00 -5.3709669235262092e-01 +7.3650858592802830e+00 -1.1908518579526418e-01 -1.2950472979805401e+01 -3.6129264453468245e+03 -1.0933802121778998e+05 +1.1398864378038039e+07 
-8.3999999999999897e+00 -5.3709747743704184e-01 +7.3650595671715919e+00 -1.0485209624431001e-01 -1.2301539890390425e+01 -3.8305884224565707e+03 -1.1234932252994826e+05 +1.2250906705870865e+07 
-8.4999999999999893e+00 -5.3709825736731076e-01 +7.3650312748499163e+00 -9.1085548641768946e-02 -1.1601961138392543e+01 -4.0398935082869903e+03 -1.1562559700020852e+05 +1.3065323400515428e+07 
-8.5999999999999908e+00 -5.3709903269301729e-01 +7.3650013106328425e+00 -7.7821501964844192e-02 -1.0860249059110531e+01 -4.2403586855664371e+03 -1.1912490315459207e+05 +1.3840569770380361e+07 
-8.6999999999999904e+00 -5.3709980396393131e-01 +7.3649700028547098e+00 -6.5095907399369352e-02 -1.0084916440872192e+01 -4.4315010598652070e+03 -1.2280529732416842e+05 +1.4575101639388537e+07 
-8.7999999999999794e+00 -5.3710057172981251e-01 +7.3649376798641644e+00 -5.2944709430994150e-02 -9.2844764430475557e+00 -4.6128378313172552e+03 -1.2662483416860663e+05 +1.5267375190435387e+07 
-8.8999999999999808e+00 -5.3710133654051340e-01 +7.3649046700238179e+00 -4.1403842095506474e-02 -8.4674425866537799e+00 -4.7838863719380061e+03 -1.3054156673319625e+05 +1.5915847349551778e+07 
-8.9999999999999805e+00 -5.3710209894606575e-01 +7.3648713017115748e+00 -3.0509229207925218e-02 -7.6423287891338330e+00 -4.9441642149802510e+03 -1.3451354627219742e+05 +1.6518975719567211e+07 
-9.0999999999999801e+00 -5.3710285949647152e-01 +7.3648379033205931e+00 -2.0296789843489507e-02 -6.8176493627413235e+00 -5.0931889529209766e+03 -1.3849882226711872e+05 +1.7075218099356804e+07 
-9.1999999999999797e+00 -5.3710361874185597e-01 +7.3648048032697302e+00 -1.0802429882671261e-02 -6.0019193180139050e+00 -5.2304783936364893e+03 -1.4245544068180121e+05 +1.7583033214453187e+07 
-9.2999999999999794e+00 -5.3710437723249893e-01 +7.3647723299779075e+00 -2.0620475427099139e-03 -5.2036536178572579e+00 -5.3555504587023133e+03 -1.4634144829197822e+05 +1.8040880242690992e+07 
-9.3999999999999808e+00 -5.3710513551870875e-01 +7.3647408118942641e+00 +5.8884707863689333e-03 -4.4313680478757487e+00 -5.4679232619098884e+03 -1.5011488767741967e+05 +1.8447219187024217e+07 
-9.4999999999999805e+00 -5.3710589415088261e-01 +7.3647105774782977e+00 +1.3013247251545717e-02 -3.6935786429102628e+00 -5.5671150390028861e+03 -1.5373380053661179e+05 +1.8800510518554468e+07 
-9.5999999999999801e+00 -5.3710665367958788e-01 +7.3646819552133174e+00 +1.9276413810568136e-02 -2.9988020716604198e+00 -5.6526441804025671e+03 -1.5715622548693823e+05 +1.9099215355593801e+07 
-9.6999999999999797e+00 -5.3710741465539213e-01 +7.3646552735953890e+00 +2.4642113349427647e-02 -2.3555553186063101e+00 -5.7240292441928668e+03 -1.6034019991571625e+05 +1.9341795503915526e+07 
-9.7999999999999794e+00 -5.3710817762910390e-01 +7.3646308611395463e+00 +2.9074503231630956e-02 -1.7723558639222359e+00 -5.7807890248820904e+03 -1.6324375894334679e+05 +1.9526713786505416e+07 
-9.8999999999999808e+00 -5.3710894315151425e-01 +7.3646090463831326e+00 +3.2537746724499508e-02 -1.2577217691168305e+00 -5.8224423932557074e+03 -1.6582493497346414e+05 +1.9652433290534131e+07 
-9.9999999999999805e+00 -5.3710971177352906e-01 +7.3645901578633870e+00 +3.4996027629665166e-02 -8.2016967933502338e-01 -5.8485084108867441e+03 -1.6804176851385459e+05 +1.9717417674459055e+07 
-1.0100000000000000e+01 -5.3711048383882787e-01 +7.3645744390601005e+00 +3.6427875243985226e-02 -4.6565620201085811e-01 -5.8587012290976554e+03 -1.6986509134926044e+05 +1.9720800379281379e+07 
