# field on trajectory
# s[mm] rx[mm] ry[mm] rz[mm] bx[T] by[T] bz[T]
0.0000000000000000e+00 +8.1530000000000094e+00 +0.0000000000000000e+00 +0.0000000000000000e+00 -3.1031333865552981e-02 -5.9306466530104895e-01 +5.9489726893931158e-03
1.0000000000000001e-01 +8.1529997159377707e+00 +0.0000000000000000e+00 +1.0008006405070299e-01 -3.1031394437389257e-02 -5.9306439438626823e-01 +5.9490525527539084e-03
2.0000000000000001e-01 +8.1529988637557800e+00 +0.0000000000000000e+00 +2.0016012809818201e-01 -3.1031464989850144e-02 -5.9306412399290476e-01 +5.9491315898905234e-03
2.9999999999999999e-01 +8.1529974434524792e+00 +0.0000000000000000e+00 +3.0024019213920999e-01 -3.1031544734732592e-02 -5.9306385531279060e-01 +5.9492098443529170e-03
4.0000000000000002e-01 +8.1529954550242092e+00 +0.0000000000000000e+00 +4.0032025617056399e-01 -3.1031632883836507e-02 -5.9306358953777549e-01 +5.9492873596921573e-03
5.0000000000000000e-01 +8.1529928984782600e+00 +0.0000000000000000e+00 +5.0040032018901703e-01 -3.1031728648959405e-02 -5.9306332785961935e-01 +5.9493641794591337e-03
5.9999999999999998e-01 +8.1529897738146193e+00 +0.0000000000000000e+00 +6.0048038419134497e-01 -3.1031831241904576e-02 -5.9306307147013937e-01 +5.9494403472058451e-03
6.9999999999999996e-01 +8.1529860810223909e+00 +0.0000000000000000e+00 +7.0056044817432195e-01 -3.1031939874482932e-02 -5.9306282156123757e-01 +5.9495159064854933e-03
8.0000000000000004e-01 +8.1529818201124709e+00 +0.0000000000000000e+00 +8.0064051213472498e-01 -3.1032053758499288e-02 -5.9306257932463724e-01 +5.9495909008495506e-03
9.0000000000000002e-01 +8.1529769910812302e+00 +0.0000000000000000e+00 +9.0072057606932698e-01 -3.1032172105768183e-02 -5.9306234595217300e-01 +5.9496653738505640e-03
1.0000000000000000e+00 +8.1529715939250291e+00 +0.0000000000000000e+00 +1.0008006399749001e+00 -3.1032294128108050e-02 -5.9306212263567581e-01 +5.9497393690407206e-03
1.1000000000000001e+00 +8.1529656286511507e+00 +0.0000000000000000e+00 +1.1008807038482300e+00 -3.1032419037336802e-02 -5.9306191056688085e-01 +5.9498129299707493e-03
1.2000000000000000e+00 +8.1529590952522994e+00 +0.0000000000000000e+00 +1.2009607676860801e+00 -3.1032546045283008e-02 -5.9306171093763482e-01 +5.9498861001918016e-03
1.3000000000000000e+00 +8.1529519937357708e+00 +0.0000000000000000e+00 +1.3010408314852300e+00 -3.1032674363773778e-02 -5.9306152493965858e-01 +5.9499589232528205e-03
1.3999999999999999e+00 +8.1529443240979198e+00 +0.0000000000000000e+00 +1.4011208952424601e+00 -3.1032803204645916e-02 -5.9306135376475089e-01 +5.9500314427024456e-03
1.5000000000000000e+00 +8.1529360863350995e+00 +0.0000000000000000e+00 +1.5012009589545301e+00 -3.1032931779741646e-02 -5.9306119860470263e-01 +5.9501037020878948e-03
1.6000000000000001e+00 +8.1529272804509691e+00 +0.0000000000000000e+00 +1.6012810226182299e+00 -3.1033059300905701e-02 -5.9306106065123454e-01 +5.9501757449541394e-03
1.7000000000000000e+00 +8.1529179064491508e+00 +0.0000000000000000e+00 +1.7013610862303301e+00 -3.1033184979988773e-02 -5.9306094109605567e-01 +5.9502476148442949e-03
1.8000000000000000e+00 +8.1529079643223703e+00 +0.0000000000000000e+00 +1.8014411497875999e+00 -3.1033308028852510e-02 -5.9306084113095081e-01 +5.9503193553003056e-03
1.8999999999999999e+00 +8.1528974540779000e+00 +0.0000000000000000e+00 +1.9015212132868200e+00 -3.1033427659358893e-02 -5.9306076194757373e-01 +5.9503910098606281e-03
2.0000000000000000e+00 +8.1528863757084800e+00 +0.0000000000000000e+00 +2.0016012767247702e+00 -3.1033543083384147e-02 -5.9306070473768058e-01 +5.9504626220624260e-03
2.1000000000000001e+00 +8.1528747292177304e+00 +0.0000000000000000e+00 +2.1016813400982199e+00 -3.1033653804397900e-02 -5.9306067024372155e-01 +5.9505342360029710e-03
2.2000000000000002e+00 +8.1528625146056601e+00 +0.0000000000000000e+00 +2.2017614034039301e+00 -3.1033760437588653e-02 -5.9306065749554715e-01 +5.9506058979268443e-03
2.2999999999999998e+00 +8.1528497318759001e+00 +0.0000000000000000e+00 +2.3018414666387002e+00 -3.1033863863033022e-02 -5.9306066511489963e-01 +5.9506776545892306e-03
2.3999999999999999e+00 +8.1528363810211903e+00 +0.0000000000000000e+00 +2.4019215297993002e+00 -3.1033964960796419e-02 -5.9306069172362241e-01 +5.9507495527451049e-03
2.5000000000000000e+00 +8.1528224620451493e+00 +0.0000000000000000e+00 +2.5020015928824901e+00 -3.1034064610921726e-02 -5.9306073594348563e-01 +5.9508216391474748e-03
2.6000000000000001e+00 +8.1528079749477893e+00 +0.0000000000000000e+00 +2.6020816558850601e+00 -3.1034163693433356e-02 -5.9306079639630505e-01 +5.9508939605485813e-03
2.7000000000000002e+00 +8.1527929197291105e+00 +0.0000000000000000e+00 +2.7021617188037701e+00 -3.1034263088333645e-02 -5.9306087170391653e-01 +5.9509665636996029e-03
2.7999999999999998e+00 +8.1527772963891003e+00 +0.0000000000000000e+00 +2.8022417816354102e+00 -3.1034363675600755e-02 -5.9306096048817625e-01 +5.9510394953506797e-03
2.8999999999999999e+00 +8.1527611049277802e+00 +0.0000000000000000e+00 +2.9023218443767500e+00 -3.1034466335186577e-02 -5.9306106137096382e-01 +5.9511128022509234e-03
3.0000000000000000e+00 +8.1527443453451305e+00 +0.0000000000000000e+00 +3.0024019070245598e+00 -3.1034571947014686e-02 -5.9306117297418515e-01 +5.9511865311484159e-03
3.1000000000000001e+00 +8.1527270176411495e+00 +0.0000000000000000e+00 +3.1024819695756198e+00 -3.1034681390978217e-02 -5.9306129391977280e-01 +5.9512607287902390e-03
3.2000000000000002e+00 +8.1527091218158603e+00 +0.0000000000000000e+00 +3.2025620320267101e+00 -3.1034795546937787e-02 -5.9306142282968999e-01 +5.9513354419224790e-03
3.2999999999999998e+00 +8.1526906578692397e+00 +0.0000000000000000e+00 +3.3026420943745900e+00 -3.1034915294719398e-02 -5.9306155832593088e-01 +5.9514107172902271e-03
3.3999999999999999e+00 +8.1526716258013003e+00 +0.0000000000000000e+00 +3.4027221566160502e+00 -3.1035041514112370e-02 -5.9306169903052486e-01 +5.9514866016376119e-03
3.5000000000000000e+00 +8.1526520256120403e+00 +0.0000000000000000e+00 +3.5028022187478500e+00 -3.1035175084867278e-02 -5.9306184356553682e-01 +5.9515631417078026e-03
3.6000000000000001e+00 +8.1526318572978198e+00 +0.0000000000000000e+00 +3.6028822807667802e+00 -3.1035316886695349e-02 -5.9306199055309994e-01 +5.9516403842433023e-03
3.7000000000000002e+00 +8.1526111208659096e+00 +0.0000000000000000e+00 +3.7029623426696099e+00 -3.1035467799260211e-02 -5.9306213861529944e-01 +5.9517183759847953e-03
3.7999999999999998e+00 +8.1525898163126804e+00 +0.0000000000000000e+00 +3.8030424044531101e+00 -3.1035628702185108e-02 -5.9306228637435121e-01 +5.9517971636729250e-03
3.8999999999999999e+00 +8.1525679436344909e+00 +0.0000000000000000e+00 +3.9031224661140600e+00 -3.1035800475046182e-02 -5.9306243245251611e-01 +5.9518767940474285e-03
4.0000000000000000e+00 +8.1525455028386205e+00 +0.0000000000000000e+00 +4.0032025276492398e+00 -3.1035983997356194e-02 -5.9306257547202768e-01 +5.9519573138460766e-03
4.0999999999999996e+00 +8.1525224939177896e+00 +0.0000000000000000e+00 +4.1032825890554099e+00 -3.1036179829435101e-02 -5.9306271449564196e-01 +5.9520387644868321e-03
4.2000000000000002e+00 +8.1524989168792708e+00 +0.0000000000000000e+00 +4.2033626503293604e+00 -3.1036387371703559e-02 -5.9306285018639682e-01 +5.9521211680527205e-03
4.2999999999999998e+00 +8.1524747717157897e+00 +0.0000000000000000e+00 +4.3034427114678504e+00 -3.1036605761195719e-02 -5.9306298357088616e-01 +5.9522045422410810e-03
4.4000000000000004e+00 +8.1524500584346207e+00 +0.0000000000000000e+00 +4.4035227724676700e+00 -3.1036834134964310e-02 -5.9306311567557024e-01 +5.9522889047528430e-03
4.5000000000000000e+00 +8.1524247770285001e+00 +0.0000000000000000e+00 +4.5036028333255800e+00 -3.1037071630095541e-02 -5.9306324752700657e-01 +5.9523742732952682e-03
4.5999999999999996e+00 +8.1523989275046898e+00 +0.0000000000000000e+00 +4.6036828940383696e+00 -3.1037317383699126e-02 -5.9306338015161486e-01 +5.9524606655798592e-03
4.7000000000000002e+00 +8.1523725098559208e+00 +0.0000000000000000e+00 +4.7037629546028104e+00 -3.1037570532923251e-02 -5.9306351457590900e-01 +5.9525480993250926e-03
4.7999999999999998e+00 +8.1523455240894709e+00 +0.0000000000000000e+00 +4.8038430150156701e+00 -3.1037830214944565e-02 -5.9306365182626131e-01 +5.9526365922543427e-03
4.9000000000000004e+00 +8.1523179701980606e+00 +0.0000000000000000e+00 +4.9039230752737302e+00 -3.1038095566983202e-02 -5.9306379292913447e-01 +5.9527261620986073e-03
5.0000000000000000e+00 +8.1522898481889605e+00 +0.0000000000000000e+00 +5.0040031353737602e+00 -3.1038365726292642e-02 -5.9306393891084419e-01 +5.9528168265944254e-03
5.0999999999999996e+00 +8.1522611580549000e+00 +0.0000000000000000e+00 +5.1040831953125396e+00 -3.1038639830174880e-02 -5.9306409079779554e-01 +5.9529086034866207e-03
5.2000000000000002e+00 +8.1522318997995207e+00 +0.0000000000000000e+00 +5.2041632550868497e+00 -3.1038917015971782e-02 -5.9306424961627047e-01 +5.9530015105264990e-03
5.2999999999999998e+00 +8.1522020734228100e+00 +0.0000000000000000e+00 +5.3042433146934496e+00 -3.1039196421074007e-02 -5.9306441639254781e-01 +5.9530955654734053e-03
5.4000000000000004e+00 +8.1521716789247893e+00 +0.0000000000000000e+00 +5.4043233741291203e+00 -3.1039477182921743e-02 -5.9306459215286988e-01 +5.9531907860947185e-03
5.5000000000000000e+00 +8.1521407163090807e+00 +0.0000000000000000e+00 +5.5044034333906504e+00 -3.1039758439005787e-02 -5.9306477792341095e-01 +5.9532871901658950e-03
5.5999999999999996e+00 +8.1521091855684098e+00 +0.0000000000000000e+00 +5.6044834924747899e+00 -3.1040039326876188e-02 -5.9306497473039477e-01 +5.9533847954719955e-03
5.7000000000000002e+00 +8.1520770867064094e+00 +0.0000000000000000e+00 +5.7045635513783299e+00 -3.1040318984135399e-02 -5.9306518359991400e-01 +5.9534836198061932e-03
5.7999999999999998e+00 +8.1520444197231008e+00 +0.0000000000000000e+00 +5.8046436100980499e+00 -3.1040596548446965e-02 -5.9306540555804699e-01 +5.9535836809713142e-03
5.9000000000000004e+00 +8.1520111846184609e+00 +0.0000000000000000e+00 +5.9047236686307096e+00 -3.1040871157536540e-02 -5.9306564163082820e-01 +5.9536849967798565e-03
5.9999999999999902e+00 +8.1519773813925003e+00 +0.0000000000000000e+00 +6.0048037269731003e+00 -3.1041141949211041e-02 -5.9306589284421229e-01 +5.9537875850518892e-03
6.0999999999999899e+00 +8.1519430100452208e+00 +0.0000000000000000e+00 +6.1048837851219799e+00 -3.1041408235781272e-02 -5.9306615991516054e-01 +5.9538914383635904e-03
6.1999999999999904e+00 +8.1519080705766100e+00 +0.0000000000000000e+00 +6.2049638430741396e+00 -3.1041669933991406e-02 -5.9306644249016838e-01 +5.9539964617947244e-03
6.2999999999999901e+00 +8.1518725629866804e+00 +0.0000000000000000e+00 +6.3050439008263499e+00 -3.1041927091403233e-02 -5.9306673998404902e-01 +5.9541025414809939e-03
6.3999999999999897e+00 +8.1518364872754301e+00 +0.0000000000000000e+00 +6.4051239583753699e+00 -3.1042179755583134e-02 -5.9306705181161656e-01 +5.9542095635502145e-03
6.4999999999999902e+00 +8.1517998434428591e+00 +0.0000000000000000e+00 +6.5052040157180002e+00 -3.1042427974101779e-02 -5.9306737738768078e-01 +5.9543174141218954e-03
6.5999999999999899e+00 +8.1517626314889604e+00 +0.0000000000000000e+00 +6.6052840728510001e+00 -3.1042671794533992e-02 -5.9306771612705189e-01 +5.9544259793068328e-03
6.6999999999999904e+00 +8.1517248514137499e+00 +0.0000000000000000e+00 +6.7053641297711399e+00 -3.1042911264458541e-02 -5.9306806744453788e-01 +5.9545351452067038e-03
6.7999999999999901e+00 +8.1516865032135701e+00 +0.0000000000000000e+00 +6.8054441864752100e+00 -3.1043146431459469e-02 -5.9306843075497562e-01 +5.9546447979139452e-03
6.8999999999999897e+00 +8.1516475868957095e+00 +0.0000000000000000e+00 +6.9055242429599701e+00 -3.1043377343119630e-02 -5.9306880547311147e-01 +5.9547548235101408e-03
6.9999999999999902e+00 +8.1516081024565192e+00 +0.0000000000000000e+00 +7.0056042992222096e+00 -3.1043604047029910e-02 -5.9306919101378064e-01 +5.9548651080674241e-03
7.0999999999999899e+00 +8.1515680498960101e+00 +0.0000000000000000e+00 +7.1056843552586999e+00 -3.1043826590782708e-02 -5.9306958679178723e-01 +5.9549755376468554e-03
7.1999999999999904e+00 +8.1515274292141804e+00 +0.0000000000000000e+00 +7.2057644110662000e+00 -3.1044045021973360e-02 -5.9306999222193535e-01 +5.9550859982983109e-03
7.2999999999999901e+00 +8.1514862404073902e+00 +0.0000000000000000e+00 +7.3058444666415099e+00 -3.1044259388201403e-02 -5.9307040671905786e-01 +5.9551963760603828e-03
7.3999999999999897e+00 +8.1514444834829192e+00 +0.0000000000000000e+00 +7.4059245219813796e+00 -3.1044469737064238e-02 -5.9307082969789882e-01 +5.9553065569587513e-03
7.4999999999999902e+00 +8.1514021584334806e+00 +0.0000000000000000e+00 +7.5060045770826100e+00 -3.1044676116167767e-02 -5.9307126057332060e-01 +5.9554164270078872e-03
7.5999999999999899e+00 +8.1513592652663593e+00 +0.0000000000000000e+00 +7.6060846319419504e+00 -3.1044878573113707e-02 -5.9307169876006749e-01 +5.9555258722082402e-03
7.6999999999999904e+00 +8.1513158039779192e+00 +0.0000000000000000e+00 +7.7061646865561997e+00 -3.1045077155510348e-02 -5.9307214367297156e-01 +5.9556347785479176e-03
7.7999999999999901e+00 +8.1512717745681602e+00 +0.0000000000000000e+00 +7.8062447409221098e+00 -3.1045271910966076e-02 -5.9307259472683782e-01 +5.9557430320010853e-03
7.8999999999999897e+00 +8.1512271770334301e+00 +0.0000000000000000e+00 +7.9063247950364799e+00 -3.1045462887092253e-02 -5.9307305133649890e-01 +5.9558505185281496e-03
7.9999999999999902e+00 +8.1511820113773901e+00 +0.0000000000000000e+00 +8.0064048488960609e+00 -3.1045650131510821e-02 -5.9307351291671395e-01 +5.9559571240795179e-03
8.0999999999999908e+00 +8.1511362776036496e+00 +0.0000000000000000e+00 +8.1064849024976393e+00 -3.1045833748794355e-02 -5.9307397880583612e-01 +5.9560627578304597e-03
8.1999999999999904e+00 +8.1510899757086008e+00 +0.0000000000000000e+00 +8.2065649558379903e+00 -3.1046014031667773e-02 -5.9307444808985510e-01 +5.9561674057300746e-03
8.2999999999999901e+00 +8.1510431056885899e+00 +0.0000000000000000e+00 +8.3066450089139003e+00 -3.1046191311642237e-02 -5.9307491980274918e-01 +5.9562710695644193e-03
8.3999999999999897e+00 +8.1509956675508892e+00 +0.0000000000000000e+00 +8.4067250617221205e+00 -3.1046365920204138e-02 -5.9307539297846223e-01 +5.9563737511219754e-03
8.4999999999999893e+00 +8.1509476612882299e+00 +0.0000000000000000e+00 +8.5068051142594392e+00 -3.1046538188825235e-02 -5.9307586665111200e-01 +5.9564754521958989e-03
8.5999999999999908e+00 +8.1508990869078808e+00 +0.0000000000000000e+00 +8.6068851665226305e+00 -3.1046708448949342e-02 -5.9307633985475616e-01 +5.9565761745817890e-03
8.6999999999999904e+00 +8.1508499444025801e+00 +0.0000000000000000e+00 +8.7069652185084596e+00 -3.1046877032003997e-02 -5.9307681162362968e-01 +5.9566759200802410e-03
8.7999999999999794e+00 +8.1508002337759500e+00 +0.0000000000000000e+00 +8.8070452702137203e+00 -3.1047044269388747e-02 -5.9307728099194068e-01 +5.9567746904949084e-03
8.8999999999999808e+00 +8.1507499550316407e+00 +0.0000000000000000e+00 +8.9071253216351796e+00 -3.1047210492479001e-02 -5.9307774699396043e-01 +5.9568724876335674e-03
8.9999999999999805e+00 +8.1506991081623692e+00 +0.0000000000000000e+00 +9.0072053727696098e+00 -3.1047376032629970e-02 -5.9307820866411287e-01 +5.9569693133091741e-03
9.0999999999999801e+00 +8.1506476931717806e+00 +0.0000000000000000e+00 +9.1072854236137797e+00 -3.1047541221166406e-02 -5.9307866503680051e-01 +5.9570651693382198e-03
9.1999999999999797e+00 +8.1505957100635005e+00 +0.0000000000000000e+00 +9.2073654741644795e+00 -3.1047706389386531e-02 -5.9307911514649336e-01 +5.9571600575417973e-03
9.2999999999999794e+00 +8.1505431588302599e+00 +0.0000000000000000e+00 +9.3074455244184708e+00 -3.1047871868565922e-02 -5.9307955802782031e-01 +5.9572539797466606e-03
9.3999999999999808e+00 +8.1504900394757005e+00 +0.0000000000000000e+00 +9.4075255743725297e+00 -3.1048037989947260e-02 -5.9307999271539302e-01 +5.9573469377835761e-03
9.4999999999999805e+00 +8.1504363520034495e+00 +0.0000000000000000e+00 +9.5076056240234408e+00 -3.1048205084744353e-02 -5.9308041824389668e-01 +5.9574389334884027e-03
9.5999999999999801e+00 +8.1503820964062506e+00 +0.0000000000000000e+00 +9.6076856733679694e+00 -3.1048373484145846e-02 -5.9308083364817998e-01 +5.9575299687031251e-03
9.6999999999999797e+00 +8.1503272726913600e+00 +0.0000000000000000e+00 +9.7077657224029004e+00 -3.1048543519303601e-02 -5.9308123796305046e-01 +5.9576200452739333e-03
9.7999999999999794e+00 +8.1502718808515109e+00 +0.0000000000000000e+00 +9.8078457711250007e+00 -3.1048715521344347e-02 -5.9308163022351190e-01 +5.9577091650537843e-03
9.8999999999999808e+00 +8.1502159208903304e+00 +0.0000000000000000e+00 +9.9079258195310498e+00 -3.1048889821357908e-02 -5.9308200946456047e-01 +5.9577973299004480e-03
9.9999999999999805e+00 +8.1501593928078400e+00 +0.0000000000000000e+00 +1.0008005867617801e+01 -3.1049066750320736e-02 -5.9308237472148262e-01 +5.9578845416783342e-03
1.0100000000000000e+01 +8.1501022966040200e+00 +0.0000000000000000e+00 +1.0108085915382100e+01 -3.1049246437806537e-02 -5.9308272547159346e-01 +5.9579708033916977e-03
1.0199999999999999e+01 +8.1500446322825209e+00 +0.0000000000000000e+00 +1.0208165962820599e+01 -3.1049428378794434e-02 -5.9308306258486743e-01 +5.9580561216219510e-03
1.0300000000000001e+01 +8.1499863998360507e+00 +0.0000000000000000e+00 +1.0308246009930199e+01 -3.1049611943558410e-02 -5.9308338720492748e-01 +5.9581405036558009e-03
1.0400000000000000e+01 +8.1499275992682705e+00 +0.0000000000000000e+00 +1.0408326056707599e+01 -3.1049796502340330e-02 -5.9308370047521197e-01 +5.9582239567811989e-03
1.0500000000000000e+01 +8.1498682305791608e+00 +0.0000000000000000e+00 +1.0508406103149600e+01 -3.1049981425355564e-02 -5.9308400353909130e-01 +5.9583064882885979e-03
1.0600000000000000e+01 +8.1498082937723701e+00 +0.0000000000000000e+00 +1.0608486149253000e+01 -3.1050166082789338e-02 -5.9308429753980629e-01 +5.9583881054704191e-03
1.0699999999999999e+01 +8.1497477888406102e+00 +0.0000000000000000e+00 +1.0708566195014500e+01 -3.1050349844802289e-02 -5.9308458362058236e-01 +5.9584688156222865e-03
1.0800000000000001e+01 +8.1496867157875403e+00 +0.0000000000000000e+00 +1.0808646240430900e+01 -3.1050532081520612e-02 -5.9308486292445051e-01 +5.9585486260412910e-03
1.0900000000000000e+01 +8.1496250746131391e+00 +0.0000000000000000e+00 +1.0908726285499000e+01 -3.1050712163041640e-02 -5.9308513659436368e-01 +5.9586275440272540e-03
1.1000000000000000e+01 +8.1495628653174208e+00 +0.0000000000000000e+00 +1.1008806330215601e+01 -3.1050889459431744e-02 -5.9308540577316249e-01 +5.9587055768824584e-03
1.1100000000000000e+01 +8.1495000879040198e+00 +0.0000000000000000e+00 +1.1108886374577500e+01 -3.1051063340724130e-02 -5.9308567160354519e-01 +5.9587827319114240e-03
1.1199999999999999e+01 +8.1494367423620098e+00 +0.0000000000000000e+00 +1.1208966418581401e+01 -3.1051233176926103e-02 -5.9308593522821085e-01 +5.9588590164224488e-03
1.1300000000000001e+01 +8.1493728287059604e+00 +0.0000000000000000e+00 +1.1309046462224000e+01 -3.1051398338001298e-02 -5.9308619778953320e-01 +5.9589344377243584e-03
1.1400000000000000e+01 +8.1493083469249505e+00 +0.0000000000000000e+00 +1.1409126505502300e+01 -3.1051558193890910e-02 -5.9308646042997037e-01 +5.9590090031307755e-03
1.1500000000000000e+01 +8.1492432970226201e+00 +0.0000000000000000e+00 +1.1509206548412800e+01 -3.1051712114495995e-02 -5.9308672429173848e-01 +5.9590827199568564e-03
1.1600000000000000e+01 +8.1491776789989707e+00 +0.0000000000000000e+00 +1.1609286590952600e+01 -3.1051859469684629e-02 -5.9308699051695501e-01 +5.9591555955208564e-03
1.1699999999999999e+01 +8.1491114928576298e+00 +0.0000000000000000e+00 +1.1709366633118099e+01 -3.1051999629288257e-02 -5.9308726024757918e-01 +5.9592276371435706e-03
1.1800000000000001e+01 +8.1490447385876905e+00 +0.0000000000000000e+00 +1.1809446674906400e+01 -3.1052131963108850e-02 -5.9308753462555464e-01 +5.9592988521498993e-03
