# trajectory
# s[mm] rx[mm] ry[mm] rz[mm] px[rad] py[rad] pz[rad]
0.0000000000000000e+00 +7.9199999999999999e+00 +0.0000000000000000e+00 +0.0000000000000000e+00 +0.0000000000000000e+00 +0.0000000000000000e+00 +1.0000000000000000e+00
1.0000000000000001e-01 +7.9199997170124492e+00 +0.0000000000000000e+00 +9.9999999999466113e-02 -5.6597506398988127e-06 +0.0000000000000000e+00 +9.9999999998398359e-01
2.0000000000000001e-01 +7.9199988680499454e+00 +0.0000000000000000e+00 +1.9999999999572896e-01 -1.1319499082852097e-05 +0.0000000000000000e+00 +9.9999999993593447e-01
3.0000000000000004e-01 +7.9199974531127051e+00 +0.0000000000000000e+00 +2.9999999998558524e-01 -1.6979245370239895e-05 +0.0000000000000000e+00 +9.9999999985585264e-01
4.0000000000000002e-01 +7.9199954722009416e+00 +0.0000000000000000e+00 +3.9999999996583174e-01 -2.2638989549324029e-05 +0.0000000000000000e+00 +9.9999999974373810e-01
5.0000000000000000e-01 +7.9199929253148635e+00 +0.0000000000000000e+00 +4.9999999993326516e-01 -2.8298731673248111e-05 +0.0000000000000000e+00 +9.9999999959959096e-01
5.9999999999999998e-01 +7.9199898124546735e+00 +0.0000000000000000e+00 +5.9999999988468222e-01 -3.3958471801037511e-05 +0.0000000000000000e+00 +9.9999999942341111e-01
6.9999999999999996e-01 +7.9199861336205677e+00 +0.0000000000000000e+00 +6.9999999981687966e-01 -3.9618209997599360e-05 +0.0000000000000000e+00 +9.9999999921519878e-01
7.9999999999999993e-01 +7.9199818888127362e+00 +0.0000000000000000e+00 +7.9999999972665425e-01 -4.5277946333722512e-05 +0.0000000000000000e+00 +9.9999999897495384e-01
8.9999999999999991e-01 +7.9199770780313603e+00 +0.0000000000000000e+00 +8.9999999961080268e-01 -5.0937680886077538e-05 +0.0000000000000000e+00 +9.9999999870267642e-01
9.9999999999999989e-01 +7.9199717012766158e+00 +0.0000000000000000e+00 +9.9999999946612173e-01 -5.6597413737216701e-05 +0.0000000000000000e+00 +9.9999999839836651e-01
1.0999999999999999e+00 +7.9199657585486669e+00 +0.0000000000000000e+00 +1.0999999992894083e+00 -6.2257144975573915e-05 +0.0000000000000000e+00 +9.9999999806202411e-01
1.2000000000000000e+00 +7.9199592498476710e+00 +0.0000000000000000e+00 +1.1999999990774588e+00 -6.7916874695464745e-05 +0.0000000000000000e+00 +9.9999999769364922e-01
1.3000000000000000e+00 +7.9199521751737754e+00 +0.0000000000000000e+00 +1.2999999988270703e+00 -7.3576602997086360e-05 +0.0000000000000000e+00 +9.9999999729324185e-01
1.4000000000000001e+00 +7.9199445345271160e+00 +0.0000000000000000e+00 +1.3999999985350393e+00 -7.9236329986517479e-05 +0.0000000000000000e+00 +9.9999999686080210e-01
1.5000000000000002e+00 +7.9199363279078181e+00 +0.0000000000000000e+00 +1.4999999981981629e+00 -8.4896055775718362e-05 +0.0000000000000000e+00 +9.9999999639632997e-01
1.6000000000000003e+00 +7.9199275553159962e+00 +0.0000000000000000e+00 +1.5999999978132375e+00 -9.0555780482530753e-05 +0.0000000000000000e+00 +9.9999999589982547e-01
1.7000000000000004e+00 +7.9199182167517534e+00 +0.0000000000000000e+00 +1.6999999973770601e+00 -9.6215504230677868e-05 +0.0000000000000000e+00 +9.9999999537128847e-01
1.8000000000000005e+00 +7.9199083122151777e+00 +0.0000000000000000e+00 +1.7999999968864273e+00 -1.0187522714976430e-04 +0.0000000000000000e+00 +9.9999999481071911e-01
1.9000000000000006e+00 +7.9198978417063461e+00 +0.0000000000000000e+00 +1.8999999963381360e+00 -1.0753494937527603e-04 +0.0000000000000000e+00 +9.9999999421811736e-01
2.0000000000000004e+00 +7.9198868052253211e+00 +0.0000000000000000e+00 +1.9999999957289829e+00 -1.1319467104858034e-04 +0.0000000000000000e+00 +9.9999999359348324e-01
2.1000000000000005e+00 +7.9198752027721504e+00 +0.0000000000000000e+00 +2.0999999950557648e+00 -1.1885439231663577e-04 +0.0000000000000000e+00 +9.9999999293681674e-01
2.2000000000000006e+00 +7.9198630343468670e+00 +0.0000000000000000e+00 +2.1999999943152786e+00 -1.2451411332880239e-04 +0.0000000000000000e+00 +9.9999999224811786e-01
2.3000000000000007e+00 +7.9198502999494886e+00 +0.0000000000000000e+00 +2.2999999935043207e+00 -1.3017383423365202e-04 +0.0000000000000000e+00 +9.9999999152738650e-01
2.4000000000000008e+00 +7.9198369995800189e+00 +0.0000000000000000e+00 +2.3999999926196880e+00 -1.3583355517867842e-04 +0.0000000000000000e+00 +9.9999999077462265e-01
2.5000000000000009e+00 +7.9198231332384470e+00 +0.0000000000000000e+00 +2.4999999916581772e+00 -1.4149327631029731e-04 +0.0000000000000000e+00 +9.9999998998982642e-01
2.6000000000000010e+00 +7.9198087009247464e+00 +0.0000000000000000e+00 +2.5999999906165852e+00 -1.4715299777384649e-04 +0.0000000000000000e+00 +9.9999998917299771e-01
2.7000000000000011e+00 +7.9197937026388763e+00 +0.0000000000000000e+00 +2.6999999894917086e+00 -1.5281271971358593e-04 +0.0000000000000000e+00 +9.9999998832413639e-01
2.8000000000000012e+00 +7.9197781383807824e+00 +0.0000000000000000e+00 +2.7999999882803444e+00 -1.5847244227269795e-04 +0.0000000000000000e+00 +9.9999998744324259e-01
2.9000000000000012e+00 +7.9197620081503963e+00 +0.0000000000000000e+00 +2.8999999869792892e+00 -1.6413216559328734e-04 +0.0000000000000000e+00 +9.9999998653031619e-01
3.0000000000000013e+00 +7.9197453119476338e+00 +0.0000000000000000e+00 +2.9999999855853399e+00 -1.6979188981638149e-04 +0.0000000000000000e+00 +9.9999998558535719e-01
3.1000000000000014e+00 +7.9197280497723979e+00 +0.0000000000000000e+00 +3.0999999840952928e+00 -1.7545161508193056e-04 +0.0000000000000000e+00 +9.9999998460836548e-01
3.2000000000000015e+00 +7.9197102216245776e+00 +0.0000000000000000e+00 +3.1999999825059451e+00 -1.8111134152880764e-04 +0.0000000000000000e+00 +9.9999998359934106e-01
3.3000000000000016e+00 +7.9196918275040478e+00 +0.0000000000000000e+00 +3.2999999808140932e+00 -1.8677106929480898e-04 +0.0000000000000000e+00 +9.9999998255828393e-01
3.4000000000000017e+00 +7.9196728674106698e+00 +0.0000000000000000e+00 +3.3999999790165338e+00 -1.9243079851665414e-04 +0.0000000000000000e+00 +9.9999998148519398e-01
3.5000000000000018e+00 +7.9196533413442909e+00 +0.0000000000000000e+00 +3.4999999771100638e+00 -1.9809052932998620e-04 +0.0000000000000000e+00 +9.9999998038007121e-01
3.6000000000000019e+00 +7.9196332493047459e+00 +0.0000000000000000e+00 +3.5999999750914800e+00 -2.0375026186937202e-04 +0.0000000000000000e+00 +9.9999997924291550e-01
3.7000000000000020e+00 +7.9196125912918554e+00 +0.0000000000000000e+00 +3.6999999729575790e+00 -2.0940999626830248e-04 +0.0000000000000000e+00 +9.9999997807372687e-01
3.8000000000000020e+00 +7.9195913673054266e+00 +0.0000000000000000e+00 +3.7999999707051577e+00 -2.1506973265919262e-04 +0.0000000000000000e+00 +9.9999997687250519e-01
3.9000000000000021e+00 +7.9195695773452535e+00 +0.0000000000000000e+00 +3.8999999683310125e+00 -2.2072947117338204e-04 +0.0000000000000000e+00 +9.9999997563925036e-01
4.0000000000000018e+00 +7.9195472214111167e+00 +0.0000000000000000e+00 +3.9999999658319401e+00 -2.2638921194113507e-04 +0.0000000000000000e+00 +9.9999997437396237e-01
4.1000000000000014e+00 +7.9195242995027852e+00 +0.0000000000000000e+00 +4.0999999632047368e+00 -2.3204895509143576e-04 +0.0000000000000000e+00 +9.9999997307664124e-01
4.2000000000000011e+00 +7.9195008116200150e+00 +0.0000000000000000e+00 +4.1999999604461999e+00 -2.3770870074972934e-04 +0.0000000000000000e+00 +9.9999997174728672e-01
4.3000000000000007e+00 +7.9194767577625482e+00 +0.0000000000000000e+00 +4.2999999575531263e+00 -2.4336844903566333e-04 +0.0000000000000000e+00 +9.9999997038589894e-01
4.4000000000000004e+00 +7.9194521379301168e+00 +0.0000000000000000e+00 +4.3999999545223121e+00 -2.4902820006288151e-04 +0.0000000000000000e+00 +9.9999996899247767e-01
4.5000000000000000e+00 +7.9194269521224410e+00 +0.0000000000000000e+00 +4.4999999513505538e+00 -2.5468795393902355e-04 +0.0000000000000000e+00 +9.9999996756702292e-01
4.5999999999999996e+00 +7.9194012003392311e+00 +0.0000000000000000e+00 +4.5999999480346485e+00 -2.6034771076572429e-04 +0.0000000000000000e+00 +9.9999996610953457e-01
4.6999999999999993e+00 +7.9193748825801871e+00 +0.0000000000000000e+00 +4.6999999445713927e+00 -2.6600747063861306e-04 +0.0000000000000000e+00 +9.9999996462001250e-01
4.7999999999999989e+00 +7.9193479988449988e+00 +0.0000000000000000e+00 +4.7999999409575835e+00 -2.7166723364731299e-04 +0.0000000000000000e+00 +9.9999996309845673e-01
4.8999999999999986e+00 +7.9193205491333503e+00 +0.0000000000000000e+00 +4.8999999371900165e+00 -2.7732699987544036e-04 +0.0000000000000000e+00 +9.9999996154486714e-01
4.9999999999999982e+00 +7.9192925334449145e+00 +0.0000000000000000e+00 +4.9999999332654887e+00 -2.8298676940060377e-04 +0.0000000000000000e+00 +9.9999995995924373e-01
5.0999999999999979e+00 +7.9192639517793584e+00 +0.0000000000000000e+00 +5.0999999291807976e+00 -2.8864654229440327e-04 +0.0000000000000000e+00 +9.9999995834158628e-01
5.1999999999999975e+00 +7.9192348041363418e+00 +0.0000000000000000e+00 +5.1999999249327384e+00 -2.9430631862242975e-04 +0.0000000000000000e+00 +9.9999995669189479e-01
5.2999999999999972e+00 +7.9192050905155176e+00 +0.0000000000000000e+00 +5.2999999205181085e+00 -2.9996609844426379e-04 +0.0000000000000000e+00 +9.9999995501016925e-01
5.3999999999999968e+00 +7.9191748109165347e+00 +0.0000000000000000e+00 +5.3999999159337042e+00 -3.0562588181347490e-04 +0.0000000000000000e+00 +9.9999995329640945e-01
5.4999999999999964e+00 +7.9191439653390354e+00 +0.0000000000000000e+00 +5.4999999111763227e+00 -3.1128566877762053e-04 +0.0000000000000000e+00 +9.9999995155061538e-01
5.5999999999999961e+00 +7.9191125537826581e+00 +0.0000000000000000e+00 +5.5999999062427595e+00 -3.1694545937824509e-04 +0.0000000000000000e+00 +9.9999994977278694e-01
5.6999999999999957e+00 +7.9190805762470378e+00 +0.0000000000000000e+00 +5.6999999011298117e+00 -3.2260525365087895e-04 +0.0000000000000000e+00 +9.9999994796292413e-01
5.7999999999999954e+00 +7.9190480327318049e+00 +0.0000000000000000e+00 +5.7999998958342758e+00 -3.2826505162503731e-04 +0.0000000000000000e+00 +9.9999994612102683e-01
5.8999999999999950e+00 +7.9190149232365883e+00 +0.0000000000000000e+00 +5.8999998903529489e+00 -3.3392485332421910e-04 +0.0000000000000000e+00 +9.9999994424709493e-01
5.9999999999999947e+00 +7.9189812477610149e+00 +0.0000000000000000e+00 +5.9999998846826275e+00 -3.3958465876590590e-04 +0.0000000000000000e+00 +9.9999994234112843e-01
6.0999999999999943e+00 +7.9189470063047098e+00 +0.0000000000000000e+00 +6.0999998788201069e+00 -3.4524446796160428e-04 +0.0000000000000000e+00 +9.9999994040312723e-01
6.1999999999999940e+00 +7.9189121988672975e+00 +0.0000000000000000e+00 +6.1999998727621843e+00 -3.5090428091732350e-04 +0.0000000000000000e+00 +9.9999993843309121e-01
6.2999999999999936e+00 +7.9188768254484012e+00 +0.0000000000000000e+00 +6.2999998665056571e+00 -3.5656409763405429e-04 +0.0000000000000000e+00 +9.9999993643102036e-01
6.3999999999999932e+00 +7.9188408860476454e+00 +0.0000000000000000e+00 +6.3999998600473207e+00 -3.6222391810781292e-04 +0.0000000000000000e+00 +9.9999993439691470e-01
6.4999999999999929e+00 +7.9188043806646551e+00 +0.0000000000000000e+00 +6.4999998533839722e+00 -3.6788374232964215e-04 +0.0000000000000000e+00 +9.9999993233077400e-01
6.5999999999999925e+00 +7.9187673092990556e+00 +0.0000000000000000e+00 +6.5999998465124081e+00 -3.7354357028561186e-04 +0.0000000000000000e+00 +9.9999993023259837e-01
6.6999999999999922e+00 +7.9187296719504747e+00 +0.0000000000000000e+00 +6.6999998394294247e+00 -3.7920340195681993e-04 +0.0000000000000000e+00 +9.9999992810238769e-01
6.7999999999999918e+00 +7.9186914686185412e+00 +0.0000000000000000e+00 +6.7999998321318182e+00 -3.8486323731939308e-04 +0.0000000000000000e+00 +9.9999992594014186e-01
6.8999999999999915e+00 +7.9186526993028883e+00 +0.0000000000000000e+00 +6.8999998246163852e+00 -3.9052307634448779e-04 +0.0000000000000000e+00 +9.9999992374586089e-01
6.9999999999999911e+00 +7.9186133640031509e+00 +0.0000000000000000e+00 +6.9999998168799227e+00 -3.9618291899829128e-04 +0.0000000000000000e+00 +9.9999992151954464e-01
7.0999999999999908e+00 +7.9185734627189683e+00 +0.0000000000000000e+00 +7.0999998089192262e+00 -4.0184276524202244e-04 +0.0000000000000000e+00 +9.9999991926119314e-01
7.1999999999999904e+00 +7.9185329954499837e+00 +0.0000000000000000e+00 +7.1999998007310930e+00 -4.0750261503193284e-04 +0.0000000000000000e+00 +9.9999991697080626e-01
7.2999999999999901e+00 +7.9184919621958452e+00 +0.0000000000000000e+00 +7.2999997923123194e+00 -4.1316246831930793e-04 +0.0000000000000000e+00 +9.9999991464838411e-01
7.3999999999999897e+00 +7.9184503629562055e+00 +0.0000000000000000e+00 +7.3999997836597018e+00 -4.1882232505046800e-04 +0.0000000000000000e+00 +9.9999991229392660e-01
7.4999999999999893e+00 +7.9184081977307228e+00 +0.0000000000000000e+00 +7.4999997747700364e+00 -4.2448218516676935e-04 +0.0000000000000000e+00 +9.9999990990743359e-01
7.5999999999999890e+00 +7.9183654665190613e+00 +0.0000000000000000e+00 +7.5999997656401206e+00 -4.3014204860460559e-04 +0.0000000000000000e+00 +9.9999990748890510e-01
7.6999999999999886e+00 +7.9183221693208932e+00 +0.0000000000000000e+00 +7.6999997562667497e+00 -4.3580191529540878e-04 +0.0000000000000000e+00 +9.9999990503834113e-01
7.7999999999999883e+00 +7.9182783061358961e+00 +0.0000000000000000e+00 +7.7999997466467210e+00 -4.4146178516565068e-04 +0.0000000000000000e+00 +9.9999990255574167e-01
7.8999999999999879e+00 +7.9182338769637566e+00 +0.0000000000000000e+00 +7.8999997367768300e+00 -4.4712165813684421e-04 +0.0000000000000000e+00 +9.9999990004110673e-01
7.9999999999999876e+00 +7.9181888818041681e+00 +0.0000000000000000e+00 +7.9999997266538738e+00 -4.5278153412554460e-04 +0.0000000000000000e+00 +9.9999989749443619e-01
8.0999999999999872e+00 +7.9181433206568341e+00 +0.0000000000000000e+00 +8.0999997162746489e+00 -4.5844141304391664e-04 +0.0000000000000000e+00 +9.9999989491573016e-01
8.1999999999999869e+00 +7.9180971935214650e+00 +0.0000000000000000e+00 +8.1999997056359515e+00 -4.6410129480595826e-04 +0.0000000000000000e+00 +9.9999989230498854e-01
8.2999999999999865e+00 +7.9180505003977810e+00 +0.0000000000000000e+00 +8.2999996947345789e+00 -4.6976117933372362e-04 +0.0000000000000000e+00 +9.9999988966221132e-01
8.3999999999999861e+00 +7.9180032412855086e+00 +0.0000000000000000e+00 +8.3999996835673265e+00 -4.7542106655788883e-04 +0.0000000000000000e+00 +9.9999988698739861e-01
8.4999999999999858e+00 +7.9179554161843813e+00 +0.0000000000000000e+00 +8.4999996721309916e+00 -4.8108095641775234e-04 +0.0000000000000000e+00 +9.9999988428055020e-01
8.5999999999999854e+00 +7.9179070250941388e+00 +0.0000000000000000e+00 +8.5999996604223696e+00 -4.8674084886123477e-04 +0.0000000000000000e+00 +9.9999988154166619e-01
8.6999999999999851e+00 +7.9178580680145245e+00 +0.0000000000000000e+00 +8.6999996484382578e+00 -4.9240074384487929e-04 +0.0000000000000000e+00 +9.9999987877074659e-01
8.7999999999999847e+00 +7.9178085449452862e+00 +0.0000000000000000e+00 +8.7999996361754516e+00 -4.9806064133385152e-04 +0.0000000000000000e+00 +9.9999987596779127e-01
8.8999999999999844e+00 +7.9177584558861751e+00 +0.0000000000000000e+00 +8.8999996236307481e+00 -5.0372054130193972e-04 +0.0000000000000000e+00 +9.9999987313280025e-01
8.9999999999999840e+00 +7.9177078008369435e+00 +0.0000000000000000e+00 +8.9999996108009430e+00 -5.0938044373155522e-04 +0.0000000000000000e+00 +9.9999987026577353e-01
9.0999999999999837e+00 +7.9176565797973470e+00 +0.0000000000000000e+00 +9.0999995976828334e+00 -5.1504034861373209e-04 +0.0000000000000000e+00 +9.9999986736671098e-01
9.1999999999999833e+00 +7.9176047927671398e+00 +0.0000000000000000e+00 +9.1999995842732165e+00 -5.2070025594812752e-04 +0.0000000000000000e+00 +9.9999986443561262e-01
9.2999999999999829e+00 +7.9175524397460757e+00 +0.0000000000000000e+00 +9.2999995705688878e+00 -5.2636016574302187e-04 +0.0000000000000000e+00 +9.9999986147247844e-01
9.3999999999999826e+00 +7.9174995207339087e+00 +0.0000000000000000e+00 +9.3999995565666445e+00 -5.3202007801531883e-04 +0.0000000000000000e+00 +9.9999985847730832e-01
9.4999999999999822e+00 +7.9174460357303893e+00 +0.0000000000000000e+00 +9.4999995422632821e+00 -5.3767999279054552e-04 +0.0000000000000000e+00 +9.9999985545010228e-01
9.5999999999999819e+00 +7.9173919847352661e+00 +0.0000000000000000e+00 +9.5999995276555978e+00 -5.4333991010285278e-04 +0.0000000000000000e+00 +9.9999985239086020e-01
9.6999999999999815e+00 +7.9173373677482832e+00 +0.0000000000000000e+00 +9.6999995127403871e+00 -5.4899982999501498e-04 +0.0000000000000000e+00 +9.9999984929958208e-01
9.7999999999999812e+00 +7.9172821847691797e+00 +0.0000000000000000e+00 +9.7999994975144471e+00 -5.5465975251843026e-04 +0.0000000000000000e+00 +9.9999984617626769e-01
9.8999999999999808e+00 +7.9172264357976898e+00 +0.0000000000000000e+00 +9.8999994819745734e+00 -5.6031967773312091e-04 +0.0000000000000000e+00 +9.9999984302091716e-01
9.9999999999999805e+00 +7.9171701208335410e+00 +0.0000000000000000e+00 +9.9999994661175631e+00 -5.6597960570773309e-04 +0.0000000000000000e+00 +9.9999983983353025e-01
1.0099999999999980e+01 +7.9171132398764534e+00 +0.0000000000000000e+00 +1.0099999449940212e+01 -5.7163953651922193e-04 +0.0000000000000000e+00 +9.9999983661410696e-01
1.0199999999999980e+01 +7.9170557929261394e+00 +0.0000000000000000e+00 +1.0199999433439316e+01 -5.7729947024938357e-04 +0.0000000000000000e+00 +9.9999983336264708e-01
1.0299999999999979e+01 +7.9169977799823030e+00 +0.0000000000000000e+00 +1.0299999416611673e+01 -5.8295940698138650e-04 +0.0000000000000000e+00 +9.9999983007915061e-01
1.0399999999999979e+01 +7.9169392010446398e+00 +0.0000000000000000e+00 +1.0399999399454078e+01 -5.8861934679945598e-04 +0.0000000000000000e+00 +9.9999982676361743e-01
1.0499999999999979e+01 +7.9168800561128370e+00 +0.0000000000000000e+00 +1.0499999381963327e+01 -5.9427928978887309e-04 +0.0000000000000000e+00 +9.9999982341604743e-01
1.0599999999999978e+01 +7.9168203451865731e+00 +0.0000000000000000e+00 +1.0599999364136218e+01 -5.9993923603597447e-04 +0.0000000000000000e+00 +9.9999982003644050e-01
1.0699999999999978e+01 +7.9167600682655177e+00 +0.0000000000000000e+00 +1.0699999345969548e+01 -6.0559918562815148e-04 +0.0000000000000000e+00 +9.9999981662479653e-01
1.0799999999999978e+01 +7.9166992253493325e+00 +0.0000000000000000e+00 +1.0799999327460110e+01 -6.1125913865384953e-04 +0.0000000000000000e+00 +9.9999981318111542e-01
1.0899999999999977e+01 +7.9166378164376692e+00 +0.0000000000000000e+00 +1.0899999308604702e+01 -6.1691909520256735e-04 +0.0000000000000000e+00 +9.9999980970539704e-01
1.0999999999999977e+01 +7.9165758415301717e+00 +0.0000000000000000e+00 +1.0999999289400121e+01 -6.2257905536485642e-04 +0.0000000000000000e+00 +9.9999980619764128e-01
1.1099999999999977e+01 +7.9165133006264732e+00 +0.0000000000000000e+00 +1.1099999269843162e+01 -6.2823901923232022e-04 +0.0000000000000000e+00 +9.9999980265784805e-01
1.1199999999999976e+01 +7.9164501937261988e+00 +0.0000000000000000e+00 +1.1199999249930622e+01 -6.3389898689761336e-04 +0.0000000000000000e+00 +9.9999979908601722e-01
1.1299999999999976e+01 +7.9163865208289641e+00 +0.0000000000000000e+00 +1.1299999229659297e+01 -6.3955895845444095e-04 +0.0000000000000000e+00 +9.9999979548214857e-01
1.1399999999999975e+01 +7.9163222819343755e+00 +0.0000000000000000e+00 +1.1399999209025983e+01 -6.4521893399755782e-04 +0.0000000000000000e+00 +9.9999979184624210e-01
1.1499999999999975e+01 +7.9162574770420289e+00 +0.0000000000000000e+00 +1.1499999188027477e+01 -6.5087891362276763e-04 +0.0000000000000000e+00 +9.9999978817829760e-01
1.1599999999999975e+01 +7.9161921061515113e+00 +0.0000000000000000e+00 +1.1599999166660574e+01 -6.5653889742692229e-04 +0.0000000000000000e+00 +9.9999978447831495e-01
1.1699999999999974e+01 +7.9161261692624008e+00 +0.0000000000000000e+00 +1.1699999144922071e+01 -6.6219888550792091e-04 +0.0000000000000000e+00 +9.9999978074629403e-01
1.1799999999999974e+01 +7.9160596663742639e+00 +0.0000000000000000e+00 +1.1799999122808764e+01 -6.6785887796470898e-04 +0.0000000000000000e+00 +9.9999977698223474e-01
