# field on trajectory
# s[mm] rx[mm] ry[mm] rz[mm] bx[T] by[T] bz[T]
0.0000000000000000e+00 +8.1649999999999991e+00 +0.0000000000000000e+00 +0.0000000000000000e+00 -2.9736691787819215e-02 -5.3632881457888293e-01 +5.2974067463943753e-03
-1.0000000000000001e-01 +8.1649997171857223e+00 +0.0000000000000000e+00 -9.9999999999466765e-02 -2.9736501458517216e-02 -5.3632898682576824e-01 +5.2973483309058170e-03
-2.0000000000000001e-01 +8.1649988687427655e+00 +0.0000000000000000e+00 -1.9999999999573417e-01 -2.9736317488958761e-02 -5.3632917532705693e-01 +5.2972889803560522e-03
-3.0000000000000004e-01 +8.1649974546709299e+00 +0.0000000000000000e+00 -2.9999999998560289e-01 -2.9736140245283479e-02 -5.3632937856358631e-01 +5.2972290133094825e-03
-4.0000000000000002e-01 +8.1649954749700022e+00 +0.0000000000000000e+00 -3.9999999996587349e-01 -2.9735970093631395e-02 -5.3632959501618582e-01 +5.2971687483294371e-03
-5.0000000000000000e-01 +8.1649929296397534e+00 +0.0000000000000000e+00 -4.9999999993334665e-01 -2.9735807400143643e-02 -5.3632982316567734e-01 +5.2971085039783816e-03
-5.9999999999999998e-01 +8.1649898186799454e+00 +0.0000000000000000e+00 -5.9999999988482300e-01 -2.9735652530963212e-02 -5.3633006149287832e-01 +5.2970485988181144e-03
-6.9999999999999996e-01 +8.1649861420903243e+00 +0.0000000000000000e+00 -6.9999999981710315e-01 -2.9735505852235580e-02 -5.3633030847860230e-01 +5.2969893514099526e-03
-7.9999999999999993e-01 +8.1649818998706305e+00 +0.0000000000000000e+00 -7.9999999972698776e-01 -2.9735367730109496e-02 -5.3633056260366063e-01 +5.2969310803149391e-03
-8.9999999999999991e-01 +8.1649770920205977e+00 +0.0000000000000000e+00 -8.9999999961127730e-01 -2.9735238530737573e-02 -5.3633082234886453e-01 +5.2968741040940242e-03
-9.9999999999999989e-01 +8.1649717185399506e+00 +0.0000000000000000e+00 -9.9999999946677254e-01 -2.9735118620277071e-02 -5.3633108619502701e-01 +5.2968187413082709e-03
-1.0999999999999999e+00 +8.1649657794284121e+00 +0.0000000000000000e+00 -1.0999999992902740e+00 -2.9735008364890566e-02 -5.3633135262296328e-01 +5.2967653105190455e-03
-1.2000000000000000e+00 +8.1649592746857014e+00 +0.0000000000000000e+00 -1.1999999990785823e+00 -2.9734908130746626e-02 -5.3633162011349333e-01 +5.2967141302882065e-03
-1.3000000000000000e+00 +8.1649522043115379e+00 +0.0000000000000000e+00 -1.2999999988284980e+00 -2.9734818284020553e-02 -5.3633188714744429e-01 +5.2966655191783131e-03
-1.4000000000000001e+00 +8.1649445683056392e+00 +0.0000000000000000e+00 -1.3999999985368219e+00 -2.9734739190895046e-02 -5.3633215220564978e-01 +5.2966197957528133e-03
-1.5000000000000002e+00 +8.1649363666677264e+00 +0.0000000000000000e+00 -1.4999999982003542e+00 -2.9734671217560914e-02 -5.3633241376895446e-01 +5.2965772785762300e-03
-1.6000000000000003e+00 +8.1649275993975241e+00 +0.0000000000000000e+00 -1.5999999978158959e+00 -2.9734614730217775e-02 -5.3633267031821330e-01 +5.2965382862143681e-03
-1.7000000000000004e+00 +8.1649182664947606e+00 +0.0000000000000000e+00 -1.6999999973802471e+00 -2.9734570095074749e-02 -5.3633292033429458e-01 +5.2965031372345095e-03
-1.8000000000000005e+00 +8.1649083679591747e+00 +0.0000000000000000e+00 -1.7999999968902087e+00 -2.9734537678351144e-02 -5.3633316229808048e-01 +5.2964721502055884e-03
-1.9000000000000006e+00 +8.1648979037905107e+00 +0.0000000000000000e+00 -1.8999999963425813e+00 -2.9734517846277186e-02 -5.3633339469047003e-01 +5.2964456436984204e-03
-2.0000000000000004e+00 +8.1648868739885234e+00 +0.0000000000000000e+00 -1.9999999957341654e+00 -2.9734510965094670e-02 -5.3633361599237916e-01 +5.2964239362858602e-03
-2.1000000000000005e+00 +8.1648752785529819e+00 +0.0000000000000000e+00 -2.0999999950617614e+00 -2.9734517044497151e-02 -5.3633382509237038e-01 +5.2964072482765629e-03
-2.2000000000000006e+00 +8.1648631174836641e+00 +0.0000000000000000e+00 -2.1999999943221700e+00 -2.9734534667943933e-02 -5.3633402250952156e-01 +5.2963954069149659e-03
-2.3000000000000007e+00 +8.1648503907803622e+00 +0.0000000000000000e+00 -2.2999999935121918e+00 -2.9734562062333075e-02 -5.3633420917053465e-01 +5.2963881411794006e-03
-2.4000000000000008e+00 +8.1648370984428809e+00 +0.0000000000000000e+00 -2.3999999926286275e+00 -2.9734597454559916e-02 -5.3633438600210581e-01 +5.2963851800483311e-03
-2.5000000000000009e+00 +8.1648232404710335e+00 +0.0000000000000000e+00 -2.4999999916682771e+00 -2.9734639071516064e-02 -5.3633455393092466e-01 +5.2963862525002743e-03
-2.6000000000000010e+00 +8.1648088168646424e+00 +0.0000000000000000e+00 -2.5999999906279418e+00 -2.9734685140088354e-02 -5.3633471388367204e-01 +5.2963910875137177e-03
-2.7000000000000011e+00 +8.1647938276235408e+00 +0.0000000000000000e+00 -2.6999999895044220e+00 -2.9734733887157895e-02 -5.3633486678701914e-01 +5.2963994140670561e-03
-2.8000000000000012e+00 +8.1647782727475668e+00 +0.0000000000000000e+00 -2.7999999882945179e+00 -2.9734783539598977e-02 -5.3633501356762625e-01 +5.2964109611385131e-03
-2.9000000000000012e+00 +8.1647621522365661e+00 +0.0000000000000000e+00 -2.8999999869950304e+00 -2.9734832324278104e-02 -5.3633515515214136e-01 +5.2964254577060506e-03
-3.0000000000000013e+00 +8.1647454660903911e+00 +0.0000000000000000e+00 -2.9999999856027597e+00 -2.9734878468053005e-02 -5.3633529246719858e-01 +5.2964426327473113e-03
-3.1000000000000014e+00 +8.1647282143088962e+00 +0.0000000000000000e+00 -3.0999999841145067e+00 -2.9734920197771558e-02 -5.3633542643941723e-01 +5.2964622152395380e-03
-3.2000000000000015e+00 +8.1647103968919410e+00 +0.0000000000000000e+00 -3.1999999825270717e+00 -2.9734955740270838e-02 -5.3633555799540011e-01 +5.2964839341594922e-03
-3.3000000000000016e+00 +8.1646920138393870e+00 +0.0000000000000000e+00 -3.2999999808372555e+00 -2.9734983322376087e-02 -5.3633568806173160e-01 +5.2965075184833801e-03
-3.4000000000000017e+00 +8.1646730651510975e+00 +0.0000000000000000e+00 -3.3999999790418585e+00 -2.9735001170899698e-02 -5.3633581756497894e-01 +5.2965326971867871e-03
-3.5000000000000018e+00 +8.1646535508269356e+00 +0.0000000000000000e+00 -3.4999999771376809e+00 -2.9735007512640174e-02 -5.3633594743168678e-01 +5.2965591992445863e-03
-3.6000000000000019e+00 +8.1646334708667663e+00 +0.0000000000000000e+00 -3.5999999751215235e+00 -2.9735000574381203e-02 -5.3633607858837928e-01 +5.2965867536308780e-03
-3.7000000000000020e+00 +8.1646128252704511e+00 +0.0000000000000000e+00 -3.6999999729901871e+00 -2.9734978582890557e-02 -5.3633621196155679e-01 +5.2966150893188971e-03
-3.8000000000000020e+00 +8.1645916140378496e+00 +0.0000000000000000e+00 -3.7999999707404717e+00 -2.9734939764919133e-02 -5.3633634847769573e-01 +5.2966439352809648e-03
-3.9000000000000021e+00 +8.1645698371688198e+00 +0.0000000000000000e+00 -3.8999999683691784e+00 -2.9734882347199943e-02 -5.3633648906324660e-01 +5.2966730204883792e-03
-4.0000000000000018e+00 +8.1645474946632124e+00 +0.0000000000000000e+00 -3.9999999658731071e+00 -2.9734804556447059e-02 -5.3633663464463255e-01 +5.2967020739113670e-03
-4.1000000000000014e+00 +8.1645245865208746e+00 +0.0000000000000000e+00 -4.0999999632490587e+00 -2.9734705149467633e-02 -5.3633678587982170e-01 +5.2967308766906449e-03
-4.2000000000000011e+00 +8.1645011127416485e+00 +0.0000000000000000e+00 -4.1999999604938338e+00 -2.9734585003511799e-02 -5.3633694235305407e-01 +5.2967594186533106e-03
-4.3000000000000007e+00 +8.1644770733253704e+00 +0.0000000000000000e+00 -4.2999999576042329e+00 -2.9734445525949994e-02 -5.3633710338013740e-01 +5.2967877417992148e-03
-4.4000000000000004e+00 +8.1644524682718700e+00 +0.0000000000000000e+00 -4.3999999545770558e+00 -2.9734288124162164e-02 -5.3633726827687744e-01 +5.2968158881294700e-03
-4.5000000000000000e+00 +8.1644272975809749e+00 +0.0000000000000000e+00 -4.4999999514091042e+00 -2.9734114205538488e-02 -5.3633743635907882e-01 +5.2968438996465212e-03
-4.5999999999999996e+00 +8.1644015612525092e+00 +0.0000000000000000e+00 -4.5999999480971780e+00 -2.9733925177480181e-02 -5.3633760694254284e-01 +5.2968718183542193e-03
-4.6999999999999993e+00 +8.1643752592862935e+00 +0.0000000000000000e+00 -4.6999999446380771e+00 -2.9733722447400340e-02 -5.3633777934307147e-01 +5.2968996862578941e-03
-4.7999999999999989e+00 +8.1643483916821467e+00 +0.0000000000000000e+00 -4.7999999410286032e+00 -2.9733507422724625e-02 -5.3633795287646435e-01 +5.2969275453644141e-03
-4.8999999999999986e+00 +8.1643209584398857e+00 +0.0000000000000000e+00 -4.8999999372655560e+00 -2.9733281510892207e-02 -5.3633812685852178e-01 +5.2969554376822775e-03
-4.9999999999999982e+00 +8.1642929595593294e+00 +0.0000000000000000e+00 -4.9999999333457357e+00 -2.9733046119356343e-02 -5.3633830060504317e-01 +5.2969834052216599e-03
-5.0999999999999979e+00 +8.1642643950402949e+00 +0.0000000000000000e+00 -5.0999999292659437e+00 -2.9732802655585391e-02 -5.3633847343182828e-01 +5.2970114899945058e-03
-5.1999999999999975e+00 +8.1642352648826026e+00 +0.0000000000000000e+00 -5.1999999250229800e+00 -2.9732552527063430e-02 -5.3633864465467729e-01 +5.2970397340145869e-03
-5.2999999999999972e+00 +8.1642055690860715e+00 +0.0000000000000000e+00 -5.2999999206136446e+00 -2.9732297141291143e-02 -5.3633881358939084e-01 +5.2970681792975814e-03
-5.3999999999999968e+00 +8.1641753076505239e+00 +0.0000000000000000e+00 -5.3999999160347389e+00 -2.9732037905786560e-02 -5.3633897955177112e-01 +5.2970968678611348e-03
-5.4999999999999964e+00 +8.1641444805757857e+00 +0.0000000000000000e+00 -5.4999999112830631e+00 -2.9731776228085857e-02 -5.3633914185762188e-01 +5.2971258417249412e-03
-5.5999999999999961e+00 +8.1641130878616881e+00 +0.0000000000000000e+00 -5.5999999063554169e+00 -2.9731513515744174e-02 -5.3633929982274853e-01 +5.2971551429108069e-03
-5.6999999999999957e+00 +8.1640811295080642e+00 +0.0000000000000000e+00 -5.6999999012486020e+00 -2.9731251176336342e-02 -5.3633945276295814e-01 +5.2971848134427289e-03
-5.7999999999999954e+00 +8.1640486055147541e+00 +0.0000000000000000e+00 -5.7999998959594175e+00 -2.9730990617457723e-02 -5.3633959999406089e-01 +5.2972148953469500e-03
-5.8999999999999950e+00 +8.1640155158816050e+00 +0.0000000000000000e+00 -5.8999998904846649e+00 -2.9730733246725000e-02 -5.3633974083186930e-01 +5.2972454306520547e-03
-5.9999999999999947e+00 +8.1639818606084678e+00 +0.0000000000000000e+00 -5.9999998848211442e+00 -2.9730480471776909e-02 -5.3633987459219934e-01 +5.2972764613890165e-03
-6.0999999999999943e+00 +8.1639476396952038e+00 +0.0000000000000000e+00 -6.0999998789656562e+00 -2.9730233474024856e-02 -5.3634000090379452e-01 +5.2973080395716963e-03
-6.1999999999999940e+00 +8.1639128531416798e+00 +0.0000000000000000e+00 -6.1999998729150008e+00 -2.9729992529887807e-02 -5.3634012064711145e-01 +5.2973402571372145e-03
-6.2999999999999936e+00 +8.1638775009477715e+00 +0.0000000000000000e+00 -6.2999998666659796e+00 -2.9729757689523621e-02 -5.3634023501556272e-01 +5.2973732160026838e-03
-6.3999999999999932e+00 +8.1638415831133582e+00 +0.0000000000000000e+00 -6.3999998602153916e+00 -2.9729529003077276e-02 -5.3634034520259277e-01 +5.2974070180843999e-03
-6.4999999999999929e+00 +8.1638050996383242e+00 +0.0000000000000000e+00 -6.4999998535600385e+00 -2.9729306520680149e-02 -5.3634045240167993e-01 +5.2974417652977774e-03
-6.5999999999999925e+00 +8.1637680505225596e+00 +0.0000000000000000e+00 -6.5999998466967202e+00 -2.9729090292449356e-02 -5.3634055780633838e-01 +5.2974775595572721e-03
-6.6999999999999922e+00 +8.1637304357659524e+00 +0.0000000000000000e+00 -6.6999998396222367e+00 -2.9728880368487080e-02 -5.3634066261011804e-01 +5.2975145027763350e-03
-6.7999999999999918e+00 +8.1636922553683942e+00 +0.0000000000000000e+00 -6.7999998323333894e+00 -2.9728676798879829e-02 -5.3634076800660735e-01 +5.2975526968673343e-03
-6.8999999999999915e+00 +8.1636535093297748e+00 +0.0000000000000000e+00 -6.8999998248269785e+00 -2.9728479633697846e-02 -5.3634087518943485e-01 +5.2975922437415090e-03
-6.9999999999999911e+00 +8.1636141976499825e+00 +0.0000000000000000e+00 -6.9999998170998037e+00 -2.9728288922994329e-02 -5.3634098535226926e-01 +5.2976332453088864e-03
-7.0999999999999908e+00 +8.1635743203289017e+00 +0.0000000000000000e+00 -7.0999998091486667e+00 -2.9728104716804826e-02 -5.3634109968882193e-01 +5.2976758034782283e-03
-7.1999999999999904e+00 +8.1635338773664134e+00 +0.0000000000000000e+00 -7.1999998009703665e+00 -2.9727927065146501e-02 -5.3634121939284829e-01 +5.2977200201569704e-03
-7.2999999999999901e+00 +8.1634928687623933e+00 +0.0000000000000000e+00 -7.2999997925617048e+00 -2.9727756018017467e-02 -5.3634134565814851e-01 +5.2977659972511517e-03
-7.3999999999999897e+00 +8.1634512945167081e+00 +0.0000000000000000e+00 -7.3999997839194815e+00 -2.9727591625396087e-02 -5.3634147967857027e-01 +5.2978138366653526e-03
-7.4999999999999893e+00 +8.1634091546292193e+00 +0.0000000000000000e+00 -7.4999997750404974e+00 -2.9727433937240304e-02 -5.3634162264800800e-01 +5.2978636403026320e-03
-7.5999999999999890e+00 +8.1633664490997759e+00 +0.0000000000000000e+00 -7.5999997659215524e+00 -2.9727283003486964e-02 -5.3634177576040643e-01 +5.2979155100644649e-03
-7.6999999999999886e+00 +8.1633231779282180e+00 +0.0000000000000000e+00 -7.6999997565594471e+00 -2.9727138874051103e-02 -5.3634194020976178e-01 +5.2979695478506828e-03
-7.7999999999999883e+00 +8.1632793411143734e+00 +0.0000000000000000e+00 -7.7999997469509825e+00 -2.9727001598825253e-02 -5.3634211719012126e-01 +5.2980258555593955e-03
-7.8999999999999879e+00 +8.1632349386580572e+00 +0.0000000000000000e+00 -7.8999997370929584e+00 -2.9726871227678774e-02 -5.3634230789558690e-01 +5.2980845350869459e-03
-7.9999999999999876e+00 +8.1631899705590687e+00 +0.0000000000000000e+00 -7.9999997269821748e+00 -2.9726747810457199e-02 -5.3634251352031526e-01 +5.2981456883278294e-03
-8.0999999999999872e+00 +8.1631444368171930e+00 +0.0000000000000000e+00 -8.0999997166154323e+00 -2.9726631270228236e-02 -5.3634273505499852e-01 +5.2982093870975119e-03
-8.1999999999999869e+00 +8.1630983374321975e+00 +0.0000000000000000e+00 -8.1999997059895318e+00 -2.9726521023029175e-02 -5.3634297267626996e-01 +5.2982755828991160e-03
-8.2999999999999865e+00 +8.1630516724038333e+00 +0.0000000000000000e+00 -8.2999996951012740e+00 -2.9726416358148881e-02 -5.3634322635722442e-01 +5.2983441971536762e-03
-8.3999999999999861e+00 +8.1630044417318359e+00 +0.0000000000000000e+00 -8.3999996839474580e+00 -2.9726316564886453e-02 -5.3634349607093612e-01 +5.2984151512774297e-03
-8.4999999999999858e+00 +8.1629566454159210e+00 +0.0000000000000000e+00 -8.4999996725248845e+00 -2.9726220932551565e-02 -5.3634378179045850e-01 +5.2984883666816630e-03
-8.5999999999999854e+00 +8.1629082834557884e+00 +0.0000000000000000e+00 -8.5999996608303544e+00 -2.9726128750464900e-02 -5.3634408348882112e-01 +5.2985637647725674e-03
-8.6999999999999851e+00 +8.1628593558511220e+00 +0.0000000000000000e+00 -8.6999996488606683e+00 -2.9726039307958575e-02 -5.3634440113903048e-01 +5.2986412669510981e-03
-8.7999999999999847e+00 +8.1628098626015877e+00 +0.0000000000000000e+00 -8.7999996366126254e+00 -2.9725951894376552e-02 -5.3634473471406929e-01 +5.2987207946128372e-03
-8.8999999999999844e+00 +8.1627598037068356e+00 +0.0000000000000000e+00 -8.8999996240830264e+00 -2.9725865799075026e-02 -5.3634508418689353e-01 +5.2988022691478403e-03
-8.9999999999999840e+00 +8.1627091791664999e+00 +0.0000000000000000e+00 -8.9999996112686720e+00 -2.9725780311422853e-02 -5.3634544953043317e-01 +5.2988856119405084e-03
-9.0999999999999837e+00 +8.1626579889801949e+00 +0.0000000000000000e+00 -9.0999995981663613e+00 -2.9725694720801967e-02 -5.3634583071759057e-01 +5.2989707443694290e-03
-9.1999999999999833e+00 +8.1626062331475211e+00 +0.0000000000000000e+00 -9.1999995847728968e+00 -2.9725608316607775e-02 -5.3634622772123974e-01 +5.2990575878072484e-03
-9.2999999999999829e+00 +8.1625539116680628e+00 +0.0000000000000000e+00 -9.2999995710850758e+00 -2.9725520388249611e-02 -5.3634664051422465e-01 +5.2991460636205232e-03
-9.3999999999999826e+00 +8.1625010245413847e+00 +0.0000000000000000e+00 -9.3999995570997008e+00 -2.9725430225151096e-02 -5.3634706906935958e-01 +5.2992360931695742e-03
-9.4999999999999822e+00 +8.1624475717670375e+00 +0.0000000000000000e+00 -9.4999995428135708e+00 -2.9725337116750621e-02 -5.3634751335942632e-01 +5.2993275978083483e-03
-9.5999999999999819e+00 +8.1623935533445540e+00 +0.0000000000000000e+00 -9.5999995282234867e+00 -2.9725240352501677e-02 -5.3634797335717510e-01 +5.2994204988842794e-03
-9.6999999999999815e+00 +8.1623389692734492e+00 +0.0000000000000000e+00 -9.6999995133262473e+00 -2.9725139221873385e-02 -5.3634844903532253e-01 +5.2995147177381423e-03
-9.7999999999999812e+00 +8.1622838195532257e+00 +0.0000000000000000e+00 -9.7999994981186553e+00 -2.9725033014350821e-02 -5.3634894036654990e-01 +5.2996101757039130e-03
-9.8999999999999808e+00 +8.1622281041833649e+00 +0.0000000000000000e+00 -9.8999994825975079e+00 -2.9724921019435468e-02 -5.3634944732350431e-01 +5.2997067941086221e-03
-9.9999999999999805e+00 +8.1621718231633356e+00 +0.0000000000000000e+00 -9.9999994667596077e+00 -2.9724802526645666e-02 -5.3634996987879591e-01 +5.2998044942722186e-03
-1.0099999999999980e+01 +8.1621149764925889e+00 +0.0000000000000000e+00 -1.0099999450601754e+01 -2.9724677118155761e-02 -5.3635050768572801e-01 +5.2999032034295630e-03
-1.0199999999999980e+01 +8.1620575641705582e+00 +0.0000000000000000e+00 -1.0199999434120745e+01 -2.9724545546718478e-02 -5.3635105912046943e-01 +5.3000028725044678e-03
-1.0299999999999979e+01 +8.1619995861966643e+00 +0.0000000000000000e+00 -1.0299999417313384e+01 -2.9724408857716184e-02 -5.3635162223986954e-01 +5.3001034583561408e-03
-1.0399999999999979e+01 +8.1619410425703158e+00 +0.0000000000000000e+00 -1.0399999400176467e+01 -2.9724268096508914e-02 -5.3635219510073595e-01 +5.3002049178590823e-03
-1.0499999999999979e+01 +8.1618819332909105e+00 +0.0000000000000000e+00 -1.0499999382706799e+01 -2.9724124308433846e-02 -5.3635277575983409e-01 +5.3003072079034850e-03
-1.0599999999999978e+01 +8.1618222583578373e+00 +0.0000000000000000e+00 -1.0599999364901175e+01 -2.9723978538804683e-02 -5.3635336227388630e-01 +5.3004102853956396e-03
-1.0699999999999978e+01 +8.1617620177704797e+00 +0.0000000000000000e+00 -1.0699999346756398e+01 -2.9723831832911097e-02 -5.3635395269956920e-01 +5.3005141072583308e-03
-1.0799999999999978e+01 +8.1617012115282179e+00 +0.0000000000000000e+00 -1.0799999328269267e+01 -2.9723685236018167e-02 -5.3635454509351577e-01 +5.3006186304312428e-03
-1.0899999999999977e+01 +8.1616398396304302e+00 +0.0000000000000000e+00 -1.0899999309436582e+01 -2.9723539793365773e-02 -5.3635513751231101e-01 +5.3007238118713499e-03
-1.0999999999999977e+01 +8.1615779020764911e+00 +0.0000000000000000e+00 -1.0999999290255143e+01 -2.9723396550168087e-02 -5.3635572801249354e-01 +5.3008296085533257e-03
-1.1099999999999977e+01 +8.1615153988657827e+00 +0.0000000000000000e+00 -1.1099999270721751e+01 -2.9723256551612932e-02 -5.3635631465055311e-01 +5.3009359774699467e-03
-1.1199999999999976e+01 +8.1614523299976867e+00 +0.0000000000000000e+00 -1.1199999250833205e+01 -2.9723120842861227e-02 -5.3635689548292931e-01 +5.3010428756324812e-03
-1.1299999999999976e+01 +8.1613886954715937e+00 +0.0000000000000000e+00 -1.1299999230586305e+01 -2.9722990469046452e-02 -5.3635746856601252e-01 +5.3011502600710993e-03
-1.1399999999999975e+01 +8.1613244952869017e+00 +0.0000000000000000e+00 -1.1399999209977851e+01 -2.9722866475274012e-02 -5.3635803195614062e-01 +5.3012580878352691e-03
-1.1499999999999975e+01 +8.1612597294430191e+00 +0.0000000000000000e+00 -1.1499999189004644e+01 -2.9722749906620691e-02 -5.3635858370959888e-01 +5.3013663159941528e-03
-1.1599999999999975e+01 +8.1611943979393651e+00 +0.0000000000000000e+00 -1.1599999167663482e+01 -2.9722641808134082e-02 -5.3635912188262014e-01 +5.3014749016370103e-03
-1.1699999999999974e+01 +8.1611285007753747e+00 +0.0000000000000000e+00 -1.1699999145951164e+01 -2.9722543224832015e-02 -5.3635964453138107e-01 +5.3015838018736026e-03
