# multipoles
# s[mm] polynom_b[n=0][T/m^n] polynom_b[n=1][T/m^n] polynom_b[n=2][T/m^n] polynom_b[n=3][T/m^n] polynom_b[n=4][T/m^n] polynom_b[n=5][T/m^n] polynom_b[n=6][T/m^n] 
+0.0000000000000000e+00 -5.9234747082850470e-01 +8.1173975259927342e+00 +6.7418540003115235e-01 -1.3277375956196587e+02 -1.1364743739475327e+04 +5.6917052369920746e+05 +3.2294591577878110e+07 
+1.0000000000000001e-01 -5.9234752295968374e-01 +8.1173767002761394e+00 +6.8017579494248637e-01 -1.3230280725390546e+02 -1.1416600017517090e+04 +5.6633096704026475e+05 +3.2377769670654215e+07 
+2.0000000000000001e-01 -5.9234756393895638e-01 +8.1173543208406542e+00 +6.8523836756498668e-01 -1.3174693468076714e+02 -1.1457053633699701e+04 +5.6287916391434940e+05 +3.2424938625937276e+07 
+3.0000000000000004e-01 -5.9234759433300077e-01 +8.1173304464863474e+00 +6.8939915382142125e-01 -1.3111188971514304e+02 -1.1486357513761697e+04 +5.5886153119693685e+05 +3.2436765042449988e+07 
+4.0000000000000002e-01 -5.9234761470847441e-01 +8.1173051360114918e+00 +6.9268418637662987e-01 -1.3040342014559866e+02 -1.1504764518907015e+04 +5.5432448510839080e+05 +3.2413915217936222e+07 
+5.0000000000000000e-01 -5.9234762563202181e-01 +8.1172784482220770e+00 +6.9511949637004156e-01 -1.2962727397518057e+02 -1.1512527483775828e+04 +5.4931444301772944e+05 +3.2357055340178818e+07 
+5.9999999999999998e-01 -5.9234762767030025e-01 +8.1172504419323115e+00 +6.9673111519664543e-01 -1.2878919941605184e+02 -1.1509899239507933e+04 +5.4387782335233013e+05 +3.2266851565279189e+07 
+6.9999999999999996e-01 -5.9234762138994335e-01 +8.1172211759613440e+00 +6.9754507257010478e-01 -1.2789494482598741e+02 -1.1497132595341354e+04 +5.3806104532956693e+05 +3.2143969977909785e+07 
+7.9999999999999993e-01 -5.9234760735758396e-01 +8.1171907091302824e+00 +6.9758739705594930e-01 -1.2695025859762136e+02 -1.1474480334122847e+04 +5.3191052823589568e+05 +3.1989076529422171e+07 
+8.9999999999999991e-01 -5.9234758613985494e-01 +8.1171591002668997e+00 +6.9688411797777616e-01 -1.2596088931454283e+02 -1.1442195257257159e+04 +5.2547269240124931e+05 +3.1802837270263180e+07 
+9.9999999999999989e-01 -5.9234755830337193e-01 +8.1171264082029797e+00 +6.9546126225140659e-01 -1.2493258567475777e+02 -1.1400530120437181e+04 +5.1879395875357953e+05 +3.1585918033473160e+07 
+1.0999999999999999e+00 -5.9234752441477645e-01 +8.1170926917773283e+00 +6.9334486072427748e-01 -1.2387109657337292e+02 -1.1349737760950520e+04 +5.1192074928784254e+05 +3.1338985056140535e+07 
+1.2000000000000000e+00 -5.9234748504068069e-01 +8.1170580098254916e+00 +6.9056094098960852e-01 -1.2278217081110289e+02 -1.1290070956825060e+04 +5.0489948539750505e+05 +3.1062704295037653e+07 
+1.3000000000000000e+00 -5.9234744074771639e-01 +8.1170224211929973e+00 +6.8713553387520632e-01 -1.2167155749518440e+02 -1.1221782553174262e+04 +4.9777659025216493e+05 +3.0757742033286925e+07 
+1.4000000000000001e+00 -5.9234739210252907e-01 +8.1169859847250354e+00 +6.8309467245869904e-01 -1.2054500570817927e+02 -1.1145125443335381e+04 +4.9059848678161559e+05 +3.0424764789435856e+07 
+1.5000000000000002e+00 -5.9234733967173692e-01 +8.1169487592702581e+00 +6.7846438741195858e-01 -1.1940826466462561e+02 -1.1060352480847692e+04 +4.8341159872882714e+05 +3.0064438895656515e+07 
+1.6000000000000003e+00 -5.9234728402200609e-01 +8.1169108036823268e+00 +6.7327071624033630e-01 -1.1826708371796755e+02 -1.0967716657231975e+04 +4.7626235057388444e+05 +2.9677431350431733e+07 
+1.7000000000000004e+00 -5.9234722571997900e-01 +8.1168721768140255e+00 +6.6753969520828149e-01 -1.1712721222245152e+02 -1.0867470950114193e+04 +4.6919716683881951e+05 +2.9264409093960963e+07 
+1.8000000000000005e+00 -5.9234716533232934e-01 +8.1168329375210551e+00 +6.6129736499552494e-01 -1.1599439963250350e+02 -1.0759868426665069e+04 +4.6226247262719250e+05 +2.8826039491150707e+07 
+1.9000000000000006e+00 -5.9234710342573704e-01 +8.1167931446601553e+00 +6.5456976875532524e-01 -1.1487439544409372e+02 -1.0645162212049085e+04 +4.5550469327934430e+05 +2.8362990190891135e+07 
+2.0000000000000004e+00 -5.9234704056688992e-01 +8.1167528570926049e+00 +6.4738295223777254e-01 -1.1377294932678588e+02 -1.0523605490822138e+04 +4.4897025522256427e+05 +2.7875929129411496e+07 
+2.1000000000000005e+00 -5.9234697726442387e-01 +8.1167121488450267e+00 +6.3976463601157496e-01 -1.1269503235547067e+02 -1.0395537298970712e+04 +4.4269720755107683e+05 +2.7365968090479024e+07 
+2.2000000000000006e+00 -5.9234691378688320e-01 +8.1166711522266741e+00 +6.3174791324429824e-01 -1.1164242515502605e+02 -1.0261627961883163e+04 +4.3668979569588858e+05 +2.6835995561746854e+07 
+2.3000000000000007e+00 -5.9234685034080270e-01 +8.1166300135084590e+00 +6.2336689072707963e-01 -1.1061609033058045e+02 -1.0122627681297859e+04 +4.3094372854827490e+05 +2.6289344900189355e+07 
+2.4000000000000008e+00 -5.9234678713271316e-01 +8.1165888789627960e+00 +6.1465567404137089e-01 -1.0961699047698529e+02 -9.9792866316177769e+03 +4.2545471478458616e+05 +2.5729349321621012e+07 
+2.5000000000000009e+00 -5.9234672436918312e-01 +8.1165478948654961e+00 +6.0564837320913367e-01 -1.0864608825239360e+02 -9.8323550693486868e+03 +4.2021846334724472e+05 +2.5159342425987020e+07 
+2.6000000000000010e+00 -5.9234666225675958e-01 +8.1165072074812397e+00 +5.9637909481454765e-01 -1.0770434593410853e+02 -9.6825831805661473e+03 +4.1523068080788309e+05 +2.4582657466358420e+07 
+2.7000000000000011e+00 -5.9234660100202008e-01 +8.1164669630877899e+00 +5.8688194872820565e-01 -1.0679272613410102e+02 -9.5307212076523774e+03 +4.1048707556325966e+05 +2.4002627947801806e+07 
+2.8000000000000012e+00 -5.9234654081154758e-01 +8.1164273079480829e+00 +5.7719104469088822e-01 -1.0591219095325624e+02 -9.3775193861230346e+03 +4.0598335282613564e+05 +2.3422587335133068e+07 
+2.9000000000000012e+00 -5.9234648189192463e-01 +8.1163883883345118e+00 +5.6734049145263776e-01 -1.0506370271732906e+02 -9.2237279240574790e+03 +4.0171521899661125e+05 +2.2845868942790158e+07 
+3.0000000000000013e+00 -5.9234642444977215e-01 +8.1163503505116523e+00 +5.5736440166099088e-01 -1.0424822345427317e+02 -9.0700970973615968e+03 +3.9767837856725248e+05 +2.2275806395322260e+07 
+3.1000000000000014e+00 -5.9234636869168522e-01 +8.1163133407433286e+00 +5.4729688361606221e-01 -1.0346671508297081e+02 -8.9173770901263742e+03 +3.9386853517425095e+05 +2.1715732861982621e+07 
+3.2000000000000015e+00 -5.9234631482430822e-01 +8.1162775052953045e+00 +5.3717205016459679e-01 -1.0272013950629066e+02 -8.7663181606020953e+03 +3.9028139218710706e+05 +2.1168981838143565e+07 
+3.3000000000000016e+00 -5.9234626305426641e-01 +8.1162429904219362e+00 +5.2702401098673290e-01 -1.0200945820673810e+02 -8.6176705009609814e+03 +3.8691265032498934e+05 +2.0638886496437293e+07 
+3.4000000000000017e+00 -5.9234621358820438e-01 +8.1162099423815643e+00 +5.1688687636398600e-01 -1.0133563270390820e+02 -8.4721842994056224e+03 +3.8375801033565722e+05 +2.0128779956897028e+07 
+3.5000000000000018e+00 -5.9234616663281392e-01 +8.1161785074291259e+00 +5.0679476085354602e-01 -1.0069962430883889e+02 -8.3306098150952203e+03 +3.8081317149080324e+05 +1.9641995659817014e+07 
+3.6000000000000019e+00 -5.9234612239474649e-01 +8.1161488318131294e+00 +4.9678177255737749e-01 -1.0010239405142235e+02 -8.1936971723376373e+03 +3.7807383121488523e+05 +1.9181866380335473e+07 
+3.7000000000000020e+00 -5.9234608108070541e-01 +8.1161210617770791e+00 +4.8688202417721271e-01 -9.9544902718434471e+01 -8.0621965662017155e+03 +3.7553568529527774e+05 +1.8751725195337869e+07 
+3.8000000000000020e+00 -5.9234604289739523e-01 +8.1160953435658758e+00 +4.7712962676872878e-01 -9.9028111016402974e+01 -7.9368581499030533e+03 +3.7319442877223395e+05 +1.8354904968191959e+07 
+3.9000000000000021e+00 -5.9234600805154114e-01 +8.1160718234154920e+00 +4.6755869173953174e-01 -9.8552979285850128e+01 -7.8184320642962803e+03 +3.7104575432215043e+05 +1.7994738463607032e+07 
+4.0000000000000018e+00 -5.9234597674987000e-01 +8.1160506475591383e+00 +4.5820332853687123e-01 -9.8120467669729976e+01 -7.7076683965585435e+03 +3.6908535322370386e+05 +1.7674558162094083e+07 
+4.1000000000000014e+00 -5.9234594924178419e-01 +8.1160319154131351e+00 +4.4909417490701642e-01 -9.7731079440137549e+01 -7.6051393493909154e+03 +3.6730874239810865e+05 +1.7396693190223195e+07 
+4.2000000000000011e+00 -5.9234592595160240e-01 +8.1160155474754880e+00 +4.4024982896160902e-01 -9.7383838744791973e+01 -7.5107290833165544e+03 +3.6571246710345894e+05 +1.7159518962968990e+07 
+4.3000000000000007e+00 -5.9234590734840153e-01 +8.1160014215775771e+00 +4.3168632247845307e-01 -9.7077488375616014e+01 -7.4241549350026107e+03 +3.6429377546913608e+05 +1.6960433936687212e+07 
+4.4000000000000004e+00 -5.9234589390124592e-01 +8.1159894155351200e+00 +4.2341968704992916e-01 -9.6810770787414199e+01 -7.3451342456464263e+03 +3.6304991415954335e+05 +1.6796836607618019e+07 
+4.5000000000000000e+00 -5.9234588607919569e-01 +8.1159794071591094e+00 +4.1546595344297699e-01 -9.6582428423335926e+01 -7.2733843354111514e+03 +3.6197813032187108e+05 +1.6666125350335237e+07 
+4.5999999999999996e+00 -5.9234588435133806e-01 +8.1159712742497376e+00 +4.0784115782075397e-01 -9.6391203510570833e+01 -7.2086226405257148e+03 +3.6107567031593370e+05 +1.6565699123532413e+07 
+4.6999999999999993e+00 -5.9234588918673592e-01 +8.1159648945982923e+00 +4.0056133269619421e-01 -9.6235838174032565e+01 -7.1505665215507861e+03 +3.6033978056357836e+05 +1.6492956502909226e+07 
+4.7999999999999989e+00 -5.9234590105442841e-01 +8.1159601459869464e+00 +3.9364251004018641e-01 -9.6115074401500124e+01 -7.0989333423003054e+03 +3.5976770725607738e+05 +1.6445296107411981e+07 
+4.8999999999999986e+00 -5.9234592042348766e-01 +8.1159569061858292e+00 +3.8710072617618552e-01 -9.6027653981003795e+01 -7.0534405489564533e+03 +3.5935669608269568e+05 +1.6420116941142593e+07 
+4.9999999999999982e+00 -5.9234594776295557e-01 +8.1159550529550533e+00 +3.8095201479005908e-01 -9.5972318568025827e+01 -7.0138055441100787e+03 +3.5910399264278472e+05 +1.6414817810977457e+07 
+5.0999999999999979e+00 -5.9234598354188228e-01 +8.1159544640395733e+00 +3.7521241195828192e-01 -9.5947809547890927e+01 -6.9797457812949451e+03 +3.5900684169375972e+05 +1.6426797772585230e+07 
+5.1999999999999975e+00 -5.9234602822928917e-01 +8.1159550171782797e+00 +3.6989795118389918e-01 -9.5952868299248493e+01 -6.9509786720781422e+03 +3.5906248868667078e+05 +1.6453455693796284e+07 
+5.2999999999999972e+00 -5.9234608229422059e-01 +8.1159565900923738e+00 +3.6502467018367557e-01 -9.5986235878728408e+01 -6.9272217119525812e+03 +3.5926817800856580e+05 +1.6492190841662331e+07 
+5.3999999999999968e+00 -5.9234614620567605e-01 +8.1159590604974809e+00 +3.6060860246407106e-01 -9.6046653368440118e+01 -6.9081923257814342e+03 +3.5962115499884490e+05 +1.6540402165035181e+07 
+5.4999999999999964e+00 -5.9234622043270613e-01 +8.1159623060854518e+00 +3.5666578959319545e-01 -9.6132861354618797e+01 -6.8936080988535123e+03 +3.6011866294819111e+05 +1.6595489385125548e+07 
+5.5999999999999961e+00 -5.9234630544427591e-01 +8.1159662045446179e+00 +3.5321226345690243e-01 -9.6243600545903860e+01 -6.8831864391562067e+03 +3.6075794679224631e+05 +1.6654851389396625e+07 
+5.6999999999999957e+00 -5.9234640170938080e-01 +8.1159706335438297e+00 +3.5026406172240199e-01 -9.6377611293984998e+01 -6.8766448729590365e+03 +3.6153625028016831e+05 +1.6715887639722468e+07 
+5.7999999999999954e+00 -5.9234650969702241e-01 +8.1159754707392455e+00 +3.4783722406311912e-01 -9.6533633810317525e+01 -6.8737009716620942e+03 +3.6245081730634515e+05 +1.6775997821598824e+07 
+5.8999999999999950e+00 -5.9234662987616027e-01 +8.1159805937681480e+00 +3.4594778715051794e-01 -9.6710408003253121e+01 -6.8740722613924181e+03 +3.6349889102042757e+05 +1.6832581425609719e+07 
+5.9999999999999947e+00 -5.9234676271575804e-01 +8.1159858802600091e+00 +3.4461178959351713e-01 -9.6906673794830340e+01 -6.8774763143571108e+03 +3.6467771564406384e+05 +1.6883038175632454e+07 
+6.0999999999999943e+00 -5.9234690852431615e-01 +8.1159912237180798e+00 +3.4383997887181150e-01 -9.7121335322732349e+01 -6.8837265648086304e+03 +3.6598479124329647e+05 +1.6925706067495037e+07 
+6.1999999999999940e+00 -5.9234706696670925e-01 +8.1159965645953900e+00 +3.4362111711245247e-01 -9.7353121743668652e+01 -6.8930122278891977e+03 +3.6741338613360398e+05 +1.6962666794839568e+07 
+6.2999999999999936e+00 -5.9234723754621810e-01 +8.1160018509173089e+00 +3.4393827456079878e-01 -9.7600507668110438e+01 -6.9056160174137594e+03 +3.6895437644269707e+05 +1.6996945832807370e+07 
+6.3999999999999932e+00 -5.9234741976613892e-01 +8.1160070307212724e+00 +3.4477452427857858e-01 -9.7861967925191806e+01 -6.9218207066597515e+03 +3.7059863889601995e+05 +1.7031568955296632e+07 
+6.4999999999999929e+00 -5.9234761312972573e-01 +8.1160120520548684e+00 +3.4611293421495665e-01 -9.8135977505697994e+01 -6.9419089728713516e+03 +3.7233705044106988e+05 +1.7069561485160690e+07 
+6.5999999999999925e+00 -5.9234781714026663e-01 +8.1160168629750906e+00 +3.4793657658594940e-01 -9.8421011528289569e+01 -6.9661635738214973e+03 +3.7416048800320725e+05 +1.7113949129104037e+07 
+6.6999999999999922e+00 -5.9234803130099045e-01 +8.1160214115565292e+00 +3.5022851670081773e-01 -9.8715545484840533e+01 -6.9948671398664510e+03 +3.7605982990792755e+05 +1.7167757000965677e+07 
+6.7999999999999918e+00 -5.9234825511514388e-01 +8.1160256458833171e+00 +3.5297182211122441e-01 -9.9018054982668460e+01 -7.0283023427993139e+03 +3.7802595430474461e+05 +1.7234010410200991e+07 
+6.8999999999999915e+00 -5.9234848808594842e-01 +8.1160295140554446e+00 +3.5614955788999891e-01 -9.9327015934022754e+01 -7.0667518117571808e+03 +3.8004974026638694e+05 +1.7315734478857812e+07 
+6.9999999999999911e+00 -5.9234872971661889e-01 +8.1160329641885216e+00 +3.5974478815725702e-01 -9.9640904534234892e+01 -7.1104981578278321e+03 +3.8212206759739231e+05 +1.7415954247251067e+07 
+7.0999999999999908e+00 -5.9234897951035592e-01 +8.1160359444077272e+00 +3.6374057554231953e-01 -9.9958197093763815e+01 -7.1598239637522438e+03 +3.8423381587672519e+05 +1.7537694622284047e+07 
+7.1999999999999904e+00 -5.9234923697033504e-01 +8.1160384028599317e+00 +3.6811998008542529e-01 -1.0027737034975534e+02 -7.2150117678566967e+03 +3.8637586611669959e+05 +1.7683980317320928e+07 
+7.2999999999999901e+00 -5.9234950159972088e-01 +8.1160402877053990e+00 +3.7286606049896304e-01 -1.0059690126594343e+02 -7.2763440832254573e+03 +3.8853909972121113e+05 +1.7857835929233465e+07 
+7.3999999999999897e+00 -5.9234977290167024e-01 +8.1160415471239347e+00 +3.7796187491700528e-01 -1.0091526715977750e+02 -7.3441034140440479e+03 +3.9071439903695288e+05 +1.8062286021205794e+07 
+7.4999999999999893e+00 -5.9235005037933064e-01 +8.1160421293072709e+00 +3.8339047996787767e-01 -1.0123094550346291e+02 -7.4185722338731939e+03 +3.9289264627194911e+05 +1.8300355010949388e+07 
+7.5999999999999890e+00 -5.9235033353581024e-01 +8.1160419824747834e+00 +3.8913492870928940e-01 -1.0154241435913121e+02 -7.5000329576146378e+03 +3.9506472591900156e+05 +1.8575067064419128e+07 
+7.6999999999999886e+00 -5.9235062187421705e-01 +8.1160410548560336e+00 +3.9517827347333018e-01 -1.0184815187207900e+02 -7.5887679814462072e+03 +3.9722152181458072e+05 +1.8889446251026414e+07 
+7.7999999999999883e+00 -5.9235091489762592e-01 +8.1160392947047235e+00 +4.0150356329946052e-01 -1.0214663666681008e+02 -7.6850596446867576e+03 +3.9935391938570916e+05 +1.9246516389097445e+07 
+7.8999999999999879e+00 -5.9235121210912478e-01 +8.1160366502916776e+00 +4.0809384869548498e-01 -1.0243634762962969e+02 -7.7891903134680706e+03 +4.0145280434000934e+05 +1.9649301426538847e+07 
+7.9999999999999876e+00 -5.9235151301173916e-01 +8.1160330699112961e+00 +4.1493217276892141e-01 -1.0271576407555646e+02 -7.9014422127235748e+03 +4.0350906356855639e+05 +2.0100824641976286e+07 
+8.0999999999999872e+00 -5.9235181708725404e-01 +8.1160285306659379e+00 +4.2199936440044400e-01 -1.0298381413560476e+02 -8.0219209259449171e+03 +4.0551514335930994e+05 +2.0602883616982155e+07 
+8.1999999999999869e+00 -5.9235212373164492e-01 +8.1160231414983635e+00 +4.2926559684770116e-01 -1.0324217263696204e+02 -8.1499920665735735e+03 +4.0747604420416657e+05 +2.1152232518662810e+07 
+8.2999999999999865e+00 -5.9235243231960677e-01 +8.1160170486442400e+00 +4.3669792429486570e-01 -1.0349344288340394e+02 -8.2848257188958341e+03 +4.0940149978605635e+05 +2.1744313305604972e+07 
+8.3999999999999861e+00 -5.9235274222584910e-01 +8.1160103983326657e+00 +4.4426340152034144e-01 -1.0374022809759198e+02 -8.4255919575878852e+03 +4.1130124382317957e+05 +2.2374567835262835e+07 
+8.4999999999999858e+00 -5.9235305282511930e-01 +8.1160033367983360e+00 +4.5192908530455067e-01 -1.0398513174966010e+02 -8.5714608695018032e+03 +4.1318501197322563e+05 +2.3038437956507064e+07 
+8.5999999999999854e+00 -5.9235336349213863e-01 +8.1159960102724700e+00 +4.5966202785308546e-01 -1.0423075729243821e+02 -8.7216024367546106e+03 +4.1506254029630451e+05 +2.3731364973614451e+07 
+8.6999999999999851e+00 -5.9235367360171420e-01 +8.1159885649911683e+00 +4.6742928919017246e-01 -1.0447970842734853e+02 -8.8751867627774900e+03 +4.1694356686714140e+05 +2.4448790696832076e+07 
+8.7999999999999847e+00 -5.9235398252863669e-01 +8.1159811471894479e+00 +4.7519792585645387e-01 -1.0473458891867637e+02 -9.0313838653751882e+03 +4.1883783068227553e+05 +2.5186156478720449e+07 
+8.8999999999999844e+00 -5.9235428964772896e-01 +8.1159739031040310e+00 +4.8293499621492197e-01 -1.0499800266441571e+02 -9.1893637735485463e+03 +4.2075507204766158e+05 +2.5938903664158404e+07 
+8.9999999999999840e+00 -5.9235459433386395e-01 +8.1159669789707500e+00 +4.9060756201968858e-01 -1.0527255365470802e+02 -9.3482965518736673e+03 +4.2270503244030860e+05 +2.6702473691897556e+07 
+9.0999999999999837e+00 -5.9235489596190205e-01 +8.1159605210251637e+00 +4.9818268188671810e-01 -1.0556084597556504e+02 -9.5073521852135818e+03 +4.2469745450439083e+05 +2.7472307569843564e+07 
+9.1999999999999833e+00 -5.9235519390677760e-01 +8.1159546755048559e+00 +5.0562742070824962e-01 -1.0586548387780802e+02 -9.6657007487531373e+03 +4.2674208246329898e+05 +2.8243846660338912e+07 
+9.2999999999999829e+00 -5.9235548754341427e-01 +8.1159495886507642e+00 +5.1290883989791181e-01 -1.0618907182563565e+02 -9.8225122268608011e+03 +4.2884866244248324e+05 +2.9012531829745859e+07 
+9.3999999999999826e+00 -5.9235577624679037e-01 +8.1159454066976959e+00 +5.1999400536795581e-01 -1.0653421421774468e+02 -9.9769566628448629e+03 +4.3102694084837887e+05 +2.9773804155135687e+07 
+9.4999999999999822e+00 -5.9235605939190272e-01 +8.1159422758879920e+00 +5.2684998240817416e-01 -1.0690351580351624e+02 -1.0128204059068783e+04 +4.3328666684984247e+05 +3.0523104444362178e+07 
+9.5999999999999819e+00 -5.9235633635377838e-01 +8.1159403424566037e+00 +5.3344383752568614e-01 -1.0729958121623744e+02 -1.0275424413212007e+04 +4.3563758958383428e+05 +3.1255873409781042e+07 
+9.6999999999999815e+00 -5.9235660650748623e-01 +8.1159397526493731e+00 +5.3974264006941242e-01 -1.0772501555855422e+02 -1.0417787749101512e+04 +4.3808946172084770e+05 +3.1967551816617724e+07 
+9.7999999999999812e+00 -5.9235686922811970e-01 +8.1159406527022124e+00 +5.4571345932775461e-01 -1.0818242375675557e+02 -1.0554464058026913e+04 +4.4065203560206085e+05 +3.2653580193151731e+07 
+9.8999999999999808e+00 -5.9235712389081119e-01 +8.1159431888563613e+00 +5.5132336711536656e-01 -1.0867441103462045e+02 -1.0684623352302076e+04 +4.4333506609721098e+05 +3.3309399098290481e+07 
+9.9999999999999805e+00 -5.9235736987071030e-01 +8.1159475073523684e+00 +5.5653943395373551e-01 -1.0920358277145721e+02 -1.0807435591345657e+04 +4.4614830998083472e+05 +3.3930448781683430e+07 
+1.0099999999999980e+01 -5.9235760676781390e-01 +8.1159537007635834e+00 +5.6133156061711964e-01 -1.0977144716582035e+02 -1.0922134516189482e+04 +4.4909766902061336e+05 +3.4512591230076224e+07 
