# multipoles
# s[mm] polynom_b[n=0][T/m^n] polynom_b[n=1][T/m^n] polynom_b[n=2][T/m^n] polynom_b[n=3][T/m^n] polynom_b[n=4][T/m^n] polynom_b[n=5][T/m^n] polynom_b[n=6][T/m^n] 
+0.0000000000000000e+00 -5.6526740230015038e-01 +7.7425158431446324e+00 -5.5794247293109511e-01 -1.3184931327264199e+01 +8.3044043121932118e+03 -8.1462763773304134e+04 -4.7579048247352593e+07 
+1.0000000000000001e-01 -5.6526775931487205e-01 +7.7425138555738195e+00 -5.6574963950943569e-01 -1.2984760944265657e+01 +8.3959944218097589e+03 -8.1499980167152156e+04 -4.7913302387767240e+07 
+2.0000000000000001e-01 -5.6526812331542997e-01 +7.7425128651209381e+00 -5.7321130406759990e-01 -1.2787460704661898e+01 +8.4858477537775398e+03 -8.1534084747133078e+04 -4.8251264484071732e+07 
+3.0000000000000004e-01 -5.6526849488090114e-01 +7.7425128126751064e+00 -5.8031295606238009e-01 -1.2592377538111300e+01 +8.5736263784482035e+03 -8.1571415155144176e+04 -4.8591179265687764e+07 
+4.0000000000000002e-01 -5.6526887459039343e-01 +7.7425136391194345e+00 -5.8704008122905760e-01 -1.2398858230544780e+01 +8.6589922940495289e+03 -8.1618309732718757e+04 -4.8931291112359039e+07 
+5.0000000000000000e-01 -5.6526926302299552e-01 +7.7425152853386416e+00 -5.9337816833184320e-01 -1.2206249643804204e+01 +8.7416075597438139e+03 -8.1681106251553487e+04 -4.9269844701190993e+07 
+5.9999999999999998e-01 -5.6526966075780938e-01 +7.7425176922085130e+00 -5.9931270465508601e-01 -1.2013898408433938e+01 +8.8211342059639101e+03 -8.1766143700691493e+04 -4.9605084568511769e+07 
+6.9999999999999996e-01 -5.6527006837393434e-01 +7.7425208006048098e+00 -6.0482917799695268e-01 -1.1821151180377406e+01 +8.8972342730331784e+03 -8.1879760808026156e+04 -4.9935255294187963e+07 
+7.9999999999999993e-01 -5.6527048645046207e-01 +7.7425245513988745e+00 -6.0991307778657167e-01 -1.1627354517235913e+01 +8.9695698375749853e+03 -8.2028296753706367e+04 -5.0258601643346891e+07 
+8.9999999999999991e-01 -5.6527091556651832e-01 +7.7425288854599303e+00 -6.1454988909134756e-01 -1.1431854928670083e+01 +9.0378028898214725e+03 -8.2218090925153127e+04 -5.0573367955440074e+07 
+9.9999999999999989e-01 -5.6527135630117842e-01 +7.7425337436477770e+00 -6.1872510370203848e-01 -1.1233998681487243e+01 +9.1015955541013591e+03 -8.2455484002035853e+04 -5.0877799223180659e+07 
+1.0999999999999999e+00 -5.6527180923355214e-01 +7.7425390668245511e+00 -6.2242420954115973e-01 -1.1033132119470453e+01 +9.1606098804958401e+03 -8.2746816170886086e+04 -5.1170140077423938e+07 
+1.2000000000000000e+00 -5.6527227494273413e-01 +7.7425447958476434e+00 -6.2563269614501249e-01 -1.0828601478525901e+01 +9.2145079514475656e+03 -8.3098428138953241e+04 -5.1448635305033170e+07 
+1.3000000000000000e+00 -5.6527275400782317e-01 +7.7425508715667188e+00 -6.2833605307271667e-01 -1.0619752775038206e+01 +9.2629518537211115e+03 -8.3516661852058096e+04 -5.1711529718583979e+07 
+1.4000000000000001e+00 -5.6527324700790449e-01 +7.7425572348313718e+00 -6.3051977170443796e-01 -1.0405932038275132e+01 +9.3056037103172803e+03 -8.4007859136514933e+04 -5.1957068301681459e+07 
+1.5000000000000002e+00 -5.6527375452208783e-01 +7.7425638264855934e+00 -6.3216934062232355e-01 -1.0186485153062060e+01 +9.3421255949469614e+03 -8.4578362588824180e+04 -5.2183495809142523e+07 
+1.6000000000000003e+00 -5.6527427712943246e-01 +7.7425705873658615e+00 -6.3327025469989306e-01 -9.9607577944835235e+00 +9.3721797025787182e+03 -8.5234515995819660e+04 -5.2389057571467295e+07 
+1.7000000000000004e+00 -5.6527481540904789e-01 +7.7425774583127707e+00 -6.3380800296016282e-01 -9.7280957630187483e+00 +9.3954281209951623e+03 -8.5982662402355112e+04 -5.2571998412693493e+07 
+1.8000000000000005e+00 -5.6527536993999605e-01 +7.7425843801543808e+00 -6.3376808000638907e-01 -9.4878444985124055e+00 +9.4115330458976896e+03 -8.6829146936119490e+04 -5.2730563670624442e+07 
+1.9000000000000006e+00 -5.6527594130134873e-01 +7.7425912937192596e+00 -6.3313597958550427e-01 -9.2393494723646494e+00 +9.4201566606502092e+03 -8.7780314505740578e+04 -5.2862998627107687e+07 
+2.0000000000000004e+00 -5.6527653007217515e-01 +7.7425981398271668e+00 -6.3189719572234671e-01 -8.9819558895484466e+00 +9.4209611579475950e+03 -8.8842511601893755e+04 -5.2967548612700008e+07 
+2.1000000000000005e+00 -5.6527713658446532e-01 +7.7426048720416549e+00 -6.3004565675910207e-01 -8.7154328230560161e+00 +9.4137267883143613e+03 -9.0018473219912514e+04 -5.3042871937554114e+07 
+2.2000000000000006e+00 -5.6527776018491116e-01 +7.7426114930320775e+00 -6.2760876719125513e-01 -8.4412209653684833e+00 +9.3987030064981172e+03 -9.1296743925508141e+04 -5.3089284177155286e+07 
+2.3000000000000007e+00 -5.6527839997463991e-01 +7.7426180172822390e+00 -6.2462223466860800e-01 -8.1611733021851975e+00 +9.3762558217478763e+03 -9.2662380651082436e+04 -5.3107516517207354e+07 
+2.4000000000000008e+00 -5.6527905505475351e-01 +7.7426244592756808e+00 -6.2112176964225119e-01 -7.8771428035436246e+00 +9.3467512972207751e+03 -9.4100440519436641e+04 -5.3098300404913060e+07 
+2.5000000000000009e+00 -5.6527972452636355e-01 +7.7426308335025791e+00 -6.1714308086828007e-01 -7.5909826270080574e+00 +9.3105554614256289e+03 -9.5595979665131177e+04 -5.3062367118024088e+07 
+2.6000000000000010e+00 -5.6528040749061370e-01 +7.7426371544497821e+00 -6.1272187324354022e-01 -7.3045458295349492e+00 +9.2680342731365636e+03 -9.7134054901138370e+04 -5.3000447616277747e+07 
+2.7000000000000011e+00 -5.6528110304861601e-01 +7.7426434366128269e+00 -6.0789385476943192e-01 -7.0196857089984190e+00 +9.2195537464329482e+03 -9.8699721783236208e+04 -5.2913273116714448e+07 
+2.8000000000000012e+00 -5.6528181030149272e-01 +7.7426496944869099e+00 -6.0269473206895641e-01 -6.7382555436148133e+00 +9.1654798704650857e+03 -1.0027803610939796e+05 -5.2801574726279058e+07 
+2.9000000000000012e+00 -5.6528252835039139e-01 +7.7426559425742312e+00 -5.9716020785606494e-01 -6.4621088045923774e+00 +9.1061785576000020e+03 -1.0185405270968583e+05 -5.2666083185897946e+07 
+3.0000000000000013e+00 -5.6528325629642939e-01 +7.7426621953793111e+00 -5.9132598826539329e-01 -6.1930990054033641e+00 +9.0420157845693047e+03 -1.0341282636317138e+05 -5.2507529547197297e+07 
+3.1000000000000014e+00 -5.6528399324076883e-01 +7.7426684674141155e+00 -5.8522777333651954e-01 -5.9330798768358131e+00 +8.9733574111041144e+03 -1.0493941071749727e+05 -5.2326644308506116e+07 
+3.2000000000000015e+00 -5.6528473828455672e-01 +7.7426747731932473e+00 -5.7890126419588284e-01 -5.6839051961508442e+00 +8.9005693143639382e+03 -1.0641885938084799e+05 -5.2124158051279671e+07 
+3.3000000000000016e+00 -5.6528549052893318e-01 +7.7426811272433724e+00 -5.7238216245100670e-01 -5.4474290691123510e+00 +8.8240173820549517e+03 -1.0783622426851338e+05 -5.1900801419275999e+07 
+3.4000000000000017e+00 -5.6528624907508107e-01 +7.7426875440931378e+00 -5.6570616329212065e-01 -5.2255056504540036e+00 +8.7440673731432944e+03 -1.0917655719191108e+05 -5.1657304434548572e+07 
+3.5000000000000018e+00 -5.6528701302415807e-01 +7.7426940382813676e+00 -5.5890896493551556e-01 -5.0199893594085561e+00 +8.6610851073383983e+03 -1.1042490868820928e+05 -5.1394397427280545e+07 
+3.6000000000000019e+00 -5.6528778147734715e-01 +7.7427006243528966e+00 -5.5202626097098084e-01 -4.8327347586352545e+00 +8.5754363082693017e+03 -1.1156632872654058e+05 -5.1112810259503216e+07 
+3.7000000000000020e+00 -5.6528855353582419e-01 +7.7427073168647134e+00 -5.4509374555592927e-01 -4.6655967487947132e+00 +8.4874867116333317e+03 -1.1258586554138456e+05 -5.0813272865172341e+07 
+3.8000000000000020e+00 -5.6528932830079737e-01 +7.7427141303782729e+00 -5.3814710770199248e-01 -4.5204303211235164e+00 +8.3976019500495695e+03 -1.1346856714749077e+05 -5.0496514686293609e+07 
+3.9000000000000021e+00 -5.6529010487345754e-01 +7.7427210794681658e+00 -5.3122203779048260e-01 -4.3990908291117670e+00 +8.3061476793435995e+03 -1.1419947971484219e+05 -5.0163265280003183e+07 
+4.0000000000000018e+00 -5.6529088235502667e-01 +7.7427281787186670e+00 -5.2435422117323405e-01 -4.3034338601726860e+00 +8.2134894567020110e+03 -1.1476364840631692e+05 -4.9814253741626874e+07 
+4.1000000000000014e+00 -5.6529165995142261e-01 +7.7427354360249545e+00 -5.1757480709307635e-01 -4.2342480375001674e+00 +8.1199691809024926e+03 -1.1515430105515118e+05 -4.9450323453323185e+07 
+4.2000000000000011e+00 -5.6529243727469003e-01 +7.7427428360789694e+00 -5.1089842884975711e-01 -4.1882186613351990e+00 +8.0258421054235778e+03 -1.1539607405196274e+05 -4.9072737330184385e+07 
+4.3000000000000007e+00 -5.6529321403531529e-01 +7.7427503586368447e+00 -5.0433599356489545e-01 -4.1610430124630193e+00 +7.9313438805191618e+03 -1.1552115140849969e+05 -4.8682854892081045e+07 
+4.4000000000000004e+00 -5.6529398994372204e-01 +7.7427579834535587e+00 -4.9789841833525145e-01 -4.1484183426491610e+00 +7.8367103561590284e+03 -1.1556171728085597e+05 -4.8282036617631875e+07 
+4.5000000000000000e+00 -5.6529476471038342e-01 +7.7427656902904172e+00 -4.9159661518116504e-01 -4.1460420728265905e+00 +7.7421772897500759e+03 -1.1554995487044763e+05 -4.7871642536029525e+07 
+4.5999999999999996e+00 -5.6529553804570998e-01 +7.7427734589063855e+00 -4.8544150623764143e-01 -4.1496115536109173e+00 +7.6479806424310327e+03 -1.1551804778003768e+05 -4.7453033655903280e+07 
+4.6999999999999993e+00 -5.6529630966009980e-01 +7.7427812690673496e+00 -4.7944401712740486e-01 -4.1548243308843045e+00 +7.5543564506893581e+03 -1.1549817846752841e+05 -4.7027571346837975e+07 
+4.7999999999999989e+00 -5.6529707926395190e-01 +7.7427891005363252e+00 -4.7361507504674877e-01 -4.1573778671148549e+00 +7.4615407868989969e+03 -1.1552252984834963e+05 -4.6596617141344324e+07 
+4.8999999999999986e+00 -5.6529784656763393e-01 +7.7427969330783251e+00 -4.6796561375085061e-01 -4.1529696656701622e+00 +7.3697698621046084e+03 -1.1562328461830600e+05 -4.6161533245361254e+07 
+4.9999999999999982e+00 -5.6529861128148229e-01 +7.7428047464689183e+00 -4.6250657267995954e-01 -4.1372975416824129e+00 +7.2792800015560679e+03 -1.1583262360486810e+05 -4.5723682399057604e+07 
+5.0999999999999979e+00 -5.6529937311583878e-01 +7.7428125204765790e+00 -4.5724889337458791e-01 -4.1060590915754398e+00 +7.1903075855796969e+03 -1.1618272889774546e+05 -4.5284427619252831e+07 
+5.1999999999999975e+00 -5.6530013178098071e-01 +7.7428202348716582e+00 -4.5220352733677754e-01 -4.0549519649058690e+00 +7.1030891868748122e+03 -1.1670578223186155e+05 -4.4845132815612018e+07 
+5.2999999999999972e+00 -5.6530088698722170e-01 +7.7428278694347652e+00 -4.4738142482277815e-01 -3.9796741063479240e+00 +7.0178613748400212e+03 -1.1743396358331517e+05 -4.4407161909932517e+07 
+5.3999999999999968e+00 -5.6530163844477677e-01 +7.7428354039389884e+00 -4.4279355065642900e-01 -3.8759232322848991e+00 +6.9348610025389817e+03 -1.1839945421999965e+05 -4.3971880160572015e+07 
+5.4999999999999964e+00 -5.6530238586391046e-01 +7.7428428181667535e+00 -4.3845086634265495e-01 -3.7393973271392218e+00 +6.8543248727863966e+03 -1.1963443379308208e+05 -4.3540652588784337e+07 
+5.5999999999999961e+00 -5.6530312895479728e-01 +7.7428500918975711e+00 -4.3436434772720034e-01 -3.5657942867008363e+00 +6.7764900755237759e+03 -1.2117108241114745e+05 -4.3114845589070976e+07 
+5.6999999999999957e+00 -5.6530386742763772e-01 +7.7428572049144542e+00 -4.3054496996106056e-01 -3.3508120987678343e+00 +6.7015936970105322e+03 -1.2304157959840765e+05 -4.2695825529064178e+07 
+5.7999999999999954e+00 -5.6530460099255386e-01 +7.7428641370046210e+00 -4.2700372177574430e-01 -3.0901488810421411e+00 +6.6298730995848628e+03 -1.2527810401703202e+05 -4.2284960102995276e+07 
+5.8999999999999950e+00 -5.6530532935968481e-01 +7.7428708679523144e+00 -4.2375159273661006e-01 -2.7795026476856139e+00 +6.5615656730846440e+03 -1.2791283489615406e+05 -4.1883617129892744e+07 
+5.9999999999999947e+00 -5.6530605223909847e-01 +7.7428773775483650e+00 -4.2079958390596073e-01 -2.4145716192618112e+00 +6.4969090353912570e+03 -1.3097795015129431e+05 -4.1493165503543273e+07 
+6.0999999999999943e+00 -5.6530676942172797e-01 +7.7428836644686703e+00 -4.1815209926242414e-01 -1.9931992040582798e+00 +6.4360246379757864e+03 -1.3448986850256400e+05 -4.1114493662939407e+07 
+6.1999999999999940e+00 -5.6530748105769135e-01 +7.7428898014166334e+00 -4.1578283060190302e-01 -1.5217972890364573e+00 +6.3785535837397156e+03 -1.3840167085684356e+05 -4.0746702127354436e+07 
+6.2999999999999936e+00 -5.6530818739599575e-01 +7.7428958793978113e+00 -4.1365668798829830e-01 -1.0089329563910250e+00 +6.3240126373958719e+03 -1.4265040855435605e+05 -4.0388477438082837e+07 
+6.3999999999999932e+00 -5.6530888868568141e-01 +7.7429019894046744e+00 -4.1173857390916707e-01 -4.6317289392926758e-01 +6.2719184084211911e+03 -1.4717313493009552e+05 -4.0038505421430804e+07 
+6.4999999999999929e+00 -5.6530958517585639e-01 +7.7429082224171211e+00 -4.0999337877563224e-01 +1.0691659086427427e-01 +6.2217872631176851e+03 -1.5190690524011850e+05 -3.9695470763544686e+07 
+6.5999999999999925e+00 -5.6531027711565951e-01 +7.7429146694087310e+00 -4.0838598461891717e-01 +6.9276941087175270e-01 +6.1731353907551002e+03 -1.5678877577495491e+05 -3.9358057317191005e+07 
+6.6999999999999922e+00 -5.6531096475429321e-01 +7.7429214213318698e+00 -4.0688126227740923e-01 +1.2858201218509380e+00 +6.1254787552775933e+03 -1.6175580627453851e+05 -3.9024947886095650e+07 
+6.7999999999999918e+00 -5.6531164834101932e-01 +7.7429285691327925e+00 -4.0544407014255268e-01 +1.8775034786001894e+00 +6.0783330639224578e+03 -1.6674505732451836e+05 -3.8694824060487196e+07 
+6.8999999999999915e+00 -5.6531232812515320e-01 +7.7429362037410430e+00 -4.0403925564566767e-01 +2.4592547620436962e+00 +6.0312137983110679e+03 -1.7169359228950390e+05 -3.8366366372202523e+07 
+6.9999999999999911e+00 -5.6531300435606413e-01 +7.7429444160740069e+00 -4.0263165500465015e-01 +3.0225096285061390e+00 +5.9836362104410628e+03 -1.7653847637973959e+05 -3.8038254282925732e+07 
+7.0999999999999908e+00 -5.6531367728319182e-01 +7.7429532970306827e+00 -4.0118609060350074e-01 +3.5587042997669451e+00 +5.9351152684590224e+03 -1.8121677776327150e+05 -3.7709165914455488e+07 
+7.1999999999999904e+00 -5.6531434715604234e-01 +7.7429629375002706e+00 -3.9966737181604806e-01 +4.0592753222455054e+00 +5.8851656750578550e+03 -1.8566556618172248e+05 -3.7377778146549672e+07 
+7.2999999999999901e+00 -5.6531501422417174e-01 +7.7429734283517408e+00 -3.9804029610773595e-01 +4.5156598563977060e+00 +5.8333018834156737e+03 -1.8982191457534235e+05 -3.7042766683586024e+07 
+7.3999999999999897e+00 -5.6531567873721267e-01 +7.7429848604389555e+00 -3.9626964655036606e-01 +4.9192955318808949e+00 +5.7790380544750842e+03 -1.9362289824263868e+05 -3.6702805862381771e+07 
+7.4999999999999893e+00 -5.6531634094489869e-01 +7.7429973245993935e+00 -3.9432018795132612e-01 +5.2616204972166978e+00 +5.7218879798879616e+03 -1.9700559514602902e+05 -3.6356568281865455e+07 
+7.5999999999999890e+00 -5.6531700109697725e-01 +7.7430109116564809e+00 -3.9215667741401805e-01 +5.5340733390156469e+00 +5.6613652800582149e+03 -1.9990708540199854e+05 -3.6002725738685235e+07 
+7.6999999999999886e+00 -5.6531765944331402e-01 +7.7430257124099997e+00 -3.8974385174181919e-01 +5.7280933654248516e+00 +5.5969831678783476e+03 -2.0226445291771734e+05 -3.5639948114048712e+07 
+7.7999999999999883e+00 -5.6531831623383966e-01 +7.7430418176455085e+00 -3.8704643335059447e-01 +5.8351203405001240e+00 +5.5282545575179156e+03 -2.0401478386734251e+05 -3.5266903884980224e+07 
+7.8999999999999879e+00 -5.6531897171856760e-01 +7.7430593181280747e+00 -3.8402912817698798e-01 +5.8465946552375323e+00 +5.4546920261328250e+03 -2.0509516762834750e+05 -3.4882259947712496e+07 
+7.9999999999999876e+00 -5.6531962614758424e-01 +7.7430783046045288e+00 -3.8065662696376212e-01 +5.7539572954866616e+00 +5.3758078409745640e+03 -2.0544269659260666e+05 -3.4484681750904955e+07 
+8.0999999999999872e+00 -5.6532027979456079e-01 +7.7430988246675572e+00 -3.7690381233730325e-01 +5.5516004973422959e+00 +5.2913010440522548e+03 -2.0501494218644564e+05 -3.4073523414812066e+07 
+8.1999999999999869e+00 -5.6532093297128483e-01 +7.7431207635863544e+00 -3.7279205668308452e-01 +5.2457463778472668e+00 +5.2016192274517998e+03 -2.0385312412253857e+05 -3.3650570347012907e+07 
+8.2999999999999865e+00 -5.6532158598461824e-01 +7.7431439681259704e+00 -3.6835586912089552e-01 +4.8456183800327430e+00 +5.1073982007711165e+03 -2.0202008019889379e+05 -3.3218132555161577e+07 
+8.3999999999999861e+00 -5.6532223914137247e-01 +7.7431682850628869e+00 -3.6362976803833369e-01 +4.3604395893901771e+00 +5.0092739452776959e+03 -1.9957864647469672e+05 -3.2778520776533216e+07 
+8.4999999999999858e+00 -5.6532289274828973e-01 +7.7431935611787415e+00 -3.5864828404235205e-01 +3.7994328555513999e+00 +4.9078826773444571e+03 -1.9659165774343984e+05 -3.2334046806284193e+07 
+8.5999999999999854e+00 -5.6532354711205923e-01 +7.7432196432680742e+00 -3.5344595752299679e-01 +3.1718205592362798e+00 +4.8038608055646855e+03 -1.9312194617409227e+05 -3.1887023305917107e+07 
+8.6999999999999851e+00 -5.6532420253929361e-01 +7.7432463781375640e+00 -3.4805734204671285e-01 +2.4868246342344218e+00 +4.6978449917299804e+03 -1.8923234145139792e+05 -3.1439764076734144e+07 
+8.7999999999999847e+00 -5.6532485933654253e-01 +7.7432736125979869e+00 -3.4251700285204578e-01 +1.7536667893489997e+00 +4.5904721254587603e+03 -1.8498567204186047e+05 -3.0994583948429007e+07 
+8.8999999999999844e+00 -5.6532551781029106e-01 +7.7433011934803488e+00 -3.3685951665264957e-01 +9.8156804798036223e-01 +4.4823793181311239e+03 -1.8044476256675331e+05 -3.0553798741468135e+07 
+8.9999999999999840e+00 -5.6532617826694131e-01 +7.7433289676224026e+00 -3.3111947492445365e-01 +1.7974912783878966e-01 +4.3742039680444459e+03 -1.7567243597267140e+05 -3.0119725579032946e+07 
+9.0999999999999837e+00 -5.6532684101283115e-01 +7.7433567818737714e+00 -3.2533148087664177e-01 -6.4256970135239111e-01 +4.2665837016070291e+03 -1.7073151274947112e+05 -2.9694682605580404e+07 
+9.1999999999999833e+00 -5.6532750635421936e-01 +7.7433844830989162e+00 -3.1953015163146276e-01 -1.4761687219913149e+00 +4.1601564146389774e+03 -1.6568481029083865e+05 -2.9280989178624332e+07 
+9.2999999999999829e+00 -5.6532817459727513e-01 +7.7434119181712635e+00 -3.1375012022099674e-01 -2.3118285874367723e+00 +4.0555603123328838e+03 -1.6059514397154923e+05 -2.8880966060559496e+07 
+9.3999999999999826e+00 -5.6532884604811839e-01 +7.7434389339813947e+00 -3.0802603002638745e-01 -3.1403305669050239e+00 +3.9534338031672914e+03 -1.5552532574005623e+05 -2.8496934913821857e+07 
+9.4999999999999822e+00 -5.6532952101272260e-01 +7.7434653774338198e+00 -3.0239254697177120e-01 -3.9524564577746473e+00 +3.8544157268878103e+03 -1.5053816461789238e+05 -2.8131219369590405e+07 
+9.5999999999999819e+00 -5.6533019979705834e-01 +7.7434910954439466e+00 -2.9688434258818108e-01 -4.7389884893724972e+00 +3.7591450407485731e+03 -1.4569646728891152e+05 -2.7786143556182202e+07 
+9.6999999999999815e+00 -5.6533088270694742e-01 +7.7435159349412848e+00 -2.9153611132358992e-01 -5.4907094464595287e+00 +3.6682611417617145e+03 -1.4106303731645460e+05 -2.7464033612745076e+07 
+9.7999999999999812e+00 -5.6533157004814871e-01 +7.7435397428751900e+00 -2.8638256060245476e-01 -6.1984028045866397e+00 +3.5824036814086940e+03 -1.3670067445956354e+05 -2.7167216812409598e+07 
+9.8999999999999808e+00 -5.6533226212630550e-01 +7.7435623662048441e+00 -2.8145841747799039e-01 -6.8528524653490708e+00 +3.5022126919844973e+03 -1.3267217615053823e+05 -2.6898022163315043e+07 
+9.9999999999999805e+00 -5.6533295924700278e-01 +7.7435836519113721e+00 -2.7679842089422341e-01 -7.4448431504776682e+00 +3.4283284307204208e+03 -1.2904033520109969e+05 -2.6658779643898770e+07 
+1.0099999999999980e+01 -5.6533366154266262e-01 +7.7436034591299538e+00 -2.7243533395712943e-01 -7.9667801767894204e+00 +3.3612936571346049e+03 -1.2585604408627475e+05 -2.6451328982268542e+07 
