# field on trajectory
# s[mm] rx[mm] ry[mm] rz[mm] bx[T] by[T] bz[T]
0.0000000000000000e+00 +8.1529999999999987e+00 +0.0000000000000000e+00 +0.0000000000000000e+00 -2.8565122440934565e-02 -5.3699376345495997e-01 +5.3232541568193946e-03
1.0000000000000001e-01 +8.1529997168807338e+00 +0.0000000000000000e+00 +9.9999999999465614e-02 -2.8565099200602850e-02 -5.3699369254789719e-01 +5.3233202888161441e-03
2.0000000000000001e-01 +8.1529988675229905e+00 +0.0000000000000000e+00 +1.9999999999572499e-01 -2.8565075155114396e-02 -5.3699360417526221e-01 +5.3233868740443346e-03
3.0000000000000004e-01 +8.1529974519268613e+00 +0.0000000000000000e+00 +2.9999999998557181e-01 -2.8565050626817291e-02 -5.3699349932582119e-01 +5.3234539919042997e-03
4.0000000000000002e-01 +8.1529954700924581e+00 +0.0000000000000000e+00 +3.9999999996579988e-01 -2.8565025938054090e-02 -5.3699337898835819e-01 +5.3235217217956930e-03
5.0000000000000000e-01 +8.1529929220199069e+00 +0.0000000000000000e+00 +4.9999999993320293e-01 -2.8565001411163558e-02 -5.3699324415167160e-01 +5.3235901431175989e-03
5.9999999999999998e-01 +8.1529898077093499e+00 +0.0000000000000000e+00 +5.9999999988457464e-01 -2.8564977368482392e-02 -5.3699309580457000e-01 +5.3236593352686502e-03
6.9999999999999996e-01 +8.1529861271609434e+00 +0.0000000000000000e+00 +6.9999999981670891e-01 -2.8564954132347022e-02 -5.3699293493586675e-01 +5.3237293776471342e-03
7.9999999999999993e-01 +8.1529818803748579e+00 +0.0000000000000000e+00 +7.9999999972639935e-01 -2.8564932025095368e-02 -5.3699276253437611e-01 +5.3238003496511111e-03
8.9999999999999991e-01 +8.1529770673512747e+00 +0.0000000000000000e+00 +8.9999999961043975e-01 -2.8564911369068541e-02 -5.3699257958890889e-01 +5.3238723306785153e-03
9.9999999999999989e-01 +8.1529716880903855e+00 +0.0000000000000000e+00 +9.9999999946562390e-01 -2.8564892486612630e-02 -5.3699238708826802e-01 +5.3239454001272769e-03
1.0999999999999999e+00 +8.1529657425923947e+00 +0.0000000000000000e+00 +1.0999999992887455e+00 -2.8564875700080448e-02 -5.3699218602124466e-01 +5.3240196373954352e-03
1.2000000000000000e+00 +8.1529592308575154e+00 +0.0000000000000000e+00 +1.1999999990765984e+00 -2.8564861331833301e-02 -5.3699197737661186e-01 +5.3240951218812369e-03
1.3000000000000000e+00 +8.1529521528859661e+00 +0.0000000000000000e+00 +1.2999999988259763e+00 -2.8564849704242733e-02 -5.3699176214312316e-01 +5.3241719329832609e-03
1.4000000000000001e+00 +8.1529445086779742e+00 +0.0000000000000000e+00 +1.3999999985336731e+00 -2.8564841139692251e-02 -5.3699154130950522e-01 +5.3242501501005249e-03
1.5000000000000002e+00 +8.1529362982337723e+00 +0.0000000000000000e+00 +1.4999999981964824e+00 -2.8564835960579110e-02 -5.3699131586445559e-01 +5.3243298526326008e-03
1.6000000000000003e+00 +8.1529275215536003e+00 +0.0000000000000000e+00 +1.5999999978111983e+00 -2.8564834489316064e-02 -5.3699108679663732e-01 +5.3244111199797209e-03
1.7000000000000004e+00 +8.1529181786376981e+00 +0.0000000000000000e+00 +1.6999999973746143e+00 -2.8564837048333114e-02 -5.3699085509467437e-01 +5.3244940315428915e-03
1.8000000000000005e+00 +8.1529082694863106e+00 +0.0000000000000000e+00 +1.7999999968835243e+00 -2.8564843960079238e-02 -5.3699062174714784e-01 +5.3245786667240041e-03
1.9000000000000006e+00 +8.1528977940996850e+00 +0.0000000000000000e+00 +1.8999999963347221e+00 -2.8564855547024197e-02 -5.3699038774259078e-01 +5.3246651049259569e-03
2.0000000000000004e+00 +8.1528867524780662e+00 +0.0000000000000000e+00 +1.9999999957250014e+00 -2.8564872131660212e-02 -5.3699015406948492e-01 +5.3247534255527482e-03
2.1000000000000005e+00 +8.1528751446217029e+00 +0.0000000000000000e+00 +2.0999999950511561e+00 -2.8564893883364466e-02 -5.3698992163333148e-01 +5.3248436846665996e-03
2.2000000000000006e+00 +8.1528629705308404e+00 +0.0000000000000000e+00 +2.1999999943099802e+00 -2.8564920358978198e-02 -5.3698969100789617e-01 +5.3249358449584932e-03
2.3000000000000007e+00 +8.1528502302057202e+00 +0.0000000000000000e+00 +2.2999999934982673e+00 -2.8564950962218224e-02 -5.3698946268401038e-01 +5.3250298457761872e-03
2.4000000000000008e+00 +8.1528369236465856e+00 +0.0000000000000000e+00 +2.3999999926128113e+00 -2.8564985096815536e-02 -5.3698923715250313e-01 +5.3251256264670119e-03
2.5000000000000009e+00 +8.1528230508536748e+00 +0.0000000000000000e+00 +2.4999999916504057e+00 -2.8565022166515474e-02 -5.3698901490420170e-01 +5.3252231263777846e-03
2.6000000000000010e+00 +8.1528086118272203e+00 +0.0000000000000000e+00 +2.5999999906078446e+00 -2.8565061575077957e-02 -5.3698879642993491e-01 +5.3253222848547123e-03
2.7000000000000011e+00 +8.1527936065674549e+00 +0.0000000000000000e+00 +2.6999999894819218e+00 -2.8565102726277689e-02 -5.3698858222053458e-01 +5.3254230412433136e-03
2.8000000000000012e+00 +8.1527780350746042e+00 +0.0000000000000000e+00 +2.7999999882694313e+00 -2.8565145023904427e-02 -5.3698837276683842e-01 +5.3255253348883317e-03
2.9000000000000012e+00 +8.1527618973488902e+00 +0.0000000000000000e+00 +2.8999999869671669e+00 -2.8565187871763129e-02 -5.3698816855969222e-01 +5.3256291051336398e-03
3.0000000000000013e+00 +8.1527451933905279e+00 +0.0000000000000000e+00 +2.9999999855719222e+00 -2.8565230673674214e-02 -5.3698797008995125e-01 +5.3257342913221586e-03
3.1000000000000014e+00 +8.1527279231997287e+00 +0.0000000000000000e+00 +3.0999999840804913e+00 -2.8565272833473730e-02 -5.3698777784848362e-01 +5.3258408327957803e-03
3.2000000000000015e+00 +8.1527100867766933e+00 +0.0000000000000000e+00 +3.1999999824896679e+00 -2.8565313755013672e-02 -5.3698759232617144e-01 +5.3259486688952652e-03
3.3000000000000016e+00 +8.1526916841216188e+00 +0.0000000000000000e+00 +3.2999999807962457e+00 -2.8565352842162044e-02 -5.3698741401391392e-01 +5.3260577389601556e-03
3.4000000000000017e+00 +8.1526727152346954e+00 +0.0000000000000000e+00 +3.3999999789970188e+00 -2.8565389498803218e-02 -5.3698724340262904e-01 +5.3261679823287025e-03
3.5000000000000018e+00 +8.1526531801161024e+00 +0.0000000000000000e+00 +3.4999999770887809e+00 -2.8565423128838061e-02 -5.3698708098325576e-01 +5.3262793383377673e-03
3.6000000000000019e+00 +8.1526330787660104e+00 +0.0000000000000000e+00 +3.5999999750683260e+00 -2.8565453136184207e-02 -5.3698692724675701e-01 +5.3263917463227412e-03
3.7000000000000020e+00 +8.1526124111845828e+00 +0.0000000000000000e+00 +3.6999999729324480e+00 -2.8565478924776226e-02 -5.3698678268412070e-01 +5.3265051456174543e-03
3.8000000000000020e+00 +8.1525911773719741e+00 +0.0000000000000000e+00 +3.7999999706779404e+00 -2.8565499898565848e-02 -5.3698664778636296e-01 +5.3266194755540886e-03
3.9000000000000021e+00 +8.1525693773283265e+00 +0.0000000000000000e+00 +3.8999999683015973e+00 -2.8565515461522212e-02 -5.3698652304452943e-01 +5.3267346754631000e-03
4.0000000000000018e+00 +8.1525470110537714e+00 +0.0000000000000000e+00 +3.9999999658002126e+00 -2.8565525017632071e-02 -5.3698640894969951e-01 +5.3268506846731204e-03
4.1000000000000014e+00 +8.1525240785484296e+00 +0.0000000000000000e+00 +4.0999999631705801e+00 -2.8565528128676358e-02 -5.3698630587372898e-01 +5.3269674257932680e-03
4.2000000000000011e+00 +8.1525005798124113e+00 +0.0000000000000000e+00 +4.1999999604094933e+00 -2.8565524987541144e-02 -5.3698621371146893e-01 +5.3270847545611351e-03
4.3000000000000007e+00 +8.1524765148458140e+00 +0.0000000000000000e+00 +4.2999999575137462e+00 -2.8565515944852959e-02 -5.3698613223849845e-01 +5.3272025099972203e-03
4.4000000000000004e+00 +8.1524518836487250e+00 +0.0000000000000000e+00 +4.3999999544801334e+00 -2.8565501351194109e-02 -5.3698606123037285e-01 +5.3273205311228757e-03
4.5000000000000000e+00 +8.1524266862212205e+00 +0.0000000000000000e+00 +4.4999999513054476e+00 -2.8565481557099481e-02 -5.3698600046262623e-01 +5.3274386569603979e-03
4.5999999999999996e+00 +8.1524009225633645e+00 +0.0000000000000000e+00 +4.5999999479864835e+00 -2.8565456913053254e-02 -5.3698594971076707e-01 +5.3275567265330869e-03
4.6999999999999993e+00 +8.1523745926752103e+00 +0.0000000000000000e+00 +4.6999999445200347e+00 -2.8565427769485615e-02 -5.3698590875027818e-01 +5.3276745788653542e-03
4.7999999999999989e+00 +8.1523476965568040e+00 +0.0000000000000000e+00 +4.7999999409028948e+00 -2.8565394476769510e-02 -5.3698587735661518e-01 +5.3277920529827827e-03
4.8999999999999986e+00 +8.1523202342081778e+00 +0.0000000000000000e+00 +4.8999999371318586e+00 -2.8565357385217385e-02 -5.3698585530520515e-01 +5.3279089879122148e-03
4.9999999999999982e+00 +8.1522922056293581e+00 +0.0000000000000000e+00 +4.9999999332037186e+00 -2.8565316845077914e-02 -5.3698584237144587e-01 +5.3280252226818366e-03
5.0999999999999979e+00 +8.1522636108203574e+00 +0.0000000000000000e+00 +5.0999999291152696e+00 -2.8565273206532741e-02 -5.3698583833070357e-01 +5.3281405963212540e-03
5.1999999999999975e+00 +8.1522344497811812e+00 +0.0000000000000000e+00 +5.1999999248633051e+00 -2.8565226819693208e-02 -5.3698584295831231e-01 +5.3282549478615767e-03
5.2999999999999972e+00 +8.1522047225118257e+00 +0.0000000000000000e+00 +5.2999999204446189e+00 -2.8565178034597093e-02 -5.3698585602957261e-01 +5.3283681163354942e-03
5.3999999999999968e+00 +8.1521744290122786e+00 +0.0000000000000000e+00 +5.3999999158560046e+00 -2.8565127201205347e-02 -5.3698587731975012e-01 +5.3284799407773671e-03
5.4999999999999964e+00 +8.1521435692825186e+00 +0.0000000000000000e+00 +5.4999999110942559e+00 -2.8565074669398841e-02 -5.3698590660407408e-01 +5.3285902602232945e-03
5.5999999999999961e+00 +8.1521121433225154e+00 +0.0000000000000000e+00 +5.5999999061561674e+00 -2.8565020788975076e-02 -5.3698594365773644e-01 +5.3286989137112054e-03
5.6999999999999957e+00 +8.1520801511322318e+00 +0.0000000000000000e+00 +5.6999999010385327e+00 -2.8564965909644933e-02 -5.3698598825589017e-01 +5.3288057402809310e-03
5.7999999999999954e+00 +8.1520475927116198e+00 +0.0000000000000000e+00 +5.7999998957381456e+00 -2.8564910381029453e-02 -5.3698604017364848e-01 +5.3289105789743017e-03
5.8999999999999950e+00 +8.1520144680606279e+00 +0.0000000000000000e+00 +5.8999998902517996e+00 -2.8564854552656480e-02 -5.3698609918608253e-01 +5.3290132688352020e-03
5.9999999999999947e+00 +8.1519807771791939e+00 +0.0000000000000000e+00 +5.9999998845762885e+00 -2.8564798773957473e-02 -5.3698616506822172e-01 +5.3291136489096776e-03
6.0999999999999943e+00 +8.1519465200672485e+00 +0.0000000000000000e+00 +6.0999998787084060e+00 -2.8564743359304388e-02 -5.3698623765281950e-01 +5.3292116052920599e-03
6.1999999999999940e+00 +8.1519116967247172e+00 +0.0000000000000000e+00 +6.1999998726449466e+00 -2.8564688483169363e-02 -5.3698631700368937e-01 +5.3293072122648751e-03
6.2999999999999936e+00 +8.1518763071515181e+00 +0.0000000000000000e+00 +6.2999998663827030e+00 -2.8564634285078678e-02 -5.3698640324244762e-01 +5.3294005911621745e-03
6.3999999999999932e+00 +8.1518403513475608e+00 +0.0000000000000000e+00 +6.3999998599184700e+00 -2.8564580904585340e-02 -5.3698649649075270e-01 +5.3294918633236040e-03
6.4999999999999929e+00 +8.1518038293127475e+00 +0.0000000000000000e+00 +6.4999998532490411e+00 -2.8564528481270980e-02 -5.3698659687030859e-01 +5.3295811500945790e-03
6.5999999999999925e+00 +8.1517667410469752e+00 +0.0000000000000000e+00 +6.5999998463712100e+00 -2.8564477154747882e-02 -5.3698670450286601e-01 +5.3296685728265111e-03
6.6999999999999922e+00 +8.1517290865501302e+00 +0.0000000000000000e+00 +6.6999998392817703e+00 -2.8564427064660898e-02 -5.3698681951022487e-01 +5.3297542528769884e-03
6.7999999999999918e+00 +8.1516908658220917e+00 +0.0000000000000000e+00 +6.7999998319775159e+00 -2.8564378350689472e-02 -5.3698694201423591e-01 +5.3298383116099938e-03
6.8999999999999915e+00 +8.1516520788627336e+00 +0.0000000000000000e+00 +6.8999998244552412e+00 -2.8564331152549558e-02 -5.3698707213680497e-01 +5.3299208703960861e-03
6.9999999999999911e+00 +8.1516127256719191e+00 +0.0000000000000000e+00 +6.9999998167117390e+00 -2.8564285609995622e-02 -5.3698720999989236e-01 +5.3300020506126177e-03
7.0999999999999908e+00 +8.1515728062495043e+00 +0.0000000000000000e+00 +7.0999998087438039e+00 -2.8564241862822609e-02 -5.3698735572551715e-01 +5.3300819736439272e-03
7.1999999999999904e+00 +8.1515323205953365e+00 +0.0000000000000000e+00 +7.1999998005482286e+00 -2.8564200050867881e-02 -5.3698750943575757e-01 +5.3301607608815397e-03
7.2999999999999901e+00 +8.1514912687092540e+00 +0.0000000000000000e+00 +7.2999997921218078e+00 -2.8564160314013234e-02 -5.3698767125275593e-01 +5.3302385337243704e-03
7.3999999999999897e+00 +8.1514496505910898e+00 +0.0000000000000000e+00 +7.3999997834613351e+00 -2.8564122792186796e-02 -5.3698784129871802e-01 +5.3303154135789189e-03
7.4999999999999893e+00 +8.1514074662406646e+00 +0.0000000000000000e+00 +7.4999997745636042e+00 -2.8564087625365091e-02 -5.3698801969591625e-01 +5.3303915218594865e-03
7.5999999999999890e+00 +8.1513647156577917e+00 +0.0000000000000000e+00 +7.5999997654254088e+00 -2.8564054953574895e-02 -5.3698820656669310e-01 +5.3304669799883481e-03
7.6999999999999886e+00 +8.1513213988422741e+00 +0.0000000000000000e+00 +7.6999997560435425e+00 -2.8564024916895296e-02 -5.3698840203346110e-01 +5.3305419093959850e-03
7.7999999999999883e+00 +8.1512775157939092e+00 +0.0000000000000000e+00 +7.7999997464147990e+00 -2.8563997655459597e-02 -5.3698860621870714e-01 +5.3306164315212587e-03
7.8999999999999879e+00 +8.1512330665124821e+00 +0.0000000000000000e+00 +7.8999997365359720e+00 -2.8563973309457313e-02 -5.3698881924499253e-01 +5.3306906678116271e-03
7.9999999999999876e+00 +8.1511880509977690e+00 +0.0000000000000000e+00 +7.9999997264038551e+00 -2.8563952019136130e-02 -5.3698904123495805e-01 +5.3307647397233459e-03
8.0999999999999872e+00 +8.1511424692495389e+00 +0.0000000000000000e+00 +8.0999997160152422e+00 -2.8563933843034912e-02 -5.3698927211760594e-01 +5.3308387385820281e-03
8.1999999999999869e+00 +8.1510963212675485e+00 +0.0000000000000000e+00 +8.1999997053669276e+00 -2.8563918512670115e-02 -5.3698951104712733e-01 +5.3309126351571787e-03
8.2999999999999865e+00 +8.1510496070515472e+00 +0.0000000000000000e+00 +8.2999996944557033e+00 -2.8563905677835913e-02 -5.3698975698402462e-01 +5.3309863700713549e-03
8.3999999999999861e+00 +8.1510023266012777e+00 +0.0000000000000000e+00 +8.3999996832783648e+00 -2.8563894988374371e-02 -5.3699000888882831e-01 +5.3310598839385048e-03
8.4999999999999858e+00 +8.1509544799164768e+00 +0.0000000000000000e+00 +8.4999996718317039e+00 -2.8563886094176948e-02 -5.3699026572209685e-01 +5.3311331173636536e-03
8.5999999999999854e+00 +8.1509060669968747e+00 +0.0000000000000000e+00 +8.5999996601125162e+00 -2.8563878645185989e-02 -5.3699052644441658e-01 +5.3312060109425565e-03
8.6999999999999851e+00 +8.1508570878421978e+00 +0.0000000000000000e+00 +8.6999996481175934e+00 -2.8563872291396113e-02 -5.3699079001640426e-01 +5.3312785052613736e-03
8.7999999999999847e+00 +8.1508075424521707e+00 +0.0000000000000000e+00 +8.7999996358437311e+00 -2.8563866682855689e-02 -5.3699105539870484e-01 +5.3313505408963324e-03
8.8999999999999844e+00 +8.1507574308265145e+00 +0.0000000000000000e+00 +8.8999996232877212e+00 -2.8563861469668220e-02 -5.3699132155199381e-01 +5.3314220584133850e-03
8.9999999999999840e+00 +8.1507067529649504e+00 +0.0000000000000000e+00 +8.9999996104463591e+00 -2.8563856301993918e-02 -5.3699158743697706e-01 +5.3314929983678929e-03
9.0999999999999837e+00 +8.1506555088671995e+00 +0.0000000000000000e+00 +9.0999995973164367e+00 -2.8563850830051009e-02 -5.3699185201439115e-01 +5.3315633013042724e-03
9.1999999999999833e+00 +8.1506036985329846e+00 +0.0000000000000000e+00 +9.1999995838947477e+00 -2.8563844704117273e-02 -5.3699211424500370e-01 +5.3316329077556790e-03
9.2999999999999829e+00 +8.1505513219620322e+00 +0.0000000000000000e+00 +9.2999995701780875e+00 -2.8563837574531473e-02 -5.3699237308961500e-01 +5.3317017582436644e-03
9.3999999999999826e+00 +8.1504983791540688e+00 +0.0000000000000000e+00 +9.3999995561632481e+00 -2.8563829091694758e-02 -5.3699262750905641e-01 +5.3317697932778341e-03
9.4999999999999822e+00 +8.1504448701088297e+00 +0.0000000000000000e+00 +9.4999995418470231e+00 -2.8563818906072187e-02 -5.3699287646419225e-01 +5.3318369533555338e-03
9.5999999999999819e+00 +8.1503907948260537e+00 +0.0000000000000000e+00 +9.5999995272262080e+00 -2.8563806668194122e-02 -5.3699311891592072e-01 +5.3319031789614982e-03
9.6999999999999815e+00 +8.1503361533054868e+00 +0.0000000000000000e+00 +9.6999995122975946e+00 -2.8563792028657699e-02 -5.3699335382517233e-01 +5.3319684105675317e-03
9.7999999999999812e+00 +8.1502809455468839e+00 +0.0000000000000000e+00 +9.7999994970579767e+00 -2.8563774638128297e-02 -5.3699358015291254e-01 +5.3320325886321530e-03
9.8999999999999808e+00 +8.1502251715500069e+00 +0.0000000000000000e+00 +9.8999994815041479e+00 -2.8563754147340938e-02 -5.3699379686014070e-01 +5.3320956536002887e-03
9.9999999999999805e+00 +8.1501688313146303e+00 +0.0000000000000000e+00 +9.9999994656329019e+00 -2.8563730207101810e-02 -5.3699400290789123e-01 +5.3321575459029189e-03
1.0099999999999980e+01 +8.1501119248405391e+00 +0.0000000000000000e+00 +1.0099999449441032e+01 -2.8563702558853262e-02 -5.3699419771111323e-01 +5.3322182305565223e-03
1.0199999999999980e+01 +8.1500544521275291e+00 +0.0000000000000000e+00 +1.0199999432925333e+01 -2.8563671306331237e-02 -5.3699438250029119e-01 +5.3322777709657642e-03
1.0299999999999979e+01 +8.1499964131754066e+00 +0.0000000000000000e+00 +1.0299999416082597e+01 -2.8563636643800121e-02 -5.3699455895970949e-01 +5.3323362551268867e-03
1.0399999999999979e+01 +8.1499378079839868e+00 +0.0000000000000000e+00 +1.0399999398909619e+01 -2.8563598765474606e-02 -5.3699472877354304e-01 +5.3323937710274853e-03
1.0499999999999979e+01 +8.1498786365530940e+00 +0.0000000000000000e+00 +1.0499999381403192e+01 -2.8563557865518167e-02 -5.3699489362585551e-01 +5.3324504066463423e-03
1.0599999999999978e+01 +8.1498188988825540e+00 +0.0000000000000000e+00 +1.0599999363560110e+01 -2.8563514138041438e-02 -5.3699505520059554e-01 +5.3325062499532507e-03
1.0699999999999978e+01 +8.1497585949721998e+00 +0.0000000000000000e+00 +1.0699999345377167e+01 -2.8563467777100657e-02 -5.3699521518159465e-01 +5.3325613889088318e-03
1.0799999999999978e+01 +8.1496977248218645e+00 +0.0000000000000000e+00 +1.0799999326851156e+01 -2.8563418976696078e-02 -5.3699537525256258e-01 +5.3326159114643543e-03
1.0899999999999977e+01 +8.1496362884313793e+00 +0.0000000000000000e+00 +1.0899999307978870e+01 -2.8563367930770411e-02 -5.3699553709708636e-01 +5.3326699055615719e-03
1.0999999999999977e+01 +8.1495742858005773e+00 +0.0000000000000000e+00 +1.0999999288757104e+01 -2.8563314833207225e-02 -5.3699570239862537e-01 +5.3327234591325238e-03
1.1099999999999977e+01 +8.1495117169292861e+00 +0.0000000000000000e+00 +1.1099999269182650e+01 -2.8563259877829383e-02 -5.3699587284050954e-01 +5.3327766600993779e-03
1.1199999999999976e+01 +8.1494485818173263e+00 +0.0000000000000000e+00 +1.1199999249252302e+01 -2.8563203258397469e-02 -5.3699605010593621e-01 +5.3328295963742407e-03
1.1299999999999976e+01 +8.1493848804645150e+00 +0.0000000000000000e+00 +1.1299999228962855e+01 -2.8563145168608205e-02 -5.3699623587796663e-01 +5.3328823558589818e-03
1.1399999999999975e+01 +8.1493206128706568e+00 +0.0000000000000000e+00 +1.1399999208311101e+01 -2.8563085802092832e-02 -5.3699643183952273e-01 +5.3329350264450541e-03
1.1499999999999975e+01 +8.1492557790355473e+00 +0.0000000000000000e+00 +1.1499999187293835e+01 -2.8563025352415634e-02 -5.3699663967338596e-01 +5.3329876960133233e-03
1.1599999999999975e+01 +8.1491903789589681e+00 +0.0000000000000000e+00 +1.1599999165907848e+01 -2.8562964013072241e-02 -5.3699686106219147e-01 +5.3330404524338819e-03
1.1699999999999974e+01 +8.1491244126406883e+00 +0.0000000000000000e+00 +1.1699999144149936e+01 -2.8562901977488141e-02 -5.3699709768842696e-01 +5.3330933835658749e-03
1.1799999999999974e+01 +8.1490578800804609e+00 +0.0000000000000000e+00 +1.1799999122016892e+01 -2.8562839439017045e-02 -5.3699735123443015e-01 +5.3331465772573214e-03
