# field on trajectory
# s[mm] rx[mm] ry[mm] rz[mm] bx[T] by[T] bz[T]
0.0000000000000000e+00 +8.1649999999999991e+00 +0.0000000000000000e+00 +0.0000000000000000e+00 -2.9619611516761429e-02 -5.6556842824556430e-01 +5.6943065121917982e-03
1.0000000000000001e-01 +8.1649997164787784e+00 +0.0000000000000000e+00 +9.9999999999464101e-02 -2.9619494314100478e-02 -5.6556819434705041e-01 +5.6942479712360581e-03
2.0000000000000001e-01 +8.1649988659152726e+00 +0.0000000000000000e+00 +1.9999999999571283e-01 -2.9619366320959645e-02 -5.6556796221631134e-01 +5.6941921508023158e-03
3.0000000000000004e-01 +8.1649974483097125e+00 +0.0000000000000000e+00 +2.9999999998553084e-01 -2.9619229437262844e-02 -5.6556773233018520e-01 +5.6941390419919724e-03
4.0000000000000002e-01 +8.1649954636623310e+00 +0.0000000000000000e+00 +3.9999999996570279e-01 -2.9619085562943386e-02 -5.6556750516550602e-01 +5.6940886359080145e-03
5.0000000000000000e-01 +8.1649929119733535e+00 +0.0000000000000000e+00 +4.9999999993301325e-01 -2.9618936597943655e-02 -5.6556728119910649e-01 +5.6940409236548540e-03
5.9999999999999998e-01 +8.1649897932430058e+00 +0.0000000000000000e+00 +5.9999999988424690e-01 -2.9618784442214580e-02 -5.6556706090781661e-01 +5.6939958963381204e-03
6.9999999999999996e-01 +8.1649861074715098e+00 +0.0000000000000000e+00 +6.9999999981618832e-01 -2.9618630995715198e-02 -5.6556684476846375e-01 +5.6939535450645055e-03
7.9999999999999993e-01 +8.1649818546590804e+00 +0.0000000000000000e+00 +7.9999999972562230e-01 -2.9618478158412145e-02 -5.6556663325787271e-01 +5.6939138609415751e-03
8.9999999999999991e-01 +8.1649770348059310e+00 +0.0000000000000000e+00 +8.9999999960933341e-01 -2.9618327830279328e-02 -5.6556642685286740e-01 +5.6938768350775762e-03
9.9999999999999989e-01 +8.1649716479122691e+00 +0.0000000000000000e+00 +9.9999999946410634e-01 -2.9618181911297278e-02 -5.6556622603026807e-01 +5.6938424585812660e-03
1.0999999999999999e+00 +8.1649656939782957e+00 +0.0000000000000000e+00 +1.0999999992867258e+00 -2.9618042301452877e-02 -5.6556603126689442e-01 +5.6938107225617401e-03
1.2000000000000000e+00 +8.1649591730042044e+00 +0.0000000000000000e+00 +1.1999999990739763e+00 -2.9617910900738773e-02 -5.6556584303956337e-01 +5.6937816181282311e-03
1.3000000000000000e+00 +8.1649520849901869e+00 +0.0000000000000000e+00 +1.2999999988226425e+00 -2.9617789609152942e-02 -5.6556566182509016e-01 +5.6937551363899427e-03
1.4000000000000001e+00 +8.1649444299364227e+00 +0.0000000000000000e+00 +1.3999999985295093e+00 -2.9617680326698297e-02 -5.6556548810028917e-01 +5.6937312684558691e-03
1.5000000000000002e+00 +8.1649362078430876e+00 +0.0000000000000000e+00 +1.4999999981913612e+00 -2.9617584953382115e-02 -5.6556532234197177e-01 +5.6937100054345966e-03
1.6000000000000003e+00 +8.1649274187103487e+00 +0.0000000000000000e+00 +1.5999999978049830e+00 -2.9617505389215731e-02 -5.6556516502694931e-01 +5.6936913384341538e-03
1.7000000000000004e+00 +8.1649180625383622e+00 +0.0000000000000000e+00 +1.6999999973671593e+00 -2.9617443534213871e-02 -5.6556501663203085e-01 +5.6936752585618009e-03
1.8000000000000005e+00 +8.1649081393272773e+00 +0.0000000000000000e+00 +1.7999999968746747e+00 -2.9617401288394404e-02 -5.6556487763402474e-01 +5.6936617569238656e-03
1.9000000000000006e+00 +8.1648976490772345e+00 +0.0000000000000000e+00 +1.8999999963243139e+00 -2.9617380551777775e-02 -5.6556474850973737e-01 +5.6936508246255586e-03
2.0000000000000004e+00 +8.1648865917883633e+00 +0.0000000000000000e+00 +1.9999999957128618e+00 -2.9617383224386486e-02 -5.6556462973597488e-01 +5.6936424527707849e-03
2.1000000000000005e+00 +8.1648749674607828e+00 +0.0000000000000000e+00 +2.0999999950371029e+00 -2.9617410555016058e-02 -5.6556452161991977e-01 +5.6936366195836649e-03
2.2000000000000006e+00 +8.1648627760946031e+00 +0.0000000000000000e+00 +2.1999999942938220e+00 -2.9617461187544800e-02 -5.6556442379026550e-01 +5.6936332517731423e-03
2.3000000000000007e+00 +8.1648500176899219e+00 +0.0000000000000000e+00 +2.2999999934798034e+00 -2.9617533114613539e-02 -5.6556433570608788e-01 +5.6936322631672420e-03
2.4000000000000008e+00 +8.1648366922468281e+00 +0.0000000000000000e+00 +2.3999999925918325e+00 -2.9617624328852163e-02 -5.6556425682646727e-01 +5.6936335675910402e-03
2.5000000000000009e+00 +8.1648227997653997e+00 +0.0000000000000000e+00 +2.4999999916266935e+00 -2.9617732822878079e-02 -5.6556418661048835e-01 +5.6936370788664174e-03
2.6000000000000010e+00 +8.1648083402457097e+00 +0.0000000000000000e+00 +2.5999999905811708e+00 -2.9617856589294608e-02 -5.6556412451724325e-01 +5.6936427108117494e-03
2.7000000000000011e+00 +8.1647933136878201e+00 +0.0000000000000000e+00 +2.6999999894520497e+00 -2.9617993620689387e-02 -5.6556407000583064e-01 +5.6936503772416734e-03
2.8000000000000012e+00 +8.1647777200917862e+00 +0.0000000000000000e+00 +2.7999999882361144e+00 -2.9618141909632835e-02 -5.6556402253535543e-01 +5.6936599919667867e-03
2.9000000000000012e+00 +8.1647615594576557e+00 +0.0000000000000000e+00 +2.8999999869301498e+00 -2.9618299448676493e-02 -5.6556398156493182e-01 +5.6936714687933869e-03
3.0000000000000013e+00 +8.1647448317854714e+00 +0.0000000000000000e+00 +2.9999999855309407e+00 -2.9618464230351541e-02 -5.6556394655368203e-01 +5.6936847215231963e-03
3.1000000000000014e+00 +8.1647275370752670e+00 +0.0000000000000000e+00 +3.0999999840352719e+00 -2.9618634247167139e-02 -5.6556391696073693e-01 +5.6936996639530887e-03
3.2000000000000015e+00 +8.1647096753270745e+00 +0.0000000000000000e+00 +3.1999999824399277e+00 -2.9618807491608903e-02 -5.6556389224523884e-01 +5.6937162098748178e-03
3.3000000000000016e+00 +8.1646912465409187e+00 +0.0000000000000000e+00 +3.2999999807416929e+00 -2.9618981956137269e-02 -5.6556387186633916e-01 +5.6937342730747501e-03
3.4000000000000017e+00 +8.1646722507168210e+00 +0.0000000000000000e+00 +3.3999999789373523e+00 -2.9619155633185949e-02 -5.6556385528320152e-01 +5.6937537673335753e-03
3.5000000000000018e+00 +8.1646526878547974e+00 +0.0000000000000000e+00 +3.4999999770236903e+00 -2.9619326515160339e-02 -5.6556384195500031e-01 +5.6937746064260513e-03
3.6000000000000019e+00 +8.1646325579548638e+00 +0.0000000000000000e+00 +3.5999999749974920e+00 -2.9619492594435963e-02 -5.6556383134092303e-01 +5.6937967041207236e-03
3.7000000000000020e+00 +8.1646118610170291e+00 +0.0000000000000000e+00 +3.6999999728555419e+00 -2.9619651863356831e-02 -5.6556382290017038e-01 +5.6938199741796555e-03
3.8000000000000020e+00 +8.1645905970413040e+00 +0.0000000000000000e+00 +3.7999999705946248e+00 -2.9619802314233955e-02 -5.6556381609195694e-01 +5.6938443303581540e-03
3.9000000000000021e+00 +8.1645687660276973e+00 +0.0000000000000000e+00 +3.8999999682115249e+00 -2.9619941939343655e-02 -5.6556381037551051e-01 +5.6938696864044878e-03
4.0000000000000018e+00 +8.1645463679762145e+00 +0.0000000000000000e+00 +3.9999999657030276e+00 -2.9620068730926090e-02 -5.6556380521007499e-01 +5.6938959560596377e-03
4.1000000000000014e+00 +8.1645234028868607e+00 +0.0000000000000000e+00 +4.0999999630659172e+00 -2.9620181103631248e-02 -5.6556380016387775e-01 +5.6939230699429993e-03
4.2000000000000011e+00 +8.1644998707596415e+00 +0.0000000000000000e+00 +4.1999999602969780e+00 -2.9620279161881310e-02 -5.6556379524102240e-01 +5.6939510262153771e-03
4.3000000000000007e+00 +8.1644757715945637e+00 +0.0000000000000000e+00 +4.2999999573929948e+00 -2.9620363432560758e-02 -5.6556379055457240e-01 +5.6939798399301324e-03
4.4000000000000004e+00 +8.1644511053916329e+00 +0.0000000000000000e+00 +4.3999999543507533e+00 -2.9620434442574339e-02 -5.6556378621757741e-01 +5.6940095261490704e-03
4.5000000000000000e+00 +8.1644258721508525e+00 +0.0000000000000000e+00 +4.4999999511670374e+00 -2.9620492718849055e-02 -5.6556378234307436e-01 +5.6940400999430834e-03
4.5999999999999996e+00 +8.1644000718722296e+00 +0.0000000000000000e+00 +4.5999999478386320e+00 -2.9620538788336013e-02 -5.6556377904408406e-01 +5.6940715763928312e-03
4.6999999999999993e+00 +8.1643737045557661e+00 +0.0000000000000000e+00 +4.6999999443623208e+00 -2.9620573178012394e-02 -5.6556377643361289e-01 +5.6941039705893925e-03
4.7999999999999989e+00 +8.1643467702014672e+00 +0.0000000000000000e+00 +4.7999999407348897e+00 -2.9620596414883297e-02 -5.6556377462464957e-01 +5.6941372976349325e-03
4.8999999999999986e+00 +8.1643192688093347e+00 +0.0000000000000000e+00 +4.8999999369531224e+00 -2.9620609025983742e-02 -5.6556377373016564e-01 +5.6941715726433594e-03
4.9999999999999982e+00 +8.1642912003793704e+00 +0.0000000000000000e+00 +4.9999999330138047e+00 -2.9620611538380505e-02 -5.6556377386311241e-01 +5.6942068107410006e-03
5.0999999999999979e+00 +8.1642625649115743e+00 +0.0000000000000000e+00 +5.0999999289137206e+00 -2.9620604479174074e-02 -5.6556377513642275e-01 +5.6942430270672468e-03
5.1999999999999975e+00 +8.1642333624059482e+00 +0.0000000000000000e+00 +5.1999999246496547e+00 -2.9620588375500561e-02 -5.6556377766300769e-01 +5.6942802367752300e-03
5.2999999999999972e+00 +8.1642035928624885e+00 +0.0000000000000000e+00 +5.2999999202183918e+00 -2.9620563754533587e-02 -5.6556378155575660e-01 +5.6943184550324747e-03
5.3999999999999968e+00 +8.1641732562811935e+00 +0.0000000000000000e+00 +5.3999999156167169e+00 -2.9620531143486225e-02 -5.6556378692753551e-01 +5.6943576970215721e-03
5.4999999999999964e+00 +8.1641423526620578e+00 +0.0000000000000000e+00 +5.4999999108414146e+00 -2.9620491069612918e-02 -5.6556379389118672e-01 +5.6943979779408328e-03
5.5999999999999961e+00 +8.1641108820050761e+00 +0.0000000000000000e+00 +5.5999999058892689e+00 -2.9620444060211373e-02 -5.6556380255952665e-01 +5.6944393130049500e-03
5.6999999999999957e+00 +8.1640788443102412e+00 +0.0000000000000000e+00 +5.6999999007570654e+00 -2.9620390642624478e-02 -5.6556381304534598e-01 +5.6944817174456727e-03
5.7999999999999954e+00 +8.1640462395775426e+00 +0.0000000000000000e+00 +5.7999998954415881e+00 -2.9620331344242235e-02 -5.6556382546140882e-01 +5.6945252065124545e-03
5.8999999999999950e+00 +8.1640130678069678e+00 +0.0000000000000000e+00 +5.8999998899396218e+00 -2.9620266692503661e-02 -5.6556383992044990e-01 +5.6945697954731275e-03
5.9999999999999947e+00 +8.1639793289985061e+00 +0.0000000000000000e+00 +5.9999998842479521e+00 -2.9620197214898735e-02 -5.6556385653517582e-01 +5.6946154996145599e-03
6.0999999999999943e+00 +8.1639450231521398e+00 +0.0000000000000000e+00 +6.0999998783633629e+00 -2.9620123495183871e-02 -5.6556387540993613e-01 +5.6946623326832061e-03
6.1999999999999940e+00 +8.1639101502678511e+00 +0.0000000000000000e+00 +6.1999998722826382e+00 -2.9620046342006656e-02 -5.6556389661576745e-01 +5.6947103021960047e-03
6.2999999999999936e+00 +8.1638747103456222e+00 +0.0000000000000000e+00 +6.2999998660025636e+00 -2.9619966620232727e-02 -5.6556392021540036e-01 +5.6947594141044484e-03
6.3999999999999932e+00 +8.1638387033854283e+00 +0.0000000000000000e+00 +6.3999998595199239e+00 -2.9619885194726771e-02 -5.6556394627159079e-01 +5.6948096743519097e-03
6.4999999999999929e+00 +8.1638021293872445e+00 +0.0000000000000000e+00 +6.4999998528315031e+00 -2.9619802930352095e-02 -5.6556397484712251e-01 +5.6948610888731786e-03
6.5999999999999925e+00 +8.1637649883510441e+00 +0.0000000000000000e+00 +6.5999998459340858e+00 -2.9619720691970341e-02 -5.6556400600480750e-01 +5.6949136635939734e-03
6.6999999999999922e+00 +8.1637272802767971e+00 +0.0000000000000000e+00 +6.6999998388244570e+00 -2.9619639344440975e-02 -5.6556403980748615e-01 +5.6949674044304470e-03
6.7999999999999918e+00 +8.1636890051644713e+00 +0.0000000000000000e+00 +6.7999998314994015e+00 -2.9619559752621021e-02 -5.6556407631803074e-01 +5.6950223172887128e-03
6.8999999999999915e+00 +8.1636501630140295e+00 +0.0000000000000000e+00 +6.8999998239557039e+00 -2.9619482781364562e-02 -5.6556411559934461e-01 +5.6950784080643602e-03
6.9999999999999911e+00 +8.1636107538254343e+00 +0.0000000000000000e+00 +6.9999998161901491e+00 -2.9619409295522488e-02 -5.6556415771436519e-01 +5.6951356826419703e-03
7.0999999999999908e+00 +8.1635707775986450e+00 +0.0000000000000000e+00 +7.0999998081995210e+00 -2.9619340159941936e-02 -5.6556420272606323e-01 +5.6951941468946299e-03
7.1999999999999904e+00 +8.1635302343336189e+00 +0.0000000000000000e+00 +7.1999997999806054e+00 -2.9619276239466044e-02 -5.6556425069744642e-01 +5.6952538066834526e-03
7.2999999999999901e+00 +8.1634891240303080e+00 +0.0000000000000000e+00 +7.2999997915301860e+00 -2.9619218398933483e-02 -5.6556430169155847e-01 +5.6953146678570829e-03
7.3999999999999897e+00 +8.1634474466886626e+00 +0.0000000000000000e+00 +7.3999997828450477e+00 -2.9619167503178084e-02 -5.6556435577148156e-01 +5.6953767362512304e-03
7.4999999999999893e+00 +8.1634052023086294e+00 +0.0000000000000000e+00 +7.4999997739219753e+00 -2.9619124417028433e-02 -5.6556441300033689e-01 +5.6954400176881673e-03
7.5999999999999890e+00 +8.1633623908901534e+00 +0.0000000000000000e+00 +7.5999997647577535e+00 -2.9619090005307516e-02 -5.6556447344128735e-01 +5.6955045179762666e-03
7.6999999999999886e+00 +8.1633190124331740e+00 +0.0000000000000000e+00 +7.6999997553491664e+00 -2.9619065132832273e-02 -5.6556453715753674e-01 +5.6955702429094934e-03
7.7999999999999883e+00 +8.1632750669376293e+00 +0.0000000000000000e+00 +7.7999997456929995e+00 -2.9619050664413234e-02 -5.6556460421233257e-01 +5.6956371982669410e-03
7.8999999999999879e+00 +8.1632305544034534e+00 +0.0000000000000000e+00 +7.8999997357860368e+00 -2.9619047464854081e-02 -5.6556467466896632e-01 +5.6957053898123323e-03
7.9999999999999876e+00 +8.1631854748305788e+00 +0.0000000000000000e+00 +7.9999997256250630e+00 -2.9619056398951290e-02 -5.6556474859077499e-01 +5.6957748232935434e-03
8.0999999999999872e+00 +8.1631398282189309e+00 +0.0000000000000000e+00 +8.0999997152068630e+00 -2.9619078022857778e-02 -5.6556482613175851e-01 +5.6958455045084807e-03
8.1999999999999869e+00 +8.1630936145684334e+00 +0.0000000000000000e+00 +8.1999997045282207e+00 -2.9619111658158150e-02 -5.6556490780840485e-01 +5.6959174395102338e-03
8.2999999999999865e+00 +8.1630468338790063e+00 +0.0000000000000000e+00 +8.2999996935859208e+00 -2.9619156317770255e-02 -5.6556499422780093e-01 +5.6959906344192512e-03
8.3999999999999861e+00 +8.1629994861505644e+00 +0.0000000000000000e+00 +8.3999996823767500e+00 -2.9619211014583858e-02 -5.6556508599701005e-01 +5.6960650953587376e-03
8.4999999999999858e+00 +8.1629515713830170e+00 +0.0000000000000000e+00 +8.4999996708974912e+00 -2.9619274761459567e-02 -5.6556518372306963e-01 +5.6961408284547420e-03
8.5999999999999854e+00 +8.1629030895762682e+00 +0.0000000000000000e+00 +8.5999996591449293e+00 -2.9619346571228000e-02 -5.6556528801299100e-01 +5.6962178398363055e-03
8.6999999999999851e+00 +8.1628540407302150e+00 +0.0000000000000000e+00 +8.6999996471158489e+00 -2.9619425456688785e-02 -5.6556539947375839e-01 +5.6962961356355635e-03
8.7999999999999847e+00 +8.1628044248447456e+00 +0.0000000000000000e+00 +8.7999996348070333e+00 -2.9619510430609636e-02 -5.6556551871232752e-01 +5.6963757219878706e-03
8.8999999999999844e+00 +8.1627542419197425e+00 +0.0000000000000000e+00 +8.8999996222152689e+00 -2.9619600505725433e-02 -5.6556564633562578e-01 +5.6964566050319299e-03
8.9999999999999840e+00 +8.1627034919550816e+00 +0.0000000000000000e+00 +8.9999996093373387e+00 -2.9619694694737270e-02 -5.6556578295054916e-01 +5.6965387909098959e-03
9.0999999999999837e+00 +8.1626521749506242e+00 +0.0000000000000000e+00 +9.0999995961700293e+00 -2.9619792010311518e-02 -5.6556592916396375e-01 +5.6966222857675131e-03
9.1999999999999833e+00 +8.1626002909062283e+00 +0.0000000000000000e+00 +9.1999995827101237e+00 -2.9619891465078870e-02 -5.6556608558270327e-01 +5.6967070957542202e-03
9.2999999999999829e+00 +8.1625478398217375e+00 +0.0000000000000000e+00 +9.2999995689544068e+00 -2.9619992071633464e-02 -5.6556625281356798e-01 +5.6967932270232781e-03
9.3999999999999826e+00 +8.1624948216969848e+00 +0.0000000000000000e+00 +9.3999995548996633e+00 -2.9620092842531896e-02 -5.6556643146332441e-01 +5.6968806857318893e-03
9.4999999999999822e+00 +8.1624412365317927e+00 +0.0000000000000000e+00 +9.4999995405426780e+00 -2.9620192790292318e-02 -5.6556662213870468e-01 +5.6969694780413241e-03
9.5999999999999819e+00 +8.1623870843259727e+00 +0.0000000000000000e+00 +9.5999995258802358e+00 -2.9620290927393485e-02 -5.6556682544640413e-01 +5.6970596101170185e-03
9.6999999999999815e+00 +8.1623323650793225e+00 +0.0000000000000000e+00 +9.6999995109091213e+00 -2.9620386266273866e-02 -5.6556704199308216e-01 +5.6971510881287336e-03
9.7999999999999812e+00 +8.1622770787916270e+00 +0.0000000000000000e+00 +9.7999994956261176e+00 -2.9620477819330669e-02 -5.6556727238535964e-01 +5.6972439182506303e-03
9.8999999999999808e+00 +8.1622212254626572e+00 +0.0000000000000000e+00 +9.8999994800280113e+00 -2.9620564598918948e-02 -5.6556751722981846e-01 +5.6973381066614242e-03
9.9999999999999805e+00 +8.1621648050921678e+00 +0.0000000000000000e+00 +9.9999994641115855e+00 -2.9620645617350654e-02 -5.6556777713300155e-01 +5.6974336595444902e-03
1.0099999999999980e+01 +8.1621078176799013e+00 +0.0000000000000000e+00 +1.0099999447873625e+01 -2.9620720117327141e-02 -5.6556805253418996e-01 +5.6975305788024653e-03
1.0199999999999980e+01 +8.1620502632255825e+00 +0.0000000000000000e+00 +1.0199999431310914e+01 -2.9620788263280198e-02 -5.6556834320375016e-01 +5.6976288491978246e-03
1.0299999999999979e+01 +8.1619921417289234e+00 +0.0000000000000000e+00 +1.0299999414420236e+01 -2.9620850450112032e-02 -5.6556864874483803e-01 +5.6977284512048955e-03
1.0399999999999979e+01 +8.1619334531896186e+00 +0.0000000000000000e+00 +1.0399999397198378e+01 -2.9620907072762114e-02 -5.6556896876063245e-01 +5.6978293652947699e-03
1.0499999999999979e+01 +8.1618741976073483e+00 +0.0000000000000000e+00 +1.0499999379642123e+01 -2.9620958526208281e-02 -5.6556930285433327e-01 +5.6979315719352195e-03
1.0599999999999978e+01 +8.1618143749817804e+00 +0.0000000000000000e+00 +1.0599999361748255e+01 -2.9621005205467767e-02 -5.6556965062916442e-01 +5.6980350515906230e-03
1.0699999999999978e+01 +8.1617539853125685e+00 +0.0000000000000000e+00 +1.0699999343513559e+01 -2.9621047505598297e-02 -5.6557001168837362e-01 +5.6981397847218835e-03
1.0799999999999978e+01 +8.1616930285993519e+00 +0.0000000000000000e+00 +1.0799999324934818e+01 -2.9621085821699079e-02 -5.6557038563523165e-01 +5.6982457517863400e-03
1.0899999999999977e+01 +8.1616315048417594e+00 +0.0000000000000000e+00 +1.0899999306008819e+01 -2.9621120548911875e-02 -5.6557077207303541e-01 +5.6983529332377027e-03
1.0999999999999977e+01 +8.1615694140394037e+00 +0.0000000000000000e+00 +1.0999999286732345e+01 -2.9621152082422116e-02 -5.6557117060510664e-01 +5.6984613095259588e-03
1.1099999999999977e+01 +8.1615067561918870e+00 +0.0000000000000000e+00 +1.1099999267102181e+01 -2.9621180817459871e-02 -5.6557158083479320e-01 +5.6985708610973011e-03
1.1199999999999976e+01 +8.1614435312988007e+00 +0.0000000000000000e+00 +1.1199999247115109e+01 -2.9621207149300905e-02 -5.6557200236546890e-01 +5.6986815683940329e-03
1.1299999999999976e+01 +8.1613797393597238e+00 +0.0000000000000000e+00 +1.1299999226767916e+01 -2.9621231473267822e-02 -5.6557243480053654e-01 +5.6987934118545138e-03
1.1399999999999975e+01 +8.1613153803742264e+00 +0.0000000000000000e+00 +1.1399999206057386e+01 -2.9621254184730991e-02 -5.6557287774342446e-01 +5.6989063719130525e-03
1.1499999999999975e+01 +8.1612504543418645e+00 +0.0000000000000000e+00 +1.1499999184980300e+01 -2.9621275679109677e-02 -5.6557333079759120e-01 +5.6990204289998365e-03
1.1599999999999975e+01 +8.1611849612621867e+00 +0.0000000000000000e+00 +1.1599999163533447e+01 -2.9621296351873102e-02 -5.6557379356652393e-01 +5.6991355635408565e-03
1.1699999999999974e+01 +8.1611189011347314e+00 +0.0000000000000000e+00 +1.1699999141713608e+01 -2.9621316598541420e-02 -5.6557426565373869e-01 +5.6992517559578204e-03
1.1799999999999974e+01 +8.1610522739590277e+00 +0.0000000000000000e+00 +1.1799999119517569e+01 -2.9621336814686833e-02 -5.6557474666278296e-01 +5.6993689866680708e-03
