# trajectory
# s[mm] rx[mm] ry[mm] rz[mm] px[rad] py[rad] pz[rad]
0.0000000000000000e+00 +7.9199999999999999e+00 +0.0000000000000000e+00 +0.0000000000000000e+00 +0.0000000000000000e+00 +0.0000000000000000e+00 +1.0000000000000000e+00
1.0000000000000001e-01 +7.9199997168516125e+00 +0.0000000000000000e+00 +9.9999999999465516e-02 -5.6629679103957631e-06 +0.0000000000000000e+00 +9.9999999998396538e-01
2.0000000000000001e-01 +7.9199988674063873e+00 +0.0000000000000000e+00 +1.9999999999572410e-01 -1.1325936758656600e-05 +0.0000000000000000e+00 +9.9999999993586153e-01
3.0000000000000004e-01 +7.9199974516642291e+00 +0.0000000000000000e+00 +2.9999999998556881e-01 -1.6988906568385764e-05 +0.0000000000000000e+00 +9.9999999985568844e-01
4.0000000000000002e-01 +7.9199954696250412e+00 +0.0000000000000000e+00 +3.9999999996579277e-01 -2.2651877353418351e-05 +0.0000000000000000e+00 +9.9999999974344611e-01
5.0000000000000000e-01 +7.9199929212887259e+00 +0.0000000000000000e+00 +4.9999999993318905e-01 -2.8314849117821252e-05 +0.0000000000000000e+00 +9.9999999959913455e-01
5.9999999999999998e-01 +7.9199898066551855e+00 +0.0000000000000000e+00 +5.9999999988455066e-01 -3.3977821855893104e-05 +0.0000000000000000e+00 +9.9999999942275375e-01
6.9999999999999996e-01 +7.9199861257243231e+00 +0.0000000000000000e+00 +6.9999999981667083e-01 -3.9640795552164246e-05 +0.0000000000000000e+00 +9.9999999921430360e-01
7.9999999999999993e-01 +7.9199818784960438e+00 +0.0000000000000000e+00 +7.9999999972634250e-01 -4.5303770181396642e-05 +0.0000000000000000e+00 +9.9999999897378411e-01
8.9999999999999991e-01 +7.9199770649702570e+00 +0.0000000000000000e+00 +8.9999999961035870e-01 -5.0966745708583871e-05 +0.0000000000000000e+00 +9.9999999870119527e-01
9.9999999999999989e-01 +7.9199716851468738e+00 +0.0000000000000000e+00 +9.9999999946551255e-01 -5.6629722088951061e-05 +0.0000000000000000e+00 +9.9999999839653719e-01
1.0999999999999999e+00 +7.9199657390258125e+00 +0.0000000000000000e+00 +1.0999999992885972e+00 -6.2292699267954825e-05 +0.0000000000000000e+00 +9.9999999805980966e-01
1.2000000000000000e+00 +7.9199592266069958e+00 +0.0000000000000000e+00 +1.1999999990764054e+00 -6.7955677181283253e-05 +0.0000000000000000e+00 +9.9999999769101278e-01
1.3000000000000000e+00 +7.9199521478903545e+00 +0.0000000000000000e+00 +1.2999999988257307e+00 -7.3618655754855838e-05 +0.0000000000000000e+00 +9.9999999729014655e-01
1.4000000000000001e+00 +7.9199445028758255e+00 +0.0000000000000000e+00 +1.3999999985333658e+00 -7.9281634904823420e-05 +0.0000000000000000e+00 +9.9999999685721097e-01
1.5000000000000002e+00 +7.9199362915633573e+00 +0.0000000000000000e+00 +1.4999999981961039e+00 -8.4944614537568204e-05 +0.0000000000000000e+00 +9.9999999639220605e-01
1.6000000000000003e+00 +7.9199275139529055e+00 +0.0000000000000000e+00 +1.5999999978107380e+00 -9.0607594549703627e-05 +0.0000000000000000e+00 +9.9999999589513167e-01
1.7000000000000004e+00 +7.9199181700444381e+00 +0.0000000000000000e+00 +1.6999999973740612e+00 -9.6270574828074407e-05 +0.0000000000000000e+00 +9.9999999536598794e-01
1.8000000000000005e+00 +7.9199082598379347e+00 +0.0000000000000000e+00 +1.7999999968828666e+00 -1.0193355524975643e-04 +0.0000000000000000e+00 +9.9999999480477486e-01
1.9000000000000006e+00 +7.9198977833333872e+00 +0.0000000000000000e+00 +1.8999999963339471e+00 -1.0759653568205674e-04 +0.0000000000000000e+00 +9.9999999421149244e-01
2.0000000000000004e+00 +7.9198867405308020e+00 +0.0000000000000000e+00 +1.9999999957240959e+00 -1.1325951598251352e-04 +0.0000000000000000e+00 +9.9999999358614067e-01
2.1000000000000005e+00 +7.9198751314302003e+00 +0.0000000000000000e+00 +2.0999999950501063e+00 -1.1892249599998797e-04 +0.0000000000000000e+00 +9.9999999292871966e-01
2.2000000000000006e+00 +7.9198629560316167e+00 +0.0000000000000000e+00 +2.1999999943087709e+00 -1.2458547558667608e-04 +0.0000000000000000e+00 +9.9999999223922931e-01
2.3000000000000007e+00 +7.9198502143351019e+00 +0.0000000000000000e+00 +2.2999999934968831e+00 -1.3024845461012026e-04 +0.0000000000000000e+00 +9.9999999151766972e-01
2.4000000000000008e+00 +7.9198369063407172e+00 +0.0000000000000000e+00 +2.3999999926112361e+00 -1.3591143295430141e-04 +0.0000000000000000e+00 +9.9999999076404089e-01
2.5000000000000009e+00 +7.9198230320485363e+00 +0.0000000000000000e+00 +2.4999999916486226e+00 -1.4157441051963892e-04 +0.0000000000000000e+00 +9.9999998997834283e-01
2.6000000000000010e+00 +7.9198085914586418e+00 +0.0000000000000000e+00 +2.5999999906058360e+00 -1.4723738722299077e-04 +0.0000000000000000e+00 +9.9999998916057553e-01
2.7000000000000011e+00 +7.9197935845711225e+00 +0.0000000000000000e+00 +2.6999999894796689e+00 -1.5290036299765345e-04 +0.0000000000000000e+00 +9.9999998831073911e-01
2.8000000000000012e+00 +7.9197780113860743e+00 +0.0000000000000000e+00 +2.7999999882669147e+00 -1.5856333779336215e-04 +0.0000000000000000e+00 +9.9999998742883356e-01
2.9000000000000012e+00 +7.9197618719035976e+00 +0.0000000000000000e+00 +2.8999999869643664e+00 -1.6422631157629074e-04 +0.0000000000000000e+00 +9.9999998651485889e-01
3.0000000000000013e+00 +7.9197451661237936e+00 +0.0000000000000000e+00 +2.9999999855688175e+00 -1.6988928432905181e-04 +0.0000000000000000e+00 +9.9999998556881509e-01
3.1000000000000014e+00 +7.9197278940467664e+00 +0.0000000000000000e+00 +3.0999999840770607e+00 -1.7555225605069688e-04 +0.0000000000000000e+00 +9.9999998459070227e-01
3.2000000000000015e+00 +7.9197100556726179e+00 +0.0000000000000000e+00 +3.1999999824858891e+00 -1.8121522675671636e-04 +0.0000000000000000e+00 +9.9999998358052034e-01
3.3000000000000016e+00 +7.9196916510014477e+00 +0.0000000000000000e+00 +3.2999999807920957e+00 -1.8687819647903968e-04 +0.0000000000000000e+00 +9.9999998253826938e-01
3.4000000000000017e+00 +7.9196726800333526e+00 +0.0000000000000000e+00 +3.3999999789924740e+00 -1.9254116526603538e-04 +0.0000000000000000e+00 +9.9999998146394942e-01
3.5000000000000018e+00 +7.9196531427684231e+00 +0.0000000000000000e+00 +3.4999999770838168e+00 -1.9820413318251125e-04 +0.0000000000000000e+00 +9.9999998035756033e-01
3.6000000000000019e+00 +7.9196330392067420e+00 +0.0000000000000000e+00 +3.5999999750629170e+00 -2.0386710030971436e-04 +0.0000000000000000e+00 +9.9999997921910222e-01
3.7000000000000020e+00 +7.9196123693483838e+00 +0.0000000000000000e+00 +3.6999999729265682e+00 -2.0953006674533130e-04 +0.0000000000000000e+00 +9.9999997804857510e-01
3.8000000000000020e+00 +7.9195911331934123e+00 +0.0000000000000000e+00 +3.7999999706715633e+00 -2.1519303260348824e-04 +0.0000000000000000e+00 +9.9999997684597886e-01
3.9000000000000021e+00 +7.9195693307418784e+00 +0.0000000000000000e+00 +3.8999999682946953e+00 -2.2085599801475103e-04 +0.0000000000000000e+00 +9.9999997561131349e-01
4.0000000000000018e+00 +7.9195469619938192e+00 +0.0000000000000000e+00 +3.9999999657927572e+00 -2.2651896312612539e-04 +0.0000000000000000e+00 +9.9999997434457910e-01
4.1000000000000014e+00 +7.9195240269492571e+00 +0.0000000000000000e+00 +4.0999999631625421e+00 -2.3218192809997955e-04 +0.0000000000000000e+00 +9.9999997304577548e-01
4.2000000000000011e+00 +7.9195005256081981e+00 +0.0000000000000000e+00 +4.1999999604008433e+00 -2.3784489310219129e-04 +0.0000000000000000e+00 +9.9999997171490274e-01
4.3000000000000007e+00 +7.9194764579706307e+00 +0.0000000000000000e+00 +4.2999999575044541e+00 -2.4350785829029502e-04 +0.0000000000000000e+00 +9.9999997035196075e-01
4.4000000000000004e+00 +7.9194518240365293e+00 +0.0000000000000000e+00 +4.3999999544701671e+00 -2.4917082381240415e-04 +0.0000000000000000e+00 +9.9999996895694954e-01
4.5000000000000000e+00 +7.9194266238058528e+00 +0.0000000000000000e+00 +4.4999999512947753e+00 -2.5483378980721089e-04 +0.0000000000000000e+00 +9.9999996752986897e-01
4.5999999999999996e+00 +7.9194008572785481e+00 +0.0000000000000000e+00 +4.5999999479750722e+00 -2.6049675640398625e-04 +0.0000000000000000e+00 +9.9999996607071906e-01
4.6999999999999993e+00 +7.9193745244545486e+00 +0.0000000000000000e+00 +4.6999999445078506e+00 -2.6615972372257988e-04 +0.0000000000000000e+00 +9.9999996457949980e-01
4.7999999999999989e+00 +7.9193476253337760e+00 +0.0000000000000000e+00 +4.7999999408899034e+00 -2.7182269187341995e-04 +0.0000000000000000e+00 +9.9999996305621108e-01
4.8999999999999986e+00 +7.9193201599161425e+00 +0.0000000000000000e+00 +4.8999999371180243e+00 -2.7748566095751301e-04 +0.0000000000000000e+00 +9.9999996150085291e-01
4.9999999999999982e+00 +7.9192921282015503e+00 +0.0000000000000000e+00 +4.9999999331890050e+00 -2.8314863106644378e-04 +0.0000000000000000e+00 +9.9999995991342527e-01
5.0999999999999979e+00 +7.9192635301898919e+00 +0.0000000000000000e+00 +5.0999999290996403e+00 -2.8881160228237516e-04 +0.0000000000000000e+00 +9.9999995829392807e-01
5.1999999999999975e+00 +7.9192343658810538e+00 +0.0000000000000000e+00 +5.1999999248467219e+00 -2.9447457467804796e-04 +0.0000000000000000e+00 +9.9999995664236119e-01
5.2999999999999972e+00 +7.9192046352749150e+00 +0.0000000000000000e+00 +5.2999999204270436e+00 -3.0013754831678072e-04 +0.0000000000000000e+00 +9.9999995495872473e-01
5.3999999999999968e+00 +7.9191743383713478e+00 +0.0000000000000000e+00 +5.3999999158373981e+00 -3.0580052325246963e-04 +0.0000000000000000e+00 +9.9999995324301860e-01
5.4999999999999964e+00 +7.9191434751702197e+00 +0.0000000000000000e+00 +5.4999999110745783e+00 -3.1146349952958826e-04 +0.0000000000000000e+00 +9.9999995149524279e-01
5.5999999999999961e+00 +7.9191120456713957e+00 +0.0000000000000000e+00 +5.5999999061353778e+00 -3.1712647718318737e-04 +0.0000000000000000e+00 +9.9999994971539719e-01
5.6999999999999957e+00 +7.9190800498747365e+00 +0.0000000000000000e+00 +5.6999999010165894e+00 -3.2278945623889478e-04 +0.0000000000000000e+00 +9.9999994790348179e-01
5.7999999999999954e+00 +7.9190474877801007e+00 +0.0000000000000000e+00 +5.7999998957150058e+00 -3.2845243671291514e-04 +0.0000000000000000e+00 +9.9999994605949660e-01
5.8999999999999950e+00 +7.9190143593873463e+00 +0.0000000000000000e+00 +5.8999998902274200e+00 -3.3411541861202971e-04 +0.0000000000000000e+00 +9.9999994418344162e-01
5.9999999999999947e+00 +7.9189806646963312e+00 +0.0000000000000000e+00 +5.9999998845506255e+00 -3.3977840193359610e-04 +0.0000000000000000e+00 +9.9999994227531674e-01
6.0999999999999943e+00 +7.9189464037069133e+00 +0.0000000000000000e+00 +6.0999998786814142e+00 -3.4544138666628269e-04 +0.0000000000000000e+00 +9.9999994033512207e-01
6.1999999999999940e+00 +7.9189115764189513e+00 +0.0000000000000000e+00 +6.1999998726165808e+00 -3.5110437279814861e-04 +0.0000000000000000e+00 +9.9999993836285750e-01
6.2999999999999936e+00 +7.9188761828323067e+00 +0.0000000000000000e+00 +6.2999998663529171e+00 -3.5676736032472402e-04 +0.0000000000000000e+00 +9.9999993635852302e-01
6.3999999999999932e+00 +7.9188402229468400e+00 +0.0000000000000000e+00 +6.3999998598872168e+00 -3.6243034924974437e-04 +0.0000000000000000e+00 +9.9999993432211853e-01
6.4999999999999929e+00 +7.9188036967624100e+00 +0.0000000000000000e+00 +6.4999998532162717e+00 -3.6809333958515031e-04 +0.0000000000000000e+00 +9.9999993225364414e-01
6.5999999999999925e+00 +7.9187666042788756e+00 +0.0000000000000000e+00 +6.5999998463368765e+00 -3.7375633135108745e-04 +0.0000000000000000e+00 +9.9999993015309974e-01
6.6999999999999922e+00 +7.9187289454960919e+00 +0.0000000000000000e+00 +6.6999998392458231e+00 -3.7941932457590617e-04 +0.0000000000000000e+00 +9.9999992802048532e-01
6.7999999999999918e+00 +7.9186907204139105e+00 +0.0000000000000000e+00 +6.7999998319399051e+00 -3.8508231929616153e-04 +0.0000000000000000e+00 +9.9999992585580078e-01
6.8999999999999915e+00 +7.9186519290321806e+00 +0.0000000000000000e+00 +6.8999998244159144e+00 -3.9074531555661292e-04 +0.0000000000000000e+00 +9.9999992365904611e-01
6.9999999999999911e+00 +7.9186125713507458e+00 +0.0000000000000000e+00 +6.9999998166706447e+00 -3.9640831341022394e-04 +0.0000000000000000e+00 +9.9999992143022132e-01
7.0999999999999908e+00 +7.9185726473694436e+00 +0.0000000000000000e+00 +7.0999998087008898e+00 -4.0207131291816213e-04 +0.0000000000000000e+00 +9.9999991916932629e-01
7.1999999999999904e+00 +7.9185321570881051e+00 +0.0000000000000000e+00 +7.1999998005034413e+00 -4.0773431414979888e-04 +0.0000000000000000e+00 +9.9999991687636092e-01
7.2999999999999901e+00 +7.9184911005065537e+00 +0.0000000000000000e+00 +7.2999997920750932e+00 -4.1339731718270905e-04 +0.0000000000000000e+00 +9.9999991455132531e-01
7.3999999999999897e+00 +7.9184494776246055e+00 +0.0000000000000000e+00 +7.3999997834126381e+00 -4.1906032210267083e-04 +0.0000000000000000e+00 +9.9999991219421924e-01
7.4999999999999893e+00 +7.9184072884420669e+00 +0.0000000000000000e+00 +7.4999997745128688e+00 -4.2472332900366552e-04 +0.0000000000000000e+00 +9.9999990980504272e-01
7.5999999999999890e+00 +7.9183645329587353e+00 +0.0000000000000000e+00 +7.5999997653725782e+00 -4.3038633798787726e-04 +0.0000000000000000e+00 +9.9999990738379563e-01
7.6999999999999886e+00 +7.9183212111743968e+00 +0.0000000000000000e+00 +7.6999997559885589e+00 -4.3604934916569282e-04 +0.0000000000000000e+00 +9.9999990493047786e-01
7.7999999999999883e+00 +7.9182773230888257e+00 +0.0000000000000000e+00 +7.7999997463576047e+00 -4.4171236265570134e-04 +0.0000000000000000e+00 +9.9999990244508941e-01
7.8999999999999879e+00 +7.9182328687017849e+00 +0.0000000000000000e+00 +7.8999997364765076e+00 -4.4737537858469405e-04 +0.0000000000000000e+00 +9.9999989992763016e-01
7.9999999999999876e+00 +7.9181878480130230e+00 +0.0000000000000000e+00 +7.9999997263420610e+00 -4.5303839708766408e-04 +0.0000000000000000e+00 +9.9999989737810002e-01
8.0999999999999872e+00 +7.9181422610222763e+00 +0.0000000000000000e+00 +8.0999997159510588e+00 -4.5870141830702671e-04 +0.0000000000000000e+00 +9.9999989479649876e-01
8.1999999999999869e+00 +7.9180961077292658e+00 +0.0000000000000000e+00 +8.1999997053002929e+00 -4.6436444238404535e-04 +0.0000000000000000e+00 +9.9999989218282637e-01
8.2999999999999865e+00 +7.9180493881336993e+00 +0.0000000000000000e+00 +8.2999996943865550e+00 -4.7002746945025756e-04 +0.0000000000000000e+00 +9.9999988953708274e-01
8.3999999999999861e+00 +7.9180021022352722e+00 +0.0000000000000000e+00 +8.3999996832066390e+00 -4.7569049962669632e-04 +0.0000000000000000e+00 +9.9999988685926777e-01
8.4999999999999858e+00 +7.9179542500336666e+00 +0.0000000000000000e+00 +8.4999996717573385e+00 -4.8135353302389006e-04 +0.0000000000000000e+00 +9.9999988414938135e-01
8.5999999999999854e+00 +7.9179058315285564e+00 +0.0000000000000000e+00 +8.5999996600354454e+00 -4.8701656974186350e-04 +0.0000000000000000e+00 +9.9999988140742335e-01
8.6999999999999851e+00 +7.9178568467196042e+00 +0.0000000000000000e+00 +8.6999996480377533e+00 -4.9267960987013789e-04 +0.0000000000000000e+00 +9.9999987863339368e-01
8.7999999999999847e+00 +7.9178072956064653e+00 +0.0000000000000000e+00 +8.7999996357610542e+00 -4.9834265348773130e-04 +0.0000000000000000e+00 +9.9999987582729222e-01
8.8999999999999844e+00 +7.9177571781887881e+00 +0.0000000000000000e+00 +8.8999996232021417e+00 -5.0400570066315962e-04 +0.0000000000000000e+00 +9.9999987298911885e-01
8.9999999999999840e+00 +7.9177064944662128e+00 +0.0000000000000000e+00 +8.9999996103578077e+00 -5.0966875145443667e-04 +0.0000000000000000e+00 +9.9999987011887348e-01
9.0999999999999837e+00 +7.9176552444383752e+00 +0.0000000000000000e+00 +9.0999995972248460e+00 -5.1533180590907478e-04 +0.0000000000000000e+00 +9.9999986721655609e-01
9.1999999999999833e+00 +7.9176034281049077e+00 +0.0000000000000000e+00 +9.1999995838000501e+00 -5.2099486406408536e-04 +0.0000000000000000e+00 +9.9999986428216658e-01
9.2999999999999829e+00 +7.9175510454654381e+00 +0.0000000000000000e+00 +9.2999995700802103e+00 -5.2665792594597943e-04 +0.0000000000000000e+00 +9.9999986131570484e-01
9.3999999999999826e+00 +7.9174980965195934e+00 +0.0000000000000000e+00 +9.3999995560621219e+00 -5.3232099157076839e-04 +0.0000000000000000e+00 +9.9999985831717086e-01
9.4999999999999822e+00 +7.9174445812669987e+00 +0.0000000000000000e+00 +9.4999995417425751e+00 -5.3798406094396421e-04 +0.0000000000000000e+00 +9.9999985528656454e-01
9.5999999999999819e+00 +7.9173904997072793e+00 +0.0000000000000000e+00 +9.5999995271183654e+00 -5.4364713406058042e-04 +0.0000000000000000e+00 +9.9999985222388588e-01
9.6999999999999815e+00 +7.9173358518400621e+00 +0.0000000000000000e+00 +9.6999995121862845e+00 -5.4931021090513245e-04 +0.0000000000000000e+00 +9.9999984912913464e-01
9.7999999999999812e+00 +7.9172806376649749e+00 +0.0000000000000000e+00 +9.7999994969431246e+00 -5.5497329145163838e-04 +0.0000000000000000e+00 +9.9999984600231095e-01
9.8999999999999808e+00 +7.9172248571816493e+00 +0.0000000000000000e+00 +9.8999994813856773e+00 -5.6063637566361956e-04 +0.0000000000000000e+00 +9.9999984284341470e-01
9.9999999999999805e+00 +7.9171685103897209e+00 +0.0000000000000000e+00 +9.9999994655107383e+00 -5.6629946349410131e-04 +0.0000000000000000e+00 +9.9999983965244588e-01
1.0099999999999980e+01 +7.9171115972888311e+00 +0.0000000000000000e+00 +1.0099999449315098e+01 -5.7196255488624033e-04 +0.0000000000000000e+00 +9.9999983642940449e-01
1.0199999999999980e+01 +7.9170541178786271e+00 +0.0000000000000000e+00 +1.0199999432795549e+01 -5.7762564978021901e-04 +0.0000000000000000e+00 +9.9999983317429042e-01
1.0299999999999979e+01 +7.9169960721587609e+00 +0.0000000000000000e+00 +1.0299999415948886e+01 -5.8328874812013968e-04 +0.0000000000000000e+00 +9.9999982988710368e-01
1.0399999999999979e+01 +7.9169374601288904e+00 +0.0000000000000000e+00 +1.0399999398771900e+01 -5.8895184985465073e-04 +0.0000000000000000e+00 +9.9999982656784425e-01
1.0499999999999979e+01 +7.9168782817886783e+00 +0.0000000000000000e+00 +1.0499999381261386e+01 -5.9461495493694650e-04 +0.0000000000000000e+00 +9.9999982321651204e-01
1.0599999999999978e+01 +7.9168185371377922e+00 +0.0000000000000000e+00 +1.0599999363414135e+01 -6.0027806332476697e-04 +0.0000000000000000e+00 +9.9999981983310715e-01
1.0699999999999978e+01 +7.9167582261759044e+00 +0.0000000000000000e+00 +1.0699999345226939e+01 -6.0594117498039717e-04 +0.0000000000000000e+00 +9.9999981641762936e-01
1.0799999999999978e+01 +7.9166973489026891e+00 +0.0000000000000000e+00 +1.0799999326696591e+01 -6.1160428987066726e-04 +0.0000000000000000e+00 +9.9999981297007878e-01
1.0899999999999977e+01 +7.9166359053178237e+00 +0.0000000000000000e+00 +1.0899999307819884e+01 -6.1726740796695179e-04 +0.0000000000000000e+00 +9.9999980949045530e-01
1.0999999999999977e+01 +7.9165738954209894e+00 +0.0000000000000000e+00 +1.0999999288593612e+01 -6.2293052924516934e-04 +0.0000000000000000e+00 +9.9999980597875893e-01
1.1099999999999977e+01 +7.9165113192118692e+00 +0.0000000000000000e+00 +1.1099999269014567e+01 -6.2859365368578236e-04 +0.0000000000000000e+00 +9.9999980243498965e-01
1.1199999999999976e+01 +7.9164481766901478e+00 +0.0000000000000000e+00 +1.1199999249079541e+01 -6.3425678127379656e-04 +0.0000000000000000e+00 +9.9999979885914736e-01
1.1299999999999976e+01 +7.9163844678555106e+00 +0.0000000000000000e+00 +1.1299999228785328e+01 -6.3991991199876077e-04 +0.0000000000000000e+00 +9.9999979525123206e-01
1.1399999999999975e+01 +7.9163201927076443e+00 +0.0000000000000000e+00 +1.1399999208128719e+01 -6.4558304585476619e-04 +0.0000000000000000e+00 +9.9999979161124364e-01
1.1499999999999975e+01 +7.9162553512462353e+00 +0.0000000000000000e+00 +1.1499999187106507e+01 -6.5124618284044620e-04 +0.0000000000000000e+00 +9.9999978793918209e-01
1.1599999999999975e+01 +7.9161899434709717e+00 +0.0000000000000000e+00 +1.1599999165715486e+01 -6.5690932295897587e-04 +0.0000000000000000e+00 +9.9999978423504732e-01
1.1699999999999974e+01 +7.9161239693815393e+00 +0.0000000000000000e+00 +1.1699999143952448e+01 -6.6257246621807158e-04 +0.0000000000000000e+00 +9.9999978049883931e-01
1.1799999999999974e+01 +7.9160574289776235e+00 +0.0000000000000000e+00 +1.1799999121814185e+01 -6.6823561262999045e-04 +0.0000000000000000e+00 +9.9999977673055795e-01
