# trajectory
# s[mm] rx[mm] ry[mm] rz[mm] px[rad] py[rad] pz[rad]
0.0000000000000000e+00 +7.9199999999999999e+00 +0.0000000000000000e+00 +0.0000000000000000e+00 +0.0000000000000000e+00 +0.0000000000000000e+00 +1.0000000000000000e+00
1.0000000000000001e-01 +7.9199997170828311e+00 +0.0000000000000000e+00 +9.9999999999466377e-02 -5.6583435266390375e-06 +0.0000000000000000e+00 +9.9999999998399158e-01
2.0000000000000001e-01 +7.9199988683312643e+00 +0.0000000000000000e+00 +1.9999999999573109e-01 -1.1316687971237999e-05 +0.0000000000000000e+00 +9.9999999993596633e-01
3.0000000000000004e-01 +7.9199974537452018e+00 +0.0000000000000000e+00 +2.9999999998559246e-01 -1.6975033462941693e-05 +0.0000000000000000e+00 +9.9999999985592414e-01
4.0000000000000002e-01 +7.9199954733245326e+00 +0.0000000000000000e+00 +3.9999999996584873e-01 -2.2633380121608548e-05 +0.0000000000000000e+00 +9.9999999974386511e-01
5.0000000000000000e-01 +7.9199929270691349e+00 +0.0000000000000000e+00 +4.9999999993329824e-01 -2.8291728057810685e-05 +0.0000000000000000e+00 +9.9999999959978914e-01
5.9999999999999998e-01 +7.9199898149788757e+00 +0.0000000000000000e+00 +5.9999999988473929e-01 -3.3950077372834009e-05 +0.0000000000000000e+00 +9.9999999942369622e-01
6.9999999999999996e-01 +7.9199861370536118e+00 +0.0000000000000000e+00 +6.9999999981697025e-01 -3.9608428158678289e-05 +0.0000000000000000e+00 +9.9999999921558635e-01
7.9999999999999993e-01 +7.9199818932931922e+00 +0.0000000000000000e+00 +7.9999999972678937e-01 -4.5266780498057254e-05 +0.0000000000000000e+00 +9.9999999897545944e-01
8.9999999999999991e-01 +7.9199770836974581e+00 +0.0000000000000000e+00 +8.9999999961099497e-01 -5.0925134464398679e-05 +0.0000000000000000e+00 +9.9999999870331546e-01
9.9999999999999989e-01 +7.9199717082662433e+00 +0.0000000000000000e+00 +9.9999999946638529e-01 -5.6583490121844501e-05 +0.0000000000000000e+00 +9.9999999839915443e-01
1.0999999999999999e+00 +7.9199657669993755e+00 +0.0000000000000000e+00 +1.0999999992897587e+00 -6.2241847525250897e-05 +0.0000000000000000e+00 +9.9999999806297635e-01
1.2000000000000000e+00 +7.9199592598966779e+00 +0.0000000000000000e+00 +1.1999999990779133e+00 -6.7900206720188409e-05 +0.0000000000000000e+00 +9.9999999769478110e-01
1.3000000000000000e+00 +7.9199521869579703e+00 +0.0000000000000000e+00 +1.2999999988276476e+00 -7.3558567742942018e-05 +0.0000000000000000e+00 +9.9999999729456868e-01
1.4000000000000001e+00 +7.9199445481830679e+00 +0.0000000000000000e+00 +1.3999999985357598e+00 -7.9216930620511298e-05 +0.0000000000000000e+00 +9.9999999686233909e-01
1.5000000000000002e+00 +7.9199363435717842e+00 +0.0000000000000000e+00 +1.4999999981990482e+00 -8.4875295370610501e-05 +0.0000000000000000e+00 +9.9999999639809223e-01
1.6000000000000003e+00 +7.9199275731239309e+00 +0.0000000000000000e+00 +1.5999999978143109e+00 -9.0533662001668661e-05 +0.0000000000000000e+00 +9.9999999590182809e-01
1.7000000000000004e+00 +7.9199182368393206e+00 +0.0000000000000000e+00 +1.6999999973783464e+00 -9.6192030512829761e-05 +0.0000000000000000e+00 +9.9999999537354667e-01
1.8000000000000005e+00 +7.9199083347177659e+00 +0.0000000000000000e+00 +1.7999999968879530e+00 -1.0185040089395281e-04 +0.0000000000000000e+00 +9.9999999481324797e-01
1.9000000000000006e+00 +7.9198978667590803e+00 +0.0000000000000000e+00 +1.8999999963399288e+00 -1.0750877312561197e-04 +0.0000000000000000e+00 +9.9999999422093189e-01
2.0000000000000004e+00 +7.9198868329630798e+00 +0.0000000000000000e+00 +1.9999999957310721e+00 -1.1316714717909672e-04 +0.0000000000000000e+00 +9.9999999359659841e-01
2.1000000000000005e+00 +7.9198752333295843e+00 +0.0000000000000000e+00 +2.0999999950581811e+00 -1.1882552301690911e-04 +0.0000000000000000e+00 +9.9999999294024755e-01
2.2000000000000006e+00 +7.9198630678584179e+00 +0.0000000000000000e+00 +2.1999999943180542e+00 -1.2448390059823235e-04 +0.0000000000000000e+00 +9.9999999225187930e-01
2.3000000000000007e+00 +7.9198503365494082e+00 +0.0000000000000000e+00 +2.2999999935074897e+00 -1.3014227988439943e-04 +0.0000000000000000e+00 +9.9999999153149355e-01
2.4000000000000008e+00 +7.9198370394023856e+00 +0.0000000000000000e+00 +2.3999999926232856e+00 -1.3580066083939028e-04 +0.0000000000000000e+00 +9.9999999077909030e-01
2.5000000000000009e+00 +7.9198231764171858e+00 +0.0000000000000000e+00 +2.4999999916622402e+00 -1.4145904342983184e-04 +0.0000000000000000e+00 +9.9999998999466955e-01
2.6000000000000010e+00 +7.9198087475936463e+00 +0.0000000000000000e+00 +2.5999999906211522e+00 -1.4711742762499796e-04 +0.0000000000000000e+00 +9.9999998917823130e-01
2.7000000000000011e+00 +7.9197937529316080e+00 +0.0000000000000000e+00 +2.6999999894968192e+00 -1.5277581339680956e-04 +0.0000000000000000e+00 +9.9999998832977544e-01
2.8000000000000012e+00 +7.9197781924309147e+00 +0.0000000000000000e+00 +2.7999999882860398e+00 -1.5843420071983457e-04 +0.0000000000000000e+00 +9.9999998744930207e-01
2.9000000000000012e+00 +7.9197620660914128e+00 +0.0000000000000000e+00 +2.8999999869856121e+00 -1.6409258957128796e-04 +0.0000000000000000e+00 +9.9999998653681110e-01
3.0000000000000013e+00 +7.9197453739129502e+00 +0.0000000000000000e+00 +2.9999999855923347e+00 -1.6975097993103170e-04 +0.0000000000000000e+00 +9.9999998559230252e-01
3.1000000000000014e+00 +7.9197281158953770e+00 +0.0000000000000000e+00 +3.0999999841030057e+00 -1.7540937178157478e-04 +0.0000000000000000e+00 +9.9999998461577622e-01
3.2000000000000015e+00 +7.9197102920385447e+00 +0.0000000000000000e+00 +3.1999999825144227e+00 -1.8106776510807315e-04 +0.0000000000000000e+00 +9.9999998360723230e-01
3.3000000000000016e+00 +7.9196919023423069e+00 +0.0000000000000000e+00 +3.2999999808233849e+00 -1.8672615989832973e-04 +0.0000000000000000e+00 +9.9999998256667066e-01
3.4000000000000017e+00 +7.9196729468065170e+00 +0.0000000000000000e+00 +3.3999999790266897e+00 -1.9238455614279437e-04 +0.0000000000000000e+00 +9.9999998149409131e-01
3.5000000000000018e+00 +7.9196534254310302e+00 +0.0000000000000000e+00 +3.4999999771211359e+00 -1.9804295383456377e-04 +0.0000000000000000e+00 +9.9999998038949423e-01
3.6000000000000019e+00 +7.9196333382157018e+00 +0.0000000000000000e+00 +3.5999999751035214e+00 -2.0370135296938146e-04 +0.0000000000000000e+00 +9.9999997925287942e-01
3.7000000000000020e+00 +7.9196126851603879e+00 +0.0000000000000000e+00 +3.6999999729706445e+00 -2.0935975354563778e-04 +0.0000000000000000e+00 +9.9999997808424679e-01
3.8000000000000020e+00 +7.9195914662649445e+00 +0.0000000000000000e+00 +3.7999999707193037e+00 -2.1501815556436972e-04 +0.0000000000000000e+00 +9.9999997688359632e-01
3.9000000000000021e+00 +7.9195696815292269e+00 +0.0000000000000000e+00 +3.8999999683462967e+00 -2.2067655902926090e-04 +0.0000000000000000e+00 +9.9999997565092802e-01
4.0000000000000018e+00 +7.9195473309530904e+00 +0.0000000000000000e+00 +3.9999999658484220e+00 -2.2633496394664152e-04 +0.0000000000000000e+00 +9.9999997438624189e-01
4.1000000000000014e+00 +7.9195244145363892e+00 +0.0000000000000000e+00 +4.0999999632224782e+00 -2.3199337032559639e-04 +0.0000000000000000e+00 +9.9999997308953792e-01
4.2000000000000011e+00 +7.9195009322789760e+00 +0.0000000000000000e+00 +4.1999999604652629e+00 -2.3765177817915462e-04 +0.0000000000000000e+00 +9.9999997176081601e-01
4.3000000000000007e+00 +7.9194768841807033e+00 +0.0000000000000000e+00 +4.2999999575735739e+00 -2.4331018752547936e-04 +0.0000000000000000e+00 +9.9999997040007615e-01
4.4000000000000004e+00 +7.9194522702414201e+00 +0.0000000000000000e+00 +4.3999999545442101e+00 -2.4896859838797547e-04 +0.0000000000000000e+00 +9.9999996900731825e-01
4.5000000000000000e+00 +7.9194270904609736e+00 +0.0000000000000000e+00 +4.4999999513739697e+00 -2.5462701079528941e-04 +0.0000000000000000e+00 +9.9999996758254239e-01
4.5999999999999996e+00 +7.9194013448392084e+00 +0.0000000000000000e+00 +4.5999999480596507e+00 -2.6028542478130878e-04 +0.0000000000000000e+00 +9.9999996612574849e-01
4.6999999999999993e+00 +7.9193750333759638e+00 +0.0000000000000000e+00 +4.6999999445980514e+00 -2.6594384038516211e-04 +0.0000000000000000e+00 +9.9999996463693652e-01
4.7999999999999989e+00 +7.9193481560710763e+00 +0.0000000000000000e+00 +4.7999999409859706e+00 -2.7160225765121825e-04 +0.0000000000000000e+00 +9.9999996311610639e-01
4.8999999999999986e+00 +7.9193207129243772e+00 +0.0000000000000000e+00 +4.8999999372202057e+00 -2.7726067662908630e-04 +0.0000000000000000e+00 +9.9999996156325810e-01
4.9999999999999982e+00 +7.9192927039356924e+00 +0.0000000000000000e+00 +4.9999999332975547e+00 -2.8291909737361494e-04 +0.0000000000000000e+00 +9.9999995997839164e-01
5.0999999999999979e+00 +7.9192641291048416e+00 +0.0000000000000000e+00 +5.0999999292148166e+00 -2.8857751994489219e-04 +0.0000000000000000e+00 +9.9999995836150690e-01
5.1999999999999975e+00 +7.9192349884316400e+00 +0.0000000000000000e+00 +5.1999999249687887e+00 -2.9423594440824492e-04 +0.0000000000000000e+00 +9.9999995671260389e-01
5.2999999999999972e+00 +7.9192052819158949e+00 +0.0000000000000000e+00 +5.2999999205562700e+00 -2.9989437083423836e-04 +0.0000000000000000e+00 +9.9999995503168249e-01
5.3999999999999968e+00 +7.9191750095574056e+00 +0.0000000000000000e+00 +5.3999999159740577e+00 -3.0555279929867565e-04 +0.0000000000000000e+00 +9.9999995331874270e-01
5.4999999999999964e+00 +7.9191441713559643e+00 +0.0000000000000000e+00 +5.4999999112189508e+00 -3.1121122988259743e-04 +0.0000000000000000e+00 +9.9999995157378441e-01
5.5999999999999961e+00 +7.9191127673113551e+00 +0.0000000000000000e+00 +5.5999999062877475e+00 -3.1686966267228115e-04 +0.0000000000000000e+00 +9.9999994979680751e-01
5.6999999999999957e+00 +7.9190807974233532e+00 +0.0000000000000000e+00 +5.6999999011772449e+00 -3.2252809775924074e-04 +0.0000000000000000e+00 +9.9999994798781200e-01
5.7999999999999954e+00 +7.9190482616917235e+00 +0.0000000000000000e+00 +5.7999998958842420e+00 -3.2818653524022595e-04 +0.0000000000000000e+00 +9.9999994614679788e-01
5.8999999999999950e+00 +7.9190151601162215e+00 +0.0000000000000000e+00 +5.8999998904055371e+00 -3.3384497521722189e-04 +0.0000000000000000e+00 +9.9999994427376504e-01
5.9999999999999947e+00 +7.9189814926965933e+00 +0.0000000000000000e+00 +5.9999998847379281e+00 -3.3950341779744828e-04 +0.0000000000000000e+00 +9.9999994236871337e-01
6.0999999999999943e+00 +7.9189472594325716e+00 +0.0000000000000000e+00 +6.0999998788782124e+00 -3.4516186309294767e-04 +0.0000000000000000e+00 +9.9999994043164275e-01
6.1999999999999940e+00 +7.9189124603238801e+00 +0.0000000000000000e+00 +6.1999998728231889e+00 -3.5082031121606025e-04 +0.0000000000000000e+00 +9.9999993846255308e-01
6.2999999999999936e+00 +7.9188770953702301e+00 +0.0000000000000000e+00 +6.2999998665696557e+00 -3.5647876227489926e-04 +0.0000000000000000e+00 +9.9999993646144436e-01
6.3999999999999932e+00 +7.9188411645713233e+00 +0.0000000000000000e+00 +6.3999998601144110e+00 -3.6213721637294008e-04 +0.0000000000000000e+00 +9.9999993442831647e-01
6.4999999999999929e+00 +7.9188046679268504e+00 +0.0000000000000000e+00 +6.4999998534542520e+00 -3.6779567360902069e-04 +0.0000000000000000e+00 +9.9999993236316931e-01
6.5999999999999925e+00 +7.9187676054364937e+00 +0.0000000000000000e+00 +6.5999998465859777e+00 -3.7345413407734223e-04 +0.0000000000000000e+00 +9.9999993026600276e-01
6.6999999999999922e+00 +7.9187299770999244e+00 +0.0000000000000000e+00 +6.6999998395063853e+00 -3.7911259786746942e-04 +0.0000000000000000e+00 +9.9999992813681682e-01
6.7999999999999918e+00 +7.9186917829168069e+00 +0.0000000000000000e+00 +6.7999998322122739e+00 -3.8477106506433126e-04 +0.0000000000000000e+00 +9.9999992597561138e-01
6.8999999999999915e+00 +7.9186530228867955e+00 +0.0000000000000000e+00 +6.8999998247004406e+00 -3.9042953574822147e-04 +0.0000000000000000e+00 +9.9999992378238622e-01
6.9999999999999911e+00 +7.9186136970095387e+00 +0.0000000000000000e+00 +6.9999998169676836e+00 -3.9608800999479927e-04 +0.0000000000000000e+00 +9.9999992155714146e-01
7.0999999999999908e+00 +7.9185738052846757e+00 +0.0000000000000000e+00 +7.0999998090108010e+00 -4.0174648787508975e-04 +0.0000000000000000e+00 +9.9999991929987686e-01
7.1999999999999904e+00 +7.9185333477118407e+00 +0.0000000000000000e+00 +7.1999998008265909e+00 -4.0740496945548485e-04 +0.0000000000000000e+00 +9.9999991701059232e-01
7.2999999999999901e+00 +7.9184923242906597e+00 +0.0000000000000000e+00 +7.2999997924118514e+00 -4.1306345479774371e-04 +0.0000000000000000e+00 +9.9999991468928784e-01
7.3999999999999897e+00 +7.9184507350207536e+00 +0.0000000000000000e+00 +7.3999997837633806e+00 -4.1872194395899364e-04 +0.0000000000000000e+00 +9.9999991233596330e-01
7.4999999999999893e+00 +7.9184085799017385e+00 +0.0000000000000000e+00 +7.4999997748779768e+00 -4.2438043699173070e-04 +0.0000000000000000e+00 +9.9999990995061860e-01
7.5999999999999890e+00 +7.9183658589332246e+00 +0.0000000000000000e+00 +7.5999997657524370e+00 -4.3003893394382055e-04 +0.0000000000000000e+00 +9.9999990753325363e-01
7.6999999999999886e+00 +7.9183225721148176e+00 +0.0000000000000000e+00 +7.6999997563835603e+00 -4.3569743485849912e-04 +0.0000000000000000e+00 +9.9999990508386838e-01
7.7999999999999883e+00 +7.9182787194461195e+00 +0.0000000000000000e+00 +7.7999997467681439e+00 -4.4135593977437360e-04 +0.0000000000000000e+00 +9.9999990260246274e-01
7.8999999999999879e+00 +7.9182343009267280e+00 +0.0000000000000000e+00 +7.8999997369029860e+00 -4.4701444872542306e-04 +0.0000000000000000e+00 +9.9999990008903661e-01
7.9999999999999876e+00 +7.9181893165562389e+00 +0.0000000000000000e+00 +7.9999997267848837e+00 -4.5267296174099944e-04 +0.0000000000000000e+00 +9.9999989754358987e-01
8.0999999999999872e+00 +7.9181437663342438e+00 +0.0000000000000000e+00 +8.0999997164106361e+00 -4.5833147884603338e-04 +0.0000000000000000e+00 +9.9999989496612252e-01
8.1999999999999869e+00 +7.9180976502603331e+00 +0.0000000000000000e+00 +8.1999997057770404e+00 -4.6399000006328895e-04 +0.0000000000000000e+00 +9.9999989235663445e-01
8.2999999999999865e+00 +7.9180509683340938e+00 +0.0000000000000000e+00 +8.2999996948808956e+00 -4.6964852541561810e-04 +0.0000000000000000e+00 +9.9999988971512555e-01
8.3999999999999861e+00 +7.9180037205551113e+00 +0.0000000000000000e+00 +8.3999996837189990e+00 -4.7530705492616562e-04 +0.0000000000000000e+00 +9.9999988704159570e-01
8.4999999999999858e+00 +7.9179559069229688e+00 +0.0000000000000000e+00 +8.4999996722881477e+00 -4.8096558861836919e-04 +0.0000000000000000e+00 +9.9999988433604492e-01
8.5999999999999854e+00 +7.9179075274372472e+00 +0.0000000000000000e+00 +8.5999996605851408e+00 -4.8662412651595939e-04 +0.0000000000000000e+00 +9.9999988159847308e-01
8.6999999999999851e+00 +7.9178585820975247e+00 +0.0000000000000000e+00 +8.6999996486067754e+00 -4.9228266864295971e-04 +0.0000000000000000e+00 +9.9999987882888008e-01
8.7999999999999847e+00 +7.9178090709033766e+00 +0.0000000000000000e+00 +8.7999996363498489e+00 -4.9794121502368658e-04 +0.0000000000000000e+00 +9.9999987602726581e-01
8.8999999999999844e+00 +7.9177589938543766e+00 +0.0000000000000000e+00 +8.8999996238111603e+00 -5.0359976568274927e-04 +0.0000000000000000e+00 +9.9999987319363026e-01
8.9999999999999840e+00 +7.9177083509500958e+00 +0.0000000000000000e+00 +8.9999996109875067e+00 -5.0925832064505029e-04 +0.0000000000000000e+00 +9.9999987032797333e-01
9.0999999999999837e+00 +7.9176571421901034e+00 +0.0000000000000000e+00 +9.0999995978756871e+00 -5.1491687993578475e-04 +0.0000000000000000e+00 +9.9999986743029490e-01
9.1999999999999833e+00 +7.9176053675739642e+00 +0.0000000000000000e+00 +9.1999995844724989e+00 -5.2057544358044105e-04 +0.0000000000000000e+00 +9.9999986450059486e-01
9.2999999999999829e+00 +7.9175530271012411e+00 +0.0000000000000000e+00 +9.2999995707747392e+00 -5.2623401160480055e-04 +0.0000000000000000e+00 +9.9999986153887321e-01
9.3999999999999826e+00 +7.9175001207714963e+00 +0.0000000000000000e+00 +9.3999995567792070e+00 -5.3189258403493745e-04 +0.0000000000000000e+00 +9.9999985854512985e-01
9.4999999999999822e+00 +7.9174466485842867e+00 +0.0000000000000000e+00 +9.4999995424826977e+00 -5.3755116089721910e-04 +0.0000000000000000e+00 +9.9999985551936466e-01
9.5999999999999819e+00 +7.9173926105391681e+00 +0.0000000000000000e+00 +9.5999995278820123e+00 -5.4320974221830581e-04 +0.0000000000000000e+00 +9.9999985246157752e-01
9.6999999999999815e+00 +7.9173380066356938e+00 +0.0000000000000000e+00 +9.6999995129739460e+00 -5.4886832802515087e-04 +0.0000000000000000e+00 +9.9999984937176833e-01
9.7999999999999812e+00 +7.9172828368734134e+00 +0.0000000000000000e+00 +9.7999994977552980e+00 -5.5452691834500059e-04 +0.0000000000000000e+00 +9.9999984624993699e-01
9.8999999999999808e+00 +7.9172271012518740e+00 +0.0000000000000000e+00 +9.8999994822228654e+00 -5.6018551320539435e-04 +0.0000000000000000e+00 +9.9999984309608347e-01
9.9999999999999805e+00 +7.9171707997706200e+00 +0.0000000000000000e+00 +9.9999994663734473e+00 -5.6584411263416428e-04 +0.0000000000000000e+00 +9.9999983991020769e-01
1.0099999999999980e+01 +7.9171139324291939e+00 +0.0000000000000000e+00 +1.0099999450203841e+01 -5.7150271665930362e-04 +0.0000000000000000e+00 +9.9999983669230952e-01
1.0199999999999980e+01 +7.9170564992271339e+00 +0.0000000000000000e+00 +1.0199999433710843e+01 -5.7716132530751354e-04 +0.0000000000000000e+00 +9.9999983344238885e-01
1.0299999999999979e+01 +7.9169985001639773e+00 +0.0000000000000000e+00 +1.0299999416891252e+01 -5.8281993860274982e-04 +0.0000000000000000e+00 +9.9999983016044558e-01
1.0399999999999979e+01 +7.9169399352392578e+00 +0.0000000000000000e+00 +1.0399999399741866e+01 -5.8847855656609088e-04 +0.0000000000000000e+00 +9.9999982684647970e-01
1.0499999999999979e+01 +7.9168808044525081e+00 +0.0000000000000000e+00 +1.0499999382259482e+01 -5.9413717921573666e-04 +0.0000000000000000e+00 +9.9999982350049099e-01
1.0599999999999978e+01 +7.9168211078032584e+00 +0.0000000000000000e+00 +1.0599999364440897e+01 -5.9979580656700858e-04 +0.0000000000000000e+00 +9.9999982012247945e-01
1.0699999999999978e+01 +7.9167608452910381e+00 +0.0000000000000000e+00 +1.0699999346282910e+01 -6.0545443863234904e-04 +0.0000000000000000e+00 +9.9999981671244498e-01
1.0799999999999978e+01 +7.9167000169153745e+00 +0.0000000000000000e+00 +1.0799999327782318e+01 -6.1111307542132071e-04 +0.0000000000000000e+00 +9.9999981327038745e-01
1.0899999999999977e+01 +7.9166386226757961e+00 +0.0000000000000000e+00 +1.0899999308935920e+01 -6.1677171694060628e-04 +0.0000000000000000e+00 +9.9999980979630687e-01
1.0999999999999977e+01 +7.9165766625718286e+00 +0.0000000000000000e+00 +1.0999999289740511e+01 -6.2243036319400773e-04 +0.0000000000000000e+00 +9.9999980629020313e-01
1.1099999999999977e+01 +7.9165141366029994e+00 +0.0000000000000000e+00 +1.1099999270192892e+01 -6.2808901418244588e-04 +0.0000000000000000e+00 +9.9999980275207612e-01
1.1199999999999976e+01 +7.9164510447688343e+00 +0.0000000000000000e+00 +1.1199999250289860e+01 -6.3374766990396004e-04 +0.0000000000000000e+00 +9.9999979918192572e-01
1.1299999999999976e+01 +7.9163873870688608e+00 +0.0000000000000000e+00 +1.1299999230028211e+01 -6.3940633035370709e-04 +0.0000000000000000e+00 +9.9999979557975194e-01
1.1399999999999975e+01 +7.9163231635026063e+00 +0.0000000000000000e+00 +1.1399999209404744e+01 -6.4506499552396111e-04 +0.0000000000000000e+00 +9.9999979194555466e-01
1.1499999999999975e+01 +7.9162583740695993e+00 +0.0000000000000000e+00 +1.1499999188416254e+01 -6.5072366540411296e-04 +0.0000000000000000e+00 +9.9999978827933378e-01
1.1599999999999975e+01 +7.9161930187693690e+00 +0.0000000000000000e+00 +1.1599999167059542e+01 -6.5638233998066944e-04 +0.0000000000000000e+00 +9.9999978458108918e-01
1.1699999999999974e+01 +7.9161270976014473e+00 +0.0000000000000000e+00 +1.1699999145331404e+01 -6.6204101923725267e-04 +0.0000000000000000e+00 +9.9999978085082086e-01
1.1799999999999974e+01 +7.9160606105653661e+00 +0.0000000000000000e+00 +1.1799999123228638e+01 -6.6769970315459976e-04 +0.0000000000000000e+00 +9.9999977708852883e-01
