# field on trajectory
# s[mm] rx[mm] ry[mm] rz[mm] bx[T] by[T] bz[T]
0.0000000000000000e+00 +8.1649999999999991e+00 +0.0000000000000000e+00 +0.0000000000000000e+00 -3.1242444844658518e-02 -5.9232130862568311e-01 +5.9142091265293956e-03
-1.0000000000000001e-01 +8.1649997169967143e+00 +0.0000000000000000e+00 -9.9999999999466058e-02 -3.1242393409255761e-02 -5.9232113946447595e-01 +5.9142553983169673e-03
-2.0000000000000001e-01 +8.1649988679869647e+00 +0.0000000000000000e+00 -1.9999999999572848e-01 -3.1242340765608390e-02 -5.9232098043236259e-01 +5.9143036158789313e-03
-3.0000000000000004e-01 +8.1649974529709013e+00 +0.0000000000000000e+00 -2.9999999998558363e-01 -3.1242287004754440e-02 -5.9232083167551530e-01 +5.9143536434255670e-03
-4.0000000000000002e-01 +8.1649954719486679e+00 +0.0000000000000000e+00 -3.9999999996582791e-01 -3.1242232217724278e-02 -5.9232069334009774e-01 +5.9144053451663983e-03
-5.0000000000000000e-01 +8.1649929249203961e+00 +0.0000000000000000e+00 -4.9999999993325767e-01 -3.1242176495540425e-02 -5.9232056557226453e-01 +5.9144585853102101e-03
-5.9999999999999998e-01 +8.1649898118862083e+00 +0.0000000000000000e+00 -5.9999999988466923e-01 -3.1242119929217632e-02 -5.9232044851816001e-01 +5.9145132280650874e-03
-6.9999999999999996e-01 +8.1649861328462148e+00 +0.0000000000000000e+00 -6.9999999981685912e-01 -3.1242062609762752e-02 -5.9232034232392183e-01 +5.9145691376384464e-03
-7.9999999999999993e-01 +8.1649818878005185e+00 +0.0000000000000000e+00 -7.9999999972662361e-01 -3.1242004628174721e-02 -5.9232024713567788e-01 +5.9146261782370641e-03
-8.9999999999999991e-01 +8.1649770767492118e+00 +0.0000000000000000e+00 -8.9999999961075905e-01 -3.1241946075444487e-02 -5.9232016309954938e-01 +5.9146842140671112e-03
-9.9999999999999989e-01 +8.1649716996923729e+00 +0.0000000000000000e+00 -9.9999999946606188e-01 -3.1241887042554987e-02 -5.9232009036164912e-01 +5.9147431093341824e-03
-1.0999999999999999e+00 +8.1649657566300728e+00 +0.0000000000000000e+00 -1.0999999992893283e+00 -3.1241827620481041e-02 -5.9232002906808356e-01 +5.9148027282433166e-03
-1.2000000000000000e+00 +8.1649592475623702e+00 +0.0000000000000000e+00 -1.1999999990773551e+00 -3.1241767900189357e-02 -5.9231997936495162e-01 +5.9148629349990477e-03
-1.3000000000000000e+00 +8.1649521724893130e+00 +0.0000000000000000e+00 -1.2999999988269384e+00 -3.1241707972638443e-02 -5.9231994139834621e-01 +5.9149235938054223e-03
-1.4000000000000001e+00 +8.1649445314109368e+00 +0.0000000000000000e+00 -1.3999999985348746e+00 -3.1241647928778607e-02 -5.9231991531435446e-01 +5.9149845688660349e-03
-1.5000000000000002e+00 +8.1649363243272663e+00 +0.0000000000000000e+00 -1.4999999981979599e+00 -3.1241587859551809e-02 -5.9231990125905742e-01 +5.9150457243840543e-03
-1.6000000000000003e+00 +8.1649275512383159e+00 +0.0000000000000000e+00 -1.5999999978129911e+00 -3.1241527855891713e-02 -5.9231989937853058e-01 +5.9151069245622634e-03
-1.7000000000000004e+00 +8.1649182121440891e+00 +0.0000000000000000e+00 -1.6999999973767641e+00 -3.1241468008723537e-02 -5.9231990981884453e-01 +5.9151680336030805e-03
-1.8000000000000005e+00 +8.1649083070445752e+00 +0.0000000000000000e+00 -1.7999999968860756e+00 -3.1241408408964111e-02 -5.9231993272606587e-01 +5.9152289157085999e-03
-1.9000000000000006e+00 +8.1648978359397510e+00 +0.0000000000000000e+00 -1.8999999963377219e+00 -3.1241349147521739e-02 -5.9231996824625599e-01 +5.9152894350806128e-03
-2.0000000000000004e+00 +8.1648867988295848e+00 +0.0000000000000000e+00 -1.9999999957284993e+00 -3.1241290315296166e-02 -5.9232001652547228e-01 +5.9153494559206479e-03
-2.1000000000000005e+00 +8.1648751957140302e+00 +0.0000000000000000e+00 -2.0999999950552044e+00 -3.1241231986809337e-02 -5.9232007759068273e-01 +5.9154088902956961e-03
-2.2000000000000006e+00 +8.1648630265930286e+00 +0.0000000000000000e+00 -2.1999999943146333e+00 -3.1241174171100682e-02 -5.9232015099250268e-01 +5.9154678417354441e-03
-2.3000000000000007e+00 +8.1648502914665109e+00 +0.0000000000000000e+00 -2.2999999935035826e+00 -3.1241116860840551e-02 -5.9232023616246965e-01 +5.9155264616354746e-03
-2.4000000000000008e+00 +8.1648369903343969e+00 +0.0000000000000000e+00 -2.3999999926188487e+00 -3.1241060048701100e-02 -5.9232033253212946e-01 +5.9155849013916564e-03
-2.5000000000000009e+00 +8.1648231231965944e+00 +0.0000000000000000e+00 -2.4999999916572277e+00 -3.1241003727357303e-02 -5.9232043953303881e-01 +5.9156433124002141e-03
-2.6000000000000010e+00 +8.1648086900530021e+00 +0.0000000000000000e+00 -2.5999999906155162e+00 -3.1240947889487978e-02 -5.9232055659676786e-01 +5.9157018460578078e-03
-2.7000000000000011e+00 +8.1647936909035081e+00 +0.0000000000000000e+00 -2.6999999894905105e+00 -3.1240892527776749e-02 -5.9232068315490038e-01 +5.9157606537615995e-03
-2.8000000000000012e+00 +8.1647781257479917e+00 +0.0000000000000000e+00 -2.7999999882790068e+00 -3.1240837634913095e-02 -5.9232081863903596e-01 +5.9158198869093334e-03
-2.9000000000000012e+00 +8.1647619945863248e+00 +0.0000000000000000e+00 -2.8999999869778015e+00 -3.1240783203593345e-02 -5.9232096248079169e-01 +5.9158796968994069e-03
-3.0000000000000013e+00 +8.1647452974183690e+00 +0.0000000000000000e+00 -2.9999999855836910e+00 -3.1240729226521668e-02 -5.9232111411180344e-01 +5.9159402351309457e-03
-3.1000000000000014e+00 +8.1647280342439803e+00 +0.0000000000000000e+00 -3.0999999840934716e+00 -3.1240675696411070e-02 -5.9232127296372705e-01 +5.9160016530038738e-03
-3.2000000000000015e+00 +8.1647102050630096e+00 +0.0000000000000000e+00 -3.1999999825039396e+00 -3.1240622605984456e-02 -5.9232143846824115e-01 +5.9160641019189910e-03
-3.3000000000000016e+00 +8.1646918098752970e+00 +0.0000000000000000e+00 -3.2999999808118914e+00 -3.1240569947975555e-02 -5.9232161005704698e-01 +5.9161277332780418e-03
-3.4000000000000017e+00 +8.1646728486806808e+00 +0.0000000000000000e+00 -3.3999999790141233e+00 -3.1240517715129989e-02 -5.9232178716187178e-01 +5.9161926984838010e-03
-3.5000000000000018e+00 +8.1646533214789923e+00 +0.0000000000000000e+00 -3.4999999771074317e+00 -3.1240465900206224e-02 -5.9232196921446845e-01 +5.9162591489401225e-03
-3.6000000000000019e+00 +8.1646332282700573e+00 +0.0000000000000000e+00 -3.5999999750886129e+00 -3.1240414495976667e-02 -5.9232215564661905e-01 +5.9163272360520450e-03
-3.7000000000000020e+00 +8.1646125690536984e+00 +0.0000000000000000e+00 -3.6999999729544633e+00 -3.1240363495228546e-02 -5.9232234589013466e-01 +5.9163971112258414e-03
-3.8000000000000020e+00 +8.1645913438297342e+00 +0.0000000000000000e+00 -3.7999999707017791e+00 -3.1240312890765010e-02 -5.9232253937685764e-01 +5.9164689258690960e-03
-3.9000000000000021e+00 +8.1645695525979818e+00 +0.0000000000000000e+00 -3.8999999683273567e+00 -3.1240262675406097e-02 -5.9232273553866377e-01 +5.9165428313907838e-03
-4.0000000000000018e+00 +8.1645471953582529e+00 +0.0000000000000000e+00 -3.9999999658279926e+00 -3.1240212841989759e-02 -5.9232293380746326e-01 +5.9166189792013478e-03
-4.1000000000000014e+00 +8.1645242721103610e+00 +0.0000000000000000e+00 -4.0999999632004824e+00 -3.1240163371479623e-02 -5.9232313362309552e-01 +5.9166974708874257e-03
-4.2000000000000011e+00 +8.1645007828541143e+00 +0.0000000000000000e+00 -4.1999999604416232e+00 -3.1240114197282610e-02 -5.9232333445700736e-01 +5.9167782087357380e-03
-4.3000000000000007e+00 +8.1644767275893226e+00 +0.0000000000000000e+00 -4.2999999575482111e+00 -3.1240065240922620e-02 -5.9232353578855079e-01 +5.9168610452092268e-03
-4.4000000000000004e+00 +8.1644521063157924e+00 +0.0000000000000000e+00 -4.3999999545170416e+00 -3.1240016423933120e-02 -5.9232373709708608e-01 +5.9169458327725495e-03
-4.5000000000000000e+00 +8.1644269190333336e+00 +0.0000000000000000e+00 -4.4999999513449120e+00 -3.1239967667857509e-02 -5.9232393786198301e-01 +5.9170324238921653e-03
-4.5999999999999996e+00 +8.1644011657417561e+00 +0.0000000000000000e+00 -4.5999999480286187e+00 -3.1239918894249420e-02 -5.9232413756261892e-01 +5.9171206710363850e-03
-4.6999999999999993e+00 +8.1643748464408681e+00 +0.0000000000000000e+00 -4.6999999445649570e+00 -3.1239870024673034e-02 -5.9232433567837972e-01 +5.9172104266754675e-03
-4.7999999999999989e+00 +8.1643479611304830e+00 +0.0000000000000000e+00 -4.7999999409507241e+00 -3.1239820980703419e-02 -5.9232453168865906e-01 +5.9173015432816712e-03
-4.8999999999999986e+00 +8.1643205098104126e+00 +0.0000000000000000e+00 -4.8999999371827156e+00 -3.1239771683926828e-02 -5.9232472507285749e-01 +5.9173938733293411e-03
-4.9999999999999982e+00 +8.1642924924804738e+00 +0.0000000000000000e+00 -4.9999999332577278e+00 -3.1239722055941044e-02 -5.9232491531038478e-01 +5.9174872692949682e-03
-5.0999999999999979e+00 +8.1642639091404856e+00 +0.0000000000000000e+00 -5.0999999291725580e+00 -3.1239672018355681e-02 -5.9232510188065624e-01 +5.9175815836572682e-03
-5.1999999999999975e+00 +8.1642347597902720e+00 +0.0000000000000000e+00 -5.1999999249240014e+00 -3.1239621492792510e-02 -5.9232528426309505e-01 +5.9176766688972607e-03
-5.2999999999999972e+00 +8.1642050444296590e+00 +0.0000000000000000e+00 -5.2999999205088546e+00 -3.1239570400885798e-02 -5.9232546193713109e-01 +5.9177723774983199e-03
-5.3999999999999968e+00 +8.1641747630584760e+00 +0.0000000000000000e+00 -5.3999999159239138e+00 -3.1239518664282581e-02 -5.9232563438220109e-01 +5.9178685619462705e-03
-5.4999999999999964e+00 +8.1641439156765614e+00 +0.0000000000000000e+00 -5.4999999111659754e+00 -3.1239466204643043e-02 -5.9232580107774779e-01 +5.9179650747294438e-03
-5.5999999999999961e+00 +8.1641125022837553e+00 +0.0000000000000000e+00 -5.5999999062318357e+00 -3.1239412943640792e-02 -5.9232596150322048e-01 +5.9180617683387499e-03
-5.6999999999999957e+00 +8.1640805228799067e+00 +0.0000000000000000e+00 -5.6999999011182911e+00 -3.1239358802963187e-02 -5.9232611513807365e-01 +5.9181584952677684e-03
-5.7999999999999954e+00 +8.1640479774648700e+00 +0.0000000000000000e+00 -5.7999998958221370e+00 -3.1239303704311709e-02 -5.9232626146176892e-01 +5.9182551080127956e-03
-5.8999999999999950e+00 +8.1640148660385066e+00 +0.0000000000000000e+00 -5.8999998903401707e+00 -3.1239247569402204e-02 -5.9232639995377245e-01 +5.9183514590729338e-03
-5.9999999999999947e+00 +8.1639811886006832e+00 +0.0000000000000000e+00 -5.9999998846691875e+00 -3.1239190319965238e-02 -5.9232653009355685e-01 +5.9184474009501588e-03
-6.0999999999999943e+00 +8.1639469451512792e+00 +0.0000000000000000e+00 -6.0999998788059848e+00 -3.1239131897658454e-02 -5.9232665150514174e-01 +5.9185428259091784e-03
-6.1999999999999940e+00 +8.1639121356901772e+00 +0.0000000000000000e+00 -6.1999998727473580e+00 -3.1239072323786924e-02 -5.9232676439071119e-01 +5.9186377852556878e-03
-6.2999999999999936e+00 +8.1638767602172724e+00 +0.0000000000000000e+00 -6.2999998664901042e+00 -3.1239011639538215e-02 -5.9232686909693544e-01 +5.9187323700536105e-03
-6.3999999999999932e+00 +8.1638408187324654e+00 +0.0000000000000000e+00 -6.3999998600310191e+00 -3.1238949886064571e-02 -5.9232696597042156e-01 +5.9188266713644452e-03
-6.4999999999999929e+00 +8.1638043112356637e+00 +0.0000000000000000e+00 -6.4999998533668988e+00 -3.1238887104481278e-02 -5.9232705535770891e-01 +5.9189207802471371e-03
-6.5999999999999925e+00 +8.1637672377267840e+00 +0.0000000000000000e+00 -6.5999998464945397e+00 -3.1238823335865074e-02 -5.9232713760526678e-01 +5.9190147877579286e-03
-6.6999999999999922e+00 +8.1637295982057481e+00 +0.0000000000000000e+00 -6.6999998394107383e+00 -3.1238758621252416e-02 -5.9232721305949143e-01 +5.9191087849502144e-03
-6.7999999999999918e+00 +8.1636913926724866e+00 +0.0000000000000000e+00 -6.7999998321122908e+00 -3.1238693001637893e-02 -5.9232728206670349e-01 +5.9192028628744058e-03
-6.8999999999999915e+00 +8.1636526211269338e+00 +0.0000000000000000e+00 -6.8999998245959935e+00 -3.1238626517972545e-02 -5.9232734497314377e-01 +5.9192971125777722e-03
-6.9999999999999911e+00 +8.1636132835690294e+00 +0.0000000000000000e+00 -6.9999998168586419e+00 -3.1238559211162233e-02 -5.9232740212497326e-01 +5.9193916251043194e-03
-7.0999999999999908e+00 +8.1635733799987218e+00 +0.0000000000000000e+00 -7.0999998088970333e+00 -3.1238491122065969e-02 -5.9232745386826646e-01 +5.9194864914946252e-03
-7.1999999999999904e+00 +8.1635329104159631e+00 +0.0000000000000000e+00 -7.1999998007079640e+00 -3.1238422291494313e-02 -5.9232750054901240e-01 +5.9195818027857070e-03
-7.2999999999999901e+00 +8.1634918748207088e+00 +0.0000000000000000e+00 -7.2999997922882294e+00 -3.1238352760207668e-02 -5.9232754251310837e-01 +5.9196776500108801e-03
-7.3999999999999897e+00 +8.1634502732129199e+00 +0.0000000000000000e+00 -7.3999997836346267e+00 -3.1238282568914654e-02 -5.9232758010635966e-01 +5.9197741241996055e-03
-7.4999999999999893e+00 +8.1634081055925627e+00 +0.0000000000000000e+00 -7.4999997747439515e+00 -3.1238211758270497e-02 -5.9232761367447451e-01 +5.9198713163773472e-03
-7.5999999999999890e+00 +8.1633653719596069e+00 +0.0000000000000000e+00 -7.5999997656130009e+00 -3.1238140368875341e-02 -5.9232764356306367e-01 +5.9199693175654407e-03
-7.6999999999999886e+00 +8.1633220723140241e+00 +0.0000000000000000e+00 -7.6999997562385705e+00 -3.1238068441272599e-02 -5.9232767011763499e-01 +5.9200682187809332e-03
-7.7999999999999883e+00 +8.1632782066557912e+00 +0.0000000000000000e+00 -7.7999997466174564e+00 -3.1237996015947352e-02 -5.9232769368359273e-01 +5.9201681110364474e-03
-7.8999999999999879e+00 +8.1632337749848869e+00 +0.0000000000000000e+00 -7.8999997367464552e+00 -3.1237923133324651e-02 -5.9232771460623279e-01 +5.9202690853400412e-03
-7.9999999999999876e+00 +8.1631887773012917e+00 +0.0000000000000000e+00 -7.9999997266223639e+00 -3.1237849833767900e-02 -5.9232773323074173e-01 +5.9203712326950514e-03
-8.0999999999999872e+00 +8.1631432136049895e+00 +0.0000000000000000e+00 -8.0999997162419781e+00 -3.1237776225619747e-02 -5.9232775000604465e-01 +5.9204746198394586e-03
-8.1999999999999869e+00 +8.1630970838959662e+00 +0.0000000000000000e+00 -8.1999997056020941e+00 -3.1237702689366181e-02 -5.9232776579643354e-01 +5.9205792164661840e-03
-8.2999999999999865e+00 +8.1630503881742076e+00 +0.0000000000000000e+00 -8.2999996946995083e+00 -3.1237629673570209e-02 -5.9232778157012878e-01 +5.9206849680097052e-03
-8.3999999999999861e+00 +8.1630031264397012e+00 +0.0000000000000000e+00 -8.3999996835310160e+00 -3.1237557626838663e-02 -5.9232779829544413e-01 +5.9207918199077657e-03
-8.4999999999999858e+00 +8.1629552986924310e+00 +0.0000000000000000e+00 -8.4999996720934146e+00 -3.1237486997823881e-02 -5.9232781694079228e-01 +5.9208997176014638e-03
-8.5999999999999854e+00 +8.1629069049323810e+00 +0.0000000000000000e+00 -8.5999996603834994e+00 -3.1237418235225241e-02 -5.9232783847468617e-01 +5.9210086065353577e-03
-8.6999999999999851e+00 +8.1628579451595336e+00 +0.0000000000000000e+00 -8.6999996483980677e+00 -3.1237351787790905e-02 -5.9232786386574454e-01 +5.9211184321576026e-03
-8.7999999999999847e+00 +8.1628084193738637e+00 +0.0000000000000000e+00 -8.7999996361339168e+00 -3.1237288104319392e-02 -5.9232789408269348e-01 +5.9212291399200236e-03
-8.8999999999999844e+00 +8.1627583275753448e+00 +0.0000000000000000e+00 -8.8999996235878402e+00 -3.1237227633661248e-02 -5.9232793009437068e-01 +5.9213406752782515e-03
-8.9999999999999840e+00 +8.1627076697639449e+00 +0.0000000000000000e+00 -8.9999996107566371e+00 -3.1237170824720661e-02 -5.9232797286973038e-01 +5.9214529836918318e-03
-9.0999999999999837e+00 +8.1626564459396231e+00 +0.0000000000000000e+00 -9.0999995976371011e+00 -3.1237118126457134e-02 -5.9232802337784429e-01 +5.9215660106243127e-03
-9.1999999999999833e+00 +8.1626046561023351e+00 +0.0000000000000000e+00 -9.1999995842260311e+00 -3.1237069987887084e-02 -5.9232808258790670e-01 +5.9216797015433850e-03
-9.2999999999999829e+00 +8.1625523002520239e+00 +0.0000000000000000e+00 -9.2999995705202210e+00 -3.1237026858085475e-02 -5.9232815146923745e-01 +5.9217940019209688e-03
-9.3999999999999826e+00 +8.1624993783886257e+00 +0.0000000000000000e+00 -9.3999995565164678e+00 -3.1236989186187485e-02 -5.9232823099128584e-01 +5.9219088572333364e-03
-9.4999999999999822e+00 +8.1624458905120658e+00 +0.0000000000000000e+00 -9.4999995422115688e+00 -3.1236957421390123e-02 -5.9232832212363340e-01 +5.9220242129612126e-03
-9.5999999999999819e+00 +8.1623918366222590e+00 +0.0000000000000000e+00 -9.5999995276023196e+00 -3.1236932012953883e-02 -5.9232842583599787e-01 +5.9221400145899007e-03
-9.6999999999999815e+00 +8.1623372167191075e+00 +0.0000000000000000e+00 -9.6999995126855154e+00 -3.1236913410204317e-02 -5.9232854309823713e-01 +5.9222562076093862e-03
-9.7999999999999812e+00 +8.1622820308025013e+00 +0.0000000000000000e+00 -9.7999994974579536e+00 -3.1236902062533725e-02 -5.9232867488035124e-01 +5.9223727375144258e-03
-9.8999999999999808e+00 +8.1622262788723177e+00 +0.0000000000000000e+00 -9.8999994819164296e+00 -3.1236898419402793e-02 -5.9232882215248739e-01 +5.9224895498047030e-03
-9.9999999999999805e+00 +8.1621699609284146e+00 +0.0000000000000000e+00 -9.9999994660577407e+00 -3.1236902930342186e-02 -5.9232898588494265e-01 +5.9226065899849025e-03
-1.0099999999999980e+01 +8.1621130769706394e+00 +0.0000000000000000e+00 -1.0099999449878682e+01 -3.1236915896948405e-02 -5.9232916678123049e-01 +5.9227237889508070e-03
-1.0199999999999980e+01 +8.1620556269988214e+00 +0.0000000000000000e+00 -1.0199999433376052e+01 -3.1236937028832221e-02 -5.9232936447718032e-01 +5.9228410191414721e-03
-1.0299999999999979e+01 +8.1619976110127723e+00 +0.0000000000000000e+00 -1.0299999416546644e+01 -3.1236965887595430e-02 -5.9232957834162470e-01 +5.9229581383730742e-03
-1.0399999999999979e+01 +8.1619390290122897e+00 +0.0000000000000000e+00 -1.0399999399387255e+01 -3.1237002034834583e-02 -5.9232980774332367e-01 +5.9230750044519118e-03
-1.0499999999999979e+01 +8.1618798809971569e+00 +0.0000000000000000e+00 -1.0499999381894682e+01 -3.1237045032140604e-02 -5.9233005205096301e-01 +5.9231914751741669e-03
-1.0599999999999978e+01 +8.1618201669671429e+00 +0.0000000000000000e+00 -1.0599999364065720e+01 -3.1237094441098578e-02 -5.9233031063315122e-01 +5.9233074083256346e-03
-1.0699999999999978e+01 +8.1617598869220025e+00 +0.0000000000000000e+00 -1.0699999345897165e+01 -3.1237149823287420e-02 -5.9233058285842000e-01 +5.9234226616814902e-03
-1.0799999999999978e+01 +8.1616990408614765e+00 +0.0000000000000000e+00 -1.0799999327385814e+01 -3.1237210740279537e-02 -5.9233086809521829e-01 +5.9235370930059992e-03
-1.0899999999999977e+01 +8.1616376287852948e+00 +0.0000000000000000e+00 -1.0899999308528463e+01 -3.1237276753640544e-02 -5.9233116571191291e-01 +5.9236505600522831e-03
-1.0999999999999977e+01 +8.1615756506931749e+00 +0.0000000000000000e+00 -1.0999999289321908e+01 -3.1237347424928983e-02 -5.9233147507678541e-01 +5.9237629205620623e-03
-1.1099999999999977e+01 +8.1615131065848239e+00 +0.0000000000000000e+00 -1.1099999269762945e+01 -3.1237422315695974e-02 -5.9233179555803062e-01 +5.9238740322653961e-03
-1.1199999999999976e+01 +8.1614499964599361e+00 +0.0000000000000000e+00 -1.1199999249848370e+01 -3.1237500987484953e-02 -5.9233212652375322e-01 +5.9239837528804132e-03
-1.1299999999999976e+01 +8.1613863203181989e+00 +0.0000000000000000e+00 -1.1299999229574979e+01 -3.1237583001831330e-02 -5.9233246734196732e-01 +5.9240919401130831e-03
-1.1399999999999975e+01 +8.1613220781592872e+00 +0.0000000000000000e+00 -1.1399999208939569e+01 -3.1237667920262210e-02 -5.9233281738059251e-01 +5.9241984516569335e-03
-1.1499999999999975e+01 +8.1612572699828707e+00 +0.0000000000000000e+00 -1.1499999187938934e+01 -3.1237755304296091e-02 -5.9233317600745339e-01 +5.9243031451928028e-03
-1.1599999999999975e+01 +8.1611918957886065e+00 +0.0000000000000000e+00 -1.1599999166569873e+01 -3.1237844715442532e-02 -5.9233354259027604e-01 +5.9244058783885891e-03
-1.1699999999999974e+01 +8.1611259555761482e+00 +0.0000000000000000e+00 -1.1699999144829180e+01 -3.1237935715201871e-02 -5.9233391649668732e-01 +5.9245065088989867e-03
