# trajectory
# s[mm] rx[mm] ry[mm] rz[mm] px[rad] py[rad] pz[rad]
0.0000000000000000e+00 +8.1649999999999991e+00 +0.0000000000000000e+00 +0.0000000000000000e+00 +0.0000000000000000e+00 +0.0000000000000000e+00 +1.0000000000000000e+00
-1.0000000000000001e-01 +8.1649997169967143e+00 +0.0000000000000000e+00 -9.9999999999466058e-02 +5.6600654405130100e-06 +0.0000000000000000e+00 +9.9999999998398181e-01
-2.0000000000000001e-01 +8.1649988679869647e+00 +0.0000000000000000e+00 -1.9999999999572848e-01 +1.1320129312663869e-05 +0.0000000000000000e+00 +9.9999999993592736e-01
-3.0000000000000004e-01 +8.1649974529709013e+00 +0.0000000000000000e+00 -2.9999999998558363e-01 +1.6980191713760600e-05 +0.0000000000000000e+00 +9.9999999985583654e-01
-4.0000000000000002e-01 +8.1649954719486679e+00 +0.0000000000000000e+00 -3.9999999996582791e-01 +2.2640252742507963e-05 +0.0000000000000000e+00 +9.9999999974370946e-01
-5.0000000000000000e-01 +8.1649929249203961e+00 +0.0000000000000000e+00 -4.9999999993325767e-01 +2.8300312499007384e-05 +0.0000000000000000e+00 +9.9999999959954611e-01
-5.9999999999999998e-01 +8.1649898118862083e+00 +0.0000000000000000e+00 -5.9999999988466923e-01 +3.3960371084756849e-05 +0.0000000000000000e+00 +9.9999999942334650e-01
-6.9999999999999996e-01 +8.1649861328462148e+00 +0.0000000000000000e+00 -6.9999999981685912e-01 +3.9620428602650838e-05 +0.0000000000000000e+00 +9.9999999921511074e-01
-7.9999999999999993e-01 +8.1649818878005185e+00 +0.0000000000000000e+00 -7.9999999972662361e-01 +4.5280485156980223e-05 +0.0000000000000000e+00 +9.9999999897483871e-01
-8.9999999999999991e-01 +8.1649770767492118e+00 +0.0000000000000000e+00 -8.9999999961075905e-01 +5.0940540853432214e-05 +0.0000000000000000e+00 +9.9999999870253053e-01
-9.9999999999999989e-01 +8.1649716996923729e+00 +0.0000000000000000e+00 -9.9999999946606188e-01 +5.6600595799090274e-05 +0.0000000000000000e+00 +9.9999999839818621e-01
-1.0999999999999999e+00 +8.1649657566300728e+00 +0.0000000000000000e+00 -1.0999999992893283e+00 +6.2260650102434047e-05 +0.0000000000000000e+00 +9.9999999806180562e-01
-1.2000000000000000e+00 +8.1649592475623702e+00 +0.0000000000000000e+00 -1.1999999990773551e+00 +6.7920703873339293e-05 +0.0000000000000000e+00 +9.9999999769338888e-01
-1.3000000000000000e+00 +8.1649521724893130e+00 +0.0000000000000000e+00 -1.2999999988269384e+00 +7.3580757223077844e-05 +0.0000000000000000e+00 +9.9999999729293598e-01
-1.4000000000000001e+00 +8.1649445314109368e+00 +0.0000000000000000e+00 -1.3999999985348746e+00 +7.9240810264317508e-05 +0.0000000000000000e+00 +9.9999999686044694e-01
-1.5000000000000002e+00 +8.1649363243272663e+00 +0.0000000000000000e+00 -1.4999999981979599e+00 +8.4900863111122047e-05 +0.0000000000000000e+00 +9.9999999639592163e-01
-1.6000000000000003e+00 +8.1649275512383159e+00 +0.0000000000000000e+00 -1.5999999978129911e+00 +9.0560915878951090e-05 +0.0000000000000000e+00 +9.9999999589936017e-01
-1.7000000000000004e+00 +8.1649182121440891e+00 +0.0000000000000000e+00 -1.6999999973767641e+00 +9.6220968684660138e-05 +0.0000000000000000e+00 +9.9999999537076245e-01
-1.8000000000000005e+00 +8.1649083070445752e+00 +0.0000000000000000e+00 -1.7999999968860756e+00 +1.0188102164650044e-04 +0.0000000000000000e+00 +9.9999999481012858e-01
-1.9000000000000006e+00 +8.1648978359397510e+00 +0.0000000000000000e+00 -1.8999999963377219e+00 +1.0754107488411901e-04 +0.0000000000000000e+00 +9.9999999421745844e-01
-2.0000000000000004e+00 +8.1648867988295848e+00 +0.0000000000000000e+00 -1.9999999957284993e+00 +1.1320112851855859e-04 +0.0000000000000000e+00 +9.9999999359275205e-01
-2.1000000000000005e+00 +8.1648751957140302e+00 +0.0000000000000000e+00 -2.0999999950552044e+00 +1.1886118267197307e-04 +0.0000000000000000e+00 +9.9999999293600939e-01
-2.2000000000000006e+00 +8.1648630265930286e+00 +0.0000000000000000e+00 -2.1999999943146333e+00 +1.2452123746449812e-04 +0.0000000000000000e+00 +9.9999999224723046e-01
-2.3000000000000007e+00 +8.1648502914665109e+00 +0.0000000000000000e+00 -2.2999999935035826e+00 +1.3018129301112173e-04 +0.0000000000000000e+00 +9.9999999152641517e-01
-2.4000000000000008e+00 +8.1648369903343969e+00 +0.0000000000000000e+00 -2.3999999926188487e+00 +1.3584134942139987e-04 +0.0000000000000000e+00 +9.9999999077356361e-01
-2.5000000000000009e+00 +8.1648231231965944e+00 +0.0000000000000000e+00 -2.4999999916572277e+00 +1.4150140679945660e-04 +0.0000000000000000e+00 +9.9999998998867567e-01
-2.6000000000000010e+00 +8.1648086900530021e+00 +0.0000000000000000e+00 -2.5999999906155162e+00 +1.4716146524398408e-04 +0.0000000000000000e+00 +9.9999998917175126e-01
-2.7000000000000011e+00 +8.1647936909035081e+00 +0.0000000000000000e+00 -2.6999999894905105e+00 +1.5282152484824281e-04 +0.0000000000000000e+00 +9.9999998832279047e-01
-2.8000000000000012e+00 +8.1647781257479917e+00 +0.0000000000000000e+00 -2.7999999882790068e+00 +1.5848158570006172e-04 +0.0000000000000000e+00 +9.9999998744179319e-01
-2.9000000000000012e+00 +8.1647619945863248e+00 +0.0000000000000000e+00 -2.8999999869778015e+00 +1.6414164788183835e-04 +0.0000000000000000e+00 +9.9999998652875943e-01
-3.0000000000000013e+00 +8.1647452974183690e+00 +0.0000000000000000e+00 -2.9999999855836910e+00 +1.6980171147053897e-04 +0.0000000000000000e+00 +9.9999998558368908e-01
-3.1000000000000014e+00 +8.1647280342439803e+00 +0.0000000000000000e+00 -3.0999999840934716e+00 +1.7546177653769885e-04 +0.0000000000000000e+00 +9.9999998460658213e-01
-3.2000000000000015e+00 +8.1647102050630096e+00 +0.0000000000000000e+00 -3.1999999825039396e+00 +1.8112184314942242e-04 +0.0000000000000000e+00 +9.9999998359743858e-01
-3.3000000000000016e+00 +8.1646918098752970e+00 +0.0000000000000000e+00 -3.2999999808118914e+00 +1.8678191136638344e-04 +0.0000000000000000e+00 +9.9999998255625844e-01
-3.4000000000000017e+00 +8.1646728486806808e+00 +0.0000000000000000e+00 -3.3999999790141233e+00 +1.9244198124382532e-04 +0.0000000000000000e+00 +9.9999998148304159e-01
-3.5000000000000018e+00 +8.1646533214789923e+00 +0.0000000000000000e+00 -3.4999999771074317e+00 +1.9810205283156133e-04 +0.0000000000000000e+00 +9.9999998037778792e-01
-3.6000000000000019e+00 +8.1646332282700573e+00 +0.0000000000000000e+00 -3.5999999750886129e+00 +2.0376212617397485e-04 +0.0000000000000000e+00 +9.9999997924049755e-01
-3.7000000000000020e+00 +8.1646125690536984e+00 +0.0000000000000000e+00 -3.6999999729544633e+00 +2.0942220131001964e-04 +0.0000000000000000e+00 +9.9999997807117036e-01
-3.8000000000000020e+00 +8.1645913438297342e+00 +0.0000000000000000e+00 -3.7999999707017791e+00 +2.1508227827322015e-04 +0.0000000000000000e+00 +9.9999997686980635e-01
-3.9000000000000021e+00 +8.1645695525979818e+00 +0.0000000000000000e+00 -3.8999999683273567e+00 +2.2074235709167183e-04 +0.0000000000000000e+00 +9.9999997563640541e-01
-4.0000000000000018e+00 +8.1645471953582529e+00 +0.0000000000000000e+00 -3.9999999658279926e+00 +2.2640243778804145e-04 +0.0000000000000000e+00 +9.9999997437096755e-01
-4.1000000000000014e+00 +8.1645242721103610e+00 +0.0000000000000000e+00 -4.0999999632004824e+00 +2.3206252037958629e-04 +0.0000000000000000e+00 +9.9999997307349275e-01
-4.2000000000000011e+00 +8.1645007828541143e+00 +0.0000000000000000e+00 -4.1999999604416232e+00 +2.3772260487836189e-04 +0.0000000000000000e+00 +9.9999997174398092e-01
-4.3000000000000007e+00 +8.1644767275893226e+00 +0.0000000000000000e+00 -4.2999999575482111e+00 +2.4338269129142975e-04 +0.0000000000000000e+00 +9.9999997038243216e-01
-4.4000000000000004e+00 +8.1644521063157924e+00 +0.0000000000000000e+00 -4.3999999545170416e+00 +2.4904277962087620e-04 +0.0000000000000000e+00 +9.9999996898884624e-01
-4.5000000000000000e+00 +8.1644269190333336e+00 +0.0000000000000000e+00 -4.4999999513449120e+00 +2.5470286986381253e-04 +0.0000000000000000e+00 +9.9999996756322329e-01
-4.5999999999999996e+00 +8.1644011657417561e+00 +0.0000000000000000e+00 -4.5999999480286187e+00 +2.6036296201237507e-04 +0.0000000000000000e+00 +9.9999996610556319e-01
-4.6999999999999993e+00 +8.1643748464408681e+00 +0.0000000000000000e+00 -4.6999999445649570e+00 +2.6602305605372530e-04 +0.0000000000000000e+00 +9.9999996461586593e-01
-4.7999999999999989e+00 +8.1643479611304830e+00 +0.0000000000000000e+00 -4.7999999409507241e+00 +2.7168315197004977e-04 +0.0000000000000000e+00 +9.9999996309413153e-01
-4.8999999999999986e+00 +8.1643205098104126e+00 +0.0000000000000000e+00 -4.8999999371827156e+00 +2.7734324973856039e-04 +0.0000000000000000e+00 +9.9999996154035986e-01
-4.9999999999999982e+00 +8.1642924924804738e+00 +0.0000000000000000e+00 -4.9999999332577278e+00 +2.8300334933149433e-04 +0.0000000000000000e+00 +9.9999995995455104e-01
-5.0999999999999979e+00 +8.1642639091404856e+00 +0.0000000000000000e+00 -5.0999999291725580e+00 +2.8866345071611421e-04 +0.0000000000000000e+00 +9.9999995833670496e-01
-5.1999999999999975e+00 +8.1642347597902720e+00 +0.0000000000000000e+00 -5.1999999249240014e+00 +2.9432355385470817e-04 +0.0000000000000000e+00 +9.9999995668682162e-01
-5.2999999999999972e+00 +8.1642050444296590e+00 +0.0000000000000000e+00 -5.2999999205088546e+00 +2.9998365870458977e-04 +0.0000000000000000e+00 +9.9999995500490102e-01
-5.3999999999999968e+00 +8.1641747630584760e+00 +0.0000000000000000e+00 -5.3999999159239138e+00 +3.0564376521809822e-04 +0.0000000000000000e+00 +9.9999995329094304e-01
-5.4999999999999964e+00 +8.1641439156765614e+00 +0.0000000000000000e+00 -5.4999999111659754e+00 +3.1130387334259846e-04 +0.0000000000000000e+00 +9.9999995154494781e-01
-5.5999999999999961e+00 +8.1641125022837553e+00 +0.0000000000000000e+00 -5.5999999062318357e+00 +3.1696398302048101e-04 +0.0000000000000000e+00 +9.9999994976691520e-01
-5.6999999999999957e+00 +8.1640805228799067e+00 +0.0000000000000000e+00 -5.6999999011182911e+00 +3.2262409418916231e-04 +0.0000000000000000e+00 +9.9999994795684533e-01
-5.7999999999999954e+00 +8.1640479774648700e+00 +0.0000000000000000e+00 -5.7999998958221370e+00 +3.2828420678108458e-04 +0.0000000000000000e+00 +9.9999994611473808e-01
-5.8999999999999950e+00 +8.1640148660385066e+00 +0.0000000000000000e+00 -5.8999998903401707e+00 +3.3394432072371595e-04 +0.0000000000000000e+00 +9.9999994424059346e-01
-5.9999999999999947e+00 +8.1639811886006832e+00 +0.0000000000000000e+00 -5.9999998846691875e+00 +3.3960443593955049e-04 +0.0000000000000000e+00 +9.9999994233441158e-01
-6.0999999999999943e+00 +8.1639469451512792e+00 +0.0000000000000000e+00 -6.0999998788059848e+00 +3.4526455234645353e-04 +0.0000000000000000e+00 +9.9999994039619233e-01
-6.1999999999999940e+00 +8.1639121356901772e+00 +0.0000000000000000e+00 -6.1999998727473580e+00 +3.5092466986146015e-04 +0.0000000000000000e+00 +9.9999993842593582e-01
-6.2999999999999936e+00 +8.1638767602172724e+00 +0.0000000000000000e+00 -6.2999998664901042e+00 +3.5658478840457303e-04 +0.0000000000000000e+00 +9.9999993642364204e-01
-6.3999999999999932e+00 +8.1638408187324654e+00 +0.0000000000000000e+00 -6.3999998600310191e+00 +3.6224490789910725e-04 +0.0000000000000000e+00 +9.9999993438931090e-01
-6.4999999999999929e+00 +8.1638043112356637e+00 +0.0000000000000000e+00 -6.4999998533668988e+00 +3.6790502827168970e-04 +0.0000000000000000e+00 +9.9999993232294249e-01
-6.5999999999999925e+00 +8.1637672377267840e+00 +0.0000000000000000e+00 -6.5999998464945397e+00 +3.7356514945225831e-04 +0.0000000000000000e+00 +9.9999993022453681e-01
-6.6999999999999922e+00 +8.1637295982057481e+00 +0.0000000000000000e+00 -6.6999998394107383e+00 +3.7922527137406148e-04 +0.0000000000000000e+00 +9.9999992809409388e-01
-6.7999999999999918e+00 +8.1636913926724866e+00 +0.0000000000000000e+00 -6.7999998321122908e+00 +3.8488539397365731e-04 +0.0000000000000000e+00 +9.9999992593161369e-01
-6.8999999999999915e+00 +8.1636526211269338e+00 +0.0000000000000000e+00 -6.8999998245959935e+00 +3.9054551719091288e-04 +0.0000000000000000e+00 +9.9999992373709623e-01
-6.9999999999999911e+00 +8.1636132835690294e+00 +0.0000000000000000e+00 -6.9999998168586419e+00 +3.9620564096900347e-04 +0.0000000000000000e+00 +9.9999992151054162e-01
-7.0999999999999908e+00 +8.1635733799987218e+00 +0.0000000000000000e+00 -7.0999998088970333e+00 +4.0186576525441176e-04 +0.0000000000000000e+00 +9.9999991925194975e-01
-7.1999999999999904e+00 +8.1635329104159631e+00 +0.0000000000000000e+00 -7.1999998007079640e+00 +4.0752588999692707e-04 +0.0000000000000000e+00 +9.9999991696132073e-01
-7.2999999999999901e+00 +8.1634918748207088e+00 +0.0000000000000000e+00 -7.2999997922882294e+00 +4.1318601514964435e-04 +0.0000000000000000e+00 +9.9999991463865445e-01
-7.3999999999999897e+00 +8.1634502732129199e+00 +0.0000000000000000e+00 -7.3999997836346267e+00 +4.1884614066896357e-04 +0.0000000000000000e+00 +9.9999991228395102e-01
-7.4999999999999893e+00 +8.1634081055925627e+00 +0.0000000000000000e+00 -7.4999997747439515e+00 +4.2450626651458851e-04 +0.0000000000000000e+00 +9.9999990989721044e-01
-7.5999999999999890e+00 +8.1633653719596069e+00 +0.0000000000000000e+00 -7.5999997656130009e+00 +4.3016639264952612e-04 +0.0000000000000000e+00 +9.9999990747843270e-01
-7.6999999999999886e+00 +8.1633220723140241e+00 +0.0000000000000000e+00 -7.6999997562385705e+00 +4.3582651904008532e-04 +0.0000000000000000e+00 +9.9999990502761782e-01
-7.7999999999999883e+00 +8.1632782066557912e+00 +0.0000000000000000e+00 -7.7999997466174564e+00 +4.4148664565587620e-04 +0.0000000000000000e+00 +9.9999990254476578e-01
-7.8999999999999879e+00 +8.1632337749848869e+00 +0.0000000000000000e+00 -7.8999997367464552e+00 +4.4714677246980887e-04 +0.0000000000000000e+00 +9.9999990002987660e-01
-7.9999999999999876e+00 +8.1631887773012917e+00 +0.0000000000000000e+00 -7.9999997266223639e+00 +4.5280689945809247e-04 +0.0000000000000000e+00 +9.9999989748295026e-01
-8.0999999999999872e+00 +8.1631432136049895e+00 +0.0000000000000000e+00 -8.0999997162419781e+00 +4.5846702660048229e-04 +0.0000000000000000e+00 +9.9999989490398689e-01
-8.1999999999999869e+00 +8.1630970838959662e+00 +0.0000000000000000e+00 -8.1999997056020941e+00 +4.6412715388300773e-04 +0.0000000000000000e+00 +9.9999989229298636e-01
-8.2999999999999865e+00 +8.1630503881742076e+00 +0.0000000000000000e+00 -8.2999996946995083e+00 +4.6978728130070191e-04 +0.0000000000000000e+00 +9.9999988964994868e-01
-8.3999999999999861e+00 +8.1630031264397012e+00 +0.0000000000000000e+00 -8.3999996835310160e+00 +4.7544740885785034e-04 +0.0000000000000000e+00 +9.9999988697487396e-01
-8.4999999999999858e+00 +8.1629552986924310e+00 +0.0000000000000000e+00 -8.4999996720934146e+00 +4.8110753656799201e-04 +0.0000000000000000e+00 +9.9999988426776210e-01
-8.5999999999999854e+00 +8.1629069049323810e+00 +0.0000000000000000e+00 -8.5999996603834994e+00 +4.8676766445392020e-04 +0.0000000000000000e+00 +9.9999988152861308e-01
-8.6999999999999851e+00 +8.1628579451595336e+00 +0.0000000000000000e+00 -8.6999996483980677e+00 +4.9242779254768366e-04 +0.0000000000000000e+00 +9.9999987875742691e-01
-8.7999999999999847e+00 +8.1628084193738637e+00 +0.0000000000000000e+00 -8.7999996361339168e+00 +4.9808792089058745e-04 +0.0000000000000000e+00 +9.9999987595420348e-01
-8.8999999999999844e+00 +8.1627583275753448e+00 +0.0000000000000000e+00 -8.8999996235878402e+00 +5.0374804953319400e-04 +0.0000000000000000e+00 +9.9999987311894289e-01
-8.9999999999999840e+00 +8.1627076697639449e+00 +0.0000000000000000e+00 -8.9999996107566371e+00 +5.0940817853532437e-04 +0.0000000000000000e+00 +9.9999987025164505e-01
-9.0999999999999837e+00 +8.1626564459396231e+00 +0.0000000000000000e+00 -9.0999995976371011e+00 +5.1506830796605905e-04 +0.0000000000000000e+00 +9.9999986735230995e-01
-9.1999999999999833e+00 +8.1626046561023351e+00 +0.0000000000000000e+00 -9.1999995842260311e+00 +5.2072843790373956e-04 +0.0000000000000000e+00 +9.9999986442093747e-01
-9.2999999999999829e+00 +8.1625523002520239e+00 +0.0000000000000000e+00 -9.2999995705202210e+00 +5.2638856843596922e-04 +0.0000000000000000e+00 +9.9999986145752762e-01
-9.3999999999999826e+00 +8.1624993783886257e+00 +0.0000000000000000e+00 -9.3999995565164678e+00 +5.3204869965961456e-04 +0.0000000000000000e+00 +9.9999985846208028e-01
-9.4999999999999822e+00 +8.1624458905120658e+00 +0.0000000000000000e+00 -9.4999995422115688e+00 +5.3770883168080660e-04 +0.0000000000000000e+00 +9.9999985543459546e-01
-9.5999999999999819e+00 +8.1623918366222590e+00 +0.0000000000000000e+00 -9.5999995276023196e+00 +5.4336896461494198e-04 +0.0000000000000000e+00 +9.9999985237507305e-01
-9.6999999999999815e+00 +8.1623372167191075e+00 +0.0000000000000000e+00 -9.6999995126855154e+00 +5.4902909858668431e-04 +0.0000000000000000e+00 +9.9999984928351293e-01
-9.7999999999999812e+00 +8.1622820308025013e+00 +0.0000000000000000e+00 -9.7999994974579536e+00 +5.5468923372996586e-04 +0.0000000000000000e+00 +9.9999984615991500e-01
-9.8999999999999808e+00 +8.1622262788723177e+00 +0.0000000000000000e+00 -9.8999994819164296e+00 +5.6034937018798825e-04 +0.0000000000000000e+00 +9.9999984300427913e-01
-9.9999999999999805e+00 +8.1621699609284146e+00 +0.0000000000000000e+00 -9.9999994660577407e+00 +5.6600950811322469e-04 +0.0000000000000000e+00 +9.9999983981660534e-01
-1.0099999999999980e+01 +8.1621130769706394e+00 +0.0000000000000000e+00 -1.0099999449878682e+01 +5.7166964766678307e-04 +0.0000000000000000e+00 +9.9999983659689340e-01
-1.0199999999999980e+01 +8.1620556269988214e+00 +0.0000000000000000e+00 -1.0199999433376052e+01 +5.7732978901139280e-04 +0.0000000000000000e+00 +9.9999983334514331e-01
-1.0299999999999979e+01 +8.1619976110127723e+00 +0.0000000000000000e+00 -1.0299999416546644e+01 +5.8298993230439017e-04 +0.0000000000000000e+00 +9.9999983006135484e-01
-1.0399999999999979e+01 +8.1619390290122897e+00 +0.0000000000000000e+00 -1.0399999399387255e+01 +5.8865007769707970e-04 +0.0000000000000000e+00 +9.9999982674552790e-01
-1.0499999999999979e+01 +8.1618798809971569e+00 +0.0000000000000000e+00 -1.0499999381894682e+01 +5.9431022533473353e-04 +0.0000000000000000e+00 +9.9999982339766236e-01
-1.0599999999999978e+01 +8.1618201669671429e+00 +0.0000000000000000e+00 -1.0599999364065720e+01 +5.9997037535659099e-04 +0.0000000000000000e+00 +9.9999982001775811e-01
-1.0699999999999978e+01 +8.1617598869220025e+00 +0.0000000000000000e+00 -1.0699999345897165e+01 +6.0563052789585747e-04 +0.0000000000000000e+00 +9.9999981660581494e-01
-1.0799999999999978e+01 +8.1616990408614765e+00 +0.0000000000000000e+00 -1.0799999327385814e+01 +6.1129068307970392e-04 +0.0000000000000000e+00 +9.9999981316183284e-01
-1.0899999999999977e+01 +8.1616376287852948e+00 +0.0000000000000000e+00 -1.0899999308528463e+01 +6.1695084102926588e-04 +0.0000000000000000e+00 +9.9999980968581170e-01
-1.0999999999999977e+01 +8.1615756506931749e+00 +0.0000000000000000e+00 -1.0999999289321908e+01 +6.2261100185964267e-04 +0.0000000000000000e+00 +9.9999980617775130e-01
-1.1099999999999977e+01 +8.1615131065848239e+00 +0.0000000000000000e+00 -1.1099999269762945e+01 +6.2827116567989690e-04 +0.0000000000000000e+00 +9.9999980263765165e-01
-1.1199999999999976e+01 +8.1614499964599361e+00 +0.0000000000000000e+00 -1.1199999249848370e+01 +6.3393133259305326e-04 +0.0000000000000000e+00 +9.9999979906551251e-01
-1.1299999999999976e+01 +8.1613863203181989e+00 +0.0000000000000000e+00 -1.1299999229574979e+01 +6.3959150269609776e-04 +0.0000000000000000e+00 +9.9999979546133388e-01
-1.1399999999999975e+01 +8.1613220781592872e+00 +0.0000000000000000e+00 -1.1399999208939569e+01 +6.4525167607997695e-04 +0.0000000000000000e+00 +9.9999979182511556e-01
-1.1499999999999975e+01 +8.1612572699828707e+00 +0.0000000000000000e+00 -1.1499999187938934e+01 +6.5091185282959677e-04 +0.0000000000000000e+00 +9.9999978815685742e-01
-1.1599999999999975e+01 +8.1611918957886065e+00 +0.0000000000000000e+00 -1.1599999166569873e+01 +6.5657203302382197e-04 +0.0000000000000000e+00 +9.9999978445655946e-01
-1.1699999999999974e+01 +8.1611259555761482e+00 +0.0000000000000000e+00 -1.1699999144829180e+01 +6.6223221673547496e-04 +0.0000000000000000e+00 +9.9999978072422147e-01
