# multipoles
# s[mm] polynom_b[n=0][T/m^n] polynom_b[n=1][T/m^n] polynom_b[n=2][T/m^n] polynom_b[n=3][T/m^n] polynom_b[n=4][T/m^n] polynom_b[n=5][T/m^n] polynom_b[n=6][T/m^n] 
+0.0000000000000000e+00 -5.3633041370815926e-01 +7.3402109821319321e+00 -8.4084444264764213e-01 +3.3700428512025717e+01 +4.1425732327358055e+03 -3.3414904864670720e+05 -1.8485295910675157e+07 
-1.0000000000000001e-01 -5.3633055649716321e-01 +7.3402111355428490e+00 -8.3001026598251748e-01 +3.3387174057327762e+01 +4.0044952863823796e+03 -3.3164018431318249e+05 -1.7977743199602555e+07 
-2.0000000000000001e-01 -5.3633071145419653e-01 +7.3402084498474682e+00 -8.1836905784846692e-01 +3.3135534879332624e+01 +3.8516350679069269e+03 -3.2945663817111216e+05 -1.7405270091033299e+07 
-3.0000000000000004e-01 -5.3633087763637666e-01 +7.3402032639413166e+00 -8.0603909103775884e-01 +3.2941295981277030e+01 +3.6859550257091978e+03 -3.2758160478489124e+05 -1.6776231719643893e+07 
-4.0000000000000002e-01 -5.3633105410081328e-01 +7.3401959167225881e+00 -7.9313863909963400e-01 +3.2800242302846257e+01 +3.5094176205130698e+03 -3.2599827837770048e+05 -1.6098983269495349e+07 
-5.0000000000000000e-01 -5.3633123990463416e-01 +7.3401867470843829e+00 -7.7978597351498746e-01 +3.2708158950981051e+01 +3.3239852738381633e+03 -3.2468985418465396e+05 -1.5381879735264074e+07 
-5.9999999999999998e-01 -5.3633143410491890e-01 +7.3401760939235148e+00 -7.6609937167317843e-01 +3.2660830950253555e+01 +3.1316205154600107e+03 -3.2363952702146454e+05 -1.4633276610383725e+07 
-6.9999999999999996e-01 -5.3633163575878651e-01 +7.3401642961311424e+00 -7.5219710632544534e-01 +3.2654043494860360e+01 +2.9342857884533437e+03 -3.2283049270314240e+05 -1.3861528976496687e+07 
-7.9999999999999993e-01 -5.3633184392331879e-01 +7.3401516926069554e+00 -7.3819745567497996e-01 +3.2683581557571145e+01 +2.7339436421998857e+03 -3.2224594583058107e+05 -1.3074992422831822e+07 
-8.9999999999999991e-01 -5.3633205765563208e-01 +7.3401386222446137e+00 -7.2421869400563066e-01 +3.2745230298335748e+01 +2.5325565498482615e+03 -3.2186908212376304e+05 -1.2282022164597552e+07 
-9.9999999999999989e-01 -5.3633227601281752e-01 +7.3401254239506253e+00 -7.1037909941334143e-01 +3.2834774514605819e+01 +2.3320870608522978e+03 -3.2168309523818723e+05 -1.1490973786728404e+07 
-1.0999999999999999e+00 -5.3633249805197092e-01 +7.3401124366253514e+00 -6.9679695056538848e-01 +3.2947999197395767e+01 +2.1344977382420357e+03 -3.2167118000095087e+05 -1.0710202938222451e+07 
-1.2000000000000000e+00 -5.3633272283022726e-01 +7.3400999991847069e+00 -6.8359052229914230e-01 +3.3080688910414175e+01 +1.9417510759330830e+03 -3.2181652884224971e+05 -9.9480649430319984e+06 
-1.3000000000000000e+00 -5.3633294940469667e-01 +7.3400884505401489e+00 -6.7087809367140894e-01 +3.3228628339130452e+01 +1.7558096516600122e+03 -3.2210233489313582e+05 -9.2129155264607817e+06 
-1.4000000000000001e+00 -5.3633317683249904e-01 +7.3400781296183659e+00 -6.5877794413154100e-01 +3.3387601756132156e+01 +1.5786360575657036e+03 -3.2251178898854461e+05 -8.5131104940294903e+06 
-1.5000000000000002e+00 -5.3633340417081499e-01 +7.3400693753506276e+00 -6.4740834688140769e-01 +3.3553393302663672e+01 +1.4121927700487397e+03 -3.2302808123300050e+05 -7.8570050998369949e+06 
-1.6000000000000003e+00 -5.3633363047676808e-01 +7.3400625266747195e+00 -6.3688758434007198e-01 +3.3721786938756260e+01 +1.2584424499432082e+03 -3.2363440072548907e+05 -7.2529554918334913e+06 
-1.7000000000000004e+00 -5.3633385480755735e-01 +7.3400579225433917e+00 -6.2733393098780155e-01 +3.3888566202350546e+01 +1.1193476129676824e+03 -3.2431393418438570e+05 -6.7093171357610440e+06 
-1.8000000000000005e+00 -5.3633407622036644e-01 +7.3400559019152718e+00 -6.1886566558616440e-01 +3.4049514471205683e+01 +9.9687086451933033e+02 -3.2504986745864735e+05 -6.2344459353565173e+06 
-1.9000000000000006e+00 -5.3633429377241448e-01 +7.3400568037616365e+00 -6.1160106433970096e-01 +3.4200414761630611e+01 +8.9297477015737229e+02 -3.2582538435446925e+05 -5.8366976205295837e+06 
-2.0000000000000004e+00 -5.3633450652095971e-01 +7.3400609670692862e+00 -6.0565840125231551e-01 +3.4337049643033062e+01 +8.0962186326416702e+02 -3.2662366614155815e+05 -5.5244277827704754e+06 
-2.1000000000000005e+00 -5.3633471374237773e-01 +7.3400686160394466e+00 -6.0111983523591261e-01 +3.4456048582810475e+01 +7.4818063210133562e+02 -3.2742959348754497e+05 -5.3034608139004149e+06 
-2.2000000000000006e+00 -5.3633491559069735e-01 +7.3400795095745828e+00 -5.9792132087390848e-01 +3.4557489980629050e+01 +7.0762822503239920e+02 -3.2823499224704137e+05 -5.1694554032918159e+06 
-2.3000000000000007e+00 -5.3633511243965948e-01 +7.3400932887121124e+00 -5.9596182107754314e-01 +3.4642328697048917e+01 +6.8634012962693896e+02 -3.2903345587989601e+05 -5.1155185422955314e+06 
-2.4000000000000008e+00 -5.3633530466295509e-01 +7.3401095944880712e+00 -5.9514030370129845e-01 +3.4711519634515597e+01 +6.8269192419194860e+02 -3.2981857809646142e+05 -5.1347576536925407e+06 
-2.5000000000000009e+00 -5.3633549263433355e-01 +7.3401280679363392e+00 -5.9535572780456314e-01 +3.4766017761849582e+01 +6.9505901501125686e+02 -3.3058395299669285e+05 -5.2202793383521335e+06 
-2.6000000000000010e+00 -5.3633567672745708e-01 +7.3401483500920337e+00 -5.9650706199355330e-01 +3.4806778006372035e+01 +7.2181698759015796e+02 -3.3132317442126101e+05 -5.3651910548212137e+06 
-2.7000000000000011e+00 -5.3633585731604361e-01 +7.3401700819804319e+00 -5.9849326594070773e-01 +3.4834755587739735e+01 +7.6134125271291634e+02 -3.3202983791516902e+05 -5.5625994309558021e+06 
-2.8000000000000012e+00 -5.3633603477374492e-01 +7.3401929046308627e+00 -6.0121330533819273e-01 +3.4850905611628967e+01 +8.1200732660561300e+02 -3.3269753836130881e+05 -5.8056115849754317e+06 
-2.9000000000000012e+00 -5.3633620947424654e-01 +7.3402164590629368e+00 -6.0456613929862180e-01 +3.4856183452380407e+01 +8.7219059709587975e+02 -3.3331987215132930e+05 -6.0873340333035318e+06 
-3.0000000000000013e+00 -5.3633638179117038e-01 +7.3402403862919057e+00 -6.0845073229541635e-01 +3.4851544625043900e+01 +9.4026654480021170e+02 -3.3389043651657365e+05 -6.4008737256372133e+06 
-3.1000000000000014e+00 -5.3633655209815623e-01 +7.3402643273289625e+00 -6.1276604341706697e-01 +3.4837944746294745e+01 +1.0146105383140805e+03 -3.3440282921724458e+05 -6.7393370726644751e+06 
-3.2000000000000015e+00 -5.3633672076879124e-01 +7.3402879231755085e+00 -6.1741103555883836e-01 +3.4816339721590253e+01 +1.0935980120068978e+03 -3.3485064968094864e+05 -7.0958308000572734e+06 
-3.3000000000000016e+00 -5.3633688817667524e-01 +7.3403108148275429e+00 -6.2228466636894175e-01 +3.4787685608765699e+01 +1.1756042891158377e+03 -3.3522749818542250e+05 -7.4634610970150884e+06 
-3.4000000000000017e+00 -5.3633705469534931e-01 +7.3403326432735954e+00 -6.2728589715582683e-01 +3.4752938678166259e+01 +1.2590047522735151e+03 -3.3552697620706738e+05 -7.8353344326993283e+06 
-3.5000000000000018e+00 -5.3633722069836143e-01 +7.3403530494890203e+00 -6.3231368465059756e-01 +3.4713055573206162e+01 +1.3421746857422802e+03 -3.3574268733079656e+05 -8.2045568018508097e+06 
-3.6000000000000019e+00 -5.3633738655920671e-01 +7.3403716744426015e+00 -6.3726698767367396e-01 +3.4668993121220268e+01 +1.4234893996089820e+03 -3.3586823616455443e+05 -8.5642343123867512e+06 
-3.7000000000000020e+00 -5.3633755265135485e-01 +7.3403881590937949e+00 -6.4204476420320444e-01 +3.4621708420588796e+01 +1.5013241780138048e+03 -3.3589722885856137e+05 -8.9074729506687075e+06 
-3.8000000000000020e+00 -5.3633771934826069e-01 +7.3404021443863208e+00 -6.4654596932615971e-01 +3.4572159007485567e+01 +1.5740542342451149e+03 -3.3582327401617623e+05 -9.2273783529954627e+06 
-3.9000000000000021e+00 -5.3633788702333329e-01 +7.3404132712541417e+00 -6.5066955842730922e-01 +3.4521302701698410e+01 +1.6400547713116775e+03 -3.3563998185296007e+05 -9.5170560964618307e+06 
-4.0000000000000018e+00 -5.3633805604994189e-01 +7.3404211806187885e+00 -6.5431448729932518e-01 +3.4470097672104558e+01 +1.6977009874654659e+03 -3.3534096452679025e+05 -9.7696117336003426e+06 
-4.1000000000000014e+00 -5.3633822666011421e-01 +7.3404255990388751e+00 -6.5740292501529962e-01 +3.4419749255938093e+01 +1.7457288466927025e+03 -3.3492466974754562e+05 -9.9796702076306045e+06 
-4.2000000000000011e+00 -5.3633839851291809e-01 +7.3404266026867599e+00 -6.5995333971464110e-01 +3.4372430127596466e+01 +1.7843329882435730e+03 -3.3440888290269295e+05 -1.0147912814645085e+07 
-4.3000000000000007e+00 -5.3633857112229066e-01 +7.3404243568846557e+00 -6.6200914418907952e-01 +3.4330555863916160e+01 +1.8140765706412346e+03 -3.3381625770657469e+05 -1.0276529216614952e+07 
-4.4000000000000004e+00 -5.3633874400212211e-01 +7.3404190269518130e+00 -6.6361375871417461e-01 +3.4296542178004984e+01 +1.8355228954239785e+03 -3.3316944875833084e+05 -1.0367709741501760e+07 
-4.5000000000000000e+00 -5.3633891666633660e-01 +7.3404107782144719e+00 -6.6481060159430239e-01 +3.4272804638492794e+01 +1.8492352308091270e+03 -3.3249110997197946e+05 -1.0423644547306430e+07 
-4.5999999999999996e+00 -5.3633908862885737e-01 +7.3403997760062261e+00 -6.6564309294712232e-01 +3.4261758669911686e+01 +1.8557768792055765e+03 -3.3180389460044110e+05 -1.0446523931413384e+07 
-4.6999999999999993e+00 -5.3633925940358074e-01 +7.3403861856630481e+00 -6.6615465869522239e-01 +3.4265819684522548e+01 +1.8557112582634861e+03 -3.3113045597471006e+05 -1.0438538727927860e+07 
-4.7999999999999989e+00 -5.3633942850442529e-01 +7.3403701725307364e+00 -6.6638872407138938e-01 +3.4287402874738831e+01 +1.8496017729948494e+03 -3.3049344631500536e+05 -1.0401879686267806e+07 
-4.8999999999999986e+00 -5.3633959544530607e-01 +7.3403519019545982e+00 -6.6638871768617691e-01 +3.4328923525722331e+01 +1.8380118977461598e+03 -3.2991551858878840e+05 -1.0338737869838785e+07 
-4.9999999999999982e+00 -5.3633975974012860e-01 +7.3403315392924444e+00 -6.6619807197174252e-01 +3.4392796622732988e+01 +1.8215051829334611e+03 -3.2941932418064889e+05 -1.0251304684454605e+07 
-5.0999999999999979e+00 -5.3633992090283267e-01 +7.3403092499080627e+00 -6.6586021818131846e-01 +3.4481437059683188e+01 +1.8006451612745591e+03 -3.2902751416124625e+05 -1.0141771432318939e+07 
-5.1999999999999975e+00 -5.3634007844731391e-01 +7.3402851991694966e+00 -6.6541859590067143e-01 +3.4597259681331181e+01 +1.7759955258375398e+03 -3.2876273950843146e+05 -1.0012330150656164e+07 
-5.2999999999999972e+00 -5.3634023188750024e-01 +7.3402595524536363e+00 -6.6491664437460252e-01 +3.4742679163313205e+01 +1.7481199708588777e+03 -3.2864765044640558e+05 -9.8651728677494116e+06 
-5.3999999999999968e+00 -5.3634038073732837e-01 +7.3402324751471122e+00 -6.6439780496098766e-01 +3.4920109980948034e+01 +1.7175822333327017e+03 -3.2870489625373873e+05 -9.7024917852452789e+06 
-5.4999999999999964e+00 -5.3634052451071668e-01 +7.3402041326460523e+00 -6.6390552528489433e-01 +3.5131966412068401e+01 +1.6849461765052333e+03 -3.2895712526254531e+05 -9.5264796864509061e+06 
-5.5999999999999961e+00 -5.3634066272160386e-01 +7.3401746903477552e+00 -6.6348325406409436e-01 +3.5380662806410982e+01 +1.6507756884723372e+03 -3.2942698650035908e+05 -9.3393294429760054e+06 
-5.6999999999999957e+00 -5.3634079488393549e-01 +7.3401443136665989e+00 -6.6317444327342534e-01 +3.5668613105313646e+01 +1.6156347259458032e+03 -3.3013712685451977e+05 -9.1432342296079844e+06 
-5.7999999999999954e+00 -5.3634092051165116e-01 +7.3401131680224143e+00 -6.6302255030420276e-01 +3.5998231182988924e+01 +1.5800873582991471e+03 -3.3111019306080812e+05 -8.9403877397048138e+06 
-5.8999999999999950e+00 -5.3634103911870645e-01 +7.3400814188476655e+00 -6.6307103415381774e-01 +3.6371930655087858e+01 +1.5446976852196146e+03 -3.3236883063480130e+05 -8.7329837639851552e+06 
-5.9999999999999947e+00 -5.3634115021904394e-01 +7.3400492315822419e+00 -6.6336336076485591e-01 +3.6792125005194983e+01 +1.5100299497471831e+03 -3.3393568456385448e+05 -8.5232167600769103e+06 
-6.0999999999999943e+00 -5.3634125361830853e-01 +7.3400167712262601e+00 -6.6393287703145509e-01 +3.7259977606009549e+01 +1.4765559524653418e+03 -3.3582469890076621e+05 -8.3129941355682053e+06 
-6.1999999999999940e+00 -5.3634135030206764e-01 +7.3399842100712931e+00 -6.6477060748524075e-01 +3.7771404046354888e+01 +1.4443918956030727e+03 -3.3801390709005884e+05 -8.1032470987438178e+06 
-6.2999999999999936e+00 -5.3634144155419550e-01 +7.3399517246526296e+00 -6.6585655491711160e-01 +3.8320934240645784e+01 +1.4135692494990274e+03 -3.4047201913485245e+05 -7.8947086529638423e+06 
-6.3999999999999932e+00 -5.3634152865860363e-01 +7.3399194914966666e+00 -6.6717071862265331e-01 +3.8903098215067423e+01 +1.3841194319912472e+03 -3.4316774538610160e+05 -7.6881115986530771e+06 
-6.4999999999999929e+00 -5.3634161289926097e-01 +7.3398876871269714e+00 -6.6869309125954479e-01 +3.9512425949893206e+01 +1.3560737437259013e+03 -3.4606979560942145e+05 -7.4841882163526975e+06 
-6.5999999999999925e+00 -5.3634169556015121e-01 +7.3398564880598069e+00 -6.7040366424342535e-01 +4.0143447487189334e+01 +1.3294634722659837e+03 -3.4914687956302654e+05 -7.2836707683232594e+06 
-6.6999999999999922e+00 -5.3634177792529869e-01 +7.3398260708022152e+00 -6.7228242476845046e-01 +4.0790692996762957e+01 +1.3043198354183533e+03 -3.5236770740222232e+05 -7.0872912273106361e+06 
-6.7999999999999918e+00 -5.3634186127877848e-01 +7.3397966118591773e+00 -6.7430935446593232e-01 +4.1448692542533465e+01 +1.2806739573300156e+03 -3.5570098826145951e+05 -6.8957811694645034e+06 
-6.8999999999999915e+00 -5.3634194690469794e-01 +7.3397682877233512e+00 -6.7646443136990919e-01 +4.2111976394261696e+01 +1.2585569051891382e+03 -3.5911543209596875e+05 -6.7098719493596023e+06 
-6.9999999999999911e+00 -5.3634203608721476e-01 +7.3397412748864959e+00 -6.7872762851384483e-01 +4.2775074674199672e+01 +1.2379996637187319e+03 -3.6257974758275144e+05 -6.5302945791230975e+06 
-7.0999999999999908e+00 -5.3634213011051268e-01 +7.3397157498251522e+00 -6.8107891572671864e-01 +4.3432517769533881e+01 +1.2190331670704754e+03 -3.6606264449719526e+05 -6.3577798781632269e+06 
-7.1999999999999904e+00 -5.3634223025884609e-01 +7.3396918890111253e+00 -6.8349825545192389e-01 +4.4078836030832640e+01 +1.2016882255412663e+03 -3.6953283197346033e+05 -6.1930581407435481e+06 
-7.2999999999999901e+00 -5.3634233781649354e-01 +7.3396698689100885e+00 -6.8596560722702715e-01 +4.4708559789734750e+01 +1.1859956028278045e+03 -3.7295901855674729e+05 -6.0368594832709935e+06 
-7.3999999999999897e+00 -5.3634245406780756e-01 +7.3396498659766767e+00 -6.8846092268035808e-01 +4.5316219516751126e+01 +1.1719859300928451e+03 -3.7630991315096780e+05 -5.8899134604278356e+06 
-7.4999999999999893e+00 -5.3634258029716508e-01 +7.3396320566567965e+00 -6.9096415076987427e-01 +4.5896345727056918e+01 +1.1596897993326127e+03 -3.7955422440618894e+05 -5.7529494949581856e+06 
-7.5999999999999890e+00 -5.3634271778900877e-01 +7.3396166173846673e+00 -6.9345523332482839e-01 +4.6443469068325534e+01 +1.1491376825690265e+03 -3.8266066122947133e+05 -5.6266965027640611e+06 
-7.6999999999999886e+00 -5.3634286782783014e-01 +7.3396037245904600e+00 -6.9591410652171859e-01 +4.6952120094646716e+01 +1.1403599579206082e+03 -3.8559793147205136e+05 -5.5118830142661249e+06 
-7.7999999999999883e+00 -5.3634303169818343e-01 +7.3395935546895945e+00 -6.9832069985270695e-01 +4.7416829570507289e+01 +1.1333868942017546e+03 -3.8833474366356479e+05 -5.4092371126140887e+06 
-7.8999999999999879e+00 -5.3634321068465729e-01 +7.3395862840920527e+00 -7.0065493892984276e-01 +4.7832128188943038e+01 +1.1282486974908643e+03 -3.9083980536394945e+05 -5.3194866363784811e+06 
-7.9999999999999876e+00 -5.3634340607191766e-01 +7.3395820891897561e+00 -7.0289674068995733e-01 +4.8192546941844469e+01 +1.1249754299017607e+03 -3.9308182534258533e+05 -5.2433588282963634e+06 
-8.0999999999999872e+00 -5.3634361892424243e-01 +7.3395810929780101e+00 -7.0502763180731010e-01 +4.8493722580107288e+01 +1.1235676859090340e+03 -3.9503531330212974e+05 -5.1813789308274938e+06 
-8.1999999999999869e+00 -5.3634384941423763e-01 +7.3395831896059889e+00 -7.0703400058919341e-01 +4.8735988615590998e+01 +1.1238750907236586e+03 -3.9669908182150725e+05 -5.1330841021830011e+06 
-8.2999999999999865e+00 -5.3634409748912781e-01 +7.3395882119940561e+00 -7.0890299368159848e-01 +4.8920925478409472e+01 +1.1257001075211715e+03 -3.9807832528429152e+05 -5.0977146288004303e+06 
-8.3999999999999861e+00 -5.3634436309613764e-01 +7.3395959930544095e+00 -7.1062175598092825e-01 +4.9050113804388516e+01 +1.1288451646120031e+03 -3.9917823916948872e+05 -5.0745106395676173e+06 
-8.4999999999999858e+00 -5.3634464618245237e-01 +7.3396063656959782e+00 -7.1217743412208012e-01 +4.9125134276807273e+01 +1.1331127131105864e+03 -4.0000401905924850e+05 -5.0627123604540555e+06 
-8.5999999999999854e+00 -5.3634494669525612e-01 +7.3396191628163887e+00 -7.1355717296971499e-01 +4.9147567868337774e+01 +1.1383051666024739e+03 -4.0056086206540494e+05 -5.0615598423518296e+06 
-8.6999999999999851e+00 -5.3634526458167708e-01 +7.3396342173154245e+00 -7.1474812134764054e-01 +4.9118995450467999e+01 +1.1442250053171999e+03 -4.0085396456226555e+05 -5.0702934471836891e+06 
-8.7999999999999847e+00 -5.3634559978883700e-01 +7.3396513620780581e+00 -7.1573742662561168e-01 +4.9040998284725063e+01 +1.1506746772488846e+03 -4.0088852503076702e+05 -5.0881533866730779e+06 
-8.8999999999999844e+00 -5.3634595226385418e-01 +7.3396704299898472e+00 -7.1651223333974601e-01 +4.8915157577682926e+01 +1.1574565653546213e+03 -4.0066974148113333e+05 -5.1143795499369893e+06 
-8.9999999999999840e+00 -5.3634632195377041e-01 +7.3396912539244310e+00 -7.1705969303639605e-01 +4.8743054837799846e+01 +1.1643731821926087e+03 -4.0020281350260170e+05 -5.1482124506293973e+06 
-9.0999999999999837e+00 -5.3634670880564650e-01 +7.3397136667516616e+00 -7.1736695193485289e-01 +4.8526271649532404e+01 +1.1712269277326402e+03 -3.9949294098569406e+05 -5.1888920520911822e+06 
-9.1999999999999833e+00 -5.3634711276649327e-01 +7.3397375013374591e+00 -7.1742115946837859e-01 +4.8266389667825592e+01 +1.1778202572002242e+03 -3.9854532405328768e+05 -5.2356585838550702e+06 
-9.2999999999999829e+00 -5.3634753378327704e-01 +7.3397625905328505e+00 -7.1720946726600998e-01 +4.7964990941018144e+01 +1.1839556577873723e+03 -3.9736516495312983e+05 -5.2877524200634677e+06 
-9.3999999999999826e+00 -5.3634797180296845e-01 +7.3397887671924904e+00 -7.1671902347121941e-01 +4.7623657373067239e+01 +1.1894355413582650e+03 -3.9595766493008781e+05 -5.3444135694938945e+06 
-9.4999999999999822e+00 -5.3634842677246919e-01 +7.3398158641541489e+00 -7.1593698136393868e-01 +4.7243971321132385e+01 +1.1940624080281873e+03 -3.9432802770205960e+05 -5.4048824551162813e+06 
-9.5999999999999819e+00 -5.3634889863869462e-01 +7.3398437142565882e+00 -7.1485048921827277e-01 +4.6827515068917386e+01 +1.1976386541068150e+03 -3.9248145637586107e+05 -5.4683990024804519e+06 
-9.6999999999999815e+00 -5.3634938734846904e-01 +7.3398721503241688e+00 -7.1344670331708726e-01 +4.6375871282325484e+01 +1.1999668187733123e+03 -3.9042315611894534e+05 -5.5342038113484215e+06 
-9.7999999999999812e+00 -5.3634989284863532e-01 +7.3399010051783700e+00 -7.1171277390645415e-01 +4.5890622671863355e+01 +1.2008493151293919e+03 -3.8815833218937967e+05 -5.6015368711974518e+06 
-9.8999999999999808e+00 -5.3635041508595382e-01 +7.3399301116310882e+00 -7.0963585765260362e-01 +4.5373352182335744e+01 +1.2000886668731018e+03 -3.8569219102093409e+05 -5.6696386881715963e+06 
-9.9999999999999805e+00 -5.3635095400719401e-01 +7.3399593024884169e+00 -7.0720310685726595e-01 +4.4825642910769922e+01 +1.1974873089931903e+03 -3.8302993974454486e+05 -5.7377493465865590e+06 
-1.0099999999999980e+01 -5.3635150926121022e-01 +7.3399884295820366e+00 -7.0441635018072035e-01 +4.4249501317763041e+01 +1.1930119846868254e+03 -3.8018042112439935e+05 -5.8056555394914001e+06 
