# multipoles
# s[mm] polynom_b[n=0][T/m^n] polynom_b[n=1][T/m^n] polynom_b[n=2][T/m^n] polynom_b[n=3][T/m^n] polynom_b[n=4][T/m^n] polynom_b[n=5][T/m^n] polynom_b[n=6][T/m^n] 
-0.0000000000000000e+00 -5.3709182369491903e-01 +7.3448651599328132e+00 +1.2192496026753577e-01 +1.2003664350166670e+01 -1.6032152560606952e+04 -3.4209515910323820e+05 +6.9340649318976834e+07 
-1.0000000000000001e-01 -5.3709193252416421e-01 +7.3448438647667631e+00 +1.2320025927893173e-01 +1.2489628554587016e+01 -1.6064801428913031e+04 -3.4424474364916212e+05 +6.9508018638834551e+07 
-2.0000000000000001e-01 -5.3709205108572300e-01 +7.3448245461979953e+00 +1.2443928524880525e-01 +1.2927611202395097e+01 -1.6096260388409568e+04 -3.4624470221021015e+05 +6.9669813801386356e+07 
-2.9999999999999999e-01 -5.3709217860406377e-01 +7.3448070976875028e+00 +1.2563419382893712e-01 +1.3320705336792937e+01 -1.6126488993687009e+04 -3.4810781202421017e+05 +6.9825907731159240e+07 
-4.0000000000000002e-01 -5.3709231430369553e-01 +7.3447914126951925e+00 +1.2677714360116027e-01 +1.3672004034541793e+01 -1.6155446849618878e+04 -3.4984685054114368e+05 +6.9976173581863031e+07 
-5.0000000000000000e-01 -5.3709245740907252e-01 +7.3447773846867213e+00 +1.2786029555321093e-01 +1.3984600198129037e+01 -1.6183093597111249e+04 -3.5147459419195156e+05 +7.0120484656070992e+07 
-5.9999999999999998e-01 -5.3709260714466822e-01 +7.3447649071226113e+00 +1.2887580640425592e-01 +1.4261586883260254e+01 -1.6209388791775926e+04 -3.5300382030994719e+05 +7.0258713841754064e+07 
-6.9999999999999996e-01 -5.3709276273507089e-01 +7.3447538734626807e+00 +1.2981583709477063e-01 +1.4506057169602842e+01 -1.6234292066514081e+04 -3.5444730638128921e+05 +7.0390734391433194e+07 
-8.0000000000000004e-01 -5.3709292340468973e-01 +7.3447441771722977e+00 +1.3067254530290764e-01 +1.4721103983599967e+01 -1.6257762982605171e+04 -3.5581782902256795e+05 +7.0516419193747535e+07 
-9.0000000000000002e-01 -5.3709308837806891e-01 +7.3447357117135192e+00 +1.3143809261582512e-01 +1.4909820346481750e+01 -1.6279761176475542e+04 -3.5712816539387626e+05 +7.0635641499760509e+07 
-1.0000000000000000e+00 -5.3709325687970699e-01 +7.3447283705509960e+00 +1.3210463400931621e-01 +1.5075299215320182e+01 -1.6300246151083880e+04 -3.5839109230723226e+05 +7.0748273908705071e+07 
-1.1000000000000001e+00 -5.3709342813407779e-01 +7.3447220471480907e+00 +1.3266433155553728e-01 +1.5220633598687751e+01 -1.6319177543617010e+04 -3.5961938689781609e+05 +7.0854189658538833e+07 
-1.2000000000000000e+00 -5.3709360136572681e-01 +7.3447166349701938e+00 +1.3310934242757536e-01 +1.5348916450460070e+01 -1.6336514894253391e+04 -3.6082582598420116e+05 +7.0953261518173203e+07 
-1.3000000000000000e+00 -5.3709377579908413e-01 +7.3447120274816653e+00 +1.3343182298147735e-01 +1.5463240775383234e+01 -1.6352217728117777e+04 -3.6202318672071950e+05 +7.1045362188657477e+07 
-1.3999999999999999e+00 -5.3709395065868648e-01 +7.3447081181522655e+00 +1.3362393206780315e-01 +1.5566699430115182e+01 -1.6366245613312205e+04 -3.6322424540423829e+05 +7.1130364566224754e+07 
-1.5000000000000000e+00 -5.3709412516905941e-01 +7.3447048004447772e+00 +1.3367782747255202e-01 +1.5662385493632298e+01 -1.6378558098770165e+04 -3.6444177965444128e+05 +7.1208141460618585e+07 
-1.6000000000000001e+00 -5.3709429855464896e-01 +7.3447019678300078e+00 +1.3358566315214879e-01 +1.5753391831836373e+01 -1.6389114659565468e+04 -3.6568856587938633e+05 +7.1278565330368653e+07 
-1.7000000000000000e+00 -5.3709447003992006e-01 +7.3446995137764839e+00 +1.3333959582882457e-01 +1.5842811397327070e+01 -1.6397874825143223e+04 -3.6697738102126558e+05 +7.1341508898040965e+07 
-1.8000000000000000e+00 -5.3709463884943165e-01 +7.3446973317550706e+00 +1.3293178321536325e-01 +1.5933737095923911e+01 -1.6404798142067830e+04 -3.6832100177225209e+05 +7.1396844966670170e+07 
-1.8999999999999999e+00 -5.3709480420758249e-01 +7.3446953152375638e+00 +1.3235437672149150e-01 +1.6029261829097521e+01 -1.6409844041258777e+04 -3.6973220482460887e+05 +7.1444445800440654e+07 
-2.0000000000000000e+00 -5.3709496533889189e-01 +7.3446933576946849e+00 +1.3159952910515843e-01 +1.6132478553413730e+01 -1.6412971980393369e+04 -3.7122376722458273e+05 +7.1484183797278836e+07 
-2.1000000000000001e+00 -5.3709512173699991e-01 +7.3446913554602204e+00 +1.3065775893028125e-01 +1.6245932901407535e+01 -1.6414056914368699e+04 -3.7280461912617204e+05 +7.1515531930903003e+07 
-2.2000000000000002e+00 -5.3709527392397993e-01 +7.3446892206232102e+00 +1.2951360278488874e-01 +1.6370021461870795e+01 -1.6412650403690586e+04 -3.7446887929447077e+05 +7.1536419909341529e+07 
-2.2999999999999998e+00 -5.3709542266749399e-01 +7.3446868701983226e+00 +1.2815023672992512e-01 +1.6504613086603353e+01 -1.6408226788430587e+04 -3.7620709779240482e+05 +7.1544405566002473e+07 
-2.3999999999999999e+00 -5.3709556873528752e-01 +7.3446842212034520e+00 +1.2655083817734752e-01 +1.6649576498501748e+01 -1.6400260441011716e+04 -3.7800982388148783e+05 +7.1537046898377150e+07 
-2.5000000000000000e+00 -5.3709571289498226e-01 +7.3446811906590366e+00 +1.2469857972704836e-01 +1.6804780299543964e+01 -1.6388225648198302e+04 -3.7986760604644631e+05 +7.1511901502127141e+07 
-2.6000000000000001e+00 -5.3709585591426845e-01 +7.3446776955847604e+00 +1.2257663979126907e-01 +1.6970093062646388e+01 -1.6371596811253035e+04 -3.8177099252199876e+05 +7.1466527519402012e+07 
-2.7000000000000002e+00 -5.3709599856081247e-01 +7.3446736530051382e+00 +1.2016819519486682e-01 +1.7145383169652860e+01 -1.6349848312439855e+04 -3.8371053035671654e+05 +7.1398483020232901e+07 
-2.7999999999999998e+00 -5.3709614160227204e-01 +7.3446689799471736e+00 +1.1745642190872471e-01 +1.7330518860846418e+01 -1.6322454519579880e+04 -3.8567676566108258e+05 +7.1305325998372778e+07 
-2.8999999999999999e+00 -5.3709628580631119e-01 +7.3446635934353308e+00 +1.1442449861953741e-01 +1.7525368397656877e+01 -1.6288889866645104e+04 -3.8766024460082740e+05 +7.1184614788202837e+07 
-3.0000000000000000e+00 -5.3709643194059697e-01 +7.3446574105039781e+00 +1.1105560498261059e-01 +1.7729799663088727e+01 -1.6248628810890468e+04 -3.8965151098189928e+05 +7.1033907833407268e+07 
-3.1000000000000001e+00 -5.3709658077278244e-01 +7.3446503481868097e+00 +1.0733292011715270e-01 +1.7943680505302435e+01 -1.6201145808953483e+04 -3.9164110834739037e+05 +7.0850763585542575e+07 
-3.2000000000000002e+00 -5.3709673307051409e-01 +7.3446423235178244e+00 +1.0323962384523158e-01 +1.8166878659480439e+01 -1.6145915342679835e+04 -3.9361957939897513e+05 +7.0632740631230086e+07 
-3.2999999999999998e+00 -5.3709688960144852e-01 +7.3446332535369603e+00 +9.8758898694257871e-02 +1.8399261613141448e+01 -1.6082411955703339e+04 -3.9557746529441420e+05 +7.0377397860925183e+07 
-3.3999999999999999e+00 -5.3709705113323503e-01 +7.3446230552877942e+00 +9.3873927757423661e-02 +1.8640696652923779e+01 -1.6010110214020551e+04 -3.9750530588117323e+05 +7.0082294284331709e+07 
-3.5000000000000000e+00 -5.3709721843350722e-01 +7.3446116458118968e+00 +8.8567893500372197e-02 +1.8891051022840539e+01 -1.5928484682913175e+04 -3.9939364059334673e+05 +6.9744988919179857e+07 
-3.6000000000000001e+00 -5.3709739226992870e-01 +7.3445989421612694e+00 +8.2823980721166493e-02 +1.9150191561018470e+01 -1.5837009985554376e+04 -4.0123300635552936e+05 +6.9363041073056221e+07 
-3.7000000000000002e+00 -5.3709757341009412e-01 +7.3445848613851616e+00 +7.6625377177285264e-02 +1.9417985072903246e+01 -1.5735160814359928e+04 -4.0301393971917004e+05 +6.8934010396976188e+07 
-3.7999999999999998e+00 -5.3709776262165188e-01 +7.3445693205388718e+00 +6.9955269093504094e-02 +1.9694298076926888e+01 -1.5622411846732291e+04 -4.0472697540424892e+05 +6.8455456486467376e+07 
-3.8999999999999999e+00 -5.3709796067225712e-01 +7.3445522366820502e+00 +6.2796845698379178e-02 +1.9978996842661203e+01 -1.5498237831724467e+04 -4.0636264649111306e+05 +6.7924939291185766e+07 
-4.0000000000000000e+00 -5.3709816832948787e-01 +7.3445335268810972e+00 +5.5133300237280566e-02 +2.0271947436566748e+01 -1.5362113607054223e+04 -4.0791148512559588e+05 +6.7340019168622732e+07 
-4.0999999999999996e+00 -5.3709838619312600e-01 +7.3445131757144440e+00 +4.6964417192894049e-02 +2.0572341361664961e+01 -1.5213872156998041e+04 -4.0936379329722741e+05 +6.6699823142689094e+07 
-4.2000000000000002e+00 -5.3709861424954897e-01 +7.3444913987908640e+00 +3.8348218452291361e-02 +2.0877136395909787e+01 -1.5054623071538294e+04 -4.1070949851017719e+05 +6.6009122373928286e+07 
-4.2999999999999998e+00 -5.3709885234526278e-01 +7.3444684609327080e+00 +2.9355505555853454e-02 +2.1182834464984278e+01 -1.4885760556651539e+04 -4.1193856662261958e+05 +6.5273959659290969e+07 
-4.4000000000000004e+00 -5.3709910032668995e-01 +7.3444446269519368e+00 +2.0057081876103399e-02 +2.1485937845664907e+01 -1.4708678846639978e+04 -4.1304096553990373e+05 +6.4500377920363970e+07 
-4.5000000000000000e+00 -5.3709935804038977e-01 +7.3444201616546811e+00 +1.0523752227111620e-02 +2.1782949022004843e+01 -1.4524772190233134e+04 -4.1400666433640057e+05 +6.3694420122063465e+07 
-4.5999999999999996e+00 -5.3709962533284505e-01 +7.3443953298365434e+00 +8.2632369972947977e-04 +2.2070370843435310e+01 -1.4335434870901609e+04 -4.1482563422300090e+05 +6.2862129381675810e+07 
-4.7000000000000002e+00 -5.3709990205067870e-01 +7.3443703962873084e+00 -8.9643938397612425e-03 +2.2344706381491608e+01 -1.4142061216595470e+04 -4.1548784768496884e+05 +6.2009549016246319e+07 
-4.7999999999999998e+00 -5.3710018804041615e-01 +7.3443456257847028e+00 -1.8777591813756191e-02 +2.2602459126166952e+01 -1.3946045516496579e+04 -4.1598327965882659e+05 +6.1142722132178396e+07 
-4.9000000000000004e+00 -5.3710048314876757e-01 +7.3443212830955424e+00 -2.8542453566836073e-02 +2.2840132950939513e+01 -1.3748782202855087e+04 -4.1630190730420506e+05 +6.0267692500695683e+07 
-5.0000000000000000e+00 -5.3710078722231258e-01 +7.3442976329805436e+00 -3.8188168183863315e-02 +2.3054231976846726e+01 -1.3551665584155748e+04 -4.1643370922814065e+05 +5.9390503280414566e+07 
-5.0999999999999996e+00 -5.3710110010782153e-01 +7.3442749401835803e+00 -4.7643916147015346e-02 +2.3241260897109250e+01 -1.3356090119333159e+04 -4.1636866738060612e+05 +5.8517198324026562e+07 
-5.2000000000000002e+00 -5.3710142165200081e-01 +7.3442534694406545e+00 -5.6838878739055493e-02 +2.3397724714476396e+01 -1.3163450236059010e+04 -4.1609676552502211e+05 +5.7653821309101149e+07 
-5.2999999999999998e+00 -5.3710175170161789e-01 +7.3442334854753097e+00 -6.5702235184300739e-02 +2.3520128879919831e+01 -1.2975140387847272e+04 -4.1560799003870512e+05 +5.6806416016792402e+07 
-5.4000000000000004e+00 -5.3710209010349574e-01 +7.3442152529972757e+00 -7.4163160516707946e-02 +2.3604979343768409e+01 -1.2792555090946860e+04 -4.1489233024175535e+05 +5.5981026499454975e+07 
-5.5000000000000000e+00 -5.3710243670446645e-01 +7.3441990367039622e+00 -8.2150828681338411e-02 +2.3648782512249930e+01 -1.2617088862844721e+04 -4.1393977812217554e+05 +5.5183696782804757e+07 
-5.5999999999999996e+00 -5.3710279135146732e-01 +7.3441851012761505e+00 -8.9594412914310709e-02 +2.3648045378926167e+01 -1.2450136218136151e+04 -4.1274032911662973e+05 +5.4420470853536643e+07 
-5.7000000000000002e+00 -5.3710315389142849e-01 +7.3441737113851238e+00 -9.6423080652899021e-02 +2.3599275321768062e+01 -1.2293091763513083e+04 -4.1128398092492961e+05 +5.3697393109856740e+07 
-5.7999999999999998e+00 -5.3710352417134422e-01 +7.3441651316852203e+00 -1.0256599773343290e-01 +2.3498980322810269e+01 -1.2147350115796473e+04 -4.0956073479284748e+05 +5.3020507964638792e+07 
-5.9000000000000004e+00 -5.3710390203824243e-01 +7.3441596268141955e+00 -1.0795232934032749e-01 +2.3343668966332821e+01 -1.2014305883760271e+04 -4.0756059550796595e+05 +5.2395859761240110e+07 
-5.9999999999999902e+00 -5.3710428733921922e-01 +7.3441574613757528e+00 -1.1251123905326403e-01 +2.3129850642569171e+01 -1.1895353700265805e+04 -4.0527357203853963e+05 +5.1829492971663997e+07 
-6.0999999999999899e+00 -5.3710467979584342e-01 +7.3441587974579248e+00 -1.1619827903317639e-01 +2.2855801560139465e+01 -1.1791448762565589e+04 -4.0269805878535699e+05 +5.1325629667733409e+07 
-6.1999999999999904e+00 -5.3710507868190904e-01 +7.3441634542466527e+00 -1.1905871581152402e-01 +2.2525816265646366e+01 -1.1702048491244657e+04 -3.9986163701513014e+05 +5.0882291325559996e+07 
-6.2999999999999901e+00 -5.3710548317133755e-01 +7.3441711793296180e+00 -1.2115690423772851e-01 +2.2145469365169088e+01 -1.1626290894929414e+04 -3.9679823931420920e+05 +5.0496180345557898e+07 
-6.3999999999999897e+00 -5.3710589243800244e-01 +7.3441817202966941e+00 -1.2255720456123470e-01 +2.1720335508881625e+01 -1.1563313879244075e+04 -3.9354179883372114e+05 +5.0163998653627813e+07 
-6.4999999999999902e+00 -5.3710630565571693e-01 +7.3441948247538713e+00 -1.2332398463434904e-01 +2.1255988999802828e+01 -1.1512255196271637e+04 -3.9012624705747119e+05 +4.9882447436864190e+07 
-6.5999999999999899e+00 -5.3710672199827114e-01 +7.3442102403165315e+00 -1.2352161499361689e-01 +2.0758003972180028e+01 -1.1472252545034289e+04 -3.8658551479189814e+05 +4.9648227643128924e+07 
-6.6999999999999904e+00 -5.3710714063938625e-01 +7.3442277146096702e+00 -1.2321447389768612e-01 +2.0231954408671196e+01 -1.1442443473913743e+04 -3.8295353234080551e+05 +4.9458039510145187e+07 
-6.7999999999999901e+00 -5.3710756075277921e-01 +7.3442469952720346e+00 -1.2246694365285593e-01 +1.9683414013356401e+01 -1.1421965448046527e+04 -3.7926422874205478e+05 +4.9308582881324112e+07 
-6.8999999999999897e+00 -5.3710798151199701e-01 +7.3442678299575377e+00 -1.2134341710355230e-01 +1.9117956180432483e+01 -1.1409955729020716e+04 -3.7555153162364918e+05 +4.9196556641583823e+07 
-6.9999999999999902e+00 -5.3710840209063748e-01 +7.3442899663315657e+00 -1.1990829037406918e-01 +1.8541154100980190e+01 -1.1405551510886662e+04 -3.7184936782365415e+05 +4.9118659361063980e+07 
-7.0999999999999899e+00 -5.3710882166219709e-01 +7.3443131520710052e+00 -1.1822596817036291e-01 +1.7958580766134510e+01 -1.1407889822230536e+04 -3.6819166341950290e+05 +4.9071588836035311e+07 
-7.1999999999999904e+00 -5.3710923940012945e-01 +7.3443371348714281e+00 -1.1636086033230285e-01 +1.7375808764901866e+01 -1.1416107585731936e+04 -3.6461234257717844e+05 +4.9052042355849251e+07 
-7.2999999999999901e+00 -5.3710965447782932e-01 +7.3443616624417949e+00 -1.1437738687780918e-01 +1.6798410438268714e+01 -1.1429341527564578e+04 -3.6114532845051464e+05 +4.9056716289983675e+07 
-7.3999999999999897e+00 -5.3711006606856360e-01 +7.3443864825035252e+00 -1.1233997282605199e-01 +1.6231957909043295e+01 -1.1446728276692791e+04 -3.5782454336443124e+05 +4.9082306561075263e+07 
-7.4999999999999902e+00 -5.3711047334562612e-01 +7.3444113428008846e+00 -1.1031305305487969e-01 +1.5682022793513763e+01 -1.1467404264677267e+04 -3.5468390717880492e+05 +4.9125508147235423e+07 
-7.5999999999999899e+00 -5.3711087548213543e-01 +7.3444359910882024e+00 -1.0836106947605878e-01 +1.5154176567172241e+01 -1.1490505791116595e+04 -3.5175733940590167e+05 +4.9183015425608873e+07 
-7.6999999999999904e+00 -5.3711127165121919e-01 +7.3444601751392247e+00 -1.0654847318918206e-01 +1.4653990292989864e+01 -1.1515168969668593e+04 -3.4907875762424903e+05 +4.9251521883534409e+07 
-7.7999999999999901e+00 -5.3711166102590246e-01 +7.3444836427475124e+00 -1.0493972321783930e-01 +1.4187034624216787e+01 -1.1540529764115161e+04 -3.4668207754648040e+05 +4.9327720320488706e+07 
-7.8999999999999897e+00 -5.3711204277915992e-01 +7.3445061417234658e+00 -1.0359928786777003e-01 +1.3758879891244719e+01 -1.1565723954137417e+04 -3.4460121352904354e+05 +4.9408302663993761e+07 
-7.9999999999999902e+00 -5.3711241608384752e-01 +7.3445274199117163e+00 -1.0259164419860745e-01 +1.3375095658311706e+01 -1.1589887130802246e+04 -3.4287007382813748e+05 +4.9489960114531502e+07 
-8.0999999999999908e+00 -5.3711278038424670e-01 +7.3445473069895026e+00 -1.0196647263955823e-01 +1.3039052196356829e+01 -1.1612301317991603e+04 -3.4150785614408564e+05 +4.9569893043542504e+07 
-8.1999999999999904e+00 -5.3711313605781286e-01 +7.3445659095720082e+00 -1.0172309711691754e-01 +1.2746533056565751e+01 -1.1632736677412799e+04 -3.4048377109034569e+05 +4.9646837488323160e+07 
-8.2999999999999901e+00 -5.3711348368210110e-01 +7.3445833929846884e+00 -1.0185016303120906e-01 +1.2491679086237825e+01 -1.1651064102355225e+04 -3.3975632375942828e+05 +4.9719811268217236e+07 
-8.3999999999999897e+00 -5.3711382383466133e-01 +7.3445999225489365e+00 -1.0233630460761377e-01 +1.2268631100964585e+01 -1.1667154713388849e+04 -3.3928401874365273e+05 +4.9787833284785993e+07 
-8.4999999999999893e+00 -5.3711415709320998e-01 +7.3446156635776569e+00 -1.0317014773809129e-01 +1.2071530008634150e+01 -1.1680879797007581e+04 -3.3902536084167514e+05 +4.9849923209366210e+07 
-8.5999999999999908e+00 -5.3711448403541062e-01 +7.3446307813848657e+00 -1.0434030985576237e-01 +1.1894516514959712e+01 -1.1692110813598758e+04 -3.3893885331682710e+05 +4.9905101532401770e+07 
-8.6999999999999904e+00 -5.3711480523909283e-01 +7.3446454412786935e+00 -1.0583539996401652e-01 +1.1731731330707271e+01 -1.1700719393059218e+04 -3.3898299910503707e+05 +4.9952389532971531e+07 
-8.7999999999999794e+00 -5.3711512128210004e-01 +7.3446598085621382e+00 -1.0764401400082253e-01 +1.1577315134967687e+01 -1.1706577425728363e+04 -3.3911630057338119e+05 +4.9990809717823863e+07 
-8.8999999999999808e+00 -5.3711543274229268e-01 +7.3446740485351087e+00 -1.0975474369213913e-01 +1.1425408518437656e+01 -1.1709556895674030e+04 -3.3929725919702993e+05 +5.0019385027924083e+07 
-8.9999999999999805e+00 -5.3711574019770880e-01 +7.3446883264934462e+00 -1.1215616773788679e-01 +1.1270152002295854e+01 -1.1709530045211506e+04 -3.3948437564467901e+05 +5.0037139615029112e+07 
-9.0999999999999801e+00 -5.3711604422638759e-01 +7.3447028077235910e+00 -1.1483685279772879e-01 +1.1105686182940305e+01 -1.1706369360124163e+04 -3.3963615060137591e+05 +5.0043098779953055e+07 
-9.1999999999999797e+00 -5.3711634540642805e-01 +7.3447176575127351e+00 -1.1778535681616042e-01 +1.0926151437227565e+01 -1.1699947502162384e+04 -3.3971108305317629e+05 +5.0036288636696480e+07 
-9.2999999999999794e+00 -5.3711664431607542e-01 +7.3447330411379124e+00 -1.2099022740763153e-01 +1.0725688223867280e+01 -1.1690137346001842e+04 -3.3966767200196336e+05 +5.0015736305572212e+07 
-9.3999999999999808e+00 -5.3711694153360123e-01 +7.3447491238749576e+00 -1.2443999746369074e-01 +1.0498436831330762e+01 -1.1676812059722348e+04 -3.3946441502920265e+05 +4.9980470286038034e+07 
-9.4999999999999805e+00 -5.3711723763732933e-01 +7.3447660709905325e+00 -1.2812319185263185e-01 +1.0238537591999998e+01 -1.1659844976352177e+04 -3.3905980949343072e+05 +4.9929519841061182e+07 
-9.5999999999999801e+00 -5.3711753320572897e-01 +7.3447840477477948e+00 -1.3202832463863218e-01 +9.9401307164400308e+00 -1.1639109653793179e+04 -3.3841235156520311e+05 +4.9861915298409730e+07 
-9.6999999999999797e+00 -5.3711782881729864e-01 +7.3448032194026736e+00 -1.3614389212950864e-01 +9.5973563924304166e+00 -1.1614479998436393e+04 -3.3748053678576340e+05 +4.9776688618107848e+07 
-9.7999999999999794e+00 -5.3711812505068801e-01 +7.3448237512054035e+00 -1.4045838277067513e-01 +9.2043547363919185e+00 -1.1585830082303157e+04 -3.3622285977700789e+05 +4.9672872530878380e+07 
-9.8999999999999808e+00 -5.3711842248456443e-01 +7.3448458083976691e+00 -1.4496027059929117e-01 +8.7552658689196701e+00 -1.1553034270780519e+04 -3.3459781465912779e+05 +4.9549501155784115e+07 
-9.9999999999999805e+00 -5.3711872169781227e-01 +7.3448695561860342e+00 -1.4963801342822114e-01 +8.2442305875489232e+00 -1.1515967228153433e+04 -3.3256390196761274e+05 +4.9405609683029033e+07 
-1.0100000000000000e+01 -5.3711902338908013e-01 +7.3448950874722581e+00 -1.5447496970008545e-01 +7.6675047583358467e+00 -1.1474632584402527e+04 -3.3009341590934369e+05 +4.9240842365835756e+07 
