# multipoles
# s[mm] polynom_b[n=0][T/m^n] polynom_b[n=1][T/m^n] polynom_b[n=2][T/m^n] polynom_b[n=3][T/m^n] polynom_b[n=4][T/m^n] polynom_b[n=5][T/m^n] polynom_b[n=6][T/m^n] 
+0.0000000000000000e+00 -5.6654883506140663e-01 +7.7328786855219391e+00 -7.1846191019905226e-01 -1.0813354876818423e+01 +5.2310921407105952e+03 -1.3154995063879676e+05 -2.4240266811728664e+07 
-1.0000000000000001e-01 -5.6654891656304240e-01 +7.7328845443557990e+00 -7.2432689440637787e-01 -1.0628935206184888e+01 +5.3149164942935431e+03 -1.3321130609869634e+05 -2.4539633141583696e+07 
-2.0000000000000001e-01 -5.6654900618504189e-01 +7.7328864980226832e+00 -7.3028168050384101e-01 -1.0334637598453989e+01 +5.4040231260385935e+03 -1.3555512365745078e+05 -2.4872594917976312e+07 
-3.0000000000000004e-01 -5.6654910398292602e-01 +7.7328847099548810e+00 -7.3627170568347899e-01 -9.9380124382249484e+00 +5.4972126391490765e+03 -1.3852721303403599e+05 -2.5233227387438156e+07 
-4.0000000000000002e-01 -5.6654921001219394e-01 +7.7328793435813497e+00 -7.4224240980308942e-01 -9.4466100480389024e+00 +5.5932856893793005e+03 -1.4207338415669085e+05 -2.5615606047733463e+07 
-5.0000000000000000e-01 -5.6654932432831484e-01 +7.7328705623324883e+00 -7.4813923591889542e-01 -8.8679808257773480e+00 +5.6910429890548230e+03 -1.4613944636397425e+05 -2.6013806649642758e+07 
-5.9999999999999998e-01 -5.6654944698674781e-01 +7.7328585296322476e+00 -7.5390762892275609e-01 -8.2096749925081678e+00 +5.7892852899958352e+03 -1.5067120994361976e+05 -2.6421905142682478e+07 
-6.9999999999999996e-01 -5.6654957804296169e-01 +7.7328434089082183e+00 -7.5949303098476617e-01 -7.4792428914462263e+00 +5.8868132838694801e+03 -1.5561448437952003e+05 -2.6833977169041481e+07 
-7.9999999999999993e-01 -5.6654971755237660e-01 +7.7328253635818189e+00 -7.6484089122522425e-01 -6.6842347063673904e+00 +5.9824278000201575e+03 -1.6091507999028714e+05 -2.7244099041199453e+07 
-8.9999999999999991e-01 -5.6654986557044307e-01 +7.7328045570744566e+00 -7.6989665307400257e-01 -5.8322006179304084e+00 +6.0749295473082284e+03 -1.6651880708378914e+05 -2.7646346469512288e+07 
-9.9999999999999989e-01 -5.6655002215257666e-01 +7.7327811528018433e+00 -7.7460576454933905e-01 -4.9306906457071076e+00 +6.1631193250549413e+03 -1.7237147686399514e+05 -2.8034795610359952e+07 
-1.0999999999999999e+00 -5.6655018735419593e-01 +7.7327553141816976e+00 -7.7891367225391439e-01 -3.9872548564709276e+00 +6.2457978995840067e+03 -1.7841890026693599e+05 -2.8403522453293063e+07 
-1.2000000000000000e+00 -5.6655036123072733e-01 +7.7327272046234112e+00 -7.8276582097584047e-01 -3.0094430786831672e+00 +6.3217659972816746e+03 -1.8460688958125812e+05 -2.8746602793086685e+07 
-1.3000000000000000e+00 -5.6655054383760517e-01 +7.7326969875353448e+00 -7.8610765351856071e-01 -2.0048050865026030e+00 +6.3898243012565608e+03 -1.9088125747020589e+05 -2.9058112214405123e+07 
-1.4000000000000001e+00 -5.6655073523023358e-01 +7.7326648263232380e+00 -7.8888461554763745e-01 -9.8089056361157934e-01 +6.4487735438951668e+03 -1.9718781715091283e+05 -2.9332126536492370e+07 
-1.5000000000000002e+00 -5.6655093546406732e-01 +7.7326308843870315e+00 -7.9104214525704264e-01 +5.4750999543749901e-02 +6.4974143091233054e+03 -2.0347238302813814e+05 -2.9562720869395323e+07 
-1.6000000000000003e+00 -5.6655114459452638e-01 +7.7325953251218751e+00 -7.9252568396037548e-01 +1.0945702794025143e+00 +6.5345472325581286e+03 -2.0968077055711360e+05 -2.9743970566085372e+07 
-1.7000000000000004e+00 -5.6655136267707185e-01 +7.7325583119233370e+00 -7.9328066626022675e-01 +2.1310179800645583e+00 +6.5589728135533878e+03 -2.1575879547324422e+05 -2.9869950326265119e+07 
-1.8000000000000005e+00 -5.6655158976717546e-01 +7.7325200081781187e+00 -7.9325252465093810e-01 +3.1565450913639128e+00 +6.5694915056395930e+03 -2.2165227525989251e+05 -2.9934734635892987e+07 
-1.9000000000000006e+00 -5.6655182592030273e-01 +7.7324805772663296e+00 -7.9238669020714081e-01 +4.1636028462210977e+00 +6.5649037234153475e+03 -2.2730702897799824e+05 -2.9932397787478272e+07 
-2.0000000000000004e+00 -5.6655207119195672e-01 +7.7324401825678359e+00 -7.9062858810869452e-01 +5.1446425291373021e+00 +6.5440097622275307e+03 -2.3266887612762171e+05 -2.9857013510405388e+07 
-2.1000000000000005e+00 -5.6655232562060420e-01 +7.7323990217447500e+00 -7.8794310865274997e-01 +6.0927527166720781e+00 +6.5060124837760504e+03 -2.3769163187026652e+05 -2.9704562855548687e+07 
-2.2000000000000006e+00 -5.6655258916905149e-01 +7.7323574362345164e+00 -7.8437455164341097e-01 +7.0034201601420731e+00 +6.4517383529759763e+03 -2.4236038163621456e+05 -2.9478656307549916e+07 
-2.3000000000000007e+00 -5.6655286177931885e-01 +7.7323158050553520e+00 -7.7998746065843771e-01 +7.8726953016717651e+00 +6.3824231647818679e+03 -2.4666786520457393e+05 -2.9184812197199333e+07 
-2.4000000000000008e+00 -5.6655314339345619e-01 +7.7322745072351120e+00 -7.7484637683170277e-01 +8.6966282914897270e+00 +6.2993026741334252e+03 -2.5060682068139233e+05 -2.8828548678898703e+07 
-2.5000000000000009e+00 -5.6655343395352276e-01 +7.7322339217943838e+00 -7.6901584069072848e-01 +9.4712694795761454e+00 +6.2036126289196791e+03 -2.5416998734532861e+05 -2.8415383883596193e+07 
-2.6000000000000010e+00 -5.6655373340161974e-01 +7.7321944277610442e+00 -7.6256038983967256e-01 +1.0192668989401954e+01 +6.0965887349997356e+03 -2.5735010317711058e+05 -2.7950835771814901e+07 
-2.7000000000000011e+00 -5.6655404167988010e-01 +7.7321564041590136e+00 -7.5554455941204590e-01 +1.0856877044169773e+01 +5.9794666604063468e+03 -2.6013990675693360e+05 -2.7440422143196139e+07 
-2.8000000000000012e+00 -5.6655435873046256e-01 +7.7321202300164398e+00 -7.4803288308352367e-01 +1.1459943713279669e+01 +5.8534820561253800e+03 -2.6253213575271796e+05 -2.6889660736712776e+07 
-2.9000000000000012e+00 -5.6655468449555968e-01 +7.7320862843666198e+00 -7.4008989270017200e-01 +1.1997918903388076e+01 +5.7198705530300831e+03 -2.6451952692410932e+05 -2.6304069225290470e+07 
-3.0000000000000013e+00 -5.6655501891737570e-01 +7.7320549462396606e+00 -7.3178012043007779e-01 +1.2466852587223709e+01 +5.5798677979876802e+03 -2.6609481741692958e+05 -2.5689165373102427e+07 
-3.1000000000000014e+00 -5.6655536193820688e-01 +7.7320265946725844e+00 -7.2316809040537178e-01 +1.2862794498808194e+01 +5.4347093073341848e+03 -2.6725074297060835e+05 -2.5050466370894697e+07 
-3.2000000000000015e+00 -5.6655571350033895e-01 +7.7320016087014816e+00 -7.1431832996773603e-01 +1.3181794380884661e+01 +5.2856306676782842e+03 -2.6798003941670497e+05 -2.4393489753497560e+07 
-3.3000000000000016e+00 -5.6655607354611848e-01 +7.7319803673749048e+00 -7.0529536250843716e-01 +1.3419901562675451e+01 +5.1338674152849790e+03 -2.6827544012893667e+05 -2.3723752868437622e+07 
-3.4000000000000017e+00 -5.6655644201793587e-01 +7.7319632497364728e+00 -6.9616370866890831e-01 +1.3573165488368968e+01 +4.9806550480895175e+03 -2.6812967917400866e+05 -2.3046772900013007e+07 
-3.5000000000000018e+00 -5.6655681885820963e-01 +7.7319506348384293e+00 -6.8698788918677434e-01 +1.3637635317007993e+01 +4.8272290885684506e+03 -2.6753548897594097e+05 -2.2368067191896886e+07 
-3.6000000000000019e+00 -5.6655720400943355e-01 +7.7319429017372299e+00 -6.7783241908660663e-01 +1.3609360031731875e+01 +4.6748249722178925e+03 -2.6648560089168540e+05 -2.1693152711749766e+07 
-3.7000000000000020e+00 -5.6655759741412592e-01 +7.7319404294959320e+00 -6.6876181396079359e-01 +1.3484388381211907e+01 +4.5246781682161045e+03 -2.6497274491977599e+05 -2.1027546627631284e+07 
-3.8000000000000020e+00 -5.6655799901486970e-01 +7.7319435971812132e+00 -6.5984058553221159e-01 +1.3258768960922344e+01 +4.3780240965333132e+03 -2.6298965015332476e+05 -2.0376765915455803e+07 
-3.9000000000000021e+00 -5.6655840875429575e-01 +7.7319527838666193e+00 -6.5113324368166270e-01 +1.2928550116394437e+01 +4.2360981667254891e+03 -2.6052904422092214e+05 -1.9746327542133804e+07 
-4.0000000000000018e+00 -5.6655882657508028e-01 +7.7319683686328773e+00 -6.4270429699816856e-01 +1.2489779921033112e+01 +4.1001357903197568e+03 -2.5758365314405595e+05 -1.9141748531089637e+07 
-4.1000000000000014e+00 -5.6655925231788784e-01 +7.7319905571437824e+00 -6.3460719019321210e-01 +1.1941363090794818e+01 +3.9711414005481374e+03 -2.5415853528701217e+05 -1.8567563055911466e+07 
-4.2000000000000011e+00 -5.6655968540609725e-01 +7.7320188513147654e+00 -6.2684765366255435e-01 +1.1293760302931148e+01 +3.8491434085448404e+03 -2.5030818476355981e+05 -1.8024166686477792e+07 
-4.3000000000000007e+00 -5.6656012515650378e-01 +7.7320525745039248e+00 -6.1941860290994621e-01 +1.0560353088961822e+01 +3.7339129003299431e+03 -2.4609947497133451e+05 -1.7510868003018204e+07 
-4.4000000000000004e+00 -5.6656057088585543e-01 +7.7320910500678410e+00 -6.1231295690546750e-01 +9.7545230548230251e+00 +3.6252210111865124e+03 -2.4159927963408610e+05 -1.7026975767491046e+07 
-4.5000000000000000e+00 -5.6656102191082480e-01 +7.7321336013584281e+00 -6.0552364264909775e-01 +8.8896519790284980e+00 +3.5228390188202229e+03 -2.3687447336036223e+05 -1.6571799384025600e+07 
-4.5999999999999996e+00 -5.6656147754803732e-01 +7.7321795517322371e+00 -5.9904359041953370e-01 +7.9791215545165164e+00 +3.4265382439005707e+03 -2.3199193017153352e+05 -1.6144648400537753e+07 
-4.6999999999999993e+00 -5.6656193711398473e-01 +7.7322282245417657e+00 -5.9286574467946074e-01 +7.0363136380725813e+00 +3.3360902592514844e+03 -2.2701852493084603e+05 -1.5744833509662647e+07 
-4.7999999999999989e+00 -5.6656239992514101e-01 +7.7322789431415258e+00 -5.8698304950912239e-01 +6.0746100787845299e+00 +3.2512666107789569e+03 -2.2202113233882529e+05 -1.5371665213309992e+07 
-4.8999999999999986e+00 -5.6656286529786848e-01 +7.7323310308800357e+00 -5.8138846022853696e-01 +5.1073929484317242e+00 +3.1718390398955285e+03 -2.1706662825210689e+05 -1.5024454887653150e+07 
-4.9999999999999982e+00 -5.6656333254843549e-01 +7.7323838111087699e+00 -5.7607494092888090e-01 +4.1480442968676074e+00 +3.0975794332690402e+03 -2.1222188829890906e+05 -1.4702514532003373e+07 
-5.0999999999999979e+00 -5.6656380099301362e-01 +7.7324366071762478e+00 -5.7103546414554374e-01 +3.2099463127065246e+00 +3.0282598120182415e+03 -2.0755378875416637e+05 -1.4405156706858711e+07 
-5.1999999999999975e+00 -5.6656426994767295e-01 +7.7324887424312614e+00 -5.6626301205444662e-01 +2.3064812343759775e+00 +2.9636523582591494e+03 -2.0312920603252604e+05 -1.4131694668556184e+07 
-5.2999999999999972e+00 -5.6656473872838420e-01 +7.7325395402210457e+00 -5.6175057564215247e-01 +1.4510314204669867e+00 +2.9035293977932811e+03 -1.9901501713280036e+05 -1.3881442284934739e+07 
-5.3999999999999968e+00 -5.6656520665101395e-01 +7.7325883238888524e+00 -5.5749115533134874e-01 +6.5697940725056281e-01 +2.8476634099700027e+03 -1.9527809990759369e+05 -1.3653714074359808e+07 
-5.4999999999999964e+00 -5.6656567303129290e-01 +7.7326344167780716e+00 -5.5347776362863477e-01 -6.2292201811406218e-02 +2.7958270690861955e+03 -1.9198533244727689e+05 -1.3447825380345281e+07 
-5.5999999999999961e+00 -5.6656613718484650e-01 +7.7326771422311831e+00 -5.4970342319220367e-01 -6.9340070559194500e-01 +2.7477932217731072e+03 -1.8920359323422040e+05 -1.3263092300151682e+07 
-5.6999999999999957e+00 -5.6656659842716617e-01 +7.7327158235858358e+00 -5.4616116836309181e-01 -1.2229631765947890e+00 +2.7033349005191903e+03 -1.8699976192551816e+05 -1.3098831707726782e+07 
-5.7999999999999954e+00 -5.6656705607361402e-01 +7.7327497841827855e+00 -5.4284404547619047e-01 -1.6375967113695165e+00 +2.6622253384096589e+03 -1.8544071781409261e+05 -1.2954361348721247e+07 
-5.8999999999999950e+00 -5.6656750943943923e-01 +7.7327783473574483e+00 -5.3974510982542490e-01 -1.9239181574258186e+00 +2.6242379012545957e+03 -1.8459334150253440e+05 -1.2828999487271722e+07 
-5.9999999999999947e+00 -5.6656795783970160e-01 +7.7328008364449552e+00 -5.3685743561097443e-01 -2.0685442906845752e+00 +2.5891462794939853e+03 -1.8452451366402657e+05 -1.2722065820019251e+07 
-6.0999999999999943e+00 -5.6656840067090619e-01 +7.7328167553337952e+00 -5.3417729863761743e-01 -2.0624077254418300e+00 +2.5567496847597426e+03 -1.8527677086338672e+05 -1.2632692857301390e+07 
-6.1999999999999940e+00 -5.6656883769405308e-01 +7.7328263322629089e+00 -5.3171568439907124e-01 -1.9134791710181458e+00 +2.5270135516720707e+03 -1.8679792321509850e+05 -1.2559695657837629e+07 
-6.2999999999999936e+00 -5.6656926877069336e-01 +7.7328299774680724e+00 -5.2948776718549184e-01 -1.6339444983382867e+00 +2.4999609354401591e+03 -1.8901267012831641e+05 -1.2501914150428791e+07 
-6.3999999999999932e+00 -5.6656969376250321e-01 +7.7328281011966196e+00 -5.2750870563319918e-01 -1.2359898650999463e+00 +2.4756145957561389e+03 -1.9184570988031759e+05 -1.2458186905943764e+07 
-6.4999999999999929e+00 -5.6657011253118650e-01 +7.7328211137116023e+00 -5.2579365335487682e-01 -7.3180182962365581e-01 +2.4539971914428161e+03 -1.9522173901503815e+05 -1.2427352046657939e+07 
-6.5999999999999925e+00 -5.6657052493855498e-01 +7.7328094252851800e+00 -5.2435774986293071e-01 -1.3356716536120586e-01 +2.4351311121621329e+03 -1.9906545340689013e+05 -1.2408246458246892e+07 
-6.6999999999999922e+00 -5.6657093084649190e-01 +7.7327934462084542e+00 -5.2321612444017951e-01 +5.4652685649915245e-01 +2.4190385500663047e+03 -2.0330154665997924e+05 -1.2399706127992917e+07 
-6.7999999999999918e+00 -5.6657133011695326e-01 +7.7327735867807244e+00 -5.2238389651990502e-01 +1.2962927834101563e+00 +2.4057415093332893e+03 -2.0785471196947581e+05 -1.2400566198292673e+07 
-6.8999999999999915e+00 -5.6657172261200850e-01 +7.7327502573207916e+00 -5.2187617007439313e-01 +2.1035426415663410e+00 +2.3952616971164352e+03 -2.1264964013867264e+05 -1.2409660443015171e+07 
-6.9999999999999911e+00 -5.6657210819379866e-01 +7.7327238681565511e+00 -5.2170803918560194e-01 +2.9560882608783108e+00 +2.3876206300580611e+03 -2.1761102155079774e+05 -1.2425821777982801e+07 
-7.0999999999999908e+00 -5.6657248672457505e-01 +7.7326948296369462e+00 -5.2189458326463967e-01 +3.8417409092944443e+00 +2.3828395471468384e+03 -2.2266354401266293e+05 -1.2447881858779937e+07 
-7.1999999999999904e+00 -5.6657285806668711e-01 +7.7326635521230402e+00 -5.2245086838223331e-01 +4.7483115634288611e+00 +2.3809394302381074e+03 -2.2773189437438961e+05 -1.2474671166680899e+07 
-7.2999999999999901e+00 -5.6657322208258731e-01 +7.7326304459922275e+00 -5.2339194653242027e-01 +5.6636107822315918e+00 +2.3819409922637897e+03 -2.3274075781300495e+05 -1.2505018960863059e+07 
-7.3999999999999897e+00 -5.6657357863483426e-01 +7.7325959216433491e+00 -5.2473285574414663e-01 +6.5754485649769876e+00 +2.3858646809698744e+03 -2.3761481704046007e+05 -1.2537753302410491e+07 
-7.4999999999999893e+00 -5.6657392758610003e-01 +7.7325603894838961e+00 -5.2648861828029347e-01 +7.4716347208243512e+00 +2.3927306409148969e+03 -2.4227875446447579e+05 -1.2571700866318760e+07 
-7.5999999999999890e+00 -5.6657426879918582e-01 +7.7325242599464135e+00 -5.2867423952938841e-01 +8.3399783909494491e+00 +2.4025586974662333e+03 -2.4665724942649892e+05 -1.2605686879056392e+07 
-7.6999999999999886e+00 -5.6657460213698629e-01 +7.7324879434779996e+00 -5.3130471209426777e-01 +9.1682883585341823e+00 +2.4153684307964977e+03 -2.5067498004337348e+05 -1.2638535464154571e+07 
-7.7999999999999883e+00 -5.6657492746255045e-01 +7.7324518505471698e+00 -5.3439500819389418e-01 +9.9443728500593647e+00 +2.4311790327047324e+03 -2.5425662207284931e+05 -1.2669068964509008e+07 
-7.8999999999999879e+00 -5.6657524463903586e-01 +7.7324163916364332e+00 -5.3796008531623296e-01 +1.0656039756189625e+01 +2.4500094162448618e+03 -2.5732685022346082e+05 -1.2696108474888930e+07 
-7.9999999999999876e+00 -5.6657555352973343e-01 +7.7323819772503377e+00 -5.4201488352859128e-01 +1.1291096462832888e+01 +2.4718781709622663e+03 -2.5981033751798025e+05 -1.2718473663565077e+07 
-8.0999999999999872e+00 -5.6657585428613555e-01 +7.7323489381903583e+00 -5.4656378341893197e-01 +1.1840731282341469e+01 +2.4968274502275076e+03 -2.6165543484987438e+05 -1.2735753443825882e+07 
-8.1999999999999869e+00 -5.6657614815178969e-01 +7.7323173119667379e+00 -5.5157338934717226e-01 +1.2308485652131971e+01 +2.5249926364519074e+03 -2.6289711380867631e+05 -1.2750247452409657e+07 
-8.2999999999999865e+00 -5.6657643662857970e-01 +7.7322870686515719e+00 -5.5700199074087942e-01 +1.2700729063020942e+01 +2.5565345003125067e+03 -2.6359025047888042e+05 -1.2764859979530517e+07 
-8.3999999999999861e+00 -5.6657672121835190e-01 +7.7322581782912723e+00 -5.6280788744637655e-01 +1.3023831377560743e+01 +2.5916140452907093e+03 -2.6378972177944519e+05 -1.2782496430200258e+07 
-8.4999999999999858e+00 -5.6657700342290218e-01 +7.7322306109054812e+00 -5.6894939069145500e-01 +1.3284162840532362e+01 +2.6303925256587340e+03 -2.6355040537545551e+05 -1.2806063417274322e+07 
-8.5999999999999854e+00 -5.6657728474396785e-01 +7.7322043364900255e+00 -5.7538482443038341e-01 +1.3488093974656527e+01 +2.6730314740228737e+03 -2.6292717899749789e+05 -1.2838468894602619e+07 
-8.6999999999999851e+00 -5.6657756668325754e-01 +7.7321793250049557e+00 -5.8207252199295734e-01 +1.3641995919409776e+01 +2.7196926389669902e+03 -2.6197492237618371e+05 -1.2882621861172261e+07 
-8.7999999999999847e+00 -5.6657785074241707e-01 +7.7321555463896701e+00 -5.8897083116231930e-01 +1.3752239988441817e+01 +2.7705380887619763e+03 -2.6074851464606155e+05 -1.2941432871044427e+07 
-8.8999999999999844e+00 -5.6657813842303062e-01 +7.7321329705479265e+00 -5.9603811194648926e-01 +1.3825198065953138e+01 +2.8257301530380046e+03 -2.5930283652726482e+05 -1.3017813710933022e+07 
-8.9999999999999840e+00 -5.6657843122664653e-01 +7.7321115673582739e+00 -6.0323273666844202e-01 +1.3867242329341110e+01 +2.8854314479207524e+03 -2.5769276876772399e+05 -1.3114677578755448e+07 
-9.0999999999999837e+00 -5.6657873065473130e-01 +7.7320913066587185e+00 -6.1051309349949079e-01 +1.3884745639604771e+01 +2.9498049287505287e+03 -2.5597319424406972e+05 -1.3234939294580089e+07 
-9.1999999999999833e+00 -5.6657903820872402e-01 +7.7320721582644891e+00 -6.1783758057629601e-01 +1.3884081049607646e+01 +3.0190137830627718e+03 -2.5419899516097034e+05 -1.3381514800610125e+07 
-9.2999999999999829e+00 -5.6657935538998150e-01 +7.7320540919478837e+00 -6.2516461372491805e-01 +1.3871622357814241e+01 +3.0932215833782557e+03 -2.5242505616557889e+05 -1.3557321900829738e+07 
-9.3999999999999826e+00 -5.6657968369979383e-01 +7.7320370774552245e+00 -6.3245262319233309e-01 +1.3853743613616793e+01 +3.1725922166657137e+03 -2.5070626145118673e+05 -1.3765279901628071e+07 
-9.4999999999999822e+00 -5.6658002463941226e-01 +7.7320210844906159e+00 -6.3966005203310494e-01 +1.3836819556304407e+01 +3.2572898672135420e+03 -2.4909749719736850e+05 -1.4008309563503897e+07 
-9.5999999999999819e+00 -5.6658037971000730e-01 +7.7320060827274473e+00 -6.4674536020377205e-01 +1.3827225298955748e+01 +3.3474790834772571e+03 -2.4765364978069905e+05 -1.4289333386074897e+07 
-9.6999999999999815e+00 -5.6658075041267342e-01 +7.7319920417991144e+00 -6.5366702499988127e-01 +1.3831336561232705e+01 +3.4433247965364208e+03 -2.4642960699588389e+05 -1.4611275720600372e+07 
-9.7999999999999812e+00 -5.6658113824846013e-01 +7.7319789312978200e+00 -6.6038353646636794e-01 +1.3855529699085668e+01 +3.5449922271651158e+03 -2.4548025821115161e+05 -1.4977062311757488e+07 
-9.8999999999999808e+00 -5.6658154471831124e-01 +7.7319667207814753e+00 -6.6685340638633872e-01 +1.3906181502861244e+01 +3.6526470651983241e+03 -2.4486049317470536e+05 -1.5389621168912662e+07 
-9.9999999999999805e+00 -5.6658197132314070e-01 +7.7319553797731126e+00 -6.7303515728875007e-01 +1.3989669030475129e+01 +3.7664552311394250e+03 -2.4462520063619583e+05 -1.5851881344022784e+07 
-1.0099999999999980e+01 -5.6658241915448782e-01 +7.7319449091257422e+00 -6.7889572578017121e-01 +1.4109820072189470e+01 +3.8863992700624763e+03 -2.4480965749289552e+05 -1.6365203093449835e+07 
