# multipoles
# s[mm] polynom_b[n=0][T/m^n] polynom_b[n=1][T/m^n] polynom_b[n=2][T/m^n] polynom_b[n=3][T/m^n] polynom_b[n=4][T/m^n] polynom_b[n=5][T/m^n] polynom_b[n=6][T/m^n] 
+0.0000000000000000e+00 -5.3862865686606642e-01 +7.3523888827876123e+00 +3.0868504356910378e-02 -2.8153350641094345e+01 -2.4618067024925917e+03 -3.2093224894402461e+04 -1.9239925059903963e+06 
+1.0000000000000001e-01 -5.3862850115800098e-01 +7.3523675718163135e+00 +2.7286691631037540e-02 -2.7828547659533641e+01 -2.4493771321637814e+03 -3.3826479629563408e+04 -1.8481498101490468e+06 
+2.0000000000000001e-01 -5.3862833536725474e-01 +7.3523535265256292e+00 +2.1813173054790979e-02 -2.7631588542850423e+01 -2.4038704540751187e+03 -3.5025663032976488e+04 -1.9180463893775111e+06 
+3.0000000000000004e-01 -5.3862816096812238e-01 +7.3523464977220616e+00 +1.4591332870831114e-02 -2.7558147115608318e+01 -2.3274644192500464e+03 -3.5706345247910431e+04 -2.1247748249035673e+06 
+4.0000000000000002e-01 -5.3862797943491758e-01 +7.3523462362204075e+00 +5.7645562206551310e-03 -2.7603897463098445e+01 -2.2223367854154262e+03 -3.5884094860644713e+04 -2.4594276872483557e+06 
+5.0000000000000000e-01 -5.3862779224198665e-01 +7.3523524928414385e+00 -4.5237691902664592e-03 -2.7764513868538302e+01 -2.0906653470934534e+03 -3.5574479256198574e+04 -2.9130973998947567e+06 
+5.9999999999999998e-01 -5.3862760086368111e-01 +7.3523650184078742e+00 -1.6130255870710188e-02 -2.8035670696826308e+01 -1.9346278888025138e+03 -3.4793065283065247e+04 -3.4768764442021442e+06 
+6.9999999999999996e-01 -5.3862740677440091e-01 +7.3523835637434747e+00 -2.8911511933260733e-02 -2.8413042372494889e+01 -1.7564022672229246e+03 -3.3555419367950752e+04 -4.1418569851416522e+06 
+7.9999999999999993e-01 -5.3862721144853554e-01 +7.3524078796779824e+00 -4.2724147094843047e-02 -2.8892303529612896e+01 -1.5581663064407685e+03 -3.1877106621343035e+04 -4.8991313440097701e+06 
+8.9999999999999991e-01 -5.3862701636052868e-01 +7.3524377170357162e+00 -5.7424765943725191e-02 -2.9469128675302674e+01 -1.3420979167478160e+03 -2.9773692811373625e+04 -5.7397914595601512e+06 
+9.9999999999999989e-01 -5.3862682298480280e-01 +7.3524728266418826e+00 -7.2869975759840236e-02 -3.0139192381343562e+01 -1.1103749577547121e+03 -2.7260743207818072e+04 -6.6549295069545582e+06 
+1.0999999999999999e+00 -5.3862663279583278e-01 +7.3525129593217819e+00 -8.8916378839630883e-02 -3.0898169258191658e+01 -8.6517537464405746e+02 -2.4353822757785667e+04 -7.6356372764383852e+06 
+1.2000000000000000e+00 -5.3862644726808850e-01 +7.3525578658934849e+00 -1.0542057812638261e-01 -3.1741733755821841e+01 -6.0867710039375970e+02 -2.1068497185868007e+04 -8.6730066141135842e+06 
+1.3000000000000000e+00 -5.3862626787605439e-01 +7.3526072971737317e+00 -1.2223917542029369e-01 -3.2665560318109641e+01 -3.4305808711814512e+02 -1.7420332150915441e+04 -9.7581292802974787e+06 
+1.4000000000000001e+00 -5.3862609609423107e-01 +7.3526610039677784e+00 -1.3922877069327047e-01 -3.3665323109938818e+01 -7.0496321276306233e+01 -1.3424894756618545e+04 -1.0882096872782439e+07 
+1.5000000000000002e+00 -5.3862593339713749e-01 +7.3527187370804601e+00 -1.5624596249257020e-01 -3.4736696329568723e+01 +2.0683018609816696e+02 -9.0977517716817219e+03 -1.2036000876842614e+07 
+1.6000000000000003e+00 -5.3862578125927152e-01 +7.3527802473015935e+00 -1.7314735167628079e-01 -3.5875353794751149e+01 +4.8674346543869393e+02 -4.4544719865749157e+03 -1.3210932970343355e+07 
+1.7000000000000004e+00 -5.3862564115518763e-01 +7.3528452854150155e+00 -1.8978953242431904e-01 -3.7076969199227719e+01 +7.6706541893758276e+02 +4.8937524627391798e+02 -1.4397984216425797e+07 
+1.8000000000000005e+00 -5.3862551455940788e-01 +7.3529136021950015e+00 -2.0602910253557630e-01 -3.8337216015049130e+01 +1.0456180125154906e+03 +5.7182194789574896e+03 -1.5588245969113259e+07 
+1.9000000000000006e+00 -5.3862540294646322e-01 +7.3529849483972090e+00 -2.2172265924266019e-01 -3.9651767233394665e+01 +1.3202232020047759e+03 +1.1216487671339015e+04 -1.6772809537377965e+07 
+2.0000000000000004e+00 -5.3862530779090823e-01 +7.3530590747712381e+00 -2.3672679642126560e-01 -4.1016295732354763e+01 +1.5887028723069752e+03 +1.6968606341636179e+04 -1.7942765874882761e+07 
+2.1000000000000005e+00 -5.3862523011736663e-01 +7.3531356696386512e+00 -2.5092416674595397e-01 -4.2425178487554135e+01 +1.8491623985542417e+03 +2.2952198122463840e+04 -1.9090094575746492e+07 
+2.2000000000000006e+00 -5.3862516914668856e-01 +7.3532141687390657e+00 -2.6430138311197887e-01 -4.3867450443594763e+01 +2.1008349637142019e+03 +2.9116711897805071e+04 -2.0210293774085756e+07 
+2.3000000000000007e+00 -5.3862512364772130e-01 +7.3532939439126368e+00 -2.7687098184412723e-01 -4.5330770448925136e+01 +2.3432341113844495e+03 +3.5404307324759320e+04 -2.1299731801724117e+07 
+2.4000000000000008e+00 -5.3862509238923495e-01 +7.3533743670037772e+00 -2.8864550704638470e-01 -4.6802797422072246e+01 +2.5758735150883067e+03 +4.1757144321015134e+04 -2.2354777561804648e+07 
+2.5000000000000009e+00 -5.3862507414000749e-01 +7.3534548098548091e+00 -2.9963750046870358e-01 -4.8271190158825000e+01 +2.7982667923676872e+03 +4.8117381911552657e+04 -2.3371799664616793e+07 
+2.6000000000000010e+00 -5.3862506766875207e-01 +7.3535346443104013e+00 -3.0985951001679968e-01 -4.9723607450785607e+01 +3.0099276590506374e+03 +5.4427178889892908e+04 -2.4347167139398497e+07 
+2.7000000000000011e+00 -5.3862507174414020e-01 +7.3536132422158245e+00 -3.1932408706379739e-01 -5.1147708019890771e+01 +3.2103698810591932e+03 +6.0628693392618661e+04 -2.5277249214711301e+07 
+2.8000000000000012e+00 -5.3862508513480878e-01 +7.3536899754207417e+00 -3.2804378471636203e-01 -5.2531150631279395e+01 +3.3991072360966855e+03 +6.6664083565325331e+04 -2.6158415122142959e+07 
+2.9000000000000012e+00 -5.3862510660931673e-01 +7.3537642157732819e+00 -3.3603116375461750e-01 -5.3861593893370738e+01 +3.5756536279505908e+03 +7.2475506319057531e+04 -2.6987034642740544e+07 
+3.0000000000000013e+00 -5.3862513493619968e-01 +7.3538353351309249e+00 -3.4329878529934915e-01 -5.5126696580387183e+01 +3.7395229456413153e+03 +7.8005119215205894e+04 -2.7759477435378280e+07 
+3.1000000000000014e+00 -5.3862516888387624e-01 +7.3539027053490429e+00 -3.4985922230897543e-01 -5.6314117281690301e+01 +3.8902292785339309e+03 +8.3195078387038535e+04 -2.8472114049363147e+07 
+3.2000000000000015e+00 -5.3862520722075047e-01 +7.3539656982913790e+00 -3.5572504631022223e-01 -5.7411514689016094e+01 +4.0272866620377258e+03 +8.7987540146866930e+04 -2.9121314710568123e+07 
+3.3000000000000016e+00 -5.3862524871512896e-01 +7.3540236858238801e+00 -3.6090883850752520e-01 -5.8406547432093788e+01 +4.1502092930969566e+03 +9.2324660078955931e+04 -2.9703450358397521e+07 
+3.4000000000000017e+00 -5.3862529213524313e-01 +7.3540760398239708e+00 -3.6542318559450648e-01 -5.9286874303880587e+01 +4.2585114409483094e+03 +9.6148594221133491e+04 -3.0214892194910947e+07 
+3.5000000000000018e+00 -5.3862533624926268e-01 +7.3541221321693797e+00 -3.6928067913606832e-01 -6.0040153953689661e+01 +4.3517074419198689e+03 +9.9401497324143158e+04 -3.0652011678692713e+07 
+3.6000000000000019e+00 -5.3862537982523417e-01 +7.3541613347450969e+00 -3.7249392149287514e-01 -6.0654045069454639e+01 +4.4293118016249045e+03 +1.0202552386250474e+05 -3.1011180983623598e+07 
+3.7000000000000020e+00 -5.3862542163115468e-01 +7.3541930194502205e+00 -3.7507551838840247e-01 -6.1116206558319902e+01 +4.4908390635891465e+03 +1.0396282901985264e+05 -3.1288772400006603e+07 
+3.8000000000000020e+00 -5.3862546043491977e-01 +7.3542165581828742e+00 -3.7703808357625351e-01 -6.1414297124270135e+01 +4.5358038857625279e+03 +1.0515556628543987e+05 -3.1481158666082475e+07 
+3.9000000000000021e+00 -5.3862549500430446e-01 +7.3542313228579372e+00 -3.7839424152125900e-01 -6.1535975731494744e+01 +4.5637210943709761e+03 +1.0554588999943878e+05 -3.1584713233684458e+07 
+4.0000000000000018e+00 -5.3862552410699993e-01 +7.3542366853944046e+00 -3.7915662316298615e-01 -6.1468901266878390e+01 +4.5741056048376695e+03 +1.0507595346607463e+05 -3.1595809894944642e+07 
+4.1000000000000014e+00 -5.3862554685909381e-01 +7.3542322308437571e+00 -3.7934345303518180e-01 -6.1205178351261253e+01 +4.5667945024856472e+03 +1.0370876556561326e+05 -3.1512772277313389e+07 
+4.2000000000000011e+00 -5.3862556378834914e-01 +7.3542184205913665e+00 -3.7899866193872811e-01 -6.0755401202628363e+01 +4.5429855037078441e+03 +1.0149469507237220e+05 -3.1342050262414683e+07 
+4.3000000000000007e+00 -5.3862557578002357e-01 +7.3541959412397846e+00 -3.7817346995432066e-01 -6.0134966474315519e+01 +4.5042354297908842e+03 +9.8506946140811968e+04 -3.1092212449778005e+07 
+4.4000000000000004e+00 -5.3862558371940628e-01 +7.3541654793921962e+00 -3.7691909465274115e-01 -5.9359270924263029e+01 +4.4521010723182180e+03 +9.4818723879134544e+04 -3.0771827349079601e+07 
+4.5000000000000000e+00 -5.3862558849184083e-01 +7.3541277216444154e+00 -3.7528674837665860e-01 -5.8443711194340224e+01 +4.3881391458257867e+03 +9.0503233120658348e+04 -3.0389463168516133e+07 
+4.5999999999999996e+00 -5.3862559098272200e-01 +7.3540833545920705e+00 -3.7332763853869355e-01 -5.7403684019432383e+01 +4.3139062916038283e+03 +8.5633679646201825e+04 -2.9953687827034898e+07 
+4.6999999999999993e+00 -5.3862559207752281e-01 +7.3540330648195384e+00 -3.7109296448901896e-01 -5.6254585927111670e+01 +4.2309590216217057e+03 +8.0283268504334366e+04 -2.9473068697014671e+07 
+4.7999999999999989e+00 -5.3862559266175924e-01 +7.3539775389176762e+00 -3.6863392210133378e-01 -5.5011813744460376e+01 +4.1408538078180090e+03 +7.4525206943325757e+04 -2.8956173036420863e+07 
+4.8999999999999986e+00 -5.3862559362101881e-01 +7.3539174634612365e+00 -3.6600170060946308e-01 -5.3690763973838131e+01 +4.0451470244050661e+03 +6.8432700873608657e+04 -2.8411567718291994e+07 
+4.9999999999999982e+00 -5.3862559584099434e-01 +7.3538535250270689e+00 -3.6324747825717751e-01 -5.2306833311446283e+01 +3.9453948650330763e+03 +6.2078957863572410e+04 -2.7847818837857965e+07 
+5.0999999999999979e+00 -5.3862560020741534e-01 +7.3537864101839681e+00 -3.6042243106797939e-01 -5.0875418364924151e+01 +3.8431535130869784e+03 +5.5537185541062550e+04 -2.7273492532387115e+07 
+5.1999999999999975e+00 -5.3862560760613398e-01 +7.3537168054964965e+00 -3.5757772247282815e-01 -4.9411915780798381e+01 +3.7399789468373151e+03 +4.8880592384909804e+04 -2.6697154060962364e+07 
+5.2999999999999972e+00 -5.3862561892305327e-01 +7.3536453975247111e+00 -3.5476451223329514e-01 -4.7931722236521288e+01 +3.6374271097982596e+03 +4.2182387680845772e+04 -2.6127368616367809e+07 
+5.3999999999999968e+00 -5.3862563504421634e-01 +7.3535728728171987e+00 -3.5203394589797149e-01 -4.6450234256585979e+01 +3.5370537138359464e+03 +3.5515780525174298e+04 -2.5572700396854941e+07 
+5.4999999999999964e+00 -5.3862565685572261e-01 +7.3534999179218099e+00 -3.4943716426054372e-01 -4.4982848520182031e+01 +3.4404144152079293e+03 +2.8953981594010598e+04 -2.5041713437007587e+07 
+5.5999999999999961e+00 -5.3862568524380883e-01 +7.3534272193795385e+00 -3.4702529535805038e-01 -4.3544961704932312e+01 +3.3490646756960596e+03 +2.2570202305060211e+04 -2.4542970978460595e+07 
+5.6999999999999957e+00 -5.3862572109479034e-01 +7.3533554637213268e+00 -3.4484946018362733e-01 -4.2151970397358340e+01 +3.2645598613720517e+03 +1.6437654317117664e+04 -2.4085035916789088e+07 
+5.7999999999999954e+00 -5.3862576529511585e-01 +7.3532853374720810e+00 -3.4296076659589070e-01 -4.0819271216816617e+01 +3.1884551343191774e+03 +1.0629550278556182e+04 -2.3676470305706546e+07 
+5.8999999999999950e+00 -5.3862581873135640e-01 +7.3532175271527791e+00 -3.4141031173854752e-01 -3.9562260888375029e+01 +3.1223055030476539e+03 +5.2191042839331076e+03 -2.3325835607544262e+07 
+5.9999999999999947e+00 -5.3862588229018049e-01 +7.3531527192719732e+00 -3.4024918336923149e-01 -3.8396336008247729e+01 +3.0676658398866821e+03 +2.7953060979679196e+02 -2.3041692752026342e+07 
+6.0999999999999943e+00 -5.3862595667176194e-01 +7.3530914968979344e+00 -3.3951419548457390e-01 -3.7334131416073610e+01 +3.0256898763501190e+03 -4.1297484491673004e+03 -2.2830386488260582e+07 
+6.1999999999999940e+00 -5.3862604180920304e-01 +7.3530339973629957e+00 -3.3918364835604642e-01 -3.6376346458475169e+01 +2.9958693552129694e+03 -8.0097987895493507e+03 -2.2689101990375187e+07 
+6.2999999999999936e+00 -5.3862613743851562e-01 +7.3529802382998142e+00 -3.3922079291059742e-01 -3.5520465506021530e+01 +2.9772642754038752e+03 -1.1378175345979467e+04 -2.2612649389076333e+07 
+6.3999999999999932e+00 -5.3862624329570430e-01 +7.3529302373442338e+00 -3.3958888288999500e-01 -3.4763972966648225e+01 +2.9689346938229501e+03 -1.4252433096973422e+04 -2.2595839090272807e+07 
+6.4999999999999929e+00 -5.3862635911681656e-01 +7.3528840121319963e+00 -3.4025116947673184e-01 -3.4104353212646636e+01 +2.9699406334052014e+03 -1.6650127454022291e+04 -2.2633481365899421e+07 
+6.5999999999999925e+00 -5.3862648463788343e-01 +7.3528415803063645e+00 -3.4117090801803335e-01 -3.3539090785379415e+01 +2.9793422028129321e+03 -1.8588813131422055e+04 -2.2720386899060376e+07 
+6.6999999999999922e+00 -5.3862661959496028e-01 +7.3528029595069730e+00 -3.4231135329575085e-01 -3.3065670083136773e+01 +2.9961995111076585e+03 -2.0086045926861527e+04 -2.2851366391360290e+07 
+6.7999999999999918e+00 -5.3862676372408813e-01 +7.3527681673806402e+00 -3.4363576487777819e-01 -3.2681575661625132e+01 +3.0195727715777884e+03 -2.1159381033288864e+04 -2.3021231060728129e+07 
+6.8999999999999915e+00 -5.3862691676133356e-01 +7.3527372215707008e+00 -3.4510740147606767e-01 -3.2384291922153160e+01 +3.0485221879611740e+03 -2.1826374851927918e+04 -2.3224792082017325e+07 
+6.9999999999999911e+00 -5.3862707844275692e-01 +7.3527101397318155e+00 -3.4668952534445163e-01 -3.2171303548196846e+01 +3.0821080443085507e+03 -2.2104582454430136e+04 -2.3456861032300301e+07 
+7.0999999999999908e+00 -5.3862724850444232e-01 +7.3526869395123127e+00 -3.4834539884685622e-01 -3.2040094979470680e+01 +3.1193906377244116e+03 -2.2011560678452737e+04 -2.3712249562333386e+07 
+7.1999999999999904e+00 -5.3862742668247066e-01 +7.3526676385726493e+00 -3.5003828761541556e-01 -3.1988150952612369e+01 +3.1594303384655332e+03 -2.1564864980131188e+04 -2.3985769683488432e+07 
+7.2999999999999901e+00 -5.3862761271291837e-01 +7.3526522545686186e+00 -3.5173146069100347e-01 -3.2012956001968050e+01 +3.2012875915112700e+03 -2.0782052381826052e+04 -2.4272233771842338e+07 
+7.3999999999999897e+00 -5.3862780633187679e-01 +7.3526408051639036e+00 -3.5338818860917315e-01 -3.2111994830182731e+01 +3.2440228841438616e+03 -1.9680679302907665e+04 -2.4566454423864413e+07 
+7.4999999999999893e+00 -5.3862800727544669e-01 +7.3526333080257906e+00 -3.5497174349809646e-01 -3.2282752179412796e+01 +3.2866967423434849e+03 -1.8278302330274004e+04 -2.4863244423515193e+07 
+7.5999999999999890e+00 -5.3862821527973015e-01 +7.3526297808205028e+00 -3.5644540103347139e-01 -3.2522712696272308e+01 +3.3283697727866393e+03 -1.6592479010477819e+04 -2.5157416953434099e+07 
+7.6999999999999886e+00 -5.3862843008082217e-01 +7.3526302412249889e+00 -3.5777244065295960e-01 -3.2829361252347809e+01 +3.3681026648281095e+03 -1.4640766053292493e+04 -2.5443785601449866e+07 
+7.7999999999999883e+00 -5.3862865141485061e-01 +7.3526347069158913e+00 -3.5891614148884043e-01 -3.3200182651426928e+01 +3.4049561155721403e+03 -1.2440720971948169e+04 -2.5717164006633580e+07 
+7.8999999999999879e+00 -5.3862887901790868e-01 +7.3526431955747267e+00 -3.5983979034118457e-01 -3.3632661750786852e+01 +3.4379909769672481e+03 -1.0009901456650137e+04 -2.5972366546557732e+07 
+7.9999999999999876e+00 -5.3862911262613200e-01 +7.3526557248877271e+00 -3.6050667232746736e-01 -3.4124283482656196e+01 +3.4662680824840859e+03 -7.3658652697469115e+03 -2.6204207532613359e+07 
+8.0999999999999872e+00 -5.3862935202212214e-01 +7.3526722461396457e+00 -3.6088904438736263e-01 -3.4671909643784439e+01 +3.4890497795734232e+03 -4.5274829608198852e+03 -2.6408549068390515e+07 
+8.1999999999999869e+00 -5.3862959718267001e-01 +7.3526924623212384e+00 -3.6099036953138702e-01 -3.5270351108941078e+01 +3.5063494589497095e+03 -1.5161142729526757e+03 -2.6585272474425323e+07 
+8.2999999999999865e+00 -5.3862984813530612e-01 +7.3527160185637026e+00 -3.6082078329825068e-01 -3.5914023190004542e+01 +3.5183556976473442e+03 +1.6469988049097897e+03 -2.6735228658942774e+07 
+8.3999999999999861e+00 -5.3863010490746788e-01 +7.3527425600003138e+00 -3.6039042815240774e-01 -3.6597341283834972e+01 +3.5252571721440017e+03 +4.9406147985366360e+03 -2.6859268931492150e+07 
+8.4999999999999858e+00 -5.3863036752657378e-01 +7.3527717317654311e+00 -3.5970944549158373e-01 -3.7314720829061613e+01 +3.5272425105795296e+03 +8.3434924533030280e+03 -2.6958244307030547e+07 
+8.5999999999999854e+00 -5.3863063601994932e-01 +7.3528031789989781e+00 -3.5878798316996080e-01 -3.8060577427360414e+01 +3.5245004255237277e+03 +1.1834391426287262e+04 -2.7033006111968163e+07 
+8.6999999999999851e+00 -5.3863091041487710e-01 +7.3528365468369614e+00 -3.5763619039658651e-01 -3.8829326577139611e+01 +3.5172196229651067e+03 +1.5392070751520434e+04 -2.7084405566877808e+07 
+8.7999999999999847e+00 -5.3863119073858223e-01 +7.3528714804208413e+00 -3.5626421876733122e-01 -3.9615383948961281e+01 +3.5055888183698257e+03 +1.8995290458083433e+04 -2.7113293854235351e+07 
+8.8999999999999844e+00 -5.3863147701819014e-01 +7.3529076248898271e+00 -3.5468222751105233e-01 -4.0413165143830000e+01 +3.4897968335611672e+03 +2.2622810109992184e+04 -2.7120522571820483e+07 
+8.9999999999999840e+00 -5.3863176928078926e-01 +7.3529446253919506e+00 -3.5290037541026603e-01 -4.1217086036013285e+01 +3.4700324446311924e+03 +2.6253390855071342e+04 -2.7106943014304798e+07 
+9.0999999999999837e+00 -5.3863206755338622e-01 +7.3529821270694864e+00 -3.5092882631501238e-01 -4.2021562334422278e+01 +3.4464844828088521e+03 +2.9865792837560133e+04 -2.7073406640917294e+07 
+9.1999999999999833e+00 -5.3863237186292401e-01 +7.3530197750695736e+00 -3.4877774687725432e-01 -4.2821009903332616e+01 +3.4193417934468644e+03 +3.3438777092200995e+04 -2.7020764889281049e+07 
+9.2999999999999829e+00 -5.3863268223624550e-01 +7.3530572145399224e+00 -3.4645731071380809e-01 -4.3609844625293455e+01 +3.3887933115793803e+03 +3.6951104715911009e+04 -2.6949869523709647e+07 
+9.3999999999999826e+00 -5.3863299870015446e-01 +7.3530940906344870e+00 -3.4397769062532296e-01 -4.4382482573379328e+01 +3.3550279131471048e+03 +4.0381537880377153e+04 -2.6861571925709412e+07 
+9.4999999999999822e+00 -5.3863332128134012e-01 +7.3531300485049691e+00 -3.4134906828700262e-01 -4.5133339773181206e+01 +3.3182345999146123e+03 +4.3708838482869702e+04 -2.6756723976124976e+07 
+9.5999999999999819e+00 -5.3863365000643859e-01 +7.3531647333056700e+00 -3.3858162580334289e-01 -4.5856832323587511e+01 +3.2786023350409532e+03 +4.6911768783415930e+04 -2.6636177263850141e+07 
+9.6999999999999815e+00 -5.3863398490198022e-01 +7.3531977901923327e+00 -3.3568555242397385e-01 -4.6547376377459038e+01 +3.2363201708791808e+03 +4.9969091337302802e+04 -2.6500783693608761e+07 
+9.7999999999999812e+00 -5.3863432599444050e-01 +7.3532288643263879e+00 -3.3267103840274354e-01 -4.7199388259816558e+01 +3.1915771329889030e+03 +5.2859569662063761e+04 -2.6351394936186887e+07 
+9.8999999999999808e+00 -5.3863467331017389e-01 +7.3532576008672557e+00 -3.2954828212874920e-01 -4.7807284253715288e+01 +3.1445623488167662e+03 +5.5561967020533746e+04 -2.6188863024189688e+07 
+9.9999999999999805e+00 -5.3863502687547404e-01 +7.3532836449805385e+00 -3.2632748359025676e-01 -4.8365480785804074e+01 +3.0954649349588140e+03 +5.8055047442701289e+04 -2.6014039841782656e+07 
+1.0099999999999980e+01 -5.3863538657180599e-01 +7.3533067017453222e+00 -3.2302184985652005e-01 -4.8869071800662525e+01 +3.0445255516929096e+03 +6.0319176264383452e+04 -2.5828012139448363e+07 
