# multipoles
# s[mm] polynom_b[n=0][T/m^n] polynom_b[n=1][T/m^n] polynom_b[n=2][T/m^n] polynom_b[n=3][T/m^n] polynom_b[n=4][T/m^n] polynom_b[n=5][T/m^n] polynom_b[n=6][T/m^n] 
-0.0000000000000000e+00 -5.3689375771533554e-01 +7.3497358299812490e+00 -9.1200073779637192e-01 -7.2763267243349773e+01 +5.5367042897381853e+03 +1.8330830268748532e+05 -3.0120713459210709e+07 
-1.0000000000000001e-01 -5.3689379701841033e-01 +7.3497603409257710e+00 -9.1891200916755666e-01 -7.2991862811447447e+01 +5.6244164218842943e+03 +1.8440715585090072e+05 -3.0436150086353142e+07 
-2.0000000000000001e-01 -5.3689385346706542e-01 +7.3497807028745399e+00 -9.2584247122226648e-01 -7.3128406512112889e+01 +5.7179204236374262e+03 +1.8506122526713996e+05 -3.0791963613230933e+07 
-2.9999999999999999e-01 -5.3689392656424750e-01 +7.3497972331743933e+00 -9.3274206847550312e-01 -7.3182256805172472e+01 +5.8160685119519494e+03 +1.8532042491185074e+05 -3.1182254019786067e+07 
-4.0000000000000002e-01 -5.3689401581297613e-01 +7.3498102491738466e+00 -9.3956074822648061e-01 -7.3162772227110977e+01 +5.9177129570276711e+03 +1.8523466933240616e+05 -3.1601121543401305e+07 
-5.0000000000000000e-01 -5.3689412071620835e-01 +7.3498200682183290e+00 -9.4624845444758932e-01 -7.3079311261287202e+01 +6.0217059567975239e+03 +1.8485387291212194e+05 -3.2042666054836061e+07 
-5.9999999999999998e-01 -5.3689424077691905e-01 +7.3498270076494405e+00 -9.5275513563452230e-01 -7.2941232309082963e+01 +6.1268997967113537e+03 +1.8422794968509025e+05 -3.2500987849571388e+07 
-6.9999999999999996e-01 -5.3689437549803931e-01 +7.3498313848028696e+00 -9.5903073836705843e-01 -7.2757893621836061e+01 +6.2321467217573336e+03 +1.8340681290770372e+05 -3.2970187022827018e+07 
-8.0000000000000004e-01 -5.3689452438251495e-01 +7.3498335170186033e+00 -9.6502521007143272e-01 -7.2538653605964015e+01 +6.3362989904717924e+03 +1.8244037684854754e+05 -3.3444363732733648e+07 
-9.0000000000000002e-01 -5.3689468693326214e-01 +7.3498337216267249e+00 -9.7068850191342848e-01 -7.2292870392469041e+01 +6.4382089333680078e+03 +1.8137855423707093e+05 -3.3917618487147346e+07 
-1.0000000000000000e+00 -5.3689486265326281e-01 +7.3498323159554761e+00 -9.7597055574663327e-01 -7.2029902073467170e+01 +6.5367287019595697e+03 +1.8027125763875182e+05 -3.4384050943807028e+07 
-1.1000000000000001e+00 -5.3689505104550161e-01 +7.3498296173347510e+00 -9.8082132001113309e-01 -7.1759106806974486e+01 +6.6307105763939317e+03 +1.7916840006246499e+05 -3.4837761387650371e+07 
-1.2000000000000000e+00 -5.3689525161285356e-01 +7.3498259430843742e+00 -9.8519073913232558e-01 -7.1489842458487672e+01 +6.7190067578325625e+03 +1.7811989282382035e+05 -3.5272849728338078e+07 
-1.3000000000000000e+00 -5.3689546385830222e-01 +7.3498216105260967e+00 -9.8902875726669637e-01 -7.1231466958640766e+01 +6.8004694480213593e+03 +1.7717564765018149e+05 -3.5683415902779467e+07 
-1.3999999999999999e+00 -5.3689568728485115e-01 +7.3498169369724051e+00 -9.9228531603806436e-01 -7.0993337967918592e+01 +6.8739508038746326e+03 +1.7638557469075898e+05 -3.6063559650091954e+07 
-1.5000000000000000e+00 -5.3689592139546738e-01 +7.3498122397410217e+00 -9.9491035430974117e-01 -7.0784813296856584e+01 +6.9383029325748566e+03 +1.7579958495142660e+05 -3.6407380491651051e+07 
-1.6000000000000001e+00 -5.3689616569314724e-01 +7.3498078361382300e+00 -9.9685381010547813e-01 -7.0615250417165100e+01 +6.9923779284824550e+03 +1.7546758744097661e+05 -3.6708977905655712e+07 
-1.7000000000000000e+00 -5.3689641968092128e-01 +7.3498040434696632e+00 -9.9806561693649831e-01 -7.0494006770679178e+01 +7.0350278055918343e+03 +1.7543949094185772e+05 -3.6962451013254553e+07 
-1.8000000000000000e+00 -5.3689668286184755e-01 +7.3498011790399946e+00 -9.9849570837852819e-01 -7.0430439756550427e+01 +7.0651045877148608e+03 +1.7576520392767256e+05 -3.7161899016980357e+07 
-1.8999999999999999e+00 -5.3689695473897658e-01 +7.3497995601469475e+00 -9.9809401150131105e-01 -7.0433906558893113e+01 +7.0814601791887681e+03 +1.7649463354943341e+05 -3.7301420574682347e+07 
-2.0000000000000000e+00 -5.3689723481544027e-01 +7.3497995040855173e+00 -9.9681044991544487e-01 -7.0513764255436897e+01 +7.0829464277911502e+03 +1.7767768623408646e+05 -3.7375114112853818e+07 
-2.1000000000000001e+00 -5.3689752262427071e-01 +7.3498012485533950e+00 -9.9461451364381981e-01 -7.0676625848574631e+01 +7.0688064590395106e+03 +1.7934865187839355e+05 -3.7378952668565311e+07 
-2.2000000000000002e+00 -5.3689781781072776e-01 +7.3498047199595957e+00 -9.9155399467420524e-01 -7.0918269465227155e+01 +7.0398338103898232e+03 +1.8148011523989623e+05 -3.7316307274344109e+07 
-2.2999999999999998e+00 -5.3689812004602999e-01 +7.3498097686372112e+00 -9.8769628039001012e-01 -7.1231798468133817e+01 +6.9972061605134732e+03 +1.8402941705813367e+05 -3.7192374449734114e+07 
-2.3999999999999999e+00 -5.3689842900147910e-01 +7.3498162449233595e+00 -9.8310875469837278e-01 -7.1610316338666777e+01 +6.9421011221780727e+03 +1.8695389873809653e+05 -3.7012350394555107e+07 
-2.5000000000000000e+00 -5.3689874434829488e-01 +7.3498239991519974e+00 -9.7785880555115712e-01 -7.2046926478345611e+01 +6.8756963879301393e+03 +1.9021090121496344e+05 -3.6781431688516147e+07 
-2.6000000000000001e+00 -5.3689906575770674e-01 +7.3498328816603058e+00 -9.7201381989424318e-01 -7.2534732380451501e+01 +6.7991696286203824e+03 +1.9375776591674270e+05 -3.6504814791241661e+07 
-2.7000000000000002e+00 -5.3689939290102517e-01 +7.3498427427896935e+00 -9.6564118759262862e-01 -7.3066837670555429e+01 +6.7136985678925103e+03 +1.9755183502242976e+05 -3.6187696396831639e+07 
-2.7999999999999998e+00 -5.3689972544938303e-01 +7.3498534328781036e+00 -9.5880830201191702e-01 -7.3636345881932854e+01 +6.6204609994652383e+03 +2.0155045015297638e+05 -3.5835273528774738e+07 
-2.8999999999999999e+00 -5.3690006307407445e-01 +7.3498648022728066e+00 -9.5158255287640670e-01 -7.4236360821896383e+01 +6.5206346442607137e+03 +2.0571095447917478e+05 -3.5452742840805359e+07 
-3.0000000000000000e+00 -5.3690040544627105e-01 +7.3498767013196309e+00 -9.4403133576777842e-01 -7.4859986262787245e+01 +6.4153973332373662e+03 +2.0999069094367709e+05 -3.5045301492776036e+07 
-3.1000000000000001e+00 -5.3690075223713885e-01 +7.3498889803709533e+00 -9.3622205083607546e-01 -7.5500326173616742e+01 +6.3059269820431182e+03 +2.1434700358742676e+05 -3.4618147023481436e+07 
-3.2000000000000002e+00 -5.3690110311787698e-01 +7.3499014897789596e+00 -9.2822209821871926e-01 -7.6150484532652186e+01 +6.1934015057064526e+03 +2.1873723649695033e+05 -3.4176476949850775e+07 
-3.2999999999999998e+00 -5.3690145775959475e-01 +7.3499140799079337e+00 -9.2009887984652294e-01 -7.6803565672518900e+01 +6.0789988509562681e+03 +2.2311873575743291e+05 -3.3725488913317226e+07 
-3.3999999999999999e+00 -5.3690181583349827e-01 +7.3499266011164339e+00 -9.1191980263079875e-01 -7.7452673766607546e+01 +5.9638970541542776e+03 +2.2744884649345482e+05 -3.3270380946840372e+07 
-3.5000000000000000e+00 -5.3690217701061604e-01 +7.3499389037777032e+00 -9.0375227673663094e-01 -7.8090913425386773e+01 +5.8492742140252431e+03 +2.3168491632394501e+05 -3.2816351359256208e+07 
-3.6000000000000001e+00 -5.3690254096207923e-01 +7.3499508382651610e+00 -8.9566371677514522e-01 -7.8711389276969982e+01 +5.7363085085012808e+03 +2.3578429294261130e+05 -3.2368598796791136e+07 
-3.7000000000000002e+00 -5.3690290735892676e-01 +7.3499622549580010e+00 -8.8772153989831404e-01 -7.9307206121795986e+01 +5.6261781619003805e+03 +2.3970432498098721e+05 -3.1932322095801517e+07 
-3.7999999999999998e+00 -5.3690327587219855e-01 +7.3499730042472367e+00 -8.7999316707660680e-01 -7.9871469118577991e+01 +5.5200614657350598e+03 +2.4340236311687002e+05 -3.1512720370494172e+07 
-3.8999999999999999e+00 -5.3690364617289532e-01 +7.3499829365243867e+00 -8.7254602537814174e-01 -8.0397283449476731e+01 +5.4191368259219480e+03 +2.4683575811262944e+05 -3.1114993246730547e+07 
-4.0000000000000000e+00 -5.3690401793202103e-01 +7.3499919021901885e+00 -8.6544754581999794e-01 -8.0877754575036477e+01 +5.3245827172053714e+03 +2.4996186229679035e+05 -3.0744340629994705e+07 
-4.0999999999999996e+00 -5.3690439076510799e-01 +7.3499997832948436e+00 -8.5875578322368373e-01 -8.1307302791312310e+01 +5.2373607645302518e+03 +2.5274635194541616e+05 -3.0404907712112729e+07 
-4.2000000000000002e+00 -5.3690476407443433e-01 +7.3500065794762097e+00 -8.5249092886188493e-01 -8.1685407162154149e+01 +5.1575762214902570e+03 +2.5518727892041593e+05 -3.0096725255320635e+07 
-4.2999999999999998e+00 -5.3690513721097199e-01 +7.3500123175862706e+00 -8.4666360320803402e-01 -8.2012764973589526e+01 +5.0851226725547813e+03 +2.5729058370430468e+05 -2.9818819985322800e+07 
-4.4000000000000004e+00 -5.3690550952579796e-01 +7.3500170244870056e+00 -8.4128442770217815e-01 -8.2290073736708919e+01 +5.0198937233296874e+03 +2.5906220790666595e+05 -2.9570218734621510e+07 
-4.5000000000000000e+00 -5.3690588036991860e-01 +7.3500207270463092e+00 -8.3636402247582664e-01 -8.2518031048518324e+01 +4.9617829489670767e+03 +2.6050809340268420e+05 -2.9349948174428403e+07 
-4.5999999999999996e+00 -5.3690624909431151e-01 +7.3500234521379255e+00 -8.3191301456497646e-01 -8.2697334601248272e+01 +4.9106840541426427e+03 +2.6163418241877668e+05 -2.9157035589150615e+07 
-4.7000000000000002e+00 -5.3690661505004489e-01 +7.3500252266446759e+00 -8.2794202413097051e-01 -8.2828682269363284e+01 +4.8664906169274582e+03 +2.6244641802094609e+05 -2.8990507670524295e+07 
-4.7999999999999998e+00 -5.3690697758810524e-01 +7.3500260774538875e+00 -8.2446167483442900e-01 -8.2912771966670775e+01 +4.8290962775949783e+03 +2.6295074326025555e+05 -2.8849391395353287e+07 
-4.9000000000000004e+00 -5.3690733605949459e-01 +7.3500260314633339e+00 -8.2148259169604254e-01 -8.2950301823381892e+01 +4.7983946987094696e+03 +2.6315310221355018e+05 -2.8732713837617863e+07 
-5.0000000000000000e+00 -5.3690768981521086e-01 +7.3500251155752041e+00 -8.1901540104165804e-01 -8.2941969994668341e+01 +4.7742795707985761e+03 +2.6305943883584719e+05 -2.8639502215798989e+07 
-5.0999999999999996e+00 -5.3690803820630395e-01 +7.3500233567045434e+00 -8.1707072626933663e-01 -8.2888474913232557e+01 +4.7566445244673769e+03 +2.6267569843815331e+05 -2.8568783450819120e+07 
-5.2000000000000002e+00 -5.3690838058373613e-01 +7.3500207817708967e+00 -8.1565919509645590e-01 -8.2790515038011023e+01 +4.7453832710475017e+03 +2.6200782621419831e+05 -2.8519584848964576e+07 
-5.2999999999999998e+00 -5.3690871629851411e-01 +7.3500174177061153e+00 -8.1479143357096051e-01 -8.2648789070662048e+01 +4.7403894900987480e+03 +2.6106176847754334e+05 -2.8490933567414869e+07 
-5.4000000000000004e+00 -5.3690904470168777e-01 +7.3500132914454941e+00 -8.1447806582446192e-01 -8.2463995708588683e+01 +4.7415568216971824e+03 +2.5984347124048506e+05 -2.8481856569726266e+07 
-5.5000000000000000e+00 -5.3690936514418930e-01 +7.3500084299392219e+00 -8.1472972133860833e-01 -8.2236833955367359e+01 +4.7487790077685595e+03 +2.5835888197522977e+05 -2.8491381308406472e+07 
-5.5999999999999996e+00 -5.3690967697709713e-01 +7.3500028601452936e+00 -8.1555702791420248e-01 -8.1968002921880355e+01 +4.7619497544223041e+03 +2.5661394847101378e+05 -2.8518535059738018e+07 
-5.7000000000000002e+00 -5.3690997955135766e-01 +7.3499966090290414e+00 -8.1697061026880824e-01 -8.1658201811746551e+01 +4.7809627094015686e+03 +2.5461461875468379e+05 -2.8562344827414133e+07 
-5.7999999999999998e+00 -5.3691027221801002e-01 +7.3499897035680473e+00 -8.1898109867931690e-01 -8.1308130048363225e+01 +4.8057116229199255e+03 +2.5236684178228935e+05 -2.8621838098497093e+07 
-5.9000000000000004e+00 -5.3691055432800738e-01 +7.3499821707512414e+00 -8.2159912134142288e-01 -8.0918487245972244e+01 +4.8360902074969254e+03 +2.4987656726612485e+05 -2.8696042191715494e+07 
-5.9999999999999902e+00 -5.3691082523244138e-01 +7.3499740375751363e+00 -8.2483530551286843e-01 -8.0489973108607344e+01 +4.8719921512006431e+03 +2.4714974510962007e+05 -2.8783984298808742e+07 
-6.0999999999999899e+00 -5.3691108463565884e-01 +7.3499653426547056e+00 -8.2868779693673922e-01 -8.0023836963607110e+01 +4.9132338629557225e+03 +2.4419506393155860e+05 -2.8884641001980670e+07 
-6.1999999999999904e+00 -5.3691133365872756e-01 +7.3499561850303374e+00 -8.3310494039222516e-01 -7.9524008023835833e+01 +4.9593390446964668e+03 +2.4103484044025504e+05 -2.8996869973826669e+07 
-6.2999999999999901e+00 -5.3691157377777066e-01 +7.3499466824137087e+00 -8.3802267556583887e-01 -7.8995209408515990e+01 +5.0097631264873571e+03 +2.3769547873527388e+05 -2.9119524757888794e+07 
-6.3999999999999897e+00 -5.3691180646888970e-01 +7.3499369524968721e+00 -8.4337694112586814e-01 -7.8442163812544266e+01 +5.0639615275491751e+03 +2.3420338094416575e+05 -2.9251458879951175e+07 
-6.4999999999999902e+00 -5.3691203320816960e-01 +7.3499271129568786e+00 -8.4910367130224718e-01 -7.7869593681444158e+01 +5.1213895958314079e+03 +2.3058494839711831e+05 -2.9391525577495258e+07 
-6.5999999999999899e+00 -5.3691225547182297e-01 +7.3499172814531395e+00 -8.5513879718667296e-01 -7.7282221098897011e+01 +5.1815026270825538e+03 +2.2686658088661989e+05 -2.9538577875069916e+07 
-6.6999999999999904e+00 -5.3691247473599546e-01 +7.3499075756236216e+00 -8.6141824845821247e-01 -7.6684767720868464e+01 +5.2437559037342708e+03 +2.2307467641173452e+05 -2.9691468786170434e+07 
-6.7999999999999901e+00 -5.3691269247691575e-01 +7.3498981130889183e+00 -8.6787794704818455e-01 -7.6081954876200939e+01 +5.3076045697673826e+03 +2.1923563171499255e+05 -2.9849050707896184e+07 
-6.8999999999999897e+00 -5.3691291017081122e-01 +7.3498890114468791e+00 -8.7445381498008501e-01 -7.5478503431890417e+01 +5.3725037835150670e+03 +2.1537584156960392e+05 -3.0010176156256434e+07 
-6.9999999999999902e+00 -5.3691312929397950e-01 +7.3498803882802131e+00 -8.8108176871995447e-01 -7.4879134015468921e+01 +5.4379086105234783e+03 +2.1152170007670860e+05 -3.0173697259440716e+07 
-7.0999999999999899e+00 -5.3691335132267759e-01 +7.3498723611380852e+00 -8.8769772269626834e-01 -7.4288566495163096e+01 +5.5032740884171972e+03 +2.0769959769785087e+05 -3.0338466060410786e+07 
-7.1999999999999904e+00 -5.3691357773324144e-01 +7.3498650475578380e+00 -8.9423758432777312e-01 -7.3711520612817125e+01 +5.5680551345636177e+03 +2.0393592493689596e+05 -3.0503334085863650e+07 
-7.2999999999999901e+00 -5.3691381000206184e-01 +7.3498585650495585e+00 -9.0063725760219926e-01 -7.3152715540171599e+01 +5.6317066149651946e+03 +2.0025706978364513e+05 -3.0667152674624607e+07 
-7.3999999999999897e+00 -5.3691404960545686e-01 +7.3498530310950043e+00 -9.0683264502160799e-01 -7.2616869868426321e+01 +5.6936833815788332e+03 +1.9668941771405289e+05 -3.0828773160365645e+07 
-7.4999999999999902e+00 -5.3691429801995094e-01 +7.3498485631543478e+00 -9.1275963930357085e-01 -7.2108701791409757e+01 +5.7534401104962199e+03 +1.9325935272776766e+05 -3.0987046086805612e+07 
-7.5999999999999899e+00 -5.3691455672189869e-01 +7.3498452786627100e+00 -9.1835413476968508e-01 -7.1632929036076320e+01 +5.8104315292359634e+03 +1.8999325703489006e+05 -3.1140822323584218e+07 
-7.6999999999999904e+00 -5.3691482718784656e-01 +7.3498432950254822e+00 -9.2355201403642473e-01 -7.1194268712665462e+01 +5.8641121520546894e+03 +1.8691751015238091e+05 -3.1288951772513159e+07 
-7.7999999999999901e+00 -5.3691511089432509e-01 +7.3498427296191586e+00 -9.2828916134190453e-01 -7.0797437370777615e+01 +5.9139365400630377e+03 +1.8405848932173345e+05 -3.1430284626893982e+07 
-7.8999999999999897e+00 -5.3691540931789428e-01 +7.3498436997945378e+00 -9.3250145075316881e-01 -7.0447151072647159e+01 +5.9593590802063827e+03 +1.8144256989118076e+05 -3.1563670326357987e+07 
-7.9999999999999902e+00 -5.3691572393517339e-01 +7.3498463228751092e+00 -9.3612475413062823e-01 -7.0148125381598859e+01 +5.9998341257231368e+03 +1.7909612539871476e+05 -3.1687958193376556e+07 
-8.0999999999999908e+00 -5.3691605578931645e-01 +7.3498506784803990e+00 -9.3911484170379866e-01 -6.9904022271131510e+01 +6.0350180034070499e+03 +1.7704075732134670e+05 -3.1802565453888729e+07 
-8.1999999999999904e+00 -5.3691640418808040e-01 +7.3498566796518814e+00 -9.4150518507396230e-01 -6.9713691022304602e+01 +6.0653187428756628e+03 +1.7527535371591468e+05 -3.1908921702541582e+07 
-8.2999999999999901e+00 -5.3691676800457599e-01 +7.3498641935705225e+00 -9.4334818325587533e-01 -6.9574619237905125e+01 +6.0913168230544707e+03 +1.7379219098859475e+05 -3.2008885754274152e+07 
-8.3999999999999897e+00 -5.3691714611190500e-01 +7.3498730874284295e+00 -9.4469623677320069e-01 -6.9484294726345539e+01 +6.1135927181566194e+03 +1.7258354644607470e+05 -3.2104316325459320e+07 
-8.4999999999999893e+00 -5.3691753738320136e-01 +7.3498832284308886e+00 -9.4560174404969410e-01 -6.9440205561145021e+01 +6.1327268430630565e+03 +1.7164169854797312e+05 -3.2197071805986341e+07 
-8.5999999999999908e+00 -5.3691794069149956e-01 +7.3498944837996412e+00 -9.4611710648556502e-01 -6.9439840174647159e+01 +6.1492996404775922e+03 +1.7095892743166891e+05 -3.2289010649560507e+07 
-8.6999999999999904e+00 -5.3691835490990480e-01 +7.3499067207739026e+00 -9.4629471796469544e-01 -6.9480687387680931e+01 +6.1638913848712891e+03 +1.7052751509020195e+05 -3.2381990448351037e+07 
-8.7999999999999794e+00 -5.3691877891146311e-01 +7.3499198066051123e+00 -9.4618697750786429e-01 -6.9560236243296714e+01 +6.1770824217757026e+03 +1.7033974435841211e+05 -3.2477869069732428e+07 
-8.8999999999999808e+00 -5.3691921156923939e-01 +7.3499336085609643e+00 -9.4584628236923229e-01 -6.9675976128763679e+01 +6.1894530336829466e+03 +1.7038789964277510e+05 -3.2578504010555346e+07 
-8.9999999999999805e+00 -5.3691965175627632e-01 +7.3499479939292023e+00 -9.4532502362974535e-01 -6.9825396869256053e+01 +6.2015833581197767e+03 +1.7066426740313682e+05 -3.2685752011856347e+07 
-9.0999999999999801e+00 -5.3692009834558052e-01 +7.3499628300132294e+00 -9.4467559774546850e-01 -7.0005988610329766e+01 +6.2140536037639022e+03 +1.7116113549982177e+05 -3.2801470076973338e+07 
-9.1999999999999797e+00 -5.3692055021014617e-01 +7.3499779841315238e+00 -9.4395039993973628e-01 -7.0215241786511100e+01 +6.2274439265101828e+03 +1.7187079296962067e+05 -3.2927514890226610e+07 
-9.2999999999999794e+00 -5.3692100622300065e-01 +7.3499933236270154e+00 -9.4320182225771454e-01 -7.0450647392175341e+01 +6.2423343910055373e+03 +1.7278553159247886e+05 -3.3065742624937851e+07 
-9.3999999999999808e+00 -5.3692146525710360e-01 +7.3500087158578440e+00 -9.4248225529889484e-01 -7.0709696700776448e+01 +6.2593049994498169e+03 +1.7389764421286358e+05 -3.3218009073807806e+07 
-9.4999999999999805e+00 -5.3692192618539492e-01 +7.3500240282015072e+00 -9.4184409310352935e-01 -7.0989881399105570e+01 +6.2789357896241700e+03 +1.7519942556891034e+05 -3.3386170126692563e+07 
-9.5999999999999801e+00 -5.3692238788083391e-01 +7.3500391280608026e+00 -9.4133972420014189e-01 -7.1288693733535140e+01 +6.3018066585076867e+03 +1.7668317305341593e+05 -3.3572080915630944e+07 
-9.6999999999999797e+00 -5.3692284921636690e-01 +7.3500538828498296e+00 -9.4102153927170828e-01 -7.1603626115737683e+01 +6.3284975102309800e+03 +1.7834118446387246e+05 -3.3777596524677664e+07 
-9.7999999999999794e+00 -5.3692330906487251e-01 +7.3500681600132420e+00 -9.4094192787462005e-01 -7.1932171666391724e+01 +6.3595881936013720e+03 +1.8016576110529786e+05 -3.4004571692974947e+07 
-9.8999999999999808e+00 -5.3692376629925243e-01 +7.3500818270134411e+00 -9.4115327667902149e-01 -7.2271823846000544e+01 +6.3956584635321615e+03 +1.8214920565340991e+05 -3.4254860617358536e+07 
-9.9999999999999805e+00 -5.3692421979239824e-01 +7.3500947513352033e+00 -9.4170797408311158e-01 -7.2620076542820982e+01 +6.4372880750394834e+03 +1.8428382236411632e+05 -3.4530317433678307e+07 
-1.0100000000000000e+01 -5.3692466871614730e-01 +7.3501068145560629e+00 -9.4264050241803266e-01 -7.2974153972813426e+01 +6.4847844746035362e+03 +1.8655770816759451e+05 -3.4831684631416000e+07 
