# field on trajectory
# s[mm] rx[mm] ry[mm] rz[mm] bx[T] by[T] bz[T]
0.0000000000000000e+00 +8.1529999999999987e+00 +0.0000000000000000e+00 +0.0000000000000000e+00 -3.0886527184454664e-02 -5.6477627942316977e-01 +5.5867980485184588e-03
1.0000000000000001e-01 +8.1529997169215562e+00 +0.0000000000000000e+00 +9.9999999999465794e-02 -3.0886582349404675e-02 -5.6477624850951536e-01 +5.5869012533815501e-03
2.0000000000000001e-01 +8.1529988676862484e+00 +0.0000000000000000e+00 +1.9999999999572621e-01 -3.0886646367403462e-02 -5.6477622636525249e-01 +5.5870104602766908e-03
3.0000000000000004e-01 +8.1529974522940964e+00 +0.0000000000000000e+00 +2.9999999998557597e-01 -3.0886718719490176e-02 -5.6477621262828837e-01 +5.5871253644234811e-03
4.0000000000000002e-01 +8.1529954707451147e+00 +0.0000000000000000e+00 +3.9999999996580970e-01 -3.0886798886706406e-02 -5.6477620693652442e-01 +5.5872456610427182e-03
5.0000000000000000e-01 +8.1529929230393083e+00 +0.0000000000000000e+00 +4.9999999993322214e-01 -3.0886886350095743e-02 -5.6477620892785863e-01 +5.5873710453562863e-03
5.9999999999999998e-01 +8.1529898091766775e+00 +0.0000000000000000e+00 +5.9999999988460795e-01 -3.0886980590703401e-02 -5.6477621824018498e-01 +5.5875012125871240e-03
6.9999999999999996e-01 +8.1529861291572114e+00 +0.0000000000000000e+00 +6.9999999981676164e-01 -3.0887081089575708e-02 -5.6477623451139447e-01 +5.5876358579591123e-03
7.9999999999999993e-01 +8.1529818829808942e+00 +0.0000000000000000e+00 +7.9999999972647806e-01 -3.0887187327759670e-02 -5.6477625737937587e-01 +5.5877746766970172e-03
8.9999999999999991e-01 +8.1529770706477027e+00 +0.0000000000000000e+00 +8.9999999961055177e-01 -3.0887298786302586e-02 -5.6477628648201605e-01 +5.5879173640264032e-03
9.9999999999999989e-01 +8.1529716921576085e+00 +0.0000000000000000e+00 +9.9999999946577744e-01 -3.0887414946251551e-02 -5.6477632145720102e-01 +5.5880636151735639e-03
1.0999999999999999e+00 +8.1529657475105761e+00 +0.0000000000000000e+00 +1.0999999992889498e+00 -3.0887535288653033e-02 -5.6477636194281666e-01 +5.5882131253654349e-03
1.2000000000000000e+00 +8.1529592367065664e+00 +0.0000000000000000e+00 +1.1999999990768633e+00 -3.0887659294552446e-02 -5.6477640757674841e-01 +5.5883655898295364e-03
1.3000000000000000e+00 +8.1529521597455314e+00 +0.0000000000000000e+00 +1.2999999988263129e+00 -3.0887786444993681e-02 -5.6477645799688325e-01 +5.5885207037938761e-03
1.4000000000000001e+00 +8.1529445166274233e+00 +0.0000000000000000e+00 +1.3999999985340932e+00 -3.0887916221018726e-02 -5.6477651284110930e-01 +5.5886781624868848e-03
1.5000000000000002e+00 +8.1529363073521868e+00 +0.0000000000000000e+00 +1.4999999981969987e+00 -3.0888048103667125e-02 -5.6477657174731721e-01 +5.5888376611373239e-03
1.6000000000000003e+00 +8.1529275319197616e+00 +0.0000000000000000e+00 +1.5999999978118240e+00 -3.0888181573975628e-02 -5.6477663435340020e-01 +5.5889988949742410e-03
1.7000000000000004e+00 +8.1529181903300874e+00 +0.0000000000000000e+00 +1.6999999973753639e+00 -3.0888316112977716e-02 -5.6477670029725480e-01 +5.5891615592268580e-03
1.8000000000000005e+00 +8.1529082825830983e+00 +0.0000000000000000e+00 +1.7999999968844131e+00 -3.0888451201703165e-02 -5.6477676921678233e-01 +5.5893253491245175e-03
1.9000000000000006e+00 +8.1528978086787234e+00 +0.0000000000000000e+00 +1.8999999963357663e+00 -3.0888586321177594e-02 -5.6477684074988832e-01 +5.5894899598965915e-03
2.0000000000000004e+00 +8.1528867686168933e+00 +0.0000000000000000e+00 +1.9999999957262180e+00 -3.0888720952422039e-02 -5.6477691453448398e-01 +5.5896550867724198e-03
2.1000000000000005e+00 +8.1528751623975335e+00 +0.0000000000000000e+00 +2.0999999950525630e+00 -3.0888854677264745e-02 -5.6477699023482852e-01 +5.5898204876563889e-03
2.2000000000000006e+00 +8.1528629900205694e+00 +0.0000000000000000e+00 +2.1999999943115958e+00 -3.0888987480780079e-02 -5.6477706762055579e-01 +5.5899861711535730e-03
2.3000000000000007e+00 +8.1528502514859227e+00 +0.0000000000000000e+00 +2.2999999935001108e+00 -3.0889119448856535e-02 -5.6477714648764310e-01 +5.5901522085444206e-03
2.4000000000000008e+00 +8.1528369467935153e+00 +0.0000000000000000e+00 +2.3999999926149029e+00 -3.0889250667385498e-02 -5.6477722663207042e-01 +5.5903186711095997e-03
2.5000000000000009e+00 +8.1528230759432674e+00 +0.0000000000000000e+00 +2.4999999916527669e+00 -3.0889381222261716e-02 -5.6477730784981894e-01 +5.5904856301299570e-03
2.6000000000000010e+00 +8.1528086389350989e+00 +0.0000000000000000e+00 +2.5999999906104971e+00 -3.0889511199383914e-02 -5.6477738993687188e-01 +5.5906531568865160e-03
2.7000000000000011e+00 +8.1527936357689264e+00 +0.0000000000000000e+00 +2.6999999894848887e+00 -3.0889640684655148e-02 -5.6477747268921441e-01 +5.5908213226604480e-03
2.8000000000000012e+00 +8.1527780664446681e+00 +0.0000000000000000e+00 +2.7999999882727358e+00 -3.0889769763983332e-02 -5.6477755590283352e-01 +5.5909901987330479e-03
2.9000000000000012e+00 +8.1527619309622423e+00 +0.0000000000000000e+00 +2.8999999869708333e+00 -3.0889898523281771e-02 -5.6477763937371772e-01 +5.5911598563857193e-03
3.0000000000000013e+00 +8.1527452293215639e+00 +0.0000000000000000e+00 +2.9999999855759758e+00 -3.0890027048469566e-02 -5.6477772289785744e-01 +5.5913303668999464e-03
3.1000000000000014e+00 +8.1527279615225510e+00 +0.0000000000000000e+00 +3.0999999840849579e+00 -3.0890155425472195e-02 -5.6477780627124541e-01 +5.5915018015572863e-03
3.2000000000000015e+00 +8.1527101275651201e+00 +0.0000000000000000e+00 +3.1999999824945742e+00 -3.0890283740221923e-02 -5.6477788928987604e-01 +5.5916742316393323e-03
3.3000000000000016e+00 +8.1526917274491879e+00 +0.0000000000000000e+00 +3.2999999808016192e+00 -3.0890412078658322e-02 -5.6477797174974553e-01 +5.5918477284277032e-03
3.4000000000000017e+00 +8.1526727611746743e+00 +0.0000000000000000e+00 +3.3999999790028879e+00 -3.0890540526728776e-02 -5.6477805344685317e-01 +5.5920223632040227e-03
3.5000000000000018e+00 +8.1526532287414959e+00 +0.0000000000000000e+00 +3.4999999770951744e+00 -3.0890669170388917e-02 -5.6477813417719824e-01 +5.5921982072498870e-03
3.6000000000000019e+00 +8.1526331301495745e+00 +0.0000000000000000e+00 +3.5999999750752738e+00 -3.0890798095603165e-02 -5.6477821373678383e-01 +5.5923753318468600e-03
3.7000000000000020e+00 +8.1526124653988283e+00 +0.0000000000000000e+00 +3.6999999729399806e+00 -3.0890927388345205e-02 -5.6477829192161433e-01 +5.5925538082764398e-03
3.8000000000000020e+00 +8.1525912344891811e+00 +0.0000000000000000e+00 +3.7999999706860894e+00 -3.0891057134598436e-02 -5.6477836852769603e-01 +5.5927337078200455e-03
3.9000000000000021e+00 +8.1525694374205582e+00 +0.0000000000000000e+00 +3.8999999683103947e+00 -3.0891187420356517e-02 -5.6477844335103777e-01 +5.5929151017589844e-03
4.0000000000000018e+00 +8.1525470741928832e+00 +0.0000000000000000e+00 +3.9999999658096916e+00 -3.0891318331623820e-02 -5.6477851618765085e-01 +5.5930980613744553e-03
4.1000000000000014e+00 +8.1525241448060850e+00 +0.0000000000000000e+00 +4.0999999631807738e+00 -3.0891449916459764e-02 -5.6477858702976103e-01 +5.5932826366890450e-03
4.2000000000000011e+00 +8.1525006492600927e+00 +0.0000000000000000e+00 +4.1999999604204366e+00 -3.0891582071099880e-02 -5.6477865665444715e-01 +5.5934687926920629e-03
4.3000000000000007e+00 +8.1524765875548368e+00 +0.0000000000000000e+00 +4.2999999575254746e+00 -3.0891714653805198e-02 -5.6477872603499346e-01 +5.5936564731163046e-03
4.4000000000000004e+00 +8.1524519596902500e+00 +0.0000000000000000e+00 +4.3999999544926824e+00 -3.0891847522814334e-02 -5.6477879614466964e-01 +5.5938456216968503e-03
4.5000000000000000e+00 +8.1524267656662612e+00 +0.0000000000000000e+00 +4.4999999513188547e+00 -3.0891980536342133e-02 -5.6477886795673415e-01 +5.5940361821711785e-03
4.5999999999999996e+00 +8.1524010054827993e+00 +0.0000000000000000e+00 +4.5999999480007858e+00 -3.0892113552578166e-02 -5.6477894244443205e-01 +5.5942280982792933e-03
4.6999999999999993e+00 +8.1523746791397897e+00 +0.0000000000000000e+00 +4.6999999445352705e+00 -3.0892246429685216e-02 -5.6477902058099350e-01 +5.5944213137638261e-03
4.7999999999999989e+00 +8.1523477866371561e+00 +0.0000000000000000e+00 +4.7999999409191032e+00 -3.0892379025797927e-02 -5.6477910333963366e-01 +5.5946157723701720e-03
4.8999999999999986e+00 +8.1523203279748166e+00 +0.0000000000000000e+00 +4.8999999371490786e+00 -3.0892511199021273e-02 -5.6477919169355240e-01 +5.5948114178466001e-03
4.9999999999999982e+00 +8.1522923031526826e+00 +0.0000000000000000e+00 +4.9999999332219920e+00 -3.0892642807429073e-02 -5.6477928661593280e-01 +5.5950081939443565e-03
5.0999999999999979e+00 +8.1522637121706598e+00 +0.0000000000000000e+00 +5.0999999291346372e+00 -3.0892773709062661e-02 -5.6477938907994041e-01 +5.5952060444178168e-03
5.1999999999999975e+00 +8.1522345550286470e+00 +0.0000000000000000e+00 +5.1999999248838087e+00 -3.0892903761929259e-02 -5.6477950005872335e-01 +5.5954049130245709e-03
5.2999999999999972e+00 +8.1522048317265341e+00 +0.0000000000000000e+00 +5.2999999204663020e+00 -3.0893032824000629e-02 -5.6477962052540975e-01 +5.5956047435255490e-03
5.3999999999999968e+00 +8.1521745422642002e+00 +0.0000000000000000e+00 +5.3999999158789107e+00 -3.0893160753211607e-02 -5.6477975145310966e-01 +5.5958054796851559e-03
5.4999999999999964e+00 +8.1521436866415140e+00 +0.0000000000000000e+00 +5.4999999111184295e+00 -3.0893287407458545e-02 -5.6477989381491123e-01 +5.5960070652713752e-03
5.5999999999999961e+00 +8.1521122648583351e+00 +0.0000000000000000e+00 +5.5999999061816537e+00 -3.0893412644598002e-02 -5.6478004858388309e-01 +5.5962094440558871e-03
5.6999999999999957e+00 +8.1520802769145089e+00 +0.0000000000000000e+00 +5.6999999010653770e+00 -3.0893536322445157e-02 -5.6478021673307055e-01 +5.5964125598141840e-03
5.7999999999999954e+00 +8.1520477228098684e+00 +0.0000000000000000e+00 +5.7999998957663950e+00 -3.0893658298772407e-02 -5.6478039923549717e-01 +5.5966163563257064e-03
5.8999999999999950e+00 +8.1520146025442308e+00 +0.0000000000000000e+00 +5.8999998902815012e+00 -3.0893778431307896e-02 -5.6478059706416250e-01 +5.5968207773739393e-03
5.9999999999999947e+00 +8.1519809161173988e+00 +0.0000000000000000e+00 +5.9999998846074911e+00 -3.0893896577734073e-02 -5.6478081119204271e-01 +5.5970257667465450e-03
6.0999999999999943e+00 +8.1519466635291593e+00 +0.0000000000000000e+00 +6.0999998787411585e+00 -3.0894012615905398e-02 -5.6478104222001302e-01 +5.5972312695779305e-03
6.1999999999999940e+00 +8.1519118447792813e+00 +0.0000000000000000e+00 +6.1999998726792978e+00 -3.0894126504535182e-02 -5.6478128926062299e-01 +5.5974372363737316e-03
6.2999999999999936e+00 +8.1518764598675197e+00 +0.0000000000000000e+00 +6.2999998664187045e+00 -3.0894238222591106e-02 -5.6478155105434202e-01 +5.5976436189781251e-03
6.3999999999999932e+00 +8.1518405087936117e+00 +0.0000000000000000e+00 +6.3999998599561723e+00 -3.0894347749085446e-02 -5.6478182634163676e-01 +5.5978503692303760e-03
6.4999999999999929e+00 +8.1518039915572835e+00 +0.0000000000000000e+00 +6.4999998532884957e+00 -3.0894455063077308e-02 -5.6478211386297350e-01 +5.5980574389645861e-03
6.5999999999999925e+00 +8.1517669081582476e+00 +0.0000000000000000e+00 +6.5999998464124694e+00 -3.0894560143674889e-02 -5.6478241235881699e-01 +5.5982647800094402e-03
6.6999999999999922e+00 +8.1517292585962071e+00 +0.0000000000000000e+00 +6.6999998393248879e+00 -3.0894662970037731e-02 -5.6478272056963175e-01 +5.5984723441879769e-03
6.7999999999999918e+00 +8.1516910428708531e+00 +0.0000000000000000e+00 +6.7999998320225457e+00 -3.0894763521378880e-02 -5.6478303723588108e-01 +5.5986800833173070e-03
6.8999999999999915e+00 +8.1516522609818711e+00 +0.0000000000000000e+00 +6.8999998245022374e+00 -3.0894861776967240e-02 -5.6478336109802851e-01 +5.5988879492083858e-03
6.9999999999999911e+00 +8.1516129129289361e+00 +0.0000000000000000e+00 +6.9999998167607576e+00 -3.0894957716129701e-02 -5.6478369089653735e-01 +5.5990958936657518e-03
7.0999999999999908e+00 +8.1515729987117194e+00 +0.0000000000000000e+00 +7.0999998087948999e+00 -3.0895051318253434e-02 -5.6478402537187111e-01 +5.5993038684872950e-03
7.1999999999999904e+00 +8.1515325183298870e+00 +0.0000000000000000e+00 +7.1999998006014598e+00 -3.0895142562788133e-02 -5.6478436326449344e-01 +5.5995118254639755e-03
7.2999999999999901e+00 +8.1514914717831015e+00 +0.0000000000000000e+00 +7.2999997921772311e+00 -3.0895231429248177e-02 -5.6478470331486819e-01 +5.5997197163796019e-03
7.3999999999999897e+00 +8.1514498590710236e+00 +0.0000000000000000e+00 +7.3999997835190081e+00 -3.0895317897214968e-02 -5.6478504426346099e-01 +5.5999274930105605e-03
7.4999999999999893e+00 +8.1514076801933140e+00 +0.0000000000000000e+00 +7.4999997746235856e+00 -3.0895401946339118e-02 -5.6478538485073759e-01 +5.6001351071255879e-03
7.5999999999999890e+00 +8.1513649351496316e+00 +0.0000000000000000e+00 +7.5999997654877580e+00 -3.0895483556342647e-02 -5.6478572381716552e-01 +5.6003425104854910e-03
7.6999999999999886e+00 +8.1513216239396371e+00 +0.0000000000000000e+00 +7.6999997561083191e+00 -3.0895562707021321e-02 -5.6478605990321373e-01 +5.6005496548429262e-03
7.7999999999999883e+00 +8.1512777465629966e+00 +0.0000000000000000e+00 +7.7999997464820643e+00 -3.0895639378246749e-02 -5.6478639184935231e-01 +5.6007564919421226e-03
7.8999999999999879e+00 +8.1512333030193798e+00 +0.0000000000000000e+00 +7.8999997366057872e+00 -3.0895713549968749e-02 -5.6478671839605410e-01 +5.6009629735186573e-03
7.9999999999999876e+00 +8.1511882933084578e+00 +0.0000000000000000e+00 +7.9999997264762825e+00 -3.0895785202217509e-02 -5.6478703828379329e-01 +5.6011690512991850e-03
8.0999999999999872e+00 +8.1511427174299147e+00 +0.0000000000000000e+00 +8.0999997160903447e+00 -3.0895854317948990e-02 -5.6478735051396822e-01 +5.6013747063481389e-03
8.1999999999999869e+00 +8.1510965753834377e+00 +0.0000000000000000e+00 +8.1999997054447675e+00 -3.0895920891544554e-02 -5.6478765513169460e-01 +5.6015800371134097e-03
8.2999999999999865e+00 +8.1510498671687213e+00 +0.0000000000000000e+00 +8.2999996945363463e+00 -3.0895984920225619e-02 -5.6478795244307367e-01 +5.6017851713920765e-03
8.3999999999999861e+00 +8.1510025927854706e+00 +0.0000000000000000e+00 +8.3999996833618749e+00 -3.0896046401201863e-02 -5.6478824275427419e-01 +5.6019902369841140e-03
8.4999999999999858e+00 +8.1509547522333961e+00 +0.0000000000000000e+00 +8.4999996719181485e+00 -3.0896105331670452e-02 -5.6478852637153487e-01 +5.6021953616925205e-03
8.5999999999999854e+00 +8.1509063455122153e+00 +0.0000000000000000e+00 +8.5999996602019610e+00 -3.0896161708815310e-02 -5.6478880360116546e-01 +5.6024006733234417e-03
8.6999999999999851e+00 +8.1508573726216511e+00 +0.0000000000000000e+00 +8.6999996482101061e+00 -3.0896215529806415e-02 -5.6478907474955020e-01 +5.6026062996862953e-03
8.7999999999999847e+00 +8.1508078335614336e+00 +0.0000000000000000e+00 +8.7999996359393791e+00 -3.0896266791799028e-02 -5.6478934012314863e-01 +5.6028123685938919e-03
8.8999999999999844e+00 +8.1507577283312980e+00 +0.0000000000000000e+00 +8.8999996233865737e+00 -3.0896315491933043e-02 -5.6478960002849865e-01 +5.6030190078625681e-03
8.9999999999999840e+00 +8.1507070569309850e+00 +0.0000000000000000e+00 +8.9999996105484854e+00 -3.0896361627332159e-02 -5.6478985477221832e-01 +5.6032263453122963e-03
9.0999999999999837e+00 +8.1506558193602405e+00 +0.0000000000000000e+00 +9.0999995974219079e+00 -3.0896405195103279e-02 -5.6479010466100821e-01 +5.6034345087668334e-03
9.1999999999999833e+00 +8.1506040156188178e+00 +0.0000000000000000e+00 +9.1999995840036348e+00 -3.0896446192335645e-02 -5.6479035000165312e-01 +5.6036436260538166e-03
9.2999999999999829e+00 +8.1505516457064697e+00 +0.0000000000000000e+00 +9.2999995702904616e+00 -3.0896484616100214e-02 -5.6479059110102425e-01 +5.6038538250049097e-03
9.3999999999999826e+00 +8.1504987096229584e+00 +0.0000000000000000e+00 +9.3999995562791820e+00 -3.0896520463448904e-02 -5.6479082826608140e-01 +5.6040652334559161e-03
9.4999999999999822e+00 +8.1504452073680476e+00 +0.0000000000000000e+00 +9.4999995419665915e+00 -3.0896553731413864e-02 -5.6479106180387573e-01 +5.6042779792469044e-03
9.5999999999999819e+00 +8.1503911389415045e+00 +0.0000000000000000e+00 +9.5999995273494836e+00 -3.0896584417006764e-02 -5.6479129202155076e-01 +5.6044921902223335e-03
9.6999999999999815e+00 +8.1503365043430982e+00 +0.0000000000000000e+00 +9.6999995124246521e+00 -3.0896612517218064e-02 -5.6479151922634574e-01 +5.6047079942311753e-03
9.7999999999999812e+00 +8.1502813035726049e+00 +0.0000000000000000e+00 +9.7999994971888924e+00 -3.0896638029016297e-02 -5.6479174372559615e-01 +5.6049255191270419e-03
9.8999999999999808e+00 +8.1502255366298009e+00 +0.0000000000000000e+00 +9.8999994816389982e+00 -3.0896660949347336e-02 -5.6479196582673741e-01 +5.6051448927683005e-03
9.9999999999999805e+00 +8.1501692035144657e+00 +0.0000000000000000e+00 +9.9999994657717632e+00 -3.0896681275133696e-02 -5.6479218583730584e-01 +5.6053662430182024e-03
1.0099999999999980e+01 +8.1501123042263792e+00 +0.0000000000000000e+00 +1.0099999449583983e+01 -3.0896699053246629e-02 -5.6479240414888754e-01 +5.6055896367747503e-03
1.0199999999999980e+01 +8.1500548387653247e+00 +0.0000000000000000e+00 +1.0199999433072453e+01 -3.0896714530414929e-02 -5.6479262148889986e-01 +5.6058148970521762e-03
1.0299999999999979e+01 +8.1499968071310871e+00 +0.0000000000000000e+00 +1.0299999416233964e+01 -3.0896728003282123e-02 -5.6479283866864416e-01 +5.6060417858867723e-03
1.0399999999999979e+01 +8.1499382093234498e+00 +0.0000000000000000e+00 +1.0399999399065313e+01 -3.0896739768427415e-02 -5.6479305649933897e-01 +5.6062700653079466e-03
1.0499999999999979e+01 +8.1498790453421961e+00 +0.0000000000000000e+00 +1.0499999381563295e+01 -3.0896750122364047e-02 -5.6479327579211824e-01 +5.6064994973380805e-03
1.0599999999999978e+01 +8.1498193151871092e+00 +0.0000000000000000e+00 +1.0599999363724704e+01 -3.0896759361537632e-02 -5.6479349735802942e-01 +5.6067298439923547e-03
1.0699999999999978e+01 +8.1497590188579672e+00 +0.0000000000000000e+00 +1.0699999345546333e+01 -3.0896767782324547e-02 -5.6479372200802980e-01 +5.6069608672786007e-03
1.0799999999999978e+01 +8.1496981563545479e+00 +0.0000000000000000e+00 +1.0799999327024976e+01 -3.0896775681030240e-02 -5.6479395055298465e-01 +5.6071923291971196e-03
1.0899999999999977e+01 +8.1496367276766239e+00 +0.0000000000000000e+00 +1.0899999308157428e+01 -3.0896783353887611e-02 -5.6479418380366486e-01 +5.6074239917405407e-03
1.0999999999999977e+01 +8.1495747328239627e+00 +0.0000000000000000e+00 +1.0999999288940483e+01 -3.0896791097055384e-02 -5.6479442257074430e-01 +5.6076556168936521e-03
1.1099999999999977e+01 +8.1495121717963261e+00 +0.0000000000000000e+00 +1.1099999269370937e+01 -3.0896799206616452e-02 -5.6479466766479747e-01 +5.6078869666332373e-03
1.1199999999999976e+01 +8.1494490445934726e+00 +0.0000000000000000e+00 +1.1199999249445582e+01 -3.0896807978576205e-02 -5.6479491989629771e-01 +5.6081178029279283e-03
1.1299999999999976e+01 +8.1493853512151500e+00 +0.0000000000000000e+00 +1.1299999229161214e+01 -3.0896817708860911e-02 -5.6479518007561225e-01 +5.6083478877380251e-03
1.1399999999999975e+01 +8.1493210916610987e+00 +0.0000000000000000e+00 +1.1399999208514627e+01 -3.0896828693316072e-02 -5.6479544901300371e-01 +5.6085769830153624e-03
1.1499999999999975e+01 +8.1492562659310526e+00 +0.0000000000000000e+00 +1.1499999187502615e+01 -3.0896841227704776e-02 -5.6479572751862428e-01 +5.6088048507031227e-03
1.1599999999999975e+01 +8.1491908740247343e+00 +0.0000000000000000e+00 +1.1599999166121972e+01 -3.0896855607706056e-02 -5.6479601640251476e-01 +5.6090312527357009e-03
1.1699999999999974e+01 +8.1491249159418544e+00 +0.0000000000000000e+00 +1.1699999144369492e+01 -3.0896872128913181e-02 -5.6479631647460160e-01 +5.6092559510385279e-03
1.1799999999999974e+01 +8.1490583916821162e+00 +0.0000000000000000e+00 +1.1799999122241971e+01 -3.0896891086832117e-02 -5.6479662854469581e-01 +5.6094787075279297e-03
