# multipoles
# s[mm] polynom_b[n=0][T/m^n] polynom_b[n=1][T/m^n] polynom_b[n=2][T/m^n] polynom_b[n=3][T/m^n] polynom_b[n=4][T/m^n] polynom_b[n=5][T/m^n] polynom_b[n=6][T/m^n] 
+0.0000000000000000e+00 -5.3646364146138503e-01 +7.3458010557021787e+00 -9.3025132614819789e-02 +5.5427778557349271e+01 -3.6550609925490068e+02 -3.9876172169527551e+05 -9.9430379753951635e+06 
+1.0000000000000001e-01 -5.3646365349760805e-01 +7.3457729833104324e+00 -9.7934569599466961e-02 +5.5855189361653103e+01 -2.8655348102271904e+02 -3.9975753185517673e+05 -1.0269345141329754e+07 
+2.0000000000000001e-01 -5.3646367147004670e-01 +7.3457444511462580e+00 -1.0204615451965156e-01 +5.6312422315111306e+01 -2.2171321492997416e+02 -4.0104094925286848e+05 -1.0534165943300942e+07 
+2.9999999999999999e-01 -5.3646369551266315e-01 +7.3457155237905267e+00 -1.0538576411930031e-01 +5.6796036971281680e+01 -1.7038304423819972e+02 -4.0258468990443391e+05 -1.0740553830741284e+07 
+4.0000000000000002e-01 -5.3646372575941581e-01 +7.3456862658245932e+00 -1.0797927835068306e-01 +5.7302592876087253e+01 -1.3196064604094553e+02 -4.0436146976584685e+05 -1.0891562572379645e+07 
+5.0000000000000000e-01 -5.3646376234420157e-01 +7.3456567418230740e+00 -1.0985257421885047e-01 +5.7828649777369527e+01 -1.0584375378322316e+02 -4.0634400595077028e+05 -1.0990245662578873e+07 
+5.9999999999999998e-01 -5.3646380540095828e-01 +7.3456270163633937e+00 -1.1103153139724800e-01 +5.8370767336679222e+01 -9.1430042274063439e+01 -4.0850501502690162e+05 -1.1039656889601685e+07 
+6.9999999999999996e-01 -5.3646385506370275e-01 +7.3455971540125677e+00 -1.1154202943790550e-01 +5.8925505530979549e+01 -8.8117188848353365e+01 -4.1081721538937953e+05 -1.1042850024666982e+07 
+8.0000000000000004e-01 -5.3646391146628192e-01 +7.3455672193406931e+00 -1.1140994893196240e-01 +5.9489424228198210e+01 -9.5302849142845986e+01 -4.1325332471543434e+05 -1.1002878946265886e+07 
+9.0000000000000002e-01 -5.3646397474266361e-01 +7.3455372769117480e+00 -1.1066116955687887e-01 +6.0059083490822715e+01 -1.1238468990354251e+02 -4.1578606181915989e+05 -1.0922797494201157e+07 
+1.0000000000000000e+00 -5.3646404502679990e-01 +7.3455073912848290e+00 -1.0932157231569271e-01 +6.0631043495362299e+01 -1.3876035593153827e+02 -4.1838814605889039e+05 -1.0805659603981029e+07 
+1.1000000000000001e+00 -5.3646412245258168e-01 +7.3454776270213795e+00 -1.0741703619607505e-01 +6.1201864361266040e+01 -1.7382752496967879e+02 -4.2103229645618354e+05 -1.0654519070321325e+07 
+1.2000000000000000e+00 -5.3646420715400456e-01 +7.3454480486742408e+00 -1.0497344016131058e-01 +6.1768106436386006e+01 -2.1698387680579123e+02 -4.2369123325992009e+05 -1.0472429676195392e+07 
+1.3000000000000000e+00 -5.3646429926494266e-01 +7.3454187207961246e+00 -1.0201666499188708e-01 +6.2326330066564338e+01 -2.6762705437334898e+02 -4.2633767664692691e+05 -1.0262445390383627e+07 
+1.3999999999999999e+00 -5.3646439891940279e-01 +7.3453897079372794e+00 -9.8572584622227150e-02 +6.2873095653304645e+01 -3.2515483216383683e+02 -4.2894434703280148e+05 -1.0027619556204719e+07 
+1.5000000000000000e+00 -5.3646450625133857e-01 +7.3453610746438098e+00 -9.4667079399715928e-02 +6.3404963700469139e+01 -3.8896486137349763e+02 -4.3148396533413930e+05 -9.7710061153841484e+06 
+1.6000000000000001e+00 -5.3646462139469997e-01 +7.3453328854581228e+00 -9.0326023329346694e-02 +6.3918494805527509e+01 -4.5845491480331276e+02 -4.3392925292866380e+05 -9.4956584344016891e+06 
+1.7000000000000000e+00 -5.3646474448342840e-01 +7.3453052049184802e+00 -8.5575290817217528e-02 +6.4410249663501958e+01 -5.3302275992882710e+02 -4.3625293165056629e+05 -9.2046299086801037e+06 
+1.8000000000000000e+00 -5.3646487565154954e-01 +7.3452780975667542e+00 -8.0440755694962507e-02 +6.4876788847448495e+01 -6.1206617373952975e+02 -4.3842772253553203e+05 -8.9009739031821340e+06 
+1.8999999999999999e+00 -5.3646501503302302e-01 +7.3452516279362854e+00 -7.4948286097630115e-02 +6.5314673145236171e+01 -6.9498304558239363e+02 -4.4042634771906497e+05 -8.5877432479634862e+06 
+2.0000000000000000e+00 -5.3646516276187839e-01 +7.3452258605554457e+00 -6.9123754130503229e-02 +6.5720463476326259e+01 -7.8117118986226694e+02 -4.4222153003045358e+05 -8.2679911430606497e+06 
+2.1000000000000001e+00 -5.3646531884163828e-01 +7.3452008525324430e+00 -6.2997467309786587e-02 +6.6091677213783484e+01 -8.7002837899749352e+02 -4.4379363878306566e+05 -7.9445377507553780e+06 
+2.2000000000000002e+00 -5.3646548277333661e-01 +7.3451766301518608e+00 -5.6617283895158868e-02 +6.6429587003892578e+01 -9.6094983490057950e+02 -4.4515293925280578e+05 -7.6192883467404479e+06 
+2.2999999999999998e+00 -5.3646565393706525e-01 +7.3451532117520157e+00 -5.0035385928099946e-02 +6.6736386735563954e+01 -1.0533298566308190e+03 -4.4631700256740657e+05 -7.2939225234450325e+06 
+2.3999999999999999e+00 -5.3646583171300688e-01 +7.3451306156708940e+00 -4.3303954220324965e-02 +6.7014270308525610e+01 -1.1465627671821624e+03 -4.4730339999017329e+05 -6.9701197526938282e+06 
+2.5000000000000000e+00 -5.3646601548123585e-01 +7.3451088602549968e+00 -3.6475174311144790e-02 +6.7265431394440995e+01 -1.2400427940927480e+03 -4.4812970158721635e+05 -6.6495599706716333e+06 
+2.6000000000000001e+00 -5.3646620462189099e-01 +7.3450879638549189e+00 -2.9601227420131698e-02 +6.7492063571654455e+01 -1.3331642446493618e+03 -4.4881347704895900e+05 -6.3339227348372834e+06 
+2.7000000000000002e+00 -5.3646639851509215e-01 +7.3450679448240157e+00 -2.2734297886996054e-02 +6.7696360351990336e+01 -1.4253213646199192e+03 -4.4937229580935324e+05 -6.0248878941708701e+06 
+2.7999999999999998e+00 -5.3646659654096018e-01 +7.3450488215244949e+00 -1.5926570797247665e-02 +6.7880515018529067e+01 -1.5159083828116209e+03 -4.4982372617307014e+05 -5.7241353772403542e+06 
+2.8999999999999999e+00 -5.3646679807963094e-01 +7.3450306123252727e+00 -9.2302304651845080e-03 +6.8046720682610811e+01 -1.6043195370609164e+03 -4.5018533562862716e+05 -5.4333450769238546e+06 
+3.0000000000000000e+00 -5.3646700251121260e-01 +7.3450133356017417e+00 -2.6974655171321522e-03 +6.8197170308818400e+01 -1.6899489804584316e+03 -4.5047469105881092e+05 -5.1541972868930595e+06 
+3.1000000000000001e+00 -5.3646720921585633e-01 +7.3449970097372326e+00 +3.6195397219751227e-03 +6.8334056650368240e+01 -1.7721909448417705e+03 -4.5070935831517942e+05 -4.8883719224220505e+06 
+3.2000000000000002e+00 -5.3646741757365835e-01 +7.3449816531242771e+00 +9.6685930910323289e-03 +6.8459572236102815e+01 -1.8504395086282186e+03 -4.5090690222863405e+05 -4.6375496308725737e+06 
+3.2999999999999998e+00 -5.3646762696476369e-01 +7.3449672841657749e+00 +1.5397506803992317e-02 +6.8575909330609178e+01 -1.9240888266082209e+03 -4.5108488635200873e+05 -4.4034107006566217e+06 
+3.3999999999999999e+00 -5.3646783676929277e-01 +7.3449539212740440e+00 +2.0754089369227621e-02 +6.8685259961712973e+01 -1.9925329829197949e+03 -4.5126087315289199e+05 -4.1876357438082481e+06 
+3.5000000000000000e+00 -5.3646804636735745e-01 +7.3449415828710070e+00 +2.5686146195927063e-02 +6.8789815931120856e+01 -2.0551659926962152e+03 -4.5145242411105888e+05 -3.9919057136418554e+06 
+3.6000000000000001e+00 -5.3646825513911134e-01 +7.3449302873932316e+00 +3.0141483604120646e-02 +6.8891768653059685e+01 -2.1113818873932369e+03 -4.5167709876667993e+05 -3.8179014728965545e+06 
+3.7000000000000002e+00 -5.3646846246461888e-01 +7.3449200532852004e+00 +3.4067904994473576e-02 +6.8993309366772422e+01 -2.1605746353554437e+03 -4.5195245600100158e+05 -3.6673041887019100e+06 
+3.7999999999999998e+00 -5.3646866772403312e-01 +7.3449108990070187e+00 +3.7413213273156658e-02 +6.9096628904596770e+01 -2.2021381898281070e+03 -4.5229605268702906e+05 -3.5417950985189565e+06 
+3.8999999999999999e+00 -5.3646887029749257e-01 +7.3449028430317664e+00 +4.0125208278678930e-02 +6.9203917779087334e+01 -2.2354664443739020e+03 -4.5272544422517647e+05 -3.4430557082219073e+06 
+4.0000000000000000e+00 -5.3646906956505269e-01 +7.3448959038449733e+00 +4.2151686882536787e-02 +6.9317366208782303e+01 -2.2599532207796819e+03 -4.5325818478228181e+05 -3.3727678930813516e+06 
+4.0999999999999996e+00 -5.3646926503870263e-01 +7.3448900841585774e+00 +4.3456107395967739e-02 +6.9438882910055057e+01 -2.2751829774164294e+03 -4.5390896976164897e+05 -3.3320455346755199e+06 
+4.2000000000000002e+00 -5.3646945671422597e-01 +7.3448853288814977e+00 +4.4059922534983136e-02 +6.9569189813285163e+01 -2.2814393689716726e+03 -4.5468073239955475e+05 -3.3199449512266438e+06 
+4.2999999999999998e+00 -5.3646964469853764e-01 +7.3448815697050174e+00 +4.3998005064590374e-02 +6.9708699893391184e+01 -2.2791661026512020e+03 -4.5557340777340427e+05 -3.3350584829110801e+06 
+4.4000000000000004e+00 -5.3646982909845220e-01 +7.3448787383173624e+00 +4.3305229400471545e-02 +6.9857826204350872e+01 -2.2688069249429609e+03 -4.5658693133925990e+05 -3.3759782574404329e+06 
+4.5000000000000000e+00 -5.3647001002088401e-01 +7.3448767664100192e+00 +4.2016469405355431e-02 +7.0016981682405557e+01 -2.2508055730348678e+03 -4.5772123774009279e+05 -3.4412964410734111e+06 
+4.5999999999999996e+00 -5.3647018757264808e-01 +7.3448755856656396e+00 +4.0166599553450845e-02 +7.0186579500751591e+01 -2.2256057946563596e+03 -4.5897626286737953e+05 -3.5296051485930197e+06 
+4.7000000000000002e+00 -5.3647036186064490e-01 +7.3448751277710285e+00 +3.7790492726231299e-02 +7.0367032695087929e+01 -2.1936513155386824e+03 -4.6035194168433850e+05 -3.6394965736010028e+06 
+4.7999999999999998e+00 -5.3647053299167469e-01 +7.3448753244045406e+00 +3.4923022262463570e-02 +7.0558754521302347e+01 -2.1553858668089010e+03 -4.6184821027868881e+05 -3.7695628906935318e+06 
+4.9000000000000004e+00 -5.3647070107263484e-01 +7.3448761072447093e+00 +3.1599061127261678e-02 +7.0762158200823762e+01 -2.1112531792936252e+03 -4.6346500435474317e+05 -3.9183962535641342e+06 
+5.0000000000000000e+00 -5.3647086621031059e-01 +7.3448774079640033e+00 +2.7853481924227534e-02 +7.0977657109966415e+01 -2.0616969785646534e+03 -4.6520226035397738e+05 -4.0845888348804712e+06 
+5.0999999999999996e+00 -5.3647102851159334e-01 +7.3448791582339235e+00 +2.3721157680954095e-02 +7.1205664619685535e+01 -2.0071610031163325e+03 -4.6705991448300140e+05 -4.2667327274636012e+06 
+5.2000000000000002e+00 -5.3647118808328031e-01 +7.3448812897196030e+00 +1.9236960244279174e-02 +7.1446594260030807e+01 -1.9480889711112368e+03 -4.6903790367405623e+05 -4.4634201155685233e+06 
+5.2999999999999998e+00 -5.3647134503220495e-01 +7.3448837340813276e+00 +1.4435763325150936e-02 +7.1700859661213116e+01 -1.8849246427848366e+03 -4.7113616520402866e+05 -4.6732429604682997e+06 
+5.4000000000000004e+00 -5.3647149946518013e-01 +7.3448864229755140e+00 +9.3524384872444178e-03 +7.1968874539961533e+01 -1.8181117385432019e+03 -4.7335463663866255e+05 -4.8947934090661928e+06 
+5.5000000000000000e+00 -5.3647165148899223e-01 +7.3448892880507026e+00 +4.0218582577405716e-03 +7.2251052792905298e+01 -1.7480940039915633e+03 -4.7569325631085760e+05 -5.1266634678619923e+06 
+5.5999999999999996e+00 -5.3647180121049254e-01 +7.3448922609547900e+00 -1.5211061856161101e-03 +7.2547808312570126e+01 -1.6753151630433481e+03 -4.7815196230984689e+05 -5.3674452322460962e+06 
+5.7000000000000002e+00 -5.3647194873646009e-01 +7.3448952733231394e+00 -7.2415817519264694e-03 +7.2859555299533909e+01 -1.6002189815201227e+03 -4.8073069419617561e+05 -5.6157305829790533e+06 
+5.7999999999999998e+00 -5.3647209417368547e-01 +7.3448982567895529e+00 -1.3104696580681925e-02 +7.3186707968057846e+01 -1.5232492065440865e+03 -4.8342939135653741e+05 -5.8701114739426263e+06 
+5.9000000000000004e+00 -5.3647223762894325e-01 +7.3449011429794782e+00 -1.9075579753288913e-02 +7.3529680726474794e+01 -1.4448495726998294e+03 -4.8624799398682703e+05 -6.1291799036746360e+06 
+5.9999999999999902e+00 -5.3647237920903046e-01 +7.3449038635117416e+00 -2.5119357702073328e-02 +7.3888888007943777e+01 -1.3654638854604877e+03 -4.8918644200509670e+05 -6.3915274783059880e+06 
+6.0999999999999899e+00 -5.3647251909632265e-01 +7.3449063807415813e+00 -3.1207128502369605e-02 +7.4263905604512772e+01 -1.2854500756691093e+03 -4.9223995740749344e+05 -6.6560645769301876e+06 
+6.1999999999999904e+00 -5.3647265773833086e-01 +7.3449087693323909e+00 -3.7331333483270092e-02 +7.4651425938201641e+01 -1.2048484762859855e+03 -4.9538770753939782e+05 -6.9229243279558541e+06 
+6.2999999999999901e+00 -5.3647279564059425e-01 +7.3449111295981293e+00 -4.3489196438534480e-02 +7.5047519780497282e+01 -1.1236261770208889e+03 -4.9860543209147529e+05 -7.1925305878650760e+06 
+6.3999999999999897e+00 -5.3647293330870527e-01 +7.3449135618481893e+00 -4.9677934254810596e-02 +7.5448258012360384e+01 -1.0417503923814518e+03 -5.0186887128003431e+05 -7.4653066575149754e+06 
+6.4999999999999902e+00 -5.3647307124826360e-01 +7.3449161663901270e+00 -5.5894762924631379e-02 +7.5849711559337848e+01 -9.5918834663948803e+02 -5.0515376551041502e+05 -7.7416758316762634e+06 
+6.5999999999999899e+00 -5.3647320996489967e-01 +7.3449190435259650e+00 -6.2136894107892748e-02 +7.6247951500796759e+01 -8.7590734230341752e+02 -5.0843585600181745e+05 -8.0220610654443884e+06 
+6.6999999999999904e+00 -5.3647334996427154e-01 +7.3449222935543412e+00 -6.8401535443983086e-02 +7.6639048992055081e+01 -7.9187475371916207e+02 -5.1169088431363570e+05 -8.3068850082115345e+06 
+6.7999999999999901e+00 -5.3647349175206882e-01 +7.3449260167706960e+00 -7.4685893756550575e-02 +7.7019075268867127e+01 -7.0705796290190904e+02 -5.1489459237321094e+05 -8.5965703184954934e+06 
+6.8999999999999897e+00 -5.3647363583396546e-01 +7.3449303134657846e+00 -8.0987167455563822e-02 +7.7384101692580074e+01 -6.2142450533325427e+02 -5.1802272275678260e+05 -8.8915389669943471e+06 
+6.9999999999999902e+00 -5.3647378271571000e-01 +7.3449352839278328e+00 -8.7302555124385492e-02 +7.7730199681660096e+01 -5.3494190902487333e+02 -5.2105101827284542e+05 -9.1922129961221814e+06 
+7.0999999999999899e+00 -5.3647393290307877e-01 +7.3449410284400649e+00 -9.3629248654862954e-02 +7.8053440788513456e+01 -4.4757781856925266e+02 -5.2395522241409251e+05 -9.4990139488951266e+06 
+7.1999999999999904e+00 -5.3647408690184584e-01 +7.3449476472783521e+00 -9.9964438908693845e-02 +7.8349896762106582e+01 -3.5929989574206473e+02 -5.2671107970780833e+05 -9.8123633229018841e+06 
+7.2999999999999901e+00 -5.3647424521787879e-01 +7.3449552407206795e+00 -1.0630530858181093e-01 +7.8615639268017802e+01 -2.7007594724509551e+02 -5.2929433407612424e+05 -1.0132681981014729e+07 
+7.3999999999999897e+00 -5.3647440835697568e-01 +7.3449639090316632e+00 -1.1264903843651106e-01 +7.8846740357626231e+01 -1.7987381026298104e+02 -5.3168073161159444e+05 -1.0460390688388251e+07 
+7.4999999999999902e+00 -5.3647457682507027e-01 +7.3449737524805405e+00 -1.1899280505948324e-01 +7.9039271923294805e+01 -8.8661394877773617e+01 -5.3384601735003188e+05 -1.0795909910206012e+07 
+7.5999999999999899e+00 -5.3647475112804843e-01 +7.3449848713226329e+00 -1.2533377735203921e-01 +7.9189306244528822e+01 +3.5932526407114667e+00 -5.3576593846026156e+05 -1.1139659524003509e+07 
+7.6999999999999904e+00 -5.3647493177186734e-01 +7.3449973658146135e+00 -1.3166912451547758e-01 +7.9292915553405706e+01 +9.6922097380226944e+01 -5.3741624174857175e+05 -1.1492059508171527e+07 
+7.7999999999999901e+00 -5.3647511926254687e-01 +7.3450113362049239e+00 -1.3799600451522584e-01 +7.9346172296652753e+01 +1.9135690077662454e+02 -5.3877267512908438e+05 -1.1853528931026382e+07 
+7.8999999999999897e+00 -5.3647531410612970e-01 +7.3450268827372156e+00 -1.4431157470298703e-01 +7.9345149045444245e+01 +2.8692941911093754e+02 -5.3981098712555331e+05 -1.2224486890934253e+07 
+7.9999999999999902e+00 -5.3647551680863681e-01 +7.3450441056444475e+00 -1.5061298586717847e-01 +7.9285918946354357e+01 +3.8367132660637168e+02 -5.4050692948329437e+05 -1.2605352216067046e+07 
+8.0999999999999908e+00 -5.3647572777075503e-01 +7.3450630487334418e+00 -1.5689126008221174e-01 +7.9166447265404017e+01 +4.8147317344137775e+02 -5.4084715138951305e+05 -1.2995819635918545e+07 
+8.1999999999999904e+00 -5.3647594703186430e-01 +7.3450835555253482e+00 -1.6311645780245013e-01 +7.8991226563625517e+01 +5.7971158856194063e+02 -5.4085591511209321e+05 -1.3392885652522255e+07 
+8.2999999999999901e+00 -5.3647617455397445e-01 +7.3451054250565271e+00 -1.6925413180675228e-01 +7.8766165143368212e+01 +6.7764643502865545e+02 -5.4056564918256213e+05 -1.3792921466833297e+07 
+8.3999999999999897e+00 -5.3647641029898263e-01 +7.3451284563603618e+00 -1.7526983889139866e-01 +7.8497171465330453e+01 +7.7453764099500540e+02 -5.4000878330325987e+05 -1.4192298536885412e+07 
+8.4999999999999893e+00 -5.3647665422883506e-01 +7.3451524484638657e+00 -1.8112914187776771e-01 +7.8190154264249713e+01 +8.6964522847856449e+02 -5.3921774906167155e+05 -1.4587388689016994e+07 
+8.5999999999999908e+00 -5.3647690630532796e-01 +7.3451772003843576e+00 -1.8679760835812195e-01 +7.7851022629710641e+01 +9.6222929114713190e+02 -5.3822498037160945e+05 -1.4974564014042361e+07 
+8.6999999999999904e+00 -5.3647716649032029e-01 +7.3452025111375336e+00 -1.9224081055576678e-01 +7.7485685787896713e+01 +1.0515499929196558e+03 -5.3706291223919007e+05 -1.5350196865803281e+07 
+8.7999999999999794e+00 -5.3647743474554033e-01 +7.3452281797301993e+00 -1.9742432668285859e-01 +7.7100053310274106e+01 +1.1368675939996519e+03 -5.3576398198065348e+05 -1.5710659982266465e+07 
+8.8999999999999808e+00 -5.3647771103266706e-01 +7.3452540051654491e+00 -2.0231373953111967e-01 +7.6700034972916001e+01 +1.2174424184310703e+03 -5.3436062842577626e+05 -1.6052326317789145e+07 
+8.9999999999999805e+00 -5.3647799531340679e-01 +7.3452797864363095e+00 -2.0687463846335541e-01 +7.6291540927245919e+01 +1.2925348964628092e+03 -5.3288529288052535e+05 -1.6371569251365231e+07 
+9.0999999999999801e+00 -5.3647828754932536e-01 +7.3453053225297049e+00 -2.1107261908358993e-01 +7.5880481604616435e+01 +1.3614055573176822e+03 -5.3137041862896655e+05 -1.6664762554959049e+07 
+9.1999999999999797e+00 -5.3647858770194612e-01 +7.3453304124267742e+00 -2.1487328165357220e-01 +7.5472767695503052e+01 +1.4233149950043869e+03 -5.2984845077997353e+05 -1.6928280213861253e+07 
+9.2999999999999794e+00 -5.3647889573279428e-01 +7.3453548551027552e+00 -2.1824223493304326e-01 +7.5074310169176414e+01 +1.4775239422842847e+03 -5.2835183642740920e+05 -1.7158496782855280e+07 
+9.3999999999999808e+00 -5.3647921160328116e-01 +7.3453784495213830e+00 -2.2114509161897064e-01 +7.4691020430218131e+01 +1.5232931868739836e+03 -5.2691302554708638e+05 -1.7351786993643384e+07 
+9.4999999999999805e+00 -5.3647953527475012e-01 +7.3454009946459093e+00 -2.2354747133766395e-01 +7.4328809999207806e+01 +1.5598836216950344e+03 -5.2556446915148094e+05 -1.7504525976237010e+07 
+9.5999999999999801e+00 -5.3647986670854952e-01 +7.3454222894233876e+00 -2.2541500302484863e-01 +7.3993590978987669e+01 +1.5865562968580898e+03 -5.2433862201577832e+05 -1.7613089521067135e+07 
+9.6999999999999797e+00 -5.3648020586586476e-01 +7.3454421328022788e+00 -2.2671332075136383e-01 +7.3691275544586318e+01 +1.6025723308907336e+03 -5.2326793972882902e+05 -1.7673853633933619e+07 
+9.7999999999999794e+00 -5.3648055270793149e-01 +7.3454603237167797e+00 -2.2740806521256701e-01 +7.3427776387486631e+01 +1.6071929462755006e+03 -5.2238488124914380e+05 -1.7683194721180812e+07 
+9.8999999999999808e+00 -5.3648090719583141e-01 +7.3454766610959989e+00 -2.2746488518606287e-01 +7.3209006474924465e+01 +1.5996794923902867e+03 -5.2172190756796964e+05 -1.7637489685809061e+07 
+9.9999999999999805e+00 -5.3648126929056228e-01 +7.3454909438642764e+00 -2.2684944491440082e-01 +7.3040878634943127e+01 +1.5792935459120692e+03 -5.2131147815058264e+05 -1.7533116241316590e+07 
+1.0100000000000000e+01 -5.3648163893886669e-01 +7.3455030364303360e+00 -2.2554262255620208e-01 +7.2927197179032063e+01 +1.5456234629392548e+03 -5.2117395212857274e+05 -1.7368004642423294e+07 
