# field on trajectory
# s[mm] rx[mm] ry[mm] rz[mm] bx[T] by[T] bz[T]
0.0000000000000000e+00 +8.1529999999999987e+00 +0.0000000000000000e+00 +0.0000000000000000e+00 -3.1031333865552988e-02 -5.9306466530104907e-01 +5.9489726893931149e-03
1.0000000000000001e-01 +8.1529997166886155e+00 +0.0000000000000000e+00 +9.9999999999464906e-02 -3.1031394384710833e-02 -5.9306439460054894e-01 +5.9490524891747925e-03
2.0000000000000001e-01 +8.1529988667546398e+00 +0.0000000000000000e+00 +1.9999999999571919e-01 -3.1031464868908547e-02 -5.9306412441491352e-01 +5.9491314639703950e-03
3.0000000000000004e-01 +8.1529974501983276e+00 +0.0000000000000000e+00 +2.9999999998555227e-01 -3.1031544531832451e-02 -5.9306385593310262e-01 +5.9492096572252798e-03
4.0000000000000002e-01 +8.1529954670199363e+00 +0.0000000000000000e+00 +3.9999999996575353e-01 -3.1031632587170909e-02 -5.9306359034407574e-01 +5.9492871123857354e-03
5.0000000000000000e-01 +8.1529929172197200e+00 +0.0000000000000000e+00 +4.9999999993311234e-01 -3.1031728248614568e-02 -5.9306332883679180e-01 +5.9493638728987837e-03
5.9999999999999998e-01 +8.1529898007979291e+00 +0.0000000000000000e+00 +5.9999999988441810e-01 -3.1031830729856758e-02 -5.9306307260020752e-01 +5.9494399822119506e-03
6.9999999999999996e-01 +8.1529861177548071e+00 +0.0000000000000000e+00 +6.9999999981646033e-01 -3.1031939244593701e-02 -5.9306282282327782e-01 +5.9495154837730544e-03
7.9999999999999993e-01 +8.1529818680905937e+00 +0.0000000000000000e+00 +7.9999999972602831e-01 -3.1032053006524837e-02 -5.9306258069495232e-01 +5.9495904210299993e-03
8.9999999999999991e-01 +8.1529770518055198e+00 +0.0000000000000000e+00 +8.9999999960991151e-01 -3.1032171229353183e-02 -5.9306234740417840e-01 +5.9496648374305593e-03
9.9999999999999989e-01 +8.1529716688998075e+00 +0.0000000000000000e+00 +9.9999999946489937e-01 -3.1032293126785539e-02 -5.9306212413989623e-01 +5.9497387764221553e-03
1.0999999999999999e+00 +8.1529657193736718e+00 +0.0000000000000000e+00 +1.0999999992877814e+00 -3.1032417912532854e-02 -5.9306191209104164e-01 +5.9498122814516472e-03
1.2000000000000000e+00 +8.1529592032273150e+00 +0.0000000000000000e+00 +1.1999999990753467e+00 -3.1032544800310539e-02 -5.9306171244654193e-01 +5.9498853959651307e-03
1.3000000000000000e+00 +8.1529521204609274e+00 +0.0000000000000000e+00 +1.2999999988243851e+00 -3.1032673003838707e-02 -5.9306152639531684e-01 +5.9499581634076979e-03
1.4000000000000001e+00 +8.1529444710746866e+00 +0.0000000000000000e+00 +1.3999999985316858e+00 -3.1032801736842523e-02 -5.9306135512627856e-01 +5.9500306272232510e-03
1.5000000000000002e+00 +8.1529362550687576e+00 +0.0000000000000000e+00 +1.4999999981940382e+00 -3.1032930213052489e-02 -5.9306119982832772e-01 +5.9501028308542678e-03
1.6000000000000003e+00 +8.1529274724432881e+00 +0.0000000000000000e+00 +1.5999999978082318e+00 -3.1033057646204749e-02 -5.9306106169035600e-01 +5.9501748177416000e-03
1.7000000000000004e+00 +8.1529181231984111e+00 +0.0000000000000000e+00 +1.6999999973710560e+00 -3.1033183250041396e-02 -5.9306094190124314e-01 +5.9502466313242526e-03
1.8000000000000005e+00 +8.1529082073342405e+00 +0.0000000000000000e+00 +1.7999999968793003e+00 -3.1033306238310750e-02 -5.9306084164985684e-01 +5.9503183150391731e-03
1.9000000000000006e+00 +8.1528977248508721e+00 +0.0000000000000000e+00 +1.8999999963297542e+00 -3.1033425824767692e-02 -5.9306076212505177e-01 +5.9503899123210368e-03
2.0000000000000004e+00 +8.1528866757483822e+00 +0.0000000000000000e+00 +1.9999999957192072e+00 -3.1033541223173956e-02 -5.9306070451566750e-01 +5.9504614666020285e-03
2.1000000000000005e+00 +8.1528750600268260e+00 +0.0000000000000000e+00 +2.0999999950444486e+00 -3.1033651924666780e-02 -5.9306066958323944e-01 +5.9505330218478751e-03
2.2000000000000006e+00 +8.1528628776862373e+00 +0.0000000000000000e+00 +2.1999999943022677e+00 -3.1033758529857628e-02 -5.9306065638012673e-01 +5.9506046241669585e-03
2.3000000000000007e+00 +8.1528501287266302e+00 +0.0000000000000000e+00 +2.2999999934894539e+00 -3.1033861916714384e-02 -5.9306066353140641e-01 +5.9506763202026572e-03
2.4000000000000008e+00 +8.1528368131479976e+00 +0.0000000000000000e+00 +2.3999999926027971e+00 -3.1033962963189190e-02 -5.9306068966216829e-01 +5.9507481565972548e-03
2.5000000000000009e+00 +8.1528229309503146e+00 +0.0000000000000000e+00 +2.4999999916390863e+00 -3.1034062547216378e-02 -5.9306073339751619e-01 +5.9508201799919709e-03
2.6000000000000010e+00 +8.1528084821335405e+00 +0.0000000000000000e+00 +2.5999999905951108e+00 -3.1034161546710456e-02 -5.9306079336257167e-01 +5.9508924370269608e-03
2.7000000000000011e+00 +8.1527934666976201e+00 +0.0000000000000000e+00 +2.6999999894676603e+00 -3.1034260839563961e-02 -5.9306086818247505e-01 +5.9509649743413285e-03
2.8000000000000012e+00 +8.1527778846424805e+00 +0.0000000000000000e+00 +2.7999999882535245e+00 -3.1034361303645421e-02 -5.9306095648238766e-01 +5.9510378385731416e-03
2.9000000000000012e+00 +8.1527617359680384e+00 +0.0000000000000000e+00 +2.8999999869494921e+00 -3.1034463816797284e-02 -5.9306105688749433e-01 +5.9511110763594407e-03
3.0000000000000013e+00 +8.1527450206741978e+00 +0.0000000000000000e+00 +2.9999999855523529e+00 -3.1034569256833788e-02 -5.9306116802300579e-01 +5.9511847343362498e-03
3.1000000000000014e+00 +8.1527277387608539e+00 +0.0000000000000000e+00 +3.0999999840588965e+00 -3.1034678501538956e-02 -5.9306128851415874e-01 +5.9512588591385911e-03
3.2000000000000015e+00 +8.1527098902278929e+00 +0.0000000000000000e+00 +3.1999999824659122e+00 -3.1034792428664467e-02 -5.9306141698622206e-01 +5.9513334974005006e-03
3.3000000000000016e+00 +8.1526914750751924e+00 +0.0000000000000000e+00 +3.2999999807701892e+00 -3.1034911915927606e-02 -5.9306155206449396e-01 +5.9514086957550213e-03
3.4000000000000017e+00 +8.1526724933026244e+00 +0.0000000000000000e+00 +3.3999999789685171e+00 -3.1035037841009205e-02 -5.9306169237430850e-01 +5.9514845008342395e-03
3.5000000000000018e+00 +8.1526529449100540e+00 +0.0000000000000000e+00 +3.4999999770576853e+00 -3.1035171081551485e-02 -5.9306183654103473e-01 +5.9515609592692793e-03
3.6000000000000019e+00 +8.1526328298973461e+00 +0.0000000000000000e+00 +3.5999999750344829e+00 -3.1035312515156083e-02 -5.9306198319008008e-01 +5.9516381176903145e-03
3.7000000000000020e+00 +8.1526121482643603e+00 +0.0000000000000000e+00 +3.6999999728956992e+00 -3.1035463019381919e-02 -5.9306213094689286e-01 +5.9517160227265942e-03
3.8000000000000020e+00 +8.1525909000109564e+00 +0.0000000000000000e+00 +3.7999999706381238e+00 -3.1035623471743115e-02 -5.9306227843696346e-01 +5.9517947210064349e-03
3.9000000000000021e+00 +8.1525690851369941e+00 +0.0000000000000000e+00 +3.8999999682585464e+00 -3.1035794749706951e-02 -5.9306242428582678e-01 +5.9518742591572514e-03
4.0000000000000018e+00 +8.1525467036423347e+00 +0.0000000000000000e+00 +3.9999999657537559e+00 -3.1035977730691736e-02 -5.9306256711906447e-01 +5.9519546838055510e-03
4.1000000000000014e+00 +8.1525237555268433e+00 +0.0000000000000000e+00 +4.0999999631205419e+00 -3.1036173002355855e-02 -5.9306270596204436e-01 +5.9520360367475650e-03
4.2000000000000011e+00 +8.1525002407903866e+00 +0.0000000000000000e+00 +4.1999999603556937e+00 -3.1036379993492777e-02 -5.9306284143911359e-01 +5.9521183404628178e-03
4.3000000000000007e+00 +8.1524761594328368e+00 +0.0000000000000000e+00 +4.2999999574560013e+00 -3.1036597843202517e-02 -5.9306297457434731e-01 +5.9522016126054593e-03
4.4000000000000004e+00 +8.1524515114540677e+00 +0.0000000000000000e+00 +4.3999999544182531e+00 -3.1036825690609650e-02 -5.9306310639180404e-01 +5.9522858708344001e-03
4.5000000000000000e+00 +8.1524262968539531e+00 +0.0000000000000000e+00 +4.4999999512392392e+00 -3.1037062674865817e-02 -5.9306323791552296e-01 +5.9523711328136469e-03
4.5999999999999996e+00 +8.1524005156323689e+00 +0.0000000000000000e+00 +4.5999999479157481e+00 -3.1037307935152195e-02 -5.9306337016952204e-01 +5.9524574162126151e-03
4.6999999999999993e+00 +8.1523741677891888e+00 +0.0000000000000000e+00 +4.6999999444445697e+00 -3.1037560610681979e-02 -5.9306350417779752e-01 +5.9525447387064560e-03
4.7999999999999989e+00 +8.1523472533242867e+00 +0.0000000000000000e+00 +4.7999999408224934e+00 -3.1037819840702804e-02 -5.9306364096432007e-01 +5.9526331179763784e-03
4.8999999999999986e+00 +8.1523197722375311e+00 +0.0000000000000000e+00 +4.8999999370463092e+00 -3.1038084764499291e-02 -5.9306378155303474e-01 +5.9527225717099803e-03
4.9999999999999982e+00 +8.1522917245287889e+00 +0.0000000000000000e+00 +4.9999999331128056e+00 -3.1038354521395438e-02 -5.9306392696785704e-01 +5.9528131176015608e-03
5.0999999999999979e+00 +8.1522631101979233e+00 +0.0000000000000000e+00 +5.0999999290187716e+00 -3.1038628250757167e-02 -5.9306407823267382e-01 +5.9529047733524543e-03
5.1999999999999975e+00 +8.1522339292447885e+00 +0.0000000000000000e+00 +5.1999999247609976e+00 -3.1038905091994758e-02 -5.9306423637133854e-01 +5.9529975566713460e-03
5.2999999999999972e+00 +8.1522041816692354e+00 +0.0000000000000000e+00 +5.2999999203362727e+00 -3.1039184184565336e-02 -5.9306440240767133e-01 +5.9530914852745989e-03
5.3999999999999968e+00 +8.1521738674711077e+00 +0.0000000000000000e+00 +5.3999999157413860e+00 -3.1039464667975324e-02 -5.9306457736545615e-01 +5.9531865768865716e-03
5.4999999999999964e+00 +8.1521429866502366e+00 +0.0000000000000000e+00 +5.4999999109731270e+00 -3.1039745681782919e-02 -5.9306476226844007e-01 +5.9532828492399612e-03
5.5999999999999961e+00 +8.1521115392064480e+00 +0.0000000000000000e+00 +5.5999999060282848e+00 -3.1040026365600611e-02 -5.9306495814032945e-01 +5.9533803200761013e-03
5.6999999999999957e+00 +8.1520795251395555e+00 +0.0000000000000000e+00 +5.6999999009036486e+00 -3.1040305859097596e-02 -5.9306516600478965e-01 +5.9534790071452959e-03
5.7999999999999954e+00 +8.1520469444493600e+00 +0.0000000000000000e+00 +5.7999998955960077e+00 -3.1040583302002264e-02 -5.9306538688544297e-01 +5.9535789282071441e-03
5.8999999999999950e+00 +8.1520137971356537e+00 +0.0000000000000000e+00 +5.8999998901021513e+00 -3.1040857834104714e-02 -5.9306562180586597e-01 +5.9536801010308680e-03
5.9999999999999947e+00 +8.1519800831982110e+00 +0.0000000000000000e+00 +5.9999998844188696e+00 -3.1041128595259211e-02 -5.9306587178958881e-01 +5.9537825433956301e-03
6.0999999999999943e+00 +8.1519458026367957e+00 +0.0000000000000000e+00 +6.0999998785429508e+00 -3.1041394876630955e-02 -5.9306613759222271e-01 +5.9538862511944422e-03
6.1999999999999940e+00 +8.1519109554511537e+00 +0.0000000000000000e+00 +6.1999998724711851e+00 -3.1041656574411911e-02 -5.9306641889786516e-01 +5.9539911327389809e-03
6.2999999999999936e+00 +8.1518755416410187e+00 +0.0000000000000000e+00 +6.2999998662003618e+00 -3.1041913736049517e-02 -5.9306671512273568e-01 +5.9540970744383932e-03
6.3999999999999932e+00 +8.1518395612061081e+00 +0.0000000000000000e+00 +6.3999998597272691e+00 -3.1042166408995740e-02 -5.9306702568305336e-01 +5.9542039626939991e-03
6.4999999999999929e+00 +8.1518030141461271e+00 +0.0000000000000000e+00 +6.4999998530486973e+00 -3.1042414640706902e-02 -5.9306734999503463e-01 +5.9543116838988684e-03
6.5999999999999925e+00 +8.1517659004607665e+00 +0.0000000000000000e+00 +6.5999998461614355e+00 -3.1042658478643435e-02 -5.9306768747489536e-01 +5.9544201244374172e-03
6.6999999999999922e+00 +8.1517282201497050e+00 +0.0000000000000000e+00 +6.6999998390622721e+00 -3.1042897970269732e-02 -5.9306803753884973e-01 +5.9545291706850044e-03
6.7999999999999918e+00 +8.1516899732126085e+00 +0.0000000000000000e+00 +6.7999998317479973e+00 -3.1043133163053890e-02 -5.9306839960311097e-01 +5.9546387090075046e-03
6.8999999999999915e+00 +8.1516511596491341e+00 +0.0000000000000000e+00 +6.8999998242153993e+00 -3.1043364104467511e-02 -5.9306877308389150e-01 +5.9547486257609172e-03
6.9999999999999911e+00 +8.1516117794589249e+00 +0.0000000000000000e+00 +6.9999998164612682e+00 -3.1043590841985547e-02 -5.9306915739740274e-01 +5.9548588072909497e-03
7.0999999999999908e+00 +8.1515718326416167e+00 +0.0000000000000000e+00 +7.0999998084823934e+00 -3.1043813423086004e-02 -5.9306955195985556e-01 +5.9549691399326046e-03
7.1999999999999904e+00 +8.1515313191968328e+00 +0.0000000000000000e+00 +7.1999998002755632e+00 -3.1044031895249850e-02 -5.9306995618746050e-01 +5.9550795100097769e-03
7.2999999999999901e+00 +8.1514902391241879e+00 +0.0000000000000000e+00 +7.2999997918375676e+00 -3.1044246305960733e-02 -5.9307036949642755e-01 +5.9551898038348447e-03
7.3999999999999897e+00 +8.1514485924232893e+00 +0.0000000000000000e+00 +7.3999997831651951e+00 -3.1044456702704764e-02 -5.9307079130296658e-01 +5.9552999077082556e-03
7.4999999999999893e+00 +8.1514063790937339e+00 +0.0000000000000000e+00 +7.4999997742552349e+00 -3.1044663132970399e-02 -5.9307122102328758e-01 +5.9554097079181217e-03
7.5999999999999890e+00 +8.1513635991351148e+00 +0.0000000000000000e+00 +7.5999997651044762e+00 -3.1044865644248111e-02 -5.9307165807360041e-01 +5.9555190907398083e-03
7.6999999999999886e+00 +8.1513202525470145e+00 +0.0000000000000000e+00 +7.6999997557097082e+00 -3.1045064284030293e-02 -5.9307210187011528e-01 +5.9556279424355252e-03
7.7999999999999883e+00 +8.1512763393290104e+00 +0.0000000000000000e+00 +7.7999997460677202e+00 -3.1045259099810988e-02 -5.9307255182904250e-01 +5.9557361492539249e-03
7.8999999999999879e+00 +8.1512318594806743e+00 +0.0000000000000000e+00 +7.8999997361753014e+00 -3.1045450139085700e-02 -5.9307300736659363e-01 +5.9558435974296862e-03
7.9999999999999876e+00 +8.1511868130015728e+00 +0.0000000000000000e+00 +7.9999997260292410e+00 -3.1045637449351200e-02 -5.9307346789898041e-01 +5.9559501731831065e-03
8.0999999999999872e+00 +8.1511411998912653e+00 +0.0000000000000000e+00 +8.0999997156263284e+00 -3.1045821125311818e-02 -5.9307393277908016e-01 +5.9560557819834051e-03
8.1999999999999869e+00 +8.1510950201493113e+00 +0.0000000000000000e+00 +8.1999997049633517e+00 -3.1046001450493858e-02 -5.9307440110644605e-01 +5.9561604063462555e-03
8.2999999999999865e+00 +8.1510482737752650e+00 +0.0000000000000000e+00 +8.2999996940370995e+00 -3.1046178755613392e-02 -5.9307487191734221e-01 +5.9562640480529819e-03
8.3999999999999861e+00 +8.1510009607686769e+00 +0.0000000000000000e+00 +8.3999996828443617e+00 -3.1046353371366544e-02 -5.9307534424808728e-01 +5.9563667088881993e-03
8.4999999999999858e+00 +8.1509530811290993e+00 +0.0000000000000000e+00 +8.4999996713819286e+00 -3.1046525628428672e-02 -5.9307581713505597e-01 +5.9564683906399825e-03
8.5999999999999854e+00 +8.1509046348560812e+00 +0.0000000000000000e+00 +8.5999996596465866e+00 -3.1046695857453604e-02 -5.9307628961468062e-01 +5.9565690951000148e-03
8.6999999999999851e+00 +8.1508556219491712e+00 +0.0000000000000000e+00 +8.6999996476351278e+00 -3.1046864389072788e-02 -5.9307676072345217e-01 +5.9566688240637539e-03
8.7999999999999847e+00 +8.1508060424079218e+00 +0.0000000000000000e+00 +8.7999996353443386e+00 -3.1047031553894541e-02 -5.9307722949792196e-01 +5.9567675793305878e-03
8.8999999999999844e+00 +8.1507558962318871e+00 +0.0000000000000000e+00 +8.8999996227710092e+00 -3.1047197682503185e-02 -5.9307769497470564e-01 +5.9568653627039966e-03
8.9999999999999840e+00 +8.1507051834206248e+00 +0.0000000000000000e+00 +8.9999996099119279e+00 -3.1047363105458293e-02 -5.9307815619048176e-01 +5.9569621759917087e-03
9.0999999999999837e+00 +8.1506539039736943e+00 +0.0000000000000000e+00 +9.0999995967638849e+00 -3.1047528153293855e-02 -5.9307861218199509e-01 +5.9570580210058623e-03
9.1999999999999833e+00 +8.1506020578906639e+00 +0.0000000000000000e+00 +9.1999995833236685e+00 -3.1047693156517515e-02 -5.9307906198605864e-01 +5.9571528995631638e-03
9.2999999999999829e+00 +8.1505496451711039e+00 +0.0000000000000000e+00 +9.2999995695880671e+00 -3.1047858445609703e-02 -5.9307950463955406e-01 +5.9572468134850435e-03
9.3999999999999826e+00 +8.1504966658145932e+00 +0.0000000000000000e+00 +9.3999995555538707e+00 -3.1048024351022916e-02 -5.9307993917943491e-01 +5.9573397645978224e-03
9.4999999999999822e+00 +8.1504431198207179e+00 +0.0000000000000000e+00 +9.4999995412178677e+00 -3.1048191203180829e-02 -5.9308036464272740e-01 +5.9574317547328639e-03
9.5999999999999819e+00 +8.1503890071890748e+00 +0.0000000000000000e+00 +9.5999995265768483e+00 -3.1048359332477543e-02 -5.9308078006653131e-01 +5.9575227857267361e-03
9.6999999999999815e+00 +8.1503343279192677e+00 +0.0000000000000000e+00 +9.6999995116276008e+00 -3.1048529069276781e-02 -5.9308118448802394e-01 +5.9576128594213762e-03
9.7999999999999812e+00 +8.1502790820109130e+00 +0.0000000000000000e+00 +9.7999994963669135e+00 -3.1048700743911042e-02 -5.9308157694445984e-01 +5.9577019776642336e-03
9.8999999999999808e+00 +8.1502232694636376e+00 +0.0000000000000000e+00 +9.8999994807915765e+00 -3.1048874686680883e-02 -5.9308195647317385e-01 +5.9577901423084586e-03
9.9999999999999805e+00 +8.1501668902770792e+00 +0.0000000000000000e+00 +9.9999994648983783e+00 -3.1049051227854032e-02 -5.9308232211158118e-01 +5.9578773552130242e-03
1.0099999999999980e+01 +8.1501099444508913e+00 +0.0000000000000000e+00 +1.0099999448684107e+01 -3.1049230537935259e-02 -5.9308267324773944e-01 +5.9579636191422871e-03
1.0199999999999980e+01 +8.1500524319847401e+00 +0.0000000000000000e+00 +1.0199999432145553e+01 -3.1049412148470214e-02 -5.9308301067198854e-01 +5.9580489404628904e-03
1.0299999999999979e+01 +8.1499943528783056e+00 +0.0000000000000000e+00 +1.0299999415279505e+01 -3.1049595431242638e-02 -5.9308333552515968e-01 +5.9581333264432891e-03
1.0399999999999979e+01 +8.1499357071312790e+00 +0.0000000000000000e+00 +1.0399999398082752e+01 -3.1049779758009020e-02 -5.9308364894799037e-01 +5.9582167843540866e-03
1.0499999999999979e+01 +8.1498764947433617e+00 +0.0000000000000000e+00 +1.0499999380552083e+01 -3.1049964500497986e-02 -5.9308395208112097e-01 +5.9582993214680685e-03
1.0599999999999978e+01 +8.1498167157142678e+00 +0.0000000000000000e+00 +1.0599999362684287e+01 -3.1050149030409670e-02 -5.9308424606509103e-01 +5.9583809450602749e-03
1.0699999999999978e+01 +8.1497563700437166e+00 +0.0000000000000000e+00 +1.0699999344476151e+01 -3.1050332719415180e-02 -5.9308453204033784e-01 +5.9584616624080242e-03
1.0799999999999978e+01 +8.1496954577314362e+00 +0.0000000000000000e+00 +1.0799999325924466e+01 -3.1050514939156001e-02 -5.9308481114719358e-01 +5.9585414807910081e-03
1.0899999999999977e+01 +8.1496339787771639e+00 +0.0000000000000000e+00 +1.0899999307026022e+01 -3.1050695061243385e-02 -5.9308508452588271e-01 +5.9586204074913102e-03
1.0999999999999977e+01 +8.1495719331806384e+00 +0.0000000000000000e+00 +1.0999999287777605e+01 -3.1050872457257746e-02 -5.9308535331651868e-01 +5.9586984497934726e-03
1.1099999999999977e+01 +8.1495093209416058e+00 +0.0000000000000000e+00 +1.1099999268176006e+01 -3.1051046498748167e-02 -5.9308561865910236e-01 +5.9587756149845550e-03
1.1199999999999976e+01 +8.1494461420598139e+00 +0.0000000000000000e+00 +1.1199999248218015e+01 -3.1051216557231719e-02 -5.9308588169351817e-01 +5.9588519103541803e-03
1.1299999999999976e+01 +8.1493823965350138e+00 +0.0000000000000000e+00 +1.1299999227900420e+01 -3.1051382004192902e-02 -5.9308614355953237e-01 +5.9589273431945840e-03
1.1399999999999975e+01 +8.1493180843669570e+00 +0.0000000000000000e+00 +1.1399999207220009e+01 -3.1051542211083093e-02 -5.9308640539679058e-01 +5.9590019208006825e-03
1.1499999999999975e+01 +8.1492532055553966e+00 +0.0000000000000000e+00 +1.1499999186173573e+01 -3.1051696549319920e-02 -5.9308666834481372e-01 +5.9590756504701052e-03
1.1599999999999975e+01 +8.1491877601000819e+00 +0.0000000000000000e+00 +1.1599999164757898e+01 -3.1051844390286704e-02 -5.9308693354299691e-01 +5.9591485395032728e-03
1.1699999999999974e+01 +8.1491217480007609e+00 +0.0000000000000000e+00 +1.1699999142969776e+01 -3.1051985105331886e-02 -5.9308720213060651e-01 +5.9592205952034190e-03
1.1799999999999974e+01 +8.1490551692571813e+00 +0.0000000000000000e+00 +1.1799999120805994e+01 -3.1052118065768380e-02 -5.9308747524677585e-01 +5.9592918248766733e-03
