# field on trajectory
# s[mm] rx[mm] ry[mm] rz[mm] bx[T] by[T] bz[T]
0.0000000000000000e+00 +8.1530000000000094e+00 +0.0000000000000000e+00 +0.0000000000000000e+00 -2.8038242966706987e-02 -5.3649936477840821e-01 +5.4025918105158229e-03
1.0000000000000001e-01 +8.1529997163925092e+00 +0.0000000000000000e+00 +9.9999999999463796e-02 -2.8038229589617648e-02 -5.3649905308316614e-01 +5.4025872182270349e-03
2.0000000000000001e-01 +8.1529988655711296e+00 +0.0000000000000000e+00 +1.9999999999571000e-01 -2.8038213779989028e-02 -5.3649873813514748e-01 +5.4025843284877546e-03
2.9999999999999999e-01 +8.1529974475415692e+00 +0.0000000000000000e+00 +2.9999999998552201e-01 -2.8038196676018323e-02 -5.3649842066387821e-01 +5.4025829991489992e-03
4.0000000000000002e-01 +8.1529954622965306e+00 +0.0000000000000000e+00 +3.9999999996568197e-01 -2.8038179415903513e-02 -5.3649810139896381e-01 +5.4025830880622414e-03
5.0000000000000000e-01 +8.1529929098396696e+00 +0.0000000000000000e+00 +4.9999999993297300e-01 -2.8038163137835317e-02 -5.3649778106991275e-01 +5.4025844530776633e-03
5.9999999999999998e-01 +8.1529897901673394e+00 +0.0000000000000000e+00 +5.9999999988417696e-01 -2.8038148980005700e-02 -5.3649746040627599e-01 +5.4025869520455449e-03
6.9999999999999996e-01 +8.1529861032831796e+00 +0.0000000000000000e+00 +6.9999999981607697e-01 -2.8038138080603656e-02 -5.3649714013754035e-01 +5.4025904428151991e-03
8.0000000000000004e-01 +8.1529818491871993e+00 +0.0000000000000000e+00 +7.9999999972545699e-01 -2.8038131577820726e-02 -5.3649682099321128e-01 +5.4025947832358114e-03
9.0000000000000002e-01 +8.1529770278793894e+00 +0.0000000000000000e+00 +8.9999999960909804e-01 -2.8038130609851067e-02 -5.3649650370278845e-01 +5.4025998311562047e-03
1.0000000000000000e+00 +8.1529716393597500e+00 +0.0000000000000000e+00 +9.9999999946378304e-01 -2.8038136314892794e-02 -5.3649618899576890e-01 +5.4026054444248628e-03
1.1000000000000001e+00 +8.1529656836210105e+00 +0.0000000000000000e+00 +1.0999999992862901e+00 -2.8038149831152250e-02 -5.3649587760170236e-01 +5.4026114808905026e-03
1.2000000000000000e+00 +8.1529591606740706e+00 +0.0000000000000000e+00 +1.1999999990734200e+00 -2.8038172296835331e-02 -5.3649557025000583e-01 +5.4026177984001899e-03
1.3000000000000000e+00 +8.1529520705153100e+00 +0.0000000000000000e+00 +1.2999999988219300e+00 -2.8038204850161810e-02 -5.3649526767020694e-01 +5.4026242548018272e-03
1.3999999999999999e+00 +8.1529444131410909e+00 +0.0000000000000000e+00 +1.3999999985286200e+00 -2.8038248629360957e-02 -5.3649497059184037e-01 +5.4026307079430864e-03
1.5000000000000000e+00 +8.1529361885550298e+00 +0.0000000000000000e+00 +1.4999999981902701e+00 -2.8038304772670088e-02 -5.3649467974439469e-01 +5.4026370156708943e-03
1.6000000000000001e+00 +8.1529273967571498e+00 +0.0000000000000000e+00 +1.5999999978036501e+00 -2.8038374418340183e-02 -5.3649439585739644e-01 +5.4026430358322733e-03
1.7000000000000000e+00 +8.1529180377474404e+00 +0.0000000000000000e+00 +1.6999999973655600e+00 -2.8038458704635942e-02 -5.3649411966038574e-01 +5.4026486262741006e-03
1.8000000000000000e+00 +8.1529081115222706e+00 +0.0000000000000000e+00 +1.7999999968727800e+00 -2.8038558769838535e-02 -5.3649385188294441e-01 +5.4026536448434047e-03
1.8999999999999999e+00 +8.1528976180852606e+00 +0.0000000000000000e+00 +1.8999999963220899e+00 -2.8038675752242684e-02 -5.3649359325461854e-01 +5.4026579493865797e-03
2.0000000000000000e+00 +8.1528865574327902e+00 +0.0000000000000000e+00 +1.9999999957102601e+00 -2.8038810790163814e-02 -5.3649334450502850e-01 +5.4026613977505040e-03
2.1000000000000001e+00 +8.1528749295721408e+00 +0.0000000000000000e+00 +2.0999999950340902e+00 -2.8038964507394005e-02 -5.3649310620348933e-01 +5.4026638803962648e-03
2.2000000000000002e+00 +8.1528627344960096e+00 +0.0000000000000000e+00 +2.1999999942903599e+00 -2.8039135469588916e-02 -5.3649287827845638e-01 +5.4026654182465000e-03
2.2999999999999998e+00 +8.1528499722080596e+00 +0.0000000000000000e+00 +2.2999999934758399e+00 -2.8039321727855837e-02 -5.3649266049806887e-01 +5.4026660648385473e-03
2.3999999999999999e+00 +8.1528366427046404e+00 +0.0000000000000000e+00 +2.3999999925873299e+00 -2.8039521333295025e-02 -5.3649245263052958e-01 +5.4026658737108451e-03
2.5000000000000000e+00 +8.1528227459894005e+00 +0.0000000000000000e+00 +2.4999999916215998e+00 -2.8039732336992099e-02 -5.3649225444399828e-01 +5.4026648984019116e-03
2.6000000000000001e+00 +8.1528082820659602e+00 +0.0000000000000000e+00 +2.5999999905754398e+00 -2.8039952790018946e-02 -5.3649206570664631e-01 +5.4026631924509868e-03
2.7000000000000002e+00 +8.1527932509234198e+00 +0.0000000000000000e+00 +2.6999999894456299e+00 -2.8040180743437459e-02 -5.3649188618676236e-01 +5.4026608093991789e-03
2.7999999999999998e+00 +8.1527776525726896e+00 +0.0000000000000000e+00 +2.7999999882289601e+00 -2.8040414248283380e-02 -5.3649171565248732e-01 +5.4026578027868257e-03
2.8999999999999999e+00 +8.1527614870065008e+00 +0.0000000000000000e+00 +2.8999999869222002e+00 -2.8040651355580010e-02 -5.3649155387210701e-01 +5.4026542261565759e-03
3.0000000000000000e+00 +8.1527447542284808e+00 +0.0000000000000000e+00 +2.9999999855221300e+00 -2.8040890116324917e-02 -5.3649140061384037e-01 +5.4026501330512872e-03
3.1000000000000001e+00 +8.1527274542386294e+00 +0.0000000000000000e+00 +3.0999999840255499e+00 -2.8041128581493661e-02 -5.3649125564594613e-01 +5.4026455770151815e-03
3.2000000000000002e+00 +8.1527095870333106e+00 +0.0000000000000000e+00 +3.1999999824292300e+00 -2.8041364802037866e-02 -5.3649111873672239e-01 +5.4026406115939389e-03
3.2999999999999998e+00 +8.1526911526198091e+00 +0.0000000000000000e+00 +3.2999999807299600e+00 -2.8041596828877580e-02 -5.3649098965440123e-01 +5.4026352903336775e-03
3.3999999999999999e+00 +8.1526721509872004e+00 +0.0000000000000000e+00 +3.3999999789245101e+00 -2.8041822712910756e-02 -5.3649086816736291e-01 +5.4026296667832137e-03
3.5000000000000000e+00 +8.1526525821464002e+00 +0.0000000000000000e+00 +3.4999999770096801e+00 -2.8042040504995654e-02 -5.3649075404384106e-01 +5.4026237944911418e-03
3.6000000000000001e+00 +8.1526324460901396e+00 +0.0000000000000000e+00 +3.5999999749822500e+00 -2.8042248255964543e-02 -5.3649064705221861e-01 +5.4026177270089142e-03
3.7000000000000002e+00 +8.1526117428220495e+00 +0.0000000000000000e+00 +3.6999999728389801e+00 -2.8042444016610355e-02 -5.3649054696081322e-01 +5.4026115178887318e-03
3.7999999999999998e+00 +8.1525904723421299e+00 +0.0000000000000000e+00 +3.7999999705766800e+00 -2.8042625837690550e-02 -5.3649045353798575e-01 +5.4026052206847244e-03
3.8999999999999999e+00 +8.1525686346503807e+00 +0.0000000000000000e+00 +3.8999999681921298e+00 -2.8042791769923647e-02 -5.3649036655211235e-01 +5.4025988889527411e-03
4.0000000000000000e+00 +8.1525462297431694e+00 +0.0000000000000000e+00 +3.9999999656820902e+00 -2.8042939863988741e-02 -5.3649028577161328e-01 +5.4025925762507141e-03
4.0999999999999996e+00 +8.1525232576241304e+00 +0.0000000000000000e+00 +4.0999999630433699e+00 -2.8043068746300543e-02 -5.3649021092390303e-01 +5.4025863174788019e-03
4.2000000000000002e+00 +8.1524997182896204e+00 +0.0000000000000000e+00 +4.1999999602727298e+00 -2.8043179346375579e-02 -5.3649014157257902e-01 +5.4025800729027981e-03
4.2999999999999998e+00 +8.1524756117469206e+00 +0.0000000000000000e+00 +4.2999999573669703e+00 -2.8043273169509067e-02 -5.3649007724017028e-01 +5.4025737841296197e-03
4.4000000000000004e+00 +8.1524509379887604e+00 +0.0000000000000000e+00 +4.3999999543228601e+00 -2.8043351721007529e-02 -5.3649001744928682e-01 +5.4025673927682923e-03
4.5000000000000000e+00 +8.1524256970187707e+00 +0.0000000000000000e+00 +4.4999999511372000e+00 -2.8043416506179971e-02 -5.3648996172243268e-01 +5.4025608404280577e-03
4.5999999999999996e+00 +8.1523998888369498e+00 +0.0000000000000000e+00 +4.5999999478067499e+00 -2.8043469030344593e-02 -5.3648990958210929e-01 +5.4025540687194966e-03
4.7000000000000002e+00 +8.1523735134396702e+00 +0.0000000000000000e+00 +4.6999999443283098e+00 -2.8043510798829909e-02 -5.3648986055081416e-01 +5.4025470192545309e-03
4.7999999999999998e+00 +8.1523465708305594e+00 +0.0000000000000000e+00 +4.7999999406986600e+00 -2.8043543316971519e-02 -5.3648981415095898e-01 +5.4025396336456278e-03
4.9000000000000004e+00 +8.1523190610096208e+00 +0.0000000000000000e+00 +4.8999999369145701e+00 -2.8043568090117467e-02 -5.3648976990494623e-01 +5.4025318535066355e-03
5.0000000000000000e+00 +8.1522909839768491e+00 +0.0000000000000000e+00 +4.9999999329728402e+00 -2.8043586623627915e-02 -5.3648972733514289e-01 +5.4025236204525299e-03
5.0999999999999996e+00 +8.1522623397286207e+00 +0.0000000000000000e+00 +5.0999999288702398e+00 -2.8043600422877572e-02 -5.3648968596390301e-01 +5.4025148760996925e-03
5.2000000000000002e+00 +8.1522331282685592e+00 +0.0000000000000000e+00 +5.1999999246035600e+00 -2.8043610993252605e-02 -5.3648964531348675e-01 +5.4025055620651376e-03
5.2999999999999998e+00 +8.1522033495966806e+00 +0.0000000000000000e+00 +5.2999999201695802e+00 -2.8043619840155850e-02 -5.3648960490613795e-01 +5.4024956199673147e-03
5.4000000000000004e+00 +8.1521730037093203e+00 +0.0000000000000000e+00 +5.3999999155650800e+00 -2.8043628469008021e-02 -5.3648956426408312e-01 +5.4024849914261451e-03
5.5000000000000000e+00 +8.1521420906137791e+00 +0.0000000000000000e+00 +5.4999999107868396e+00 -2.8043638385242951e-02 -5.3648952290942109e-01 +5.4024736180619459e-03
5.5999999999999996e+00 +8.1521106102991308e+00 +0.0000000000000000e+00 +5.5999999058316599e+00 -2.8043651094320193e-02 -5.3648948036433652e-01 +5.4024614414976239e-03
5.7000000000000002e+00 +8.1520785627762997e+00 +0.0000000000000000e+00 +5.6999999006963096e+00 -2.8043668101710318e-02 -5.3648943615080180e-01 +5.4024484033557002e-03
5.7999999999999998e+00 +8.1520459480379905e+00 +0.0000000000000000e+00 +5.7999998953775700e+00 -2.8043690912911697e-02 -5.3648938979087091e-01 +5.4024344452613159e-03
5.9000000000000004e+00 +8.1520127660915005e+00 +0.0000000000000000e+00 +5.8999998898722197e+00 -2.8043721033438759e-02 -5.3648934080643584e-01 +5.4024195088398135e-03
5.9999999999999902e+00 +8.1519790169259103e+00 +0.0000000000000000e+00 +5.9999998841770603e+00 -2.8043759968835857e-02 -5.3648928871946666e-01 +5.4024035357191835e-03
6.0999999999999899e+00 +8.1519447005521197e+00 +0.0000000000000000e+00 +6.0999998782888598e+00 -2.8043808887767453e-02 -5.3648923339660359e-01 +5.4023864949491046e-03
6.1999999999999904e+00 +8.1519098169665103e+00 +0.0000000000000000e+00 +6.1999998722044003e+00 -2.8043867611345034e-02 -5.3648917608413849e-01 +5.4023684652672885e-03
6.2999999999999901e+00 +8.1518743661654298e+00 +0.0000000000000000e+00 +6.2999998659204701e+00 -2.8043935623814464e-02 -5.3648911837329238e-01 +5.4023495528273159e-03
6.3999999999999897e+00 +8.1518383481488907e+00 +0.0000000000000000e+00 +6.3999998594338496e+00 -2.8044012409453867e-02 -5.3648906185530609e-01 +5.4023298637751824e-03
6.4999999999999902e+00 +8.1518017629241495e+00 +0.0000000000000000e+00 +6.4999998527413201e+00 -2.8044097452573642e-02 -5.3648900812141653e-01 +5.4023095042487245e-03
6.5999999999999899e+00 +8.1517646104839496e+00 +0.0000000000000000e+00 +6.5999998458396698e+00 -2.8044190237526311e-02 -5.3648895876301972e-01 +5.4022885803789202e-03
6.6999999999999904e+00 +8.1517268908319203e+00 +0.0000000000000000e+00 +6.6999998387256703e+00 -2.8044290248697850e-02 -5.3648891537148413e-01 +5.4022671982876785e-03
6.7999999999999901e+00 +8.1516886039680703e+00 +0.0000000000000000e+00 +6.7999998313961196e+00 -2.8044396970514741e-02 -5.3648887953826241e-01 +5.4022454640886034e-03
6.8999999999999897e+00 +8.1516497498923908e+00 +0.0000000000000000e+00 +6.8999998238477902e+00 -2.8044509887443898e-02 -5.3648885285486470e-01 +5.4022234838864138e-03
6.9999999999999902e+00 +8.1516103286012402e+00 +0.0000000000000000e+00 +6.9999998160774597e+00 -2.8044628483995387e-02 -5.3648883691288962e-01 +5.4022013637768955e-03
7.0999999999999899e+00 +8.1515703400982602e+00 +0.0000000000000000e+00 +7.0999998080819298e+00 -2.8044752244719473e-02 -5.3648883330394403e-01 +5.4021792098457562e-03
7.1999999999999904e+00 +8.1515297843834595e+00 +0.0000000000000000e+00 +7.1999997998579603e+00 -2.8044880654212311e-02 -5.3648884361972826e-01 +5.4021571281691388e-03
7.2999999999999901e+00 +8.1514886614531896e+00 +0.0000000000000000e+00 +7.2999997914023496e+00 -2.8045013197117163e-02 -5.3648886945203600e-01 +5.4021352248133083e-03
7.3999999999999897e+00 +8.1514469713147300e+00 +0.0000000000000000e+00 +7.3999997827118804e+00 -2.8045149358120129e-02 -5.3648891239265140e-01 +5.4021136058332274e-03
7.4999999999999902e+00 +8.1514047139571595e+00 +0.0000000000000000e+00 +7.4999997737833199e+00 -2.8045288621962823e-02 -5.3648897403356377e-01 +5.4020923772744355e-03
7.5999999999999899e+00 +8.1513618893914099e+00 +0.0000000000000000e+00 +7.5999997646134698e+00 -2.8045430473428022e-02 -5.3648905596667695e-01 +5.4020716451697202e-03
7.6999999999999904e+00 +8.1513184976138309e+00 +0.0000000000000000e+00 +7.6999997551991104e+00 -2.8045574397355309e-02 -5.3648915978407852e-01 +5.4020515155415423e-03
7.7999999999999901e+00 +8.1512745386207808e+00 +0.0000000000000000e+00 +7.7999997455370096e+00 -2.8045719878636674e-02 -5.3648928707793497e-01 +5.4020320944006082e-03
7.8999999999999897e+00 +8.1512300124159101e+00 +0.0000000000000000e+00 +7.8999997356239602e+00 -2.8045866402214948e-02 -5.3648943944044059e-01 +5.4020134877450282e-03
7.9999999999999902e+00 +8.1511849189955701e+00 +0.0000000000000000e+00 +7.9999997254567399e+00 -2.8046013453090931e-02 -5.3648961846392684e-01 +5.4019958015610724e-03
8.0999999999999908e+00 +8.1511392583670403e+00 +0.0000000000000000e+00 +8.0999997150321406e+00 -2.8046160573675906e-02 -5.3648982516482424e-01 +5.4019791045630278e-03
8.1999999999999904e+00 +8.1510930305230396e+00 +0.0000000000000000e+00 +8.1999997043469399e+00 -2.8046307535838477e-02 -5.3649005825605689e-01 +5.4019633164261172e-03
8.2999999999999901e+00 +8.1510462354672200e+00 +0.0000000000000000e+00 +8.2999996933979094e+00 -2.8046454168745270e-02 -5.3649031587448370e-01 +5.4019483195745319e-03
8.3999999999999897e+00 +8.1509988731995708e+00 +0.0000000000000000e+00 +8.3999996821818605e+00 -2.8046600301494667e-02 -5.3649059615690620e-01 +5.4019339964439788e-03
8.4999999999999893e+00 +8.1509509437164507e+00 +0.0000000000000000e+00 +8.4999996706955496e+00 -2.8046745763114268e-02 -5.3649089724006538e-01 +5.4019202294821045e-03
8.5999999999999908e+00 +8.1509024470215099e+00 +0.0000000000000000e+00 +8.5999996589357703e+00 -2.8046890382554104e-02 -5.3649121726055826e-01 +5.4019069011480821e-03
8.6999999999999904e+00 +8.1508533831147396e+00 +0.0000000000000000e+00 +8.6999996468993004e+00 -2.8047033988688470e-02 -5.3649155435491502e-01 +5.4018938939138549e-03
8.7999999999999794e+00 +8.1508037519961398e+00 +0.0000000000000000e+00 +8.7999996345829192e+00 -2.8047176410311934e-02 -5.3649190665956981e-01 +5.4018810902642664e-03
8.8999999999999808e+00 +8.1507535536620708e+00 +0.0000000000000000e+00 +8.8999996219834205e+00 -2.8047317476138318e-02 -5.3649227231088448e-01 +5.4018683726977726e-03
8.9999999999999805e+00 +8.1507027881161793e+00 +0.0000000000000000e+00 +8.9999996090975891e+00 -2.8047457014793921e-02 -5.3649264944506547e-01 +5.4018556237260184e-03
9.0999999999999801e+00 +8.1506514553584601e+00 +0.0000000000000000e+00 +9.0999995959221902e+00 -2.8047594854819214e-02 -5.3649303619824051e-01 +5.4018427258750870e-03
9.1999999999999797e+00 +8.1505995553889097e+00 +0.0000000000000000e+00 +9.1999995824540193e+00 -2.8047730824665076e-02 -5.3649343070643030e-01 +5.4018295616856445e-03
9.2999999999999794e+00 +8.1505470882038900e+00 +0.0000000000000000e+00 +9.2999995686898593e+00 -2.8047864752691557e-02 -5.3649383110557092e-01 +5.4018160137136138e-03
9.3999999999999808e+00 +8.1504940538070496e+00 +0.0000000000000000e+00 +9.3999995546264898e+00 -2.8047996467161163e-02 -5.3649423553143183e-01 +5.4018019645297967e-03
9.4999999999999805e+00 +8.1504404521983798e+00 +0.0000000000000000e+00 +9.4999995402606903e+00 -2.8048125796240699e-02 -5.3649464211969244e-01 +5.4017872967210920e-03
9.5999999999999801e+00 +8.1503862833778804e+00 +0.0000000000000000e+00 +9.5999995255892507e+00 -2.8048252567997242e-02 -5.3649504900591338e-01 +5.4017718928906526e-03
9.6999999999999797e+00 +8.1503315473419207e+00 +0.0000000000000000e+00 +9.6999995106089507e+00 -2.8048376610397125e-02 -5.3649545432555912e-01 +5.4017556356585643e-03
9.7999999999999794e+00 +8.1502762440941297e+00 +0.0000000000000000e+00 +9.7999994953165697e+00 -2.8048497751299153e-02 -5.3649585621391604e-01 +5.4017384076614555e-03
9.8999999999999808e+00 +8.1502203736345091e+00 +0.0000000000000000e+00 +9.8999994797088906e+00 -2.8048615818456354e-02 -5.3649625280616897e-01 +5.4017200915537252e-03
9.9999999999999805e+00 +8.1501639359594300e+00 +0.0000000000000000e+00 +9.9999994637827001e+00 -2.8048730639513506e-02 -5.3649664223739868e-01 +5.4017005700079685e-03
1.0100000000000000e+01 +8.1501069310761505e+00 +0.0000000000000000e+00 +1.0099999447534801e+01 -2.8048842163490368e-02 -5.3649702301726121e-01 +5.4016797452766715e-03
1.0199999999999999e+01 +8.1500493589774106e+00 +0.0000000000000000e+00 +1.0199999430961901e+01 -2.8048950825333339e-02 -5.3649739515464290e-01 +5.4016575978741450e-03
1.0300000000000001e+01 +8.1499912196668394e+00 +0.0000000000000000e+00 +1.0299999414060901e+01 -2.8049057181535518e-02 -5.3649775903323971e-01 +5.4016341278717694e-03
1.0400000000000000e+01 +8.1499325131444493e+00 +0.0000000000000000e+00 +1.0399999396828500e+01 -2.8049161788664428e-02 -5.3649811503688227e-01 +5.4016093353336774e-03
1.0500000000000000e+01 +8.1498732394065900e+00 +0.0000000000000000e+00 +1.0499999379261400e+01 -2.8049265203364145e-02 -5.3649846354954267e-01 +5.4015832203165529e-03
1.0600000000000000e+01 +8.1498133984568994e+00 +0.0000000000000000e+00 +1.0599999361356600e+01 -2.8049367982353066e-02 -5.3649880495525515e-01 +5.4015557828685683e-03
1.0699999999999999e+01 +8.1497529902953794e+00 +0.0000000000000000e+00 +1.0699999343110701e+01 -2.8049470682430327e-02 -5.3649913963820017e-01 +5.4015270230299691e-03
1.0800000000000001e+01 +8.1496920149220404e+00 +0.0000000000000000e+00 +1.0799999324520600e+01 -2.8049573860476455e-02 -5.3649946798267978e-01 +5.4014969408325859e-03
1.0900000000000000e+01 +8.1496304723332305e+00 +0.0000000000000000e+00 +1.0899999305583000e+01 -2.8049678073456867e-02 -5.3649979037314999e-01 +5.4014655362998642e-03
1.1000000000000000e+01 +8.1495683625325892e+00 +0.0000000000000000e+00 +1.0999999286294800e+01 -2.8049783878419721e-02 -5.3650010719414054e-01 +5.4014328094458240e-03
1.1100000000000000e+01 +8.1495056855201309e+00 +0.0000000000000000e+00 +1.1099999266652601e+01 -2.8049891832502293e-02 -5.3650041883034061e-01 +5.4013987602756506e-03
1.1199999999999999e+01 +8.1494424412958306e+00 +0.0000000000000000e+00 +1.1199999246653300e+01 -2.8050002492931596e-02 -5.3650072566657359e-01 +5.4013633887851830e-03
1.1300000000000001e+01 +8.1493786298560700e+00 +0.0000000000000000e+00 +1.1299999226293700e+01 -2.8050116417027943e-02 -5.3650102808782774e-01 +5.4013266949609626e-03
1.1400000000000000e+01 +8.1493142512044905e+00 +0.0000000000000000e+00 +1.1399999205570500e+01 -2.8050234162202765e-02 -5.3650132647917925e-01 +5.4012886787791776e-03
1.1500000000000000e+01 +8.1492493053447106e+00 +0.0000000000000000e+00 +1.1499999184480499e+01 -2.8050356285963540e-02 -5.3650162122584755e-01 +5.4012493402059982e-03
1.1600000000000000e+01 +8.1491837922658306e+00 +0.0000000000000000e+00 +1.1599999163020600e+01 -2.8050483345921591e-02 -5.3650191271330727e-01 +5.4012086791984104e-03
1.1699999999999999e+01 +8.1491177119787608e+00 +0.0000000000000000e+00 +1.1699999141187400e+01 -2.8050615899779977e-02 -5.3650220132702253e-01 +5.4011666957012863e-03
1.1800000000000001e+01 +8.1490510644762306e+00 +0.0000000000000000e+00 +1.1799999118977800e+01 -2.8050754505351157e-02 -5.3650248745274398e-01 +5.4011233896501202e-03
