# field on trajectory
# s[mm] rx[mm] ry[mm] rz[mm] bx[T] by[T] bz[T]
-0.0000000000000000e+00 +8.1530000000000094e+00 +0.0000000000000000e+00 -0.0000000000000000e+00 -3.1789740412400819e-02 -5.9239438658045562e-01 +5.8991624207891591e-03
-1.0000000000000001e-01 +8.1529997163925092e+00 +0.0000000000000000e+00 -9.9999999999463796e-02 -3.1789719949931169e-02 -5.9239441939966642e-01 +5.8991373814051510e-03
-2.0000000000000001e-01 +8.1529988655711296e+00 +0.0000000000000000e+00 -1.9999999999571000e-01 -3.1789695269922487e-02 -5.9239444597657698e-01 +5.8991126578560871e-03
-2.9999999999999999e-01 +8.1529974475415692e+00 +0.0000000000000000e+00 -2.9999999998552201e-01 -3.1789666097642222e-02 -5.9239446690391695e-01 +5.8990884079440998e-03
-4.0000000000000002e-01 +8.1529954622965306e+00 +0.0000000000000000e+00 -3.9999999996568197e-01 -3.1789632158367415e-02 -5.9239448277455520e-01 +5.8990647894729036e-03
-5.0000000000000000e-01 +8.1529929098396696e+00 +0.0000000000000000e+00 -4.9999999993297300e-01 -3.1789593177374023e-02 -5.9239449418130041e-01 +5.8990419602457335e-03
-5.9999999999999998e-01 +8.1529897901673394e+00 +0.0000000000000000e+00 -5.9999999988417696e-01 -3.1789548879944132e-02 -5.9239450171704366e-01 +5.8990200780668174e-03
-6.9999999999999996e-01 +8.1529861032831796e+00 +0.0000000000000000e+00 -6.9999999981607697e-01 -3.1789498991359209e-02 -5.9239450597463739e-01 +5.8989993007401223e-03
-8.0000000000000004e-01 +8.1529818491871993e+00 +0.0000000000000000e+00 -7.9999999972545699e-01 -3.1789443236904275e-02 -5.9239450754697653e-01 +5.8989797860702032e-03
-9.0000000000000002e-01 +8.1529770278793894e+00 +0.0000000000000000e+00 -8.9999999960909804e-01 -3.1789381341865736e-02 -5.9239450702696594e-01 +5.8989616918618433e-03
-1.0000000000000000e+00 +8.1529716393597500e+00 +0.0000000000000000e+00 -9.9999999946378304e-01 -3.1789313031530965e-02 -5.9239450500751500e-01 +5.8989451759200147e-03
-1.1000000000000001e+00 +8.1529656836210105e+00 +0.0000000000000000e+00 -1.0999999992862901e+00 -3.1789238031190749e-02 -5.9239450208159328e-01 +5.8989303960504244e-03
-1.2000000000000000e+00 +8.1529591606740706e+00 +0.0000000000000000e+00 -1.1999999990734200e+00 -3.1789156066128102e-02 -5.9239449884201667e-01 +5.8989175100573610e-03
-1.3000000000000000e+00 +8.1529520705153100e+00 +0.0000000000000000e+00 -1.2999999988219300e+00 -3.1789066861631479e-02 -5.9239449588170945e-01 +5.8989066757463371e-03
-1.3999999999999999e+00 +8.1529444131410909e+00 +0.0000000000000000e+00 -1.3999999985286200e+00 -3.1788970142988142e-02 -5.9239449379358278e-01 +5.8988980509228593e-03
-1.5000000000000000e+00 +8.1529361885550298e+00 +0.0000000000000000e+00 -1.4999999981902701e+00 -3.1788865635480584e-02 -5.9239449317046844e-01 +5.8988917933917515e-03
-1.6000000000000001e+00 +8.1529273967571498e+00 +0.0000000000000000e+00 -1.5999999978036501e+00 -3.1788753064390565e-02 -5.9239449460520399e-01 +5.8988880609580196e-03
-1.7000000000000000e+00 +8.1529180377474404e+00 +0.0000000000000000e+00 -1.6999999973655600e+00 -3.1788632154997075e-02 -5.9239449869059913e-01 +5.8988870114264980e-03
-1.8000000000000000e+00 +8.1529081115222706e+00 +0.0000000000000000e+00 -1.7999999968727800e+00 -3.1788502632577341e-02 -5.9239450601945809e-01 +5.8988888026020973e-03
-1.8999999999999999e+00 +8.1528976180852606e+00 +0.0000000000000000e+00 -1.8999999963220899e+00 -3.1788364222401708e-02 -5.9239451718448977e-01 +5.8988935922888591e-03
-2.0000000000000000e+00 +8.1528865574327902e+00 +0.0000000000000000e+00 -1.9999999957102601e+00 -3.1788216649739215e-02 -5.9239453277841780e-01 +5.8989015382910912e-03
-2.1000000000000001e+00 +8.1528749295721408e+00 +0.0000000000000000e+00 -2.0999999950340902e+00 -3.1788059735618421e-02 -5.9239455339849845e-01 +5.8989127513429567e-03
-2.2000000000000002e+00 +8.1528627344960096e+00 +0.0000000000000000e+00 -2.1999999942903599e+00 -3.1787893684144738e-02 -5.9239457966074427e-01 +5.8989271539045748e-03
-2.2999999999999998e+00 +8.1528499722080596e+00 +0.0000000000000000e+00 -2.2999999934758399e+00 -3.1787718795182801e-02 -5.9239461218573031e-01 +5.8989446213677521e-03
-2.3999999999999999e+00 +8.1528366427046404e+00 +0.0000000000000000e+00 -2.3999999925873299e+00 -3.1787535368594542e-02 -5.9239465159407623e-01 +5.8989650291266993e-03
-2.5000000000000000e+00 +8.1528227459894005e+00 +0.0000000000000000e+00 -2.4999999916215998e+00 -3.1787343704232716e-02 -5.9239469850632753e-01 +5.8989882525770001e-03
-2.6000000000000001e+00 +8.1528082820659602e+00 +0.0000000000000000e+00 -2.5999999905754398e+00 -3.1787144101943554e-02 -5.9239475354301652e-01 +5.8990141671164224e-03
-2.7000000000000002e+00 +8.1527932509234198e+00 +0.0000000000000000e+00 -2.6999999894456299e+00 -3.1786936861572336e-02 -5.9239481732477728e-01 +5.8990426481462747e-03
-2.7999999999999998e+00 +8.1527776525726896e+00 +0.0000000000000000e+00 -2.7999999882289601e+00 -3.1786722282947724e-02 -5.9239489047205307e-01 +5.8990735710685955e-03
-2.8999999999999999e+00 +8.1527614870065008e+00 +0.0000000000000000e+00 -2.8999999869222002e+00 -3.1786500665898054e-02 -5.9239497360541937e-01 +5.8991068112896399e-03
-3.0000000000000000e+00 +8.1527447542284808e+00 +0.0000000000000000e+00 -2.9999999855221300e+00 -3.1786272310238770e-02 -5.9239506734534975e-01 +5.8991422442176613e-03
-3.1000000000000001e+00 +8.1527274542386294e+00 +0.0000000000000000e+00 -3.0999999840255499e+00 -3.1786037515777965e-02 -5.9239517231233152e-01 +5.8991797452642870e-03
-3.2000000000000002e+00 +8.1527095870333106e+00 +0.0000000000000000e+00 -3.1999999824292300e+00 -3.1785796582316068e-02 -5.9239528912686701e-01 +5.8992191898447101e-03
-3.2999999999999998e+00 +8.1526911526198091e+00 +0.0000000000000000e+00 -3.2999999807299600e+00 -3.1785549809639109e-02 -5.9239541840935483e-01 +5.8992604533766530e-03
-3.3999999999999999e+00 +8.1526721509872004e+00 +0.0000000000000000e+00 -3.3999999789245101e+00 -3.1785297497530680e-02 -5.9239556078032718e-01 +5.8993034112829806e-03
-3.5000000000000000e+00 +8.1526525821464002e+00 +0.0000000000000000e+00 -3.4999999770096801e+00 -3.1785039945754531e-02 -5.9239571686012427e-01 +5.8993479389885476e-03
-3.6000000000000001e+00 +8.1526324460901396e+00 +0.0000000000000000e+00 -3.5999999749822500e+00 -3.1784777454071045e-02 -5.9239588726921821e-01 +5.8993939119237069e-03
-3.7000000000000002e+00 +8.1526117428220495e+00 +0.0000000000000000e+00 -3.6999999728389801e+00 -3.1784510322224437e-02 -5.9239607262797878e-01 +5.8994412055220768e-03
-3.7999999999999998e+00 +8.1525904723421299e+00 +0.0000000000000000e+00 -3.7999999705766800e+00 -3.1784238849948548e-02 -5.9239627355679036e-01 +5.8994896952219295e-03
-3.8999999999999999e+00 +8.1525686346503807e+00 +0.0000000000000000e+00 -3.8999999681921298e+00 -3.1783963336964767e-02 -5.9239649067602151e-01 +5.8995392564660694e-03
-4.0000000000000000e+00 +8.1525462297431694e+00 +0.0000000000000000e+00 -3.9999999656820902e+00 -3.1783684082983175e-02 -5.9239672460605641e-01 +5.8995897647023243e-03
-4.0999999999999996e+00 +8.1525232576241304e+00 +0.0000000000000000e+00 -4.0999999630433699e+00 -3.1783401477170410e-02 -5.9239697569988148e-01 +5.8996411339232082e-03
-4.2000000000000002e+00 +8.1524997182896204e+00 +0.0000000000000000e+00 -4.1999999602727298e+00 -3.1783116266583533e-02 -5.9239724324124132e-01 +5.8996934322855365e-03
-4.2999999999999998e+00 +8.1524756117469206e+00 +0.0000000000000000e+00 -4.2999999573669703e+00 -3.1782829287759481e-02 -5.9239752624647479e-01 +5.8997467664821251e-03
-4.4000000000000004e+00 +8.1524509379887604e+00 +0.0000000000000000e+00 -4.3999999543228601e+00 -3.1782541377255925e-02 -5.9239782373204752e-01 +5.8998012432022809e-03
-4.5000000000000000e+00 +8.1524256970187707e+00 +0.0000000000000000e+00 -4.4999999511372000e+00 -3.1782253371641776e-02 -5.9239813471434799e-01 +5.8998569691293169e-03
-4.5999999999999996e+00 +8.1523998888369498e+00 +0.0000000000000000e+00 -4.5999999478067499e+00 -3.1781966107504535e-02 -5.9239845820980674e-01 +5.8999140509413709e-03
-4.7000000000000002e+00 +8.1523735134396702e+00 +0.0000000000000000e+00 -4.6999999443283098e+00 -3.1781680421451304e-02 -5.9239879323489708e-01 +5.8999725953110356e-03
-4.7999999999999998e+00 +8.1523465708305594e+00 +0.0000000000000000e+00 -4.7999999406986600e+00 -3.1781397150105632e-02 -5.9239913880604789e-01 +5.9000327089040521e-03
-4.9000000000000004e+00 +8.1523190610096208e+00 +0.0000000000000000e+00 -4.8999999369145701e+00 -3.1781117130113008e-02 -5.9239949393973401e-01 +5.9000944983798494e-03
-5.0000000000000000e+00 +8.1522909839768491e+00 +0.0000000000000000e+00 -4.9999999329728402e+00 -3.1780841198140737e-02 -5.9239985765244807e-01 +5.9001580703908563e-03
-5.0999999999999996e+00 +8.1522623397286207e+00 +0.0000000000000000e+00 -5.0999999288702398e+00 -3.1780570190880444e-02 -5.9240022896073086e-01 +5.9002235315824183e-03
-5.2000000000000002e+00 +8.1522331282685592e+00 +0.0000000000000000e+00 -5.1999999246035600e+00 -3.1780304945044871e-02 -5.9240060688108442e-01 +5.9002909885915123e-03
-5.2999999999999998e+00 +8.1522033495966806e+00 +0.0000000000000000e+00 -5.2999999201695802e+00 -3.1780046297373452e-02 -5.9240099043006200e-01 +5.9003605480472746e-03
-5.4000000000000004e+00 +8.1521730037093203e+00 +0.0000000000000000e+00 -5.3999999155650800e+00 -3.1779795084633612e-02 -5.9240137862426934e-01 +5.9004323165706123e-03
-5.5000000000000000e+00 +8.1521420906137791e+00 +0.0000000000000000e+00 -5.4999999107868396e+00 -3.1779552143615795e-02 -5.9240177048024745e-01 +5.9005064007726146e-03
-5.5999999999999996e+00 +8.1521106102991308e+00 +0.0000000000000000e+00 -5.5999999058316599e+00 -3.1779318311146859e-02 -5.9240216501471143e-01 +5.9005829072566011e-03
-5.7000000000000002e+00 +8.1520785627762997e+00 +0.0000000000000000e+00 -5.6999999006963096e+00 -3.1779094424074422e-02 -5.9240256124422530e-01 +5.9006619426143917e-03
-5.7999999999999998e+00 +8.1520459480379905e+00 +0.0000000000000000e+00 -5.7999998953775700e+00 -3.1778881319284892e-02 -5.9240295818552968e-01 +5.9007436134292674e-03
-5.9000000000000004e+00 +8.1520127660915005e+00 +0.0000000000000000e+00 -5.8999998898722197e+00 -3.1778679833690822e-02 -5.9240335485527551e-01 +5.9008280262728688e-03
-5.9999999999999902e+00 +8.1519790169259103e+00 +0.0000000000000000e+00 -5.9999998841770603e+00 -3.1778490804245961e-02 -5.9240375027029424e-01 +5.9009152877075302e-03
-6.0999999999999899e+00 +8.1519447005521197e+00 +0.0000000000000000e+00 -6.0999998782888598e+00 -3.1778314854898675e-02 -5.9240414365021332e-01 +5.9010054725346676e-03
-6.1999999999999904e+00 +8.1519098169665103e+00 +0.0000000000000000e+00 -6.1999998722044003e+00 -3.1778151757499179e-02 -5.9240453502657509e-01 +5.9010985285580528e-03
-6.2999999999999901e+00 +8.1518743661654298e+00 +0.0000000000000000e+00 -6.2999998659204701e+00 -3.1778001070862719e-02 -5.9240492463387828e-01 +5.9011943718346293e-03
-6.3999999999999897e+00 +8.1518383481488907e+00 +0.0000000000000000e+00 -6.3999998594338496e+00 -3.1777862353796434e-02 -5.9240531270660324e-01 +5.9012929184236703e-03
-6.4999999999999902e+00 +8.1518017629241495e+00 +0.0000000000000000e+00 -6.4999998527413201e+00 -3.1777735165097250e-02 -5.9240569947918176e-01 +5.9013940843866911e-03
-6.5999999999999899e+00 +8.1517646104839496e+00 +0.0000000000000000e+00 -6.5999998458396698e+00 -3.1777619063560483e-02 -5.9240608518617610e-01 +5.9014977857894399e-03
-6.6999999999999904e+00 +8.1517268908319203e+00 +0.0000000000000000e+00 -6.6999998387256703e+00 -3.1777513607968641e-02 -5.9240647006207170e-01 +5.9016039386999807e-03
-6.7999999999999901e+00 +8.1516886039680703e+00 +0.0000000000000000e+00 -6.7999998313961196e+00 -3.1777418357096916e-02 -5.9240685434139573e-01 +5.9017124591901008e-03
-6.8999999999999897e+00 +8.1516497498923908e+00 +0.0000000000000000e+00 -6.8999998238477902e+00 -3.1777332869711176e-02 -5.9240723825868857e-01 +5.9018232633351988e-03
-6.9999999999999902e+00 +8.1516103286012402e+00 +0.0000000000000000e+00 -6.9999998160774597e+00 -3.1777256704568969e-02 -5.9240762204853248e-01 +5.9019362672147876e-03
-7.0999999999999899e+00 +8.1515703400982602e+00 +0.0000000000000000e+00 -7.0999998080819298e+00 -3.1777189420414291e-02 -5.9240800594546494e-01 +5.9020513869117684e-03
-7.1999999999999904e+00 +8.1515297843834595e+00 +0.0000000000000000e+00 -7.1999997998579603e+00 -3.1777130575981735e-02 -5.9240839018406666e-01 +5.9021685385135508e-03
-7.2999999999999901e+00 +8.1514886614531896e+00 +0.0000000000000000e+00 -7.2999997914023496e+00 -3.1777079729995918e-02 -5.9240877499896161e-01 +5.9022876381122297e-03
-7.3999999999999897e+00 +8.1514469713147300e+00 +0.0000000000000000e+00 -7.3999997827118804e+00 -3.1777036441164731e-02 -5.9240916062470061e-01 +5.9024086018035857e-03
-7.4999999999999902e+00 +8.1514047139571595e+00 +0.0000000000000000e+00 -7.4999997737833199e+00 -3.1777000268191184e-02 -5.9240954729599582e-01 +5.9025313456896869e-03
-7.5999999999999899e+00 +8.1513618893914099e+00 +0.0000000000000000e+00 -7.5999997646134698e+00 -3.1776970769755906e-02 -5.9240993524739882e-01 +5.9026557858757609e-03
-7.6999999999999904e+00 +8.1513184976138309e+00 +0.0000000000000000e+00 -7.6999997551991104e+00 -3.1776947504531937e-02 -5.9241032471359434e-01 +5.9027818384734193e-03
-7.7999999999999901e+00 +8.1512745386207808e+00 +0.0000000000000000e+00 -7.7999997455370096e+00 -3.1776930031178159e-02 -5.9241071592928352e-01 +5.9029094195996376e-03
-7.8999999999999897e+00 +8.1512300124159101e+00 +0.0000000000000000e+00 -7.8999997356239602e+00 -3.1776917908335520e-02 -5.9241110912912476e-01 +5.9030384453763384e-03
-7.9999999999999902e+00 +8.1511849189955701e+00 +0.0000000000000000e+00 -7.9999997254567399e+00 -3.1776910694632725e-02 -5.9241150454785196e-01 +5.9031688319318067e-03
-8.0999999999999908e+00 +8.1511392583670403e+00 +0.0000000000000000e+00 -8.0999997150321406e+00 -3.1776907940260925e-02 -5.9241190228463614e-01 +5.9033004877203504e-03
-8.1999999999999904e+00 +8.1510930305230396e+00 +0.0000000000000000e+00 -8.1999997043469399e+00 -3.1776909161729865e-02 -5.9241230189680438e-01 +5.9034332904873256e-03
-8.2999999999999901e+00 +8.1510462354672200e+00 +0.0000000000000000e+00 -8.2999996933979094e+00 -3.1776913867103920e-02 -5.9241270280609415e-01 +5.9035671103043414e-03
-8.3999999999999897e+00 +8.1509988731995708e+00 +0.0000000000000000e+00 -8.3999996821818605e+00 -3.1776921564424139e-02 -5.9241310443426531e-01 +5.9037018172498242e-03
-8.4999999999999893e+00 +8.1509509437164507e+00 +0.0000000000000000e+00 -8.4999996706955496e+00 -3.1776931761707539e-02 -5.9241350620309896e-01 +5.9038372814091975e-03
-8.5999999999999908e+00 +8.1509024470215099e+00 +0.0000000000000000e+00 -8.5999996589357703e+00 -3.1776943966941702e-02 -5.9241390753430812e-01 +5.9039733728741767e-03
-8.6999999999999904e+00 +8.1508533831147396e+00 +0.0000000000000000e+00 -8.6999996468993004e+00 -3.1776957688088608e-02 -5.9241430784962656e-01 +5.9041099617438697e-03
-8.7999999999999794e+00 +8.1508037519961398e+00 +0.0000000000000000e+00 -8.7999996345829192e+00 -3.1776972433082362e-02 -5.9241470657077744e-01 +5.9042469181246580e-03
-8.8999999999999808e+00 +8.1507535536620708e+00 +0.0000000000000000e+00 -8.8999996219834205e+00 -3.1776987709830007e-02 -5.9241510311950463e-01 +5.9043841121307191e-03
-8.9999999999999805e+00 +8.1507027881161793e+00 +0.0000000000000000e+00 -8.9999996090975891e+00 -3.1777003026206098e-02 -5.9241549691748185e-01 +5.9045214138832777e-03
-9.0999999999999801e+00 +8.1506514553584601e+00 +0.0000000000000000e+00 -9.0999995959221902e+00 -3.1777017890056582e-02 -5.9241588738640183e-01 +5.9046586935117395e-03
-9.1999999999999797e+00 +8.1505995553889097e+00 +0.0000000000000000e+00 -9.1999995824540193e+00 -3.1777031809196499e-02 -5.9241627394794583e-01 +5.9047958211535696e-03
-9.2999999999999794e+00 +8.1505470882038900e+00 +0.0000000000000000e+00 -9.2999995686898593e+00 -3.1777044291410823e-02 -5.9241665602381310e-01 +5.9049326669547899e-03
-9.3999999999999808e+00 +8.1504940538070496e+00 +0.0000000000000000e+00 -9.3999995546264898e+00 -3.1777054844448989e-02 -5.9241703303563198e-01 +5.9050691010692612e-03
-9.4999999999999805e+00 +8.1504404521983798e+00 +0.0000000000000000e+00 -9.4999995402606903e+00 -3.1777062976028815e-02 -5.9241740440504742e-01 +5.9052049936597975e-03
-9.5999999999999801e+00 +8.1503862833778804e+00 +0.0000000000000000e+00 -9.5999995255892507e+00 -3.1777068193834204e-02 -5.9241776955369252e-01 +5.9053402148980519e-03
-9.6999999999999797e+00 +8.1503315473419207e+00 +0.0000000000000000e+00 -9.6999995106089507e+00 -3.1777070005515926e-02 -5.9241812790321491e-01 +5.9054746349650068e-03
-9.7999999999999794e+00 +8.1502762440941297e+00 +0.0000000000000000e+00 -9.7999994953165697e+00 -3.1777067918686251e-02 -5.9241847887519139e-01 +5.9056081240502793e-03
-9.8999999999999808e+00 +8.1502203736345091e+00 +0.0000000000000000e+00 -9.8999994797088906e+00 -3.1777061440922780e-02 -5.9241882189121264e-01 +5.9057405523531984e-03
-9.9999999999999805e+00 +8.1501639359594300e+00 +0.0000000000000000e+00 -9.9999994637827001e+00 -3.1777050079767721e-02 -5.9241915637288500e-01 +5.9058717900830260e-03
-1.0100000000000000e+01 +8.1501069310761505e+00 +0.0000000000000000e+00 -1.0099999447534801e+01 -3.1777033482503665e-02 -5.9241948203475236e-01 +5.9060017564880043e-03
-1.0199999999999999e+01 +8.1500493589774106e+00 +0.0000000000000000e+00 -1.0199999430961901e+01 -3.1777011855553379e-02 -5.9241979976364012e-01 +5.9061305669460534e-03
-1.0300000000000001e+01 +8.1499912196668394e+00 +0.0000000000000000e+00 -1.0299999414060901e+01 -3.1776985545174781e-02 -5.9242011073931944e-01 +5.9062583858619970e-03
-1.0400000000000000e+01 +8.1499325131444493e+00 +0.0000000000000000e+00 -1.0399999396828500e+01 -3.1776954897689634e-02 -5.9242041614157170e-01 +5.9063853776357101e-03
-1.0500000000000000e+01 +8.1498732394065900e+00 +0.0000000000000000e+00 -1.0499999379261400e+01 -3.1776920259485336e-02 -5.9242071715018996e-01 +5.9065117066619283e-03
-1.0600000000000000e+01 +8.1498133984568994e+00 +0.0000000000000000e+00 -1.0599999361356600e+01 -3.1776881977011846e-02 -5.9242101494488963e-01 +5.9066375373291570e-03
-1.0699999999999999e+01 +8.1497529902953794e+00 +0.0000000000000000e+00 -1.0699999343110701e+01 -3.1776840396788110e-02 -5.9242131070539605e-01 +5.9067630340204043e-03
-1.0800000000000001e+01 +8.1496920149220404e+00 +0.0000000000000000e+00 -1.0799999324520600e+01 -3.1776795865402080e-02 -5.9242160561141433e-01 +5.9068883611126891e-03
-1.0900000000000000e+01 +8.1496304723332305e+00 +0.0000000000000000e+00 -1.0899999305583000e+01 -3.1776748729514033e-02 -5.9242190084265989e-01 +5.9070136829771818e-03
-1.1000000000000000e+01 +8.1495683625325892e+00 +0.0000000000000000e+00 -1.0999999286294800e+01 -3.1776699335853580e-02 -5.9242219757876768e-01 +5.9071391639780989e-03
-1.1100000000000000e+01 +8.1495056855201309e+00 +0.0000000000000000e+00 -1.1099999266652601e+01 -3.1776648031225936e-02 -5.9242249699938143e-01 +5.9072649684734262e-03
-1.1199999999999999e+01 +8.1494424412958306e+00 +0.0000000000000000e+00 -1.1199999246653300e+01 -3.1776595162512120e-02 -5.9242280028412286e-01 +5.9073912608144548e-03
-1.1300000000000001e+01 +8.1493786298560700e+00 +0.0000000000000000e+00 -1.1299999226293700e+01 -3.1776541076672105e-02 -5.9242310861262193e-01 +5.9075182053458936e-03
-1.1400000000000000e+01 +8.1493142512044905e+00 +0.0000000000000000e+00 -1.1399999205570500e+01 -3.1776486120741916e-02 -5.9242342316442609e-01 +5.9076459664047648e-03
-1.1500000000000000e+01 +8.1492493053447106e+00 +0.0000000000000000e+00 -1.1499999184480499e+01 -3.1776430641838410e-02 -5.9242374511906060e-01 +5.9077747083208535e-03
-1.1600000000000000e+01 +8.1491837922658306e+00 +0.0000000000000000e+00 -1.1599999163020600e+01 -3.1776374987167018e-02 -5.9242407565614497e-01 +5.9079045954177232e-03
-1.1699999999999999e+01 +8.1491177119787608e+00 +0.0000000000000000e+00 -1.1699999141187400e+01 -3.1776319504008124e-02 -5.9242441595509787e-01 +5.9080357920095116e-03
