# multipoles
# s[mm] polynom_b[n=0][T/m^n] polynom_b[n=1][T/m^n] polynom_b[n=2][T/m^n] polynom_b[n=3][T/m^n] polynom_b[n=4][T/m^n] polynom_b[n=5][T/m^n] polynom_b[n=6][T/m^n] 
+0.0000000000000000e+00 -5.3682283595247859e-01 +7.3583591369284873e+00 -4.8751561799567200e-01 +3.1306111548508945e+01 +4.8286501624739121e+03 -3.6769248492435901e+05 -2.0952188026246697e+07 
+1.0000000000000001e-01 -5.3682286297133053e-01 +7.3583449790903099e+00 -4.8245725320389532e-01 +3.1476644287621227e+01 +4.7570153943807836e+03 -3.6840839741196146e+05 -2.0707195727019053e+07 
+2.0000000000000001e-01 -5.3682289085588941e-01 +7.3583339865719468e+00 -4.7752375315896761e-01 +3.1583231368817579e+01 +4.6914122525024150e+03 -3.6887684602123918e+05 -2.0498109839458894e+07 
+2.9999999999999999e-01 -5.3682292040296165e-01 +7.3583258813221182e+00 -4.7273231617316042e-01 +3.1632176521318534e+01 +4.6318900166800195e+03 -3.6912345132443652e+05 -2.0324284756029017e+07 
+4.0000000000000002e-01 -5.3682295240947742e-01 +7.3583203852937578e+00 -4.6810013737351641e-01 +3.1629783315224770e+01 +4.5784979114608986e+03 -3.6917383285231760e+05 -2.0185074617003806e+07 
+5.0000000000000000e-01 -5.3682298767226488e-01 +7.3583172204371445e+00 -4.6364441510332938e-01 +3.1582355371266786e+01 +4.5312852274764728e+03 -3.6905361034705670e+05 -2.0079833888680317e+07 
+5.9999999999999998e-01 -5.3682302698824158e-01 +7.3583161087017039e+00 -4.5938234368994912e-01 +3.1496196310955426e+01 +4.4903011830716541e+03 -3.6878840348405635e+05 -2.0007916701514803e+07 
+6.9999999999999996e-01 -5.3682307115424921e-01 +7.3583167720402756e+00 -4.5533112017027005e-01 +3.1377609627284190e+01 +4.4555950476155549e+03 -3.6840383112852572e+05 -1.9968677425742995e+07 
+8.0000000000000004e-01 -5.3682312096718421e-01 +7.3583189324060188e+00 -4.5150793911691023e-01 +3.1232898783045044e+01 +4.4272160510776239e+03 -3.6792551193535991e+05 -1.9961470262893964e+07 
+9.0000000000000002e-01 -5.3682317722392037e-01 +7.3583223117488998e+00 -4.4792999692614677e-01 +3.1068367320359226e+01 +4.4052134495378305e+03 -3.6737906501019944e+05 -1.9985649513844952e+07 
+1.0000000000000000e+00 -5.3682324072134990e-01 +7.3583266320273184e+00 -4.4461448884681876e-01 +3.0890318511504876e+01 +4.3896364836626426e+03 -3.6679010786755837e+05 -2.0040569422024578e+07 
+1.1000000000000001e+00 -5.3682331225639524e-01 +7.3583316151961808e+00 -4.4157861211847393e-01 +3.0705055729334987e+01 +4.3805344238661255e+03 -3.6618425865725777e+05 -2.0125584350632176e+07 
+1.2000000000000000e+00 -5.3682339262586509e-01 +7.3583369832170282e+00 -4.3883956189233447e-01 +3.0518882127896287e+01 +4.3779565009951584e+03 -3.6558713424933562e+05 -2.0240048474525455e+07 
+1.3000000000000000e+00 -5.3682348262663737e-01 +7.3583424580513901e+00 -4.3641453747918357e-01 +3.0338100861384135e+01 +4.3819520173271867e+03 -3.6502435158782883e+05 -2.0383316287477065e+07 
+1.3999999999999999e+00 -5.3682358305561773e-01 +7.3583477616638593e+00 -4.3432073476758981e-01 +3.0169014998588473e+01 +4.3925702055202191e+03 -3.6452152721231279e+05 -2.0554741938487880e+07 
+1.5000000000000000e+00 -5.3682369470962776e-01 +7.3583526160240984e+00 -4.3257535271196745e-01 +3.0017927439271237e+01 +4.4098603477463203e+03 -3.6410427671912475e+05 -2.0753679791099716e+07 
+1.6000000000000001e+00 -5.3682381838550419e-01 +7.3583567431032701e+00 -4.3119559176248190e-01 +2.9891141051367178e+01 +4.4338717493340637e+03 -3.6379821565339237e+05 -2.0979484303970691e+07 
+1.7000000000000000e+00 -5.3682395488008072e-01 +7.3583598648792590e+00 -4.3019865153607534e-01 +2.9794958510510671e+01 +4.4646536850029943e+03 -3.6362895857057447e+05 -2.1231509752403632e+07 
+1.8000000000000000e+00 -5.3682410499019728e-01 +7.3583617033312079e+00 -4.2960173432199639e-01 +2.9735682460508766e+01 +4.5022554745568323e+03 -3.6362211997491901e+05 -2.1509110610670824e+07 
+1.8999999999999999e+00 -5.3682426951260198e-01 +7.3583619804469000e+00 -4.2942204565101166e-01 +2.9719615293098080e+01 +4.5467264818660606e+03 -3.6380331304314273e+05 -2.1811641518735699e+07 
+2.0000000000000000e+00 -5.3682444924413864e-01 +7.3583604182183322e+00 -4.2967678569380319e-01 +2.9753059301979238e+01 +4.5981159598452714e+03 -3.6419815059849754e+05 -2.2138456564656857e+07 
+2.1000000000000001e+00 -5.3682464468382585e-01 +7.3583568093729825e+00 -4.3037038707023051e-01 +2.9840858701202073e+01 +4.6562641294968562e+03 -3.6482709827671509e+05 -2.2488155476922192e+07 
+2.2000000000000002e+00 -5.3682485514001366e-01 +7.3583512228454513e+00 -4.3145714314072237e-01 +2.9982016401783454e+01 +4.7201946329626144e+03 -3.6568964755146403e+05 -2.2856389969440810e+07 
+2.2999999999999998e+00 -5.3682507962328974e-01 +7.3583437949523969e+00 -4.3287904335754906e-01 +3.0174072660955840e+01 +4.7887319239191083e+03 -3.6677995312058058e+05 -2.3238092684798401e+07 
+2.3999999999999999e+00 -5.3682531714426596e-01 +7.3583346620059533e+00 -4.3457808132861497e-01 +3.0414567919136392e+01 +4.8607005356210884e+03 -3.6809217086096108e+05 -2.3628196638308346e+07 
+2.5000000000000000e+00 -5.3682556671352355e-01 +7.3583239603182342e+00 -4.3649624799907516e-01 +3.0701042659967158e+01 +4.9349249522402142e+03 -3.6962045699076710e+05 -2.4021634608481832e+07 
+2.6000000000000001e+00 -5.3682582734162676e-01 +7.3583118261981397e+00 -4.3857553697774648e-01 +3.1031037518432314e+01 +5.0102297121149049e+03 -3.7135896871449018e+05 -2.4413339633067686e+07 
+2.7000000000000002e+00 -5.3682609803927683e-01 +7.3582983959556909e+00 -4.4075793851483158e-01 +3.1402093159964259e+01 +5.0854392924596077e+03 -3.7330186353848031e+05 -2.4798244456507970e+07 
+2.7999999999999998e+00 -5.3682637781696285e-01 +7.3582838058897631e+00 -4.4298544990434779e-01 +3.1811750632131041e+01 +5.1593783082830660e+03 -3.7544330127882119e+05 -2.5171282479970448e+07 
+2.8999999999999999e+00 -5.3682666568537540e-01 +7.3582681923058884e+00 -4.4520006084920399e-01 +3.2257550866798830e+01 +5.2308712370515077e+03 -3.7777744121463824e+05 -2.5527386457446996e+07 
+3.0000000000000000e+00 -5.3682696065506663e-01 +7.3582516914990022e+00 -4.4734376830482547e-01 +3.2737035172955530e+01 +5.2987426961138954e+03 -3.8029844492078072e+05 -2.5861489804033741e+07 
+3.1000000000000001e+00 -5.3682726173667694e-01 +7.3582344397575135e+00 -4.4935856306580063e-01 +3.3247745129738895e+01 +5.3618171956380438e+03 -3.8300047566201870e+05 -2.6168525437743075e+07 
+3.2000000000000002e+00 -5.3682756794084019e-01 +7.3582165733728653e+00 -4.5118644015717535e-01 +3.3787222319736820e+01 +5.4189193292298269e+03 -3.8587769686707819e+05 -2.6443426670581557e+07 
+3.2999999999999998e+00 -5.3682787827810530e-01 +7.3581982286277317e+00 -4.5276939669313454e-01 +3.4353008665377658e+01 +5.4688737426779226e+03 -3.8892427405214944e+05 -2.6681127082370929e+07 
+3.3999999999999999e+00 -5.3682819175919749e-01 +7.3581795417929321e+00 -4.5404942509311896e-01 +3.4942646527047685e+01 +5.5105049981047378e+03 -3.9213437540208263e+05 -2.6876559855642714e+07 
+3.5000000000000000e+00 -5.3682850739467391e-01 +7.3581606491432874e+00 -4.5496851944839728e-01 +3.5553678254821321e+01 +5.5426376981065014e+03 -3.9550216919540119e+05 -2.7024658374947630e+07 
+3.6000000000000001e+00 -5.3682882419520861e-01 +7.3581416869403080e+00 -4.5546867708936301e-01 +3.6183646688699987e+01 +5.5640965173221321e+03 -3.9902182668145822e+05 -2.7120356380166925e+07 
+3.7000000000000002e+00 -5.3682914117143432e-01 +7.3581227914390102e+00 -4.5549189206897728e-01 +3.6830094962089944e+01 +5.5737060807223806e+03 -4.0268752094437584e+05 -2.7158587391953517e+07 
+3.7999999999999998e+00 -5.3682945733401821e-01 +7.3581040988906317e+00 -4.5498015821876703e-01 +3.7490566444430620e+01 +5.5702910197388228e+03 -4.0649342661204963e+05 -2.7134284974346153e+07 
+3.8999999999999999e+00 -5.3682977169361434e-01 +7.3580857455363855e+00 -4.5387547202453354e-01 +3.8162604908124123e+01 +5.5526760256062107e+03 -4.1043372077234898e+05 -2.7042382983058065e+07 
+4.0000000000000000e+00 -5.3683008326091441e-01 +7.3580678676048548e+00 -4.5211983014084955e-01 +3.8843754618405370e+01 +5.5196858071300248e+03 -4.1450258352014795e+05 -2.6877815376612190e+07 
+4.0999999999999996e+00 -5.3683039130066301e-01 +7.3580505976851178e+00 -4.4967160119718041e-01 +3.9531091036502239e+01 +5.4705245779078541e+03 -4.1868944967599167e+05 -2.6637269725177597e+07 
+4.2000000000000002e+00 -5.3683069609853695e-01 +7.3580340734098408e+00 -4.4655397281021153e-01 +4.0219486044346368e+01 +5.4059154865492937e+03 -4.2296363371443673e+05 -2.6324516773523670e+07 
+4.2999999999999998e+00 -5.3683099819644309e-01 +7.3580184386251064e+00 -4.4280620782241809e-01 +4.0903175221611001e+01 +5.3269623211017843e+03 -4.2728910736344423e+05 -2.5945117871681329e+07 
+4.4000000000000004e+00 -5.3683129813641883e-01 +7.3580038371753380e+00 -4.3846756700617529e-01 +4.1576394114813347e+01 +5.2347688456236929e+03 -4.3162984191985853e+05 -2.5504634319419336e+07 
+4.5000000000000000e+00 -5.3683159646044576e-01 +7.3579904129058624e+00 -4.3357730769204478e-01 +4.2233378150373845e+01 +5.1304387656597983e+03 -4.3594980771909608e+05 -2.5008627178965330e+07 
+4.5999999999999996e+00 -5.3683189371056250e-01 +7.3579783096573914e+00 -4.2817468334442221e-01 +4.2868362778126382e+01 +5.0150757233400091e+03 -4.4021297491450520e+05 -2.4462657264513601e+07 
+4.7000000000000002e+00 -5.3683219042885899e-01 +7.3579676712748352e+00 -4.2229894480086994e-01 +4.3475583216603070e+01 +4.8897833243561345e+03 -4.4438331201142457e+05 -2.3872285278706502e+07 
+4.7999999999999998e+00 -5.3683248715739473e-01 +7.3579586416008613e+00 -4.1598933953295925e-01 +4.4049274629334107e+01 +4.7556651189387721e+03 -4.4842478685985261e+05 -2.3243071712906659e+07 
+4.9000000000000004e+00 -5.3683278443828009e-01 +7.3579513644768504e+00 -4.0928511189299549e-01 +4.4583672091369642e+01 +4.6138246079288319e+03 -4.5230136644649395e+05 -2.2580576879104353e+07 
+5.0000000000000000e+00 -5.3683308281368169e-01 +7.3579459837456902e+00 -4.0222549961265891e-01 +4.5073010492522066e+01 +4.4653651838295627e+03 -4.5597701628950529e+05 -2.1890360654450983e+07 
+5.0999999999999996e+00 -5.3683338282579374e-01 +7.3579426432482844e+00 -3.9484973987995831e-01 +4.5511524639888307e+01 +4.3113902371462227e+03 -4.5941570104324672e+05 -2.1177982961272009e+07 
+5.2000000000000002e+00 -5.3683368501680206e-01 +7.3579414868284552e+00 -3.8719706413729366e-01 +4.5893449105159846e+01 +4.1530030624061756e+03 -4.6258138358216564e+05 -2.0449003336693078e+07 
+5.2999999999999998e+00 -5.3683398992895170e-01 +7.3579426583284180e+00 -3.7930669967581554e-01 +4.6213018346286319e+01 +3.9913068886890478e+03 -4.6543802568411292e+05 -1.9708981079726916e+07 
+5.4000000000000004e+00 -5.3683429810456973e-01 +7.3579463015911655e+00 -3.7121786658485123e-01 +4.6464466627788653e+01 +3.8274048206043244e+03 -4.6794958753611130e+05 -1.8963474968915243e+07 
+5.5000000000000000e+00 -5.3683461008590738e-01 +7.3579525604573259e+00 -3.6296978478388003e-01 +4.6642028107605647e+01 +3.6623999767872701e+03 -4.7008002823072555e+05 -1.8218043936099451e+07 
+5.5999999999999996e+00 -5.3683492641539843e-01 +7.3579615787717243e+00 -3.5460166691615763e-01 +4.6739936640553573e+01 +3.4973953465652821e+03 -4.7179330461664789e+05 -1.7478246364745874e+07 
+5.7000000000000002e+00 -5.3683524763536605e-01 +7.3579735003776099e+00 -3.4615272016757787e-01 +4.6752425934806254e+01 +3.3334938353435141e+03 -4.7305337216895865e+05 -1.6749640335022023e+07 
+5.7999999999999998e+00 -5.3683557428829720e-01 +7.3579884691191797e+00 -3.3766214706600134e-01 +4.6673729468914473e+01 +3.1717982717862574e+03 -4.7382418448390841e+05 -1.6037783640257819e+07 
+5.9000000000000004e+00 -5.3683590691661376e-01 +7.3580066288408945e+00 -3.2916914470518754e-01 +4.6498080513484481e+01 +3.0134113964474373e+03 -4.7406969341578707e+05 -1.5348233741515281e+07 
+5.9999999999999902e+00 -5.3683624606291669e-01 +7.3580281233880900e+00 -3.2071290468169567e-01 +4.6219712085709673e+01 +2.8594358647421659e+03 -4.7375384872998792e+05 -1.4686547795316117e+07 
+6.0999999999999899e+00 -5.3683659210012258e-01 +7.3580530430927604e+00 -3.1233238814729258e-01 +4.5834835234442380e+01 +2.7108604061807878e+03 -4.7285210478679504e+05 -1.4057530694709376e+07 
+6.1999999999999904e+00 -5.3683694471457466e-01 +7.3580812486415352e+00 -3.0406458497853678e-01 +4.5348083565506677e+01 +2.5681591911307009e+03 -4.7138878030086035e+05 -1.3462614907807717e+07 
+6.2999999999999901e+00 -5.3683730341882874e-01 +7.3581125391507651e+00 -2.9594568598814208e-01 +4.4766335901114637e+01 +2.4316616386821929e+03 -4.6940119131109386e+05 -1.2902291240413323e+07 
+6.3999999999999897e+00 -5.3683766772538688e-01 +7.3581467137517134e+00 -2.8801188492826835e-01 +4.4096470675126341e+01 +2.3016972022521677e+03 -4.6692665193322423e+05 -1.2377050580172783e+07 
+6.4999999999999902e+00 -5.3683803714665790e-01 +7.3581835715841919e+00 -2.8029938033501972e-01 +4.3345366120975072e+01 +2.1785954103137860e+03 -4.6400247549718153e+05 -1.1887384104956921e+07 
+6.5999999999999899e+00 -5.3683841119514397e-01 +7.3582229118077409e+00 -2.7284437222784486e-01 +4.2519899933082733e+01 +2.0626857988123465e+03 -4.6066597256259911e+05 -1.1433782942810733e+07 
+6.6999999999999904e+00 -5.3683878938325436e-01 +7.3582645335889358e+00 -2.6568306233637057e-01 +4.1626949656820422e+01 +1.9542979201495173e+03 -4.5695445324478683e+05 -1.1016738230097195e+07 
+6.7999999999999901e+00 -5.3683917122337754e-01 +7.3583082361175567e+00 -2.5885165799359838e-01 +4.0673392205916734e+01 +1.8537614109655219e+03 -4.5290522439594765e+05 -1.0636741412423825e+07 
+6.8999999999999897e+00 -5.3683955622788793e-01 +7.3583538185930006e+00 -2.5238636765324490e-01 +3.9666104276020320e+01 +1.7614059055205610e+03 -4.4855559205691708e+05 -1.0294283829477867e+07 
+6.9999999999999902e+00 -5.3683994390916767e-01 +7.3584010802302160e+00 -2.4632340295931618e-01 +3.8611962160749563e+01 +1.6775610827710907e+03 -4.4394286037462694e+05 -9.9898569577244725e+06 
+7.0999999999999899e+00 -5.3684033377949025e-01 +7.3584498202666007e+00 -2.4069898107294790e-01 +3.7517841564375658e+01 +1.6025566963692922e+03 -4.3910433056693646e+05 -9.7239525128931757e+06 
+7.1999999999999904e+00 -5.3684072535114713e-01 +7.3584998379495667e+00 -2.3554932081931587e-01 +3.6390617959669505e+01 +1.5367225130135025e+03 -4.3407730298378196e+05 -9.4970621880954988e+06 
+7.2999999999999901e+00 -5.3684111813641489e-01 +7.3585509325463523e+00 -2.3091064553753873e-01 +3.5237166310367378e+01 +1.4803883563615384e+03 -4.2889907554405608e+05 -9.3096778313763626e+06 
+7.3999999999999897e+00 -5.3684151164744365e-01 +7.3586029033458891e+00 -2.2681918449965879e-01 +3.4064361017301806e+01 +1.4338841403907882e+03 -4.2360694342508452e+05 -9.1622916224081758e+06 
+7.4999999999999902e+00 -5.3684190539651089e-01 +7.3586555496506838e+00 -2.2331116724200278e-01 +3.2879076157735206e+01 +1.3975397556812570e+03 -4.1823820047282113e+05 -9.0553955126759578e+06 
+7.5999999999999899e+00 -5.3684229889566282e-01 +7.3587086707854770e+00 -2.2042283167445292e-01 +3.1688185237593007e+01 +1.3716852222950229e+03 -4.1283013778496342e+05 -8.9894819484929033e+06 
+7.6999999999999904e+00 -5.3684269165705434e-01 +7.3587620660937514e+00 -2.1819041581210663e-01 +3.0498561296105535e+01 +1.3566505385797600e+03 -4.0742004433969152e+05 -8.9650431664094627e+06 
+7.7999999999999901e+00 -5.3684308319274865e-01 +7.3588155349381221e+00 -2.1665016813950644e-01 +2.9317076894774299e+01 +1.3527658674226841e+03 -4.0204520693982585e+05 -8.9825720493989736e+06 
+7.8999999999999897e+00 -5.3684347301476254e-01 +7.3588688767036317e+00 -2.1583833638826724e-01 +2.8150604030360327e+01 +1.3603613296177884e+03 -3.9674290974088002e+05 -9.0425611587707493e+06 
+7.9999999999999902e+00 -5.3684386063511358e-01 +7.3589218907973200e+00 -2.1579117457388985e-01 +2.7006014155064282e+01 +1.3797671355335669e+03 -3.9155043451231788e+05 -9.1455033660437372e+06 
+8.0999999999999908e+00 -5.3684424574193967e-01 +7.3589743663890816e+00 -2.1652850981864147e-01 +2.5889925932093263e+01 +1.4110833063139853e+03 -3.8650328073169076e+05 -9.2911241405597217e+06 
+8.1999999999999904e+00 -5.3684462872395800e-01 +7.3590260504778957e+00 -2.1800451755789693e-01 +2.4807706903410288e+01 +1.4535172791069001e+03 -3.8162718716166838e+05 -9.4762584624982849e+06 
+8.2999999999999901e+00 -5.3684501014412622e-01 +7.3590766793638034e+00 -2.2015692412886653e-01 +2.3764341851705932e+01 +1.5060602269318679e+03 -3.7694473972722946e+05 -9.6970672685264423e+06 
+8.3999999999999897e+00 -5.3684539056536784e-01 +7.3591259893355012e+00 -2.2292346129690438e-01 +2.2764815905578008e+01 +1.5677034110305697e+03 -3.7247852610844449e+05 -9.9497118884414621e+06 
+8.4999999999999893e+00 -5.3684577055058025e-01 +7.3591737166600328e+00 -2.2624186486897119e-01 +2.1814114867437411e+01 +1.6374381473393455e+03 -3.6825113771260128e+05 -1.0230353862026021e+07 
+8.5999999999999908e+00 -5.3684615066249664e-01 +7.3592195975887327e+00 -2.3004988130334419e-01 +2.0917225036367878e+01 +1.7142559276586826e+03 -3.6428516862929310e+05 -1.0535155503085865e+07 
+8.6999999999999904e+00 -5.3684653146385264e-01 +7.3592633683568014e+00 -2.3428525729965191e-01 +2.0079133242649014e+01 +1.7971482252452145e+03 -3.6060321587649506e+05 -1.0860278986166941e+07 
+8.7999999999999794e+00 -5.3684691351727520e-01 +7.3593047651791341e+00 -2.3888575040529186e-01 +1.9304826949685424e+01 +1.8851066967534939e+03 -3.5722787993285601e+05 -1.1201887307422366e+07 
+8.8999999999999808e+00 -5.3684729738536807e-01 +7.3593435242505159e+00 -2.4378912103441949e-01 +1.8599294255380393e+01 +1.9771230255638764e+03 -3.5418176474338718e+05 -1.1556143526656885e+07 
+8.9999999999999805e+00 -5.3684768363058644e-01 +7.3593793817496813e+00 -2.4893313858720920e-01 +1.7967523781890069e+01 +2.0721890413188544e+03 -3.5148747709961649e+05 -1.1919211344690152e+07 
+9.0999999999999801e+00 -5.3684807281533409e-01 +7.3594120738305788e+00 -2.5425557879140093e-01 +1.7414504920483505e+01 +2.1692966671173172e+03 -3.4916762802029145e+05 -1.2287254847215297e+07 
+9.1999999999999797e+00 -5.3684846550195753e-01 +7.3594413366278291e+00 -2.5969422168185302e-01 +1.6945227686866318e+01 +2.2674378830829055e+03 -3.4724483193580911e+05 -1.2656438335988965e+07 
+9.2999999999999794e+00 -5.3684886225271922e-01 +7.3594669062547045e+00 -2.6518685725681018e-01 +1.6564682773091725e+01 +2.3656048276752831e+03 -3.4574170696672722e+05 -1.3022926795898831e+07 
+9.3999999999999808e+00 -5.3684926362975749e-01 +7.3594885188038077e+00 -2.7067128115616068e-01 +1.6277861529056221e+01 +2.4627897211973959e+03 -3.4468087479980418e+05 -1.3382885545846045e+07 
+9.4999999999999805e+00 -5.3684967019513796e-01 +7.3595059103391609e+00 -2.7608529810077143e-01 +1.6089756193208967e+01 +2.5579849285445812e+03 -3.4408496202360472e+05 -1.3732480530531900e+07 
+9.5999999999999801e+00 -5.3685008251084898e-01 +7.3595188169089214e+00 -2.8136671838609784e-01 +1.6005359529534275e+01 +2.6501828875967994e+03 -3.4397659802855353e+05 -1.4067877967338262e+07 
+9.6999999999999797e+00 -5.3685050113883426e-01 +7.3595269745297562e+00 -2.8645335796690330e-01 +1.6029665285334538e+01 +2.7383761189092493e+03 -3.4437841765343107e+05 -1.4385244414350446e+07 
+9.7999999999999794e+00 -5.3685092664085066e-01 +7.3595301191977676e+00 -2.9128304562147522e-01 +1.6167667860266182e+01 +2.8215573539046400e+03 -3.4531305923123582e+05 -1.4680747358970653e+07 
+9.8999999999999808e+00 -5.3685135957860919e-01 +7.3595279868847046e+00 -2.9579361528976067e-01 +1.6424362439832461e+01 +2.8987193923667837e+03 -3.4680316540308995e+05 -1.4950554549385002e+07 
+9.9999999999999805e+00 -5.3685180051375314e-01 +7.3595203135305356e+00 -2.9992290846150771e-01 +1.6804745167505789e+01 +2.9688551414048520e+03 -3.4887138394200895e+05 -1.5190834156249397e+07 
+1.0100000000000000e+01 -5.3685224979703894e-01 +7.3595069491063576e+00 -3.0362655556766777e-01 +1.7311116625342500e+01 +3.0312343078607655e+03 -3.5152695726892177e+05 -1.5398814890032539e+07 
