# multipoles
# s[mm] polynom_b[n=0][T/m^n] polynom_b[n=1][T/m^n] polynom_b[n=2][T/m^n] polynom_b[n=3][T/m^n] polynom_b[n=4][T/m^n] polynom_b[n=5][T/m^n] polynom_b[n=6][T/m^n] 
-0.0000000000000000e+00 -5.9307129152298599e-01 +8.1010130108913945e+00 -1.6155412508809888e+00 +6.0977833320113632e+01 +1.2343060215401074e+04 -5.1813927418797970e+05 -5.8367672155581348e+07 
-1.0000000000000001e-01 -5.9307155438038783e-01 +8.1010293918272946e+00 -1.6132307734740159e+00 +6.1112461159291946e+01 +1.2316732575341641e+04 -5.2001753735875501e+05 -5.8244894213283435e+07 
-2.0000000000000001e-01 -5.9307181776884133e-01 +8.1010458017114875e+00 -1.6116331439445664e+00 +6.1252564844682951e+01 +1.2300235785734583e+04 -5.2186643605592882e+05 -5.8160440418324471e+07 
-2.9999999999999999e-01 -5.9307208100550568e-01 +8.1010622860422181e+00 -1.6107084259324409e+00 +6.1394715996934970e+01 +1.2292938304863394e+04 -5.2366982136656431e+05 -5.8112042784139246e+07 
-4.0000000000000002e-01 -5.9307234340759774e-01 +8.1010788903220305e+00 -1.6104166878869701e+00 +6.1535486112836743e+01 +1.2294208673859730e+04 -5.2541154364982853e+05 -5.8097433699517280e+07 
-5.0000000000000000e-01 -5.9307260429226183e-01 +8.1010956600563944e+00 -1.6107179969159018e+00 +6.1671446640102388e+01 +1.2303415410440226e+04 -5.2707545306450629e+05 -5.8114345449484229e+07 
-5.9999999999999998e-01 -5.9307286297670803e-01 +8.1011126407510865e+00 -1.6115724183608917e+00 +6.1799169025520037e+01 +1.2319926992050414e+04 -5.2864539974575303e+05 -5.8160510113308087e+07 
-6.9999999999999996e-01 -5.9307311877807511e-01 +8.1011298779185044e+00 -1.6129400196616623e+00 +6.1915224550061573e+01 +1.2343111939893794e+04 -5.3010523290868697e+05 -5.8233659992747836e+07 
-8.0000000000000004e-01 -5.9307337101356805e-01 +8.1011474170652757e+00 -1.6147808632363718e+00 +6.2016184678815904e+01 +1.2372338678578386e+04 -5.3143880282654928e+05 -5.8331526932406031e+07 
-9.0000000000000002e-01 -5.9307361900036160e-01 +8.1011653037076883e+00 -1.6170550148890348e+00 +6.2098620624094224e+01 +1.2406975696073443e+04 -5.3262995832528465e+05 -5.8451843080166839e+07 
-1.0000000000000000e+00 -5.9307386205565626e-01 +8.1011835833587842e+00 -1.6197225372214070e+00 +6.2159103712939320e+01 +1.2446391422263949e+04 -5.3366254887843854e+05 -5.8592340320743591e+07 
-1.1000000000000001e+00 -5.9307409949669976e-01 +8.1012023015332115e+00 -1.6227434937421876e+00 +6.2194205252190329e+01 +1.2489954304464674e+04 -5.3452042382952024e+05 -5.8750750629531257e+07 
-1.2000000000000000e+00 -5.9307433064060888e-01 +8.1012215037412041e+00 -1.6260779459596799e+00 +6.2200496697525921e+01 +1.2537032757198320e+04 -5.3518743336499529e+05 -5.8924805846265703e+07 
-1.3000000000000000e+00 -5.9307455480461935e-01 +8.1012412354978451e+00 -1.6296859548014810e+00 +6.2174549393377838e+01 +1.2586995184919486e+04 -5.3564742699084978e+05 -5.9112237772128724e+07 
-1.3999999999999999e+00 -5.9307477130595809e-01 +8.1012615423159495e+00 -1.6335275820216137e+00 +6.2112934772403690e+01 +1.2639210014437765e+04 -5.3588425468232122e+05 -5.9310778341890730e+07 
-1.5000000000000000e+00 -5.9307497946182197e-01 +8.1012824697075558e+00 -1.6375628852566333e+00 +6.2012224328203885e+01 +1.2693045596477454e+04 -5.3588176675591967e+05 -5.9518159141798377e+07 
-1.6000000000000001e+00 -5.9307517858943593e-01 +8.1013040631800131e+00 -1.6417519223046484e+00 +6.1868989702143118e+01 +1.2747870293697140e+04 -5.3562381427347928e+05 -5.9732111848376103e+07 
-1.7000000000000000e+00 -5.9307536800601468e-01 +8.1013263682445782e+00 -1.6460547514152393e+00 +6.1679802463778493e+01 +1.2803052479661397e+04 -5.3509424785889871e+05 -5.9950368205133021e+07 
-1.8000000000000000e+00 -5.9307554702881704e-01 +8.1013494304014788e+00 -1.6504314285970030e+00 +6.1441234530138850e+01 +1.2857960493883282e+04 -5.3427692007652053e+05 -6.0170659827958301e+07 
-1.8999999999999999e+00 -5.9307571497505018e-01 +8.1013732951545201e+00 -1.6548420090824505e+00 +6.1149857738780454e+01 +1.2911962671548239e+04 -5.3315568293313438e+05 -6.0390718350020237e+07 
-2.0000000000000000e+00 -5.9307587116199845e-01 +8.1013980080037502e+00 -1.6592465448062597e+00 +6.0802244080429666e+01 +1.2964427289621744e+04 -5.3171438926504273e+05 -6.0608275150305703e+07 
-2.1000000000000001e+00 -5.9307601524869635e-01 +8.1014235650673996e+00 -1.6636086824922924e+00 +6.0396603856145404e+01 +1.3014837429135525e+04 -5.2994447027485189e+05 -6.0821509190541483e+07 
-2.2000000000000002e+00 -5.9307614826127697e-01 +8.1014497711890101e+00 -1.6679058412032117e+00 +5.9937652214518572e+01 +1.3063114243176422e+04 -5.2786777499455702e+05 -6.1030291613710374e+07 
-2.2999999999999998e+00 -5.9307627156737219e-01 +8.1014763849127842e+00 -1.6721187450043034e+00 +5.9431719816067528e+01 +1.3109283330564920e+04 -5.2551378806311567e+05 -6.1234892865334593e+07 
-2.3999999999999999e+00 -5.9307638653467809e-01 +8.1015031647876175e+00 -1.6762281168667115e+00 +5.8885137158584186e+01 +1.3153370263285837e+04 -5.2291199311279296e+05 -6.1435583248744577e+07 
-2.5000000000000000e+00 -5.9307649453078815e-01 +8.1015298693601832e+00 -1.6802146834864160e+00 +5.8304234736938703e+01 +1.3195400673856831e+04 -5.2009187359815493e+05 -6.1632633335318156e+07 
-2.6000000000000001e+00 -5.9307659692329284e-01 +8.1015562571689017e+00 -1.6840591716291962e+00 +5.7695343236924366e+01 +1.3235400190908007e+04 -5.1708291397414665e+05 -6.1826313666826941e+07 
-2.7000000000000002e+00 -5.9307669507989080e-01 +8.1015820867508896e+00 -1.6877423078973566e+00 +5.7064793299669681e+01 +1.3273394430627019e+04 -5.1391459826254752e+05 -6.2016894704858750e+07 
-2.7999999999999998e+00 -5.9307679036809802e-01 +8.1016071166431924e+00 -1.6912448188525691e+00 +5.6418915509180380e+01 +1.3309408997003964e+04 -5.1061641004575032e+05 -6.2204646824876741e+07 
-2.8999999999999999e+00 -5.9307688415553894e-01 +8.1016311053729098e+00 -1.6945474344261269e+00 +5.5764040643430420e+01 +1.3343469547730836e+04 -5.0721783384237683e+05 -6.2389840634583056e+07 
-3.0000000000000000e+00 -5.9307697780972923e-01 +8.1016538114673686e+00 -1.6976308862299783e+00 +5.5106499386989903e+01 +1.3375601760101939e+04 -5.0374835347226664e+05 -6.2572746803540453e+07 
-3.1000000000000001e+00 -5.9307707269820598e-01 +8.1016749934507146e+00 -1.7004759056527934e+00 +5.4452622414762523e+01 +1.3405831295258591e+04 -5.0023745251437899e+05 -6.2753635895997569e+07 
-3.2000000000000002e+00 -5.9307717018849537e-01 +8.1016944098410608e+00 -1.7030632278691107e+00 +5.3808740483067822e+01 +1.3434183871389791e+04 -4.9671461486753682e+05 -6.2932778708599493e+07 
-3.2999999999999998e+00 -5.9307727164803792e-01 +8.1017118191528201e+00 -1.7053735862319648e+00 +5.3181184331170201e+01 +1.3460685156850715e+04 -4.9320932410934911e+05 -6.3110445762839615e+07 
-3.3999999999999999e+00 -5.9307737844437536e-01 +8.1017269798941047e+00 -1.7073877183325694e+00 +5.2576284772438449e+01 +1.3485360883862906e+04 -4.8975106407755276e+05 -6.3286907841382526e+07 
-3.5000000000000000e+00 -5.9307749194483961e-01 +8.1017396505685966e+00 -1.7090863650782757e+00 +5.2000372613451098e+01 +1.3508236831426650e+04 -4.8636931834567402e+05 -6.3462435904577516e+07 
-3.6000000000000001e+00 -5.9307761351688382e-01 +8.1017495896795797e+00 -1.7104502686238237e+00 +5.1459778547749345e+01 +1.3529338784966356e+04 -4.8309356963857519e+05 -6.3637300900784105e+07 
-3.7000000000000002e+00 -5.9307774452784967e-01 +8.1017565557203053e+00 -1.7114601725274112e+00 +5.0960833405954332e+01 +1.3548692535437183e+04 -4.7995330122334836e+05 -6.3811773747376733e+07 
-3.7999999999999998e+00 -5.9307788634507741e-01 +8.1017603071764466e+00 -1.7120968228624520e+00 +5.0509868104110161e+01 +1.3566323902731630e+04 -4.7697799667313136e+05 -6.3986125447758578e+07 
-3.8999999999999999e+00 -5.9307804033586187e-01 +8.1017606025359985e+00 -1.7123409697191050e+00 +5.0113213327395222e+01 +1.3582258762497402e+04 -4.7419713796072273e+05 -6.4160627217137940e+07 
-4.0000000000000000e+00 -5.9307820786750365e-01 +8.1017572002758307e+00 -1.7121733640672172e+00 +4.9777199922106881e+01 +1.3596522981827495e+04 -4.7164020777459268e+05 -6.4335550162029937e+07 
-4.0999999999999996e+00 -5.9307839003440843e-01 +8.1017499293937938e+00 -1.7115830744598248e+00 +4.9506951736968837e+01 +1.3609128714538389e+04 -4.6933251397931128e+05 -6.4510853324018188e+07 
-4.2000000000000002e+00 -5.9307858683964965e-01 +8.1017388914280630e+00 -1.7105943430925952e+00 +4.9303127898736356e+01 +1.3620065299039270e+04 -4.6728434280889586e+05 -6.4685357793710746e+07 
-4.2999999999999998e+00 -5.9307879801319441e-01 +8.1017242537092908e+00 -1.7092406850223454e+00 +4.9165362522497553e+01 +1.3629324126982670e+04 -4.6550265458268870e+05 -6.4857626564913973e+07 
-4.4000000000000004e+00 -5.9307902328514761e-01 +8.1017061835796671e+00 -1.7075556146575162e+00 +4.9093289493276643e+01 +1.3636896581728239e+04 -4.6399440874864382e+05 -6.5026222584138982e+07 
-4.5000000000000000e+00 -5.9307926238551389e-01 +8.1016848483842008e+00 -1.7055726486312637e+00 +4.9086542705192784e+01 +1.3642774089367362e+04 -4.6276656525538285e+05 -6.5189708984748282e+07 
-4.5999999999999996e+00 -5.9307951504434619e-01 +8.1016604154814527e+00 -1.7033253037954437e+00 +4.9144755768019920e+01 +1.3646948089312384e+04 -4.6182608291425620e+05 -6.5346648965358853e+07 
-4.7000000000000002e+00 -5.9307978099169523e-01 +8.1016330522404392e+00 -1.7008471017605671e+00 +4.9267562111523617e+01 +1.3649410108879381e+04 -4.6117992004106200e+05 -6.5495606114503503e+07 
-4.7999999999999998e+00 -5.9308005995759971e-01 +8.1016029260395985e+00 -1.6981715603969769e+00 +4.9454595013584012e+01 +1.3650151612405676e+04 -4.6083503463626496e+05 -6.5635143719990551e+07 
-4.9000000000000004e+00 -5.9308035167207784e-01 +8.1015702042633180e+00 -1.6953322061237710e+00 +4.9705487711202238e+01 +1.3649164232965875e+04 -4.6079838505289314e+05 -6.5763825863511033e+07 
-5.0000000000000000e+00 -5.9308065586519254e-01 +8.1015350543196636e+00 -1.6923625613889177e+00 +5.0019872899751562e+01 +1.3646439531138896e+04 -4.6107692714647838e+05 -6.5880216264382444e+07 
-5.0999999999999996e+00 -5.9308097226702650e-01 +8.1014976436150086e+00 -1.6892961524793526e+00 +5.0397383480947276e+01 +1.3641969150296287e+04 -4.6167761865415936e+05 -6.5982879035447456e+07 
-5.2000000000000002e+00 -5.9308130060759723e-01 +8.1014581395816414e+00 -1.6861665083826156e+00 +5.0837651750054100e+01 +1.3635744789490062e+04 -4.6260741445340647e+05 -6.6070378537125349e+07 
-5.2999999999999998e+00 -5.9308164061696322e-01 +8.1014167096555862e+00 -1.6830071593591172e+00 +5.1340310071630689e+01 +1.3627758181304478e+04 -4.6387327058063721e+05 -6.6141279285909325e+07 
-5.4000000000000004e+00 -5.9308199202521816e-01 +8.1013735212908742e+00 -1.6798516375198265e+00 +5.1904990466884598e+01 +1.3618001100091667e+04 -4.6548214185231575e+05 -6.6194145982079826e+07 
-5.5000000000000000e+00 -5.9308235456238612e-01 +8.1013287419598825e+00 -1.6767334753825223e+00 +5.2531324602398279e+01 +1.3606465338846132e+04 -4.6744098179652868e+05 -6.6227543413481273e+07 
-5.5999999999999996e+00 -5.9308272795861861e-01 +8.1012825391428365e+00 -1.6736862108683481e+00 +5.3218944109733108e+01 +1.3593142801455318e+04 -4.6975674456730939e+05 -6.6240036882369801e+07 
-5.7000000000000002e+00 -5.9308311194393004e-01 +8.1012350803447450e+00 -1.6707433796406201e+00 +5.3967480115472398e+01 +1.3578025358727216e+04 -4.7243638228199090e+05 -6.6230191526927866e+07 
-5.7999999999999998e+00 -5.9308350624845385e-01 +8.1011865330771311e+00 -1.6679385241716862e+00 +5.4776563745609941e+01 +1.3561105021167950e+04 -4.7548684787958354e+05 -6.6196573141417593e+07 
-5.9000000000000004e+00 -5.9308391060225407e-01 +8.1011370648792180e+00 -1.6653051843111266e+00 +5.5645825566304417e+01 +1.3542373762223611e+04 -4.7891509204916732e+05 -6.6137747339780129e+07 
-5.9999999999999902e+00 -5.9308432473552364e-01 +8.1010868433024346e+00 -1.6628769052974746e+00 +5.6574896006602195e+01 +1.3521823670019190e+04 -4.8272806558149797e+05 -6.6052280276387833e+07 
-6.0999999999999899e+00 -5.9308474828870483e-01 +8.1010360588138823e+00 -1.6606818245637909e+00 +5.7562149019465593e+01 +1.3499488184975915e+04 -4.8692501629741967e+05 -6.5939311165342987e+07 
-6.1999999999999904e+00 -5.9308518055424830e-01 +8.1009849963263711e+00 -1.6587259413770634e+00 +5.8600318078017132e+01 +1.3475591132702999e+04 -4.9147037022516760e+05 -6.5800460830958471e+07 
-6.2999999999999901e+00 -5.9308562074031357e-01 +8.1009339652250123e+00 -1.6570095790472239e+00 +5.9680563327812564e+01 +1.3450411342995585e+04 -4.9631879145703407e+05 -6.5638026123695299e+07 
-6.3999999999999897e+00 -5.9308606805507524e-01 +8.1008832748982229e+00 -1.6555330572905120e+00 +6.0794044774228880e+01 +1.3424227607393208e+04 -5.0142494299193728e+05 -6.5454303794592917e+07 
-6.4999999999999902e+00 -5.9308652170673359e-01 +8.1008332347253411e+00 -1.6542966861055606e+00 +6.1931922646019018e+01 +1.3397318554684078e+04 -5.0674348877241666e+05 -6.5251589888914488e+07 
-6.5999999999999899e+00 -5.9308698090361589e-01 +8.1007841540862344e+00 -1.6533007769364096e+00 +6.3085357118941182e+01 +1.3369962872827095e+04 -5.1222909206236433e+05 -6.5032180825338177e+07 
-6.6999999999999904e+00 -5.9308744485407594e-01 +8.1007363423544732e+00 -1.6525456276744721e+00 +6.4245508508403304e+01 +1.3342439014426242e+04 -5.1783641654577933e+05 -6.4798371972701676e+07 
-6.7999999999999901e+00 -5.9308791276652850e-01 +8.1006901089009791e+00 -1.6520315340833818e+00 +6.5403537165083122e+01 +1.3315025422746512e+04 -5.2352012570756359e+05 -6.4552458750316054e+07 
-6.8999999999999897e+00 -5.9308838384944840e-01 +8.1006457630902666e+00 -1.6517587864912950e+00 +6.6550603584808542e+01 +1.3288000467662427e+04 -5.2923488345909561e+05 -6.4296736318028629e+07 
-6.9999999999999902e+00 -5.9308885731145233e-01 +8.1006036142815869e+00 -1.6517276625730679e+00 +6.7677868345210513e+01 +1.3261642307267706e+04 -5.3493535367113038e+05 -6.4033498916860715e+07 
-7.0999999999999899e+00 -5.9308933236110473e-01 +8.1005639718291089e+00 -1.6519384411448370e+00 +6.8776492154878198e+01 +1.3236229153982573e+04 -5.4057620060190721e+05 -6.3765041146604382e+07 
-7.1999999999999904e+00 -5.9308980820713619e-01 +8.1005271450850813e+00 -1.6523913856383858e+00 +6.9837635685167442e+01 +1.3212038960973932e+04 -5.4611208768725814e+05 -6.3493656476054952e+07 
-7.2999999999999901e+00 -5.9309028405833397e-01 +8.1004934433898299e+00 -1.6530867580785871e+00 +7.0852459923369537e+01 +1.3189349686325373e+04 -5.5149767974604340e+05 -6.3221638495362557e+07 
-7.3999999999999897e+00 -5.9309075912349785e-01 +8.1004631760837231e+00 -1.6540248095681629e+00 +7.1812125780981944e+01 +1.3168439116099638e+04 -5.5668764059471129e+05 -6.2951280086521097e+07 
-7.4999999999999902e+00 -5.9309123261164909e-01 +8.1004366524947038e+00 -1.6552057838033885e+00 +7.2707794467558202e+01 +1.3149584928670174e+04 -5.6163663520080689e+05 -6.2684873722448975e+07 
-7.5999999999999899e+00 -5.9309170373172437e-01 +8.1004141819499456e+00 -1.6566299154721640e+00 +7.3530627157469723e+01 +1.3133064672467639e+04 -5.6629932777541550e+05 -6.2424711385173216e+07 
-7.6999999999999904e+00 -5.9309217169283790e-01 +8.1003960737638803e+00 -1.6582974330119995e+00 +7.4271785308933218e+01 +1.3119155809137177e+04 -5.7063038351660641e+05 -6.2173084746577479e+07 
-7.7999999999999901e+00 -5.9309263570422033e-01 +8.1003826372505241e+00 -1.6602085528472654e+00 +7.4922430340257449e+01 +1.3108135611980349e+04 -5.7458446682565380e+05 -6.1932284705352768e+07 
-7.8999999999999897e+00 -5.9309309497510498e-01 +8.1003741817083554e+00 -1.6623634858432090e+00 +7.5473724031599076e+01 +1.3100281291299150e+04 -5.7811624349696084e+05 -6.1704601995250449e+07 
-7.9999999999999902e+00 -5.9309354871490583e-01 +8.1003710164314970e+00 -1.6647624295428973e+00 +7.5916828197186604e+01 +1.3095869837937575e+04 -5.8118037880657602e+05 -6.1492326409575909e+07 
-8.0999999999999908e+00 -5.9309399640367721e-01 +8.1003733208803030e+00 -1.6674016315719085e+00 +7.6245778692999281e+01 +1.3095116837349149e+04 -5.8374475009805802e+05 -6.1297446996239096e+07 
-8.1999999999999904e+00 -5.9309443858692845e-01 +8.1003807646024821e+00 -1.6702570201246782e+00 +7.6466177391546708e+01 +1.3097885400413268e+04 -5.8583070441164216e+05 -6.1120273484899163e+07 
-8.2999999999999901e+00 -5.9309487607201528e-01 +8.1003928915176928e+00 -1.6732983401212860e+00 +7.6586546580527937e+01 +1.3103923469369603e+04 -5.8747313912573759e+05 -6.0960574324907251e+07 
-8.3999999999999897e+00 -5.9309530966623614e-01 +8.1004092455385948e+00 -1.6764953430430909e+00 +7.6615408671504355e+01 +1.3112979071283919e+04 -5.8870695164323971e+05 -6.0818118298086554e+07 
-8.4999999999999893e+00 -5.9309574017687683e-01 +8.1004293705572330e+00 -1.6798177813542983e+00 +7.6561286582539708e+01 +1.3124800217025118e+04 -5.8956704170697264e+05 -6.0692674042655319e+07 
-8.5999999999999908e+00 -5.9309616841106105e-01 +8.1004528104452902e+00 -1.6832354155506040e+00 +7.6432703755319395e+01 +1.3139135030101163e+04 -5.9008831158357323e+05 -6.0584010652123258e+07 
-8.6999999999999904e+00 -5.9309659517583890e-01 +8.1004791090639063e+00 -1.6867180143129390e+00 +7.6238183834629112e+01 +1.3155731749508437e+04 -5.9030566407632898e+05 -6.0491897689213194e+07 
-8.7999999999999794e+00 -5.9309702127818531e-01 +8.1005078102535926e+00 -1.6902353505664840e+00 +7.5986250981816852e+01 +1.3174338651645152e+04 -5.9025400439957692e+05 -6.0416104807322197e+07 
-8.8999999999999808e+00 -5.9309744752501659e-01 +8.1005384578330926e+00 -1.6937572032280244e+00 +7.5685429888382473e+01 +1.3194704085648425e+04 -5.8996824019444012e+05 -6.0356401924814023e+07 
-8.9999999999999805e+00 -5.9309787472308229e-01 +8.1005705956095984e+00 -1.6972533594309380e+00 +7.5344245496887837e+01 +1.3216576511381072e+04 -5.8948327995467826e+05 -6.0312559394699633e+07 
-9.0999999999999801e+00 -5.9309830367907757e-01 +8.1006037673655999e+00 -1.7006936115382452e+00 +7.4971223354290856e+01 +1.3239704443502560e+04 -5.8883403498417186e+05 -6.0284347741631925e+07 
-9.1999999999999797e+00 -5.9309873519957401e-01 +8.1006375168656977e+00 -1.7040477615417384e+00 +7.4574889438207094e+01 +1.3263836532502692e+04 -5.8805541844310518e+05 -6.0271538042836040e+07 
-9.2999999999999794e+00 -5.9309917009107738e-01 +8.1006713878556731e+00 -1.7072856174987865e+00 +7.4163770165001395e+01 +1.3288721492852361e+04 -5.8718234534092946e+05 -6.0273901573291332e+07 
-9.3999999999999808e+00 -5.9309960915994220e-01 +8.1007049240569078e+00 -1.7103769935716031e+00 +7.3746392550506897e+01 +1.3314108109456378e+04 -5.8624973345459660e+05 -6.0291209854460500e+07 
-9.4999999999999805e+00 -5.9310005321240877e-01 +8.1007376691717194e+00 -1.7132917150403095e+00 +7.3331284057148721e+01 +1.3339745322865443e+04 -5.8529250243991497e+05 -6.0323235034521103e+07 
-9.5999999999999801e+00 -5.9310050305464279e-01 +8.1007691668817596e+00 -1.7159996113845397e+00 +7.2926972640136498e+01 +1.3365382105836208e+04 -5.8434557408806658e+05 -6.0369749319745094e+07 
-9.6999999999999797e+00 -5.9310095949267583e-01 +8.1007989608490085e+00 -1.7184705249247654e+00 +7.2541986702253752e+01 +1.3390767614658622e+04 -5.8344387200460036e+05 -6.0430525664548866e+07 
-9.7999999999999794e+00 -5.9310142333241300e-01 +8.1008265947043174e+00 -1.7206743008829355e+00 +7.2184855446801478e+01 +1.3415651011738193e+04 -5.8262232372027624e+05 -6.0505336956949592e+07 
-9.8999999999999808e+00 -5.9310189537963520e-01 +8.1008516120638649e+00 -1.7225807964013293e+00 +7.1864108368028980e+01 +1.3439781623648634e+04 -5.8191585761956067e+05 -6.0593956735649988e+07 
-9.9999999999999805e+00 -5.9310237644001640e-01 +8.1008735565183088e+00 -1.7241598789349444e+00 +7.1588275598985803e+01 +1.3462908918492720e+04 -5.8135940501686046e+05 -6.0696159102756009e+07 
-1.0100000000000000e+01 -5.9310286715981764e-01 +8.1008920764584058e+00 -1.7253853065029463e+00 +7.1364036825258026e+01 +1.3484762435922150e+04 -5.8098034598523285e+05 -6.0811341356926121e+07 
