# trajectory
# s[mm] rx[mm] ry[mm] rz[mm] px[rad] py[rad] pz[rad]
0.0000000000000000e+00 +7.9199999999999999e+00 +0.0000000000000000e+00 +0.0000000000000000e+00 +0.0000000000000000e+00 +0.0000000000000000e+00 +1.0000000000000000e+00
-1.0000000000000001e-01 +7.9199997168473892e+00 +0.0000000000000000e+00 -9.9999999999465489e-02 +5.6630521634671279e-06 +0.0000000000000000e+00 +9.9999999998396494e-01
-2.0000000000000001e-01 +7.9199988673895758e+00 +0.0000000000000000e+00 -1.9999999999572399e-01 +1.1326104084276025e-05 +0.0000000000000000e+00 +9.9999999993585975e-01
-3.0000000000000004e-01 +7.9199974516265765e+00 +0.0000000000000000e+00 -2.9999999998556848e-01 +1.6989155892415773e-05 +0.0000000000000000e+00 +9.9999999985568433e-01
-4.0000000000000002e-01 +7.9199954695583967e+00 +0.0000000000000000e+00 -3.9999999996579189e-01 +2.2652207715396101e-05 +0.0000000000000000e+00 +9.9999999974343878e-01
-5.0000000000000000e-01 +7.9199929211850284e+00 +0.0000000000000000e+00 -4.9999999993318722e-01 +2.8315259678247474e-05 +0.0000000000000000e+00 +9.9999999959912311e-01
-5.9999999999999998e-01 +7.9199898065064520e+00 +0.0000000000000000e+00 -5.9999999988454755e-01 +3.3978311903521198e-05 +0.0000000000000000e+00 +9.9999999942273721e-01
-6.9999999999999996e-01 +7.9199861255226347e+00 +0.0000000000000000e+00 -6.9999999981666572e-01 +3.9641364511289515e-05 +0.0000000000000000e+00 +9.9999999921428118e-01
-7.9999999999999993e-01 +7.9199818782335329e+00 +0.0000000000000000e+00 -7.9999999972633473e-01 +4.5304417619145705e-05 +0.0000000000000000e+00 +9.9999999897375491e-01
-8.9999999999999991e-01 +7.9199770646390908e+00 +0.0000000000000000e+00 -8.9999999961034760e-01 +5.0967471342204187e-05 +0.0000000000000000e+00 +9.9999999870115852e-01
-9.9999999999999989e-01 +7.9199716847392407e+00 +0.0000000000000000e+00 -9.9999999946549734e-01 +5.6630525793100626e-05 +0.0000000000000000e+00 +9.9999999839649190e-01
-1.0999999999999999e+00 +7.9199657385339046e+00 +0.0000000000000000e+00 -1.0999999992885769e+00 +6.2293581081992021e-05 +0.0000000000000000e+00 +9.9999999805975504e-01
-1.2000000000000000e+00 +7.9199592260229927e+00 +0.0000000000000000e+00 -1.1999999990763794e+00 +6.7956637316556813e-05 +0.0000000000000000e+00 +9.9999999769094783e-01
-1.3000000000000000e+00 +7.9199521472064056e+00 +0.0000000000000000e+00 -1.2999999988256976e+00 +7.3619694601994982e-05 +0.0000000000000000e+00 +9.9999999729007039e-01
-1.4000000000000001e+00 +7.9199445020840331e+00 +0.0000000000000000e+00 -1.3999999985333245e+00 +7.9282753041028179e-05 +0.0000000000000000e+00 +9.9999999685712260e-01
-1.5000000000000002e+00 +7.9199362906557553e+00 +0.0000000000000000e+00 -1.4999999981960530e+00 +8.4945812733899800e-05 +0.0000000000000000e+00 +9.9999999639210446e-01
-1.6000000000000003e+00 +7.9199275129214417e+00 +0.0000000000000000e+00 -1.5999999978106763e+00 +9.0608873778375091e-05 +0.0000000000000000e+00 +9.9999999589501598e-01
-1.7000000000000004e+00 +7.9199181688809519e+00 +0.0000000000000000e+00 -1.6999999973739872e+00 +9.6271936269741288e-05 +0.0000000000000000e+00 +9.9999999536585715e-01
-1.8000000000000005e+00 +7.9199082585341367e+00 +0.0000000000000000e+00 -1.7999999968827787e+00 +1.0193500030080767e-04 +0.0000000000000000e+00 +9.9999999480462787e-01
-1.9000000000000006e+00 +7.9198977818808372e+00 +0.0000000000000000e+00 -1.8999999963338436e+00 +1.0759806596190572e-04 +0.0000000000000000e+00 +9.9999999421132812e-01
-2.0000000000000004e+00 +7.9198867389208871e+00 +0.0000000000000000e+00 -1.9999999957239751e+00 +1.1326113334088919e-04 +0.0000000000000000e+00 +9.9999999358595781e-01
-2.1000000000000005e+00 +7.9198751296541090e+00 +0.0000000000000000e+00 -2.0999999950499659e+00 +1.1892420252283883e-04 +0.0000000000000000e+00 +9.9999999292851705e-01
-2.2000000000000006e+00 +7.9198629540803198e+00 +0.0000000000000000e+00 -2.1999999943086093e+00 +1.2458727358681280e-04 +0.0000000000000000e+00 +9.9999999223900560e-01
-2.3000000000000007e+00 +7.9198502121993268e+00 +0.0000000000000000e+00 -2.2999999934966979e+00 +1.3025034660259696e-04 +0.0000000000000000e+00 +9.9999999151742358e-01
-2.4000000000000008e+00 +7.9198369040109320e+00 +0.0000000000000000e+00 -2.3999999926110247e+00 +1.3591342163040942e-04 +0.0000000000000000e+00 +9.9999999076377089e-01
-2.5000000000000009e+00 +7.9198230295149319e+00 +0.0000000000000000e+00 -2.4999999916483828e+00 +1.4157649872090033e-04 +0.0000000000000000e+00 +9.9999998997804751e-01
-2.6000000000000010e+00 +7.9198085887111178e+00 +0.0000000000000000e+00 -2.5999999906055651e+00 +1.4723957791515173e-04 +0.0000000000000000e+00 +9.9999998916025334e-01
-2.7000000000000011e+00 +7.9197935815992775e+00 +0.0000000000000000e+00 -2.6999999894793643e+00 +1.5290265924467738e-04 +0.0000000000000000e+00 +9.9999998831038839e-01
-2.8000000000000012e+00 +7.9197780081791969e+00 +0.0000000000000000e+00 -2.7999999882665736e+00 +1.5856574273142250e-04 +0.0000000000000000e+00 +9.9999998742845264e-01
-2.9000000000000012e+00 +7.9197618684506592e+00 +0.0000000000000000e+00 -2.8999999869639859e+00 +1.6422882838776362e-04 +0.0000000000000000e+00 +9.9999998651444599e-01
-3.0000000000000013e+00 +7.9197451624134469e+00 +0.0000000000000000e+00 -2.9999999855683939e+00 +1.6989191621650821e-04 +0.0000000000000000e+00 +9.9999998556836844e-01
-3.1000000000000014e+00 +7.9197278900673433e+00 +0.0000000000000000e+00 -3.0999999840765904e+00 +1.7555500621089447e-04 +0.0000000000000000e+00 +9.9999998459021988e-01
-3.2000000000000015e+00 +7.9197100514121326e+00 +0.0000000000000000e+00 -3.1999999824853687e+00 +1.8121809835459102e-04 +0.0000000000000000e+00 +9.9999998358000042e-01
-3.3000000000000016e+00 +7.9196916464476015e+00 +0.0000000000000000e+00 -3.2999999807915215e+00 +1.8688119262169655e-04 +0.0000000000000000e+00 +9.9999998253770994e-01
-3.4000000000000017e+00 +7.9196726751735387e+00 +0.0000000000000000e+00 -3.3999999789918416e+00 +1.9254428897673946e-04 +0.0000000000000000e+00 +9.9999998146334834e-01
-3.5000000000000018e+00 +7.9196531375897381e+00 +0.0000000000000000e+00 -3.4999999770831218e+00 +1.9820738737467750e-04 +0.0000000000000000e+00 +9.9999998035691573e-01
-3.6000000000000019e+00 +7.9196330336959972e+00 +0.0000000000000000e+00 -3.5999999750621554e+00 +2.0387048776089738e-04 +0.0000000000000000e+00 +9.9999997921841199e-01
-3.7000000000000020e+00 +7.9196123634921216e+00 +0.0000000000000000e+00 -3.6999999729257351e+00 +2.0953359007121430e-04 +0.0000000000000000e+00 +9.9999997804783713e-01
-3.8000000000000020e+00 +7.9195911269779211e+00 +0.0000000000000000e+00 -3.7999999706706538e+00 +2.1519669423187158e-04 +0.0000000000000000e+00 +9.9999997684519115e-01
-3.9000000000000021e+00 +7.9195693241532155e+00 +0.0000000000000000e+00 -3.8999999682937041e+00 +2.2085980015954006e-04 +0.0000000000000000e+00 +9.9999997561047405e-01
-4.0000000000000018e+00 +7.9195469550178332e+00 +0.0000000000000000e+00 -3.9999999657916794e+00 +2.2652290776131777e-04 +0.0000000000000000e+00 +9.9999997434368582e-01
-4.1000000000000014e+00 +7.9195240195716110e+00 +0.0000000000000000e+00 -4.0999999631613724e+00 +2.3218601693522447e-04 +0.0000000000000000e+00 +9.9999997304482646e-01
-4.2000000000000011e+00 +7.9195005178143969e+00 +0.0000000000000000e+00 -4.1999999603995759e+00 +2.3784912757564828e-04 +0.0000000000000000e+00 +9.9999997171389587e-01
-4.3000000000000007e+00 +7.9194764497460497e+00 +0.0000000000000000e+00 -4.2999999575030827e+00 +2.4351223957879258e-04 +0.0000000000000000e+00 +9.9999997035089416e-01
-4.4000000000000004e+00 +7.9194518153664388e+00 +0.0000000000000000e+00 -4.3999999544686856e+00 +2.4917535284317137e-04 +0.0000000000000000e+00 +9.9999996895582133e-01
-4.5000000000000000e+00 +7.9194266146754426e+00 +0.0000000000000000e+00 -4.4999999512931774e+00 +2.5483846726960941e-04 +0.0000000000000000e+00 +9.9999996752867737e-01
-4.5999999999999996e+00 +7.9194008476729492e+00 +0.0000000000000000e+00 -4.5999999479733518e+00 +2.6050158276124243e-04 +0.0000000000000000e+00 +9.9999996606946218e-01
-4.6999999999999993e+00 +7.9193745143588572e+00 +0.0000000000000000e+00 -4.6999999445060006e+00 +2.6616469922351730e-04 +0.0000000000000000e+00 +9.9999996457817586e-01
-4.7999999999999989e+00 +7.9193476147330744e+00 +0.0000000000000000e+00 -4.7999999408879175e+00 +2.7182781656419228e-04 +0.0000000000000000e+00 +9.9999996305481842e-01
-4.8999999999999986e+00 +7.9193201487955180e+00 +0.0000000000000000e+00 -4.8999999371158953e+00 +2.7749093469333730e-04 +0.0000000000000000e+00 +9.9999996149938986e-01
-4.9999999999999982e+00 +7.9192921165461128e+00 +0.0000000000000000e+00 -4.9999999331867269e+00 +2.8315405352333407e-04 +0.0000000000000000e+00 +9.9999995991189017e-01
-5.0999999999999979e+00 +7.9192635179847928e+00 +0.0000000000000000e+00 -5.0999999290972049e+00 +2.8881717296887655e-04 +0.0000000000000000e+00 +9.9999995829231947e-01
-5.1999999999999975e+00 +7.9192343531115013e+00 +0.0000000000000000e+00 -5.1999999248441222e+00 +2.9448029294697106e-04 +0.0000000000000000e+00 +9.9999995664067765e-01
-5.2999999999999972e+00 +7.9192046219261885e+00 +0.0000000000000000e+00 -5.2999999204242716e+00 +3.0014341337693680e-04 +0.0000000000000000e+00 +9.9999995495696470e-01
-5.3999999999999968e+00 +7.9191743244288135e+00 +0.0000000000000000e+00 -5.3999999158344458e+00 +3.0580653418040606e-04 +0.0000000000000000e+00 +9.9999995324118074e-01
-5.4999999999999964e+00 +7.9191434606193427e+00 +0.0000000000000000e+00 -5.4999999110714386e+00 +3.1146965528132452e-04 +0.0000000000000000e+00 +9.9999995149332577e-01
-5.5999999999999961e+00 +7.9191120304977503e+00 +0.0000000000000000e+00 -5.5999999061320418e+00 +3.1713277660595172e-04 +0.0000000000000000e+00 +9.9999994971339978e-01
-5.6999999999999957e+00 +7.9190800340640166e+00 +0.0000000000000000e+00 -5.6999999010130491e+00 +3.2279589808286146e-04 +0.0000000000000000e+00 +9.9999994790140279e-01
-5.7999999999999954e+00 +7.9190474713181311e+00 +0.0000000000000000e+00 -5.7999998957112533e+00 +3.2845901964294213e-04 +0.0000000000000000e+00 +9.9999994605733478e-01
-5.8999999999999950e+00 +7.9190143422600876e+00 +0.0000000000000000e+00 -5.8999998902234472e+00 +3.3412214121939724e-04 +0.0000000000000000e+00 +9.9999994418119587e-01
-5.9999999999999947e+00 +7.9189806468898887e+00 +0.0000000000000000e+00 -5.9999998845464235e+00 +3.3978526274774571e-04 +0.0000000000000000e+00 +9.9999994227298594e-01
-6.0999999999999943e+00 +7.9189463852075415e+00 +0.0000000000000000e+00 -6.0999998786769751e+00 +3.4544838416660710e-04 +0.0000000000000000e+00 +9.9999994033270512e-01
-6.1999999999999940e+00 +7.9189115572130602e+00 +0.0000000000000000e+00 -6.1999998726118957e+00 +3.5111150542633282e-04 +0.0000000000000000e+00 +9.9999993836035339e-01
-6.2999999999999936e+00 +7.9188761629064626e+00 +0.0000000000000000e+00 -6.2999998663479770e+00 +3.5677462649763716e-04 +0.0000000000000000e+00 +9.9999993635593087e-01
-6.3999999999999932e+00 +7.9188402022877673e+00 +0.0000000000000000e+00 -6.3999998598820129e+00 +3.6243774737238193e-04 +0.0000000000000000e+00 +9.9999993431943746e-01
-6.4999999999999929e+00 +7.9188036753569939e+00 +0.0000000000000000e+00 -6.4999998532107961e+00 +3.6810086806357664e-04 +0.0000000000000000e+00 +9.9999993225087314e-01
-6.5999999999999925e+00 +7.9187665821141593e+00 +0.0000000000000000e+00 -6.5999998463311185e+00 +3.7376398860537854e-04 +0.0000000000000000e+00 +9.9999993015023791e-01
-6.6999999999999922e+00 +7.9187289225592759e+00 +0.0000000000000000e+00 -6.6999998392397746e+00 +3.7942710905309267e-04 +0.0000000000000000e+00 +9.9999992801753179e-01
-6.7999999999999918e+00 +7.9186906966923489e+00 +0.0000000000000000e+00 -6.7999998319335564e+00 +3.8509022948317198e-04 +0.0000000000000000e+00 +9.9999992585275477e-01
-6.8999999999999915e+00 +7.9186519045133759e+00 +0.0000000000000000e+00 -6.8999998244092566e+00 +3.9075334999321733e-04 +0.0000000000000000e+00 +9.9999992365590673e-01
-6.9999999999999911e+00 +7.9186125460223433e+00 +0.0000000000000000e+00 -6.9999998166636690e+00 +3.9641647070197769e-04 +0.0000000000000000e+00 +9.9999992142698768e-01
-7.0999999999999908e+00 +7.9185726212192238e+00 +0.0000000000000000e+00 -7.0999998086935854e+00 +4.0207959174935011e-04 +0.0000000000000000e+00 +9.9999991916599762e-01
-7.1999999999999904e+00 +7.9185321301039764e+00 +0.0000000000000000e+00 -7.1999998004957995e+00 +4.0774271329637986e-04 +0.0000000000000000e+00 +9.9999991687293632e-01
-7.2999999999999901e+00 +7.9184910726765416e+00 +0.0000000000000000e+00 -7.2999997920671040e+00 +4.1340583552526051e-04 +0.0000000000000000e+00 +9.9999991454780379e-01
-7.3999999999999897e+00 +7.9184494489368413e+00 +0.0000000000000000e+00 -7.3999997834042919e+00 +4.1906895863933396e-04 +0.0000000000000000e+00 +9.9999991219059992e-01
-7.4999999999999893e+00 +7.9184072588847760e+00 +0.0000000000000000e+00 -7.4999997745041558e+00 +4.2473208286309061e-04 +0.0000000000000000e+00 +9.9999990980132469e-01
-7.5999999999999890e+00 +7.9183645025202232e+00 +0.0000000000000000e+00 -7.5999997653634885e+00 +4.3039520844216942e-04 +0.0000000000000000e+00 +9.9999990737997790e-01
-7.6999999999999886e+00 +7.9183211798430335e+00 +0.0000000000000000e+00 -7.6999997559790829e+00 +4.3605833564335791e-04 +0.0000000000000000e+00 +9.9999990492655932e-01
-7.7999999999999883e+00 +7.9182772908530312e+00 +0.0000000000000000e+00 -7.7999997463477317e+00 +4.4172146475459240e-04 +0.0000000000000000e+00 +9.9999990244106896e-01
-7.8999999999999879e+00 +7.9182328355500093e+00 +0.0000000000000000e+00 -7.8999997364662278e+00 +4.4738459608495798e-04 +0.0000000000000000e+00 +9.9999989992350646e-01
-7.9999999999999876e+00 +7.9181878139337298e+00 +0.0000000000000000e+00 -7.9999997263313638e+00 +4.5304772996468862e-04 +0.0000000000000000e+00 +9.9999989737387185e-01
-8.0999999999999872e+00 +7.9181422260039200e+00 +0.0000000000000000e+00 -8.0999997159399335e+00 +4.5871086674299251e-04 +0.0000000000000000e+00 +9.9999989479216478e-01
-8.1999999999999869e+00 +7.9180960717602726e+00 +0.0000000000000000e+00 -8.1999997052887288e+00 +4.6437400676412922e-04 +0.0000000000000000e+00 +9.9999989217838503e-01
-8.2999999999999865e+00 +7.9180493512024483e+00 +0.0000000000000000e+00 -8.2999996943745415e+00 +4.7003715034348633e-04 +0.0000000000000000e+00 +9.9999988953253249e-01
-8.3999999999999861e+00 +7.9180020643300759e+00 +0.0000000000000000e+00 -8.3999996831941655e+00 +4.7570029776540431e-04 +0.0000000000000000e+00 +9.9999988685460695e-01
-8.4999999999999858e+00 +7.9179542111427583e+00 +0.0000000000000000e+00 -8.4999996717443942e+00 +4.8136344928317594e-04 +0.0000000000000000e+00 +9.9999988414460816e-01
-8.5999999999999854e+00 +7.9179057916400755e+00 +0.0000000000000000e+00 -8.5999996600220179e+00 +4.8702660511904607e-04 +0.0000000000000000e+00 +9.9999988140253593e-01
-8.6999999999999851e+00 +7.9178568058215850e+00 +0.0000000000000000e+00 -8.6999996480238320e+00 +4.9268976546421094e-04 +0.0000000000000000e+00 +9.9999987862839013e-01
-8.7999999999999847e+00 +7.9178072536868269e+00 +0.0000000000000000e+00 -8.7999996357466266e+00 +4.9835293047881810e-04 +0.0000000000000000e+00 +9.9999987582217065e-01
-8.8999999999999844e+00 +7.9177571352353286e+00 +0.0000000000000000e+00 -8.8999996231871954e+00 +5.0401610029196552e-04 +0.0000000000000000e+00 +9.9999987298387727e-01
-8.9999999999999840e+00 +7.9177064504666053e+00 +0.0000000000000000e+00 -8.9999996103423321e+00 +5.0967927500170129e-04 +0.0000000000000000e+00 +9.9999987011350988e-01
-9.0999999999999837e+00 +7.9176551993801629e+00 +0.0000000000000000e+00 -9.0999995972088286e+00 +5.1534245467502323e-04 +0.0000000000000000e+00 +9.9999986721106837e-01
-9.1999999999999833e+00 +7.9176033819755034e+00 +0.0000000000000000e+00 -9.1999995837834767e+00 +5.2100563934787819e-04 +0.0000000000000000e+00 +9.9999986427655263e-01
-9.2999999999999829e+00 +7.9175509982521266e+00 +0.0000000000000000e+00 -9.2999995700630702e+00 +5.2666882902516155e-04 +0.0000000000000000e+00 +9.9999986130996266e-01
-9.3999999999999826e+00 +7.9174980482095325e+00 +0.0000000000000000e+00 -9.3999995560444010e+00 +5.3233202368071673e-04 +0.0000000000000000e+00 +9.9999985831129823e-01
-9.4999999999999822e+00 +7.9174445318472264e+00 +0.0000000000000000e+00 -9.4999995417242609e+00 +5.3799522325733470e-04 +0.0000000000000000e+00 +9.9999985528055935e-01
-9.5999999999999819e+00 +7.9173904491647198e+00 +0.0000000000000000e+00 -9.5999995270994436e+00 +5.4365842766675317e-04 +0.0000000000000000e+00 +9.9999985221774601e-01
-9.6999999999999815e+00 +7.9173358001615357e+00 +0.0000000000000000e+00 -9.6999995121667411e+00 +5.4932163678965645e-04 +0.0000000000000000e+00 +9.9999984912285822e-01
-9.7999999999999812e+00 +7.9172805848372096e+00 +0.0000000000000000e+00 -9.7999994969229469e+00 +5.5498485047567427e-04 +0.0000000000000000e+00 +9.9999984599589598e-01
-9.8999999999999808e+00 +7.9172248031912940e+00 +0.0000000000000000e+00 -9.8999994813648513e+00 +5.6064806854338165e-04 +0.0000000000000000e+00 +9.9999984283685928e-01
-9.9999999999999805e+00 +7.9171684552233614e+00 +0.0000000000000000e+00 -9.9999994654892497e+00 +5.6631129078029796e-04 +0.0000000000000000e+00 +9.9999983964574812e-01
-1.0099999999999980e+01 +7.9171115409330071e+00 +0.0000000000000000e+00 -1.0099999449292932e+01 +5.7197451694477523e-04 +0.0000000000000000e+00 +9.9999983642256263e-01
-1.0199999999999980e+01 +7.9170540603198498e+00 +0.0000000000000000e+00 -1.0199999432772692e+01 +5.7763774678677325e-04 +0.0000000000000000e+00 +9.9999983316730290e-01
-1.0299999999999979e+01 +7.9169960133835344e+00 +0.0000000000000000e+00 -1.0299999415925324e+01 +5.8330098006863587e-04 +0.0000000000000000e+00 +9.9999982987996894e-01
-1.0399999999999979e+01 +7.9169374001237287e+00 +0.0000000000000000e+00 -1.0399999398747617e+01 +5.8896421656698058e-04 +0.0000000000000000e+00 +9.9999982656056086e-01
-1.0499999999999979e+01 +7.9168782205401209e+00 +0.0000000000000000e+00 -1.0499999381236366e+01 +5.9462745607269895e-04 +0.0000000000000000e+00 +9.9999982320907876e-01
-1.0599999999999978e+01 +7.9168184746324206e+00 +0.0000000000000000e+00 -1.0599999363388363e+01 +6.0029069839095766e-04 +0.0000000000000000e+00 +9.9999981982552266e-01
-1.0699999999999978e+01 +7.9167581624003551e+00 +0.0000000000000000e+00 -1.0699999345200402e+01 +6.0595394334119910e-04 +0.0000000000000000e+00 +9.9999981640989255e-01
-1.0799999999999978e+01 +7.9166972838436704e+00 +0.0000000000000000e+00 -1.0799999326669273e+01 +6.1161719075714246e-04 +0.0000000000000000e+00 +9.9999981296218865e-01
-1.0899999999999977e+01 +7.9166358389621267e+00 +0.0000000000000000e+00 -1.0899999307791770e+01 +6.1728044048678409e-04 +0.0000000000000000e+00 +9.9999980948241085e-01
-1.0999999999999977e+01 +7.9165738277555002e+00 +0.0000000000000000e+00 -1.0999999288564686e+01 +6.2294369239239878e-04 +0.0000000000000000e+00 +9.9999980597055937e-01
-1.1099999999999977e+01 +7.9165112502235795e+00 +0.0000000000000000e+00 -1.1099999268984813e+01 +6.2860694635054023e-04 +0.0000000000000000e+00 +9.9999980242663411e-01
-1.1199999999999976e+01 +7.9164481063661647e+00 +0.0000000000000000e+00 -1.1199999249048945e+01 +6.3427020225204219e-04 +0.0000000000000000e+00 +9.9999979885063517e-01
-1.1299999999999976e+01 +7.9163843961830667e+00 +0.0000000000000000e+00 -1.1299999228753872e+01 +6.3993346000201920e-04 +0.0000000000000000e+00 +9.9999979524256255e-01
-1.1399999999999975e+01 +7.9163201196741051e+00 +0.0000000000000000e+00 -1.1399999208096389e+01 +6.4559671951986753e-04 +0.0000000000000000e+00 +9.9999979160241625e-01
-1.1499999999999975e+01 +7.9162552768391059e+00 +0.0000000000000000e+00 -1.1499999187073287e+01 +6.5125998073926623e-04 +0.0000000000000000e+00 +9.9999978793019639e-01
-1.1599999999999975e+01 +7.9161898676779021e+00 +0.0000000000000000e+00 -1.1599999165681359e+01 +6.5692324360817791e-04 +0.0000000000000000e+00 +9.9999978422590285e-01
-1.1699999999999974e+01 +7.9161238921903303e+00 +0.0000000000000000e+00 -1.1699999143917397e+01 +6.6258650808884991e-04 +0.0000000000000000e+00 +9.9999978048953564e-01
