# multipoles
# s[mm] polynom_b[n=0][T/m^n] polynom_b[n=1][T/m^n] polynom_b[n=2][T/m^n] polynom_b[n=3][T/m^n] polynom_b[n=4][T/m^n] polynom_b[n=5][T/m^n] polynom_b[n=6][T/m^n] 
+0.0000000000000000e+00 -5.3655818215017381e-01 +7.3449399129527748e+00 -1.2266704036959903e+00 +4.0024256378158690e+01 +6.8545168386734686e+03 -4.5243069587306393e+05 -2.7977700436161209e+07 
-1.0000000000000001e-01 -5.3655799937288895e-01 +7.3449521704201270e+00 -1.2270657191650094e+00 +3.9631622547714052e+01 +6.8562928752300832e+03 -4.5052057466386916e+05 -2.7900368937479421e+07 
-2.0000000000000001e-01 -5.3655781801794600e-01 +7.3449671942845400e+00 -1.2276657236637729e+00 +3.9189088483044166e+01 +6.8621263675004639e+03 -4.4836583952928730e+05 -2.7842535843191471e+07 
-3.0000000000000004e-01 -5.3655763847212889e-01 +7.3449847134827584e+00 -1.2284265947739597e+00 +3.8701788250158856e+01 +6.8714278251944943e+03 -4.4598748595544719e+05 -2.7802150596335918e+07 
-4.0000000000000002e-01 -5.3655746112223213e-01 +7.3450044569530970e+00 -1.2293045091958972e+00 +3.8174855865933473e+01 +6.8836077434707140e+03 -4.4340650910908188e+05 -2.7777162578618813e+07 
-5.0000000000000000e-01 -5.3655728635503763e-01 +7.3450261536296839e+00 -1.2302556458501277e+00 +3.7613425447257157e+01 +6.8980766623051868e+03 -4.4064390465110680e+05 -2.7765521392331317e+07 
-5.9999999999999998e-01 -5.3655711455735811e-01 +7.3450495324517640e+00 -1.2312361796228579e+00 +3.7022630964390792e+01 +6.9142450429810760e+03 -4.3772066736205184e+05 -2.7765176262475196e+07 
-6.9999999999999996e-01 -5.3655694611599369e-01 +7.3450743223514463e+00 -1.2322022873576772e+00 +3.6407606572011339e+01 +6.9315233861854094e+03 -4.3465779298862972e+05 -2.7774076610593025e+07 
-7.9999999999999993e-01 -5.3655678141775209e-01 +7.3451002522629043e+00 -1.2331101448249377e+00 +3.5773486356330643e+01 +6.9493221679452490e+03 -4.3147627681170258e+05 -2.7790171730248611e+07 
-8.9999999999999991e-01 -5.3655662084944744e-01 +7.3451270511146518e+00 -1.2339159270388604e+00 +3.5125404543728202e+01 +6.9670518500076896e+03 -4.2819711480764265e+05 -2.7811410852345366e+07 
-9.9999999999999989e-01 -5.3655646479788288e-01 +7.3451544478354585e+00 -1.2345758102162132e+00 +3.4468495345200736e+01 +6.9841229120493108e+03 -4.2484130278530443e+05 -2.7835743280892156e+07 
-1.0999999999999999e+00 -5.3655631364987533e-01 +7.3451821713497134e+00 -1.2350459686798665e+00 +3.3807893080512343e+01 +6.9999457941610417e+03 -4.2142983707119001e+05 -2.7861118126514465e+07 
-1.2000000000000000e+00 -5.3655616779220594e-01 +7.3452099505807702e+00 -1.2352825808037002e+00 +3.3148732067413455e+01 +7.0139310092351116e+03 -4.1798371382438100e+05 -2.7885484839779340e+07 
-1.3000000000000000e+00 -5.3655602761168752e-01 +7.3452375144390096e+00 -1.2352418202590492e+00 +3.2496146991276412e+01 +7.0254889715197905e+03 -4.1452393123438803e+05 -2.7906792380159009e+07 
-1.4000000000000001e+00 -5.3655589349509847e-01 +7.3452645918434154e+00 -1.2348798651261419e+00 +3.1855272263366309e+01 +7.0340301772143466e+03 -4.1107148575930228e+05 -2.7922990097022295e+07 
-1.5000000000000002e+00 -5.3655576582921394e-01 +7.3452909116958809e+00 -1.2341528925213223e+00 +3.1231242763044172e+01 +7.0389650907650794e+03 -4.0764737641004461e+05 -2.7932027157931000e+07 
-1.6000000000000003e+00 -5.3655564500081165e-01 +7.3453162028995669e+00 -1.2330170792310295e+00 +3.0629193312110853e+01 +7.0397041661125540e+03 -4.0427260171047115e+05 -2.7931852673591644e+07 
-1.7000000000000004e+00 -5.3655553139663492e-01 +7.3453401943487169e+00 -1.2314286048841685e+00 +3.0054258965065738e+01 +7.0356578997272591e+03 -4.0096816137162031e+05 -2.7920415933568034e+07 
-1.8000000000000005e+00 -5.3655542540342438e-01 +7.3453626149333253e+00 -1.2293436490229293e+00 +2.9511574868215973e+01 +7.0262367762412932e+03 -3.9775505544667912e+05 -2.7895666147894301e+07 
-1.9000000000000006e+00 -5.3655532740791323e-01 +7.3453831935344622e+00 -1.2267183907803350e+00 +2.9006276401297043e+01 +7.0108512604715506e+03 -3.9465428516455559e+05 -2.7855552407170799e+07 
-2.0000000000000004e+00 -5.3655523779678516e-01 +7.3454016590248532e+00 -1.2235090146121612e+00 +2.8543499155108439e+01 +6.9889119081686540e+03 -3.9168685278196185e+05 -2.7798024214668501e+07 
-2.1000000000000005e+00 -5.3655515684344890e-01 +7.3454178332692512e+00 -1.2196838152016030e+00 +2.8126511200916720e+01 +6.9599465686107924e+03 -3.8886691354342259e+05 -2.7721275018106453e+07 
-2.2000000000000006e+00 -5.3655508436842314e-01 +7.3454319094953497e+00 -1.2152607627469114e+00 +2.7751221020058519e+01 +6.9239769109583303e+03 -3.8618204002112214e+05 -2.7624563074921697e+07 
-2.3000000000000007e+00 -5.3655502007912359e-01 +7.3454441736334095e+00 -1.2102705459278744e+00 +2.7411724850336594e+01 +6.8811539596761122e+03 -3.8361336435461778e+05 -2.7507433604331080e+07 
-2.4000000000000008e+00 -5.3655496368296507e-01 +7.3454549116204708e+00 -1.2047438539035791e+00 +2.7102118760956849e+01 +6.8316287563069454e+03 -3.8114201782071003e+05 -2.7369431924663801e+07 
-2.5000000000000009e+00 -5.3655491488735552e-01 +7.3454644093883195e+00 -1.1987113770784092e+00 +2.6816499010811494e+01 +6.7755523725409321e+03 -3.7874913294226280e+05 -2.7210103509066865e+07 
-2.6000000000000010e+00 -5.3655487339976016e-01 +7.3454729528737648e+00 -1.1922037999337862e+00 +2.6548961735111845e+01 +6.7130757831290366e+03 -3.7641584164775111e+05 -2.7028993405986574e+07 
-2.7000000000000011e+00 -5.3655483892759770e-01 +7.3454808280162158e+00 -1.1852518129977323e+00 +2.6293603048825272e+01 +6.6443500839222970e+03 -3.7412327596525400e+05 -2.6825647247671809e+07 
-2.8000000000000012e+00 -5.3655481117833825e-01 +7.3454883207520894e+00 -1.1778861020630329e+00 +2.6044519187172771e+01 +6.5695263002930978e+03 -3.7185256879730220e+05 -2.6599610375958055e+07 
-2.9000000000000012e+00 -5.3655478985945726e-01 +7.3454957170273296e+00 -1.1701373529852626e+00 +2.5795806166442727e+01 +6.4887554718326483e+03 -3.6958485202489438e+05 -2.6350428225948226e+07 
-3.0000000000000013e+00 -5.3655477467843582e-01 +7.3455033027890950e+00 -1.1620362516526683e+00 +2.5541560022074481e+01 +6.4021886520495727e+03 -3.6730125789368461e+05 -2.6077646324731600e+07 
-3.1000000000000014e+00 -5.3655476534279833e-01 +7.3455113639866632e+00 -1.1536134809204235e+00 +2.5275876784589631e+01 +6.3099768621316889e+03 -3.6498291889279982e+05 -2.5780810102037281e+07 
-3.2000000000000015e+00 -5.3655476156006310e-01 +7.3455201865741193e+00 -1.1448997246514852e+00 +2.4992852412199490e+01 +6.2122711551307875e+03 -3.6261096740302508e+05 -2.5459465161549360e+07 
-3.3000000000000016e+00 -5.3655476303777327e-01 +7.3455300565141188e+00 -1.1359256659291830e+00 +2.4686582684337480e+01 +6.1092225944712000e+03 -3.6016653509671072e+05 -2.5113157210445706e+07 
-3.4000000000000017e+00 -5.3655476948351843e-01 +7.3455412597706706e+00 -1.1267219832863877e+00 +2.4351163409048738e+01 +6.0009821792044313e+03 -3.5763075415409193e+05 -2.4741431696199555e+07 
-3.5000000000000018e+00 -5.3655478060487782e-01 +7.3455540823143375e+00 -1.1173193582896177e+00 +2.3980690296934295e+01 +5.8877009883574647e+03 -3.5498475660257577e+05 -2.4343834491059020e+07 
-3.6000000000000019e+00 -5.3655479610949708e-01 +7.3455688101246075e+00 -1.1077484661718571e+00 +2.3569258869546641e+01 +5.7695300080958932e+03 -3.5220967373693723e+05 -2.3919911083583768e+07 
-3.7000000000000020e+00 -5.3655481570500296e-01 +7.3455857291850535e+00 -1.0980399862390555e+00 +2.3110964626031429e+01 +5.6466203274068366e+03 -3.4928663717361033e+05 -2.3469207503653653e+07 
-3.8000000000000020e+00 -5.3655483909908142e-01 +7.3456051254892829e+00 -1.0882245928002476e+00 +2.2599902867438132e+01 +5.5191229710212374e+03 -3.4619677783206181e+05 -2.2991269539518919e+07 
-3.9000000000000021e+00 -5.3655486599943447e-01 +7.3456272850366329e+00 -1.0783329600770297e+00 +2.2030168826154842e+01 +5.3871889899759444e+03 -3.4292122670605831e+05 -2.2485643161401838e+07 
-4.0000000000000018e+00 -5.3655489611381157e-01 +7.3456524938365622e+00 -1.0683957585542110e+00 +2.1395857542389781e+01 +5.2509693964350472e+03 -3.3944111414949410e+05 -2.1951874220055558e+07 
-4.1000000000000014e+00 -5.3655492914988268e-01 +7.3456809184441934e+00 -1.0584452346154305e+00 +2.0693653778289281e+01 +5.1107311135281188e+03 -3.3574766551325459e+05 -2.1390280510199618e+07 
-4.2000000000000011e+00 -5.3655496481207565e-01 +7.3457122528882479e+00 -1.0485171161766511e+00 +1.9930310230625317e+01 +4.9671434446270368e+03 -3.3187059835654875e+05 -2.0804039615682989e+07 
-4.3000000000000007e+00 -5.3655500280330115e-01 +7.3457460742958656e+00 -1.0386473019209448e+00 +1.9115024911143969e+01 +4.8209614149823092e+03 -3.2784876838324784e+05 -2.0196990090506770e+07 
-4.4000000000000004e+00 -5.3655504282643363e-01 +7.3457819597954881e+00 -1.0288716937265083e+00 +1.8256995764740292e+01 +4.6729400947573940e+03 -3.2372103073787910e+05 -1.9572970664267890e+07 
-4.5000000000000000e+00 -5.3655508458429158e-01 +7.3458194865195638e+00 -1.0192261991801281e+00 +1.7365420629105721e+01 +4.5238346469441894e+03 -3.1952623989737668e+05 -1.8935820468828440e+07 
-4.5999999999999996e+00 -5.3655512777966596e-01 +7.3458582316090304e+00 -1.0097467271423610e+00 +1.6449497089942991e+01 +4.3744002364751095e+03 -3.1530324877539789e+05 -1.8289378590011377e+07 
-4.6999999999999993e+00 -5.3655517211529757e-01 +7.3458977722031591e+00 -1.0004691912624062e+00 +1.5518422764601400e+01 +4.2253921002775724e+03 -3.1109091033147619e+05 -1.7637484408481684e+07 
-4.7999999999999989e+00 -5.3655521729385935e-01 +7.3459376854490257e+00 -9.9142951132603829e-01 +1.4581395040606758e+01 +4.0775655674784598e+03 -3.0692807609109703e+05 -1.6983977683091577e+07 
-4.8999999999999986e+00 -5.3655526301799694e-01 +7.3459775484969656e+00 -9.8266360886615667e-01 +1.3647611190907519e+01 +3.9316759792860989e+03 -3.0285359674980887e+05 -1.6332698178908471e+07 
-4.9999999999999982e+00 -5.3655530899029336e-01 +7.3460169384999379e+00 -9.7420741073003880e-01 +1.2726268405811735e+01 +3.7884787505631321e+03 -2.9890632239989663e+05 -1.5687485943299757e+07 
-5.0999999999999979e+00 -5.3655535491326101e-01 +7.3460554326205161e+00 -9.6609685026451431e-01 +1.1826563571099401e+01 +3.6487293918406053e+03 -2.9512510117627925e+05 -1.5052181410153493e+07 
-5.1999999999999975e+00 -5.3655540048936445e-01 +7.3460926080212587e+00 -9.5836786442258459e-01 +1.0957693560414482e+01 +3.5131834551434749e+03 -2.9154878098449082e+05 -1.4430625144898726e+07 
-5.2999999999999972e+00 -5.3655544542100064e-01 +7.3461280418724382e+00 -9.5105639639309114e-01 +1.0128854998078081e+01 +3.3825965830695404e+03 -2.8821620807861962e+05 -1.3826658076120298e+07 
-5.3999999999999968e+00 -5.3655548941049080e-01 +7.3461613113485580e+00 -9.4419839526522853e-01 +9.3492443646200467e+00 +3.2577244941331587e+03 -2.8516622768697195e+05 -1.3244121404723551e+07 
-5.4999999999999964e+00 -5.3655553216011176e-01 +7.3461919936277829e+00 -9.3782981369210694e-01 +8.6280580075544986e+00 +3.1393229459547952e+03 -2.8243768404198223e+05 -1.2686856448042372e+07 
-5.5999999999999961e+00 -5.3655557337205839e-01 +7.3462196658945098e+00 -9.3198661103326896e-01 +7.9744920648825417e+00 +3.0281477858703374e+03 -2.8006941992864606e+05 -1.2158704858363813e+07 
-5.6999999999999957e+00 -5.3655561274842556e-01 +7.3462439053417503e+00 -9.2670475663086349e-01 +7.3977423960095630e+00 +2.9249550181051191e+03 -2.7810027627742448e+05 -1.1663508954822842e+07 
-5.7999999999999954e+00 -5.3655564999127636e-01 +7.3462642891643606e+00 -9.2202022008645512e-01 +6.9070047772582157e+00 +2.8305006119825721e+03 -2.7656909328888310e+05 -1.1205110793995952e+07 
-5.8999999999999950e+00 -5.3655568480254556e-01 +7.3462803945622346e+00 -9.1796898357253542e-01 +6.5114747977750431e+00 +2.7455407346850884e+03 -2.7551470978815370e+05 -1.0787353274015561e+07 
-5.9999999999999947e+00 -5.3655571688412562e-01 +7.3462917987465408e+00 -9.1458703200924285e-01 +6.2203476990052557e+00 +2.6708315717232817e+03 -2.7497596235819731e+05 -1.0414079299774054e+07 
-6.0999999999999943e+00 -5.3655574604225831e-01 +7.3462982065410358e+00 -9.1189870009833629e-01 +6.0401053432052763e+00 +2.6069183388466686e+03 -2.7497926512186357e+05 -1.0088118945140427e+07 
-6.1999999999999940e+00 -5.3655577251501974e-01 +7.3462998270629143e+00 -9.0988486426111370e-01 +5.9665561978542208e+00 +2.5535711917235749e+03 -2.7550260049411346e+05 -9.8085491772972271e+06 
-6.2999999999999936e+00 -5.3655579665199826e-01 +7.3462969941920511e+00 -9.0851631135931044e-01 +5.9928814279114446e+00 +2.5103833277221042e+03 -2.7651215237730753e+05 -9.5735801908778884e+06 
-6.3999999999999932e+00 -5.3655581880282077e-01 +7.3462900418015638e+00 -9.0776382492800645e-01 +6.1122623474612201e+00 +2.4769478914309625e+03 -2.7797410550684156e+05 -9.3814219534400627e+06 
-6.4999999999999929e+00 -5.3655583931718209e-01 +7.3462793037627474e+00 -9.0759818135836268e-01 +6.3178802826983000e+00 +2.4528578969926216e+03 -2.7985464464341104e+05 -9.2302838236447312e+06 
-6.5999999999999925e+00 -5.3655585854480103e-01 +7.3462651139478670e+00 -9.0799015612823730e-01 +6.6029164864606127e+00 +2.4377063556323828e+03 -2.8211995406594360e+05 -9.1183751844625957e+06 
-6.6999999999999922e+00 -5.3655587683544426e-01 +7.3462478062253398e+00 -9.0891052059280653e-01 +6.9605522655109464e+00 +2.4310862102971691e+03 -2.8473621827577066e+05 -9.0439051188793331e+06 
-6.7999999999999918e+00 -5.3655589453895336e-01 +7.3462277144620005e+00 -9.1033003791562928e-01 +7.3839689338904808e+00 +2.4325902554706786e+03 -2.8766962179085409e+05 -9.0050820218710601e+06 
-6.8999999999999915e+00 -5.3655591200521302e-01 +7.3462051725188502e+00 -9.1221946844188262e-01 +7.8663479078001552e+00 +2.4418112494071338e+03 -2.9088634961146739e+05 -9.0001141621351298e+06 
-6.9999999999999911e+00 -5.3655592958413922e-01 +7.3461805142554972e+00 -9.1454957060512188e-01 +8.4008705962361780e+00 +2.4583419245153032e+03 -2.9435258664648491e+05 -9.0272097100438308e+06 
-7.0999999999999908e+00 -5.3655594762575409e-01 +7.3461540735311370e+00 -9.1729109131067044e-01 +8.9807183582198640e+00 +2.4817748061307498e+03 -2.9803451743314211e+05 -9.0845758831239380e+06 
-7.1999999999999904e+00 -5.3655596648010562e-01 +7.3461261841974155e+00 -9.2041477712502684e-01 +9.5990727201470065e+00 +2.5117024315913245e+03 -3.0189832742333779e+05 -9.1704200037915781e+06 
-7.2999999999999901e+00 -5.3655598649731828e-01 +7.3460971801062325e+00 -9.2389136632869262e-01 +1.0249115124378253e+01 +2.5477171878435688e+03 -3.0591020146306825e+05 -9.2829486957753561e+06 
-7.3999999999999897e+00 -5.3655600802759273e-01 +7.3460673951033479e+00 -9.2769159126771783e-01 +1.0924027141547645e+01 +2.5894113721497274e+03 -3.1003632510057540e+05 -9.4203682165488377e+06 
-7.4999999999999893e+00 -5.3655603142117614e-01 +7.3460371630319923e+00 -9.3178617971446998e-01 +1.1616990343256614e+01 +2.6363772032491538e+03 -3.1424288378986099e+05 -9.5808844715779107e+06 
-7.5999999999999890e+00 -5.3655605702842057e-01 +7.3460068177281164e+00 -9.3614584999065198e-01 +1.2321186440704633e+01 +2.6882067430745556e+03 -3.1849606370028650e+05 -9.7627026790981852e+06 
-7.6999999999999886e+00 -5.3655608519970732e-01 +7.3459766930307238e+00 -9.4074131866494037e-01 +1.3029796995034278e+01 +2.7444920329040592e+03 -3.2276205006558861e+05 -9.9640279916836116e+06 
-7.7999999999999883e+00 -5.3655611628553423e-01 +7.3459471227650850e+00 -9.4554329095095968e-01 +1.3736003888375199e+01 +2.8048249186642051e+03 -3.2700702987854858e+05 -1.0183064685614426e+07 
-7.8999999999999879e+00 -5.3655615063647266e-01 +7.3459184407606610e+00 -9.5052246516102223e-01 +1.4432988805826659e+01 +2.8687971305451638e+03 -3.3119718889480969e+05 -1.0418016526317379e+07 
-7.9999999999999876e+00 -5.3655618860315335e-01 +7.3458909808333495e+00 -9.5564953589624191e-01 +1.5113933757800213e+01 +2.9360003514446053e+03 -3.3529871476018894e+05 -1.0667087121531855e+07 
-8.0999999999999872e+00 -5.3655623052078116e-01 +7.3458650203044016e+00 -9.6089545630642192e-01 +1.5773038125326531e+01 +3.0060453862772233e+03 -3.3928297601437947e+05 -1.0928682344056204e+07 
-8.1999999999999869e+00 -5.3655627664974037e-01 +7.3458406123056852e+00 -9.6623100764054892e-01 +1.6408410619405647e+01 +3.0786027642484710e+03 -3.4314051200538769e+05 -1.1201931419927979e+07 
-8.2999999999999865e+00 -5.3655632722868352e-01 +7.3458177542439094e+00 -9.7162659709053933e-01 +1.7019097631998559e+01 +3.1533535978443160e+03 -3.4686627579545352e+05 -1.1486124721725000e+07 
-8.3999999999999861e+00 -5.3655638249629534e-01 +7.3457964435204905e+00 -9.7705262736046772e-01 +1.7604145640966379e+01 +3.2299789223794310e+03 -3.5045522057089745e+05 -1.1780552285999151e+07 
-8.4999999999999858e+00 -5.3655644269125491e-01 +7.3457766775133901e+00 -9.8247950183891808e-01 +1.8162601762750448e+01 +3.3081597919737783e+03 -3.5390230289582093e+05 -1.2084504260926504e+07 
-8.5999999999999854e+00 -5.3655650805224997e-01 +7.3457584535880400e+00 -9.8787762209476404e-01 +1.8693513429567584e+01 +3.3875772318934942e+03 -3.5720248082073091e+05 -1.2397270682640521e+07 
-8.6999999999999851e+00 -5.3655657881798291e-01 +7.3457417690918945e+00 -9.9321738813581639e-01 +1.9195928532396106e+01 +3.4679122471977048e+03 -3.6035071465924825e+05 -1.2718141524289690e+07 
-8.7999999999999847e+00 -5.3655665522714602e-01 +7.3457266213585397e+00 -9.9846920035756448e-01 +1.9668895325269354e+01 +3.5488458550147520e+03 -3.6334196649993892e+05 -1.3046406838500198e+07 
-8.8999999999999844e+00 -5.3655673751843902e-01 +7.3457130076974799e+00 -1.0036034581701043e+00 +2.0111462704389037e+01 +3.6300590604833847e+03 -3.6617120176100795e+05 -1.3381356647048866e+07 
-8.9999999999999840e+00 -5.3655682593059417e-01 +7.3457009254094707e+00 -1.0085905564618916e+00 +2.0522679770848207e+01 +3.7112327913964559e+03 -3.6883338667726313e+05 -1.3722280636857199e+07 
-9.0999999999999837e+00 -5.3655692070232597e-01 +7.3456903717683311e+00 -1.0134008918471260e+00 +2.0901596338676853e+01 +3.7920480144349481e+03 -3.7132349118015874e+05 -1.4068468705740377e+07 
-9.1999999999999833e+00 -5.3655702207234468e-01 +7.3456813440364890e+00 -1.0180048611103067e+00 +2.1247262514022164e+01 +3.8721857078100388e+03 -3.7363648653814063e+05 -1.4419210838832440e+07 
-9.2999999999999829e+00 -5.3655713027940166e-01 +7.3456738394480370e+00 -1.0223728552356592e+00 +2.1558729156077728e+01 +3.9513267448535889e+03 -3.7576734794013592e+05 -1.4773796545652499e+07 
-9.3999999999999826e+00 -5.3655724556223583e-01 +7.3456678552282879e+00 -1.0264752669081398e+00 +2.1835047330511095e+01 +4.0291520442484029e+03 -3.7771105136685004e+05 -1.5131515598537007e+07 
-9.4999999999999822e+00 -5.3655736815958577e-01 +7.3456633885722971e+00 -1.0302824878575552e+00 +2.2075268916349863e+01 +4.1053425092246971e+03 -3.7946257707334420e+05 -1.5491657711742634e+07 
-9.5999999999999819e+00 -5.3655749831020050e-01 +7.3456604366601717e+00 -1.0337649079528397e+00 +2.2278446167193518e+01 +4.1795790180048107e+03 -3.8101690704246185e+05 -1.5853512522080988e+07 
-9.6999999999999815e+00 -5.3655763625285235e-01 +7.3456589966500054e+00 -1.0368929141513972e+00 +2.2443631919595177e+01 +4.2515424023166324e+03 -3.8236902619922423e+05 -1.6216369477376118e+07 
-9.7999999999999812e+00 -5.3655778222628570e-01 +7.3456590656760827e+00 -1.0396368959474382e+00 +2.2569879634892420e+01 +4.3209135500631064e+03 -3.8351392262127699e+05 -1.6579518326987185e+07 
-9.8999999999999808e+00 -5.3655793646927896e-01 +7.3456606408529517e+00 -1.0419672380244347e+00 +2.2656243285126120e+01 +4.3873732654695614e+03 -3.8444658687563840e+05 -1.6942248454317678e+07 
-9.9999999999999805e+00 -5.3655809922061393e-01 +7.3456637192723520e+00 -1.0438543244257108e+00 +2.2701777396014123e+01 +4.4506023455360637e+03 -3.8516201206128445e+05 -1.7303849220488165e+07 
-1.0099999999999980e+01 -5.3655827057582406e-01 +7.3456682618141498e+00 -1.0452815574936531e+00 +2.2706285995907656e+01 +4.5104058471963390e+03 -3.8565794417745504e+05 -1.7663832361331027e+07 
