# multipoles
# s[mm] polynom_b[n=0][T/m^n] polynom_b[n=1][T/m^n] polynom_b[n=2][T/m^n] polynom_b[n=3][T/m^n] polynom_b[n=4][T/m^n] polynom_b[n=5][T/m^n] polynom_b[n=6][T/m^n] 
-0.0000000000000000e+00 -5.3671246322698274e-01 +7.3568829943977043e+00 -4.9915912734411777e-01 -4.1291754201120256e+01 +6.6502560241183028e+03 -5.9574355285962556e+03 -4.0203325351539448e+07 
-1.0000000000000001e-01 -5.3671230237784240e-01 +7.3568913334458284e+00 -4.9510108197581948e-01 -4.1575354695491377e+01 +6.5867569975020015e+03 -4.4522433545319527e+03 -3.9921449172336638e+07 
-2.0000000000000001e-01 -5.3671215306672482e-01 +7.3568972610626986e+00 -4.9053543172335873e-01 -4.1805034295190367e+01 +6.5128454979373582e+03 -3.2176355095384110e+03 -3.9583245176878698e+07 
-2.9999999999999999e-01 -5.3671201440473260e-01 +7.3569006752804382e+00 -4.8551759939138639e-01 -4.1977778112686750e+01 +6.4295721574062391e+03 -2.2709098806097431e+03 -3.9194103326088272e+07 
-4.0000000000000002e-01 -5.3671188550296856e-01 +7.3569014741292609e+00 -4.8010300301500197e-01 -4.2090571196798948e+01 +6.3379875165991052e+03 -1.6293648252733176e+03 -3.8759413142811187e+07 
-5.0000000000000000e-01 -5.3671176547253441e-01 +7.3568995556408803e+00 -4.7434706695702222e-01 -4.2140398643354345e+01 +6.2391422312786162e+03 -1.3102984846082923e+03 -3.8284564681241922e+07 
-5.9999999999999998e-01 -5.3671165342450688e-01 +7.3568948178474045e+00 -4.6830521480384535e-01 -4.2124245549124090e+01 +6.1340869376463497e+03 -1.3310090744783852e+03 -3.7774947887149021e+07 
-6.9999999999999996e-01 -5.3671154846993685e-01 +7.3568871587787319e+00 -4.6203287002940624e-01 -4.2039096951782270e+01 +6.0238722668478658e+03 -1.7087951837225371e+03 -3.7235952670385942e+07 
-8.0000000000000004e-01 -5.3671144971988838e-01 +7.3568764764719319e+00 -4.5558546044127374e-01 -4.1881938085171520e+01 +5.9095489274591755e+03 -2.4609543250009151e+03 -3.6672969294478372e+07 
-9.0000000000000002e-01 -5.3671135628539202e-01 +7.3568626689555030e+00 -4.4901841448416807e-01 -4.1649753940200831e+01 +5.7921676355781292e+03 -3.6047854191822112e+03 -3.6091388041325241e+07 
-1.0000000000000000e+00 -5.3671126727744223e-01 +7.3568456342675752e+00 -4.4238716156052904e-01 -4.1339529781166320e+01 +5.6727791217994873e+03 -5.1575858216413299e+03 -3.5496599248860076e+07 
-1.1000000000000001e+00 -5.3671118180706023e-01 +7.3568252704444417e+00 -4.3574713372619478e-01 -4.0948250805831705e+01 +5.5524341622673819e+03 -7.1366533021471978e+03 -3.4893993454618804e+07 
-1.2000000000000000e+00 -5.3671109898522140e-01 +7.3568014755201956e+00 -4.2915376538301447e-01 -4.0472902162627960e+01 +5.4321835729786917e+03 -9.5592858567834792e+03 -3.4288961367907241e+07 
-1.3000000000000000e+00 -5.3671101792285281e-01 +7.3567741475339945e+00 -4.2266249298116604e-01 -3.9910469122236350e+01 +5.3130782033656169e+03 -1.2442780804820522e+04 -3.3686893838336743e+07 
-1.3999999999999999e+00 -5.3671093773095702e-01 +7.3567431845256781e+00 -4.1632875344568232e-01 -3.9257936984059050e+01 +5.1961689074478209e+03 -1.5804435229241617e+04 -3.3093181719609972e+07 
-1.5000000000000000e+00 -5.3671085752035064e-01 +7.3567084845353632e+00 -4.1020798949156573e-01 -3.8512291047471038e+01 +5.0825066430400075e+03 -1.9661546177176071e+04 -3.2513216338452995e+07 
-1.6000000000000001e+00 -5.3671077640199483e-01 +7.3566699456040405e+00 -4.0435564286731068e-01 -3.7670516634749944e+01 +4.9731423484580837e+03 -2.4031410499015772e+04 -3.1952388918394450e+07 
-1.7000000000000000e+00 -5.3671069348674882e-01 +7.3566274657793578e+00 -3.9882716011458147e-01 -3.6729599248662524e+01 +4.8691270427368536e+03 -2.8931323949193440e+04 -3.1416091035308547e+07 
-1.8000000000000000e+00 -5.3671060788545633e-01 +7.3565809431062723e+00 -3.9367798983828955e-01 -3.5686524317862435e+01 +4.7715117806237567e+03 -3.4378582604825671e+04 -3.0909714417432696e+07 
-1.8999999999999999e+00 -5.3671051870891329e-01 +7.3565302756317248e+00 -3.8896358290416733e-01 -3.4538277317766202e+01 +4.6813476555391999e+03 -4.0390482194592558e+04 -3.0438650960432090e+07 
-2.0000000000000000e+00 -5.3671042506793643e-01 +7.3564753614078739e+00 -3.8473939384401018e-01 -3.3281843870222097e+01 +4.5996858239557187e+03 -4.6984317490116671e+04 -3.0008292834589023e+07 
-2.1000000000000001e+00 -5.3671032626939996e-01 +7.3564161934722945e+00 -3.8105253491460411e-01 -3.1916809562460443e+01 +4.5274237549257823e+03 -5.4163052375716296e+04 -2.9623215911129486e+07 
-2.2000000000000002e+00 -5.3671022241193600e-01 +7.3563531445928332e+00 -3.7791698986765915e-01 -3.0453096873270486e+01 +4.4648581838151422e+03 -6.1872879193344539e+04 -2.9284819859649703e+07 
-2.2999999999999998e+00 -5.3671011379401012e-01 +7.3562866824472941e+00 -3.7533852336319773e-01 -2.8903197878082175e+01 +4.4121391695640568e+03 -7.0045928543710979e+04 -2.8993732343943372e+07 
-2.3999999999999999e+00 -5.3671000071405495e-01 +7.3562172747103265e+00 -3.7332290144378644e-01 -2.7279604581610396e+01 +4.3694168036171186e+03 -7.8614331354481052e+04 -2.8750581204117715e+07 
-2.5000000000000000e+00 -5.3670988347054260e-01 +7.3561453890655564e+00 -3.7187588142415207e-01 -2.5594809248030028e+01 +4.3368410137652072e+03 -8.7510217033686131e+04 -2.8555993516380992e+07 
-2.6000000000000001e+00 -5.3670976236197854e-01 +7.3560714931933910e+00 -3.7100322401385877e-01 -2.3861304079323745e+01 +4.3145618010756480e+03 -9.6665715242869090e+04 -2.8410596736180235e+07 
-2.7000000000000002e+00 -5.3670963768689028e-01 +7.3559960547789176e+00 -3.7071068390566808e-01 -2.2091581417717371e+01 +4.3027290592417339e+03 -1.0601295479929121e+05 -2.8315017837913506e+07 
-2.7999999999999998e+00 -5.3670950974381126e-01 +7.3559195415100467e+00 -3.7100401238268754e-01 -2.0298133711785596e+01 +4.3014926258919713e+03 -1.1548406382284880e+05 -2.8269883562228296e+07 
-2.8999999999999999e+00 -5.3670937883134884e-01 +7.3558424210738318e+00 -3.7188895812556516e-01 -1.8493453399303778e+01 +4.3110022972192901e+03 -1.2501117044389411e+05 -2.8275820487250462e+07 
-3.0000000000000000e+00 -5.3670924524815566e-01 +7.3557651611638493e+00 -3.7337126177837726e-01 -1.6690033137365148e+01 +4.3314077274189012e+03 -1.3452640142831908e+05 -2.8333454556479622e+07 
-3.1000000000000001e+00 -5.3670910929285454e-01 +7.3556882294778223e+00 -3.7545666501373670e-01 -1.4900365717745558e+01 +4.3628586025968398e+03 -1.4396188271135389e+05 -2.8443411912644245e+07 
-3.2000000000000002e+00 -5.3670897126421191e-01 +7.3556120937096372e+00 -3.7815089872026258e-01 -1.3136943852049090e+01 +4.4055044151308593e+03 -1.5324974060304512e+05 -2.8606317821736962e+07 
-3.2999999999999998e+00 -5.3670883146099346e-01 +7.3555372215639014e+00 -3.8145969065791113e-01 -1.1412260581143013e+01 +4.4594946082413599e+03 -1.6232209944896639e+05 -2.8822797361697711e+07 
-3.3999999999999999e+00 -5.3670869018198608e-01 +7.3554640807388152e+00 -3.8538876445440268e-01 -9.7388087997070940e+00 +4.5249785662746062e+03 -1.7111108433203446e+05 -2.9093475398432907e+07 
-3.5000000000000000e+00 -5.3670854772612009e-01 +7.3553931389456064e+00 -3.8994383250450254e-01 -8.1290817961624118e+00 +4.6021054717540819e+03 -1.7954881800584518e+05 -2.9418975889603674e+07 
-3.6000000000000001e+00 -5.3670840439233014e-01 +7.3553248638915498e+00 -3.9513060418056023e-01 -6.5955727850399208e+00 +4.6910244641852023e+03 -1.8756742354744379e+05 -2.9799922645234175e+07 
-3.7000000000000002e+00 -5.3670826047960507e-01 +7.3552597232892714e+00 -4.0095477997817885e-01 -5.1507751654562268e+00 +4.7918845334877542e+03 -1.9509902288498005e+05 -3.0236938836028017e+07 
-3.7999999999999998e+00 -5.3670811628704618e-01 +7.3551981848561852e+00 -4.0742205391209685e-01 -3.8071825118172518e+00 +4.9048345647699598e+03 -2.0207573683717984e+05 -3.0730647206219658e+07 
-3.8999999999999999e+00 -5.3670797211378962e-01 +7.3551407163092009e+00 -4.1453810956580900e-01 -2.5772884171234414e+00 +5.0300232604756993e+03 -2.0842968603205032e+05 -3.1281669695358150e+07 
-4.0000000000000000e+00 -5.3670782825912022e-01 +7.3550877853736072e+00 -4.2230862394409097e-01 -1.4735867524334354e+00 +5.1675992234808828e+03 -2.1409298940364408e+05 -3.1890627862025354e+07 
-4.0999999999999996e+00 -5.3670768507477906e-01 +7.3550397740325968e+00 -4.3072979844361486e-01 -5.0621357049415272e-01 +5.3175110941433441e+03 -2.1901098649468098e+05 -3.2557161880294506e+07 
-4.2000000000000002e+00 -5.3670754310972413e-01 +7.3549967154755649e+00 -4.3975943312058591e-01 +3.2430606578077181e-01 +5.4788803729462043e+03 -2.2318289635101971e+05 -3.3276808480056178e+07 
-4.2999999999999998e+00 -5.3670740295897357e-01 +7.3549585541290510e+00 -4.4934558979833950e-01 +1.0198989341560909e+00 +5.6506145864953842e+03 -2.2662168392043607e+05 -3.4044032086965904e+07 
-4.4000000000000004e+00 -5.3670726521755452e-01 +7.3549252344122698e+00 -4.5943632610260277e-01 +1.5824920456397382e+00 +5.8316211859826817e+03 -2.2934031568919957e+05 -3.4853296780233189e+07 
-4.5000000000000000e+00 -5.3670713048051277e-01 +7.3548967007538488e+00 -4.6997969825184505e-01 +2.0140121872933290e+00 +6.0208076068789496e+03 -2.3135175710803847e+05 -3.5699066593599692e+07 
-4.5999999999999996e+00 -5.3670699934286537e-01 +7.3548728975775033e+00 -4.8092376290709804e-01 +2.3163863121108972e+00 +6.2170812980905903e+03 -2.3266897480214437e+05 -3.6575805637664482e+07 
-4.7000000000000002e+00 -5.3670687239968284e-01 +7.3548537693026823e+00 -4.9221657741920244e-01 +2.4915415391329843e+00 +6.4193497303290196e+03 -2.3330493661847711e+05 -3.7477978150347978e+07 
-4.7999999999999998e+00 -5.3670675024604919e-01 +7.3548392603520476e+00 -5.0380619452652242e-01 +2.5414049361086612e+00 +6.6265202937568620e+03 -2.3327261038561497e+05 -3.8400048003316514e+07 
-4.9000000000000004e+00 -5.3670663347701664e-01 +7.3548293151468602e+00 -5.1564066798043617e-01 +2.4679036490585875e+00 +6.8375004042310156e+03 -2.3258496465031154e+05 -3.9336479206246458e+07 
-5.0000000000000000e+00 -5.3670652268771202e-01 +7.3548238781087045e+00 -5.2766805004763873e-01 +2.2729648689237365e+00 +7.0511974611126925e+03 -2.3125496854658707e+05 -4.0281735720053680e+07 
-5.0999999999999996e+00 -5.3670641847318845e-01 +7.3548228936525764e+00 -5.3983639533320882e-01 +1.9585160195056746e+00 +7.2665189118912913e+03 -2.2929559285110110e+05 -4.1230281742688783e+07 
-5.2000000000000002e+00 -5.3670632142858643e-01 +7.3548263061984862e+00 -5.5209375505156244e-01 +1.5264844295602336e+00 +7.4823721475250932e+03 -2.2671980812278809e+05 -4.2176581219722256e+07 
-5.2999999999999998e+00 -5.3670623214902657e-01 +7.3548340601611235e+00 -5.6438818038525707e-01 +9.7879763909322526e-01 +7.6976645684783853e+03 -2.2354058649615420e+05 -4.3115098166444466e+07 
-5.4000000000000004e+00 -5.3670615122962817e-01 +7.3548460999547132e+00 -5.7666772292422119e-01 +3.1738325389967170e-01 +7.9113035902636893e+03 -2.1977090083711030e+05 -4.4040296686821319e+07 
-5.5000000000000000e+00 -5.3670607926550129e-01 +7.3548623699905757e+00 -5.8888043289550662e-01 -4.5583097168056108e-01 +8.1221966096768901e+03 -2.1542372526536277e+05 -4.4946640808935486e+07 
-5.5999999999999996e+00 -5.3670601685180197e-01 +7.3548828146796561e+00 -6.0097436187033537e-01 -1.3389172227941371e+00 +8.3292510567799491e+03 -2.1051203460847793e+05 -4.5828594735820293e+07 
-5.7000000000000002e+00 -5.3670596458363817e-01 +7.3549073784298207e+00 -6.1289756157899944e-01 -2.3299475235214477e+00 +8.5313743745252232e+03 -2.0504880505665383e+05 -4.6680622753838636e+07 
-5.7999999999999998e+00 -5.3670592305618492e-01 +7.3549360056477964e+00 -6.2459808249521886e-01 -3.4269937995539368e+00 +8.7274739878849268e+03 -1.9904701378867342e+05 -4.7497189072774909e+07 
-5.9000000000000004e+00 -5.3670589286460724e-01 +7.3549686407344970e+00 -6.3602397356847717e-01 -4.6281277413616735e+00 +8.9164573015001733e+03 -1.9251963977429827e+05 -4.8272757824166380e+07 
-5.9999999999999902e+00 -5.3670587460404462e-01 +7.3550052280937557e+00 -6.4712328820064324e-01 -5.9314210397186660e+00 +9.0972318176256194e+03 -1.8547966244333403e+05 -4.9001793629988246e+07 
-6.0999999999999899e+00 -5.3670586876875215e-01 +7.3550456620009452e+00 -6.5784650754755325e-01 -7.3334134597567111e+00 +9.2688179783722080e+03 -1.7794793291345157e+05 -4.9679558980764061e+07 
-6.1999999999999904e+00 -5.3670587544124282e-01 +7.3550896404273551e+00 -6.6815298627870612e-01 -8.8249311235749825e+00 +9.4306516417286148e+03 -1.6997364915880098e+05 -5.0304321796759784e+07 
-6.2999999999999901e+00 -5.3670589459903428e-01 +7.3551368131681647e+00 -6.7800408182273786e-01 -1.0395469838732678e+01 +9.5822640950034838e+03 -1.6161233071703764e+05 -5.0875060796328835e+07 
-6.3999999999999897e+00 -5.3670592621967983e-01 +7.3551868299996146e+00 -6.8736115734085701e-01 -1.2034524852692979e+01 +9.7231867197174197e+03 -1.5291950007228271e+05 -5.1390755087874837e+07 
-6.4999999999999902e+00 -5.3670597028055533e-01 +7.3552393406836201e+00 -6.9618558085195303e-01 -1.3731590970833606e+01 +9.8529509663078952e+03 -1.4395068202628911e+05 -5.1850384022060655e+07 
-6.5999999999999899e+00 -5.3670602675908075e-01 +7.3552939949639953e+00 -7.0443873117198130e-01 -1.5476162463190082e+01 +9.9710884677708309e+03 -1.3476140419504856e+05 -5.2252927732276015e+07 
-6.6999999999999904e+00 -5.3670609563262872e-01 +7.3553504425671425e+00 -7.1208198980376924e-01 -1.7257733065651372e+01 +1.0077130889228480e+04 -1.2540719702484118e+05 -5.2597366428229064e+07 
-6.7999999999999901e+00 -5.3670617687836530e-01 +7.3554083331996249e+00 -7.1907674983976011e-01 -1.9065795923698779e+01 +1.0170610088094381e+04 -1.1594359407066404e+05 -5.2882681133279912e+07 
-6.8999999999999897e+00 -5.3670627047352659e-01 +7.3554673165505191e+00 -7.2538441233019268e-01 -2.0889843653206487e+01 +1.0251058051854046e+04 -1.0642613164999544e+05 -5.3107853405608125e+07 
-6.9999999999999902e+00 -5.3670637639527630e-01 +7.3555270422888110e+00 -7.3096638332549391e-01 -2.2719368263415305e+01 +1.0318006835223619e+04 -9.6910349280622147e+04 -5.3271865020130582e+07 
-7.0999999999999899e+00 -5.3670649462058950e-01 +7.3555871600645357e+00 -7.3578408240267534e-01 -2.4543861198589340e+01 +1.0370988725227811e+04 -8.7451789396563981e+04 -5.3373698760634817e+07 
-7.1999999999999904e+00 -5.3670662512643330e-01 +7.3556473195029817e+00 -7.3979893592417645e-01 -2.6352813155725055e+01 +1.0409536108398617e+04 -7.8105998434840410e+04 -5.3412337775745139e+07 
-7.2999999999999901e+00 -5.3670676788972416e-01 +7.3557071702109855e+00 -7.4297237975951391e-01 -2.8135714285606451e+01 +1.0433181523885331e+04 -6.8928525598800712e+04 -5.3386765832531050e+07 
-7.3999999999999897e+00 -5.3670692288727773e-01 +7.3557663617716393e+00 -7.4526585832261871e-01 -2.9882054021345525e+01 +1.0441457643340369e+04 -5.9974923891335093e+04 -5.3295967216536470e+07 
-7.4999999999999902e+00 -5.3670709009577977e-01 +7.3558245437475325e+00 -7.4664082864479964e-01 -3.1581321177446465e+01 +1.0433897348361015e+04 -5.1300749513102041e+04 -5.3138927098115340e+07 
-7.5999999999999899e+00 -5.3670726949189385e-01 +7.3558813656755060e+00 -7.4705875625855978e-01 -3.3223003806680971e+01 +1.0410033647702401e+04 -4.2961562650671622e+04 -5.2914631126469813e+07 
-7.6999999999999904e+00 -5.3670746105213907e-01 +7.3559364770670372e+00 -7.4648111790216065e-01 -3.4796589199464201e+01 +1.0369399733491613e+04 -3.5012927496733661e+04 -5.2622065707723320e+07 
-7.7999999999999901e+00 -5.3670766475301301e-01 +7.3559895274122198e+00 -7.4486940199784102e-01 -3.6291564004055125e+01 +1.0311528982902586e+04 -2.7510411527460037e+04 -5.2260217993685506e+07 
-7.8999999999999897e+00 -5.3670788057082031e-01 +7.3560401661736803e+00 -7.4218510758893819e-01 -3.7697414048723630e+01 +1.0235954943752349e+04 -2.0509586525666306e+04 -5.1828075826110385e+07 
-7.9999999999999902e+00 -5.3670810848182104e-01 +7.3560880427883752e+00 -7.3838974475234598e-01 -3.9003624439462023e+01 +1.0142211327656696e+04 -1.4066027876013668e+04 -5.1324627660400756e+07 
-8.0999999999999908e+00 -5.3670834821303293e-01 +7.3561328712171834e+00 -7.3346937442111981e-01 -4.0202073534509395e+01 +1.0030168784915541e+04 -8.2214829980871218e+03 -5.0749988553869970e+07 
-8.1999999999999904e+00 -5.3670859851910924e-01 +7.3561746271244965e+00 -7.2750829587751242e-01 -4.1293908354727492e+01 +9.9011030310044407e+03 -2.9658111163256849e+03 -5.0109158609578468e+07 
-8.2999999999999901e+00 -5.3670885791706335e-01 +7.3562133529250140e+00 -7.2061549371490929e-01 -4.2282536620372916e+01 +9.7566565262198874e+03 +1.7233485478162515e+03 -4.9408453131638251e+07 
-8.3999999999999897e+00 -5.3670912492386480e-01 +7.3562490910607865e+00 -7.1289995282888274e-01 -4.3171366793634782e+01 +9.5984717314272093e+03 +5.8683605215640018e+03 -4.8654187420374788e+07 
-8.4999999999999893e+00 -5.3670939805656170e-01 +7.3562818840067088e+00 -7.0447065377439611e-01 -4.3963808271093725e+01 +9.4281910239352364e+03 +9.4915944305837147e+03 -4.7852676397591867e+07 
-8.5999999999999908e+00 -5.3670967583214391e-01 +7.3563117742655635e+00 -6.9543657562215722e-01 -4.4663271222064743e+01 +9.2474567468786991e+03 +1.2615424010961935e+04 -4.7010234830014318e+07 
-8.6999999999999904e+00 -5.3670995676767386e-01 +7.3563388043804974e+00 -6.8590669323990672e-01 -4.5273166947598369e+01 +9.0579111595761224e+03 +1.5262229160410630e+04 -4.6133177099105932e+07 
-8.7999999999999794e+00 -5.3671023938018758e-01 +7.3563630169205867e+00 -6.7598997986207043e-01 -4.5796907483245278e+01 +8.8611964871540222e+03 +1.7454393691029152e+04 -4.5227817439396054e+07 
-8.8999999999999808e+00 -5.3671052218670823e-01 +7.3563844544958688e+00 -6.6579540458973485e-01 -4.6237906009186858e+01 +8.6589548696548245e+03 +1.9214307630440177e+04 -4.4300469689800434e+07 
-8.9999999999999805e+00 -5.3671080370432123e-01 +7.3564031597515562e+00 -6.5543193406898559e-01 -4.6599576700000483e+01 +8.4528284004485067e+03 +2.0564366376192069e+04 -4.3357447493492715e+07 
-9.0999999999999801e+00 -5.3671108245009924e-01 +7.3564191753679866e+00 -6.4500853073203257e-01 -4.6885334709431191e+01 +8.2444590857049952e+03 +2.1526970569434743e+04 -4.2405064087229475e+07 
-9.1999999999999797e+00 -5.3671135694110483e-01 +7.3564325440657274e+00 -6.3463415314246185e-01 -4.7098596330378093e+01 +8.0354888562008528e+03 +2.2124527041018253e+04 -4.1449632372628398e+07 
-9.2999999999999794e+00 -5.3671162569443343e-01 +7.3564433086053382e+00 -6.2441775997628091e-01 -4.7242778979097935e+01 +7.8275596386010975e+03 +2.2379448688606255e+04 -4.0497465244584575e+07 
-9.3999999999999808e+00 -5.3671188722720908e-01 +7.3564515117870153e+00 -6.1446830106410777e-01 -4.7321301190216495e+01 +7.6223131890120849e+03 +2.2314154443221170e+04 -3.9554874809760027e+07 
-9.4999999999999805e+00 -5.3671214005655066e-01 +7.3564571964528342e+00 -6.0489472492187191e-01 -4.7337582675084576e+01 +7.4213912374502825e+03 +2.1951069591108535e+04 -3.8628173079226270e+07 
-9.5999999999999801e+00 -5.3671238269953492e-01 +7.3564604054869793e+00 -5.9580597547928316e-01 -4.7295044334044498e+01 +7.2264354159649856e+03 +2.1312625840240245e+04 -3.7723671601583980e+07 
-9.6999999999999797e+00 -5.3671261367339496e-01 +7.3564611818202854e+00 -5.8731099288319943e-01 -4.7197108378983067e+01 +7.0390872900948762e+03 +2.0421262000553445e+04 -3.6847681654315293e+07 
-9.7999999999999794e+00 -5.3671283149523630e-01 +7.3564595684228982e+00 -5.7951871268340294e-01 -4.7047198141146737e+01 +6.8609883256655967e+03 +1.9299422913410777e+04 -3.6006514043873101e+07 
-9.8999999999999808e+00 -5.3671303468227660e-01 +7.3564556083178907e+00 -5.7253806507084470e-01 -4.6848738433307297e+01 +6.6937798886987575e+03 +1.7969561453151760e+04 -3.5206479139314763e+07 
-9.9999999999999805e+00 -5.3671322175170821e-01 +7.3564493445707857e+00 -5.6647797706329150e-01 -4.6605155225519965e+01 +6.5391032844823440e+03 +1.6454136415649071e+04 -3.4453887077299543e+07 
-1.0100000000000000e+01 -5.3671339179217392e-01 +7.3564408376360362e+00 -5.6141977752716521e-01 -4.6319720464114674e+01 +6.3982584914674917e+03 +1.4772709358386301e+04 -3.3753909191634893e+07 
