# field on trajectory
# s[mm] rx[mm] ry[mm] rz[mm] bx[T] by[T] bz[T]
0.0000000000000000e+00 +8.1529999999999987e+00 +0.0000000000000000e+00 +0.0000000000000000e+00 -3.0346519706405332e-02 -5.6466290238759709e-01 +5.6275774950338316e-03
1.0000000000000001e-01 +8.1529997169784174e+00 +0.0000000000000000e+00 +9.9999999999466002e-02 -3.0346503488842370e-02 -5.6466266604404103e-01 +5.6275889803959313e-03
2.0000000000000001e-01 +8.1529988679138299e+00 +0.0000000000000000e+00 +1.9999999999572793e-01 -3.0346475439487857e-02 -5.6466243413795636e-01 +5.6275974909813691e-03
3.0000000000000004e-01 +8.1529974528064706e+00 +0.0000000000000000e+00 +2.9999999998558180e-01 -3.0346436870589667e-02 -5.6466220753028851e-01 +5.6276032646627267e-03
4.0000000000000002e-01 +8.1529954716565651e+00 +0.0000000000000000e+00 +3.9999999996582353e-01 -3.0346389094402453e-02 -5.6466198708197701e-01 +5.6276065393134275e-03
5.0000000000000000e-01 +8.1529929244643355e+00 +0.0000000000000000e+00 +4.9999999993324906e-01 -3.0346333423187336e-02 -5.6466177365395331e-01 +5.6276075528077039e-03
5.9999999999999998e-01 +8.1529898112299950e+00 +0.0000000000000000e+00 +5.9999999988465447e-01 -3.0346271169211663e-02 -5.6466156810714430e-01 +5.6276065430206036e-03
6.9999999999999996e-01 +8.1529861319537495e+00 +0.0000000000000000e+00 +6.9999999981683558e-01 -3.0346203644748694e-02 -5.6466137130247052e-01 +5.6276037478279637e-03
7.9999999999999993e-01 +8.1529818866357964e+00 +0.0000000000000000e+00 +7.9999999972658842e-01 -3.0346132162077360e-02 -5.6466118410084842e-01 +5.6275994051064090e-03
8.9999999999999991e-01 +8.1529770752763238e+00 +0.0000000000000000e+00 +8.9999999961070898e-01 -3.0346058033481949e-02 -5.6466100736319080e-01 +5.6275937527333411e-03
9.9999999999999989e-01 +8.1529716978755076e+00 +0.0000000000000000e+00 +9.9999999946599327e-01 -3.0345982571251897e-02 -5.6466084195040733e-01 +5.6275870285869270e-03
1.0999999999999999e+00 +8.1529657544335148e+00 +0.0000000000000000e+00 +1.0999999992892373e+00 -3.0345907087681482e-02 -5.6466068872340525e-01 +5.6275794705460784e-03
1.2000000000000000e+00 +8.1529592449505000e+00 +0.0000000000000000e+00 +1.1999999990772370e+00 -3.0345832895069525e-02 -5.6466054854309089e-01 +5.6275713164904645e-03
1.3000000000000000e+00 +8.1529521694266034e+00 +0.0000000000000000e+00 +1.2999999988267883e+00 -3.0345761305719140e-02 -5.6466042227036928e-01 +5.6275628043004778e-03
1.4000000000000001e+00 +8.1529445278619512e+00 +0.0000000000000000e+00 +1.3999999985346872e+00 -3.0345693631937488e-02 -5.6466031076614531e-01 +5.6275541718572271e-03
1.5000000000000002e+00 +8.1529363202566554e+00 +0.0000000000000000e+00 +1.4999999981977297e+00 -3.0345631186035459e-02 -5.6466021489132501e-01 +5.6275456570425448e-03
1.6000000000000003e+00 +8.1529275466108118e+00 +0.0000000000000000e+00 +1.5999999978127117e+00 -3.0345575280327400e-02 -5.6466013550681604e-01 +5.6275374977389544e-03
1.7000000000000004e+00 +8.1529182069245003e+00 +0.0000000000000000e+00 +1.6999999973764295e+00 -3.0345527227130905e-02 -5.6466007347352720e-01 +5.6275299318296690e-03
1.8000000000000005e+00 +8.1529083011977850e+00 +0.0000000000000000e+00 +1.7999999968856788e+00 -3.0345488338766470e-02 -5.6466002965237161e-01 +5.6275231971985853e-03
1.9000000000000006e+00 +8.1528978294307084e+00 +0.0000000000000000e+00 +1.8999999963372558e+00 -3.0345459927557227e-02 -5.6466000490426516e-01 +5.6275175317302651e-03
2.0000000000000004e+00 +8.1528867916232954e+00 +0.0000000000000000e+00 +1.9999999957279564e+00 -3.0345443305828713e-02 -5.6466000009012807e-01 +5.6275131733099226e-03
2.1000000000000005e+00 +8.1528751877755532e+00 +0.0000000000000000e+00 +2.0999999950545765e+00 -3.0345439444416006e-02 -5.6466001565039903e-01 +5.6275103411970711e-03
2.2000000000000006e+00 +8.1528630178874639e+00 +0.0000000000000000e+00 +2.1999999943139121e+00 -3.0345447948182346e-02 -5.6466005034356925e-01 +5.6275091801462028e-03
2.3000000000000007e+00 +8.1528502819589956e+00 +0.0000000000000000e+00 +2.2999999935027593e+00 -3.0345468080490153e-02 -5.6466010250764553e-01 +5.6275098162854352e-03
2.4000000000000008e+00 +8.1528369799900950e+00 +0.0000000000000000e+00 +2.3999999926179139e+00 -3.0345499104691521e-02 -5.6466017048063621e-01 +5.6275123757427324e-03
2.5000000000000009e+00 +8.1528231119806946e+00 +0.0000000000000000e+00 +2.4999999916561721e+00 -3.0345540284126740e-02 -5.6466025260055308e-01 +5.6275169846458179e-03
2.6000000000000010e+00 +8.1528086779307145e+00 +0.0000000000000000e+00 +2.5999999906143296e+00 -3.0345590882122884e-02 -5.6466034720541103e-01 +5.6275237691220835e-03
2.7000000000000011e+00 +8.1527936778400587e+00 +0.0000000000000000e+00 +2.6999999894891826e+00 -3.0345650161992345e-02 -5.6466045263322828e-01 +5.6275328552985093e-03
2.8000000000000012e+00 +8.1527781117086224e+00 +0.0000000000000000e+00 +2.7999999882775271e+00 -3.0345717387031408e-02 -5.6466056722202607e-01 +5.6275443693015667e-03
2.9000000000000012e+00 +8.1527619795362920e+00 +0.0000000000000000e+00 +2.8999999869761588e+00 -3.0345791820518830e-02 -5.6466068930982982e-01 +5.6275584372571354e-03
3.0000000000000013e+00 +8.1527452813229448e+00 +0.0000000000000000e+00 +2.9999999855818738e+00 -3.0345872725714367e-02 -5.6466081723466954e-01 +5.6275751852904168e-03
3.1000000000000014e+00 +8.1527280170684531e+00 +0.0000000000000000e+00 +3.0999999840914678e+00 -3.0345959365857357e-02 -5.6466094933457822e-01 +5.6275947395258404e-03
3.2000000000000015e+00 +8.1527101867726870e+00 +0.0000000000000000e+00 +3.1999999825017369e+00 -3.0346051004165285e-02 -5.6466108394759418e-01 +5.6276172260869796e-03
3.3000000000000016e+00 +8.1526917904355098e+00 +0.0000000000000000e+00 +3.2999999808094773e+00 -3.0346146903832322e-02 -5.6466121941176062e-01 +5.6276427710964631e-03
3.4000000000000017e+00 +8.1526728280567884e+00 +0.0000000000000000e+00 +3.3999999790114845e+00 -3.0346246328027928e-02 -5.6466135406512541e-01 +5.6276715006758982e-03
3.5000000000000018e+00 +8.1526532996363876e+00 +0.0000000000000000e+00 +3.4999999771045549e+00 -3.0346348539895401e-02 -5.6466148624574219e-01 +5.6277035409457591e-03
3.6000000000000019e+00 +8.1526332051741761e+00 +0.0000000000000000e+00 +3.5999999750854843e+00 -3.0346452802550369e-02 -5.6466161429166839e-01 +5.6277390180253118e-03
3.7000000000000020e+00 +8.1526125446700259e+00 +0.0000000000000000e+00 +3.6999999729510686e+00 -3.0346558379079489e-02 -5.6466173654097040e-01 +5.6277780580325362e-03
3.8000000000000020e+00 +8.1525913181238163e+00 +0.0000000000000000e+00 +3.7999999706981038e+00 -3.0346664532538873e-02 -5.6466185133171720e-01 +5.6278207870840207e-03
3.9000000000000021e+00 +8.1525695255354318e+00 +0.0000000000000000e+00 +3.8999999683233857e+00 -3.0346770525952735e-02 -5.6466195700198618e-01 +5.6278673312948821e-03
4.0000000000000018e+00 +8.1525471669047676e+00 +0.0000000000000000e+00 +3.9999999658237102e+00 -3.0346875622311933e-02 -5.6466205188986029e-01 +5.6279178167786756e-03
4.1000000000000014e+00 +8.1525242422317294e+00 +0.0000000000000000e+00 +4.0999999631958737e+00 -3.0346979190689020e-02 -5.6466213477441973e-01 +5.6279722913319180e-03
4.2000000000000011e+00 +8.1525007515162358e+00 +0.0000000000000000e+00 +4.1999999604366716e+00 -3.0347081024603186e-02 -5.6466220619871255e-01 +5.6280304894879883e-03
4.3000000000000007e+00 +8.1524766947582155e+00 +0.0000000000000000e+00 +4.2999999575428998e+00 -3.0347181023699186e-02 -5.6466226714678502e-01 +5.6280920674643773e-03
4.4000000000000004e+00 +8.1524520719576063e+00 +0.0000000000000000e+00 +4.3999999545113546e+00 -3.0347279087636101e-02 -5.6466231860268878e-01 +5.6281566814783439e-03
4.5000000000000000e+00 +8.1524268831143587e+00 +0.0000000000000000e+00 +4.4999999513388316e+00 -3.0347375116088895e-02 -5.6466236155048299e-01 +5.6282239877469501e-03
4.5999999999999996e+00 +8.1524011282284317e+00 +0.0000000000000000e+00 +4.5999999480221270e+00 -3.0347469008749919e-02 -5.6466239697423370e-01 +5.6282936424870509e-03
4.6999999999999993e+00 +8.1523748072997879e+00 +0.0000000000000000e+00 +4.6999999445580372e+00 -3.0347560665330488e-02 -5.6466242585801463e-01 +5.6283653019153111e-03
4.7999999999999989e+00 +8.1523479203284008e+00 +0.0000000000000000e+00 +4.7999999409433576e+00 -3.0347649985562320e-02 -5.6466244918590613e-01 +5.6284386222481986e-03
4.8999999999999986e+00 +8.1523204673142473e+00 +0.0000000000000000e+00 +4.8999999371748837e+00 -3.0347736869199223e-02 -5.6466246794199693e-01 +5.6285132597020098e-03
4.9999999999999982e+00 +8.1522924482573096e+00 +0.0000000000000000e+00 +4.9999999332494127e+00 -3.0347821216018485e-02 -5.6466248311038292e-01 +5.6285888704928596e-03
5.0999999999999979e+00 +8.1522638631575735e+00 +0.0000000000000000e+00 +5.0999999291637392e+00 -3.0347902925822488e-02 -5.6466249567516869e-01 +5.6286651108366980e-03
5.1999999999999975e+00 +8.1522347120150265e+00 +0.0000000000000000e+00 +5.1999999249146605e+00 -3.0347981898440197e-02 -5.6466250662046702e-01 +5.6287416369493080e-03
5.2999999999999972e+00 +8.1522049948296580e+00 +0.0000000000000000e+00 +5.2999999204989710e+00 -3.0348058033728746e-02 -5.6466251693039904e-01 +5.6288181050463282e-03
5.3999999999999968e+00 +8.1521747116014609e+00 +0.0000000000000000e+00 +5.3999999159134680e+00 -3.0348131231574930e-02 -5.6466252758909485e-01 +5.6288941713432449e-03
5.4999999999999964e+00 +8.1521438623304228e+00 +0.0000000000000000e+00 +5.4999999111549469e+00 -3.0348201391896725e-02 -5.6466253958069346e-01 +5.6289694920554018e-03
5.5999999999999961e+00 +8.1521124470165347e+00 +0.0000000000000000e+00 +5.5999999062202033e+00 -3.0348268414644886e-02 -5.6466255388934239e-01 +5.6290437233980101e-03
5.6999999999999957e+00 +8.1520804656597825e+00 +0.0000000000000000e+00 +5.6999999011060334e+00 -3.0348332199804439e-02 -5.6466257149919952e-01 +5.6291165215861649e-03
5.7999999999999954e+00 +8.1520479182601484e+00 +0.0000000000000000e+00 +5.7999998958092336e+00 -3.0348392647396222e-02 -5.6466259339443170e-01 +5.6291875428348291e-03
5.8999999999999950e+00 +8.1520148048176129e+00 +0.0000000000000000e+00 +5.8999998903265993e+00 -3.0348449657478401e-02 -5.6466262055921612e-01 +5.6292564433588601e-03
5.9999999999999947e+00 +8.1519811253321475e+00 +0.0000000000000000e+00 +5.9999998846549270e+00 -3.0348503130148037e-02 -5.6466265397773940e-01 +5.6293228793730101e-03
6.0999999999999943e+00 +8.1519468798037220e+00 +0.0000000000000000e+00 +6.0999998787910119e+00 -3.0348552998346403e-02 -5.6466269449505457e-01 +5.6293865989519021e-03
6.1999999999999940e+00 +8.1519120682322956e+00 +0.0000000000000000e+00 +6.1999998727316505e+00 -3.0348599326256432e-02 -5.6466274239964576e-01 +5.6294477176114703e-03
6.2999999999999936e+00 +8.1518766906178222e+00 +0.0000000000000000e+00 +6.2999998664736392e+00 -3.0348642210864286e-02 -5.6466279784085827e-01 +5.6295064427288885e-03
6.3999999999999932e+00 +8.1518407469602465e+00 +0.0000000000000000e+00 +6.3999998600137733e+00 -3.0348681749151056e-02 -5.6466286096804463e-01 +5.6295629816820719e-03
6.4999999999999929e+00 +8.1518042372595083e+00 +0.0000000000000000e+00 +6.4999998533488483e+00 -3.0348718038092401e-02 -5.6466293193056305e-01 +5.6296175418497048e-03
6.5999999999999925e+00 +8.1517671615155347e+00 +0.0000000000000000e+00 +6.5999998464756606e+00 -3.0348751174658132e-02 -5.6466301087777926e-01 +5.6296703306112916e-03
6.6999999999999922e+00 +8.1517295197282493e+00 +0.0000000000000000e+00 +6.6999998393910065e+00 -3.0348781255811828e-02 -5.6466309795906444e-01 +5.6297215553471822e-03
6.7999999999999918e+00 +8.1516913118975669e+00 +0.0000000000000000e+00 +6.7999998320916815e+00 -3.0348808378510429e-02 -5.6466319332379744e-01 +5.6297714234386188e-03
6.8999999999999915e+00 +8.1516525380233915e+00 +0.0000000000000000e+00 +6.8999998245744809e+00 -3.0348832639703872e-02 -5.6466329712136276e-01 +5.6298201422677772e-03
6.9999999999999911e+00 +8.1516131981056219e+00 +0.0000000000000000e+00 +6.9999998168362012e+00 -3.0348854136334640e-02 -5.6466340950115268e-01 +5.6298679192177924e-03
7.0999999999999908e+00 +8.1515732921441462e+00 +0.0000000000000000e+00 +7.0999998088736387e+00 -3.0348872965337403e-02 -5.6466353061256513e-01 +5.6299149616728071e-03
7.1999999999999904e+00 +8.1515328201388435e+00 +0.0000000000000000e+00 +7.1999998006835888e+00 -3.0348889223638601e-02 -5.6466366060500517e-01 +5.6299614770180103e-03
7.2999999999999901e+00 +8.1514917820895842e+00 +0.0000000000000000e+00 +7.2999997922628479e+00 -3.0348903008156080e-02 -5.6466379962788504e-01 +5.6300076726396690e-03
7.3999999999999897e+00 +8.1514501779962316e+00 +0.0000000000000000e+00 +7.3999997836082114e+00 -3.0348914415798650e-02 -5.6466394783062301e-01 +5.6300537559251657e-03
7.4999999999999893e+00 +8.1514080078586382e+00 +0.0000000000000000e+00 +7.4999997747164748e+00 -3.0348923543465696e-02 -5.6466410536264455e-01 +5.6300999342630493e-03
7.5999999999999890e+00 +8.1513652716766458e+00 +0.0000000000000000e+00 +7.5999997655844345e+00 -3.0348930488046835e-02 -5.6466427237338257e-01 +5.6301464150430632e-03
7.6999999999999886e+00 +8.1513219694500911e+00 +0.0000000000000000e+00 +7.6999997562088867e+00 -3.0348935346421420e-02 -5.6466444901227597e-01 +5.6301934056561809e-03
7.7999999999999883e+00 +8.1512781011787965e+00 +0.0000000000000000e+00 +7.7999997465866269e+00 -3.0348938215458199e-02 -5.6466463542877054e-01 +5.6302411134946479e-03
7.8999999999999879e+00 +8.1512336668625771e+00 +0.0000000000000000e+00 +7.8999997367144505e+00 -3.0348939192014934e-02 -5.6466483177232007e-01 +5.6302897459520294e-03
7.9999999999999876e+00 +8.1511886665012376e+00 +0.0000000000000000e+00 +7.9999997265891540e+00 -3.0348938372937950e-02 -5.6466503819238412e-01 +5.6303395104232356e-03
8.0999999999999872e+00 +8.1511431000945720e+00 +0.0000000000000000e+00 +8.0999997162075328e+00 -3.0348935823949340e-02 -5.6466525471908813e-01 +5.6303905886008259e-03
8.1999999999999869e+00 +8.1510969676423652e+00 +0.0000000000000000e+00 +8.1999997055663822e+00 -3.0348931486308198e-02 -5.6466548090518454e-01 +5.6304430593617279e-03
8.2999999999999865e+00 +8.1510502691443918e+00 +0.0000000000000000e+00 +8.2999996946624996e+00 -3.0348925270148087e-02 -5.6466571618406447e-01 +5.6304969758766100e-03
8.3999999999999861e+00 +8.1510030046004172e+00 +0.0000000000000000e+00 +8.3999996834926804e+00 -3.0348917085589563e-02 -5.6466595998909941e-01 +5.6305523913136339e-03
8.4999999999999858e+00 +8.1509551740101998e+00 +0.0000000000000000e+00 +8.4999996720537201e+00 -3.0348906842739803e-02 -5.6466621175363996e-01 +5.6306093588383860e-03
8.5999999999999854e+00 +8.1509067773734873e+00 +0.0000000000000000e+00 +8.5999996603424140e+00 -3.0348894451692192e-02 -5.6466647091101485e-01 +5.6306679316137963e-03
8.6999999999999851e+00 +8.1508578146900224e+00 +0.0000000000000000e+00 +8.6999996483555577e+00 -3.0348879822525942e-02 -5.6466673689453051e-01 +5.6307281628000467e-03
8.7999999999999847e+00 +8.1508082859595401e+00 +0.0000000000000000e+00 +8.7999996360899484e+00 -3.0348862865305751e-02 -5.6466700913747081e-01 +5.6307901055545001e-03
8.8999999999999844e+00 +8.1507581911817688e+00 +0.0000000000000000e+00 +8.8999996235423797e+00 -3.0348843490081337e-02 -5.6466728707309444e-01 +5.6308538130316202e-03
8.9999999999999840e+00 +8.1507075303564314e+00 +0.0000000000000000e+00 +8.9999996107096489e+00 -3.0348821606887122e-02 -5.6466757013463642e-01 +5.6309193383828849e-03
9.0999999999999837e+00 +8.1506563034832453e+00 +0.0000000000000000e+00 +9.0999995975885515e+00 -3.0348797125741813e-02 -5.6466785775530615e-01 +5.6309867347567122e-03
9.1999999999999833e+00 +8.1506045105619247e+00 +0.0000000000000000e+00 +9.1999995841758828e+00 -3.0348769956648012e-02 -5.6466814936828680e-01 +5.6310560552983741e-03
9.2999999999999829e+00 +8.1505521515921799e+00 +0.0000000000000000e+00 +9.2999995704684402e+00 -3.0348740009591833e-02 -5.6466844440673447e-01 +5.6311273531499126e-03
9.3999999999999826e+00 +8.1504992265737144e+00 +0.0000000000000000e+00 +9.3999995564630172e+00 -3.0348707194542579e-02 -5.6466874230377717e-01 +5.6312006814500781e-03
9.4999999999999822e+00 +8.1504457355062332e+00 +0.0000000000000000e+00 +9.4999995421564112e+00 -3.0348671421452259e-02 -5.6466904249251559e-01 +5.6312760933342259e-03
9.5999999999999819e+00 +8.1503916783894361e+00 +0.0000000000000000e+00 +9.5999995275454175e+00 -3.0348632600255287e-02 -5.6466934440601990e-01 +5.6313536419342405e-03
9.6999999999999815e+00 +8.1503370552230230e+00 +0.0000000000000000e+00 +9.6999995126268317e+00 -3.0348590640868027e-02 -5.6466964747733150e-01 +5.6314333803784630e-03
9.7999999999999812e+00 +8.1502818660066918e+00 +0.0000000000000000e+00 +9.7999994973974491e+00 -3.0348545453188502e-02 -5.6466995113945961e-01 +5.6315153617916020e-03
9.8999999999999808e+00 +8.1502261107401406e+00 +0.0000000000000000e+00 +9.8999994818540653e+00 -3.0348496947095942e-02 -5.6467025482538291e-01 +5.6315996392946590e-03
9.9999999999999805e+00 +8.1501697894230656e+00 +0.0000000000000000e+00 +9.9999994659934774e+00 -3.0348445032450440e-02 -5.6467055796804788e-01 +5.6316862660048409e-03
1.0099999999999980e+01 +8.1501129020551648e+00 +0.0000000000000000e+00 +1.0099999449812479e+01 -3.0348389719985640e-02 -5.6467086016767831e-01 +5.6317752339465734e-03
1.0199999999999980e+01 +8.1500554486361381e+00 +0.0000000000000000e+00 +1.0199999433307868e+01 -3.0348331424012980e-02 -5.6467116169371823e-01 +5.6318662907837210e-03
1.0299999999999979e+01 +8.1499974291656834e+00 +0.0000000000000000e+00 +1.0299999416476439e+01 -3.0348270659772095e-02 -5.6467146298288995e-01 +5.6319591230933859e-03
1.0399999999999979e+01 +8.1499388436435023e+00 +0.0000000000000000e+00 +1.0399999399314988e+01 -3.0348207942540152e-02 -5.6467176447187839e-01 +5.6320534174576393e-03
1.0499999999999979e+01 +8.1498796920692929e+00 +0.0000000000000000e+00 +1.0499999381820309e+01 -3.0348143787632856e-02 -5.6467206659732916e-01 +5.6321488604636604e-03
1.0599999999999978e+01 +8.1498199744427549e+00 +0.0000000000000000e+00 +1.0599999363989200e+01 -3.0348078710405322e-02 -5.6467236979584845e-01 +5.6322451387038697e-03
1.0699999999999978e+01 +8.1497596907635863e+00 +0.0000000000000000e+00 +1.0699999345818455e+01 -3.0348013226253183e-02 -5.6467267450400116e-01 +5.6323419387760681e-03
1.0799999999999978e+01 +8.1496988410314835e+00 +0.0000000000000000e+00 +1.0799999327304871e+01 -3.0347947850613500e-02 -5.6467298115831110e-01 +5.6324389472835789e-03
1.0899999999999977e+01 +8.1496374252461408e+00 +0.0000000000000000e+00 +1.0899999308445242e+01 -3.0347883098965758e-02 -5.6467329019525969e-01 +5.6325358508353893e-03
1.0999999999999977e+01 +8.1495754434072509e+00 +0.0000000000000000e+00 +1.0999999289236365e+01 -3.0347819486832836e-02 -5.6467360205128558e-01 +5.6326323360462813e-03
1.1099999999999977e+01 +8.1495128955145031e+00 +0.0000000000000000e+00 +1.1099999269675035e+01 -3.0347757529782034e-02 -5.6467391716278292e-01 +5.6327280895369890e-03
1.1199999999999976e+01 +8.1494497815675828e+00 +0.0000000000000000e+00 +1.1199999249758047e+01 -3.0347697743425973e-02 -5.6467423596610167e-01 +5.6328227979343080e-03
1.1299999999999976e+01 +8.1493861015661722e+00 +0.0000000000000000e+00 +1.1299999229482198e+01 -3.0347640643423674e-02 -5.6467455889754581e-01 +5.6329161478712760e-03
1.1399999999999975e+01 +8.1493218555099496e+00 +0.0000000000000000e+00 +1.1399999208844283e+01 -3.0347586745481395e-02 -5.6467488639337293e-01 +5.6330078259872705e-03
1.1499999999999975e+01 +8.1492570433985900e+00 +0.0000000000000000e+00 +1.1499999187841098e+01 -3.0347536565353744e-02 -5.6467521888979377e-01 +5.6330975189281818e-03
1.1599999999999975e+01 +8.1491916652317613e+00 +0.0000000000000000e+00 +1.1599999166469440e+01 -3.0347490618844591e-02 -5.6467555682297044e-01 +5.6331849133465358e-03
1.1699999999999974e+01 +8.1491257210091277e+00 +0.0000000000000000e+00 +1.1699999144726101e+01 -3.0347449421808045e-02 -5.6467590062901651e-01 +5.6332696959016425e-03
1.1799999999999974e+01 +8.1490592107303446e+00 +0.0000000000000000e+00 +1.1799999122607879e+01 -3.0347413490149435e-02 -5.6467625074399608e-01 +5.6333515532597375e-03
