# field on trajectory
# s[mm] rx[mm] ry[mm] rz[mm] bx[T] by[T] bz[T]
0.0000000000000000e+00 +8.1530000000000005e+00 +0.0000000000000000e+00 +0.0000000000000000e+00 -2.8399884023471149e-02 -5.3669967324851720e-01 +5.3298233210911389e-03
1.0000000000000001e-01 +8.1529997163961507e+00 +0.0000000000000000e+00 +9.9999999999463796e-02 -2.8399878295589681e-02 -5.3669970076838425e-01 +5.3298309211039603e-03
2.0000000000000001e-01 +8.1529988655856904e+00 +0.0000000000000000e+00 +1.9999999999571000e-01 -2.8399869756919580e-02 -5.3669974832792744e-01 +5.3298374721673395e-03
2.9999999999999999e-01 +8.1529974475670297e+00 +0.0000000000000000e+00 +2.9999999998552201e-01 -2.8399858927091064e-02 -5.3669981483168538e-01 +5.3298432640092363e-03
4.0000000000000002e-01 +8.1529954623438208e+00 +0.0000000000000000e+00 +3.9999999996568297e-01 -2.8399846325732746e-02 -5.3669989918414152e-01 +5.3298485863556002e-03
5.0000000000000000e-01 +8.1529929099124292e+00 +0.0000000000000000e+00 +4.9999999993297400e-01 -2.8399832472476707e-02 -5.3670000028981701e-01 +5.3298537289317334e-03
5.9999999999999998e-01 +8.1529897902728408e+00 +0.0000000000000000e+00 +5.9999999988417896e-01 -2.8399817886954528e-02 -5.3670011705319753e-01 +5.3298589814618968e-03
6.9999999999999996e-01 +8.1529861034287006e+00 +0.0000000000000000e+00 +6.9999999981608096e-01 -2.8399803088797505e-02 -5.3670024837873476e-01 +5.3298646336697366e-03
8.0000000000000004e-01 +8.1529818493763706e+00 +0.0000000000000000e+00 +7.9999999972546199e-01 -2.8399788597641099e-02 -5.3670039317093354e-01 +5.3298709752795416e-03
9.0000000000000002e-01 +8.1529770281158598e+00 +0.0000000000000000e+00 +8.9999999960910604e-01 -2.8399774933120937e-02 -5.3670055033427455e-01 +5.3298782960158383e-03
1.0000000000000000e+00 +8.1529716396507901e+00 +0.0000000000000000e+00 +9.9999999946379403e-01 -2.8399762614873071e-02 -5.3670071877321790e-01 +5.3298868856038210e-03
1.1000000000000001e+00 +8.1529656839775306e+00 +0.0000000000000000e+00 +1.0999999992863101e+00 -2.8399752162538403e-02 -5.3670089739228966e-01 +5.3298970337706062e-03
1.2000000000000000e+00 +8.1529591610960797e+00 +0.0000000000000000e+00 +1.1999999990734400e+00 -2.8399744095758718e-02 -5.3670108509600389e-01 +5.3299090302448351e-03
1.3000000000000000e+00 +8.1529520710100805e+00 +0.0000000000000000e+00 +1.2999999988219599e+00 -2.8399738934176889e-02 -5.3670128078886759e-01 +5.3299231647570937e-03
1.3999999999999999e+00 +8.1529444137122500e+00 +0.0000000000000000e+00 +1.3999999985286500e+00 -2.8399737197442744e-02 -5.3670148337549306e-01 +5.3299397270414554e-03
1.5000000000000000e+00 +8.1529361892135093e+00 +0.0000000000000000e+00 +1.4999999981903001e+00 -2.8399739405202067e-02 -5.3670169176038640e-01 +5.3299590068336938e-03
1.6000000000000001e+00 +8.1529273975065699e+00 +0.0000000000000000e+00 +1.5999999978037001e+00 -2.8399746077110873e-02 -5.3670190484822045e-01 +5.3299812938744640e-03
1.7000000000000000e+00 +8.1529180385914497e+00 +0.0000000000000000e+00 +1.6999999973656199e+00 -2.8399757732825760e-02 -5.3670212154365105e-01 +5.3300068779078089e-03
1.8000000000000000e+00 +8.1529081124681397e+00 +0.0000000000000000e+00 +1.7999999968728499e+00 -2.8399774892007023e-02 -5.3670234075137579e-01 +5.3300360486821319e-03
1.8999999999999999e+00 +8.1528976191402798e+00 +0.0000000000000000e+00 +1.8999999963221601e+00 -2.8399798074317466e-02 -5.3670256137611083e-01 +5.3300690959503533e-03
2.0000000000000000e+00 +8.1528865586042194e+00 +0.0000000000000000e+00 +1.9999999957103500e+00 -2.8399827799426774e-02 -5.3670278232267521e-01 +5.3301063094711590e-03
2.1000000000000001e+00 +8.1528749308599799e+00 +0.0000000000000000e+00 +2.0999999950341901e+00 -2.8399864408135671e-02 -5.3670300259821102e-01 +5.3301478844716282e-03
2.2000000000000002e+00 +8.1528627359111905e+00 +0.0000000000000000e+00 +2.1999999942904802e+00 -2.8399907525758602e-02 -5.3670322161905448e-01 +5.3301936380344053e-03
2.2999999999999998e+00 +8.1528499737542006e+00 +0.0000000000000000e+00 +2.2999999934759798e+00 -2.8399956598741134e-02 -5.3670343890389827e-01 +5.3302432927055847e-03
2.3999999999999999e+00 +8.1528366443890299e+00 +0.0000000000000000e+00 +2.3999999925874800e+00 -2.8400011073527128e-02 -5.3670365397140851e-01 +5.3302965710299950e-03
2.5000000000000000e+00 +8.1528227478193003e+00 +0.0000000000000000e+00 +2.4999999916217801e+00 -2.8400070396558341e-02 -5.3670386634022338e-01 +5.3303531955508293e-03
2.6000000000000001e+00 +8.1528082840413791e+00 +0.0000000000000000e+00 +2.5999999905756401e+00 -2.8400134014278423e-02 -5.3670407552902943e-01 +5.3304128888101154e-03
2.7000000000000002e+00 +8.1527932530552807e+00 +0.0000000000000000e+00 +2.6999999894458502e+00 -2.8400201373128309e-02 -5.3670428105648027e-01 +5.3304753733475103e-03
2.7999999999999998e+00 +8.1527776548646198e+00 +0.0000000000000000e+00 +2.7999999882291999e+00 -2.8400271919546000e-02 -5.3670448244119406e-01 +5.3305403716999511e-03
2.8999999999999999e+00 +8.1527614894657692e+00 +0.0000000000000000e+00 +2.8999999869224702e+00 -2.8400345099970387e-02 -5.3670467920183051e-01 +5.3306076064021093e-03
3.0000000000000000e+00 +8.1527447568587394e+00 +0.0000000000000000e+00 +2.9999999855224302e+00 -2.8400420360836769e-02 -5.3670487085700991e-01 +5.3306767999852043e-03
3.1000000000000001e+00 +8.1527274570471508e+00 +0.0000000000000000e+00 +3.0999999840258798e+00 -2.8400497148576571e-02 -5.3670505692530834e-01 +5.3307476749766330e-03
3.2000000000000002e+00 +8.1527095900273707e+00 +0.0000000000000000e+00 +3.1999999824295902e+00 -2.8400574909621175e-02 -5.3670523692533845e-01 +5.3308199539004383e-03
3.2999999999999998e+00 +8.1526911557994008e+00 +0.0000000000000000e+00 +3.2999999807303602e+00 -2.8400653090397462e-02 -5.3670541037566388e-01 +5.3308933592761121e-03
3.3999999999999999e+00 +8.1526721543668792e+00 +0.0000000000000000e+00 +3.3999999789249502e+00 -2.8400731137327488e-02 -5.3670557679479980e-01 +5.3309676136182446e-03
3.5000000000000000e+00 +8.1526525857261696e+00 +0.0000000000000000e+00 +3.4999999770101602e+00 -2.8400808496832367e-02 -5.3670573570128866e-01 +5.3310424394369619e-03
3.6000000000000001e+00 +8.1526324498772702e+00 +0.0000000000000000e+00 +3.5999999749827598e+00 -2.8400884615327780e-02 -5.3670588661361884e-01 +5.3311175592367704e-03
3.7000000000000002e+00 +8.1526117468238208e+00 +0.0000000000000000e+00 +3.6999999728395401e+00 -2.8400958939223661e-02 -5.3670602905022080e-01 +5.3311926955161588e-03
3.7999999999999998e+00 +8.1525904765621799e+00 +0.0000000000000000e+00 +3.7999999705772902e+00 -2.8401030914928051e-02 -5.3670616252954717e-01 +5.3312675707680827e-03
3.8999999999999999e+00 +8.1525686390959908e+00 +0.0000000000000000e+00 +3.8999999681927799e+00 -2.8401099988841265e-02 -5.3670628656996111e-01 +5.3313419074784932e-03
4.0000000000000000e+00 +8.1525462344179704e+00 +0.0000000000000000e+00 +3.9999999656827998e+00 -2.8401165607362524e-02 -5.3670640068986974e-01 +5.3314154281273469e-03
4.0999999999999996e+00 +8.1525232625354001e+00 +0.0000000000000000e+00 +4.0999999630441302e+00 -2.8401227360872479e-02 -5.3670650487437399e-01 +5.3314879262570513e-03
4.2000000000000002e+00 +8.1524997234482708e+00 +0.0000000000000000e+00 +4.1999999602735496e+00 -2.8401285415724450e-02 -5.3670660097595968e-01 +5.3315594796886174e-03
4.2999999999999998e+00 +8.1524756171529607e+00 +0.0000000000000000e+00 +4.2999999573678496e+00 -2.8401340082272922e-02 -5.3670669131395177e-01 +5.3316302373130932e-03
4.4000000000000004e+00 +8.1524509436494608e+00 +0.0000000000000000e+00 +4.3999999543238104e+00 -2.8401391670879558e-02 -5.3670677820762103e-01 +5.3317003480207858e-03
4.5000000000000000e+00 +8.1524257029377605e+00 +0.0000000000000000e+00 +4.4999999511382098e+00 -2.8401440491915050e-02 -5.3670686397620659e-01 +5.3317699607016008e-03
4.5999999999999996e+00 +8.1523998950215208e+00 +0.0000000000000000e+00 +4.5999999478078299e+00 -2.8401486855758256e-02 -5.3670695093888898e-01 +5.3318392242448290e-03
4.7000000000000002e+00 +8.1523735198970808e+00 +0.0000000000000000e+00 +4.6999999443294600e+00 -2.8401531072800974e-02 -5.3670704141487047e-01 +5.3319082875400688e-03
4.7999999999999998e+00 +8.1523465775644599e+00 +0.0000000000000000e+00 +4.7999999406998803e+00 -2.8401573453444236e-02 -5.3670713772329137e-01 +5.3319772994764349e-03
4.9000000000000004e+00 +8.1523190680272801e+00 +0.0000000000000000e+00 +4.8999999369158704e+00 -2.8401614308098799e-02 -5.3670724218322885e-01 +5.3320464089426532e-03
5.0000000000000000e+00 +8.1522909912819195e+00 +0.0000000000000000e+00 +4.9999999329742204e+00 -2.8401653947189978e-02 -5.3670735711377782e-01 +5.3321157648279459e-03
5.0999999999999996e+00 +8.1522623473319999e+00 +0.0000000000000000e+00 +5.0999999288717000e+00 -2.8401692681152436e-02 -5.3670748483393937e-01 +5.3321855160210034e-03
5.2000000000000002e+00 +8.1522331361738907e+00 +0.0000000000000000e+00 +5.1999999246051098e+00 -2.8401730820436410e-02 -5.3670762766272939e-01 +5.3322558114111476e-03
5.2999999999999998e+00 +8.1522033578075899e+00 +0.0000000000000000e+00 +5.2999999201712198e+00 -2.8401768675504060e-02 -5.3670778791909546e-01 +5.3323267998875868e-03
5.4000000000000004e+00 +8.1521730122331100e+00 +0.0000000000000000e+00 +5.3999999155668199e+00 -2.8401806556831229e-02 -5.3670796792194231e-01 +5.3323986303397504e-03
5.5000000000000000e+00 +8.1521420994540694e+00 +0.0000000000000000e+00 +5.4999999107886799e+00 -2.8401844774906811e-02 -5.3670816999010329e-01 +5.3324714516570816e-03
5.5999999999999996e+00 +8.1521106194668391e+00 +0.0000000000000000e+00 +5.5999999058335996e+00 -2.8401883640237269e-02 -5.3670839644242074e-01 +5.3325454127299467e-03
5.7000000000000002e+00 +8.1520785722750606e+00 +0.0000000000000000e+00 +5.6999999006983604e+00 -2.8401923463341670e-02 -5.3670864959763598e-01 +5.3326206624485810e-03
5.7999999999999998e+00 +8.1520459578750906e+00 +0.0000000000000000e+00 +5.7999998953797300e+00 -2.8401964554757825e-02 -5.3670893177449586e-01 +5.3326973497042846e-03
5.9000000000000004e+00 +8.1520127762669308e+00 +0.0000000000000000e+00 +5.8999998898744996e+00 -2.8402007225038529e-02 -5.3670924529167052e-01 +5.3327756233886442e-03
5.9999999999999902e+00 +8.1519790274505795e+00 +0.0000000000000000e+00 +5.9999998841794504e+00 -2.8402051784753558e-02 -5.3670959246777961e-01 +5.3328556323938856e-03
6.0999999999999899e+00 +8.1519447114296799e+00 +0.0000000000000000e+00 +6.0999998782913698e+00 -2.8402098430673199e-02 -5.3670997483378580e-01 +5.3329374954305770e-03
6.1999999999999904e+00 +8.1519098282005906e+00 +0.0000000000000000e+00 +6.1999998722070400e+00 -2.8402146904313304e-02 -5.3671039077038585e-01 +5.3330212104832596e-03
6.2999999999999901e+00 +8.1518743777669407e+00 +0.0000000000000000e+00 +6.2999998659232403e+00 -2.8402196833357197e-02 -5.3671083787072560e-01 +5.3331067453584683e-03
6.3999999999999897e+00 +8.1518383601214701e+00 +0.0000000000000000e+00 +6.3999998594367504e+00 -2.8402247845475501e-02 -5.3671131372813574e-01 +5.3331940678690085e-03
6.4999999999999902e+00 +8.1518017752750893e+00 +0.0000000000000000e+00 +6.4999998527443603e+00 -2.8402299568313975e-02 -5.3671181593592121e-01 +5.3332831458319883e-03
6.5999999999999899e+00 +8.1517646232205205e+00 +0.0000000000000000e+00 +6.5999998458428504e+00 -2.8402351629506727e-02 -5.3671234208763441e-01 +5.3333739470718174e-03
6.6999999999999904e+00 +8.1517269039541098e+00 +0.0000000000000000e+00 +6.6999998387290001e+00 -2.8402403656666981e-02 -5.3671288977691944e-01 +5.3334664394188019e-03
6.7999999999999901e+00 +8.1516886174867995e+00 +0.0000000000000000e+00 +6.7999998313996004e+00 -2.8402455277381906e-02 -5.3671345659743530e-01 +5.3335605907085500e-03
6.8999999999999897e+00 +8.1516497638112906e+00 +0.0000000000000000e+00 +6.8999998238514202e+00 -2.8402506119224472e-02 -5.3671404014310320e-01 +5.3336563687847076e-03
6.9999999999999902e+00 +8.1516103429239593e+00 +0.0000000000000000e+00 +6.9999998160812602e+00 -2.8402555809744153e-02 -5.3671463800794972e-01 +5.3337537414975336e-03
7.0999999999999899e+00 +8.1515703548320708e+00 +0.0000000000000000e+00 +7.0999998080858804e+00 -2.8402603976463228e-02 -5.3671524778605850e-01 +5.3338526767035977e-03
7.1999999999999904e+00 +8.1515297995356395e+00 +0.0000000000000000e+00 +7.1999997998620904e+00 -2.8402650246882995e-02 -5.3671586707170904e-01 +5.3339531422674077e-03
7.2999999999999901e+00 +8.1514886770310095e+00 +0.0000000000000000e+00 +7.2999997914066501e+00 -2.8402694248481460e-02 -5.3671649345935413e-01 +5.3340551060613592e-03
7.3999999999999897e+00 +8.1514469873182005e+00 +0.0000000000000000e+00 +7.3999997827163604e+00 -2.8402735608709699e-02 -5.3671712454357079e-01 +5.3341585359654399e-03
7.4999999999999902e+00 +8.1514047304008308e+00 +0.0000000000000000e+00 +7.4999997737879900e+00 -2.8402773954991020e-02 -5.3671775791906717e-01 +5.3342633998674695e-03
7.5999999999999899e+00 +8.1513619062752696e+00 +0.0000000000000000e+00 +7.5999997646183202e+00 -2.8402808914724239e-02 -5.3671839118076525e-01 +5.3343696656641664e-03
7.6999999999999904e+00 +8.1513185149451601e+00 +0.0000000000000000e+00 +7.6999997552041499e+00 -2.8402840115277293e-02 -5.3671902192369969e-01 +5.3344773012602795e-03
7.7999999999999901e+00 +8.1512745564032194e+00 +0.0000000000000000e+00 +7.7999997455422498e+00 -2.8402867183993381e-02 -5.3671964774315595e-01 +5.3345862745702273e-03
7.8999999999999897e+00 +8.1512300306567305e+00 +0.0000000000000000e+00 +7.8999997356294100e+00 -2.8402889748180202e-02 -5.3672026623448854e-01 +5.3346965535163889e-03
7.9999999999999902e+00 +8.1511849377056897e+00 +0.0000000000000000e+00 +7.9999997254624002e+00 -2.8402907435117669e-02 -5.3672087499328558e-01 +5.3348081060310120e-03
8.0999999999999908e+00 +8.1511392775464593e+00 +0.0000000000000000e+00 +8.0999997150380096e+00 -2.8402920047876097e-02 -5.3672147205081255e-01 +5.3349208909708075e-03
8.1999999999999904e+00 +8.1510930501790408e+00 +0.0000000000000000e+00 +8.1999997043530293e+00 -2.8402928092788274e-02 -5.3672205718028543e-01 +5.3350348308556896e-03
8.2999999999999901e+00 +8.1510462556034309e+00 +0.0000000000000000e+00 +8.2999996934042404e+00 -2.8402932251999753e-02 -5.3672263059034464e-01 +5.3351498391174378e-03
8.3999999999999897e+00 +8.1509988938232691e+00 +0.0000000000000000e+00 +8.3999996821884100e+00 -2.8402933207645819e-02 -5.3672319248953082e-01 +5.3352658291836545e-03
8.4999999999999893e+00 +8.1509509648349194e+00 +0.0000000000000000e+00 +8.4999996707023406e+00 -2.8402931641855565e-02 -5.3672374308636206e-01 +5.3353827144784075e-03
8.5999999999999908e+00 +8.1509024686420197e+00 +0.0000000000000000e+00 +8.5999996589427994e+00 -2.8402928236746200e-02 -5.3672428258922500e-01 +5.3355004084209750e-03
8.6999999999999904e+00 +8.1508534052409196e+00 +0.0000000000000000e+00 +8.6999996469065692e+00 -2.8402923674428485e-02 -5.3672481120647597e-01 +5.3356188244267546e-03
8.7999999999999794e+00 +8.1508037746316404e+00 +0.0000000000000000e+00 +8.7999996345904599e+00 -2.8402918637002467e-02 -5.3672532914635929e-01 +5.3357378759062730e-03
8.8999999999999808e+00 +8.1507535768178094e+00 +0.0000000000000000e+00 +8.8999996219912205e+00 -2.8402913806557298e-02 -5.3672583661700457e-01 +5.3358574762650060e-03
8.9999999999999805e+00 +8.1507028117957798e+00 +0.0000000000000000e+00 +8.9999996091056396e+00 -2.8402909865175394e-02 -5.3672633382650237e-01 +5.3359775389040416e-03
9.0999999999999801e+00 +8.1506514795655693e+00 +0.0000000000000000e+00 +9.0999995959305195e+00 -2.8402907494928038e-02 -5.3672682098282132e-01 +5.3360979772190701e-03
9.1999999999999797e+00 +8.1505995801308000e+00 +0.0000000000000000e+00 +9.1999995824626293e+00 -2.8402907377875285e-02 -5.3672729829380461e-01 +5.3362187046002169e-03
9.2999999999999794e+00 +8.1505471134878498e+00 +0.0000000000000000e+00 +9.2999995686987500e+00 -2.8402910196070070e-02 -5.3672776596724769e-01 +5.3363396344326937e-03
9.3999999999999808e+00 +8.1504940796366991e+00 +0.0000000000000000e+00 +9.3999995546356701e+00 -2.8402916631553886e-02 -5.3672822421081434e-01 +5.3364606800957986e-03
9.4999999999999805e+00 +8.1504404785773694e+00 +0.0000000000000000e+00 +9.4999995402701707e+00 -2.8402927366357973e-02 -5.3672867323205975e-01 +5.3365817549630183e-03
9.5999999999999801e+00 +8.1503863103171206e+00 +0.0000000000000000e+00 +9.5999995255990296e+00 -2.8402943082500545e-02 -5.3672911323837491e-01 +5.3367027724013066e-03
9.6999999999999797e+00 +8.1503315748450404e+00 +0.0000000000000000e+00 +9.6999995106190298e+00 -2.8402964461996340e-02 -5.3672954443716991e-01 +5.3368236457728346e-03
9.7999999999999794e+00 +8.1502762721684103e+00 +0.0000000000000000e+00 +9.7999994953269702e+00 -2.8402992186842578e-02 -5.3672996703560316e-01 +5.3369442884320705e-03
9.8999999999999808e+00 +8.1502204022835905e+00 +0.0000000000000000e+00 +9.8999994797196091e+00 -2.8403026939029970e-02 -5.3673038124079264e-01 +5.3370646137278046e-03
9.9999999999999805e+00 +8.1501639651905897e+00 +0.0000000000000000e+00 +9.9999994637937508e+00 -2.8403069400537086e-02 -5.3673078725970469e-01 +5.3371845350018770e-03
1.0100000000000000e+01 +8.1501069608966592e+00 +0.0000000000000000e+00 +1.0099999447546200e+01 -2.8403120034668463e-02 -5.3673118548066945e-01 +5.3373040000965375e-03
1.0199999999999999e+01 +8.1500493893909205e+00 +0.0000000000000000e+00 +1.0199999430973600e+01 -2.8403178430082679e-02 -5.3673157701820295e-01 +5.3374230948827206e-03
1.0300000000000001e+01 +8.1499912506769796e+00 +0.0000000000000000e+00 +1.0299999414073000e+01 -2.8403243956791384e-02 -5.3673196316812977e-01 +5.3375419397344954e-03
1.0400000000000000e+01 +8.1499325447584905e+00 +0.0000000000000000e+00 +1.0399999396840901e+01 -2.8403315984836298e-02 -5.3673234522613367e-01 +5.3376606550213472e-03
1.0500000000000000e+01 +8.1498732716317992e+00 +0.0000000000000000e+00 +1.0499999379274200e+01 -2.8403393884292947e-02 -5.3673272448781029e-01 +5.3377793611086482e-03
1.0600000000000000e+01 +8.1498134313005703e+00 +0.0000000000000000e+00 +1.0599999361369800e+01 -2.8403477025265904e-02 -5.3673310224855519e-01 +5.3378981783564110e-03
1.0699999999999999e+01 +8.1497530237611500e+00 +0.0000000000000000e+00 +1.0699999343124301e+01 -2.8403564777895296e-02 -5.3673347980367003e-01 +5.3380172271203213e-03
1.0800000000000001e+01 +8.1496920490171796e+00 +0.0000000000000000e+00 +1.0799999324534600e+01 -2.8403656512352021e-02 -5.3673385844824861e-01 +5.3381366277504986e-03
1.0900000000000000e+01 +8.1496305070650106e+00 +0.0000000000000000e+00 +1.0899999305597399e+01 -2.8403751598844295e-02 -5.3673423947728460e-01 +5.3382565005925062e-03
1.1000000000000000e+01 +8.1495683979046607e+00 +0.0000000000000000e+00 +1.0999999286309500e+01 -2.8403849407614253e-02 -5.3673462418558460e-01 +5.3383769659864052e-03
1.1100000000000000e+01 +8.1495057215361193e+00 +0.0000000000000000e+00 +1.1099999266667700e+01 -2.8403949308940274e-02 -5.3673501386779421e-01 +5.3384981442669366e-03
1.1199999999999999e+01 +8.1494424779630208e+00 +0.0000000000000000e+00 +1.1199999246668799e+01 -2.8404050673136439e-02 -5.3673540981836576e-01 +5.3386201557631165e-03
1.1300000000000001e+01 +8.1493786671817396e+00 +0.0000000000000000e+00 +1.1299999226309600e+01 -2.8404152870557586e-02 -5.3673581333163733e-01 +5.3387431207989802e-03
1.1400000000000000e+01 +8.1493142891922599e+00 +0.0000000000000000e+00 +1.1399999205586900e+01 -2.8404255271596037e-02 -5.3673622570174784e-01 +5.3388671596926243e-03
1.1500000000000000e+01 +8.1492493440018698e+00 +0.0000000000000000e+00 +1.1499999184497300e+01 -2.8404357246681028e-02 -5.3673664822260769e-01 +5.3389923927558373e-03
1.1600000000000000e+01 +8.1491838315996592e+00 +0.0000000000000000e+00 +1.1599999163037801e+01 -2.8404458166289396e-02 -5.3673708218808236e-01 +5.3391189402959092e-03
1.1699999999999999e+01 +8.1491177519928897e+00 +0.0000000000000000e+00 +1.1699999141205099e+01 -2.8404557400932468e-02 -5.3673752889172166e-01 +5.3392469226127854e-03
1.1800000000000001e+01 +8.1490511051779304e+00 +0.0000000000000000e+00 +1.1799999118996000e+01 -2.8404654321168118e-02 -5.3673798962697072e-01 +5.3393764600011360e-03
