# trajectory
# s[mm] rx[mm] ry[mm] rz[mm] px[rad] py[rad] pz[rad]
0.0000000000000000e+00 +8.1529999999999987e+00 +0.0000000000000000e+00 +0.0000000000000000e+00 +0.0000000000000000e+00 +0.0000000000000000e+00 +1.0000000000000000e+00
1.0000000000000001e-01 +8.1529997169215562e+00 +0.0000000000000000e+00 +9.9999999999465794e-02 -5.6615687986918292e-06 +0.0000000000000000e+00 +9.9999999998397326e-01
2.0000000000000001e-01 +8.1529988676862484e+00 +0.0000000000000000e+00 +1.9999999999572621e-01 -1.1323137331566568e-05 +0.0000000000000000e+00 +9.9999999993589328e-01
3.0000000000000004e-01 +8.1529974522940964e+00 +0.0000000000000000e+00 +2.9999999998557597e-01 -1.6984705684536145e-05 +0.0000000000000000e+00 +9.9999999985575994e-01
4.0000000000000002e-01 +8.1529954707451147e+00 +0.0000000000000000e+00 +3.9999999996580970e-01 -2.2646273939882683e-05 +0.0000000000000000e+00 +9.9999999974357323e-01
5.0000000000000000e-01 +8.1529929230393083e+00 +0.0000000000000000e+00 +4.9999999993322214e-01 -2.8307842176258447e-05 +0.0000000000000000e+00 +9.9999999959933317e-01
5.9999999999999998e-01 +8.1529898091766775e+00 +0.0000000000000000e+00 +5.9999999988460795e-01 -3.3969410468685808e-05 +0.0000000000000000e+00 +9.9999999942303974e-01
6.9999999999999996e-01 +8.1529861291572114e+00 +0.0000000000000000e+00 +6.9999999981676164e-01 -3.9630978888557206e-05 +0.0000000000000000e+00 +9.9999999921469296e-01
7.9999999999999993e-01 +8.1529818829808942e+00 +0.0000000000000000e+00 +7.9999999972647806e-01 -4.5292547503635141e-05 +0.0000000000000000e+00 +9.9999999897429281e-01
8.9999999999999991e-01 +8.1529770706477027e+00 +0.0000000000000000e+00 +8.9999999961055177e-01 -5.0954116378052127e-05 +0.0000000000000000e+00 +9.9999999870183931e-01
9.9999999999999989e-01 +8.1529716921576085e+00 +0.0000000000000000e+00 +9.9999999946577744e-01 -5.6615685572310692e-05 +0.0000000000000000e+00 +9.9999999839733233e-01
1.0999999999999999e+00 +8.1529657475105761e+00 +0.0000000000000000e+00 +1.0999999992889498e+00 -6.2277255143283359e-05 +0.0000000000000000e+00 +9.9999999806077200e-01
1.2000000000000000e+00 +8.1529592367065664e+00 +0.0000000000000000e+00 +1.1999999990768633e+00 -6.7938825144212681e-05 +0.0000000000000000e+00 +9.9999999769215830e-01
1.3000000000000000e+00 +8.1529521597455314e+00 +0.0000000000000000e+00 +1.2999999988263129e+00 -7.3600395624711201e-05 +0.0000000000000000e+00 +9.9999999729149114e-01
1.4000000000000001e+00 +8.1529445166274233e+00 +0.0000000000000000e+00 +1.3999999985340932e+00 -7.9261966630761490e-05 +0.0000000000000000e+00 +9.9999999685877061e-01
1.5000000000000002e+00 +8.1529363073521868e+00 +0.0000000000000000e+00 +1.4999999981969987e+00 -8.4923538204716173e-05 +0.0000000000000000e+00 +9.9999999639399662e-01
1.6000000000000003e+00 +8.1529275319197616e+00 +0.0000000000000000e+00 +1.5999999978118240e+00 -9.0585110385297908e-05 +0.0000000000000000e+00 +9.9999999589716915e-01
1.7000000000000004e+00 +8.1529181903300874e+00 +0.0000000000000000e+00 +1.6999999973753639e+00 -9.6246683207599489e-05 +0.0000000000000000e+00 +9.9999999536828821e-01
1.8000000000000005e+00 +8.1529082825830983e+00 +0.0000000000000000e+00 +1.7999999968844131e+00 -1.0190825670308383e-04 +0.0000000000000000e+00 +9.9999999480735380e-01
1.9000000000000006e+00 +8.1528978086787234e+00 +0.0000000000000000e+00 +1.8999999963357663e+00 -1.0756983089958400e-04 +0.0000000000000000e+00 +9.9999999421436592e-01
2.0000000000000004e+00 +8.1528867686168933e+00 +0.0000000000000000e+00 +1.9999999957262180e+00 -1.1323140582130335e-04 +0.0000000000000000e+00 +9.9999999358932457e-01
2.1000000000000005e+00 +8.1528751623975335e+00 +0.0000000000000000e+00 +2.0999999950525630e+00 -1.1889298148888150e-04 +0.0000000000000000e+00 +9.9999999293222963e-01
2.2000000000000006e+00 +8.1528629900205694e+00 +0.0000000000000000e+00 +2.1999999943115958e+00 -1.2455455792012064e-04 +0.0000000000000000e+00 +9.9999999224308123e-01
2.3000000000000007e+00 +8.1528502514859227e+00 +0.0000000000000000e+00 +2.2999999935001108e+00 -1.3021613513071169e-04 +0.0000000000000000e+00 +9.9999999152187924e-01
2.4000000000000008e+00 +8.1528369467935153e+00 +0.0000000000000000e+00 +2.3999999926149029e+00 -1.3587771313430041e-04 +0.0000000000000000e+00 +9.9999999076862367e-01
2.5000000000000009e+00 +8.1528230759432674e+00 +0.0000000000000000e+00 +2.4999999916527669e+00 -1.4153929194248737e-04 +0.0000000000000000e+00 +9.9999998998331452e-01
2.6000000000000010e+00 +8.1528086389350989e+00 +0.0000000000000000e+00 +2.5999999906104971e+00 -1.4720087156482796e-04 +0.0000000000000000e+00 +9.9999998916595179e-01
2.7000000000000011e+00 +8.1527936357689264e+00 +0.0000000000000000e+00 +2.6999999894848887e+00 -1.5286245200883241e-04 +0.0000000000000000e+00 +9.9999998831653547e-01
2.8000000000000012e+00 +8.1527780664446681e+00 +0.0000000000000000e+00 +2.7999999882727358e+00 -1.5852403327996586e-04 +0.0000000000000000e+00 +9.9999998743506546e-01
2.9000000000000012e+00 +8.1527619309622423e+00 +0.0000000000000000e+00 +2.8999999869708333e+00 -1.6418561538164832e-04 +0.0000000000000000e+00 +9.9999998652154187e-01
3.0000000000000013e+00 +8.1527452293215639e+00 +0.0000000000000000e+00 +2.9999999855759758e+00 -1.6984719831525472e-04 +0.0000000000000000e+00 +9.9999998557596459e-01
3.1000000000000014e+00 +8.1527279615225510e+00 +0.0000000000000000e+00 +3.0999999840849579e+00 -1.7550878208011489e-04 +0.0000000000000000e+00 +9.9999998459833372e-01
3.2000000000000015e+00 +8.1527101275651201e+00 +0.0000000000000000e+00 +3.1999999824945742e+00 -1.8117036667351366e-04 +0.0000000000000000e+00 +9.9999998358864917e-01
3.3000000000000016e+00 +8.1526917274491879e+00 +0.0000000000000000e+00 +3.2999999808016192e+00 -1.8683195209069075e-04 +0.0000000000000000e+00 +9.9999998254691091e-01
3.4000000000000017e+00 +8.1526727611746743e+00 +0.0000000000000000e+00 +3.3999999790028879e+00 -1.9249353832484096e-04 +0.0000000000000000e+00 +9.9999998147311886e-01
3.5000000000000018e+00 +8.1526532287414959e+00 +0.0000000000000000e+00 +3.4999999770951744e+00 -1.9815512536711403e-04 +0.0000000000000000e+00 +9.9999998036727311e-01
3.6000000000000019e+00 +8.1526331301495745e+00 +0.0000000000000000e+00 +3.5999999750752738e+00 -2.0381671320661473e-04 +0.0000000000000000e+00 +9.9999997922937367e-01
3.7000000000000020e+00 +8.1526124653988283e+00 +0.0000000000000000e+00 +3.6999999729399806e+00 -2.0947830183040290e-04 +0.0000000000000000e+00 +9.9999997805942042e-01
3.8000000000000020e+00 +8.1525912344891811e+00 +0.0000000000000000e+00 +3.7999999706860894e+00 -2.1513989122349346e-04 +0.0000000000000000e+00 +9.9999997685741349e-01
3.9000000000000021e+00 +8.1525694374205582e+00 +0.0000000000000000e+00 +3.8999999683103947e+00 -2.2080148136885639e-04 +0.0000000000000000e+00 +9.9999997562335274e-01
4.0000000000000018e+00 +8.1525470741928832e+00 +0.0000000000000000e+00 +3.9999999658096916e+00 -2.2646307224741681e-04 +0.0000000000000000e+00 +9.9999997435723831e-01
4.1000000000000014e+00 +8.1525241448060850e+00 +0.0000000000000000e+00 +4.0999999631807738e+00 -2.3212466383854666e-04 +0.0000000000000000e+00 +9.9999997305907007e-01
4.2000000000000011e+00 +8.1525006492600927e+00 +0.0000000000000000e+00 +4.1999999604204366e+00 -2.3778625612547389e-04 +0.0000000000000000e+00 +9.9999997172884802e-01
4.3000000000000007e+00 +8.1524765875548368e+00 +0.0000000000000000e+00 +4.2999999575254746e+00 -2.4344784910069130e-04 +0.0000000000000000e+00 +9.9999997036657218e-01
4.4000000000000004e+00 +8.1524519596902500e+00 +0.0000000000000000e+00 +4.3999999544926824e+00 -2.4910944276644830e-04 +0.0000000000000000e+00 +9.9999996897224253e-01
4.5000000000000000e+00 +8.1524267656662612e+00 +0.0000000000000000e+00 +4.4999999513188547e+00 -2.5477103713475078e-04 +0.0000000000000000e+00 +9.9999996754585907e-01
4.5999999999999996e+00 +8.1524010054827993e+00 +0.0000000000000000e+00 +4.5999999480007858e+00 -2.6043263222736085e-04 +0.0000000000000000e+00 +9.9999996608742170e-01
4.6999999999999993e+00 +8.1523746791397897e+00 +0.0000000000000000e+00 +4.6999999445352705e+00 -2.6609422807579689e-04 +0.0000000000000000e+00 +9.9999996459693052e-01
4.7999999999999989e+00 +8.1523477866371561e+00 +0.0000000000000000e+00 +4.7999999409191032e+00 -2.7175582472133315e-04 +0.0000000000000000e+00 +9.9999996307438543e-01
4.8999999999999986e+00 +8.1523203279748166e+00 +0.0000000000000000e+00 +4.8999999371490786e+00 -2.7741742221499990e-04 +0.0000000000000000e+00 +9.9999996151978643e-01
4.9999999999999982e+00 +8.1522923031526826e+00 +0.0000000000000000e+00 +4.9999999332219920e+00 -2.8307902061758304e-04 +0.0000000000000000e+00 +9.9999995993313351e-01
5.0999999999999979e+00 +8.1522637121706598e+00 +0.0000000000000000e+00 +5.0999999291346372e+00 -2.8874061999962396e-04 +0.0000000000000000e+00 +9.9999995831442656e-01
5.1999999999999975e+00 +8.1522345550286470e+00 +0.0000000000000000e+00 +5.1999999248838087e+00 -2.9440222044141949e-04 +0.0000000000000000e+00 +9.9999995666366559e-01
5.2999999999999972e+00 +8.1522048317265341e+00 +0.0000000000000000e+00 +5.2999999204663020e+00 -3.0006382203302161e-04 +0.0000000000000000e+00 +9.9999995498085059e-01
5.3999999999999968e+00 +8.1521745422642002e+00 +0.0000000000000000e+00 +5.3999999158789107e+00 -3.0572542487423726e-04 +0.0000000000000000e+00 +9.9999995326598146e-01
5.4999999999999964e+00 +8.1521436866415140e+00 +0.0000000000000000e+00 +5.4999999111184295e+00 -3.1138702907462817e-04 +0.0000000000000000e+00 +9.9999995151905818e-01
5.5999999999999961e+00 +8.1521122648583351e+00 +0.0000000000000000e+00 +5.5999999061816537e+00 -3.1704863475351061e-04 +0.0000000000000000e+00 +9.9999994974008066e-01
5.6999999999999957e+00 +8.1520802769145089e+00 +0.0000000000000000e+00 +5.6999999010653770e+00 -3.2271024203995522e-04 +0.0000000000000000e+00 +9.9999994792904878e-01
5.7999999999999954e+00 +8.1520477228098684e+00 +0.0000000000000000e+00 +5.7999998957663950e+00 -3.2837185107278683e-04 +0.0000000000000000e+00 +9.9999994608596254e-01
5.8999999999999950e+00 +8.1520146025442308e+00 +0.0000000000000000e+00 +5.8999998902815012e+00 -3.3403346200058408e-04 +0.0000000000000000e+00 +9.9999994421082183e-01
5.9999999999999947e+00 +8.1519809161173988e+00 +0.0000000000000000e+00 +5.9999998846074911e+00 -3.3969507498167928e-04 +0.0000000000000000e+00 +9.9999994230362665e-01
6.0999999999999943e+00 +8.1519466635291593e+00 +0.0000000000000000e+00 +6.0999998787411585e+00 -3.4535669018322579e-04 +0.0000000000000000e+00 +9.9999994036437678e-01
6.1999999999999940e+00 +8.1519118447792813e+00 +0.0000000000000000e+00 +6.1999998726792978e+00 -3.5101830777094044e-04 +0.0000000000000000e+00 +9.9999993839307222e-01
6.2999999999999936e+00 +8.1518764598675197e+00 +0.0000000000000000e+00 +6.2999998664187045e+00 -3.5667992789884656e-04 +0.0000000000000000e+00 +9.9999993638971285e-01
6.3999999999999932e+00 +8.1518405087936117e+00 +0.0000000000000000e+00 +6.3999998599561723e+00 -3.6234155070834136e-04 +0.0000000000000000e+00 +9.9999993435429857e-01
6.4999999999999929e+00 +8.1518039915572835e+00 +0.0000000000000000e+00 +6.4999998532884957e+00 -3.6800317632819585e-04 +0.0000000000000000e+00 +9.9999993228682926e-01
6.5999999999999925e+00 +8.1517669081582476e+00 +0.0000000000000000e+00 +6.5999998464124694e+00 -3.7366480487455492e-04 +0.0000000000000000e+00 +9.9999993018730482e-01
6.6999999999999922e+00 +8.1517292585962071e+00 +0.0000000000000000e+00 +6.6999998393248879e+00 -3.7932643645093738e-04 +0.0000000000000000e+00 +9.9999992805572513e-01
6.7999999999999918e+00 +8.1516910428708531e+00 +0.0000000000000000e+00 +6.7999998320225457e+00 -3.8498807114823580e-04 +0.0000000000000000e+00 +9.9999992589209019e-01
6.8999999999999915e+00 +8.1516522609818711e+00 +0.0000000000000000e+00 +6.8999998245022374e+00 -3.9064970904471668e-04 +0.0000000000000000e+00 +9.9999992369639989e-01
6.9999999999999911e+00 +8.1516129129289361e+00 +0.0000000000000000e+00 +6.9999998167607576e+00 -3.9631135020602032e-04 +0.0000000000000000e+00 +9.9999992146865413e-01
7.0999999999999908e+00 +8.1515729987117194e+00 +0.0000000000000000e+00 +7.0999998087948999e+00 -4.0197299468516085e-04 +0.0000000000000000e+00 +9.9999991920885289e-01
7.1999999999999904e+00 +8.1515325183298870e+00 +0.0000000000000000e+00 +7.1999998006014598e+00 -4.0763464252252627e-04 +0.0000000000000000e+00 +9.9999991691699608e-01
7.2999999999999901e+00 +8.1514914717831015e+00 +0.0000000000000000e+00 +7.2999997921772311e+00 -4.1329629374587843e-04 +0.0000000000000000e+00 +9.9999991459308357e-01
7.3999999999999897e+00 +8.1514498590710236e+00 +0.0000000000000000e+00 +7.3999997835190081e+00 -4.1895794837035303e-04 +0.0000000000000000e+00 +9.9999991223711537e-01
7.4999999999999893e+00 +8.1514076801933140e+00 +0.0000000000000000e+00 +7.4999997746235856e+00 -4.2461960639845960e-04 +0.0000000000000000e+00 +9.9999990984909137e-01
7.5999999999999890e+00 +8.1513649351496316e+00 +0.0000000000000000e+00 +7.5999997654877580e+00 -4.3028126782008162e-04 +0.0000000000000000e+00 +9.9999990742901146e-01
7.6999999999999886e+00 +8.1513216239396371e+00 +0.0000000000000000e+00 +7.6999997561083191e+00 -4.3594293261247643e-04 +0.0000000000000000e+00 +9.9999990497687574e-01
7.7999999999999883e+00 +8.1512777465629966e+00 +0.0000000000000000e+00 +7.7999997464820643e+00 -4.4160460074027524e-04 +0.0000000000000000e+00 +9.9999990249268400e-01
7.8999999999999879e+00 +8.1512333030193798e+00 +0.0000000000000000e+00 +7.8999997366057872e+00 -4.4726627215548325e-04 +0.0000000000000000e+00 +9.9999989997643635e-01
7.9999999999999876e+00 +8.1511882933084578e+00 +0.0000000000000000e+00 +7.9999997264762825e+00 -4.5292794679747955e-04 +0.0000000000000000e+00 +9.9999989742813267e-01
8.0999999999999872e+00 +8.1511427174299147e+00 +0.0000000000000000e+00 +8.0999997160903447e+00 -4.5858962459367113e-04 +0.0000000000000000e+00 +9.9999989484777296e-01
8.1999999999999869e+00 +8.1510965753834377e+00 +0.0000000000000000e+00 +8.1999997054447675e+00 -4.6425130546668580e-04 +0.0000000000000000e+00 +9.9999989223535724e-01
8.2999999999999865e+00 +8.1510498671687213e+00 +0.0000000000000000e+00 +8.2999996945363463e+00 -4.6991298934156571e-04 +0.0000000000000000e+00 +9.9999988959088548e-01
8.3999999999999861e+00 +8.1510025927854706e+00 +0.0000000000000000e+00 +8.3999996833618749e+00 -4.7557467614642182e-04 +0.0000000000000000e+00 +9.9999988691435771e-01
8.4999999999999858e+00 +8.1509547522333961e+00 +0.0000000000000000e+00 +8.4999996719181485e+00 -4.8123636581243461e-04 +0.0000000000000000e+00 +9.9999988420577379e-01
8.5999999999999854e+00 +8.1509063455122153e+00 +0.0000000000000000e+00 +8.5999996602019610e+00 -4.8689805827385475e-04 +0.0000000000000000e+00 +9.9999988146513374e-01
8.6999999999999851e+00 +8.1508573726216511e+00 +0.0000000000000000e+00 +8.6999996482101061e+00 -4.9255975346800386e-04 +0.0000000000000000e+00 +9.9999987869243767e-01
8.7999999999999847e+00 +8.1508078335614336e+00 +0.0000000000000000e+00 +8.7999996359393791e+00 -4.9822145133527544e-04 +0.0000000000000000e+00 +9.9999987588768546e-01
8.8999999999999844e+00 +8.1507577283312980e+00 +0.0000000000000000e+00 +8.8999996233865737e+00 -5.0388315181913517e-04 +0.0000000000000000e+00 +9.9999987305087701e-01
8.9999999999999840e+00 +8.1507070569309850e+00 +0.0000000000000000e+00 +8.9999996105484854e+00 -5.0954485486612224e-04 +0.0000000000000000e+00 +9.9999987018201242e-01
9.0999999999999837e+00 +8.1506558193602405e+00 +0.0000000000000000e+00 +9.0999995974219079e+00 -5.1520656042584986e-04 +0.0000000000000000e+00 +9.9999986728109169e-01
9.1999999999999833e+00 +8.1506040156188178e+00 +0.0000000000000000e+00 +9.1999995840036348e+00 -5.2086826845100618e-04 +0.0000000000000000e+00 +9.9999986434811472e-01
9.2999999999999829e+00 +8.1505516457064697e+00 +0.0000000000000000e+00 +9.2999995702904616e+00 -5.2652997889735497e-04 +0.0000000000000000e+00 +9.9999986138308150e-01
9.3999999999999826e+00 +8.1504987096229584e+00 +0.0000000000000000e+00 +9.3999995562791820e+00 -5.3219169172373688e-04 +0.0000000000000000e+00 +9.9999985838599204e-01
9.4999999999999822e+00 +8.1504452073680476e+00 +0.0000000000000000e+00 +9.4999995419665915e+00 -5.3785340689207009e-04 +0.0000000000000000e+00 +9.9999985535684632e-01
9.5999999999999819e+00 +8.1503911389415045e+00 +0.0000000000000000e+00 +9.5999995273494836e+00 -5.4351512436735111e-04 +0.0000000000000000e+00 +9.9999985229564436e-01
9.6999999999999815e+00 +8.1503365043430982e+00 +0.0000000000000000e+00 +9.6999995124246521e+00 -5.4917684411765594e-04 +0.0000000000000000e+00 +9.9999984920238605e-01
9.7999999999999812e+00 +8.1502813035726049e+00 +0.0000000000000000e+00 +9.7999994971888924e+00 -5.5483856611414101e-04 +0.0000000000000000e+00 +9.9999984607707137e-01
9.8999999999999808e+00 +8.1502255366298009e+00 +0.0000000000000000e+00 +9.8999994816389982e+00 -5.6050029033104405e-04 +0.0000000000000000e+00 +9.9999984291970034e-01
9.9999999999999805e+00 +8.1501692035144657e+00 +0.0000000000000000e+00 +9.9999994657717632e+00 -5.6616201674568518e-04 +0.0000000000000000e+00 +9.9999983973027295e-01
1.0099999999999980e+01 +8.1501123042263792e+00 +0.0000000000000000e+00 +1.0099999449583983e+01 -5.7182374533867831e-04 +0.0000000000000000e+00 +9.9999983650878921e-01
1.0199999999999980e+01 +8.1500548387653247e+00 +0.0000000000000000e+00 +1.0199999433072453e+01 -5.7748547609624628e-04 +0.0000000000000000e+00 +9.9999983325524899e-01
1.0299999999999979e+01 +8.1499968071310871e+00 +0.0000000000000000e+00 +1.0299999416233964e+01 -5.8314720901253450e-04 +0.0000000000000000e+00 +9.9999982996965231e-01
1.0399999999999979e+01 +8.1499382093234498e+00 +0.0000000000000000e+00 +1.0399999399065313e+01 -5.8880894408982099e-04 +0.0000000000000000e+00 +9.9999982665199916e-01
1.0499999999999979e+01 +8.1498790453421961e+00 +0.0000000000000000e+00 +1.0499999381563295e+01 -5.9447068133851528e-04 +0.0000000000000000e+00 +9.9999982330228943e-01
1.0599999999999978e+01 +8.1498193151871092e+00 +0.0000000000000000e+00 +1.0599999363724704e+01 -6.0013242077715777e-04 +0.0000000000000000e+00 +9.9999981992052311e-01
1.0699999999999978e+01 +8.1497590188579672e+00 +0.0000000000000000e+00 +1.0699999345546333e+01 -6.0579416243241842e-04 +0.0000000000000000e+00 +9.9999981650670011e-01
1.0799999999999978e+01 +8.1496981563545479e+00 +0.0000000000000000e+00 +1.0799999327024976e+01 -6.1145590633909644e-04 +0.0000000000000000e+00 +9.9999981306082042e-01
1.0899999999999977e+01 +8.1496367276766239e+00 +0.0000000000000000e+00 +1.0899999308157428e+01 -6.1711765254011887e-04 +0.0000000000000000e+00 +9.9999980958288393e-01
1.0999999999999977e+01 +8.1495747328239627e+00 +0.0000000000000000e+00 +1.0999999288940483e+01 -6.2277940108653991e-04 +0.0000000000000000e+00 +9.9999980607289063e-01
1.1099999999999977e+01 +8.1495121717963261e+00 +0.0000000000000000e+00 +1.1099999269370937e+01 -6.2844115203753966e-04 +0.0000000000000000e+00 +9.9999980253084031e-01
1.1199999999999976e+01 +8.1494490445934726e+00 +0.0000000000000000e+00 +1.1199999249445582e+01 -6.3410290546042343e-04 +0.0000000000000000e+00 +9.9999979895673308e-01
1.1299999999999976e+01 +8.1493853512151500e+00 +0.0000000000000000e+00 +1.1299999229161214e+01 -6.3976466143062037e-04 +0.0000000000000000e+00 +9.9999979535056871e-01
1.1399999999999975e+01 +8.1493210916610987e+00 +0.0000000000000000e+00 +1.1399999208514627e+01 -6.4542642003168266e-04 +0.0000000000000000e+00 +9.9999979171234710e-01
1.1499999999999975e+01 +8.1492562659310526e+00 +0.0000000000000000e+00 +1.1499999187502615e+01 -6.5108818135528449e-04 +0.0000000000000000e+00 +9.9999978804206824e-01
1.1599999999999975e+01 +8.1491908740247343e+00 +0.0000000000000000e+00 +1.1599999166121972e+01 -6.5674994550122070e-04 +0.0000000000000000e+00 +9.9999978433973191e-01
1.1699999999999974e+01 +8.1491249159418544e+00 +0.0000000000000000e+00 +1.1699999144369492e+01 -6.6241171257740573e-04 +0.0000000000000000e+00 +9.9999978060533812e-01
1.1799999999999974e+01 +8.1490583916821162e+00 +0.0000000000000000e+00 +1.1799999122241971e+01 -6.6807348269987252e-04 +0.0000000000000000e+00 +9.9999977683888663e-01
