# trajectory
# s[mm] rx[mm] ry[mm] rz[mm] px[rad] py[rad] pz[rad]
0.0000000000000000e+00 +8.1529999999999987e+00 +0.0000000000000000e+00 +0.0000000000000000e+00 +0.0000000000000000e+00 +0.0000000000000000e+00 +1.0000000000000000e+00
1.0000000000000001e-01 +8.1529997166646595e+00 +0.0000000000000000e+00 +9.9999999999464809e-02 -5.6667058872209360e-06 +0.0000000000000000e+00 +9.9999999998394418e-01
2.0000000000000001e-01 +8.1529988666589936e+00 +0.0000000000000000e+00 +1.9999999999571844e-01 -1.1333406562043576e-05 +0.0000000000000000e+00 +9.9999999993577693e-01
3.0000000000000004e-01 +8.1529974499835145e+00 +0.0000000000000000e+00 +2.9999999998554983e-01 -1.7000102204600496e-05 +0.0000000000000000e+00 +9.9999999985549826e-01
4.0000000000000002e-01 +8.1529954666387159e+00 +0.0000000000000000e+00 +3.9999999996574775e-01 -2.2666792985550606e-05 +0.0000000000000000e+00 +9.9999999974310827e-01
5.0000000000000000e-01 +8.1529929166250756e+00 +0.0000000000000000e+00 +4.9999999993310112e-01 -2.8333479066079159e-05 +0.0000000000000000e+00 +9.9999999959860697e-01
5.9999999999999998e-01 +8.1529897999430556e+00 +0.0000000000000000e+00 +5.9999999988439878e-01 -3.4000160597897759e-05 +0.0000000000000000e+00 +9.9999999942199458e-01
6.9999999999999996e-01 +8.1529861165931035e+00 +0.0000000000000000e+00 +6.9999999981642969e-01 -3.9666837723244339e-05 +0.0000000000000000e+00 +9.9999999921327098e-01
7.9999999999999993e-01 +8.1529818665756526e+00 +0.0000000000000000e+00 +7.9999999972598268e-01 -4.5333510574883148e-05 +0.0000000000000000e+00 +9.9999999897243641e-01
8.9999999999999991e-01 +8.1529770498911258e+00 +0.0000000000000000e+00 +8.9999999960984667e-01 -5.1000179276104724e-05 +0.0000000000000000e+00 +9.9999999869949086e-01
9.9999999999999989e-01 +8.1529716665399317e+00 +0.0000000000000000e+00 +9.9999999946481055e-01 -5.6666843940725859e-05 +0.0000000000000000e+00 +9.9999999839443443e-01
1.0999999999999999e+00 +8.1529657165224680e+00 +0.0000000000000000e+00 +1.0999999992876632e+00 -6.2333504673089561e-05 +0.0000000000000000e+00 +9.9999999805726714e-01
1.2000000000000000e+00 +8.1529591998391240e+00 +0.0000000000000000e+00 +1.1999999990751937e+00 -6.8000161568064997e-05 +0.0000000000000000e+00 +9.9999999768798908e-01
1.3000000000000000e+00 +8.1529521164902796e+00 +0.0000000000000000e+00 +1.2999999988241908e+00 -7.3666814711047441e-05 +0.0000000000000000e+00 +9.9999999728660027e-01
1.4000000000000001e+00 +8.1529444664763044e+00 +0.0000000000000000e+00 +1.3999999985314435e+00 -7.9333464177958204e-05 +0.0000000000000000e+00 +9.9999999685310081e-01
1.5000000000000002e+00 +8.1529362497975644e+00 +0.0000000000000000e+00 +1.4999999981937406e+00 -8.5000110035244553e-05 +0.0000000000000000e+00 +9.9999999638749071e-01
1.6000000000000003e+00 +8.1529274664544165e+00 +0.0000000000000000e+00 +1.5999999978078712e+00 -9.0666752339879633e-05 +0.0000000000000000e+00 +9.9999999588977007e-01
1.7000000000000004e+00 +8.1529181164472142e+00 +0.0000000000000000e+00 +1.6999999973706241e+00 -9.6333391139362396e-05 +0.0000000000000000e+00 +9.9999999535993889e-01
1.8000000000000005e+00 +8.1529081997763058e+00 +0.0000000000000000e+00 +1.7999999968787885e+00 -1.0200002647171746e-04 +0.0000000000000000e+00 +9.9999999479799728e-01
1.9000000000000006e+00 +8.1528977164420358e+00 +0.0000000000000000e+00 +1.8999999963291532e+00 -1.0766665836549504e-04 +0.0000000000000000e+00 +9.9999999420394536e-01
2.0000000000000004e+00 +8.1528866664447470e+00 +0.0000000000000000e+00 +1.9999999957185071e+00 -1.1333328683977080e-04 +0.0000000000000000e+00 +9.9999999357778302e-01
2.1000000000000005e+00 +8.1528750497847806e+00 +0.0000000000000000e+00 +2.0999999950436394e+00 -1.1899991190457277e-04 +0.0000000000000000e+00 +9.9999999291951047e-01
2.2000000000000006e+00 +8.1528628664624794e+00 +0.0000000000000000e+00 +2.1999999943013391e+00 -1.2466653356557839e-04 +0.0000000000000000e+00 +9.9999999222912772e-01
2.3000000000000007e+00 +8.1528501164781808e+00 +0.0000000000000000e+00 +2.2999999934883948e+00 -1.3033315182881160e-04 +0.0000000000000000e+00 +9.9999999150663477e-01
2.4000000000000008e+00 +8.1528367998322260e+00 +0.0000000000000000e+00 +2.3999999926015958e+00 -1.3599976670106988e-04 +0.0000000000000000e+00 +9.9999999075203172e-01
2.5000000000000009e+00 +8.1528229165249524e+00 +0.0000000000000000e+00 +2.4999999916377309e+00 -1.4166637818992426e-04 +0.0000000000000000e+00 +9.9999998996531858e-01
2.6000000000000010e+00 +8.1528084665566993e+00 +0.0000000000000000e+00 +2.5999999905935893e+00 -1.4733298630371933e-04 +0.0000000000000000e+00 +9.9999998914649546e-01
2.7000000000000011e+00 +8.1527934499278043e+00 +0.0000000000000000e+00 +2.6999999894659599e+00 -1.5299959105157329e-04 +0.0000000000000000e+00 +9.9999998829556247e-01
2.8000000000000012e+00 +8.1527778666386013e+00 +0.0000000000000000e+00 +2.7999999882516318e+00 -1.5866619244337795e-04 +0.0000000000000000e+00 +9.9999998741251961e-01
2.9000000000000012e+00 +8.1527617166894260e+00 +0.0000000000000000e+00 +2.8999999869473938e+00 -1.6433279048979889e-04 +0.0000000000000000e+00 +9.9999998649736688e-01
3.0000000000000013e+00 +8.1527450000806141e+00 +0.0000000000000000e+00 +2.9999999855500348e+00 -1.6999938520227532e-04 +0.0000000000000000e+00 +9.9999998555010439e-01
3.1000000000000014e+00 +8.1527277168124961e+00 +0.0000000000000000e+00 +3.0999999840563444e+00 -1.7566597659302035e-04 +0.0000000000000000e+00 +9.9999998457073214e-01
3.2000000000000015e+00 +8.1527098668854059e+00 +0.0000000000000000e+00 +3.1999999824631109e+00 -1.8133256467502091e-04 +0.0000000000000000e+00 +9.9999998355925024e-01
3.3000000000000016e+00 +8.1526914502996721e+00 +0.0000000000000000e+00 +3.2999999807671241e+00 -1.8699914946203788e-04 +0.0000000000000000e+00 +9.9999998251565880e-01
3.4000000000000017e+00 +8.1526724670556234e+00 +0.0000000000000000e+00 +3.3999999789651727e+00 -1.9266573096860621e-04 +0.0000000000000000e+00 +9.9999998143995783e-01
3.5000000000000018e+00 +8.1526529171535866e+00 +0.0000000000000000e+00 +3.4999999770540455e+00 -1.9833230921003500e-04 +0.0000000000000000e+00 +9.9999998033214732e-01
3.6000000000000019e+00 +8.1526328005938886e+00 +0.0000000000000000e+00 +3.5999999750305318e+00 -2.0399888420240755e-04 +0.0000000000000000e+00 +9.9999997919222738e-01
3.7000000000000020e+00 +8.1526121173768527e+00 +0.0000000000000000e+00 +3.6999999728914208e+00 -2.0966545596258154e-04 +0.0000000000000000e+00 +9.9999997802019802e-01
3.8000000000000020e+00 +8.1525908675028020e+00 +0.0000000000000000e+00 +3.7999999706335013e+00 -2.1533202450818914e-04 +0.0000000000000000e+00 +9.9999997681605934e-01
3.9000000000000021e+00 +8.1525690509720565e+00 +0.0000000000000000e+00 +3.8999999682535624e+00 -2.2099858985763707e-04 +0.0000000000000000e+00 +9.9999997557981135e-01
4.0000000000000018e+00 +8.1525466677849359e+00 +0.0000000000000000e+00 +3.9999999657483931e+00 -2.2666515203010685e-04 +0.0000000000000000e+00 +9.9999997431145415e-01
4.1000000000000014e+00 +8.1525237179417562e+00 +0.0000000000000000e+00 +4.0999999631147830e+00 -2.3233171104564216e-04 +0.0000000000000000e+00 +9.9999997301098775e-01
4.2000000000000011e+00 +8.1525002014428321e+00 +0.0000000000000000e+00 +4.1999999603495208e+00 -2.3799826692611007e-04 +0.0000000000000000e+00 +9.9999997167841215e-01
4.3000000000000007e+00 +8.1524761182884760e+00 +0.0000000000000000e+00 +4.2999999574493950e+00 -2.4366481969616198e-04 +0.0000000000000000e+00 +9.9999997031372745e-01
4.4000000000000004e+00 +8.1524514684789970e+00 +0.0000000000000000e+00 +4.3999999544111956e+00 -2.4933136938332112e-04 +0.0000000000000000e+00 +9.9999996891693366e-01
4.5000000000000000e+00 +8.1524262520147008e+00 +0.0000000000000000e+00 +4.4999999512317110e+00 -2.5499791601798279e-04 +0.0000000000000000e+00 +9.9999996748803088e-01
4.5999999999999996e+00 +8.1524004688958929e+00 +0.0000000000000000e+00 +4.5999999479077314e+00 -2.6066445963341436e-04 +0.0000000000000000e+00 +9.9999996602701913e-01
4.6999999999999993e+00 +8.1523741191228734e+00 +0.0000000000000000e+00 +4.6999999444360450e+00 -2.6633100026575554e-04 +0.0000000000000000e+00 +9.9999996453389850e-01
4.7999999999999989e+00 +8.1523472026959372e+00 +0.0000000000000000e+00 +4.7999999408134411e+00 -2.7199753795401841e-04 +0.0000000000000000e+00 +9.9999996300866900e-01
4.8999999999999986e+00 +8.1523197196153792e+00 +0.0000000000000000e+00 +4.8999999370367089e+00 -2.7766407274008772e-04 +0.0000000000000000e+00 +9.9999996145133063e-01
4.9999999999999982e+00 +8.1522916698814853e+00 +0.0000000000000000e+00 +4.9999999331026368e+00 -2.8333060466872100e-04 +0.0000000000000000e+00 +9.9999995986188339e-01
5.0999999999999979e+00 +8.1522630534945399e+00 +0.0000000000000000e+00 +5.0999999290080149e+00 -2.8899713378754868e-04 +0.0000000000000000e+00 +9.9999995824032739e-01
5.1999999999999975e+00 +8.1522338704548201e+00 +0.0000000000000000e+00 +5.1999999247496316e+00 -2.9466366014707440e-04 +0.0000000000000000e+00 +9.9999995658666263e-01
5.2999999999999972e+00 +8.1522041207626010e+00 +0.0000000000000000e+00 +5.2999999203242769e+00 -3.0033018380067500e-04 +0.0000000000000000e+00 +9.9999995490088922e-01
5.3999999999999968e+00 +8.1521738044181493e+00 +0.0000000000000000e+00 +5.3999999157287393e+00 -3.0599670480460097e-04 +0.0000000000000000e+00 +9.9999995318300716e-01
5.4999999999999964e+00 +8.1521429214217260e+00 +0.0000000000000000e+00 +5.4999999109598079e+00 -3.1166322321797638e-04 +0.0000000000000000e+00 +9.9999995143301645e-01
5.5999999999999961e+00 +8.1521114717735887e+00 +0.0000000000000000e+00 +5.5999999060142720e+00 -3.1732973910279935e-04 +0.0000000000000000e+00 +9.9999994965091710e-01
5.6999999999999957e+00 +8.1520794554739879e+00 +0.0000000000000000e+00 +5.6999999008889208e+00 -3.2299625252394195e-04 +0.0000000000000000e+00 +9.9999994783670909e-01
5.7999999999999954e+00 +8.1520468725231652e+00 +0.0000000000000000e+00 +5.7999998955805436e+00 -3.2866276354915074e-04 +0.0000000000000000e+00 +9.9999994599039255e-01
5.8999999999999950e+00 +8.1520137229213567e+00 +0.0000000000000000e+00 +5.8999998900859296e+00 -3.3432927224904678e-04 +0.0000000000000000e+00 +9.9999994411196735e-01
5.9999999999999947e+00 +8.1519800066687917e+00 +0.0000000000000000e+00 +5.9999998844018672e+00 -3.3999577869712593e-04 +0.0000000000000000e+00 +9.9999994220143362e-01
6.0999999999999943e+00 +8.1519457237656905e+00 +0.0000000000000000e+00 +6.0999998785251464e+00 -3.4566228296984547e-04 +0.0000000000000000e+00 +9.9999994025879135e-01
6.1999999999999940e+00 +8.1519108742122679e+00 +0.0000000000000000e+00 +6.1999998724525556e+00 -3.5132878514757519e-04 +0.0000000000000000e+00 +9.9999993828404055e-01
6.2999999999999936e+00 +8.1518754580087283e+00 +0.0000000000000000e+00 +6.2999998661808840e+00 -3.5699528531554802e-04 +0.0000000000000000e+00 +9.9999993627718120e-01
6.3999999999999932e+00 +8.1518394751552687e+00 +0.0000000000000000e+00 +6.3999998597069210e+00 -3.6266178356394660e-04 +0.0000000000000000e+00 +9.9999993423821332e-01
6.4999999999999929e+00 +8.1518029256520759e+00 +0.0000000000000000e+00 +6.4999998530274556e+00 -3.6832827998790327e-04 +0.0000000000000000e+00 +9.9999993216713690e-01
6.5999999999999925e+00 +8.1517658094993273e+00 +0.0000000000000000e+00 +6.5999998461392773e+00 -3.7399477468749996e-04 +0.0000000000000000e+00 +9.9999993006395194e-01
6.6999999999999922e+00 +8.1517281266971917e+00 +0.0000000000000000e+00 +6.6999998390391751e+00 -3.7966126776776835e-04 +0.0000000000000000e+00 +9.9999992792865844e-01
6.7999999999999918e+00 +8.1516898772458237e+00 +0.0000000000000000e+00 +6.7999998317239383e+00 -3.8532775933868967e-04 +0.0000000000000000e+00 +9.9999992576125629e-01
6.8999999999999915e+00 +8.1516510611453707e+00 +0.0000000000000000e+00 +6.8999998241903562e+00 -3.9099424951519483e-04 +0.0000000000000000e+00 +9.9999992356174561e-01
6.9999999999999911e+00 +8.1516116783959642e+00 +0.0000000000000000e+00 +6.9999998164352171e+00 -3.9666073841716434e-04 +0.0000000000000000e+00 +9.9999992133012627e-01
7.0999999999999908e+00 +8.1515717289977250e+00 +0.0000000000000000e+00 +7.0999998084553111e+00 -4.0232722616942825e-04 +0.0000000000000000e+00 +9.9999991906639829e-01
7.1999999999999904e+00 +8.1515312129507631e+00 +0.0000000000000000e+00 +7.1999998002474266e+00 -4.0799371290176615e-04 +0.0000000000000000e+00 +9.9999991677056166e-01
7.2999999999999901e+00 +8.1514901302551745e+00 +0.0000000000000000e+00 +7.2999997918083528e+00 -4.1366019874890725e-04 +0.0000000000000000e+00 +9.9999991444261638e-01
7.3999999999999897e+00 +8.1514484809110392e+00 +0.0000000000000000e+00 +7.3999997831348789e+00 -4.1932668385053011e-04 +0.0000000000000000e+00 +9.9999991208256234e-01
7.4999999999999893e+00 +8.1514062649184247e+00 +0.0000000000000000e+00 +7.4999997742237943e+00 -4.2499316835126276e-04 +0.0000000000000000e+00 +9.9999990969039942e-01
7.5999999999999890e+00 +8.1513634822773842e+00 +0.0000000000000000e+00 +7.5999997650718880e+00 -4.3065965240068270e-04 +0.0000000000000000e+00 +9.9999990726612764e-01
7.6999999999999886e+00 +8.1513201329879550e+00 +0.0000000000000000e+00 +7.6999997556759494e+00 -4.3632613615331666e-04 +0.0000000000000000e+00 +9.9999990480974699e-01
7.7999999999999883e+00 +8.1512762170501585e+00 +0.0000000000000000e+00 +7.7999997460327668e+00 -4.4199261976864075e-04 +0.0000000000000000e+00 +9.9999990232125735e-01
7.8999999999999879e+00 +8.1512317344640000e+00 +0.0000000000000000e+00 +7.8999997361391303e+00 -4.4765910341108031e-04 +0.0000000000000000e+00 +9.9999989980065862e-01
7.9999999999999876e+00 +8.1511866852294688e+00 +0.0000000000000000e+00 +7.9999997259918283e+00 -4.5332558725000982e-04 +0.0000000000000000e+00 +9.9999989724795080e-01
8.0999999999999872e+00 +8.1511410693465365e+00 +0.0000000000000000e+00 +8.0999997155876500e+00 -4.5899207145907989e-04 +0.0000000000000000e+00 +9.9999989466313377e-01
8.1999999999999869e+00 +8.1510948868151587e+00 +0.0000000000000000e+00 +8.1999997049233855e+00 -4.6465855620881382e-04 +0.0000000000000000e+00 +9.9999989204620743e-01
8.2999999999999865e+00 +8.1510481376352715e+00 +0.0000000000000000e+00 +8.2999996939958223e+00 -4.7032504165920420e-04 +0.0000000000000000e+00 +9.9999988939717166e-01
8.3999999999999861e+00 +8.1510008218067984e+00 +0.0000000000000000e+00 +8.3999996828017505e+00 -4.7599152795903938e-04 +0.0000000000000000e+00 +9.9999988671602646e-01
8.4999999999999858e+00 +8.1509529393296472e+00 +0.0000000000000000e+00 +8.4999996713379584e+00 -4.8165801524590332e-04 +0.0000000000000000e+00 +9.9999988400277162e-01
8.5999999999999854e+00 +8.1509044902037129e+00 +0.0000000000000000e+00 +8.5999996596012345e+00 -4.8732450364617535e-04 +0.0000000000000000e+00 +9.9999988125740724e-01
8.6999999999999851e+00 +8.1508554744288784e+00 +0.0000000000000000e+00 +8.6999996475883687e+00 -4.9299099327502962e-04 +0.0000000000000000e+00 +9.9999987847993310e-01
8.7999999999999847e+00 +8.1508058920050139e+00 +0.0000000000000000e+00 +8.7999996352961496e+00 -4.9865748423643481e-04 +0.0000000000000000e+00 +9.9999987567034920e-01
8.8999999999999844e+00 +8.1507557429319828e+00 +0.0000000000000000e+00 +8.8999996227213671e+00 -5.0432397662315408e-04 +0.0000000000000000e+00 +9.9999987282865543e-01
8.9999999999999840e+00 +8.1507050272096393e+00 +0.0000000000000000e+00 +8.9999996098608097e+00 -5.0999047051674426e-04 +0.0000000000000000e+00 +9.9999986995485179e-01
9.0999999999999837e+00 +8.1506537448378271e+00 +0.0000000000000000e+00 +9.0999995967112675e+00 -5.1565696598755587e-04 +0.0000000000000000e+00 +9.9999986704893817e-01
9.1999999999999833e+00 +8.1506018958163864e+00 +0.0000000000000000e+00 +9.1999995832695269e+00 -5.2132346309473256e-04 +0.0000000000000000e+00 +9.9999986411091446e-01
9.2999999999999829e+00 +8.1505494801451519e+00 +0.0000000000000000e+00 +9.2999995695323801e+00 -5.2698996188621061e-04 +0.0000000000000000e+00 +9.9999986114078065e-01
9.3999999999999826e+00 +8.1504964978239514e+00 +0.0000000000000000e+00 +9.3999995554966134e+00 -5.3265646239871877e-04 +0.0000000000000000e+00 +9.9999985813853676e-01
9.4999999999999822e+00 +8.1504429488526124e+00 +0.0000000000000000e+00 +9.4999995411590170e+00 -5.3832296465777774e-04 +0.0000000000000000e+00 +9.9999985510418266e-01
9.5999999999999819e+00 +8.1503888332309611e+00 +0.0000000000000000e+00 +9.5999995265163793e+00 -5.4398946867769977e-04 +0.0000000000000000e+00 +9.9999985203771835e-01
9.6999999999999815e+00 +8.1503341509588196e+00 +0.0000000000000000e+00 +9.6999995115654905e+00 -5.4965597446158827e-04 +0.0000000000000000e+00 +9.9999984893914373e-01
9.7999999999999812e+00 +8.1502789020360105e+00 +0.0000000000000000e+00 +9.7999994963031387e+00 -5.5532248200133708e-04 +0.0000000000000000e+00 +9.9999984580845891e-01
9.8999999999999808e+00 +8.1502230864623613e+00 +0.0000000000000000e+00 +9.8999994807261125e+00 -5.6098899127763062e-04 +0.0000000000000000e+00 +9.9999984264566377e-01
9.9999999999999805e+00 +8.1501667042376980e+00 +0.0000000000000000e+00 +9.9999994648312018e+00 -5.6665550225994273e-04 +0.0000000000000000e+00 +9.9999983945075832e-01
1.0099999999999980e+01 +8.1501097553618536e+00 +0.0000000000000000e+00 +1.0099999448615195e+01 -5.7232201490715515e-04 +0.0000000000000000e+00 +9.9999983622374256e-01
1.0199999999999980e+01 +8.1500522398346629e+00 +0.0000000000000000e+00 +1.0199999432074881e+01 -5.7798852917435894e-04 +0.0000000000000000e+00 +9.9999983296461648e-01
1.0299999999999979e+01 +8.1499941576559660e+00 +0.0000000000000000e+00 +1.0299999415207049e+01 -5.8365504501965660e-04 +0.0000000000000000e+00 +9.9999982967338008e-01
1.0399999999999979e+01 +8.1499355088256067e+00 +0.0000000000000000e+00 +1.0399999398008488e+01 -5.8932156240478037e-04 +0.0000000000000000e+00 +9.9999982635003337e-01
1.0499999999999979e+01 +8.1498762933434339e+00 +0.0000000000000000e+00 +1.0499999380475986e+01 -5.9498808129509215e-04 +0.0000000000000000e+00 +9.9999982299457635e-01
1.0599999999999978e+01 +8.1498165112092984e+00 +0.0000000000000000e+00 +1.0599999362606333e+01 -6.0065460165958299e-04 +0.0000000000000000e+00 +9.9999981960700890e-01
1.0699999999999978e+01 +8.1497561624230546e+00 +0.0000000000000000e+00 +1.0699999344396318e+01 -6.0632112347087344e-04 +0.0000000000000000e+00 +9.9999981618733114e-01
1.0799999999999978e+01 +8.1496952469845567e+00 +0.0000000000000000e+00 +1.0799999325842728e+01 -6.1198764670521307e-04 +0.0000000000000000e+00 +9.9999981273554306e-01
1.0899999999999977e+01 +8.1496337648936663e+00 +0.0000000000000000e+00 +1.0899999306942355e+01 -6.1765417134248038e-04 +0.0000000000000000e+00 +9.9999980925164456e-01
1.0999999999999977e+01 +8.1495717161502430e+00 +0.0000000000000000e+00 +1.0999999287691987e+01 -6.2332069736618272e-04 +0.0000000000000000e+00 +9.9999980573563574e-01
1.1099999999999977e+01 +8.1495091007541482e+00 +0.0000000000000000e+00 +1.1099999268088412e+01 -6.2898722476345602e-04 +0.0000000000000000e+00 +9.9999980218751650e-01
1.1199999999999976e+01 +8.1494459187052453e+00 +0.0000000000000000e+00 +1.1199999248128419e+01 -6.3465375352506461e-04 +0.0000000000000000e+00 +9.9999979860728683e-01
1.1299999999999976e+01 +8.1493821700033973e+00 +0.0000000000000000e+00 +1.1299999227808799e+01 -6.4032028364540122e-04 +0.0000000000000000e+00 +9.9999979499494673e-01
1.1399999999999975e+01 +8.1493178546484710e+00 +0.0000000000000000e+00 +1.1399999207126339e+01 -6.4598681512248663e-04 +0.0000000000000000e+00 +9.9999979135049610e-01
1.1499999999999975e+01 +8.1492529726403280e+00 +0.0000000000000000e+00 +1.1499999186077828e+01 -6.5165334795796971e-04 +0.0000000000000000e+00 +9.9999978767393505e-01
1.1599999999999975e+01 +8.1491875239788332e+00 +0.0000000000000000e+00 +1.1599999164660055e+01 -6.5731988215712704e-04 +0.0000000000000000e+00 +9.9999978396526346e-01
1.1699999999999974e+01 +8.1491215086638498e+00 +0.0000000000000000e+00 +1.1699999142869810e+01 -6.6298641772886285e-04 +0.0000000000000000e+00 +9.9999978022448133e-01
1.1799999999999974e+01 +8.1490549266952410e+00 +0.0000000000000000e+00 +1.1799999120703882e+01 -6.6865295468570890e-04 +0.0000000000000000e+00 +9.9999977645158866e-01
