# field on trajectory
# s[mm] rx[mm] ry[mm] rz[mm] bx[T] by[T] bz[T]
0.0000000000000000e+00 +7.9199999999999999e+00 +0.0000000000000000e+00 +0.0000000000000000e+00 -2.9191187637720401e-02 -5.6665030271733496e-01 +5.6634275275400242e-03
-1.0000000000000001e-01 +7.9199997168708673e+00 +0.0000000000000000e+00 -9.9999999999465586e-02 -2.9191151457150032e-02 -5.6665018641775644e-01 +5.6634080631935702e-03
-2.0000000000000001e-01 +7.9199988674835424e+00 +0.0000000000000000e+00 -1.9999999999572471e-01 -2.9191107956519191e-02 -5.6665009249950460e-01 +5.6633889807888643e-03
-3.0000000000000004e-01 +7.9199974518381184e+00 +0.0000000000000000e+00 -2.9999999998557086e-01 -2.9191057252837650e-02 -5.6665002017206956e-01 +5.6633702291580519e-03
-4.0000000000000002e-01 +7.9199954699346691e+00 +0.0000000000000000e+00 -3.9999999996579760e-01 -2.9190999463108623e-02 -5.6664996864494532e-01 +5.6633517571330616e-03
-5.0000000000000000e-01 +7.9199929217732450e+00 +0.0000000000000000e+00 -4.9999999993319838e-01 -2.9190934704329697e-02 -5.6664993712762757e-01 +5.6633335135454930e-03
-5.9999999999999998e-01 +7.9199898073538781e+00 +0.0000000000000000e+00 -5.9999999988456676e-01 -2.9190863093493870e-02 -5.6664992482961507e-01 +5.6633154472264967e-03
-6.9999999999999996e-01 +7.9199861266765810e+00 +0.0000000000000000e+00 -6.9999999981669625e-01 -2.9190784747590588e-02 -5.6664993096041083e-01 +5.6632975070066783e-03
-7.9999999999999993e-01 +7.9199818797413473e+00 +0.0000000000000000e+00 -7.9999999972638036e-01 -2.9190699783606673e-02 -5.6664995472952040e-01 +5.6632796417159766e-03
-8.9999999999999991e-01 +7.9199770665481539e+00 +0.0000000000000000e+00 -8.9999999961041266e-01 -2.9190608318527392e-02 -5.6664999534645399e-01 +5.6632618001835524e-03
-9.9999999999999989e-01 +7.9199716870969610e+00 +0.0000000000000000e+00 -9.9999999946558660e-01 -2.9190510469337457e-02 -5.6665005202072549e-01 +5.6632439312376886e-03
-1.0999999999999999e+00 +7.9199657413877116e+00 +0.0000000000000000e+00 -1.0999999992886957e+00 -2.9190406353021999e-02 -5.6665012396185355e-01 +5.6632259837056630e-03
-1.2000000000000000e+00 +7.9199592294203338e+00 +0.0000000000000000e+00 -1.1999999990765335e+00 -2.9190296086567591e-02 -5.6665021037936125e-01 +5.6632079064136455e-03
-1.3000000000000000e+00 +7.9199521511947415e+00 +0.0000000000000000e+00 -1.2999999988258935e+00 -2.9190179786963224e-02 -5.6665031048277659e-01 +5.6631896481865876e-03
-1.4000000000000001e+00 +7.9199445067108352e+00 +0.0000000000000000e+00 -1.3999999985335692e+00 -2.9190057571201404e-02 -5.6665042348163319e-01 +5.6631711578481146e-03
-1.5000000000000002e+00 +7.9199362959685029e+00 +0.0000000000000000e+00 -1.4999999981963541e+00 -2.9189929556279040e-02 -5.6665054858546959e-01 +5.6631523842204040e-03
-1.6000000000000003e+00 +7.9199275189676186e+00 +0.0000000000000000e+00 -1.5999999978110417e+00 -2.9189795859198498e-02 -5.6665068500383065e-01 +5.6631332761240757e-03
-1.7000000000000004e+00 +7.9199181757080472e+00 +0.0000000000000000e+00 -1.6999999973744255e+00 -2.9189656596968632e-02 -5.6665083194626631e-01 +5.6631137823780998e-03
-1.8000000000000005e+00 +7.9199082661896423e+00 +0.0000000000000000e+00 -1.7999999968832991e+00 -2.9189511886605748e-02 -5.6665098862233421e-01 +5.6630938517996596e-03
-1.9000000000000006e+00 +7.9198977904122474e+00 +0.0000000000000000e+00 -1.8999999963344560e+00 -2.9189361845134675e-02 -5.6665115424159751e-01 +5.6630734332040562e-03
-2.0000000000000004e+00 +7.9198867483756974e+00 +0.0000000000000000e+00 -1.9999999957246897e+00 -2.9189206589589633e-02 -5.6665132801362639e-01 +5.6630524754045890e-03
-2.1000000000000005e+00 +7.9198751400798191e+00 +0.0000000000000000e+00 -2.0999999950507933e+00 -2.9189046363585387e-02 -5.6665150920100193e-01 +5.6630309651766108e-03
-2.2000000000000006e+00 +7.9198629655244321e+00 +0.0000000000000000e+00 -2.1999999943095605e+00 -2.9188881917024026e-02 -5.6665169727832221e-01 +5.6630090411512006e-03
-2.3000000000000007e+00 +7.9198502247093483e+00 +0.0000000000000000e+00 -2.2999999934977851e+00 -2.9188714126377937e-02 -5.6665189177318254e-01 +5.6629868799251025e-03
-2.4000000000000008e+00 +7.9198369176343748e+00 +0.0000000000000000e+00 -2.3999999926122602e+00 -2.9188543868118349e-02 -5.6665209221316815e-01 +5.6629646580972004e-03
-2.5000000000000009e+00 +7.9198230442993109e+00 +0.0000000000000000e+00 -2.4999999916497795e+00 -2.9188372018714857e-02 -5.6665229812585338e-01 +5.6629425522688685e-03
-2.6000000000000010e+00 +7.9198086047039515e+00 +0.0000000000000000e+00 -2.5999999906071363e+00 -2.9188199454635008e-02 -5.6665250903880071e-01 +5.6629207390443241e-03
-2.7000000000000011e+00 +7.9197935988480861e+00 +0.0000000000000000e+00 -2.6999999894811242e+00 -2.9188027052343791e-02 -5.6665272447955872e-01 +5.6628993950309722e-03
-2.8000000000000012e+00 +7.9197780267315006e+00 +0.0000000000000000e+00 -2.7999999882685365e+00 -2.9187855688303180e-02 -5.6665294397566024e-01 +5.6628786968397505e-03
-2.9000000000000012e+00 +7.9197618883539755e+00 +0.0000000000000000e+00 -2.8999999869661668e+00 -2.9187686238971697e-02 -5.6665316705462132e-01 +5.6628588210854841e-03
-3.0000000000000013e+00 +7.9197451837152890e+00 +0.0000000000000000e+00 -2.9999999855708084e+00 -2.9187519580803952e-02 -5.6665339324394060e-01 +5.6628399443872266e-03
-3.1000000000000014e+00 +7.9197279128152154e+00 +0.0000000000000000e+00 -3.0999999840792549e+00 -2.9187356590250114e-02 -5.6665362207109571e-01 +5.6628222433686053e-03
-3.2000000000000015e+00 +7.9197100756535264e+00 +0.0000000000000000e+00 -3.1999999824882996e+00 -2.9187198143755557e-02 -5.6665385306354454e-01 +5.6628058946581808e-03
-3.3000000000000016e+00 +7.9196916722299919e+00 +0.0000000000000000e+00 -3.2999999807947362e+00 -2.9187045117760321e-02 -5.6665408574872111e-01 +5.6627910748897831e-03
-3.4000000000000017e+00 +7.9196727025443803e+00 +0.0000000000000000e+00 -3.3999999789953579e+00 -2.9186898388698649e-02 -5.6665431965403601e-01 +5.6627779607028635e-03
-3.5000000000000018e+00 +7.9196531665964578e+00 +0.0000000000000000e+00 -3.4999999770869579e+00 -2.9186758832998559e-02 -5.6665455430687428e-01 +5.6627667287428409e-03
-3.6000000000000019e+00 +7.9196330643859918e+00 +0.0000000000000000e+00 -3.5999999750663298e+00 -2.9186627327081372e-02 -5.6665478923459367e-01 +5.6627575556614570e-03
-3.7000000000000020e+00 +7.9196123959127469e+00 +0.0000000000000000e+00 -3.6999999729302675e+00 -2.9186504747361224e-02 -5.6665502396452327e-01 +5.6627506181171107e-03
-3.8000000000000020e+00 +7.9195911611764904e+00 +0.0000000000000000e+00 -3.7999999706755636e+00 -2.9186391970244651e-02 -5.6665525802396266e-01 +5.6627460927752161e-03
-3.9000000000000021e+00 +7.9195693601769879e+00 +0.0000000000000000e+00 -3.8999999682990119e+00 -2.9186289872130022e-02 -5.6665549094017975e-01 +5.6627441563085407e-03
-4.0000000000000018e+00 +7.9195469929140083e+00 +0.0000000000000000e+00 -3.9999999657974059e+00 -2.9186199329407220e-02 -5.6665572224040950e-01 +5.6627449853975699e-03
-4.1000000000000014e+00 +7.9195240593873208e+00 +0.0000000000000000e+00 -4.0999999631675390e+00 -2.9186120884931412e-02 -5.6665595163974514e-01 +5.6627486826913917e-03
-4.2000000000000011e+00 +7.9195005595966972e+00 +0.0000000000000000e+00 -4.1999999604062044e+00 -2.9186053747449283e-02 -5.6665617960482439e-01 +5.6627550546844586e-03
-4.3000000000000007e+00 +7.9194764935419100e+00 +0.0000000000000000e+00 -4.2999999575101961e+00 -2.9185996792185472e-02 -5.6665640679016638e-01 +5.6627638338263451e-03
-4.4000000000000004e+00 +7.9194518612227327e+00 +0.0000000000000000e+00 -4.3999999544763071e+00 -2.9185948894370546e-02 -5.6665663385028198e-01 +5.6627747525596064e-03
-4.5000000000000000e+00 +7.9194266626389398e+00 +0.0000000000000000e+00 -4.4999999513013300e+00 -2.9185908929241486e-02 -5.6665686143967298e-01 +5.6627875433192306e-03
-4.5999999999999996e+00 +7.9194008977903048e+00 +0.0000000000000000e+00 -4.5999999479820595e+00 -2.9185875772042093e-02 -5.6665709021283350e-01 +5.6628019385320874e-03
-4.6999999999999993e+00 +7.9193745666765993e+00 +0.0000000000000000e+00 -4.6999999445152882e+00 -2.9185848298023457e-02 -5.6665732082424913e-01 +5.6628176706163841e-03
-4.7999999999999989e+00 +7.9193476692975935e+00 +0.0000000000000000e+00 -4.7999999408978100e+00 -2.9185825382444415e-02 -5.6665755392839745e-01 +5.6628344719811133e-03
-4.8999999999999986e+00 +7.9193202056530554e+00 +0.0000000000000000e+00 -4.8999999371264176e+00 -2.9185805900571970e-02 -5.6665779017974882e-01 +5.6628520750255052e-03
-4.9999999999999982e+00 +7.9192921757427497e+00 +0.0000000000000000e+00 -4.9999999331979046e+00 -2.9185788727681759e-02 -5.6665803023276573e-01 +5.6628702121384947e-03
-5.0999999999999979e+00 +7.9192635795664374e+00 +0.0000000000000000e+00 -5.0999999291090647e+00 -2.9185772739058521e-02 -5.6665827474190389e-01 +5.6628886156981475e-03
-5.1999999999999975e+00 +7.9192344171238753e+00 +0.0000000000000000e+00 -5.1999999248566908e+00 -2.9185756809996504e-02 -5.6665852436161135e-01 +5.6629070180711323e-03
-5.2999999999999972e+00 +7.9192046884148146e+00 +0.0000000000000000e+00 -5.2999999204375765e+00 -2.9185739815799944e-02 -5.6665877974632961e-01 +5.6629251516121665e-03
-5.3999999999999968e+00 +7.9191743934390013e+00 +0.0000000000000000e+00 -5.3999999158485146e+00 -2.9185720631783499e-02 -5.6665904155049385e-01 +5.6629427486634678e-03
-5.4999999999999964e+00 +7.9191435321961743e+00 +0.0000000000000000e+00 -5.4999999110862996e+00 -2.9185698133272719e-02 -5.6665931042853235e-01 +5.6629595415542073e-03
-5.5999999999999961e+00 +7.9191121046860653e+00 +0.0000000000000000e+00 -5.5999999061477244e+00 -2.9185671195604480e-02 -5.6665958703486730e-01 +5.6629752625999589e-03
-5.6999999999999957e+00 +7.9190801109083999e+00 +0.0000000000000000e+00 -5.6999999010295817e+00 -2.9185638694127429e-02 -5.6665987202391532e-01 +5.6629896441021598e-03
-5.7999999999999954e+00 +7.9190475508628939e+00 +0.0000000000000000e+00 -5.7999998957286651e+00 -2.9185599504202485e-02 -5.6666016605008662e-01 +5.6630024183475514e-03
-5.8999999999999950e+00 +7.9190144245492542e+00 +0.0000000000000000e+00 -5.8999998902417685e+00 -2.9185552501203173e-02 -5.6666046976778595e-01 +5.6630133176076404e-03
-5.9999999999999947e+00 +7.9189807319671788e+00 +0.0000000000000000e+00 -5.9999998845656846e+00 -2.9185496560516232e-02 -5.6666078383141338e-01 +5.6630220741381437e-03
-6.0999999999999943e+00 +7.9189464731163541e+00 +0.0000000000000000e+00 -6.0999998786972069e+00 -2.9185430882574286e-02 -5.6666110885078402e-01 +5.6630285004045534e-03
-6.1999999999999940e+00 +7.9189116479964570e+00 +0.0000000000000000e+00 -6.1999998726331285e+00 -2.9185355967952936e-02 -5.6666144525740914e-01 +5.6630327297676492e-03
-6.2999999999999936e+00 +7.9188762566071524e+00 +0.0000000000000000e+00 -6.2999998663702428e+00 -2.9185272642263258e-02 -5.6666179343825884e-01 +5.6630349758161249e-03
-6.3999999999999932e+00 +7.9188402989480933e+00 +0.0000000000000000e+00 -6.3999998599053427e+00 -2.9185181731115915e-02 -5.6666215378034945e-01 +5.6630354521417991e-03
-6.4999999999999929e+00 +7.9188037750189215e+00 +0.0000000000000000e+00 -6.4999998532352219e+00 -2.9185084060120957e-02 -5.6666252667074368e-01 +5.6630343723398898e-03
-6.5999999999999925e+00 +7.9187666848192642e+00 +0.0000000000000000e+00 -6.5999998463566731e+00 -2.9184980454887731e-02 -5.6666291249655387e-01 +5.6630319500092750e-03
-6.6999999999999922e+00 +7.9187290283487375e+00 +0.0000000000000000e+00 -6.6999998392664901e+00 -2.9184871741024739e-02 -5.6666331164494399e-01 +5.6630283987527570e-03
-6.7999999999999918e+00 +7.9186908056069445e+00 +0.0000000000000000e+00 -6.7999998319614665e+00 -2.9184758744139457e-02 -5.6666372450313107e-01 +5.6630239321773246e-03
-6.8999999999999915e+00 +7.9186520165934731e+00 +0.0000000000000000e+00 -6.8999998244383951e+00 -2.9184642289838216e-02 -5.6666415145838800e-01 +5.6630187638944188e-03
-6.9999999999999911e+00 +7.9186126613078978e+00 +0.0000000000000000e+00 -6.9999998166940687e+00 -2.9184523203726082e-02 -5.6666459289804572e-01 +5.6630131075202025e-03
-7.0999999999999908e+00 +7.9185727397497780e+00 +0.0000000000000000e+00 -7.0999998087252809e+00 -2.9184402311406673e-02 -5.6666504920949468e-01 +5.6630071766758106e-03
-7.1999999999999904e+00 +7.9185322519186601e+00 +0.0000000000000000e+00 -7.1999998005288246e+00 -2.9184280438482070e-02 -5.6666552078018773e-01 +5.6630011849876241e-03
-7.2999999999999901e+00 +7.9184911978140740e+00 +0.0000000000000000e+00 -7.2999997921014934e+00 -2.9184158410552580e-02 -5.6666600799764122e-01 +5.6629953460875290e-03
-7.3999999999999897e+00 +7.9184495774355339e+00 +0.0000000000000000e+00 -7.3999997834400801e+00 -2.9184037053216712e-02 -5.6666651124943856e-01 +5.6629898736131881e-03
-7.4999999999999893e+00 +7.9184073907825381e+00 +0.0000000000000000e+00 -7.4999997745413776e+00 -2.9183917192070970e-02 -5.6666703092323090e-01 +5.6629849812082928e-03
-7.5999999999999890e+00 +7.9183646378545687e+00 +0.0000000000000000e+00 -7.5999997654021794e+00 -2.9183799652709692e-02 -5.6666756740674029e-01 +5.6629808825228358e-03
-7.6999999999999886e+00 +7.9183213186510910e+00 +0.0000000000000000e+00 -7.6999997560192783e+00 -2.9183685260724988e-02 -5.6666812108776088e-01 +5.6629777912133705e-03
-7.7999999999999883e+00 +7.9182774331715526e+00 +0.0000000000000000e+00 -7.7999997463894681e+00 -2.9183574841706490e-02 -5.6666869235416228e-01 +5.6629759209432745e-03
-7.8999999999999879e+00 +7.9182329814153842e+00 +0.0000000000000000e+00 -7.8999997365095407e+00 -2.9183469221241317e-02 -5.6666928159389018e-01 +5.6629754853830157e-03
-7.9999999999999876e+00 +7.9181879633819987e+00 +0.0000000000000000e+00 -7.9999997263762896e+00 -2.9183369224913842e-02 -5.6666988919496941e-01 +5.6629766982104124e-03
-8.0999999999999872e+00 +7.9181423790707903e+00 +0.0000000000000000e+00 -8.0999997159865078e+00 -2.9183275497557719e-02 -5.6667051520057055e-01 +5.6629797464130072e-03
-8.1999999999999869e+00 +7.9180962284811347e+00 +0.0000000000000000e+00 -8.1999997053369889e+00 -2.9183187961004095e-02 -5.6667115827415016e-01 +5.6629847101944105e-03
-8.2999999999999865e+00 +7.9180495116123906e+00 +0.0000000000000000e+00 -8.2999996944245247e+00 -2.9183106356324921e-02 -5.6667181673419498e-01 +5.6629916430698994e-03
-8.3999999999999861e+00 +7.9180022284639024e+00 +0.0000000000000000e+00 -8.3999996832459090e+00 -2.9183030424583017e-02 -5.6667248889915045e-01 +5.6630005985652534e-03
-8.4999999999999858e+00 +7.9179543790349998e+00 +0.0000000000000000e+00 -8.4999996717979354e+00 -2.9182959906831778e-02 -5.6667317308741982e-01 +5.6630116302170616e-03
-8.5999999999999854e+00 +7.9179059633250004e+00 +0.0000000000000000e+00 -8.5999996600773958e+00 -2.9182894544114841e-02 -5.6667386761736149e-01 +5.6630247915730606e-03
-8.6999999999999851e+00 +7.9178569813332125e+00 +0.0000000000000000e+00 -8.6999996480810839e+00 -2.9182834077465754e-02 -5.6667457080728845e-01 +5.6630401361924534e-03
-8.7999999999999847e+00 +7.9178074330589343e+00 +0.0000000000000000e+00 -8.7999996358057917e+00 -2.9182778247907687e-02 -5.6667528097546627e-01 +5.6630577176462315e-03
-8.8999999999999844e+00 +7.9177573185014589e+00 +0.0000000000000000e+00 -8.8999996232483127e+00 -2.9182726796453080e-02 -5.6667599644011091e-01 +5.6630775895175067e-03
-8.9999999999999840e+00 +7.9177066376600722e+00 +0.0000000000000000e+00 -8.9999996104054407e+00 -2.9182679464103335e-02 -5.6667671551938759e-01 +5.6630998054018299e-03
-9.0999999999999837e+00 +7.9176553905340574e+00 +0.0000000000000000e+00 -9.0999995972739658e+00 -2.9182635991848480e-02 -5.6667743653140934e-01 +5.6631244189075114e-03
-9.1999999999999833e+00 +7.9176035771226960e+00 +0.0000000000000000e+00 -9.1999995838506834e+00 -2.9182596120666891e-02 -5.6667815779423447e-01 +5.6631514836559651e-03
-9.2999999999999829e+00 +7.9175511974252695e+00 +0.0000000000000000e+00 -9.2999995701323854e+00 -2.9182559591524906e-02 -5.6667887762586588e-01 +5.6631810532820053e-03
-9.3999999999999826e+00 +7.9174982514410601e+00 +0.0000000000000000e+00 -9.3999995561158638e+00 -2.9182526145376537e-02 -5.6667959434424875e-01 +5.6632131814341839e-03
-9.4999999999999822e+00 +7.9174447391693530e+00 +0.0000000000000000e+00 -9.4999995417979139e+00 -2.9182495523163147e-02 -5.6668030626726895e-01 +5.6632479217751204e-03
-9.5999999999999819e+00 +7.9173906606094393e+00 +0.0000000000000000e+00 -9.5999995271753260e+00 -2.9182467465813131e-02 -5.6668101171275220e-01 +5.6632853279818185e-03
-9.6999999999999815e+00 +7.9173360157606147e+00 +0.0000000000000000e+00 -9.6999995122448937e+00 -2.9182441714241551e-02 -5.6668170899846071e-01 +5.6633254537459925e-03
-9.7999999999999812e+00 +7.9172808046221856e+00 +0.0000000000000000e+00 -9.7999994970034106e+00 -2.9182418009349884e-02 -5.6668239644209362e-01 +5.6633683527743898e-03
-9.8999999999999808e+00 +7.9172250271934663e+00 +0.0000000000000000e+00 -9.8999994814476686e+00 -2.9182396092025598e-02 -5.6668307236128335e-01 +5.6634140787891162e-03
-9.9999999999999805e+00 +7.9171686834737836e+00 +0.0000000000000000e+00 -9.9999994655744597e+00 -2.9182375703141947e-02 -5.6668373507359582e-01 +5.6634626855279601e-03
-1.0099999999999980e+01 +7.9171117734624765e+00 +0.0000000000000000e+00 -1.0099999449380578e+01 -2.9182356607210243e-02 -5.6668438332876392e-01 +5.6635141922449957e-03
-1.0199999999999980e+01 +7.9170542971588995e+00 +0.0000000000000000e+00 -1.0199999432862816e+01 -2.9182338663352934e-02 -5.6668501760545920e-01 +5.6635684801984876e-03
-1.0299999999999979e+01 +7.9169962545624211e+00 +0.0000000000000000e+00 -1.0299999416017966e+01 -2.9182321754368492e-02 -5.6668563881462219e-01 +5.6636253961317683e-03
-1.0399999999999979e+01 +7.9169376456724212e+00 +0.0000000000000000e+00 -1.0399999398842821e+01 -2.9182305763081944e-02 -5.6668624786721900e-01 +5.6636847867708303e-03
-1.0499999999999979e+01 +7.9168784704882933e+00 +0.0000000000000000e+00 -1.0499999381334174e+01 -2.9182290572345594e-02 -5.6668684567424310e-01 +5.6637464988238545e-03
-1.0599999999999978e+01 +7.9168187290094423e+00 +0.0000000000000000e+00 -1.0599999363488816e+01 -2.9182276065039744e-02 -5.6668743314671621e-01 +5.6638103789807140e-03
-1.0699999999999978e+01 +7.9167584212352828e+00 +0.0000000000000000e+00 -1.0699999345303542e+01 -2.9182262124073328e-02 -5.6668801119568823e-01 +5.6638762739124769e-03
-1.0799999999999978e+01 +7.9166975471652385e+00 +0.0000000000000000e+00 -1.0799999326775145e+01 -2.9182248632384604e-02 -5.6668858073223816e-01 +5.6639440302709201e-03
-1.0899999999999977e+01 +7.9166361067987427e+00 +0.0000000000000000e+00 -1.0899999307900417e+01 -2.9182235472941923e-02 -5.6668914266747583e-01 +5.6640134946880447e-03
-1.0999999999999977e+01 +7.9165741001352359e+00 +0.0000000000000000e+00 -1.0999999288676150e+01 -2.9182222528744362e-02 -5.6668969791254109e-01 +5.6640845137755766e-03
-1.1099999999999977e+01 +7.9165115271741646e+00 +0.0000000000000000e+00 -1.1099999269099138e+01 -2.9182209682822421e-02 -5.6669024737860563e-01 +5.6641569341244827e-03
-1.1199999999999976e+01 +7.9164483879149818e+00 +0.0000000000000000e+00 -1.1199999249166172e+01 -2.9182196818238738e-02 -5.6669079197687322e-01 +5.6642306023044738e-03
-1.1299999999999976e+01 +7.9163846823571458e+00 +0.0000000000000000e+00 -1.1299999228874047e+01 -2.9182183818088816e-02 -5.6669133261858051e-01 +5.6643053648635219e-03
-1.1399999999999975e+01 +7.9163204105001173e+00 +0.0000000000000000e+00 -1.1399999208219553e+01 -2.9182170565501615e-02 -5.6669187021499812e-01 +5.6643810683273642e-03
-1.1499999999999975e+01 +7.9162555723433616e+00 +0.0000000000000000e+00 -1.1499999187199485e+01 -2.9182156943640365e-02 -5.6669240567743084e-01 +5.6644575591990199e-03
-1.1599999999999975e+01 +7.9161901678863460e+00 +0.0000000000000000e+00 -1.1599999165810635e+01 -2.9182142835703227e-02 -5.6669293991721881e-01 +5.6645346839582951e-03
-1.1699999999999974e+01 +7.9161241971285374e+00 +0.0000000000000000e+00 -1.1699999144049794e+01 -2.9182128124923941e-02 -5.6669347384573776e-01 +5.6646122890612908e-03
