# field on trajectory
# s[mm] rx[mm] ry[mm] rz[mm] bx[T] by[T] bz[T]
0.0000000000000000e+00 +8.1649999999999991e+00 +0.0000000000000000e+00 +0.0000000000000000e+00 -3.0909465196621966e-02 -5.9258839641163752e-01 +5.9357421127448403e-03
1.0000000000000001e-01 +8.1649997168690955e+00 +0.0000000000000000e+00 +9.9999999999465586e-02 -3.0909506015889533e-02 -5.9258826582848068e-01 +5.9357791550866913e-03
2.0000000000000001e-01 +8.1649988674764700e+00 +0.0000000000000000e+00 +1.9999999999572465e-01 -3.0909541506737505e-02 -5.9258813744073591e-01 +5.9358178531132280e-03
3.0000000000000004e-01 +8.1649974518222432e+00 +0.0000000000000000e+00 +2.9999999998557070e-01 -3.0909572365592313e-02 -5.9258801084781287e-01 +5.9358581491187551e-03
4.0000000000000002e-01 +8.1649954699065379e+00 +0.0000000000000000e+00 +3.9999999996579716e-01 -3.0909599288869390e-02 -5.9258788564911191e-01 +5.9358999853989401e-03
5.0000000000000000e-01 +8.1649929217294730e+00 +0.0000000000000000e+00 +4.9999999993319755e-01 -3.0909622972975510e-02 -5.9258776144402459e-01 +5.9359433042508554e-03
5.9999999999999998e-01 +8.1649898072911675e+00 +0.0000000000000000e+00 +5.9999999988456532e-01 -3.0909644114311262e-02 -5.9258763783193580e-01 +5.9359880479730202e-03
6.9999999999999996e-01 +8.1649861265917387e+00 +0.0000000000000000e+00 +6.9999999981669392e-01 -3.0909663409273303e-02 -5.9258751441222657e-01 +5.9360341588654431e-03
7.9999999999999993e-01 +8.1649818796313056e+00 +0.0000000000000000e+00 +7.9999999972637692e-01 -3.0909681554256802e-02 -5.9258739078427491e-01 +5.9360815792296549e-03
8.9999999999999991e-01 +8.1649770664099872e+00 +0.0000000000000000e+00 +8.9999999961040777e-01 -3.0909699245657795e-02 -5.9258726654745852e-01 +5.9361302513687630e-03
9.9999999999999989e-01 +8.1649716869279008e+00 +0.0000000000000000e+00 +9.9999999946558005e-01 -3.0909717179875555e-02 -5.9258714130115697e-01 +5.9361801175874859e-03
1.0999999999999999e+00 +8.1649657411851670e+00 +0.0000000000000000e+00 +1.0999999992886871e+00 -3.0909736053314922e-02 -5.9258701464475183e-01 +5.9362311201921966e-03
1.2000000000000000e+00 +8.1649592291819069e+00 +0.0000000000000000e+00 +1.1999999990765224e+00 -3.0909756562388781e-02 -5.9258688617763178e-01 +5.9362832014909607e-03
1.3000000000000000e+00 +8.1649521509182446e+00 +0.0000000000000000e+00 +1.2999999988258797e+00 -3.0909779403520285e-02 -5.9258675549919115e-01 +5.9363363037935792e-03
1.4000000000000001e+00 +8.1649445063943027e+00 +0.0000000000000000e+00 +1.3999999985335523e+00 -3.0909805273145366e-02 -5.9258662220883507e-01 +5.9363903694116382e-03
1.5000000000000002e+00 +8.1649362956102109e+00 +0.0000000000000000e+00 +1.4999999981963339e+00 -3.0909834867714987e-02 -5.9258648590597829e-01 +5.9364453406585355e-03
1.6000000000000003e+00 +8.1649275185660990e+00 +0.0000000000000000e+00 +1.5999999978110178e+00 -3.0909868883697639e-02 -5.9258634619005013e-01 +5.9365011598495341e-03
1.7000000000000004e+00 +8.1649181752621018e+00 +0.0000000000000000e+00 +1.6999999973743976e+00 -3.0909908017581571e-02 -5.9258620266049433e-01 +5.9365577693018048e-03
1.8000000000000005e+00 +8.1649082656983563e+00 +0.0000000000000000e+00 +1.7999999968832667e+00 -3.0909952965877275e-02 -5.9258605491677185e-01 +5.9366151113344557e-03
1.9000000000000006e+00 +8.1648977898750044e+00 +0.0000000000000000e+00 +1.8999999963344187e+00 -3.0910004425119798e-02 -5.9258590255836274e-01 +5.9366731282685771e-03
2.0000000000000004e+00 +8.1648867477921900e+00 +0.0000000000000000e+00 +1.9999999957246470e+00 -3.0910063091871151e-02 -5.9258574518476825e-01 +5.9367317624272999e-03
2.1000000000000005e+00 +8.1648751394500660e+00 +0.0000000000000000e+00 +2.0999999950507453e+00 -3.0910129485634721e-02 -5.9258558270696737e-01 +5.9367909794548739e-03
2.2000000000000006e+00 +8.1648629648487869e+00 +0.0000000000000000e+00 +2.1999999943095072e+00 -3.0910203417583666e-02 -5.9258541628177963e-01 +5.9368508382728448e-03
2.3000000000000007e+00 +8.1648502239885126e+00 +0.0000000000000000e+00 +2.2999999934977260e+00 -3.0910284521807403e-02 -5.9258524737749130e-01 +5.9369114211209441e-03
2.4000000000000008e+00 +8.1648369168694046e+00 +0.0000000000000000e+00 +2.3999999926121953e+00 -3.0910372432395947e-02 -5.9258507746239941e-01 +5.9369728102374453e-03
2.5000000000000009e+00 +8.1648230434916265e+00 +0.0000000000000000e+00 +2.4999999916497084e+00 -3.0910466783438700e-02 -5.9258490800481101e-01 +5.9370350878588446e-03
2.6000000000000010e+00 +8.1648086038553398e+00 +0.0000000000000000e+00 +2.5999999906070594e+00 -3.0910567209023260e-02 -5.9258474047304366e-01 +5.9370983362195410e-03
2.7000000000000011e+00 +8.1647935979607045e+00 +0.0000000000000000e+00 +2.6999999894810416e+00 -3.0910673343234163e-02 -5.9258457633542627e-01 +5.9371626375515152e-03
2.8000000000000012e+00 +8.1647780258078768e+00 +0.0000000000000000e+00 +2.7999999882684481e+00 -3.0910784820151756e-02 -5.9258441706029885e-01 +5.9372280740839986e-03
2.9000000000000012e+00 +8.1647618873970114e+00 +0.0000000000000000e+00 +2.8999999869660731e+00 -3.0910901273850867e-02 -5.9258426411601173e-01 +5.9372947280431545e-03
3.0000000000000013e+00 +8.1647451827282538e+00 +0.0000000000000000e+00 +2.9999999855707098e+00 -3.0911022338399704e-02 -5.9258411897092655e-01 +5.9373626816517557e-03
3.1000000000000014e+00 +8.1647279118017444e+00 +0.0000000000000000e+00 +3.0999999840791514e+00 -3.0911147647858603e-02 -5.9258398309341664e-01 +5.9374320171288629e-03
3.2000000000000015e+00 +8.1647100746176111e+00 +0.0000000000000000e+00 +3.1999999824881922e+00 -3.0911276836278780e-02 -5.9258385795186663e-01 +5.9375028166895032e-03
3.3000000000000016e+00 +8.1646916711759765e+00 +0.0000000000000000e+00 +3.2999999807946252e+00 -3.0911409537701200e-02 -5.9258374501467281e-01 +5.9375751625443370e-03
3.4000000000000017e+00 +8.1646727014769471e+00 +0.0000000000000000e+00 +3.3999999789952442e+00 -3.0911545386155283e-02 -5.9258364575024247e-01 +5.9376491368993457e-03
3.5000000000000018e+00 +8.1646531655206189e+00 +0.0000000000000000e+00 +3.4999999770868424e+00 -3.0911684015657755e-02 -5.9258356162699599e-01 +5.9377248219555073e-03
3.6000000000000019e+00 +8.1646330633070718e+00 +0.0000000000000000e+00 +3.5999999750662139e+00 -3.0911825060211399e-02 -5.9258349411336408e-01 +5.9378022999084686e-03
3.7000000000000020e+00 +8.1646123948363734e+00 +0.0000000000000000e+00 +3.6999999729301520e+00 -3.0911968153803857e-02 -5.9258344467779067e-01 +5.9378816529482275e-03
3.8000000000000020e+00 +8.1645911601085697e+00 +0.0000000000000000e+00 +3.7999999706754499e+00 -3.0912112930406414e-02 -5.9258341478873122e-01 +5.9379629632588041e-03
3.9000000000000021e+00 +8.1645693591236892e+00 +0.0000000000000000e+00 +3.8999999682989017e+00 -3.0912259023972828e-02 -5.9258340591465408e-01 +5.9380463130179273e-03
4.0000000000000018e+00 +8.1645469918817426e+00 +0.0000000000000000e+00 +3.9999999657973007e+00 -3.0912406068438047e-02 -5.9258341952403959e-01 +5.9381317843967005e-03
4.1000000000000014e+00 +8.1645240583827157e+00 +0.0000000000000000e+00 +4.0999999631674404e+00 -3.0912553611195152e-02 -5.9258345658072931e-01 +5.9382194398854933e-03
4.2000000000000011e+00 +8.1645005586265746e+00 +0.0000000000000000e+00 +4.1999999604061138e+00 -3.0912700853532663e-02 -5.9258351602994996e-01 +5.9383092632752888e-03
4.3000000000000007e+00 +8.1644764926132645e+00 +0.0000000000000000e+00 +4.2999999575101153e+00 -3.0912846910207781e-02 -5.9258359631223156e-01 +5.9384012186845508e-03
4.4000000000000004e+00 +8.1644518603427088e+00 +0.0000000000000000e+00 +4.3999999544762378e+00 -3.0912990895969147e-02 -5.9258369586805304e-01 +5.9384952702340697e-03
4.5000000000000000e+00 +8.1644266618148134e+00 +0.0000000000000000e+00 +4.4999999513012749e+00 -3.0913131925556520e-02 -5.9258381313783770e-01 +5.9385913820471916e-03
4.5999999999999996e+00 +8.1644008970294664e+00 +0.0000000000000000e+00 +4.5999999479820204e+00 -3.0913269113700369e-02 -5.9258394656194868e-01 +5.9386895182500744e-03
4.6999999999999993e+00 +8.1643745659865417e+00 +0.0000000000000000e+00 +4.6999999445152678e+00 -3.0913401575121537e-02 -5.9258409458068872e-01 +5.9387896429719325e-03
4.7999999999999989e+00 +8.1643476686858989e+00 +0.0000000000000000e+00 +4.7999999408978100e+00 -3.0913528424530837e-02 -5.9258425563429273e-01 +5.9388917203452756e-03
4.8999999999999986e+00 +8.1643202051273853e+00 +0.0000000000000000e+00 +4.8999999371264407e+00 -3.0913648776628694e-02 -5.9258442816292722e-01 +5.9389957145061642e-03
4.9999999999999982e+00 +8.1642921753108375e+00 +0.0000000000000000e+00 +4.9999999331979534e+00 -3.0913761746104804e-02 -5.9258461060668532e-01 +5.9391015895944397e-03
5.0999999999999979e+00 +8.1642635792360814e+00 +0.0000000000000000e+00 +5.0999999291091420e+00 -3.0913866447637675e-02 -5.9258480140558301e-01 +5.9392093097539794e-03
5.1999999999999975e+00 +8.1642344169029357e+00 +0.0000000000000000e+00 +5.1999999248568001e+00 -3.0913961995894391e-02 -5.9258499899955841e-01 +5.9393188391329487e-03
5.2999999999999972e+00 +8.1642046883112140e+00 +0.0000000000000000e+00 +5.2999999204377204e+00 -3.0914047505530107e-02 -5.9258520182846375e-01 +5.9394301418840209e-03
5.3999999999999968e+00 +8.1641743934607227e+00 +0.0000000000000000e+00 +5.3999999158486967e+00 -3.0914122091187785e-02 -5.9258540833206585e-01 +5.9395431821646560e-03
5.4999999999999964e+00 +8.1641435323512646e+00 +0.0000000000000000e+00 +5.4999999110865225e+00 -3.0914184867497734e-02 -5.9258561695004019e-01 +5.9396579241373050e-03
5.5999999999999961e+00 +8.1641121049826424e+00 +0.0000000000000000e+00 +5.5999999061479917e+00 -3.0914234949077343e-02 -5.9258582612196931e-01 +5.9397743319696975e-03
5.6999999999999957e+00 +8.1640801113546573e+00 +0.0000000000000000e+00 +5.6999999010298970e+00 -3.0914271450530620e-02 -5.9258603428733680e-01 +5.9398923698350554e-03
5.7999999999999954e+00 +8.1640475514671103e+00 +0.0000000000000000e+00 +5.7999998957290320e+00 -3.0914293486447867e-02 -5.9258623988552661e-01 +5.9400120019123450e-03
5.8999999999999950e+00 +8.1640144253198077e+00 +0.0000000000000000e+00 +5.8999998902421904e+00 -3.0914300171405316e-02 -5.9258644135581795e-01 +5.9401331923865340e-03
5.9999999999999947e+00 +8.1639807329125578e+00 +0.0000000000000000e+00 +5.9999998845661651e+00 -3.0914290619964771e-02 -5.9258663713738191e-01 +5.9402559054488185e-03
6.0999999999999943e+00 +8.1639464742451739e+00 +0.0000000000000000e+00 +6.0999998786977496e+00 -3.0914264439978259e-02 -5.9258682599588264e-01 +5.9403800956321952e-03
6.1999999999999940e+00 +8.1639116493174786e+00 +0.0000000000000000e+00 +6.1999998726337378e+00 -3.0914223212515950e-02 -5.9258700800334907e-01 +5.9405056788144756e-03
6.2999999999999936e+00 +8.1638762581292976e+00 +0.0000000000000000e+00 +6.2999998663709231e+00 -3.0914169011957999e-02 -5.9258718355845319e-01 +5.9406325612071358e-03
6.3999999999999932e+00 +8.1638403006804641e+00 +0.0000000000000000e+00 +6.3999998599060985e+00 -3.0914103912687757e-02 -5.9258735305991872e-01 +5.9407606490191724e-03
6.4999999999999929e+00 +8.1638037769708163e+00 +0.0000000000000000e+00 +6.4999998532360577e+00 -3.0914029989092311e-02 -5.9258751690652456e-01 +5.9408898484569908e-03
6.5999999999999925e+00 +8.1637666870002015e+00 +0.0000000000000000e+00 +6.5999998463575942e+00 -3.0913949315562690e-02 -5.9258767549710889e-01 +5.9410200657242732e-03
6.6999999999999922e+00 +8.1637290307684669e+00 +0.0000000000000000e+00 +6.6999998392675018e+00 -3.0913863966494280e-02 -5.9258782923057163e-01 +5.9411512070218541e-03
6.7999999999999918e+00 +8.1636908082754669e+00 +0.0000000000000000e+00 +6.7999998319625732e+00 -3.0913776016287212e-02 -5.9258797850587741e-01 +5.9412831785475937e-03
6.8999999999999915e+00 +8.1636520195210611e+00 +0.0000000000000000e+00 +6.8999998244396021e+00 -3.0913687539346656e-02 -5.9258812372205982e-01 +5.9414158864962473e-03
6.9999999999999911e+00 +8.1636126645051128e+00 +0.0000000000000000e+00 +6.9999998166953814e+00 -3.0913600610083216e-02 -5.9258826527822350e-01 +5.9415492370593478e-03
7.0999999999999908e+00 +8.1635727432274869e+00 +0.0000000000000000e+00 +7.0999998087267056e+00 -3.0913517302913276e-02 -5.9258840357354781e-01 +5.9416831364250628e-03
7.1999999999999904e+00 +8.1635322556880521e+00 +0.0000000000000000e+00 +7.1999998005303674e+00 -3.0913439692259303e-02 -5.9258853900729025e-01 +5.9418174907780877e-03
7.2999999999999901e+00 +8.1634912018866803e+00 +0.0000000000000000e+00 +7.2999997921031605e+00 -3.0913369852550290e-02 -5.9258867197878995e-01 +5.9419522062995091e-03
7.3999999999999897e+00 +8.1634495818232455e+00 +0.0000000000000000e+00 +7.3999997834418778e+00 -3.0913309858222028e-02 -5.9258880288746962e-01 +5.9420871891666767e-03
7.4999999999999893e+00 +8.1634073954976252e+00 +0.0000000000000000e+00 +7.4999997745433138e+00 -3.0913261783717477e-02 -5.9258893213284003e-01 +5.9422223455530858e-03
7.5999999999999890e+00 +8.1633646429096967e+00 +0.0000000000000000e+00 +7.5999997654042613e+00 -3.0913227703487096e-02 -5.9258906011450241e-01 +5.9423575816282331e-03
7.6999999999999886e+00 +8.1633213240593374e+00 +0.0000000000000000e+00 +7.6999997560215130e+00 -3.0913209691989241e-02 -5.9258918723215270e-01 +5.9424928035575180e-03
7.7999999999999883e+00 +8.1632774389464284e+00 +0.0000000000000000e+00 +7.7999997463918636e+00 -3.0913209823690453e-02 -5.9258931388558378e-01 +5.9426279175020975e-03
7.8999999999999879e+00 +8.1632329875708507e+00 +0.0000000000000000e+00 +7.8999997365121057e+00 -3.0913230173065818e-02 -5.9258944047468942e-01 +5.9427628296187590e-03
7.9999999999999876e+00 +8.1631879699324852e+00 +0.0000000000000000e+00 +7.9999997263790323e+00 -3.0913272814599293e-02 -5.9258956739946578e-01 +5.9428974460598088e-03
8.0999999999999872e+00 +8.1631423860312111e+00 +0.0000000000000000e+00 +8.0999997159894370e+00 -3.0913339283899628e-02 -5.9258969517442539e-01 +5.9430317062482271e-03
8.1999999999999869e+00 +8.1630962358669077e+00 +0.0000000000000000e+00 +8.1999997053401152e+00 -3.0913428961030970e-02 -5.9258982477180611e-01 +5.9431656827073978e-03
8.2999999999999865e+00 +8.1630495194394523e+00 +0.0000000000000000e+00 +8.2999996944278589e+00 -3.0913540687178113e-02 -5.9258995727831654e-01 +5.9432994812397633e-03
8.3999999999999861e+00 +8.1630022367487189e+00 +0.0000000000000000e+00 +8.3999996832494599e+00 -3.0913673303540532e-02 -5.9259009378072436e-01 +5.9434332076518217e-03
8.4999999999999858e+00 +8.1629543877945796e+00 +0.0000000000000000e+00 +8.4999996718017137e+00 -3.0913825651333052e-02 -5.9259023536585720e-01 +5.9435669677542751e-03
8.5999999999999854e+00 +8.1629059725769011e+00 +0.0000000000000000e+00 +8.5999996600814121e+00 -3.0913996571786215e-02 -5.9259038312060375e-01 +5.9437008673621601e-03
8.6999999999999851e+00 +8.1628569910955431e+00 +0.0000000000000000e+00 +8.6999996480853508e+00 -3.0914184906146835e-02 -5.9259053813191565e-01 +5.9438350122950007e-03
8.7999999999999847e+00 +8.1628074433503581e+00 +0.0000000000000000e+00 +8.7999996358103214e+00 -3.0914389495678523e-02 -5.9259070148680948e-01 +5.9439695083769303e-03
8.8999999999999844e+00 +8.1627573293411935e+00 +0.0000000000000000e+00 +8.8999996232531178e+00 -3.0914609181662146e-02 -5.9259087427236712e-01 +5.9441044614368388e-03
8.9999999999999840e+00 +8.1627066490678839e+00 +0.0000000000000000e+00 +8.9999996104105335e+00 -3.0914842805396369e-02 -5.9259105757573838e-01 +5.9442399773085236e-03
9.0999999999999837e+00 +8.1626554025302553e+00 +0.0000000000000000e+00 +9.0999995972793606e+00 -3.0915089208198118e-02 -5.9259125248414146e-01 +5.9443761618308034e-03
9.1999999999999833e+00 +8.1626035897281248e+00 +0.0000000000000000e+00 +9.1999995838563944e+00 -3.0915347231403170e-02 -5.9259146008486563e-01 +5.9445131208476767e-03
9.2999999999999829e+00 +8.1625512106612952e+00 +0.0000000000000000e+00 +9.2999995701384268e+00 -3.0915615716366560e-02 -5.9259168146527175e-01 +5.9446509602084571e-03
9.3999999999999826e+00 +8.1624982653295550e+00 +0.0000000000000000e+00 +9.3999995561222516e+00 -3.0915893504463166e-02 -5.9259191771279418e-01 +5.9447897857679037e-03
9.4999999999999822e+00 +8.1624447537326823e+00 +0.0000000000000000e+00 +9.4999995418046623e+00 -3.0916179437088208e-02 -5.9259216991494235e-01 +5.9449297033863646e-03
9.5999999999999819e+00 +8.1623906758704354e+00 +0.0000000000000000e+00 +9.5999995271824510e+00 -3.0916472355657712e-02 -5.9259243915930127e-01 +5.9450708189299258e-03
9.6999999999999815e+00 +8.1623360317425604e+00 +0.0000000000000000e+00 +9.6999995122524130e+00 -3.0916771101609095e-02 -5.9259272653353556e-01 +5.9452132382705339e-03
9.7999999999999812e+00 +8.1622808213487836e+00 +0.0000000000000000e+00 +9.7999994970113402e+00 -3.0917074516401626e-02 -5.9259303312538747e-01 +5.9453570672861446e-03
9.8999999999999808e+00 +8.1622250446888138e+00 +0.0000000000000000e+00 +9.8999994814560264e+00 -3.0917381441516952e-02 -5.9259336002268104e-01 +5.9455024118608519e-03
9.9999999999999805e+00 +8.1621687017623401e+00 +0.0000000000000000e+00 +9.9999994655832651e+00 -3.0917690718459647e-02 -5.9259370831332259e-01 +5.9456493778850409e-03
1.0099999999999980e+01 +8.1621117925690321e+00 +0.0000000000000000e+00 +1.0099999449389848e+01 -3.0918001255094155e-02 -5.9259407859840763e-01 +5.9457980319425367e-03
1.0199999999999980e+01 +8.1620543171085380e+00 +0.0000000000000000e+00 +1.0199999432872570e+01 -3.0918312224646163e-02 -5.9259446953142358e-01 +5.9459482833669752e-03
1.0299999999999979e+01 +8.1619962753804849e+00 +0.0000000000000000e+00 +1.0299999416028223e+01 -3.0918622866668941e-02 -5.9259487927880061e-01 +5.9461000021779897e-03
1.0399999999999979e+01 +8.1619376673844855e+00 +0.0000000000000000e+00 +1.0399999398853602e+01 -3.0918932420701151e-02 -5.9259530600679522e-01 +5.9462530583948474e-03
1.0499999999999979e+01 +8.1618784931201329e+00 +0.0000000000000000e+00 +1.0499999381345498e+01 -3.0919240126266394e-02 -5.9259574788148639e-01 +5.9464073220364165e-03
1.0599999999999978e+01 +8.1618187525870063e+00 +0.0000000000000000e+00 +1.0599999363500707e+01 -3.0919545222872821e-02 -5.9259620306877125e-01 +5.9465626631211395e-03
1.0699999999999978e+01 +8.1617584457846739e+00 +0.0000000000000000e+00 +1.0699999345316019e+01 -3.0919846950012632e-02 -5.9259666973435865e-01 +5.9467189516669832e-03
1.0799999999999978e+01 +8.1616975727126899e+00 +0.0000000000000000e+00 +1.0799999326788230e+01 -3.0920144547161708e-02 -5.9259714604376579e-01 +5.9468760576914343e-03
1.0899999999999977e+01 +8.1616361333706031e+00 +0.0000000000000000e+00 +1.0899999307914131e+01 -3.0920437253779159e-02 -5.9259763016231426e-01 +5.9470338512114434e-03
1.0999999999999977e+01 +8.1615741277579517e+00 +0.0000000000000000e+00 +1.0999999288690516e+01 -3.0920724309306813e-02 -5.9259812025512260e-01 +5.9471922022434074e-03
1.1099999999999977e+01 +8.1615115558742701e+00 +0.0000000000000000e+00 +1.1099999269114177e+01 -3.0921004953168903e-02 -5.9259861448710438e-01 +5.9473509808031337e-03
1.1199999999999976e+01 +8.1614484177190896e+00 +0.0000000000000000e+00 +1.1199999249181907e+01 -3.0921278424771569e-02 -5.9259911102296237e-01 +5.9475100569058061e-03
1.1299999999999976e+01 +8.1613847132919357e+00 +0.0000000000000000e+00 +1.1299999228890501e+01 -3.0921543963502402e-02 -5.9259960802718281e-01 +5.9476693005659567e-03
1.1399999999999975e+01 +8.1613204425923378e+00 +0.0000000000000000e+00 +1.1399999208236752e+01 -3.0921800808730075e-02 -5.9260010366403260e-01 +5.9478285817974302e-03
1.1499999999999975e+01 +8.1612556056198233e+00 +0.0000000000000000e+00 +1.1499999187217451e+01 -3.0922048199803858e-02 -5.9260059609755322e-01 +5.9479877706133614e-03
1.1599999999999975e+01 +8.1611902023739233e+00 +0.0000000000000000e+00 +1.1599999165829392e+01 -3.0922285376053210e-02 -5.9260108349155705e-01 +5.9481467370261325e-03
1.1699999999999974e+01 +8.1611242328541742e+00 +0.0000000000000000e+00 +1.1699999144069368e+01 -3.0922511576787340e-02 -5.9260156400962116e-01 +5.9483053510473449e-03
1.1799999999999974e+01 +8.1610576970601194e+00 +0.0000000000000000e+00 +1.1799999121934173e+01 -3.0922726041294781e-02 -5.9260203581508342e-01 +5.9484634826877962e-03
