# trajectory
# s[mm] rx[mm] ry[mm] rz[mm] px[rad] py[rad] pz[rad]
0.0000000000000000e+00 +8.1649999999999991e+00 +0.0000000000000000e+00 +0.0000000000000000e+00 +0.0000000000000000e+00 +0.0000000000000000e+00 +1.0000000000000000e+00
1.0000000000000001e-01 +8.1649997168690955e+00 +0.0000000000000000e+00 +9.9999999999465586e-02 -5.6626178513973544e-06 +0.0000000000000000e+00 +9.9999999998396738e-01
2.0000000000000001e-01 +8.1649988674764700e+00 +0.0000000000000000e+00 +1.9999999999572465e-01 -1.1325234465603299e-05 +0.0000000000000000e+00 +9.9999999993586952e-01
3.0000000000000004e-01 +8.1649974518222432e+00 +0.0000000000000000e+00 +2.9999999998557070e-01 -1.6987849861501077e-05 +0.0000000000000000e+00 +9.9999999985570642e-01
4.0000000000000002e-01 +8.1649954699065379e+00 +0.0000000000000000e+00 +3.9999999996579716e-01 -2.2650464054145955e-05 +0.0000000000000000e+00 +9.9999999974347820e-01
5.0000000000000000e-01 +8.1649929217294730e+00 +0.0000000000000000e+00 +4.9999999993319755e-01 -2.8313077054765134e-05 +0.0000000000000000e+00 +9.9999999959918484e-01
5.9999999999999998e-01 +8.1649898072911675e+00 +0.0000000000000000e+00 +5.9999999988456532e-01 -3.3975688870757664e-05 +0.0000000000000000e+00 +9.9999999942282625e-01
6.9999999999999996e-01 +8.1649861265917387e+00 +0.0000000000000000e+00 +6.9999999981669392e-01 -3.9638299505694418e-05 +0.0000000000000000e+00 +9.9999999921440252e-01
7.9999999999999993e-01 +8.1649818796313056e+00 +0.0000000000000000e+00 +7.9999999972637692e-01 -4.5300908959318027e-05 +0.0000000000000000e+00 +9.9999999897391378e-01
8.9999999999999991e-01 +8.1649770664099872e+00 +0.0000000000000000e+00 +8.9999999961040777e-01 -5.0963517227542893e-05 +0.0000000000000000e+00 +9.9999999870135992e-01
9.9999999999999989e-01 +8.1649716869279008e+00 +0.0000000000000000e+00 +9.9999999946558005e-01 -5.6626124302455180e-05 +0.0000000000000000e+00 +9.9999999839674103e-01
1.0999999999999999e+00 +8.1649657411851670e+00 +0.0000000000000000e+00 +1.0999999992886871e+00 -6.2288730172312828e-05 +0.0000000000000000e+00 +9.9999999806005702e-01
1.2000000000000000e+00 +8.1649592291819069e+00 +0.0000000000000000e+00 +1.1999999990765224e+00 -6.7951334821545625e-05 +0.0000000000000000e+00 +9.9999999769130798e-01
1.3000000000000000e+00 +8.1649521509182446e+00 +0.0000000000000000e+00 +1.2999999988258797e+00 -7.3613938230755242e-05 +0.0000000000000000e+00 +9.9999999729049394e-01
1.4000000000000001e+00 +8.1649445063943027e+00 +0.0000000000000000e+00 +1.3999999985335523e+00 -7.9276540376715303e-05 +0.0000000000000000e+00 +9.9999999685761498e-01
1.5000000000000002e+00 +8.1649362956102109e+00 +0.0000000000000000e+00 +1.4999999981963339e+00 -8.4939141232371509e-05 +0.0000000000000000e+00 +9.9999999639267101e-01
1.6000000000000003e+00 +8.1649275185660990e+00 +0.0000000000000000e+00 +1.5999999978110178e+00 -9.0601740766841756e-05 +0.0000000000000000e+00 +9.9999999589566213e-01
1.7000000000000004e+00 +8.1649181752621018e+00 +0.0000000000000000e+00 +1.6999999973743976e+00 -9.6264338945416234e-05 +0.0000000000000000e+00 +9.9999999536658835e-01
1.8000000000000005e+00 +8.1649082656983563e+00 +0.0000000000000000e+00 +1.7999999968832667e+00 -1.0192693572955763e-04 +0.0000000000000000e+00 +9.9999999480544965e-01
1.9000000000000006e+00 +8.1648977898750044e+00 +0.0000000000000000e+00 +1.8999999963344187e+00 -1.0758953107690125e-04 +0.0000000000000000e+00 +9.9999999421224617e-01
2.0000000000000004e+00 +8.1648867477921900e+00 +0.0000000000000000e+00 +1.9999999957246470e+00 -1.1325212494125525e-04 +0.0000000000000000e+00 +9.9999999358697789e-01
2.1000000000000005e+00 +8.1648751394500660e+00 +0.0000000000000000e+00 +2.0999999950507453e+00 -1.1891471727334488e-04 +0.0000000000000000e+00 +9.9999999292964481e-01
2.2000000000000006e+00 +8.1648629648487869e+00 +0.0000000000000000e+00 +2.1999999943095072e+00 -1.2457730802899720e-04 +0.0000000000000000e+00 +9.9999999224024694e-01
2.3000000000000007e+00 +8.1648502239885126e+00 +0.0000000000000000e+00 +2.2999999934977260e+00 -1.3023989717732572e-04 +0.0000000000000000e+00 +9.9999999151878438e-01
2.4000000000000008e+00 +8.1648369168694046e+00 +0.0000000000000000e+00 +2.3999999926121953e+00 -1.3590248470147457e-04 +0.0000000000000000e+00 +9.9999999076525714e-01
2.5000000000000009e+00 +8.1648230434916265e+00 +0.0000000000000000e+00 +2.4999999916497084e+00 -1.4156507059861858e-04 +0.0000000000000000e+00 +9.9999998997966522e-01
2.6000000000000010e+00 +8.1648086038553398e+00 +0.0000000000000000e+00 +2.5999999906070594e+00 -1.4722765487996337e-04 +0.0000000000000000e+00 +9.9999998916200861e-01
2.7000000000000011e+00 +8.1647935979607045e+00 +0.0000000000000000e+00 +2.6999999894810416e+00 -1.5289023757074550e-04 +0.0000000000000000e+00 +9.9999998831228742e-01
2.8000000000000012e+00 +8.1647780258078768e+00 +0.0000000000000000e+00 +2.7999999882684481e+00 -1.5855281871023254e-04 +0.0000000000000000e+00 +9.9999998743050167e-01
2.9000000000000012e+00 +8.1647618873970114e+00 +0.0000000000000000e+00 +2.8999999869660731e+00 -1.6421539835172313e-04 +0.0000000000000000e+00 +9.9999998651665134e-01
3.0000000000000013e+00 +8.1647451827282538e+00 +0.0000000000000000e+00 +2.9999999855707098e+00 -1.6987797656254722e-04 +0.0000000000000000e+00 +9.9999998557073644e-01
3.1000000000000014e+00 +8.1647279118017444e+00 +0.0000000000000000e+00 +3.0999999840791514e+00 -1.7554055342406603e-04 +0.0000000000000000e+00 +9.9999998459275696e-01
3.2000000000000015e+00 +8.1647100746176111e+00 +0.0000000000000000e+00 +3.1999999824881922e+00 -1.8120312903167223e-04 +0.0000000000000000e+00 +9.9999998358271291e-01
3.3000000000000016e+00 +8.1646916711759765e+00 +0.0000000000000000e+00 +3.2999999807946252e+00 -1.8686570349479007e-04 +0.0000000000000000e+00 +9.9999998254060429e-01
3.4000000000000017e+00 +8.1646727014769471e+00 +0.0000000000000000e+00 +3.3999999789952442e+00 -1.9252827693687542e-04 +0.0000000000000000e+00 +9.9999998146643110e-01
3.5000000000000018e+00 +8.1646531655206189e+00 +0.0000000000000000e+00 +3.4999999770868424e+00 -1.9819084949541596e-04 +0.0000000000000000e+00 +9.9999998036019333e-01
3.6000000000000019e+00 +8.1646330633070718e+00 +0.0000000000000000e+00 +3.5999999750662139e+00 -2.0385342132193122e-04 +0.0000000000000000e+00 +9.9999997922189099e-01
3.7000000000000020e+00 +8.1646123948363734e+00 +0.0000000000000000e+00 +3.6999999729301520e+00 -2.0951599258197277e-04 +0.0000000000000000e+00 +9.9999997805152407e-01
3.8000000000000020e+00 +8.1645911601085697e+00 +0.0000000000000000e+00 +3.7999999706754499e+00 -2.1517856345512425e-04 +0.0000000000000000e+00 +9.9999997684909259e-01
3.9000000000000021e+00 +8.1645693591236892e+00 +0.0000000000000000e+00 +3.8999999682989017e+00 -2.2084113413500158e-04 +0.0000000000000000e+00 +9.9999997561459641e-01
4.0000000000000018e+00 +8.1645469918817426e+00 +0.0000000000000000e+00 +3.9999999657973007e+00 -2.2650370482925301e-04 +0.0000000000000000e+00 +9.9999997434803545e-01
4.1000000000000014e+00 +8.1645240583827157e+00 +0.0000000000000000e+00 +4.0999999631674404e+00 -2.3216627575835369e-04 +0.0000000000000000e+00 +9.9999997304940980e-01
4.2000000000000011e+00 +8.1645005586265746e+00 +0.0000000000000000e+00 +4.1999999604061138e+00 -2.3782884714234432e-04 +0.0000000000000000e+00 +9.9999997171871924e-01
4.3000000000000007e+00 +8.1644764926132645e+00 +0.0000000000000000e+00 +4.2999999575101153e+00 -2.4349141918756956e-04 +0.0000000000000000e+00 +9.9999997035596389e-01
4.4000000000000004e+00 +8.1644518603427088e+00 +0.0000000000000000e+00 +4.3999999544762378e+00 -2.4915399208547194e-04 +0.0000000000000000e+00 +9.9999996896114351e-01
4.5000000000000000e+00 +8.1644266618148134e+00 +0.0000000000000000e+00 +4.4999999513012749e+00 -2.5481656601259134e-04 +0.0000000000000000e+00 +9.9999996753425824e-01
4.5999999999999996e+00 +8.1644008970294664e+00 +0.0000000000000000e+00 +4.5999999479820204e+00 -2.6047914113056441e-04 +0.0000000000000000e+00 +9.9999996607530783e-01
4.6999999999999993e+00 +8.1643745659865417e+00 +0.0000000000000000e+00 +4.6999999445152678e+00 -2.6614171758612411e-04 +0.0000000000000000e+00 +9.9999996458429230e-01
4.7999999999999989e+00 +8.1643476686858989e+00 +0.0000000000000000e+00 +4.7999999408978100e+00 -2.7180429551109899e-04 +0.0000000000000000e+00 +9.9999996306121164e-01
4.8999999999999986e+00 +8.1643202051273853e+00 +0.0000000000000000e+00 +4.8999999371264407e+00 -2.7746687502241258e-04 +0.0000000000000000e+00 +9.9999996150606574e-01
4.9999999999999982e+00 +8.1642921753108375e+00 +0.0000000000000000e+00 +4.9999999331979534e+00 -2.8312945622208265e-04 +0.0000000000000000e+00 +9.9999995991885460e-01
5.0999999999999979e+00 +8.1642635792360814e+00 +0.0000000000000000e+00 +5.0999999291091420e+00 -2.8879203919722062e-04 +0.0000000000000000e+00 +9.9999995829957811e-01
5.1999999999999975e+00 +8.1642344169029357e+00 +0.0000000000000000e+00 +5.1999999248568001e+00 -2.9445462402003073e-04 +0.0000000000000000e+00 +9.9999995664823615e-01
5.2999999999999972e+00 +8.1642046883112140e+00 +0.0000000000000000e+00 +5.2999999204377204e+00 -3.0011721074780920e-04 +0.0000000000000000e+00 +9.9999995496482874e-01
5.3999999999999968e+00 +8.1641743934607227e+00 +0.0000000000000000e+00 +5.3999999158486967e+00 -3.0577979942294359e-04 +0.0000000000000000e+00 +9.9999995324935587e-01
5.4999999999999964e+00 +8.1641435323512646e+00 +0.0000000000000000e+00 +5.4999999110865225e+00 -3.1144239007291179e-04 +0.0000000000000000e+00 +9.9999995150181753e-01
5.5999999999999961e+00 +8.1641121049826424e+00 +0.0000000000000000e+00 +5.5999999061479917e+00 -3.1710498271028122e-04 +0.0000000000000000e+00 +9.9999994972221362e-01
5.6999999999999957e+00 +8.1640801113546573e+00 +0.0000000000000000e+00 +5.6999999010298970e+00 -3.2276757733270785e-04 +0.0000000000000000e+00 +9.9999994791054403e-01
5.7999999999999954e+00 +8.1640475514671103e+00 +0.0000000000000000e+00 +5.7999998957290320e+00 -3.2843017392293535e-04 +0.0000000000000000e+00 +9.9999994606680886e-01
5.8999999999999950e+00 +8.1640144253198077e+00 +0.0000000000000000e+00 +5.8999998902421904e+00 -3.3409277244879403e-04 +0.0000000000000000e+00 +9.9999994419100802e-01
5.9999999999999947e+00 +8.1639807329125578e+00 +0.0000000000000000e+00 +5.9999998845661651e+00 -3.3975537286319986e-04 +0.0000000000000000e+00 +9.9999994228314149e-01
6.0999999999999943e+00 +8.1639464742451739e+00 +0.0000000000000000e+00 +6.0999998786977496e+00 -3.4541797510493364e-04 +0.0000000000000000e+00 +9.9999994034320927e-01
6.1999999999999940e+00 +8.1639116493174786e+00 +0.0000000000000000e+00 +6.1999998726337378e+00 -3.5108057910722271e-04 +0.0000000000000000e+00 +9.9999993837121137e-01
6.2999999999999936e+00 +8.1638762581292976e+00 +0.0000000000000000e+00 +6.2999998663709231e+00 -3.5674318480632359e-04 +0.0000000000000000e+00 +9.9999993636714779e-01
6.3999999999999932e+00 +8.1638403006804641e+00 +0.0000000000000000e+00 +6.3999998599060985e+00 -3.6240579214230260e-04 +0.0000000000000000e+00 +9.9999993433101853e-01
6.4999999999999929e+00 +8.1638037769708163e+00 +0.0000000000000000e+00 +6.4999998532360577e+00 -3.6806840105903650e-04 +0.0000000000000000e+00 +9.9999993226282358e-01
6.5999999999999925e+00 +8.1637666870002015e+00 +0.0000000000000000e+00 +6.5999998463575942e+00 -3.7373101150421287e-04 +0.0000000000000000e+00 +9.9999993016256283e-01
6.6999999999999922e+00 +8.1637290307684669e+00 +0.0000000000000000e+00 +6.6999998392675018e+00 -3.7939362342933084e-04 +0.0000000000000000e+00 +9.9999992803023641e-01
6.7999999999999918e+00 +8.1636908082754669e+00 +0.0000000000000000e+00 +6.7999998319625732e+00 -3.8505623678970161e-04 +0.0000000000000000e+00 +9.9999992586584430e-01
6.8999999999999915e+00 +8.1636520195210611e+00 +0.0000000000000000e+00 +6.8999998244396021e+00 -3.9071885154444907e-04 +0.0000000000000000e+00 +9.9999992366938639e-01
6.9999999999999911e+00 +8.1636126645051128e+00 +0.0000000000000000e+00 +6.9999998166953814e+00 -3.9638146765651059e-04 +0.0000000000000000e+00 +9.9999992144086269e-01
7.0999999999999908e+00 +8.1635727432274869e+00 +0.0000000000000000e+00 +7.0999998087267056e+00 -4.0204408509263753e-04 +0.0000000000000000e+00 +9.9999991918027331e-01
7.1999999999999904e+00 +8.1635322556880521e+00 +0.0000000000000000e+00 +7.1999998005303674e+00 -4.0770670382339619e-04 +0.0000000000000000e+00 +9.9999991688761813e-01
7.2999999999999901e+00 +8.1634912018866803e+00 +0.0000000000000000e+00 +7.2999997921031605e+00 -4.1336932382316833e-04 +0.0000000000000000e+00 +9.9999991456289716e-01
7.3999999999999897e+00 +8.1634495818232455e+00 +0.0000000000000000e+00 +7.3999997834418778e+00 -4.1903194507015218e-04 +0.0000000000000000e+00 +9.9999991220611040e-01
7.4999999999999893e+00 +8.1634073954976252e+00 +0.0000000000000000e+00 +7.4999997745433138e+00 -4.2469456754636313e-04 +0.0000000000000000e+00 +9.9999990981725784e-01
7.5999999999999890e+00 +8.1633646429096967e+00 +0.0000000000000000e+00 +7.5999997654042613e+00 -4.3035719123763464e-04 +0.0000000000000000e+00 +9.9999990739633948e-01
7.6999999999999886e+00 +8.1633213240593374e+00 +0.0000000000000000e+00 +7.6999997560215130e+00 -4.3601981613361902e-04 +0.0000000000000000e+00 +9.9999990494335522e-01
7.7999999999999883e+00 +8.1632774389464284e+00 +0.0000000000000000e+00 +7.7999997463918636e+00 -4.4168244222778856e-04 +0.0000000000000000e+00 +9.9999990245830517e-01
7.8999999999999879e+00 +8.1632329875708507e+00 +0.0000000000000000e+00 +7.8999997365121057e+00 -4.4734506951743628e-04 +0.0000000000000000e+00 +9.9999989994118921e-01
7.9999999999999876e+00 +8.1631879699324852e+00 +0.0000000000000000e+00 +7.9999997263790323e+00 -4.5300769800367689e-04 +0.0000000000000000e+00 +9.9999989739200734e-01
8.0999999999999872e+00 +8.1631423860312111e+00 +0.0000000000000000e+00 +8.0999997159894370e+00 -4.5867032769172136e-04 +0.0000000000000000e+00 +9.9999989481075957e-01
8.1999999999999869e+00 +8.1630962358669077e+00 +0.0000000000000000e+00 +8.1999997053401152e+00 -4.6433295859388398e-04 +0.0000000000000000e+00 +9.9999989219744578e-01
8.2999999999999865e+00 +8.1630495194394523e+00 +0.0000000000000000e+00 +8.2999996944278589e+00 -4.6999559073258992e-04 +0.0000000000000000e+00 +9.9999988955206609e-01
8.3999999999999861e+00 +8.1630022367487189e+00 +0.0000000000000000e+00 +8.3999996832494599e+00 -4.7565822414064886e-04 +0.0000000000000000e+00 +9.9999988687462038e-01
8.4999999999999858e+00 +8.1629543877945796e+00 +0.0000000000000000e+00 +8.4999996718017137e+00 -4.8132085886125559e-04 +0.0000000000000000e+00 +9.9999988416510854e-01
8.5999999999999854e+00 +8.1629059725769011e+00 +0.0000000000000000e+00 +8.5999996600814121e+00 -4.8698349494799066e-04 +0.0000000000000000e+00 +9.9999988142353058e-01
8.6999999999999851e+00 +8.1628569910955431e+00 +0.0000000000000000e+00 +8.6999996480853508e+00 -4.9264613246482092e-04 +0.0000000000000000e+00 +9.9999987864988649e-01
8.7999999999999847e+00 +8.1628074433503581e+00 +0.0000000000000000e+00 +8.7999996358103214e+00 -4.9830877148610020e-04 +0.0000000000000000e+00 +9.9999987584417616e-01
8.8999999999999844e+00 +8.1627573293411935e+00 +0.0000000000000000e+00 +8.8999996232531178e+00 -5.0397141209656984e-04 +0.0000000000000000e+00 +9.9999987300639959e-01
8.9999999999999840e+00 +8.1627066490678839e+00 +0.0000000000000000e+00 +8.9999996104105335e+00 -5.0963405439135938e-04 +0.0000000000000000e+00 +9.9999987013655667e-01
9.0999999999999837e+00 +8.1626554025302553e+00 +0.0000000000000000e+00 +9.0999995972793606e+00 -5.1529669847598727e-04 +0.0000000000000000e+00 +9.9999986723464729e-01
9.1999999999999833e+00 +8.1626035897281248e+00 +0.0000000000000000e+00 +9.1999995838563944e+00 -5.2095934446636123e-04 +0.0000000000000000e+00 +9.9999986430067134e-01
9.2999999999999829e+00 +8.1625512106612952e+00 +0.0000000000000000e+00 +9.2999995701384268e+00 -5.2662199248877943e-04 +0.0000000000000000e+00 +9.9999986133462870e-01
9.3999999999999826e+00 +8.1624982653295550e+00 +0.0000000000000000e+00 +9.3999995561222516e+00 -5.3228464267993092e-04 +0.0000000000000000e+00 +9.9999985833651939e-01
9.4999999999999822e+00 +8.1624447537326823e+00 +0.0000000000000000e+00 +9.4999995418046623e+00 -5.3794729518689608e-04 +0.0000000000000000e+00 +9.9999985530634317e-01
9.5999999999999819e+00 +8.1623906758704354e+00 +0.0000000000000000e+00 +9.5999995271824510e+00 -5.4360995016714789e-04 +0.0000000000000000e+00 +9.9999985224409993e-01
9.6999999999999815e+00 +8.1623360317425604e+00 +0.0000000000000000e+00 +9.6999995122524130e+00 -5.4927260778855219e-04 +0.0000000000000000e+00 +9.9999984914978957e-01
9.7999999999999812e+00 +8.1622808213487836e+00 +0.0000000000000000e+00 +9.7999994970113402e+00 -5.5493526822936862e-04 +0.0000000000000000e+00 +9.9999984602341196e-01
9.8999999999999808e+00 +8.1622250446888138e+00 +0.0000000000000000e+00 +9.8999994814560264e+00 -5.6059793167825150e-04 +0.0000000000000000e+00 +9.9999984286496690e-01
9.9999999999999805e+00 +8.1621687017623401e+00 +0.0000000000000000e+00 +9.9999994655832651e+00 -5.6626059833425049e-04 +0.0000000000000000e+00 +9.9999983967445427e-01
1.0099999999999980e+01 +8.1621117925690321e+00 +0.0000000000000000e+00 +1.0099999449389848e+01 -5.7192326840564819e-04 +0.0000000000000000e+00 +9.9999983645187385e-01
1.0199999999999980e+01 +8.1620543171085380e+00 +0.0000000000000000e+00 +1.0199999432872570e+01 -5.7758594209716583e-04 +0.0000000000000000e+00 +9.9999983319722552e-01
1.0299999999999979e+01 +8.1619962753804849e+00 +0.0000000000000000e+00 +1.0299999416028223e+01 -5.8324861959716760e-04 +0.0000000000000000e+00 +9.9999982991050906e-01
1.0399999999999979e+01 +8.1619376673844855e+00 +0.0000000000000000e+00 +1.0399999398853602e+01 -5.8891130107649556e-04 +0.0000000000000000e+00 +9.9999982659172437e-01
1.0499999999999979e+01 +8.1618784931201329e+00 +0.0000000000000000e+00 +1.0499999381345498e+01 -5.9457398668846838e-04 +0.0000000000000000e+00 +9.9999982324087122e-01
1.0599999999999978e+01 +8.1618187525870063e+00 +0.0000000000000000e+00 +1.0599999363500707e+01 -6.0023667656887924e-04 +0.0000000000000000e+00 +9.9999981985794950e-01
1.0699999999999978e+01 +8.1617584457846739e+00 +0.0000000000000000e+00 +1.0699999345316019e+01 -6.0589937083599431e-04 +0.0000000000000000e+00 +9.9999981644295899e-01
1.0799999999999978e+01 +8.1616975727126899e+00 +0.0000000000000000e+00 +1.0799999326788230e+01 -6.1156206959055083e-04 +0.0000000000000000e+00 +9.9999981299589968e-01
1.0899999999999977e+01 +8.1616361333706031e+00 +0.0000000000000000e+00 +1.0899999307914131e+01 -6.1722477291575525e-04 +0.0000000000000000e+00 +9.9999980951677137e-01
1.0999999999999977e+01 +8.1615741277579517e+00 +0.0000000000000000e+00 +1.0999999288690516e+01 -6.2288748087728127e-04 +0.0000000000000000e+00 +9.9999980600557392e-01
1.1099999999999977e+01 +8.1615115558742701e+00 +0.0000000000000000e+00 +1.1099999269114177e+01 -6.2855019352326823e-04 +0.0000000000000000e+00 +9.9999980246230724e-01
1.1199999999999976e+01 +8.1614484177190896e+00 +0.0000000000000000e+00 +1.1199999249181907e+01 -6.3421291088431859e-04 +0.0000000000000000e+00 +9.9999979888697121e-01
1.1299999999999976e+01 +8.1613847132919357e+00 +0.0000000000000000e+00 +1.1299999228890501e+01 -6.3987563297349635e-04 +0.0000000000000000e+00 +9.9999979527956584e-01
1.1399999999999975e+01 +8.1613204425923378e+00 +0.0000000000000000e+00 +1.1399999208236752e+01 -6.4553835978632462e-04 +0.0000000000000000e+00 +9.9999979164009090e-01
1.1499999999999975e+01 +8.1612556056198233e+00 +0.0000000000000000e+00 +1.1499999187217451e+01 -6.5120109130078379e-04 +0.0000000000000000e+00 +9.9999978796854649e-01
1.1599999999999975e+01 +8.1611902023739233e+00 +0.0000000000000000e+00 +1.1599999165829392e+01 -6.5686382747730926e-04 +0.0000000000000000e+00 +9.9999978426493241e-01
1.1699999999999974e+01 +8.1611242328541742e+00 +0.0000000000000000e+00 +1.1699999144069368e+01 -6.6252656825878896e-04 +0.0000000000000000e+00 +9.9999978052924865e-01
1.1799999999999974e+01 +8.1610576970601194e+00 +0.0000000000000000e+00 +1.1799999121934173e+01 -6.6818931357056157e-04 +0.0000000000000000e+00 +9.9999977676149521e-01
