# multipoles
# s[mm] polynom_b[n=0][T/m^n] polynom_b[n=1][T/m^n] polynom_b[n=2][T/m^n] polynom_b[n=3][T/m^n] polynom_b[n=4][T/m^n] polynom_b[n=5][T/m^n] polynom_b[n=6][T/m^n] 
+0.0000000000000000e+00 -5.9275591224794510e-01 +8.1212662297864640e+00 +2.2995964526871304e-01 +8.8176627992068131e+00 -2.5118400578034957e+03 -1.6876912039904465e+05 -1.5654163270221052e+06 
+1.0000000000000001e-01 -5.9275600225165481e-01 +8.1213012252581933e+00 +2.3035581276618403e-01 +8.0677396560898078e+00 -2.5002917581701699e+03 -1.6502343667000410e+05 -1.6248250733055947e+06 
+2.0000000000000001e-01 -5.9275609381826577e-01 +8.1213344282968780e+00 +2.3055074255749694e-01 +7.3355989126894015e+00 -2.4875838728433250e+03 -1.6132548334805769e+05 -1.6826974609516682e+06 
+2.9999999999999999e-01 -5.9275618626632542e-01 +8.1213658941526514e+00 +2.3054436961665509e-01 +6.6220201441448854e+00 -2.4736543798107396e+03 -1.5768397130094707e+05 -1.7399839615983432e+06 
+4.0000000000000002e-01 -5.9275627891451377e-01 +8.1213956780758885e+00 +2.3033663284157352e-01 +5.9277829455024369e+00 -2.4584413344840982e+03 -1.5410761160198352e+05 -1.7976346724032420e+06 
+5.0000000000000000e-01 -5.9275637108137291e-01 +8.1214238353204280e+00 +2.2992746563630756e-01 +5.2536668216439271e+00 -2.4418826917703846e+03 -1.5060511483657584e+05 -1.8566001592301708e+06 
+5.9999999999999998e-01 -5.9275646208553712e-01 +8.1214504211390626e+00 +2.2931680587848463e-01 +4.6004513326445426e+00 -2.4239164924488064e+03 -1.4718519196166209e+05 -1.9178305791045802e+06 
+6.9999999999999996e-01 -5.9275655124556004e-01 +8.1214754907863504e+00 +2.2850458904304591e-01 +3.9689160067691551e+00 -2.4044807350768119e+03 -1.4385655378455087e+05 -1.9822762784398359e+06 
+8.0000000000000004e-01 -5.9275663788000965e-01 +8.1214990995206708e+00 +2.2749074871623892e-01 +3.3598402803847449e+00 -2.3835133799870873e+03 -1.4062791059187977e+05 -2.0508877939371804e+06 
+9.0000000000000002e-01 -5.9275672130744839e-01 +8.1215213025969266e+00 +2.2627521841221163e-01 +2.7740037151312547e+00 -2.3609523913761454e+03 -1.3750797341417611e+05 -2.1246156282960773e+06 
+1.0000000000000000e+00 -5.9275680084646154e-01 +8.1215421552732003e+00 +2.2485793388783343e-01 +2.2121858086331412e+00 -2.3367357722605252e+03 -1.3450545292893186e+05 -2.2044101078394456e+06 
+1.1000000000000001e+00 -5.9275687581566083e-01 +8.1215617128056081e+00 +2.2323882757180505e-01 +1.6751661432176446e+00 -2.3108014676228418e+03 -1.3162906030547243e+05 -2.2912218200364187e+06 
+1.2000000000000000e+00 -5.9275694553351466e-01 +8.1215800304528525e+00 +2.2141783157459938e-01 +1.1637242346255874e+00 -2.2830874095996132e+03 -1.2888750625867478e+05 -2.3860014298619647e+06 
+1.3000000000000000e+00 -5.9275700931858599e-01 +8.1215971634710300e+00 +2.1939487588530882e-01 +6.7863972503762093e-01 -2.2535314977986754e+03 -1.2628950228352034e+05 -2.4896997331070774e+06 
+1.3999999999999999e+00 -5.9275706648944981e-01 +8.1216131671187863e+00 +2.1716989106163262e-01 +2.2069219970711587e-01 -2.2220716360447814e+03 -1.2384375947069054e+05 -2.6032675203579213e+06 
+1.5000000000000000e+00 -5.9275711636463457e-01 +8.1216280966487382e+00 +2.1474280906510101e-01 -2.0933854689701961e-01 -2.1886457543301335e+03 -1.2155899009854160e+05 -2.7276554553633891e+06 
+1.6000000000000001e+00 -5.9275715826263753e-01 +8.1216420073204141e+00 +2.1211355417069469e-01 -6.1067289725452101e-01 -2.1531916369458404e+03 -1.1944390534023664e+05 -2.8638148914296213e+06 
+1.7000000000000000e+00 -5.9275719150202111e-01 +8.1216549543856011e+00 +2.0928205802080208e-01 -9.8253096716297661e-01 -2.1156472051237874e+03 -1.1750721788155547e+05 -3.0126965316089829e+06 
+1.8000000000000000e+00 -5.9275721540129478e-01 +8.1216669930974934e+00 +2.0624824203535944e-01 -1.3241328833981105e+00 -2.0759501849442563e+03 -1.1575764026431450e+05 -3.1752520080127097e+06 
+1.8999999999999999e+00 -5.9275722927895558e-01 +8.1216781787073824e+00 +2.0301203202795412e-01 -1.6346986870863909e+00 -2.0340383810110279e+03 -1.1420388543097497e+05 -3.3524325841970989e+06 
+2.0000000000000000e+00 -5.9275723245355849e-01 +8.1216885664653855e+00 +1.9957335394582770e-01 -1.9134483415094810e+00 -1.9898496004121080e+03 -1.1285466670534937e+05 -3.5451895087648258e+06 
+2.1000000000000001e+00 -5.9275722458795532e-01 +8.1216982170766947e+00 +1.9593674360430571e-01 -2.1601914732379659e+00 -1.9433616458283734e+03 -1.1171427673858927e+05 -3.7541713041053605e+06 
+2.2000000000000002e+00 -5.9275720672681753e-01 +8.1217072166933288e+00 +1.9212568634921412e-01 -2.3770944653856034e+00 -1.8947162127375500e+03 -1.1076975545378601e+05 -3.9788160636050957e+06 
+2.2999999999999998e+00 -5.9275718026109148e-01 +8.1217156587280996e+00 +1.8816851500814449e-01 -2.5669125163894404e+00 -1.8440966715512714e+03 -1.1000393557399513e+05 -4.2182603552883156e+06 
+2.3999999999999999e+00 -5.9275714658177003e-01 +8.1217236365909713e+00 +1.8409356056256460e-01 -2.7324007955664693e+00 -1.7916863542273295e+03 -1.0939964985599238e+05 -4.4716409415947692e+06 
+2.5000000000000000e+00 -5.9275710707981710e-01 +8.1217312436929863e+00 +1.7992915762051984e-01 -2.8763145440709907e+00 -1.7376686627506811e+03 -1.0893973055911265e+05 -4.7380942485928396e+06 
+2.6000000000000001e+00 -5.9275706314618226e-01 +8.1217385734448566e+00 +1.7570363879919079e-01 -3.0014090591653972e+00 -1.6822269606778591e+03 -1.0860700948191871e+05 -5.0167568884376157e+06 
+2.7000000000000002e+00 -5.9275701617194754e-01 +8.1217457192486666e+00 +1.7144533832165004e-01 -3.1104394549843848e+00 -1.6255446402454265e+03 -1.0838431935485230e+05 -5.3067653435227657e+06 
+2.7999999999999998e+00 -5.9275696754803464e-01 +8.1217527745099147e+00 +1.6718259259994731e-01 -3.2061610181553037e+00 -1.5678051373756241e+03 -1.0825449177141102e+05 -5.6072558855345398e+06 
+2.8999999999999999e+00 -5.9275691866550018e-01 +8.1217598326300493e+00 +1.6294373603837708e-01 -3.2913289939437185e+00 -1.5091918467731830e+03 -1.0820035844476365e+05 -5.9173649922179757e+06 
+3.0000000000000000e+00 -5.9275687091533402e-01 +8.1217669870039551e+00 +1.5875710569443932e-01 -3.3686985266785805e+00 -1.4498882145854043e+03 -1.0820475151052789e+05 -6.2362288972787810e+06 
+3.1000000000000001e+00 -5.9275682568856936e-01 +8.1217743310327837e+00 +1.5465104021825066e-01 -3.4410250471775057e+00 -1.3900777164893750e+03 -1.0825050127550949e+05 -6.5629836985674538e+06 
+3.2000000000000002e+00 -5.9275678437627322e-01 +8.1217819581056965e+00 +1.5065387906311400e-01 -3.5110637285296074e+00 -1.3299438455335619e+03 -1.0832043940520780e+05 -6.8967654100165749e+06 
+3.2999999999999998e+00 -5.9275674836942216e-01 +8.1217899616165390e+00 +1.4679396047111118e-01 -3.5815699985855631e+00 -1.2696700659416847e+03 -1.0839739589814722e+05 -7.2367102012693053e+06 
+3.3999999999999999e+00 -5.9275671905919269e-01 +8.1217984349474488e+00 +1.4309962971733858e-01 -3.6552990581351081e+00 -1.2094399796239391e+03 -1.0846420190581885e+05 -7.5819535812036758e+06 
+3.5000000000000000e+00 -5.9275669783655738e-01 +8.1218074714871165e+00 +1.3959922863572632e-01 -3.7350064291640472e+00 -1.1494371231023767e+03 -1.0850368651588900e+05 -7.9316313743168730e+06 
+3.6000000000000001e+00 -5.9275668609267163e-01 +8.1218171646113539e+00 +1.3632110294874900e-01 -3.8234473914789806e+00 -1.0898451032544208e+03 -1.0849868003161394e+05 -8.2848790851254342e+06 
+3.7000000000000002e+00 -5.9275668521862213e-01 +8.1218276077010376e+00 +1.3329360124422870e-01 -3.9233775007061489e+00 -1.0308475846169904e+03 -1.0843201098901268e+05 -8.6408319403398652e+06 
+3.7999999999999998e+00 -5.9275669660552699e-01 +8.1218388941307502e+00 +1.3054507161736523e-01 -4.0375522886273236e+00 -9.7262821926340052e+02 -1.0828650782251629e+05 -8.9986252401723750e+06 
+3.8999999999999999e+00 -5.9275672164452053e-01 +8.1218511172637715e+00 +1.2810386470862808e-01 -4.1687271108343715e+00 -9.1537071061180563e+02 -1.0804499978376050e+05 -9.3573940387291610e+06 
+4.0000000000000000e+00 -5.9275676172680480e-01 +8.1218643704691313e+00 +1.2599833545860462e-01 -4.3196576520764696e+00 -8.5925884048422790e+02 -1.0769031401647528e+05 -9.7162730349954441e+06 
+4.0999999999999996e+00 -5.9275681784554479e-01 +8.1218787195690663e+00 +1.2424793282860132e-01 -4.4922309857875398e+00 -8.0445674895131356e+02 -1.0721112948319330e+05 -1.0074387108488802e+07 
+4.2000000000000002e+00 -5.9275688939415316e-01 +8.1218941092464565e+00 +1.2283615006343677e-01 -4.6846092471545102e+00 -7.5105184541174219e+02 -1.0662016589089883e+05 -1.0430772615969382e+07 
+4.2999999999999998e+00 -5.9275697536407601e-01 +8.1219104511202076e+00 +1.2173743482860502e-01 -4.8939587134836398e+00 -6.9911340354540255e+02 -1.0593632836318870e+05 -1.0784429546827093e+07 
+4.4000000000000004e+00 -5.9275707474689143e-01 +8.1219276568089906e+00 +1.2092623546891369e-01 -5.1174455545884570e+00 -6.4871070530586042e+02 -1.0517852288846280e+05 -1.1134357851562679e+07 
+4.5000000000000000e+00 -5.9275718653405229e-01 +8.1219456379465722e+00 +1.2037699591576109e-01 -5.3522362337327118e+00 -5.9991295114423872e+02 -1.0436565410633115e+05 -1.1479557849433808e+07 
+4.5999999999999996e+00 -5.9275730971701768e-01 +8.1219643061619422e+00 +1.2006415668462121e-01 -5.5954969747828924e+00 -5.5278927408568666e+02 -1.0351662828097928e+05 -1.1819030174776262e+07 
+4.7000000000000002e+00 -5.9275744328730862e-01 +8.1219835730951129e+00 +1.1996216215032776e-01 -5.8443941643297856e+00 -5.0740888016881775e+02 -1.0265035111697073e+05 -1.2151775100711772e+07 
+4.7999999999999998e+00 -5.9275758623633723e-01 +8.1220033503838476e+00 +1.2004545000800933e-01 -6.0960939773517149e+00 -4.6384084734147172e+02 -1.0178572990511585e+05 -1.2476793499040166e+07 
+4.9000000000000004e+00 -5.9275773755552197e-01 +8.1220235496835702e+00 +1.2028845511392071e-01 -6.3477629577206489e+00 -4.2215420172624886e+02 -1.0094167012478455e+05 -1.2793086465512438e+07 
+5.0000000000000000e+00 -5.9275789623631314e-01 +8.1220440826448073e+00 +1.2066561518264551e-01 -6.5965673238338116e+00 -3.8241801557443659e+02 -1.0013707960097952e+05 -1.3099654884043539e+07 
+5.0999999999999996e+00 -5.9275806127012798e-01 +8.1220648609276793e+00 +1.2115136079872914e-01 -6.8396734016936627e+00 -3.4470123378060686e+02 -9.9390865933611494e+04 -1.3395500204377513e+07 
+5.2000000000000002e+00 -5.9275823164831409e-01 +8.1220857962044963e+00 +1.2172012000727833e-01 -7.0742476877149318e+00 -3.0907274602426753e+02 -9.8721936174574890e+04 -1.3679624139745383e+07 
+5.2999999999999998e+00 -5.9275840636226707e-01 +8.1221068001459589e+00 +1.2234632320949598e-01 -7.2974564363286625e+00 -2.7560148718178016e+02 -9.8149199243273790e+04 -1.3951028170168545e+07 
+5.4000000000000004e+00 -5.9275858440333917e-01 +8.1221277844373692e+00 +1.2300439136829408e-01 -7.5064661131646941e+00 -2.4435621317935417e+02 -9.7691563338769134e+04 -1.4208714605773546e+07 
+5.5000000000000000e+00 -5.9275876476281031e-01 +8.1221486607688806e+00 +1.2366874690492988e-01 -7.6984431201290411e+00 -2.1540570469306138e+02 -9.7367937519358762e+04 -1.4451685627344521e+07 
+5.5999999999999996e+00 -5.9275894643208071e-01 +8.1221693408391360e+00 +1.2431380884513780e-01 -7.8705538799519976e+00 -1.8881867976329269e+02 -9.7197231251939040e+04 -1.4678943688306153e+07 
+5.7000000000000002e+00 -5.9275912840234013e-01 +8.1221897363510696e+00 +1.2491399100942238e-01 -8.0199647008580506e+00 -1.6466375243073361e+02 -9.7198355243418002e+04 -1.4889491728281870e+07 
+5.7999999999999998e+00 -5.9275930966491730e-01 +8.1222097590263189e+00 +1.2544370660989412e-01 -8.1438422021326566e+00 -1.4300952917632691e+02 -9.7390218932010393e+04 -1.5082332691263530e+07 
+5.9000000000000004e+00 -5.9275948921099153e-01 +8.1222293205860048e+00 +1.2587736376493316e-01 -8.2393527293826203e+00 -1.2392451457991535e+02 -9.7791733965706560e+04 -1.5256469996040031e+07 
+5.9999999999999902e+00 -5.9275966603186103e-01 +8.1222483327668336e+00 +1.2618936690734242e-01 -8.3036628201862523e+00 -1.0747714293504704e+02 -9.8421811433872077e+04 -1.5410907368058754e+07 
+6.0999999999999899e+00 -5.9275983940300825e-01 +8.1222667020964376e+00 +1.2636305920403013e-01 -8.3343487475132498e+00 -9.3773576709356107e+01 -9.9295317906126656e+04 -1.5544597702386150e+07 
+6.1999999999999904e+00 -5.9276000974604004e-01 +8.1222843254261647e+00 +1.2641891010623468e-01 -8.3309690934759555e+00 -8.3077024002376149e+01 -1.0040979822705059e+05 -1.5656339661216484e+07 
+6.2999999999999901e+00 -5.9276017777121404e-01 +8.1223011000362444e+00 +1.2638698626272787e-01 -8.2936692589761876e+00 -7.5690620664302614e+01 -1.0175813798212608e+05 -1.5744908603046922e+07 
+6.3999999999999897e+00 -5.9276034418873680e-01 +8.1223169231991683e+00 +1.2629735384617374e-01 -8.2225944588810123e+00 -7.1917503019067681e+01 -1.0333322394842586e+05 -1.5809079872624237e+07 
+6.4999999999999902e+00 -5.9276050970873062e-01 +8.1223316921860107e+00 +1.2618007803111270e-01 -8.1178899501121524e+00 -7.2060796908127713e+01 -1.0512794258157224e+05 -1.5847628860490795e+07 
+6.5999999999999899e+00 -5.9276067504143670e-01 +8.1223453042621205e+00 +1.2606522615215898e-01 -7.9797008789890116e+00 -7.6423679427559719e+01 -1.0713518100051282e+05 -1.5859330703452632e+07 
+6.6999999999999904e+00 -5.9276084089698811e-01 +8.1223576566904505e+00 +1.2598286579310514e-01 -7.8081723952208346e+00 -8.5309344083716312e+01 -1.0934782627925577e+05 -1.5842960449899863e+07 
+6.7999999999999901e+00 -5.9276100798551257e-01 +8.1223686467268532e+00 +1.2596306186902814e-01 -7.6034495135403892e+00 -9.9020941297450122e+01 -1.1175876626334015e+05 -1.5797293351725297e+07 
+6.8999999999999897e+00 -5.9276117701713549e-01 +8.1223781716237688e+00 +1.2603588217203637e-01 -7.3656772306502054e+00 -1.1786168974393304e+02 -1.1436088886430014e+05 -1.5721104323506121e+07 
+6.9999999999999902e+00 -5.9276134870200992e-01 +8.1223861286241839e+00 +1.2623139627372482e-01 -7.0950003647437114e+00 -1.4213485128619092e+02 -1.1714708296531785e+05 -1.5613168069625130e+07 
+7.0999999999999899e+00 -5.9276152375017221e-01 +8.1223924149722802e+00 +1.2657966910498353e-01 -6.7915638222014554e+00 -1.7214360957305840e+02 -1.2011023699062293e+05 -1.5472259665169025e+07 
+7.1999999999999904e+00 -5.9276170287172114e-01 +8.1223969278995600e+00 +1.2711077329359421e-01 -6.4555122747054208e+00 -2.0819131337843174e+02 -1.2324324056111768e+05 -1.5297153371796336e+07 
+7.2999999999999901e+00 -5.9276188677672348e-01 +8.1223995646362788e+00 +1.2785477542897930e-01 -6.0869904163372670e+00 -2.5058120060665485e+02 -1.2653898323485273e+05 -1.5086623994327322e+07 
+7.3999999999999897e+00 -5.9276207617515808e-01 +8.1224002224028666e+00 +1.2884174586633107e-01 -5.6861427814069820e+00 -2.9961659875543069e+02 -1.2999035535576724e+05 -1.4839445890126275e+07 
+7.4999999999999902e+00 -5.9276227177713592e-01 +8.1223987984163504e+00 +1.3010175584700448e-01 -5.2531138994929556e+00 -3.5560086514828532e+02 -1.3359024727532995e+05 -1.4554393265328914e+07 
+7.5999999999999899e+00 -5.9276247429255757e-01 +8.1223951898826563e+00 +1.3166487519135064e-01 -4.7880480862625259e+00 -4.1883733993649128e+02 -1.3733155051351056e+05 -1.4230240411003290e+07 
+7.6999999999999904e+00 -5.9276268443144098e-01 +8.1223892940080038e+00 +1.3356117732732481e-01 -4.2910897836150035e+00 -4.8962945046305873e+02 -1.4120715577965442e+05 -1.3865761181537945e+07 
+7.7999999999999901e+00 -5.9276290290375799e-01 +8.1223810079841137e+00 +1.3582073256095742e-01 -3.7623831293384038e+00 -5.6828057448321363e+02 -1.4520995546621282e+05 -1.3459729671923224e+07 
+7.8999999999999897e+00 -5.9276313041943629e-01 +8.1223702289994364e+00 +1.3847361696981608e-01 -3.2020722722875590e+00 -6.5509421841401456e+02 -1.4933284186668877e+05 -1.3010919344143199e+07 
+7.9999999999999902e+00 -5.9276336768839888e-01 +8.1223568542338089e+00 +1.4154990177273735e-01 -2.6103012513773138e+00 -7.5037380647365501e+02 -1.5356870779564188e+05 -1.2518104059869025e+07 
+8.0999999999999908e+00 -5.9276361519149989e-01 +8.1223408243071749e+00 +1.4506471545527758e-01 -1.9877868496587443e+00 -8.5418688322812136e+02 -1.5790843728178806e+05 -1.1981136640083430e+07 
+8.1999999999999904e+00 -5.9276387249552587e-01 +8.1223222568935434e+00 +1.4897126513094186e-01 -1.3376644740474457e+00 -9.6563016630707170e+02 -1.6233370489415005e+05 -1.1404279740951372e+07 
+8.2999999999999901e+00 -5.9276413893901925e-01 +8.1223013148496701e+00 +1.5320672311605962e-01 -6.6370441071385655e-01 -1.0835503185417394e+03 -1.6682360131821808e+05 -1.0792926362949939e+07 
+8.3999999999999897e+00 -5.9276441386062673e-01 +8.1222781610396009e+00 +1.5770827102304100e-01 +3.0322786054357242e-02 -1.2067941753771599e+03 -1.7135721537862517e+05 -1.0152468720289992e+07 
+8.4999999999999893e+00 -5.9276469659901432e-01 +8.1222529583391800e+00 +1.6241308900395562e-01 +7.4064618657817827e-01 -1.3342085415937622e+03 -1.7591363354168608e+05 -9.4882991965554990e+06 
+8.5999999999999908e+00 -5.9276498649286147e-01 +8.1222258696432590e+00 +1.6725836587868634e-01 +1.4634942592088767e+00 -1.4646403791285420e+03 -1.8047193854765719e+05 -8.8058094674314708e+06 
+8.6999999999999904e+00 -5.9276528288088348e-01 +8.1221970578519382e+00 +1.7218129085982575e-01 +2.1950952633336356e+00 -1.5969366530277996e+03 -1.8501121167255941e+05 -8.1103912229438191e+06 
+8.7999999999999794e+00 -5.9276558510187238e-01 +8.1221666858799519e+00 +1.7711906266303618e-01 +2.9316769942499050e+00 -1.7299445036786203e+03 -1.8951053129046789e+05 -7.4074353521077670e+06 
+8.8999999999999808e+00 -5.9276589249465239e-01 +8.1221349166569414e+00 +1.8200887918197703e-01 +3.6694667515360413e+00 -1.8625110453901145e+03 -1.9394897261745360e+05 -6.7023329148591859e+06 
+8.9999999999999805e+00 -5.9276620439804839e-01 +8.1221019131249470e+00 +1.8678794632539653e-01 +4.4046914294030897e+00 -1.9934835450608055e+03 -1.9830560828378500e+05 -6.0004742641895590e+06 
+9.0999999999999801e+00 -5.9276652015095355e-01 +8.1220678382415414e+00 +1.9139347381628910e-01 +5.1335774090484465e+00 -2.1217093313391629e+03 -2.0255950765146507e+05 -5.3072495075322576e+06 
+9.1999999999999797e+00 -5.9276683909232664e-01 +8.1220328549770091e+00 +1.9576267888998700e-01 +5.8523506516763986e+00 -2.2460358676586129e+03 -2.0668973739362526e+05 -4.6280481533153756e+06 
+9.2999999999999794e+00 -5.9276716056114931e-01 +8.1219971263157227e+00 +1.9983277809899230e-01 +6.5572366479921289e+00 -2.3653106017736814e+03 -2.1067536115303379e+05 -3.9682598124385863e+06 
+9.3999999999999808e+00 -5.9276748389644085e-01 +8.1219608152594827e+00 +2.0354099882388876e-01 +7.2444603349868615e+00 -2.4783811747888249e+03 -2.1449543910325688e+05 -3.3332732302387217e+06 
+9.4999999999999805e+00 -5.9276780843727506e-01 +8.1219240848247374e+00 +2.0682457123151035e-01 +7.9102461415416183e+00 -2.5840952761590115e+03 -2.1812902809990200e+05 -2.7284769548138110e+06 
+9.5999999999999801e+00 -5.9276813352279112e-01 +8.1218870980414941e+00 +2.0962073346817231e-01 +8.5508180649022396e+00 -2.6813007397114975e+03 -2.2155518226341245e+05 -2.1592588910937291e+06 
+9.6999999999999797e+00 -5.9276845849217885e-01 +8.1218500179593427e+00 +2.1186672482680988e-01 +9.1623994577731427e+00 -2.7688454095997549e+03 -2.2475295161485349e+05 -1.6310069449947069e+06 
+9.7999999999999794e+00 -5.9276878268464828e-01 +8.1218130076408919e+00 +2.1349979459920357e-01 +9.7412132319437355e+00 -2.8455773153553650e+03 -2.2770138330223257e+05 -1.1491081779317746e+06 
+9.8999999999999808e+00 -5.9276910543948014e-01 +8.1217762301703704e+00 +2.1445719600112481e-01 +1.0283481609315796e+01 -2.9103445493578920e+03 -2.3037952013710033e+05 -7.1894940559268021e+05 
+9.9999999999999805e+00 -5.9276942609603833e-01 +8.1217398486441965e+00 +2.1467618853883905e-01 +1.0785426412933594e+01 -2.9619953131152579e+03 -2.3276640236299697e+05 -3.4591698013154970e+05 
+1.0100000000000000e+01 -5.9276974417388795e-01 +8.1217039922358456e+00 +2.1411449506286140e-01 +1.1244549744503994e+01 -2.9997213803994732e+03 -2.3484880915620705e+05 -3.3933945668763234e+04 
