# field on trajectory
# s[mm] rx[mm] ry[mm] rz[mm] bx[T] by[T] bz[T]
-0.0000000000000000e+00 +8.1530000000000094e+00 +0.0000000000000000e+00 -0.0000000000000000e+00 -3.1456546061827809e-02 -5.9277170657890432e-01 +5.9337811350249903e-03
-1.0000000000000001e-01 +8.1529997159377707e+00 +0.0000000000000000e+00 -1.0008006405070299e-01 -3.1456521821686984e-02 -5.9277167252719498e-01 +5.9338547430975164e-03
-2.0000000000000001e-01 +8.1529988637557800e+00 +0.0000000000000000e+00 -2.0016012809818201e-01 -3.1456492417967198e-02 -5.9277164419143358e-01 +5.9339284467104661e-03
-2.9999999999999999e-01 +8.1529974434524792e+00 +0.0000000000000000e+00 -3.0024019213920999e-01 -3.1456458670492002e-02 -5.9277162127371863e-01 +5.9340023590272383e-03
-4.0000000000000002e-01 +8.1529954550242092e+00 +0.0000000000000000e+00 -4.0032025617056399e-01 -3.1456421399082529e-02 -5.9277160347615576e-01 +5.9340765932110870e-03
-5.0000000000000000e-01 +8.1529928984782600e+00 +0.0000000000000000e+00 -5.0040032018901703e-01 -3.1456381423552927e-02 -5.9277159050075168e-01 +5.9341512624239484e-03
-5.9999999999999998e-01 +8.1529897738146193e+00 +0.0000000000000000e+00 -6.0048038419134497e-01 -3.1456339563720168e-02 -5.9277158204956559e-01 +5.9342264798278943e-03
-6.9999999999999996e-01 +8.1529860810223909e+00 +0.0000000000000000e+00 -7.0056044817432195e-01 -3.1456296639407001e-02 -5.9277157782473822e-01 +5.9343023585853392e-03
-8.0000000000000004e-01 +8.1529818201124709e+00 +0.0000000000000000e+00 -8.0064051213472498e-01 -3.1456253470428616e-02 -5.9277157752822895e-01 +5.9343790118562634e-03
-9.0000000000000002e-01 +8.1529769910812302e+00 +0.0000000000000000e+00 -9.0072057606932698e-01 -3.1456210876610602e-02 -5.9277158086211146e-01 +5.9344565528011350e-03
-1.0000000000000000e+00 +8.1529715939250291e+00 +0.0000000000000000e+00 -1.0008006399749001e+00 -3.1456169677783641e-02 -5.9277158752845771e-01 +5.9345350945796509e-03
-1.1000000000000001e+00 +8.1529656286511507e+00 +0.0000000000000000e+00 -1.1008807038482300e+00 -3.1456130693780185e-02 -5.9277159722925066e-01 +5.9346147503497376e-03
-1.2000000000000000e+00 +8.1529590952522994e+00 +0.0000000000000000e+00 -1.2009607676860801e+00 -3.1456094744447258e-02 -5.9277160966659248e-01 +5.9346956332695889e-03
-1.3000000000000000e+00 +8.1529519937357708e+00 +0.0000000000000000e+00 -1.3010408314852300e+00 -3.1456062649634783e-02 -5.9277162454246879e-01 +5.9347778564951782e-03
-1.3999999999999999e+00 +8.1529443240979198e+00 +0.0000000000000000e+00 -1.4011208952424601e+00 -3.1456035229208534e-02 -5.9277164155895801e-01 +5.9348615331822913e-03
-1.5000000000000000e+00 +8.1529360863350995e+00 +0.0000000000000000e+00 -1.5012009589545301e+00 -3.1456013303046648e-02 -5.9277166041814466e-01 +5.9349467764855590e-03
-1.6000000000000001e+00 +8.1529272804509691e+00 +0.0000000000000000e+00 -1.6012810226182299e+00 -3.1455997691037747e-02 -5.9277168082205989e-01 +5.9350336995577548e-03
-1.7000000000000000e+00 +8.1529179064491508e+00 +0.0000000000000000e+00 -1.7013610862303301e+00 -3.1455989213085608e-02 -5.9277170247274336e-01 +5.9351224155503304e-03
-1.8000000000000000e+00 +8.1529079643223703e+00 +0.0000000000000000e+00 -1.8014411497875999e+00 -3.1455988689115651e-02 -5.9277172507233267e-01 +5.9352130376142563e-03
-1.8999999999999999e+00 +8.1528974540779000e+00 +0.0000000000000000e+00 -1.9015212132868200e+00 -3.1455996939064708e-02 -5.9277174832285850e-01 +5.9353056788978105e-03
-2.0000000000000000e+00 +8.1528863757084800e+00 +0.0000000000000000e+00 -2.0016012767247702e+00 -3.1456014782894628e-02 -5.9277177192648323e-01 +5.9354004525487515e-03
-2.1000000000000001e+00 +8.1528747292177304e+00 +0.0000000000000000e+00 -2.1016813400982199e+00 -3.1456042743656751e-02 -5.9277179587204520e-01 +5.9354974233733144e-03
-2.2000000000000002e+00 +8.1528625146056601e+00 +0.0000000000000000e+00 -2.2017614034039301e+00 -3.1456080212358073e-02 -5.9277182124168570e-01 +5.9355964718801769e-03
-2.2999999999999998e+00 +8.1528497318759001e+00 +0.0000000000000000e+00 -2.3018414666387002e+00 -3.1456126310251825e-02 -5.9277184937802085e-01 +5.9356974346631364e-03
-2.3999999999999999e+00 +8.1528363810211903e+00 +0.0000000000000000e+00 -2.4019215297993002e+00 -3.1456180158589274e-02 -5.9277188162375405e-01 +5.9358001483171587e-03
-2.5000000000000000e+00 +8.1528224620451493e+00 +0.0000000000000000e+00 -2.5020015928824901e+00 -3.1456240878608190e-02 -5.9277191932149798e-01 +5.9359044494366993e-03
-2.6000000000000001e+00 +8.1528079749477893e+00 +0.0000000000000000e+00 -2.6020816558850601e+00 -3.1456307591537495e-02 -5.9277196381389186e-01 +5.9360101746170468e-03
-2.7000000000000002e+00 +8.1527929197291105e+00 +0.0000000000000000e+00 -2.7021617188037701e+00 -3.1456379418593958e-02 -5.9277201644357103e-01 +5.9361171604541546e-03
-2.7999999999999998e+00 +8.1527772963891003e+00 +0.0000000000000000e+00 -2.8022417816354102e+00 -3.1456455480980389e-02 -5.9277207855316771e-01 +5.9362252435447762e-03
-2.8999999999999999e+00 +8.1527611049277802e+00 +0.0000000000000000e+00 -2.9023218443767500e+00 -3.1456534899883849e-02 -5.9277215148530915e-01 +5.9363342604865947e-03
-3.0000000000000000e+00 +8.1527443453451305e+00 +0.0000000000000000e+00 -3.0024019070245598e+00 -3.1456616796473894e-02 -5.9277223658261735e-01 +5.9364440478783757e-03
-3.1000000000000001e+00 +8.1527270176411495e+00 +0.0000000000000000e+00 -3.1024819695756198e+00 -3.1456700291900744e-02 -5.9277233518770922e-01 +5.9365544423200765e-03
-3.2000000000000002e+00 +8.1527091218158603e+00 +0.0000000000000000e+00 -3.2025620320267101e+00 -3.1456784507293618e-02 -5.9277244864319545e-01 +5.9366652804130051e-03
-3.2999999999999998e+00 +8.1526906578692397e+00 +0.0000000000000000e+00 -3.3026420943745900e+00 -3.1456868563758830e-02 -5.9277257829167895e-01 +5.9367763987599352e-03
-3.3999999999999999e+00 +8.1526716258013003e+00 +0.0000000000000000e+00 -3.4027221566160502e+00 -3.1456951582378136e-02 -5.9277272547575699e-01 +5.9368876339652562e-03
-3.5000000000000000e+00 +8.1526520256120403e+00 +0.0000000000000000e+00 -3.5028022187478500e+00 -3.1457032684206826e-02 -5.9277289153801838e-01 +5.9369988226351074e-03
-3.6000000000000001e+00 +8.1526318572978198e+00 +0.0000000000000000e+00 -3.6028822807667802e+00 -3.1457110990273734e-02 -5.9277307782107203e-01 +5.9371098013778021e-03
-3.7000000000000002e+00 +8.1526111208659096e+00 +0.0000000000000000e+00 -3.7029623426696099e+00 -3.1457185621572750e-02 -5.9277328566743137e-01 +5.9372204068027668e-03
-3.7999999999999998e+00 +8.1525898163126804e+00 +0.0000000000000000e+00 -3.8030424044531101e+00 -3.1457255699071006e-02 -5.9277351641968645e-01 +5.9373304755224775e-03
-3.8999999999999999e+00 +8.1525679436344909e+00 +0.0000000000000000e+00 -3.9031224661140600e+00 -3.1457320343702105e-02 -5.9277377142041954e-01 +5.9374398441517165e-03
-4.0000000000000000e+00 +8.1525455028386205e+00 +0.0000000000000000e+00 -4.0032025276492398e+00 -3.1457378676364486e-02 -5.9277405201209177e-01 +5.9375483493090105e-03
-4.0999999999999996e+00 +8.1525224939177896e+00 +0.0000000000000000e+00 -4.1032825890554099e+00 -3.1457429985996481e-02 -5.9277435885458174e-01 +5.9376559030775737e-03
-4.2000000000000002e+00 +8.1524989168792708e+00 +0.0000000000000000e+00 -4.2033626503293604e+00 -3.1457474172320227e-02 -5.9277469012657014e-01 +5.9377626917855152e-03
-4.2999999999999998e+00 +8.1524747717157897e+00 +0.0000000000000000e+00 -4.3034427114678504e+00 -3.1457511273788603e-02 -5.9277504344340248e-01 +5.9378689640432287e-03
-4.4000000000000004e+00 +8.1524500584346207e+00 +0.0000000000000000e+00 -4.4035227724676700e+00 -3.1457541328859473e-02 -5.9277541642031684e-01 +5.9379749684587346e-03
-4.5000000000000000e+00 +8.1524247770285001e+00 +0.0000000000000000e+00 -4.5036028333255800e+00 -3.1457564376010112e-02 -5.9277580667267993e-01 +5.9380809536399900e-03
-4.5999999999999996e+00 +8.1523989275046898e+00 +0.0000000000000000e+00 -4.6036828940383696e+00 -3.1457580453725202e-02 -5.9277621181575169e-01 +5.9381871681923873e-03
-4.7000000000000002e+00 +8.1523725098559208e+00 +0.0000000000000000e+00 -4.7037629546028104e+00 -3.1457589600511295e-02 -5.9277662946492182e-01 +5.9382938607210707e-03
-4.7999999999999998e+00 +8.1523455240894709e+00 +0.0000000000000000e+00 -4.8038430150156701e+00 -3.1457591854884809e-02 -5.9277705723547569e-01 +5.9384012798284229e-03
-4.9000000000000004e+00 +8.1523179701980606e+00 +0.0000000000000000e+00 -4.9039230752737302e+00 -3.1457587255386471e-02 -5.9277749274282976e-01 +5.9385096741164005e-03
-5.0000000000000000e+00 +8.1522898481889605e+00 +0.0000000000000000e+00 -5.0040031353737602e+00 -3.1457575840569296e-02 -5.9277793360229636e-01 +5.9386192921839966e-03
-5.0999999999999996e+00 +8.1522611580549000e+00 +0.0000000000000000e+00 -5.1040831953125396e+00 -3.1457557649013035e-02 -5.9277837742932193e-01 +5.9387303826295918e-03
-5.2000000000000002e+00 +8.1522318997995207e+00 +0.0000000000000000e+00 -5.2041632550868497e+00 -3.1457532719313903e-02 -5.9277882183927855e-01 +5.9388431940487242e-03
-5.2999999999999998e+00 +8.1522020734228100e+00 +0.0000000000000000e+00 -5.3042433146934496e+00 -3.1457501090092287e-02 -5.9277926444758589e-01 +5.9389579750352139e-03
-5.4000000000000004e+00 +8.1521716789247893e+00 +0.0000000000000000e+00 -5.4043233741291203e+00 -3.1457462799992404e-02 -5.9277970286967907e-01 +5.9390749741807490e-03
-5.5000000000000000e+00 +8.1521407163090807e+00 +0.0000000000000000e+00 -5.5044034333906504e+00 -3.1457417887681853e-02 -5.9278013472098301e-01 +5.9391944400745177e-03
-5.5999999999999996e+00 +8.1521091855684098e+00 +0.0000000000000000e+00 -5.6044834924747899e+00 -3.1457366391859455e-02 -5.9278055761702919e-01 +5.9393166213042980e-03
-5.7000000000000002e+00 +8.1520770867064094e+00 +0.0000000000000000e+00 -5.7045635513783299e+00 -3.1457308351246535e-02 -5.9278096917328005e-01 +5.9394417664545519e-03
-5.7999999999999998e+00 +8.1520444197231008e+00 +0.0000000000000000e+00 -5.8046436100980499e+00 -3.1457243804594748e-02 -5.9278136700524675e-01 +5.9395701241075471e-03
-5.9000000000000004e+00 +8.1520111846184609e+00 +0.0000000000000000e+00 -5.9047236686307096e+00 -3.1457172790685745e-02 -5.9278174872846268e-01 +5.9397019428429551e-03
-5.9999999999999902e+00 +8.1519773813925003e+00 +0.0000000000000000e+00 -6.0048037269731003e+00 -3.1457095348351782e-02 -5.9278211195854758e-01 +5.9398374712288206e-03
-6.0999999999999899e+00 +8.1519430100452208e+00 +0.0000000000000000e+00 -6.1048837851219799e+00 -3.1457011719655294e-02 -5.9278245499825566e-01 +5.9399768648766595e-03
-6.1999999999999904e+00 +8.1519080705766100e+00 +0.0000000000000000e+00 -6.2049638430741396e+00 -3.1456922850720673e-02 -5.9278277853106609e-01 +5.9401199573320242e-03
-6.2999999999999901e+00 +8.1518725629866804e+00 +0.0000000000000000e+00 -6.3050439008263499e+00 -3.1456829840057529e-02 -5.9278308375573996e-01 +5.9402665124386215e-03
-6.3999999999999897e+00 +8.1518364872754301e+00 +0.0000000000000000e+00 -6.4051239583753699e+00 -3.1456733786183230e-02 -5.9278337187106578e-01 +5.9404162940439416e-03
-6.4999999999999902e+00 +8.1517998434428591e+00 +0.0000000000000000e+00 -6.5052040157180002e+00 -3.1456635787622964e-02 -5.9278364407585871e-01 +5.9405690659994096e-03
-6.5999999999999899e+00 +8.1517626314889604e+00 +0.0000000000000000e+00 -6.6052840728510001e+00 -3.1456536942909945e-02 -5.9278390156896243e-01 +5.9407245921605598e-03
-6.6999999999999904e+00 +8.1517248514137499e+00 +0.0000000000000000e+00 -6.7053641297711399e+00 -3.1456438350585515e-02 -5.9278414554924908e-01 +5.9408826363872074e-03
-6.7999999999999901e+00 +8.1516865032135701e+00 +0.0000000000000000e+00 -6.8054441864752100e+00 -3.1456341109200883e-02 -5.9278437721565025e-01 +5.9410429625439201e-03
-6.8999999999999897e+00 +8.1516475868957095e+00 +0.0000000000000000e+00 -6.9055242429599701e+00 -3.1456246317310720e-02 -5.9278459776703873e-01 +5.9412053344989569e-03
-6.9999999999999902e+00 +8.1516081024565192e+00 +0.0000000000000000e+00 -7.0056042992222096e+00 -3.1456155073483136e-02 -5.9278480840240788e-01 +5.9413695161262894e-03
-7.0999999999999899e+00 +8.1515680498960101e+00 +0.0000000000000000e+00 -7.1056843552586999e+00 -3.1456068476293245e-02 -5.9278501032075315e-01 +5.9415352713045304e-03
-7.1999999999999904e+00 +8.1515274292141804e+00 +0.0000000000000000e+00 -7.2057644110662000e+00 -3.1455987624324944e-02 -5.9278520472110263e-01 +5.9417023639174137e-03
-7.2999999999999901e+00 +8.1514862404073902e+00 +0.0000000000000000e+00 -7.3058444666415099e+00 -3.1455913616172608e-02 -5.9278539280254794e-01 +5.9418705578542681e-03
-7.3999999999999897e+00 +8.1514444834829192e+00 +0.0000000000000000e+00 -7.4059245219813796e+00 -3.1455847550434762e-02 -5.9278557576412561e-01 +5.9420396170089792e-03
-7.4999999999999902e+00 +8.1514021584334806e+00 +0.0000000000000000e+00 -7.5060045770826100e+00 -3.1455790525725641e-02 -5.9278575480502682e-01 +5.9422093052822695e-03
-7.5999999999999899e+00 +8.1513592652663593e+00 +0.0000000000000000e+00 -7.6060846319419504e+00 -3.1455743640662150e-02 -5.9278593112435918e-01 +5.9423793865794536e-03
-7.6999999999999904e+00 +8.1513158039779192e+00 +0.0000000000000000e+00 -7.7061646865561997e+00 -3.1455707993875537e-02 -5.9278610592135661e-01 +5.9425496248127156e-03
-7.7999999999999901e+00 +8.1512717745681602e+00 +0.0000000000000000e+00 -7.8062447409221098e+00 -3.1455684684004954e-02 -5.9278628039526071e-01 +5.9427197839000802e-03
-7.8999999999999897e+00 +8.1512271770334301e+00 +0.0000000000000000e+00 -7.9063247950364799e+00 -3.1455674809700809e-02 -5.9278645574538014e-01 +5.9428896277661826e-03
-7.9999999999999902e+00 +8.1511820113773901e+00 +0.0000000000000000e+00 -8.0064048488960609e+00 -3.1455679469525641e-02 -5.9278663317098146e-01 +5.9430589203511878e-03
-8.0999999999999908e+00 +8.1511362776036496e+00 +0.0000000000000000e+00 -8.1064849024976393e+00 -3.1455699328635116e-02 -5.9278681376399966e-01 +5.9432274699649261e-03
-8.1999999999999904e+00 +8.1510899757086008e+00 +0.0000000000000000e+00 -8.2065649558379903e+00 -3.1455733620218182e-02 -5.9278699826169934e-01 +5.9433952314910518e-03
-8.2999999999999901e+00 +8.1510431056885899e+00 +0.0000000000000000e+00 -8.3066450089139003e+00 -3.1455781282110198e-02 -5.9278718732815217e-01 +5.9435621900370455e-03
-8.3999999999999897e+00 +8.1509956675508892e+00 +0.0000000000000000e+00 -8.4067250617221205e+00 -3.1455841252104273e-02 -5.9278738162730349e-01 +5.9437283307043351e-03
-8.4999999999999893e+00 +8.1509476612882299e+00 +0.0000000000000000e+00 -8.5068051142594392e+00 -3.1455912467961505e-02 -5.9278758182317637e-01 +5.9438936385902341e-03
-8.5999999999999908e+00 +8.1508990869078808e+00 +0.0000000000000000e+00 -8.6068851665226305e+00 -3.1455993867396573e-02 -5.9278778857963299e-01 +5.9440580987853127e-03
-8.6999999999999904e+00 +8.1508499444025801e+00 +0.0000000000000000e+00 -8.7069652185084596e+00 -3.1456084388089611e-02 -5.9278800256061159e-01 +5.9442216963756424e-03
-8.7999999999999794e+00 +8.1508002337759500e+00 +0.0000000000000000e+00 -8.8070452702137203e+00 -3.1456182967673427e-02 -5.9278822442991563e-01 +5.9443844164404720e-03
-8.8999999999999808e+00 +8.1507499550316407e+00 +0.0000000000000000e+00 -8.9071253216351796e+00 -3.1456288543737193e-02 -5.9278845485130227e-01 +5.9445462440529465e-03
-8.9999999999999805e+00 +8.1506991081623692e+00 +0.0000000000000000e+00 -9.0072053727696098e+00 -3.1456400053830165e-02 -5.9278869448856919e-01 +5.9447071642808299e-03
-9.0999999999999801e+00 +8.1506476931717806e+00 +0.0000000000000000e+00 -9.1072854236137797e+00 -3.1456516435450430e-02 -5.9278894400537552e-01 +5.9448671621844858e-03
-9.1999999999999797e+00 +8.1505957100635005e+00 +0.0000000000000000e+00 -9.2073654741644795e+00 -3.1456636626048674e-02 -5.9278920406532931e-01 +5.9450262228175951e-03
-9.2999999999999794e+00 +8.1505431588302599e+00 +0.0000000000000000e+00 -9.3074455244184708e+00 -3.1456759563031907e-02 -5.9278947533207338e-01 +5.9451843312278820e-03
-9.3999999999999808e+00 +8.1504900394757005e+00 +0.0000000000000000e+00 -9.4075255743725297e+00 -3.1456884183752129e-02 -5.9278975846910797e-01 +5.9453414724550844e-03
-9.4999999999999805e+00 +8.1504363520034495e+00 +0.0000000000000000e+00 -9.5076056240234408e+00 -3.1457009425510239e-02 -5.9279005413987718e-01 +5.9454976315316856e-03
-9.5999999999999801e+00 +8.1503820964062506e+00 +0.0000000000000000e+00 -9.6076856733679694e+00 -3.1457134225559617e-02 -5.9279036300785592e-01 +5.9456527934836339e-03
-9.6999999999999797e+00 +8.1503272726913600e+00 +0.0000000000000000e+00 -9.7077657224029004e+00 -3.1457257521093226e-02 -5.9279068573634086e-01 +5.9458069433280030e-03
-9.7999999999999794e+00 +8.1502718808515109e+00 +0.0000000000000000e+00 -9.8078457711250007e+00 -3.1457378249255770e-02 -5.9279102298868702e-01 +5.9459600660752591e-03
-9.8999999999999808e+00 +8.1502159208903304e+00 +0.0000000000000000e+00 -9.9079258195310498e+00 -3.1457495347130701e-02 -5.9279137542809734e-01 +5.9461121467269144e-03
-9.9999999999999805e+00 +8.1501593928078400e+00 +0.0000000000000000e+00 -1.0008005867617801e+01 -3.1457607751847833e-02 -5.9279174371758681e-01 +5.9462631702828176e-03
-1.0100000000000000e+01 +8.1501022966040200e+00 +0.0000000000000000e+00 -1.0108085915382100e+01 -3.1457714651600382e-02 -5.9279212814317761e-01 +5.9464131370890582e-03
-1.0199999999999999e+01 +8.1500446322825209e+00 +0.0000000000000000e+00 -1.0208165962820599e+01 -3.1457816025909129e-02 -5.9279252780300740e-01 +5.9465620958739909e-03
-1.0300000000000001e+01 +8.1499863998360507e+00 +0.0000000000000000e+00 -1.0308246009930199e+01 -3.1457912009837552e-02 -5.9279294156185669e-01 +5.9467101048778885e-03
-1.0400000000000000e+01 +8.1499275992682705e+00 +0.0000000000000000e+00 -1.0408326056707599e+01 -3.1458002738502668e-02 -5.9279336828435136e-01 +5.9468572223448915e-03
-1.0500000000000000e+01 +8.1498682305791608e+00 +0.0000000000000000e+00 -1.0508406103149600e+01 -3.1458088347083316e-02 -5.9279380683508298e-01 +5.9470035065243643e-03
-1.0600000000000000e+01 +8.1498082937723701e+00 +0.0000000000000000e+00 -1.0608486149253000e+01 -3.1458168970818386e-02 -5.9279425607854530e-01 +5.9471490156704178e-03
-1.0699999999999999e+01 +8.1497477888406102e+00 +0.0000000000000000e+00 -1.0708566195014500e+01 -3.1458244745015039e-02 -5.9279471487925162e-01 +5.9472938080432696e-03
-1.0800000000000001e+01 +8.1496867157875403e+00 +0.0000000000000000e+00 -1.0808646240430900e+01 -3.1458315805040486e-02 -5.9279518210155779e-01 +5.9474379419075466e-03
-1.0900000000000000e+01 +8.1496250746131391e+00 +0.0000000000000000e+00 -1.0908726285499000e+01 -3.1458382286330126e-02 -5.9279565660977740e-01 +5.9475814755336380e-03
-1.1000000000000000e+01 +8.1495628653174208e+00 +0.0000000000000000e+00 -1.1008806330215601e+01 -3.1458444324387505e-02 -5.9279613726815050e-01 +5.9477244671975330e-03
-1.1100000000000000e+01 +8.1495000879040198e+00 +0.0000000000000000e+00 -1.1108886374577500e+01 -3.1458502054784281e-02 -5.9279662294081414e-01 +5.9478669751806441e-03
-1.1199999999999999e+01 +8.1494367423620098e+00 +0.0000000000000000e+00 -1.1208966418581401e+01 -3.1458555613170180e-02 -5.9279711249194744e-01 +5.9480090577714697e-03
-1.1300000000000001e+01 +8.1493728287059604e+00 +0.0000000000000000e+00 -1.1309046462224000e+01 -3.1458605135256210e-02 -5.9279760478544552e-01 +5.9481507732623822e-03
-1.1400000000000000e+01 +8.1493083469249505e+00 +0.0000000000000000e+00 -1.1409126505502300e+01 -3.1458650756839679e-02 -5.9279809868533140e-01 +5.9482921799540178e-03
-1.1500000000000000e+01 +8.1492432970226201e+00 +0.0000000000000000e+00 -1.1509206548412800e+01 -3.1458692613787372e-02 -5.9279859305543070e-01 +5.9484333361520762e-03
-1.1600000000000000e+01 +8.1491776789989707e+00 +0.0000000000000000e+00 -1.1609286590952600e+01 -3.1458730842045590e-02 -5.9279908675951609e-01 +5.9485743001689651e-03
-1.1699999999999999e+01 +8.1491114928576298e+00 +0.0000000000000000e+00 -1.1709366633118099e+01 -3.1458765577638347e-02 -5.9279957866124910e-01 +5.9487151303233305e-03
