# field on trajectory
# s[mm] rx[mm] ry[mm] rz[mm] bx[T] by[T] bz[T]
0.0000000000000000e+00 +8.1530000000000094e+00 +0.0000000000000000e+00 +0.0000000000000000e+00 -2.8152681479260099e-02 -5.3701438063599738e-01 +5.3641144190267184e-03
1.0000000000000001e-01 +8.1529997163925092e+00 +0.0000000000000000e+00 +9.9999999999463796e-02 -2.8152700664017455e-02 -5.3701396386384648e-01 +5.3641063025295539e-03
2.0000000000000001e-01 +8.1529988655711296e+00 +0.0000000000000000e+00 +1.9999999999571000e-01 -2.8152726519611621e-02 -5.3701356363425601e-01 +5.3640982890398202e-03
2.9999999999999999e-01 +8.1529974475415692e+00 +0.0000000000000000e+00 +2.9999999998552201e-01 -2.8152759158546658e-02 -5.3701317929104786e-01 +5.3640904198304310e-03
4.0000000000000002e-01 +8.1529954622965306e+00 +0.0000000000000000e+00 +3.9999999996568197e-01 -2.8152798693335250e-02 -5.3701281017813718e-01 +5.3640827361736273e-03
5.0000000000000000e-01 +8.1529929098396696e+00 +0.0000000000000000e+00 +4.9999999993297300e-01 -2.8152845236488248e-02 -5.3701245563935740e-01 +5.3640752793397660e-03
5.9999999999999998e-01 +8.1529897901673394e+00 +0.0000000000000000e+00 +5.9999999988417696e-01 -2.8152898900520872e-02 -5.3701211501859603e-01 +5.3640680905992612e-03
6.9999999999999996e-01 +8.1529861032831796e+00 +0.0000000000000000e+00 +6.9999999981607697e-01 -2.8152959797946048e-02 -5.3701178765968727e-01 +5.3640612112220761e-03
8.0000000000000004e-01 +8.1529818491871993e+00 +0.0000000000000000e+00 +7.9999999972545699e-01 -2.8153028041277652e-02 -5.3701147290649376e-01 +5.3640546824791123e-03
9.0000000000000002e-01 +8.1529770278793894e+00 +0.0000000000000000e+00 +8.9999999960909804e-01 -2.8153103743028190e-02 -5.3701117010288169e-01 +5.3640485456425196e-03
1.0000000000000000e+00 +8.1529716393597500e+00 +0.0000000000000000e+00 +9.9999999946378304e-01 -2.8153187015707796e-02 -5.3701087859271990e-01 +5.3640428419862683e-03
1.1000000000000001e+00 +8.1529656836210105e+00 +0.0000000000000000e+00 +1.0999999992862901e+00 -2.8153277971826134e-02 -5.3701059771993664e-01 +5.3640376127872926e-03
1.2000000000000000e+00 +8.1529591606740706e+00 +0.0000000000000000e+00 +1.1999999990734200e+00 -2.8153376723881306e-02 -5.3701032682833150e-01 +5.3640328993241303e-03
1.3000000000000000e+00 +8.1529520705153100e+00 +0.0000000000000000e+00 +1.2999999988219300e+00 -2.8153483384371916e-02 -5.3701006526181727e-01 +5.3640287428799753e-03
1.3999999999999999e+00 +8.1529444131410909e+00 +0.0000000000000000e+00 +1.3999999985286200e+00 -2.8153598065790285e-02 -5.3700981236431566e-01 +5.3640251847421631e-03
1.5000000000000000e+00 +8.1529361885550298e+00 +0.0000000000000000e+00 +1.4999999981902701e+00 -2.8153720880618599e-02 -5.3700956747970285e-01 +5.3640222662021944e-03
1.6000000000000001e+00 +8.1529273967571498e+00 +0.0000000000000000e+00 +1.5999999978036501e+00 -2.8153851941332249e-02 -5.3700932995189110e-01 +5.3640200285571460e-03
1.7000000000000000e+00 +8.1529180377474404e+00 +0.0000000000000000e+00 +1.6999999973655600e+00 -2.8153991360397469e-02 -5.3700909912480388e-01 +5.3640185131099589e-03
1.8000000000000000e+00 +8.1529081115222706e+00 +0.0000000000000000e+00 +1.7999999968727800e+00 -2.8154139250271753e-02 -5.3700887434240252e-01 +5.3640177611703060e-03
1.8999999999999999e+00 +8.1528976180852606e+00 +0.0000000000000000e+00 +1.8999999963220899e+00 -2.8154295723398545e-02 -5.3700865494860783e-01 +5.3640178140543409e-03
2.0000000000000000e+00 +8.1528865574327902e+00 +0.0000000000000000e+00 +1.9999999957102601e+00 -2.8154460892212102e-02 -5.3700844028740780e-01 +5.3640187130863720e-03
2.1000000000000001e+00 +8.1528749295721408e+00 +0.0000000000000000e+00 +2.0999999950340902e+00 -2.8154634635323219e-02 -5.3700822973849238e-01 +5.3640205147202245e-03
2.2000000000000002e+00 +8.1528627344960096e+00 +0.0000000000000000e+00 +2.1999999942903599e+00 -2.8154815896112944e-02 -5.3700802282474858e-01 +5.3640233359048073e-03
2.2999999999999998e+00 +8.1528499722080596e+00 +0.0000000000000000e+00 +2.2999999934758399e+00 -2.8155003384144048e-02 -5.3700781910476325e-01 +5.3640273087099425e-03
2.3999999999999999e+00 +8.1528366427046404e+00 +0.0000000000000000e+00 +2.3999999925873299e+00 -2.8155195808974798e-02 -5.3700761813719000e-01 +5.3640325652041946e-03
2.5000000000000000e+00 +8.1528227459894005e+00 +0.0000000000000000e+00 +2.4999999916215998e+00 -2.8155391880153046e-02 -5.3700741948064123e-01 +5.3640392374531744e-03
2.6000000000000001e+00 +8.1528082820659602e+00 +0.0000000000000000e+00 +2.5999999905754398e+00 -2.8155590307219026e-02 -5.3700722269374346e-01 +5.3640474575195208e-03
2.7000000000000002e+00 +8.1527932509234198e+00 +0.0000000000000000e+00 +2.6999999894456299e+00 -2.8155789799711024e-02 -5.3700702733524386e-01 +5.3640573574633595e-03
2.7999999999999998e+00 +8.1527776525726896e+00 +0.0000000000000000e+00 +2.7999999882289601e+00 -2.8155989067150736e-02 -5.3700683296374341e-01 +5.3640690693390111e-03
2.8999999999999999e+00 +8.1527614870065008e+00 +0.0000000000000000e+00 +2.8999999869222002e+00 -2.8156186819059202e-02 -5.3700663913799196e-01 +5.3640827251973796e-03
3.0000000000000000e+00 +8.1527447542284808e+00 +0.0000000000000000e+00 +2.9999999855221300e+00 -2.8156381764944980e-02 -5.3700644541667486e-01 +5.3640984570831884e-03
3.1000000000000001e+00 +8.1527274542386294e+00 +0.0000000000000000e+00 +3.0999999840255499e+00 -2.8156572614309924e-02 -5.3700625135851998e-01 +5.3641163970354656e-03
3.2000000000000002e+00 +8.1527095870333106e+00 +0.0000000000000000e+00 +3.1999999824292300e+00 -2.8156758076649042e-02 -5.3700605652229771e-01 +5.3641366770869579e-03
3.2999999999999998e+00 +8.1526911526198091e+00 +0.0000000000000000e+00 +3.2999999807299600e+00 -2.8156936861444555e-02 -5.3700586046671595e-01 +5.3641594292624393e-03
3.3999999999999999e+00 +8.1526721509872004e+00 +0.0000000000000000e+00 +3.3999999789245101e+00 -2.8157107678177445e-02 -5.3700566275063344e-01 +5.3641847855803049e-03
3.5000000000000000e+00 +8.1526525821464002e+00 +0.0000000000000000e+00 +3.4999999770096801e+00 -2.8157269236311361e-02 -5.3700546293276574e-01 +5.3642128780489670e-03
3.6000000000000001e+00 +8.1526324460901396e+00 +0.0000000000000000e+00 +3.5999999749822500e+00 -2.8157420245308467e-02 -5.3700526057198150e-01 +5.3642438386692715e-03
3.7000000000000002e+00 +8.1526117428220495e+00 +0.0000000000000000e+00 +3.6999999728389801e+00 -2.8157559414617721e-02 -5.3700505522708719e-01 +5.3642777994317159e-03
3.7999999999999998e+00 +8.1525904723421299e+00 +0.0000000000000000e+00 +3.7999999705766800e+00 -2.8157685453680640e-02 -5.3700484645693558e-01 +5.3643148923169437e-03
3.8999999999999999e+00 +8.1525686346503807e+00 +0.0000000000000000e+00 +3.8999999681921298e+00 -2.8157797071929617e-02 -5.3700463382039954e-01 +5.3643552492948811e-03
4.0000000000000000e+00 +8.1525462297431694e+00 +0.0000000000000000e+00 +3.9999999656820902e+00 -2.8157892978789366e-02 -5.3700441687639833e-01 +5.3643990023244147e-03
4.0999999999999996e+00 +8.1525232576241304e+00 +0.0000000000000000e+00 +4.0999999630433699e+00 -2.8157972281843396e-02 -5.3700419536483246e-01 +5.3644462098106265e-03
4.2000000000000002e+00 +8.1524997182896204e+00 +0.0000000000000000e+00 +4.1999999602727298e+00 -2.8158035681365001e-02 -5.3700396974971698e-01 +5.3644966359866712e-03
4.2999999999999998e+00 +8.1524756117469206e+00 +0.0000000000000000e+00 +4.2999999573669703e+00 -2.8158084275816047e-02 -5.3700374067598777e-01 +5.3645499715464073e-03
4.4000000000000004e+00 +8.1524509379887604e+00 +0.0000000000000000e+00 +4.3999999543228601e+00 -2.8158119163689769e-02 -5.3700350878867054e-01 +5.3646059071896157e-03
4.5000000000000000e+00 +8.1524256970187707e+00 +0.0000000000000000e+00 +4.4999999511372000e+00 -2.8158141443502472e-02 -5.3700327473269038e-01 +5.3646641336205225e-03
4.5999999999999996e+00 +8.1523998888369498e+00 +0.0000000000000000e+00 +4.5999999478067499e+00 -2.8158152213801226e-02 -5.3700303915297898e-01 +5.3647243415493422e-03
4.7000000000000002e+00 +8.1523735134396702e+00 +0.0000000000000000e+00 +4.6999999443283098e+00 -2.8158152573165628e-02 -5.3700280269447187e-01 +5.3647862216926840e-03
4.7999999999999998e+00 +8.1523465708305594e+00 +0.0000000000000000e+00 +4.7999999406986600e+00 -2.8158143620205345e-02 -5.3700256600202678e-01 +5.3648494647731866e-03
4.9000000000000004e+00 +8.1523190610096208e+00 +0.0000000000000000e+00 +4.8999999369145701e+00 -2.8158126453566315e-02 -5.3700232972050155e-01 +5.3649137615207759e-03
5.0000000000000000e+00 +8.1522909839768491e+00 +0.0000000000000000e+00 +4.9999999329728402e+00 -2.8158102171931113e-02 -5.3700209449472658e-01 +5.3649788026728130e-03
5.0999999999999996e+00 +8.1522623397286207e+00 +0.0000000000000000e+00 +5.0999999288702398e+00 -2.8158071874022240e-02 -5.3700186096952895e-01 +5.3650442789748114e-03
5.2000000000000002e+00 +8.1522331282685592e+00 +0.0000000000000000e+00 +5.1999999246035600e+00 -2.8158036658599669e-02 -5.3700162978965171e-01 +5.3651098811800541e-03
5.2999999999999998e+00 +8.1522033495966806e+00 +0.0000000000000000e+00 +5.2999999201695802e+00 -2.8157997624466965e-02 -5.3700140159983045e-01 +5.3651753000508486e-03
5.4000000000000004e+00 +8.1521730037093203e+00 +0.0000000000000000e+00 +5.3999999155650800e+00 -2.8157955870473168e-02 -5.3700117704479311e-01 +5.3652402263589579e-03
5.5000000000000000e+00 +8.1521420906137791e+00 +0.0000000000000000e+00 +5.4999999107868396e+00 -2.8157912495508829e-02 -5.3700095676915172e-01 +5.3653043508849465e-03
5.5999999999999996e+00 +8.1521106102991308e+00 +0.0000000000000000e+00 +5.5999999058316599e+00 -2.8157868598519469e-02 -5.3700074141761256e-01 +5.3653673644208063e-03
5.7000000000000002e+00 +8.1520785627762997e+00 +0.0000000000000000e+00 +5.6999999006963096e+00 -2.8157825278491446e-02 -5.3700053163468187e-01 +5.3654289577673769e-03
5.7999999999999998e+00 +8.1520459480379905e+00 +0.0000000000000000e+00 +5.7999998953775700e+00 -2.8157783634469701e-02 -5.3700032806495845e-01 +5.3654888217377992e-03
5.9000000000000004e+00 +8.1520127660915005e+00 +0.0000000000000000e+00 +5.8999998898722197e+00 -2.8157744765546680e-02 -5.3700013135288938e-01 +5.3655466471554825e-03
5.9999999999999902e+00 +8.1519790169259103e+00 +0.0000000000000000e+00 +5.9999998841770603e+00 -2.8157709770877098e-02 -5.3699994214301172e-01 +5.3656021248570116e-03
6.0999999999999899e+00 +8.1519447005521197e+00 +0.0000000000000000e+00 +6.0999998782888598e+00 -2.8157679607496457e-02 -5.3699976102341096e-01 +5.3656550272096603e-03
6.1999999999999904e+00 +8.1519098169665103e+00 +0.0000000000000000e+00 +6.1999998722044003e+00 -2.8157654663807971e-02 -5.3699958835727224e-01 +5.3657054526698106e-03
6.2999999999999901e+00 +8.1518743661654298e+00 +0.0000000000000000e+00 +6.2999998659204701e+00 -2.8157635186036225e-02 -5.3699942445152826e-01 +5.3657535812102466e-03
6.3999999999999897e+00 +8.1518383481488907e+00 +0.0000000000000000e+00 +6.3999998594338496e+00 -2.8157621420386730e-02 -5.3699926961308009e-01 +5.3657995927973842e-03
6.4999999999999902e+00 +8.1518017629241495e+00 +0.0000000000000000e+00 +6.4999998527413201e+00 -2.8157613613043243e-02 -5.3699912414877071e-01 +5.3658436673906830e-03
6.5999999999999899e+00 +8.1517646104839496e+00 +0.0000000000000000e+00 +6.5999998458396698e+00 -2.8157612010175234e-02 -5.3699898836554549e-01 +5.3658859849439718e-03
6.6999999999999904e+00 +8.1517268908319203e+00 +0.0000000000000000e+00 +6.6999998387256703e+00 -2.8157616857926476e-02 -5.3699886257026452e-01 +5.3659267254031915e-03
6.7999999999999901e+00 +8.1516886039680703e+00 +0.0000000000000000e+00 +6.7999998313961196e+00 -2.8157628402419595e-02 -5.3699874706981099e-01 +5.3659660687071951e-03
6.8999999999999897e+00 +8.1516497498923908e+00 +0.0000000000000000e+00 +6.8999998238477902e+00 -2.8157646889753422e-02 -5.3699864217106252e-01 +5.3660041947871462e-03
6.9999999999999902e+00 +8.1516103286012402e+00 +0.0000000000000000e+00 +6.9999998160774597e+00 -2.8157672566003138e-02 -5.3699854818092074e-01 +5.3660412835664570e-03
7.0999999999999899e+00 +8.1515703400982602e+00 +0.0000000000000000e+00 +7.0999998080819298e+00 -2.8157705677214730e-02 -5.3699846540622787e-01 +5.3660775149596690e-03
7.1999999999999904e+00 +8.1515297843834595e+00 +0.0000000000000000e+00 +7.1999997998579603e+00 -2.8157746469408045e-02 -5.3699839415384998e-01 +5.3661130688729408e-03
7.2999999999999901e+00 +8.1514886614531896e+00 +0.0000000000000000e+00 +7.2999997914023496e+00 -2.8157795188575616e-02 -5.3699833473067560e-01 +5.3661481252037287e-03
7.3999999999999897e+00 +8.1514469713147300e+00 +0.0000000000000000e+00 +7.3999997827118804e+00 -2.8157852080675547e-02 -5.3699828744350875e-01 +5.3661828638393748e-03
7.4999999999999902e+00 +8.1514047139571595e+00 +0.0000000000000000e+00 +7.4999997737833199e+00 -2.8157917391641901e-02 -5.3699825259928358e-01 +5.3662174646589749e-03
7.5999999999999899e+00 +8.1513618893914099e+00 +0.0000000000000000e+00 +7.5999997646134698e+00 -2.8157991367367491e-02 -5.3699823050476958e-01 +5.3662521075300475e-03
7.6999999999999904e+00 +8.1513184976138309e+00 +0.0000000000000000e+00 +7.6999997551991104e+00 -2.8158074253717125e-02 -5.3699822146684029e-01 +5.3662869723109415e-03
7.7999999999999901e+00 +8.1512745386207808e+00 +0.0000000000000000e+00 +7.7999997455370096e+00 -2.8158166296520612e-02 -5.3699822579236522e-01 +5.3663222388494426e-03
7.8999999999999897e+00 +8.1512300124159101e+00 +0.0000000000000000e+00 +7.8999997356239602e+00 -2.8158267741568509e-02 -5.3699824378815697e-01 +5.3663580869818808e-03
7.9999999999999902e+00 +8.1511849189955701e+00 +0.0000000000000000e+00 +7.9999997254567399e+00 -2.8158378834616762e-02 -5.3699827576107817e-01 +5.3663946965339156e-03
8.0999999999999908e+00 +8.1511392583670403e+00 +0.0000000000000000e+00 +8.0999997150321406e+00 -2.8158499605916255e-02 -5.3699832184090313e-01 +5.3664322409366152e-03
8.1999999999999904e+00 +8.1510930305230396e+00 +0.0000000000000000e+00 +8.1999997043469399e+00 -2.8158629223836492e-02 -5.3699838144949663e-01 +5.3664708680853023e-03
8.2999999999999901e+00 +8.1510462354672200e+00 +0.0000000000000000e+00 +8.2999996933979094e+00 -2.8158766641256997e-02 -5.3699845383165501e-01 +5.3665107194915355e-03
8.3999999999999897e+00 +8.1509988731995708e+00 +0.0000000000000000e+00 +8.3999996821818605e+00 -2.8158910811039963e-02 -5.3699853823222654e-01 +5.3665519366676425e-03
8.4999999999999893e+00 +8.1509509437164507e+00 +0.0000000000000000e+00 +8.4999996706955496e+00 -2.8159060686029681e-02 -5.3699863389611013e-01 +5.3665946611267633e-03
8.5999999999999908e+00 +8.1509024470215099e+00 +0.0000000000000000e+00 +8.5999996589357703e+00 -2.8159215219047663e-02 -5.3699874006817738e-01 +5.3666390343820982e-03
8.6999999999999904e+00 +8.1508533831147396e+00 +0.0000000000000000e+00 +8.6999996468993004e+00 -2.8159373362896502e-02 -5.3699885599335306e-01 +5.3666851979477827e-03
8.7999999999999794e+00 +8.1508037519961398e+00 +0.0000000000000000e+00 +8.7999996345829192e+00 -2.8159534070357813e-02 -5.3699898091658849e-01 +5.3667332933386800e-03
8.8999999999999808e+00 +8.1507535536620708e+00 +0.0000000000000000e+00 +8.8999996219834205e+00 -2.8159696294193234e-02 -5.3699911408289147e-01 +5.3667834620707176e-03
8.9999999999999805e+00 +8.1507027881161793e+00 +0.0000000000000000e+00 +8.9999996090975891e+00 -2.8159858987139495e-02 -5.3699925473724375e-01 +5.3668358456601031e-03
9.0999999999999801e+00 +8.1506514553584601e+00 +0.0000000000000000e+00 +9.0999995959221902e+00 -2.8160021101912267e-02 -5.3699940212468511e-01 +5.3668905856242392e-03
9.1999999999999797e+00 +8.1505995553889097e+00 +0.0000000000000000e+00 +9.1999995824540193e+00 -2.8160181591204193e-02 -5.3699955549028566e-01 +5.3669478234814804e-03
9.2999999999999794e+00 +8.1505470882038900e+00 +0.0000000000000000e+00 +9.2999995686898593e+00 -2.8160339407685791e-02 -5.3699971407917446e-01 +5.3670077007514881e-03
9.3999999999999808e+00 +8.1504940538070496e+00 +0.0000000000000000e+00 +9.3999995546264898e+00 -2.8160493504000600e-02 -5.3699987713645914e-01 +5.3670703589544467e-03
9.4999999999999805e+00 +8.1504404521983798e+00 +0.0000000000000000e+00 +9.4999995402606903e+00 -2.8160642832768965e-02 -5.3700004390730804e-01 +5.3671359396119632e-03
9.5999999999999801e+00 +8.1503862833778804e+00 +0.0000000000000000e+00 +9.5999995255892507e+00 -2.8160786346586159e-02 -5.3700021363692430e-01 +5.3672045842468466e-03
9.6999999999999797e+00 +8.1503315473419207e+00 +0.0000000000000000e+00 +9.6999995106089507e+00 -2.8160922998023200e-02 -5.3700038557057250e-01 +5.3672764343834275e-03
9.7999999999999794e+00 +8.1502762440941297e+00 +0.0000000000000000e+00 +9.7999994953165697e+00 -2.8161051739622078e-02 -5.3700055895350030e-01 +5.3673516315468229e-03
9.8999999999999808e+00 +8.1502203736345091e+00 +0.0000000000000000e+00 +9.8999994797088906e+00 -2.8161171523899506e-02 -5.3700073303101947e-01 +5.3674303172637876e-03
9.9999999999999805e+00 +8.1501639359594300e+00 +0.0000000000000000e+00 +9.9999994637827001e+00 -2.8161281303346469e-02 -5.3700090704850578e-01 +5.3675126330627876e-03
1.0100000000000000e+01 +8.1501069310761505e+00 +0.0000000000000000e+00 +1.0099999447534801e+01 -2.8161380341723510e-02 -5.3700108032954375e-01 +5.3675986296239358e-03
1.0199999999999999e+01 +8.1500493589774106e+00 +0.0000000000000000e+00 +1.0199999430961901e+01 -2.8161469148014939e-02 -5.3700125251083841e-01 +5.3676879942305099e-03
1.0300000000000001e+01 +8.1499912196668394e+00 +0.0000000000000000e+00 +1.0299999414060901e+01 -2.8161548542538280e-02 -5.3700142330723211e-01 +5.3677803233215544e-03
1.0400000000000000e+01 +8.1499325131444493e+00 +0.0000000000000000e+00 +1.0399999396828500e+01 -2.8161619345644203e-02 -5.3700159243355039e-01 +5.3678752133457658e-03
1.0500000000000000e+01 +8.1498732394065900e+00 +0.0000000000000000e+00 +1.0499999379261400e+01 -2.8161682377717392e-02 -5.3700175960460228e-01 +5.3679722607617658e-03
1.0600000000000000e+01 +8.1498133984568994e+00 +0.0000000000000000e+00 +1.0599999361356600e+01 -2.8161738459173122e-02 -5.3700192453509810e-01 +5.3680710620375100e-03
1.0699999999999999e+01 +8.1497529902953794e+00 +0.0000000000000000e+00 +1.0699999343110701e+01 -2.8161788410462511e-02 -5.3700208693972884e-01 +5.3681712136513593e-03
1.0800000000000001e+01 +8.1496920149220404e+00 +0.0000000000000000e+00 +1.0799999324520600e+01 -2.8161833052071955e-02 -5.3700224653313844e-01 +5.3682723120920591e-03
1.0900000000000000e+01 +8.1496304723332305e+00 +0.0000000000000000e+00 +1.0899999305583000e+01 -2.8161873204525508e-02 -5.3700240302994895e-01 +5.3683739538592581e-03
1.1000000000000000e+01 +8.1495683625325892e+00 +0.0000000000000000e+00 +1.0999999286294800e+01 -2.8161909688381420e-02 -5.3700255614467951e-01 +5.3684757354629381e-03
1.1100000000000000e+01 +8.1495056855201309e+00 +0.0000000000000000e+00 +1.1099999266652601e+01 -2.8161943324237385e-02 -5.3700270559182595e-01 +5.3685772534244865e-03
1.1199999999999999e+01 +8.1494424412958306e+00 +0.0000000000000000e+00 +1.1199999246653300e+01 -2.8161974932729990e-02 -5.3700285108583179e-01 +5.3686781042766619e-03
1.1300000000000001e+01 +8.1493786298560700e+00 +0.0000000000000000e+00 +1.1299999226293700e+01 -2.8162005334537096e-02 -5.3700299234111537e-01 +5.3687778845641250e-03
1.1400000000000000e+01 +8.1493142512044905e+00 +0.0000000000000000e+00 +1.1399999205570500e+01 -2.8162035350374325e-02 -5.3700312907198633e-01 +5.3688761908428648e-03
1.1500000000000000e+01 +8.1492493053447106e+00 +0.0000000000000000e+00 +1.1499999184480499e+01 -2.8162065800998899e-02 -5.3700326099270024e-01 +5.3689726196809980e-03
1.1600000000000000e+01 +8.1491837922658306e+00 +0.0000000000000000e+00 +1.1599999163020600e+01 -2.8162097507216384e-02 -5.3700338781756340e-01 +5.3690667676601104e-03
1.1699999999999999e+01 +8.1491177119787608e+00 +0.0000000000000000e+00 +1.1699999141187400e+01 -2.8162131289866964e-02 -5.3700350926066431e-01 +5.3691582313727688e-03
1.1800000000000001e+01 +8.1490510644762306e+00 +0.0000000000000000e+00 +1.1799999118977800e+01 -2.8162167969842385e-02 -5.3700362503616683e-01 +5.3692466074257887e-03
