# field on trajectory
# s[mm] rx[mm] ry[mm] rz[mm] bx[T] by[T] bz[T]
0.0000000000000000e+00 +8.1530000000000094e+00 +0.0000000000000000e+00 +0.0000000000000000e+00 -2.7613736781772376e-02 -5.3691330387251668e-01 +5.3615238025454884e-03
1.0000000000000001e-01 +8.1529997159377707e+00 +0.0000000000000000e+00 +1.0008006405070299e-01 -2.7613843503396907e-02 -5.3691319704268137e-01 +5.3615458430417203e-03
2.0000000000000001e-01 +8.1529988637557800e+00 +0.0000000000000000e+00 +2.0016012809818201e-01 -2.7613946692109540e-02 -5.3691306631695768e-01 +5.3615678300016874e-03
2.9999999999999999e-01 +8.1529974434524792e+00 +0.0000000000000000e+00 +3.0024019213920999e-01 -2.7614046331902498e-02 -5.3691291378441230e-01 +5.3615897266908723e-03
4.0000000000000002e-01 +8.1529954550242092e+00 +0.0000000000000000e+00 +4.0032025617056399e-01 -2.7614142406766160e-02 -5.3691274153414625e-01 +5.3616114963749876e-03
5.0000000000000000e-01 +8.1529928984782600e+00 +0.0000000000000000e+00 +5.0040032018901703e-01 -2.7614234900684036e-02 -5.3691255165519847e-01 +5.3616331023190562e-03
5.9999999999999998e-01 +8.1529897738146193e+00 +0.0000000000000000e+00 +6.0048038419134497e-01 -2.7614323797640585e-02 -5.3691234623667927e-01 +5.3616545077888348e-03
6.9999999999999996e-01 +8.1529860810223909e+00 +0.0000000000000000e+00 +7.0056044817432195e-01 -2.7614409081622989e-02 -5.3691212736779770e-01 +5.3616756760511671e-03
8.0000000000000004e-01 +8.1529818201124709e+00 +0.0000000000000000e+00 +8.0064051213472498e-01 -2.7614490736608273e-02 -5.3691189713761811e-01 +5.3616965703715772e-03
9.0000000000000002e-01 +8.1529769910812302e+00 +0.0000000000000000e+00 +9.0072057606932698e-01 -2.7614568746578368e-02 -5.3691165763532755e-01 +5.3617171540170641e-03
1.0000000000000000e+00 +8.1529715939250291e+00 +0.0000000000000000e+00 +1.0008006399749001e+00 -2.7614643095514552e-02 -5.3691141095013040e-01 +5.3617373902550836e-03
1.1000000000000001e+00 +8.1529656286511507e+00 +0.0000000000000000e+00 +1.1008807038482300e+00 -2.7614713767393419e-02 -5.3691115917116394e-01 +5.3617572423527767e-03
1.2000000000000000e+00 +8.1529590952522994e+00 +0.0000000000000000e+00 +1.2009607676860801e+00 -2.7614780746197512e-02 -5.3691090438768829e-01 +5.3617766735789578e-03
1.3000000000000000e+00 +8.1529519937357708e+00 +0.0000000000000000e+00 +1.3010408314852300e+00 -2.7614844015903906e-02 -5.3691064868886917e-01 +5.3617956472019933e-03
1.3999999999999999e+00 +8.1529443240979198e+00 +0.0000000000000000e+00 +1.4011208952424601e+00 -2.7614903560494824e-02 -5.3691039416396624e-01 +5.3618141264917558e-03
1.5000000000000000e+00 +8.1529360863350995e+00 +0.0000000000000000e+00 +1.5012009589545301e+00 -2.7614959363953626e-02 -5.3691014290225159e-01 +5.3618320747189016e-03
1.6000000000000001e+00 +8.1529272804509691e+00 +0.0000000000000000e+00 +1.6012810226182299e+00 -2.7615011410262204e-02 -5.3690989699295633e-01 +5.3618494551543666e-03
1.7000000000000000e+00 +8.1529179064491508e+00 +0.0000000000000000e+00 +1.7013610862303301e+00 -2.7615059683404230e-02 -5.3690965852532180e-01 +5.3618662310699781e-03
1.8000000000000000e+00 +8.1529079643223703e+00 +0.0000000000000000e+00 +1.8014411497875999e+00 -2.7615104167369970e-02 -5.3690942958868104e-01 +5.3618823657393382e-03
1.8999999999999999e+00 +8.1528974540779000e+00 +0.0000000000000000e+00 +1.9015212132868200e+00 -2.7615144846146304e-02 -5.3690921227226973e-01 +5.3618978224359900e-03
2.0000000000000000e+00 +8.1528863757084800e+00 +0.0000000000000000e+00 +2.0016012767247702e+00 -2.7615181703728849e-02 -5.3690900866543922e-01 +5.3619125644357290e-03
2.1000000000000001e+00 +8.1528747292177304e+00 +0.0000000000000000e+00 +2.1016813400982199e+00 -2.7615214722676775e-02 -5.3690882042718069e-01 +5.3619265794737280e-03
2.2000000000000002e+00 +8.1528625146056601e+00 +0.0000000000000000e+00 +2.2017614034039301e+00 -2.7615243880079719e-02 -5.3690864757599877e-01 +5.3619399485386101e-03
2.2999999999999998e+00 +8.1528497318759001e+00 +0.0000000000000000e+00 +2.3018414666387002e+00 -2.7615269151718733e-02 -5.3690848973944560e-01 +5.3619527748394787e-03
2.3999999999999999e+00 +8.1528363810211903e+00 +0.0000000000000000e+00 +2.4019215297993002e+00 -2.7615290513375003e-02 -5.3690834654512731e-01 +5.3619651615865538e-03
2.5000000000000000e+00 +8.1528224620451493e+00 +0.0000000000000000e+00 +2.5020015928824901e+00 -2.7615307940820542e-02 -5.3690821762053875e-01 +5.3619772119895296e-03
2.6000000000000001e+00 +8.1528079749477893e+00 +0.0000000000000000e+00 +2.6020816558850601e+00 -2.7615321409823545e-02 -5.3690810259316635e-01 +5.3619890292586139e-03
2.7000000000000002e+00 +8.1527929197291105e+00 +0.0000000000000000e+00 +2.7021617188037701e+00 -2.7615330896146418e-02 -5.3690800109045689e-01 +5.3620007166042096e-03
2.7999999999999998e+00 +8.1527772963891003e+00 +0.0000000000000000e+00 +2.8022417816354102e+00 -2.7615336375545321e-02 -5.3690791273981586e-01 +5.3620123772368930e-03
2.8999999999999999e+00 +8.1527611049277802e+00 +0.0000000000000000e+00 +2.9023218443767500e+00 -2.7615337823769598e-02 -5.3690783716859947e-01 +5.3620241143673524e-03
3.0000000000000000e+00 +8.1527443453451305e+00 +0.0000000000000000e+00 +3.0024019070245598e+00 -2.7615335216561319e-02 -5.3690777400411493e-01 +5.3620360312063749e-03
3.1000000000000001e+00 +8.1527270176411495e+00 +0.0000000000000000e+00 +3.1024819695756198e+00 -2.7615328529654763e-02 -5.3690772287361310e-01 +5.3620482309647910e-03
3.2000000000000002e+00 +8.1527091218158603e+00 +0.0000000000000000e+00 +3.2025620320267101e+00 -2.7615317738775926e-02 -5.3690768340428607e-01 +5.3620608168534374e-03
3.2999999999999998e+00 +8.1526906578692397e+00 +0.0000000000000000e+00 +3.3026420943745900e+00 -2.7615302819641960e-02 -5.3690765522326322e-01 +5.3620738920831211e-03
3.3999999999999999e+00 +8.1526716258013003e+00 +0.0000000000000000e+00 +3.4027221566160502e+00 -2.7615283747960778e-02 -5.3690763795760599e-01 +5.3620875598645876e-03
3.5000000000000000e+00 +8.1526520256120403e+00 +0.0000000000000000e+00 +3.5028022187478500e+00 -2.7615260499430482e-02 -5.3690763123430618e-01 +5.3621019234084714e-03
3.6000000000000001e+00 +8.1526318572978198e+00 +0.0000000000000000e+00 +3.6028822807667802e+00 -2.7615233049740291e-02 -5.3690763468030545e-01 +5.3621170859255302e-03
3.7000000000000002e+00 +8.1526111208659096e+00 +0.0000000000000000e+00 +3.7029623426696099e+00 -2.7615201374564274e-02 -5.3690764792238743e-01 +5.3621331506255249e-03
3.7999999999999998e+00 +8.1525898163126804e+00 +0.0000000000000000e+00 +3.8030424044531101e+00 -2.7615165449569528e-02 -5.3690767058733191e-01 +5.3621502207188065e-03
3.8999999999999999e+00 +8.1525679436344909e+00 +0.0000000000000000e+00 +3.9031224661140600e+00 -2.7615125250411387e-02 -5.3690770230183227e-01 +5.3621683994154647e-03
4.0000000000000000e+00 +8.1525455028386205e+00 +0.0000000000000000e+00 +4.0032025276492398e+00 -2.7615080752736082e-02 -5.3690774269240904e-01 +5.3621877899239275e-03
4.0999999999999996e+00 +8.1525224939177896e+00 +0.0000000000000000e+00 +4.1032825890554099e+00 -2.7615032188376850e-02 -5.3690779135491207e-01 +5.3622084770173573e-03
4.2000000000000002e+00 +8.1524989168792708e+00 +0.0000000000000000e+00 +4.2033626503293604e+00 -2.7614980720233908e-02 -5.3690784777352230e-01 +5.3622304784666820e-03
4.2999999999999998e+00 +8.1524747717157897e+00 +0.0000000000000000e+00 +4.3034427114678504e+00 -2.7614927722677127e-02 -5.3690791140722516e-01 +5.3622537968286360e-03
4.4000000000000004e+00 +8.1524500584346207e+00 +0.0000000000000000e+00 +4.4035227724676700e+00 -2.7614874570087336e-02 -5.3690798171493392e-01 +5.3622784346599303e-03
4.5000000000000000e+00 +8.1524247770285001e+00 +0.0000000000000000e+00 +4.5036028333255800e+00 -2.7614822636869176e-02 -5.3690805815570708e-01 +5.3623043945194813e-03
4.5999999999999996e+00 +8.1523989275046898e+00 +0.0000000000000000e+00 +4.6036828940383696e+00 -2.7614773297440609e-02 -5.3690814018853950e-01 +5.3623316789662909e-03
4.7000000000000002e+00 +8.1523725098559208e+00 +0.0000000000000000e+00 +4.7037629546028104e+00 -2.7614727926245863e-02 -5.3690822727257892e-01 +5.3623602905616477e-03
4.7999999999999998e+00 +8.1523455240894709e+00 +0.0000000000000000e+00 +4.8038430150156701e+00 -2.7614687897744957e-02 -5.3690831886691681e-01 +5.3623902318670150e-03
4.9000000000000004e+00 +8.1523179701980606e+00 +0.0000000000000000e+00 +4.9039230752737302e+00 -2.7614654586426614e-02 -5.3690841443080606e-01 +5.3624215054462500e-03
5.0000000000000000e+00 +8.1522898481889605e+00 +0.0000000000000000e+00 +5.0040031353737602e+00 -2.7614629366797733e-02 -5.3690851342344958e-01 +5.3624541138634621e-03
5.0999999999999996e+00 +8.1522611580549000e+00 +0.0000000000000000e+00 +5.1040831953125396e+00 -2.7614613613396420e-02 -5.3690861530422074e-01 +5.3624880596852493e-03
5.2000000000000002e+00 +8.1522318997995207e+00 +0.0000000000000000e+00 +5.2041632550868497e+00 -2.7614608700782826e-02 -5.3690871953247732e-01 +5.3625233454788358e-03
5.2999999999999998e+00 +8.1522020734228100e+00 +0.0000000000000000e+00 +5.3042433146934496e+00 -2.7614616003546345e-02 -5.3690882556767416e-01 +5.3625599738132091e-03
5.4000000000000004e+00 +8.1521716789247893e+00 +0.0000000000000000e+00 +5.4043233741291203e+00 -2.7614636896305247e-02 -5.3690893286934005e-01 +5.3625979472588818e-03
5.5000000000000000e+00 +8.1521407163090807e+00 +0.0000000000000000e+00 +5.5044034333906504e+00 -2.7614672753706562e-02 -5.3690904089705371e-01 +5.3626372683876862e-03
5.5999999999999996e+00 +8.1521091855684098e+00 +0.0000000000000000e+00 +5.6044834924747899e+00 -2.7614724950433059e-02 -5.3690914911055621e-01 +5.3626779397738973e-03
5.7000000000000002e+00 +8.1520770867064094e+00 +0.0000000000000000e+00 +5.7045635513783299e+00 -2.7614794861195707e-02 -5.3690925696959368e-01 +5.3627199639926385e-03
5.7999999999999998e+00 +8.1520444197231008e+00 +0.0000000000000000e+00 +5.8046436100980499e+00 -2.7614883860740746e-02 -5.3690936393402755e-01 +5.3627633436210383e-03
5.9000000000000004e+00 +8.1520111846184609e+00 +0.0000000000000000e+00 +5.9047236686307096e+00 -2.7614993323849427e-02 -5.3690946946381324e-01 +5.3628080812379818e-03
5.9999999999999902e+00 +8.1519773813925003e+00 +0.0000000000000000e+00 +6.0048037269731003e+00 -2.7615124625279808e-02 -5.3690957301902309e-01 +5.3628541794230851e-03
6.0999999999999899e+00 +8.1519430100452208e+00 +0.0000000000000000e+00 +6.1048837851219799e+00 -2.7615278521159328e-02 -5.3690967427579195e-01 +5.3629016293305449e-03
6.1999999999999904e+00 +8.1519080705766100e+00 +0.0000000000000000e+00 +6.2049638430741396e+00 -2.7615453624075356e-02 -5.3690977365858805e-01 +5.3629503825215709e-03
6.2999999999999901e+00 +8.1518725629866804e+00 +0.0000000000000000e+00 +6.3050439008263499e+00 -2.7615648082663442e-02 -5.3690987175385207e-01 +5.3630003819853285e-03
6.3999999999999897e+00 +8.1518364872754301e+00 +0.0000000000000000e+00 +6.4051239583753699e+00 -2.7615860045533965e-02 -5.3690996914804490e-01 +5.3630515707076224e-03
6.4999999999999902e+00 +8.1517998434428591e+00 +0.0000000000000000e+00 +6.5052040157180002e+00 -2.7616087661270772e-02 -5.3691006642764660e-01 +5.3631038916707166e-03
6.5999999999999899e+00 +8.1517626314889604e+00 +0.0000000000000000e+00 +6.6052840728510001e+00 -2.7616329078429862e-02 -5.3691016417915827e-01 +5.3631572878531843e-03
6.6999999999999904e+00 +8.1517248514137499e+00 +0.0000000000000000e+00 +6.7053641297711399e+00 -2.7616582445538100e-02 -5.3691026298910205e-01 +5.3632117022297428e-03
6.7999999999999901e+00 +8.1516865032135701e+00 +0.0000000000000000e+00 +6.8054441864752100e+00 -2.7616845911093344e-02 -5.3691036344404652e-01 +5.3632670777713776e-03
6.8999999999999897e+00 +8.1516475868957095e+00 +0.0000000000000000e+00 +6.9055242429599701e+00 -2.7617117623557182e-02 -5.3691046613050220e-01 +5.3633233574440680e-03
6.9999999999999902e+00 +8.1516081024565192e+00 +0.0000000000000000e+00 +7.0056042992222096e+00 -2.7617395731362564e-02 -5.3691057163508182e-01 +5.3633804842102804e-03
7.0999999999999899e+00 +8.1515680498960101e+00 +0.0000000000000000e+00 +7.1056843552586999e+00 -2.7617678382906474e-02 -5.3691068054439206e-01 +5.3634384010277170e-03
7.1999999999999904e+00 +8.1515274292141804e+00 +0.0000000000000000e+00 +7.2057644110662000e+00 -2.7617963726550173e-02 -5.3691079344506309e-01 +5.3634970508494150e-03
7.2999999999999901e+00 +8.1514862404073902e+00 +0.0000000000000000e+00 +7.3058444666415099e+00 -2.7618249910619272e-02 -5.3691091092377330e-01 +5.3635563766238686e-03
7.3999999999999897e+00 +8.1514444834829192e+00 +0.0000000000000000e+00 +7.4059245219813796e+00 -2.7618535083396643e-02 -5.3691103356714409e-01 +5.3636163212937744e-03
7.4999999999999902e+00 +8.1514021584334806e+00 +0.0000000000000000e+00 +7.5060045770826100e+00 -2.7618817393131261e-02 -5.3691116196192723e-01 +5.3636768277977830e-03
7.5999999999999899e+00 +8.1513592652663593e+00 +0.0000000000000000e+00 +7.6060846319419504e+00 -2.7619094988025231e-02 -5.3691129669479032e-01 +5.3637378390681487e-03
7.6999999999999904e+00 +8.1513158039779192e+00 +0.0000000000000000e+00 +7.7061646865561997e+00 -2.7619366016242701e-02 -5.3691143835250521e-01 +5.3637992980324779e-03
7.7999999999999901e+00 +8.1512717745681602e+00 +0.0000000000000000e+00 +7.8062447409221098e+00 -2.7619628625902715e-02 -5.3691158752184109e-01 +5.3638611476124901e-03
7.8999999999999897e+00 +8.1512271770334301e+00 +0.0000000000000000e+00 +7.9063247950364799e+00 -2.7619880965080796e-02 -5.3691174478961801e-01 +5.3639233307243780e-03
7.9999999999999902e+00 +8.1511820113773901e+00 +0.0000000000000000e+00 +8.0064048488960609e+00 -2.7620121181905589e-02 -5.3691191074260225e-01 +5.3639857902733389e-03
8.0999999999999908e+00 +8.1511362776036496e+00 +0.0000000000000000e+00 +8.1064849024976393e+00 -2.7620347894263087e-02 -5.3691208585273797e-01 +5.3640484484161815e-03
8.1999999999999904e+00 +8.1510899757086008e+00 +0.0000000000000000e+00 +8.2065649558379903e+00 -2.7620561272203289e-02 -5.3691227021257837e-01 +5.3641111587757239e-03
8.2999999999999901e+00 +8.1510431056885899e+00 +0.0000000000000000e+00 +8.3066450089139003e+00 -2.7620761805901686e-02 -5.3691246383637126e-01 +5.3641737608402969e-03
8.3999999999999897e+00 +8.1509956675508892e+00 +0.0000000000000000e+00 +8.4067250617221205e+00 -2.7620949985545269e-02 -5.3691266673822868e-01 +5.3642360940966633e-03
8.4999999999999893e+00 +8.1509476612882299e+00 +0.0000000000000000e+00 +8.5068051142594392e+00 -2.7621126301343363e-02 -5.3691287893231021e-01 +5.3642979980319024e-03
8.5999999999999908e+00 +8.1508990869078808e+00 +0.0000000000000000e+00 +8.6068851665226305e+00 -2.7621291243516553e-02 -5.3691310043260654e-01 +5.3643593121312644e-03
8.6999999999999904e+00 +8.1508499444025801e+00 +0.0000000000000000e+00 +8.7069652185084596e+00 -2.7621445302309141e-02 -5.3691333125315310e-01 +5.3644198758803609e-03
8.7999999999999794e+00 +8.1508002337759500e+00 +0.0000000000000000e+00 +8.8070452702137203e+00 -2.7621588967979470e-02 -5.3691357140783846e-01 +5.3644795287632625e-03
8.8999999999999808e+00 +8.1507499550316407e+00 +0.0000000000000000e+00 +8.9071253216351796e+00 -2.7621722730804977e-02 -5.3691382091048379e-01 +5.3645381102633317e-03
8.9999999999999805e+00 +8.1506991081623692e+00 +0.0000000000000000e+00 +9.0072053727696098e+00 -2.7621847081087350e-02 -5.3691407977492123e-01 +5.3645954598640520e-03
9.0999999999999801e+00 +8.1506476931717806e+00 +0.0000000000000000e+00 +9.1072854236137797e+00 -2.7621962509144223e-02 -5.3691434801483073e-01 +5.3646514170474094e-03
9.1999999999999797e+00 +8.1505957100635005e+00 +0.0000000000000000e+00 +9.2073654741644795e+00 -2.7622069505314366e-02 -5.3691462564381764e-01 +5.3647058212947171e-03
9.2999999999999794e+00 +8.1505431588302599e+00 +0.0000000000000000e+00 +9.3074455244184708e+00 -2.7622168559962700e-02 -5.3691491267549207e-01 +5.3647585120874470e-03
9.3999999999999808e+00 +8.1504900394757005e+00 +0.0000000000000000e+00 +9.4075255743725297e+00 -2.7622260163472107e-02 -5.3691520912330504e-01 +5.3648093289056127e-03
9.4999999999999805e+00 +8.1504363520034495e+00 +0.0000000000000000e+00 +9.5076056240234408e+00 -2.7622344806248565e-02 -5.3691551500062795e-01 +5.3648581112285881e-03
9.5999999999999801e+00 +8.1503820964062506e+00 +0.0000000000000000e+00 +9.6076856733679694e+00 -2.7622422978726149e-02 -5.3691583032082935e-01 +5.3649046985359550e-03
9.6999999999999797e+00 +8.1503272726913600e+00 +0.0000000000000000e+00 +9.7077657224029004e+00 -2.7622495171357404e-02 -5.3691615509708590e-01 +5.3649489303055908e-03
9.7999999999999794e+00 +8.1502718808515109e+00 +0.0000000000000000e+00 +9.8078457711250007e+00 -2.7622561874625823e-02 -5.3691648934259573e-01 +5.3649906460158728e-03
9.8999999999999808e+00 +8.1502159208903304e+00 +0.0000000000000000e+00 +9.9079258195310498e+00 -2.7622623579036113e-02 -5.3691683307038673e-01 +5.3650296851437840e-03
9.9999999999999805e+00 +8.1501593928078400e+00 +0.0000000000000000e+00 +1.0008005867617801e+01 -2.7622680775173020e-02 -5.3691718629333363e-01 +5.3650658872009876e-03
1.0100000000000000e+01 +8.1501022966040200e+00 +0.0000000000000000e+00 +1.0108085915382100e+01 -2.7622734081881817e-02 -5.3691754880552911e-01 +5.3650991776337080e-03
1.0199999999999999e+01 +8.1500446322825209e+00 +0.0000000000000000e+00 +1.0208165962820599e+01 -2.7622784522124012e-02 -5.3691791971182279e-01 +5.3651297526924116e-03
1.0300000000000001e+01 +8.1499863998360507e+00 +0.0000000000000000e+00 +1.0308246009930199e+01 -2.7622833198281804e-02 -5.3691829798170332e-01 +5.3651578618445278e-03
1.0400000000000000e+01 +8.1499275992682705e+00 +0.0000000000000000e+00 +1.0408326056707599e+01 -2.7622881212749965e-02 -5.3691868258454722e-01 +5.3651837545647466e-03
1.0500000000000000e+01 +8.1498682305791608e+00 +0.0000000000000000e+00 +1.0508406103149600e+01 -2.7622929667942057e-02 -5.3691907248972648e-01 +5.3652076803363362e-03
1.0600000000000000e+01 +8.1498082937723701e+00 +0.0000000000000000e+00 +1.0608486149253000e+01 -2.7622979666287895e-02 -5.3691946666655332e-01 +5.3652298886508187e-03
1.0699999999999999e+01 +8.1497477888406102e+00 +0.0000000000000000e+00 +1.0708566195014500e+01 -2.7623032310239725e-02 -5.3691986408438797e-01 +5.3652506290092486e-03
1.0800000000000001e+01 +8.1496867157875403e+00 +0.0000000000000000e+00 +1.0808646240430900e+01 -2.7623088702263796e-02 -5.3692026371247692e-01 +5.3652701509208159e-03
1.0900000000000000e+01 +8.1496250746131391e+00 +0.0000000000000000e+00 +1.0908726285499000e+01 -2.7623149944846586e-02 -5.3692066452005938e-01 +5.3652887039041548e-03
1.1000000000000000e+01 +8.1495628653174208e+00 +0.0000000000000000e+00 +1.1008806330215601e+01 -2.7623217140493664e-02 -5.3692106547634089e-01 +5.3653065374872633e-03
1.1100000000000000e+01 +8.1495000879040198e+00 +0.0000000000000000e+00 +1.1108886374577500e+01 -2.7623291391728588e-02 -5.3692146555046494e-01 +5.3653239012074576e-03
1.1199999999999999e+01 +8.1494367423620098e+00 +0.0000000000000000e+00 +1.1208966418581401e+01 -2.7623373801100616e-02 -5.3692186371164663e-01 +5.3653410446129471e-03
1.1300000000000001e+01 +8.1493728287059604e+00 +0.0000000000000000e+00 +1.1309046462224000e+01 -2.7623465471168840e-02 -5.3692225892887824e-01 +5.3653582172600639e-03
1.1400000000000000e+01 +8.1493083469249505e+00 +0.0000000000000000e+00 +1.1409126505502300e+01 -2.7623567504523137e-02 -5.3692265017130303e-01 +5.3653756687172590e-03
1.1500000000000000e+01 +8.1492432970226201e+00 +0.0000000000000000e+00 +1.1509206548412800e+01 -2.7623681003768365e-02 -5.3692303640792072e-01 +5.3653936485623614e-03
1.1600000000000000e+01 +8.1491776789989707e+00 +0.0000000000000000e+00 +1.1609286590952600e+01 -2.7623807071532034e-02 -5.3692341660771981e-01 +5.3654124063841103e-03
1.1699999999999999e+01 +8.1491114928576298e+00 +0.0000000000000000e+00 +1.1709366633118099e+01 -2.7623946810461705e-02 -5.3692378973962529e-01 +5.3654321917818680e-03
1.1800000000000001e+01 +8.1490447385876905e+00 +0.0000000000000000e+00 +1.1809446674906400e+01 -2.7624101323232696e-02 -5.3692415477263011e-01 +5.3654532543671507e-03
