# trajectory
# s[mm] rx[mm] ry[mm] rz[mm] px[rad] py[rad] pz[rad]
0.0000000000000000e+00 +8.1649999999999991e+00 +0.0000000000000000e+00 +0.0000000000000000e+00 +0.0000000000000000e+00 +0.0000000000000000e+00 +1.0000000000000000e+00
1.0000000000000001e-01 +8.1649997169773112e+00 +0.0000000000000000e+00 +9.9999999999466002e-02 -5.6604540878617657e-06 +0.0000000000000000e+00 +9.9999999998397959e-01
2.0000000000000001e-01 +8.1649988679091177e+00 +0.0000000000000000e+00 +1.9999999999572793e-01 -1.1320910073397254e-05 +0.0000000000000000e+00 +9.9999999993591848e-01
3.0000000000000004e-01 +8.1649974527952391e+00 +0.0000000000000000e+00 +2.9999999998558169e-01 -1.6981367744786827e-05 +0.0000000000000000e+00 +9.9999999985581656e-01
4.0000000000000002e-01 +8.1649954716355175e+00 +0.0000000000000000e+00 +3.9999999996582319e-01 -2.2641826901001741e-05 +0.0000000000000000e+00 +9.9999999974367382e-01
5.0000000000000000e-01 +8.1649929244298143e+00 +0.0000000000000000e+00 +4.9999999993324840e-01 -2.8302287351804136e-05 +0.0000000000000000e+00 +9.9999999959949026e-01
5.9999999999999998e-01 +8.1649898111780086e+00 +0.0000000000000000e+00 +5.9999999988465325e-01 -3.3962748917747002e-05 +0.0000000000000000e+00 +9.9999999942326590e-01
6.9999999999999996e-01 +8.1649861318799992e+00 +0.0000000000000000e+00 +6.9999999981683358e-01 -3.9623211430174140e-05 +0.0000000000000000e+00 +9.9999999921500060e-01
7.9999999999999993e-01 +8.1649818865356973e+00 +0.0000000000000000e+00 +7.9999999972658531e-01 -4.5283674731220128e-05 +0.0000000000000000e+00 +9.9999999897469449e-01
8.9999999999999991e-01 +8.1649770751450319e+00 +0.0000000000000000e+00 +8.9999999961070443e-01 -5.0944138673810274e-05 +0.0000000000000000e+00 +9.9999999870234746e-01
9.9999999999999989e-01 +8.1649716977079461e+00 +0.0000000000000000e+00 +9.9999999946598672e-01 -5.6604603121660540e-05 +0.0000000000000000e+00 +9.9999999839795950e-01
1.0999999999999999e+00 +8.1649657542243954e+00 +0.0000000000000000e+00 +1.0999999992892282e+00 -6.2265067949277513e-05 +0.0000000000000000e+00 +9.9999999806153073e-01
1.2000000000000000e+00 +8.1649592446943480e+00 +0.0000000000000000e+00 +1.1999999990772248e+00 -6.7925533041958308e-05 +0.0000000000000000e+00 +9.9999999769306103e-01
1.3000000000000000e+00 +8.1649521691177824e+00 +0.0000000000000000e+00 +1.2999999988267723e+00 -7.3585998295790510e-05 +0.0000000000000000e+00 +9.9999999729255051e-01
1.4000000000000001e+00 +8.1649445274946864e+00 +0.0000000000000000e+00 +1.3999999985346667e+00 -7.9246463617652088e-05 +0.0000000000000000e+00 +9.9999999685999907e-01
1.5000000000000002e+00 +8.1649363198250580e+00 +0.0000000000000000e+00 +1.4999999981977039e+00 -8.4906928925211305e-05 +0.0000000000000000e+00 +9.9999999639540682e-01
1.6000000000000003e+00 +8.1649275461089026e+00 +0.0000000000000000e+00 +1.5999999978126800e+00 -9.0567394146926619e-05 +0.0000000000000000e+00 +9.9999999589877364e-01
1.7000000000000004e+00 +8.1649182063462327e+00 +0.0000000000000000e+00 +1.6999999973763906e+00 -9.6227859222046592e-05 +0.0000000000000000e+00 +9.9999999537009965e-01
1.8000000000000005e+00 +8.1649083005370642e+00 +0.0000000000000000e+00 +1.7999999968856319e+00 -1.0188832410060976e-04 +0.0000000000000000e+00 +9.9999999480938484e-01
1.9000000000000006e+00 +8.1648978286814202e+00 +0.0000000000000000e+00 +1.8999999963371996e+00 -1.0754878874344458e-04 +0.0000000000000000e+00 +9.9999999421662911e-01
2.0000000000000004e+00 +8.1648867907793239e+00 +0.0000000000000000e+00 +1.9999999957278898e+00 -1.1320925312216920e-04 +0.0000000000000000e+00 +9.9999999359183256e-01
2.1000000000000005e+00 +8.1648751868308036e+00 +0.0000000000000000e+00 +2.0999999950544983e+00 -1.1886971721939267e-04 +0.0000000000000000e+00 +9.9999999293499520e-01
2.2000000000000006e+00 +8.1648630168358896e+00 +0.0000000000000000e+00 +2.1999999943138211e+00 -1.2453018103092834e-04 +0.0000000000000000e+00 +9.9999999224611702e-01
2.3000000000000007e+00 +8.1648502807946066e+00 +0.0000000000000000e+00 +2.2999999935026540e+00 -1.3019064456800745e-04 +0.0000000000000000e+00 +9.9999999152519803e-01
2.4000000000000008e+00 +8.1648369787069832e+00 +0.0000000000000000e+00 +2.3999999926177931e+00 -1.3585110785748042e-04 +0.0000000000000000e+00 +9.9999999077223822e-01
2.5000000000000009e+00 +8.1648231105730424e+00 +0.0000000000000000e+00 +2.4999999916560340e+00 -1.4151157094181713e-04 +0.0000000000000000e+00 +9.9999998998723760e-01
2.6000000000000010e+00 +8.1648086763928003e+00 +0.0000000000000000e+00 +2.5999999906141729e+00 -1.4717203387910703e-04 +0.0000000000000000e+00 +9.9999998917019617e-01
2.7000000000000011e+00 +8.1647936761662692e+00 +0.0000000000000000e+00 +2.6999999894890054e+00 -1.5283249674305930e-04 +0.0000000000000000e+00 +9.9999998832111392e-01
2.8000000000000012e+00 +8.1647781098934509e+00 +0.0000000000000000e+00 +2.7999999882773277e+00 -1.5849295962300309e-04 +0.0000000000000000e+00 +9.9999998743999086e-01
2.9000000000000012e+00 +8.1647619775743401e+00 +0.0000000000000000e+00 +2.8999999869759354e+00 -1.6415342262388779e-04 +0.0000000000000000e+00 +9.9999998652682687e-01
3.0000000000000013e+00 +8.1647452792089190e+00 +0.0000000000000000e+00 +2.9999999855816251e+00 -1.6981388586628329e-04 +0.0000000000000000e+00 +9.9999998558162206e-01
3.1000000000000014e+00 +8.1647280147971557e+00 +0.0000000000000000e+00 +3.0999999840911920e+00 -1.7547434948638025e-04 +0.0000000000000000e+00 +9.9999998460437634e-01
3.2000000000000015e+00 +8.1647101843390040e+00 +0.0000000000000000e+00 +3.1999999825014322e+00 -1.8113481363599043e-04 +0.0000000000000000e+00 +9.9999998359508968e-01
3.3000000000000016e+00 +8.1646917878344052e+00 +0.0000000000000000e+00 +3.2999999808091420e+00 -1.8679527848254696e-04 +0.0000000000000000e+00 +9.9999998255376199e-01
3.4000000000000017e+00 +8.1646728252832794e+00 +0.0000000000000000e+00 +3.3999999790111168e+00 -1.9245574420910478e-04 +0.0000000000000000e+00 +9.9999998148039326e-01
3.5000000000000018e+00 +8.1646532966855290e+00 +0.0000000000000000e+00 +3.4999999771041526e+00 -1.9811621101434098e-04 +0.0000000000000000e+00 +9.9999998037498350e-01
3.6000000000000019e+00 +8.1646332020410348e+00 +0.0000000000000000e+00 +3.5999999750850455e+00 -2.0377667911255519e-04 +0.0000000000000000e+00 +9.9999997923753259e-01
3.7000000000000020e+00 +8.1646125413496566e+00 +0.0000000000000000e+00 +3.6999999729505912e+00 -2.0943714873367003e-04 +0.0000000000000000e+00 +9.9999997806804042e-01
3.8000000000000020e+00 +8.1645913146112292e+00 +0.0000000000000000e+00 +3.7999999706975855e+00 -2.1509762012323150e-04 +0.0000000000000000e+00 +9.9999997686650699e-01
3.9000000000000021e+00 +8.1645695218255643e+00 +0.0000000000000000e+00 +3.8999999683228244e+00 -2.2075809354240951e-04 +0.0000000000000000e+00 +9.9999997563293208e-01
4.0000000000000018e+00 +8.1645471629924433e+00 +0.0000000000000000e+00 +3.9999999658231036e+00 -2.2641856926799834e-04 +0.0000000000000000e+00 +9.9999997436731569e-01
4.1000000000000014e+00 +8.1645242381116230e+00 +0.0000000000000000e+00 +4.0999999631952191e+00 -2.3207904759106859e-04 +0.0000000000000000e+00 +9.9999997306965771e-01
4.2000000000000011e+00 +8.1645007471828279e+00 +0.0000000000000000e+00 +4.1999999604359672e+00 -2.3773952880213310e-04 +0.0000000000000000e+00 +9.9999997173995803e-01
4.3000000000000007e+00 +8.1644766902057562e+00 +0.0000000000000000e+00 +4.2999999575421430e+00 -2.4340001317631248e-04 +0.0000000000000000e+00 +9.9999997037821653e-01
4.4000000000000004e+00 +8.1644520671800791e+00 +0.0000000000000000e+00 +4.3999999545105428e+00 -2.4906050097198634e-04 +0.0000000000000000e+00 +9.9999996898443311e-01
4.5000000000000000e+00 +8.1644268781054397e+00 +0.0000000000000000e+00 +4.4999999513379620e+00 -2.5472099243079277e-04 +0.0000000000000000e+00 +9.9999996755860765e-01
4.5999999999999996e+00 +8.1644011229814630e+00 +0.0000000000000000e+00 +4.5999999480211962e+00 -2.6038148777762809e-04 +0.0000000000000000e+00 +9.9999996610074005e-01
4.6999999999999993e+00 +8.1643748018077478e+00 +0.0000000000000000e+00 +4.6999999445570415e+00 -2.6604198722064655e-04 +0.0000000000000000e+00 +9.9999996461083007e-01
4.7999999999999989e+00 +8.1643479145838764e+00 +0.0000000000000000e+00 +4.7999999409422935e+00 -2.7170249095125976e-04 +0.0000000000000000e+00 +9.9999996308887773e-01
4.8999999999999986e+00 +8.1643204613094102e+00 +0.0000000000000000e+00 +4.8999999371737486e+00 -2.7736299914413631e-04 +0.0000000000000000e+00 +9.9999996153488280e-01
4.9999999999999982e+00 +8.1642924419838945e+00 +0.0000000000000000e+00 +4.9999999332482021e+00 -2.8302351195720138e-04 +0.0000000000000000e+00 +9.9999995994884527e-01
5.0999999999999979e+00 +8.1642638566068602e+00 +0.0000000000000000e+00 +5.0999999291624496e+00 -2.8868402953163608e-04 +0.0000000000000000e+00 +9.9999995833076494e-01
5.1999999999999975e+00 +8.1642347051778259e+00 +0.0000000000000000e+00 +5.1999999249132873e+00 -2.9434455199187700e-04 +0.0000000000000000e+00 +9.9999995668064168e-01
5.2999999999999972e+00 +8.1642049876962961e+00 +0.0000000000000000e+00 +5.2999999204975099e+00 -3.0000507944561577e-04 +0.0000000000000000e+00 +9.9999995499847538e-01
5.3999999999999968e+00 +8.1641747041617680e+00 +0.0000000000000000e+00 +5.3999999159119136e+00 -3.0566561198379832e-04 +0.0000000000000000e+00 +9.9999995328426594e-01
5.4999999999999964e+00 +8.1641438545737284e+00 +0.0000000000000000e+00 +5.4999999111532949e+00 -3.1132614968062435e-04 +0.0000000000000000e+00 +9.9999995153801324e-01
5.5999999999999961e+00 +8.1641124389316584e+00 +0.0000000000000000e+00 +5.5999999062184482e+00 -3.1698669259354665e-04 +0.0000000000000000e+00 +9.9999994975971729e-01
5.6999999999999957e+00 +8.1640804572350341e+00 +0.0000000000000000e+00 +5.6999999011041700e+00 -3.2264724076327045e-04 +0.0000000000000000e+00 +9.9999994794937785e-01
5.7999999999999954e+00 +8.1640479094833296e+00 +0.0000000000000000e+00 +5.7999998958072556e+00 -3.2830779421375283e-04 +0.0000000000000000e+00 +9.9999994610699483e-01
5.8999999999999950e+00 +8.1640147956760156e+00 +0.0000000000000000e+00 +5.8999998903245006e+00 -3.3396835295220183e-04 +0.0000000000000000e+00 +9.9999994423256822e-01
5.9999999999999947e+00 +8.1639811158125628e+00 +0.0000000000000000e+00 +5.9999998846527012e+00 -3.3962891696907578e-04 +0.0000000000000000e+00 +9.9999994232609790e-01
6.0999999999999943e+00 +8.1639468698924453e+00 +0.0000000000000000e+00 +6.0999998787886520e+00 -3.4528948623882268e-04 +0.0000000000000000e+00 +9.9999994038758377e-01
6.1999999999999940e+00 +8.1639120579151410e+00 +0.0000000000000000e+00 +6.1999998727291494e+00 -3.5095006072802113e-04 +0.0000000000000000e+00 +9.9999993841702572e-01
6.2999999999999936e+00 +8.1638766798801274e+00 +0.0000000000000000e+00 +6.2999998664709889e+00 -3.5661064040352187e-04 +0.0000000000000000e+00 +9.9999993641442375e-01
6.3999999999999932e+00 +8.1638407357868878e+00 +0.0000000000000000e+00 +6.3999998600109658e+00 -3.6227122523318828e-04 +0.0000000000000000e+00 +9.9999993437977774e-01
6.4999999999999929e+00 +8.1638042256349088e+00 +0.0000000000000000e+00 +6.4999998533458765e+00 -3.6793181518589665e-04 +0.0000000000000000e+00 +9.9999993231308759e-01
6.5999999999999925e+00 +8.1637671494236805e+00 +0.0000000000000000e+00 +6.5999998464725156e+00 -3.7359241023153658e-04 +0.0000000000000000e+00 +9.9999993021435329e-01
6.6999999999999922e+00 +8.1637295071526932e+00 +0.0000000000000000e+00 +6.6999998393876794e+00 -3.7925301034101122e-04 +0.0000000000000000e+00 +9.9999992808357474e-01
6.7999999999999918e+00 +8.1636912988214441e+00 +0.0000000000000000e+00 +6.7999998320881625e+00 -3.8491361548623779e-04 +0.0000000000000000e+00 +9.9999992592075182e-01
6.8999999999999915e+00 +8.1636525244294287e+00 +0.0000000000000000e+00 +6.8999998245707612e+00 -3.9057422564014793e-04 +0.0000000000000000e+00 +9.9999992372588453e-01
6.9999999999999911e+00 +8.1636131839761497e+00 +0.0000000000000000e+00 +6.9999998168322710e+00 -3.9623484077668815e-04 +0.0000000000000000e+00 +9.9999992149897265e-01
7.0999999999999908e+00 +8.1635732774611078e+00 +0.0000000000000000e+00 +7.0999998088694873e+00 -4.0189546087082012e-04 +0.0000000000000000e+00 +9.9999991924001630e-01
7.1999999999999904e+00 +8.1635328048838112e+00 +0.0000000000000000e+00 +7.1999998006792056e+00 -4.0755608589852137e-04 +0.0000000000000000e+00 +9.9999991694901524e-01
7.2999999999999901e+00 +8.1634917662437658e+00 +0.0000000000000000e+00 +7.2999997922582223e+00 -4.1321671583678546e-04 +0.0000000000000000e+00 +9.9999991462596949e-01
7.3999999999999897e+00 +8.1634501615404815e+00 +0.0000000000000000e+00 +7.3999997836033318e+00 -4.1887735066362277e-04 +0.0000000000000000e+00 +9.9999991227087892e-01
7.4999999999999893e+00 +8.1634079907734716e+00 +0.0000000000000000e+00 +7.4999997747113296e+00 -4.2453799035806081e-04 +0.0000000000000000e+00 +9.9999990988374354e-01
7.5999999999999890e+00 +8.1633652539422492e+00 +0.0000000000000000e+00 +7.5999997655790121e+00 -4.3019863490014484e-04 +0.0000000000000000e+00 +9.9999990746456324e-01
7.6999999999999886e+00 +8.1633219510463313e+00 +0.0000000000000000e+00 +7.6999997562031739e+00 -4.3585928427093831e-04 +0.0000000000000000e+00 +9.9999990501333791e-01
7.7999999999999883e+00 +8.1632780820852346e+00 +0.0000000000000000e+00 +7.7999997465806112e+00 -4.4151993845252351e-04 +0.0000000000000000e+00 +9.9999990253006754e-01
7.8999999999999879e+00 +8.1632336470584796e+00 +0.0000000000000000e+00 +7.8999997367081196e+00 -4.4718059742800213e-04 +0.0000000000000000e+00 +9.9999990001475192e-01
7.9999999999999876e+00 +8.1631886459655885e+00 +0.0000000000000000e+00 +7.9999997265824936e+00 -4.5284126118149586e-04 +0.0000000000000000e+00 +9.9999989746739115e-01
8.0999999999999872e+00 +8.1631430788060833e+00 +0.0000000000000000e+00 +8.0999997162005286e+00 -4.5850192969795333e-04 +0.0000000000000000e+00 +9.9999989488798502e-01
8.1999999999999869e+00 +8.1630969455794897e+00 +0.0000000000000000e+00 +8.1999997055590210e+00 -4.6416260296102020e-04 +0.0000000000000000e+00 +9.9999989227653352e-01
8.2999999999999865e+00 +8.1630502462853336e+00 +0.0000000000000000e+00 +8.2999996946547672e+00 -4.6982328095090882e-04 +0.0000000000000000e+00 +9.9999988963303654e-01
8.3999999999999861e+00 +8.1630029809231424e+00 +0.0000000000000000e+00 +8.3999996834845607e+00 -4.7548396364420427e-04 +0.0000000000000000e+00 +9.9999988695749409e-01
8.4999999999999858e+00 +8.1629551494924488e+00 +0.0000000000000000e+00 +8.4999996720451971e+00 -4.8114465101386388e-04 +0.0000000000000000e+00 +9.9999988424990605e-01
8.5999999999999854e+00 +8.1629067519927858e+00 +0.0000000000000000e+00 +8.5999996603334736e+00 -4.8680534302921705e-04 +0.0000000000000000e+00 +9.9999988151027230e-01
8.6999999999999851e+00 +8.1628577884236897e+00 +0.0000000000000000e+00 +8.6999996483461839e+00 -4.9246603965596460e-04 +0.0000000000000000e+00 +9.9999987873859286e-01
8.7999999999999847e+00 +8.1628082587847022e+00 +0.0000000000000000e+00 +8.7999996360801234e+00 -4.9812674085617870e-04 +0.0000000000000000e+00 +9.9999987593486761e-01
8.8999999999999844e+00 +8.1627581630753667e+00 +0.0000000000000000e+00 +8.8999996235320893e+00 -5.0378744658830237e-04 +0.0000000000000000e+00 +9.9999987309909655e-01
8.9999999999999840e+00 +8.1627075012952339e+00 +0.0000000000000000e+00 +8.9999996106988753e+00 -5.0944815680714877e-04 +0.0000000000000000e+00 +9.9999987023127956e-01
9.0999999999999837e+00 +8.1626562734438579e+00 +0.0000000000000000e+00 +9.0999995975772769e+00 -5.1510887146390127e-04 +0.0000000000000000e+00 +9.9999986733141666e-01
9.1999999999999833e+00 +8.1626044795207964e+00 +0.0000000000000000e+00 +9.1999995841640896e+00 -5.2076959050611268e-04 +0.0000000000000000e+00 +9.9999986439950783e-01
9.2999999999999829e+00 +8.1625521195256123e+00 +0.0000000000000000e+00 +9.2999995704561105e+00 -5.2643031387770490e-04 +0.0000000000000000e+00 +9.9999986143555297e-01
9.3999999999999826e+00 +8.1624991934578777e+00 +0.0000000000000000e+00 +9.3999995564501333e+00 -5.3209104151896855e-04 +0.0000000000000000e+00 +9.9999985843955197e-01
9.4999999999999822e+00 +8.1624457013171678e+00 +0.0000000000000000e+00 +9.4999995421429535e+00 -5.3775177336656214e-04 +0.0000000000000000e+00 +9.9999985541150493e-01
9.5999999999999819e+00 +8.1623916431030654e+00 +0.0000000000000000e+00 +9.5999995275313665e+00 -5.4341250935351212e-04 +0.0000000000000000e+00 +9.9999985235141176e-01
9.6999999999999815e+00 +8.1623370188151601e+00 +0.0000000000000000e+00 +9.6999995126121679e+00 -5.4907324940921200e-04 +0.0000000000000000e+00 +9.9999984925927232e-01
9.7999999999999812e+00 +8.1622818284530503e+00 +0.0000000000000000e+00 +9.7999994973821529e+00 -5.5473399345942189e-04 +0.0000000000000000e+00 +9.9999984613508675e-01
9.8999999999999808e+00 +8.1622260720163382e+00 +0.0000000000000000e+00 +9.8999994818381172e+00 -5.6039474142626823e-04 +0.0000000000000000e+00 +9.9999984297885491e-01
9.9999999999999805e+00 +8.1621697495046366e+00 +0.0000000000000000e+00 +9.9999994659768561e+00 -5.6605549322824285e-04 +0.0000000000000000e+00 +9.9999983979057683e-01
1.0099999999999980e+01 +8.1621128609175670e+00 +0.0000000000000000e+00 +1.0099999449795165e+01 -5.7171624878098041e-04 +0.0000000000000000e+00 +9.9999983657025249e-01
1.0199999999999980e+01 +8.1620554062547583e+00 +0.0000000000000000e+00 +1.0199999433289840e+01 -5.7737700800581315e-04 +0.0000000000000000e+00 +9.9999983331788178e-01
1.0299999999999979e+01 +8.1619973855158463e+00 +0.0000000000000000e+00 +1.0299999416457673e+01 -5.8303777083832569e-04 +0.0000000000000000e+00 +9.9999983003346482e-01
1.0399999999999979e+01 +8.1619387987004721e+00 +0.0000000000000000e+00 +1.0399999399295464e+01 -5.8869853722913316e-04 +0.0000000000000000e+00 +9.9999982671700149e-01
1.0499999999999979e+01 +8.1618796458082823e+00 +0.0000000000000000e+00 +1.0499999381800006e+01 -5.9435930714388133e-04 +0.0000000000000000e+00 +9.9999982336849180e-01
1.0599999999999978e+01 +8.1618199268389269e+00 +0.0000000000000000e+00 +1.0599999363968093e+01 -6.0002008056324698e-04 +0.0000000000000000e+00 +9.9999981998793563e-01
1.0699999999999978e+01 +8.1617596417920542e+00 +0.0000000000000000e+00 +1.0699999345796524e+01 -6.0568085748293800e-04 +0.0000000000000000e+00 +9.9999981657533299e-01
1.0799999999999978e+01 +8.1616987906673142e+00 +0.0000000000000000e+00 +1.0799999327282093e+01 -6.1134163791369360e-04 +0.0000000000000000e+00 +9.9999981313068376e-01
1.0899999999999977e+01 +8.1616373734643535e+00 +0.0000000000000000e+00 +1.0899999308421593e+01 -6.1700242188128453e-04 +0.0000000000000000e+00 +9.9999980965398794e-01
1.0999999999999977e+01 +8.1615753901828185e+00 +0.0000000000000000e+00 +1.0999999289211821e+01 -6.2266320942651332e-04 +0.0000000000000000e+00 +9.9999980614524542e-01
1.1099999999999977e+01 +8.1615128408223470e+00 +0.0000000000000000e+00 +1.1099999269649574e+01 -6.2832400060521465e-04 +0.0000000000000000e+00 +9.9999980260445609e-01
1.1199999999999976e+01 +8.1614497253825729e+00 +0.0000000000000000e+00 +1.1199999249731645e+01 -6.3398479548825554e-04 +0.0000000000000000e+00 +9.9999979903161984e-01
1.1299999999999976e+01 +8.1613860438631232e+00 +0.0000000000000000e+00 +1.1299999229454830e+01 -6.3964559416153561e-04 +0.0000000000000000e+00 +9.9999979542673645e-01
1.1399999999999975e+01 +8.1613217962636124e+00 +0.0000000000000000e+00 +1.1399999208815924e+01 -6.4530639672598724e-04 +0.0000000000000000e+00 +9.9999979178980591e-01
1.1499999999999975e+01 +8.1612569825836445e+00 +0.0000000000000000e+00 +1.1499999187811722e+01 -6.5096720329757595e-04 +0.0000000000000000e+00 +9.9999978812082813e-01
1.1599999999999975e+01 +8.1611916028228144e+00 +0.0000000000000000e+00 +1.1599999166439021e+01 -6.5662801400730067e-04 +0.0000000000000000e+00 +9.9999978441980286e-01
1.1699999999999974e+01 +8.1611256569807011e+00 +0.0000000000000000e+00 +1.1699999144694615e+01 -6.6228882900119400e-04 +0.0000000000000000e+00 +9.9999978068672990e-01
1.1799999999999974e+01 +8.1610591450568677e+00 +0.0000000000000000e+00 +1.1799999122575299e+01 -6.6794964844032263e-04 +0.0000000000000000e+00 +9.9999977692160913e-01
