# multipoles
# s[mm] polynom_b[n=0][T/m^n] polynom_b[n=1][T/m^n] polynom_b[n=2][T/m^n] polynom_b[n=3][T/m^n] polynom_b[n=4][T/m^n] polynom_b[n=5][T/m^n] polynom_b[n=6][T/m^n] 
+0.0000000000000000e+00 -5.6492115402680243e-01 +7.7432171271910839e+00 -2.8282096060609724e-01 -1.9555795860794454e+01 +2.8075373292215236e+03 -8.7502546773492635e+04 -2.0915234884833243e+07 
-1.0000000000000001e-01 -5.6492132784821236e-01 +7.7432185953150396e+00 -2.8458881838669875e-01 -1.9287124378831464e+01 +2.8330234100437060e+03 -8.9084885774753377e+04 -2.0999191245476544e+07 
-2.0000000000000001e-01 -5.6492150271005792e-01 +7.7432195833102293e+00 -2.8689207603936601e-01 -1.8981976915849895e+01 +2.8669653049063236e+03 -9.0979081070424174e+04 -2.1117219900521949e+07 
-3.0000000000000004e-01 -5.6492167873938592e-01 +7.7432201468637833e+00 -2.8966479388080341e-01 -1.8647410104623287e+01 +2.9083276359393717e+03 -9.3133274485045476e+04 -2.1265235744002219e+07 
-4.0000000000000002e-01 -5.6492185606322132e-01 +7.7432203416708019e+00 -2.9284103533176775e-01 -1.8290480790663601e+01 +2.9560750874500104e+03 -9.5495606678066033e+04 -2.1439153969336499e+07 
-5.0000000000000000e-01 -5.6492203480860881e-01 +7.7432202234207814e+00 -2.9635486176968340e-01 -1.7918245665148945e+01 +3.0091723105230494e+03 -9.8014219191063748e+04 -2.1634889623460688e+07 
-5.9999999999999998e-01 -5.6492221510255980e-01 +7.7432198478055492e+00 -3.0014033831818943e-01 -1.7537761493570301e+01 +3.0665840277952780e+03 -1.0063725311247609e+05 -2.1848358095491029e+07 
-6.9999999999999996e-01 -5.6492239707210512e-01 +7.7432192705210703e+00 -3.0413152786333830e-01 -1.7156085150655475e+01 +3.1272749228074454e+03 -1.0331284892231536e+05 -2.2075474597665936e+07 
-7.9999999999999993e-01 -5.6492258084427394e-01 +7.7432185472574098e+00 -3.0826249296554004e-01 -1.6780273346690809e+01 +3.1902096740407574e+03 -1.0598914801493564e+05 -2.2312154326664239e+07 
-8.9999999999999991e-01 -5.6492276654608620e-01 +7.7432177337104910e+00 -3.1246729694620512e-01 -1.6417382958699033e+01 +3.2543529765996095e+03 -1.0861429080821919e+05 -2.2554312569570981e+07 
-9.9999999999999989e-01 -5.6492295430459505e-01 +7.7432168855674117e+00 -3.1667999875382147e-01 -1.6074470615283179e+01 +3.3186694454729477e+03 -1.1113641910487589e+05 -2.2797864248593133e+07 
-1.0999999999999999e+00 -5.6492314424681456e-01 +7.7432160585180139e+00 -3.2083466057675125e-01 -1.5758593016168003e+01 +3.3821237511641507e+03 -1.1350367428072910e+05 -2.3038724544233777e+07 
-1.2000000000000000e+00 -5.6492333649980564e-01 +7.7432153082463389e+00 -3.2486533837075876e-01 -1.5476806703055036e+01 +3.4436804507130346e+03 -1.1566419854673365e+05 -2.3272808124634817e+07 
-1.3000000000000000e+00 -5.6492353119062666e-01 +7.7432146904378492e+00 -3.2870608756508712e-01 -1.5236168252273025e+01 +3.5023040906519914e+03 -1.1756613388302612e+05 -2.3496029619533144e+07 
-1.4000000000000001e+00 -5.6492372844633199e-01 +7.7432142607706158e+00 -3.3229096265587138e-01 -1.5043734031491027e+01 +3.5569591970416550e+03 -1.1915762339524891e+05 -2.3704303572012659e+07 
-1.5000000000000002e+00 -5.6492392839400263e-01 +7.7432140749158718e+00 -3.3555401334192475e-01 -1.4906560209864585e+01 +3.6066102038855420e+03 -1.2038681127203954e+05 -2.3893544105075907e+07 
-1.6000000000000003e+00 -5.6492413116071971e-01 +7.7432141885468733e+00 -3.3842928779361836e-01 -1.4831703021876946e+01 +3.6502215135181391e+03 -1.2120184122238570e+05 -2.4059665204739355e+07 
-1.7000000000000004e+00 -5.6492433687360510e-01 +7.7432146573270275e+00 -3.4085082765116198e-01 -1.4826218407440928e+01 +3.6867574024997011e+03 -1.2155085860272236e+05 -2.4198580277752392e+07 
-1.8000000000000005e+00 -5.6492454565975081e-01 +7.7432155369131177e+00 -3.4275267617427141e-01 -1.4897162133158387e+01 +3.7151821742453753e+03 -1.2138200962642251e+05 -2.4306202874892965e+07 
-1.9000000000000006e+00 -5.6492475764632311e-01 +7.7432168829553252e+00 -3.4406886578195894e-01 -1.5051589753058879e+01 +3.7344599252672547e+03 -1.2064344169636788e+05 -2.4378445588353369e+07 
-2.0000000000000004e+00 -5.6492497296046151e-01 +7.7432187510989801e+00 -3.4473342947479713e-01 -1.5296556708430270e+01 +3.7435547542985646e+03 -1.1928330267616634e+05 -2.4411221027159497e+07 
-2.1000000000000005e+00 -5.6492519171761424e-01 +7.7432211843623078e+00 -3.4470166317529388e-01 -1.5636453423590895e+01 +3.7417822007062873e+03 -1.1726867217914946e+05 -2.4401878210486155e+07 
-2.2000000000000006e+00 -5.6492541397454044e-01 +7.7432241802301389e+00 -3.4401544267976747e-01 -1.6065031144657688e+01 +3.7298615808893128e+03 -1.1464249284222504e+05 -2.4353423257610366e+07 
-2.3000000000000007e+00 -5.6492563977036425e-01 +7.7432277260067268e+00 -3.4273867353776072e-01 -1.6573383703690840e+01 +3.7088626541889421e+03 -1.1146672525206025e+05 -2.4270254238062054e+07 
-2.4000000000000008e+00 -5.6492586914422205e-01 +7.7432318090029089e+00 -3.4093526044145628e-01 -1.7152605125354032e+01 +3.6798551630132206e+03 -1.0780332889046033e+05 -2.4156769128302753e+07 
-2.5000000000000009e+00 -5.6492610213526750e-01 +7.7432364165279939e+00 -3.3866910720710675e-01 -1.7793789403394641e+01 +3.6439088344526253e+03 -1.0371426340832947e+05 -2.4017365821644183e+07 
-2.6000000000000010e+00 -5.6492633878260801e-01 +7.7432415358935405e+00 -3.3600412461492080e-01 -1.8488030598163245e+01 +3.6020935276786295e+03 -9.9261488100543575e+04 -2.3856442822434444e+07 
-2.7000000000000011e+00 -5.6492657912537148e-01 +7.7432471544137194e+00 -3.3300422248950273e-01 -1.9226422855443289e+01 +3.5554790841093327e+03 -9.4506961781604725e+04 -2.3678398531384945e+07 
-2.8000000000000012e+00 -5.6492682320266863e-01 +7.7432532594064671e+00 -3.2973331453154930e-01 -2.0000060441205729e+01 +3.5051354198129375e+03 -8.9512642589538606e+04 -2.3487631685116023e+07 
-2.9000000000000012e+00 -5.6492707105360673e-01 +7.7432598381901263e+00 -3.2625531679089986e-01 -2.0800037639451968e+01 +3.4521324974531708e+03 -8.4340488596374416e+04 -2.3288541222642660e+07 
-3.0000000000000013e+00 -5.6492732271727930e-01 +7.7432668780921157e+00 -3.2263414901943716e-01 -2.1617449008422721e+01 +3.3975403467061378e+03 -7.9052456322014841e+04 -2.3085526362539146e+07 
-3.1000000000000014e+00 -5.6492757823277773e-01 +7.7432743664408425e+00 -3.1893373407869019e-01 -2.2443389143102522e+01 +3.3424290635717362e+03 -7.3710502126918611e+04 -2.2882986629740603e+07 
-3.2000000000000015e+00 -5.6492783763916132e-01 +7.7432822905719991e+00 -3.1521800068203976e-01 -2.3268952863575070e+01 +3.2878688499338678e+03 -6.8376581106007419e+04 -2.2685322003320802e+07 
-3.3000000000000016e+00 -5.6492810097549617e-01 +7.7432906378220290e+00 -3.1155088023988708e-01 -2.4085235018670421e+01 +3.2349299651212350e+03 -6.3112648265544412e+04 -2.2496932715981532e+07 
-3.4000000000000017e+00 -5.6492836828082216e-01 +7.7432993955378233e+00 -3.0799630983773274e-01 -2.4883330777730951e+01 +3.1846827751972178e+03 -5.7980656798952783e+04 -2.2322219466296226e+07 
-3.5000000000000018e+00 -5.6492863959415440e-01 +7.7433085510715101e+00 -3.0461823325252957e-01 -2.5654335469092857e+01 +3.1381977757398372e+03 -5.3042559063400724e+04 -2.2165583532389943e+07 
-3.6000000000000019e+00 -5.6492891495451414e-01 +7.7433180917838422e+00 -3.0148059658821375e-01 -2.6389344685399294e+01 +3.0965455068972387e+03 -4.8360305969764624e+04 -2.2031426360633183e+07 
-3.7000000000000020e+00 -5.6492919440089628e-01 +7.7433280050391078e+00 -2.9864735311079271e-01 -2.7079454133591376e+01 +3.0607966482817806e+03 -4.3995847845395961e+04 -2.1924150021978740e+07 
-3.8000000000000020e+00 -5.6492947797225423e-01 +7.7433382782117715e+00 -2.9618246499431961e-01 -2.7715759830058214e+01 +3.0320220501976810e+03 -4.0011133320159912e+04 -2.1848157352447670e+07 
-3.9000000000000021e+00 -5.6492976570754805e-01 +7.7433488986835481e+00 -2.9414989765579880e-01 -2.8289358013916516e+01 +3.0112926256915393e+03 -3.6468109841108126e+04 -2.1807851435304962e+07 
-4.0000000000000018e+00 -5.6493005764569881e-01 +7.7433598538475943e+00 -2.9261362555508269e-01 -2.8791345284364464e+01 +2.9996794618156664e+03 -3.3428722851029561e+04 -2.1807636133434754e+07 
-4.1000000000000014e+00 -5.6493035385076706e-01 +7.7433711288533873e+00 -2.9161861010389950e-01 -2.9215023922273900e+01 +2.9978882879506209e+03 -3.0939575338267874e+04 -2.1850264663236737e+07 
-4.2000000000000011e+00 -5.6493065450411395e-01 +7.7433826888984418e+00 -2.9113127206416062e-01 -2.9562332050285736e+01 +3.0051743275701465e+03 -2.8986592804672615e+04 -2.1932063112502836e+07 
-4.3000000000000007e+00 -5.6493095982061803e-01 +7.7433944915488722e+00 -2.9109775730778376e-01 -2.9837328826975554e+01 +3.0204326245414982e+03 -2.7540653089178213e+04 -2.2047793594779603e+07 
-4.4000000000000004e+00 -5.6493127001518839e-01 +7.7434064943751153e+00 -2.9146420781633675e-01 -3.0044073477391276e+01 +3.0425581551433002e+03 -2.6572633847104393e+04 -2.2192217929921370e+07 
-4.5000000000000000e+00 -5.6493158530272469e-01 +7.7434186549415251e+00 -2.9217676490857070e-01 -3.0186625017548902e+01 +3.0704458782143256e+03 -2.6053414044278448e+04 -2.2360097854348328e+07 
-4.5999999999999996e+00 -5.6493190589812436e-01 +7.7434309308128864e+00 -2.9318156914341137e-01 -3.0269042427242546e+01 +3.1029907384413673e+03 -2.5953873010441959e+04 -2.2546195053273194e+07 
-4.6999999999999993e+00 -5.6493223201628262e-01 +7.7434432795460273e+00 -2.9442476036286086e-01 -3.0295384402443510e+01 +3.1390876705543674e+03 -2.6244891880553132e+04 -2.2745271191043355e+07 
-4.7999999999999989e+00 -5.6493256387208746e-01 +7.7434556587045886e+00 -2.9585247710533491e-01 -3.0269709779421273e+01 +3.1776315790457611e+03 -2.6897351145176908e+04 -2.2952087791540325e+07 
-4.8999999999999986e+00 -5.6493290168044574e-01 +7.7434680258394897e+00 -2.9741085473827394e-01 -3.0196076977424269e+01 +3.2175173114577942e+03 -2.7882133861362967e+04 -2.3161406134358581e+07 
-4.9999999999999982e+00 -5.6493324565625491e-01 +7.7434803385058668e+00 -2.9904602759648619e-01 -3.0078544464554884e+01 +3.2576396953400067e+03 -2.9170123013183893e+04 -2.3367987427195027e+07 
-5.0999999999999979e+00 -5.6493359601442394e-01 +7.7434925542511799e+00 -3.0070412660698836e-01 -2.9921170444928471e+01 +3.2968934902434330e+03 -3.0732203237759735e+04 -2.3566592566077270e+07 
-5.1999999999999975e+00 -5.6493395296983384e-01 +7.7435046306200306e+00 -3.0233128460027298e-01 -2.9728012955682384e+01 +3.3341734945856542e+03 -3.2539260384800920e+04 -2.3751982663779289e+07 
-5.2999999999999972e+00 -5.6493431673741867e-01 +7.7435165251537201e+00 -3.0387362547021057e-01 -2.9503129877793395e+01 +3.3683743356394007e+03 -3.4562181381036091e+04 -2.3918918041678138e+07 
-5.3999999999999968e+00 -5.6493468753206089e-01 +7.7435281953926900e+00 -3.0527727703148205e-01 -2.9250578998801561e+01 +3.3983907129974136e+03 -3.6771853895079788e+04 -2.4062159386603858e+07 
-5.4999999999999964e+00 -5.6493506556867967e-01 +7.7435395988677964e+00 -3.0648836069426511e-01 -2.8974417756277447e+01 +3.4231172068129044e+03 -3.9139167823939701e+04 -2.4176466851864401e+07 
-5.5999999999999961e+00 -5.6493545106218557e-01 +7.7435506931074221e+00 -3.0745299600425763e-01 -2.8678703431158731e+01 +3.4414483594244507e+03 -4.1635014216016119e+04 -2.4256600435621958e+07 
-5.6999999999999957e+00 -5.6493584422749432e-01 +7.7435614356376510e+00 -3.0811729951391609e-01 -2.8367493170088327e+01 +3.4522786583288907e+03 -4.4230285087325254e+04 -2.4297319913535796e+07 
-5.7999999999999954e+00 -5.6493624527952113e-01 +7.7435717839778295e+00 -3.0842738496583766e-01 -2.8044843832953124e+01 +3.4545025349049424e+03 -4.6895874371186736e+04 -2.4293384819480628e+07 
-5.8999999999999950e+00 -5.6493665443318819e-01 +7.7435816956413914e+00 -3.0832936202858247e-01 -2.7714812029167717e+01 +3.4470143401355540e+03 -4.9602677675233048e+04 -2.4239554332480732e+07 
-5.9999999999999947e+00 -5.6493707190341735e-01 +7.7435911281382852e+00 -3.0776933818331231e-01 -2.7381454172956360e+01 +3.4287083898531528e+03 -5.2321591954895317e+04 -2.4130587516122989e+07 
-6.0999999999999943e+00 -5.6493749778146096e-01 +7.7436000541062526e+00 -3.0670552397059575e-01 -2.7048707923208202e+01 +3.3987609482008024e+03 -5.5024524266583932e+04 -2.3962699047621839e+07 
-6.1999999999999940e+00 -5.6493793166413242e-01 +7.7436085173250628e+00 -3.0514519055564598e-01 -2.6720491980872268e+01 +3.3574731239407311e+03 -5.7684741961351567e+04 -2.3737896269443631e+07 
-6.2999999999999936e+00 -5.6493837302476391e-01 +7.7436165820007332e+00 -3.0310805055898576e-01 -2.6400831684999066e+01 +3.3054273893833520e+03 -6.0275191781354144e+04 -2.3459632801794577e+07 
-6.3999999999999932e+00 -5.6493882133670159e-01 +7.7436243123308834e+00 -3.0061381340051085e-01 -2.6093752157089259e+01 +3.2432061548448564e+03 -6.2768821422032415e+04 -2.3131361993157506e+07 
-6.4999999999999929e+00 -5.6493927607334737e-01 +7.7436317725122352e+00 -2.9768217916326506e-01 -2.5803278551750335e+01 +3.1713916463203627e+03 -6.5138577980627684e+04 -2.2756536322949532e+07 
-6.5999999999999925e+00 -5.6493973670809916e-01 +7.7436390267341428e+00 -2.9433284687760530e-01 -2.5533435834650717e+01 +3.0905660678109648e+03 -6.7357409335080330e+04 -2.2338608187133770e+07 
-6.6999999999999922e+00 -5.6494020271440282e-01 +7.7436461391843698e+00 -2.9058550775520442e-01 -2.5288248988879726e+01 +3.0013114728586534e+03 -6.9398262824313657e+04 -2.1881029290194362e+07 
-6.7999999999999918e+00 -5.6494067356570932e-01 +7.7436531740424899e+00 -2.8645985033215388e-01 -2.5071742792659151e+01 +2.9042098599031328e+03 -7.1234086623307929e+04 -2.1387251090824760e+07 
-6.8999999999999915e+00 -5.6494114873551249e-01 +7.7436601954846473e+00 -2.8197555540357477e-01 -2.4887941987920787e+01 +2.7998430734453796e+03 -7.2837828653753590e+04 -2.0860724327696811e+07 
-6.9999999999999911e+00 -5.6494162769734413e-01 +7.7436672676830902e+00 -2.7715229768898664e-01 -2.4740871253520858e+01 +2.6887928444588215e+03 -7.4182436785286511e+04 -2.0304899234708104e+07 
-7.0999999999999908e+00 -5.6494210992473681e-01 +7.7436744548033918e+00 -2.7200974889802765e-01 -2.4634555133219763e+01 +2.5716408382640025e+03 -7.5240859210091803e+04 -1.9723225742918596e+07 
-7.1999999999999904e+00 -5.6494259489129295e-01 +7.7436818210059926e+00 -2.6656757022545224e-01 -2.4573018070196110e+01 +2.4489685178497757e+03 -7.5986044259385249e+04 -1.9119152846042633e+07 
-7.2999999999999901e+00 -5.6494308207061228e-01 +7.7436894304465946e+00 -2.6084542079848849e-01 -2.4560284446272671e+01 +2.3213573029199533e+03 -7.6390940097541767e+04 -1.8496129355209332e+07 
-7.3999999999999897e+00 -5.6494357093636338e-01 +7.7436973472725965e+00 -2.5486294887654443e-01 -2.4600378458424753e+01 +2.1893884019104466e+03 -7.6428495472123861e+04 -1.7857603097067572e+07 
-7.4999999999999893e+00 -5.6494406096220884e-01 +7.7437056356281362e+00 -2.4863980138137542e-01 -2.4697324268625461e+01 +2.0536429971025641e+03 -7.6071658843104015e+04 -1.7207021808812428e+07 
-7.5999999999999890e+00 -5.6494455162188517e-01 +7.7437143596528006e+00 -2.4219561281659768e-01 -2.4855145994855533e+01 +1.9147020231977256e+03 -7.5293378323544908e+04 -1.6547832052780027e+07 
-7.6999999999999886e+00 -5.6494504238912990e-01 +7.7437235834751403e+00 -2.3555001542406889e-01 -2.5077867483001135e+01 +1.7731463711429872e+03 -7.4066603127036447e+04 -1.5883480219445396e+07 
-7.7999999999999883e+00 -5.6494553273775805e-01 +7.7437333712219543e+00 -2.2872262947585073e-01 -2.5369512616019030e+01 +1.6295567014023889e+03 -7.2364281636744214e+04 -1.5217411631941734e+07 
-7.8999999999999879e+00 -5.6494602214157941e-01 +7.7437437870110415e+00 -2.2173307281702967e-01 -2.5734105086993011e+01 +1.4845136205167250e+03 -7.0159362767420593e+04 -1.4553071375310931e+07 
-7.9999999999999876e+00 -5.6494651007447205e-01 +7.7437548949545327e+00 -2.1460095267088602e-01 -2.6175668503334428e+01 +1.3385975317887865e+03 -6.7424795239762665e+04 -1.3893903595310085e+07 
-8.0999999999999872e+00 -5.6494699612845078e-01 +7.7437667258057612e+00 -2.0735661519623241e-01 -2.6695953829374734e+01 +1.1925426065452025e+03 -6.4148485760700663e+04 -1.3243768772418678e+07 
-8.1999999999999869e+00 -5.6494748033033104e-01 +7.7437791885105760e+00 -2.0007699691345734e-01 -2.7287344196909721e+01 +1.0476813912025073e+03 -6.0381493097988925e+04 -1.2607894744108787e+07 
-8.2999999999999865e+00 -5.6494796280571180e-01 +7.7437921640889806e+00 -1.9285169503235505e-01 -2.7939782882835424e+01 +9.0549211121881785e+02 -5.6191681572396643e+04 -1.1991771156029271e+07 
-8.3999999999999861e+00 -5.6494844368013553e-01 +7.7438055335924991e+00 -1.8577031813575942e-01 -2.8643214109247015e+01 +7.6745320231145604e+02 -5.1646910556771625e+04 -1.1400888563241471e+07 
-8.4999999999999858e+00 -5.6494892307907485e-01 +7.7438191780953982e+00 -1.7892248889224857e-01 -2.9387582858734408e+01 +6.3504337363107425e+02 -4.6815035415899452e+04 -1.0840738759746373e+07 
-8.5999999999999854e+00 -5.6494940112794800e-01 +7.7438329787097668e+00 -1.7239784202798739e-01 -3.0162835327595072e+01 +5.0974157256302300e+02 -4.1763904859141629e+04 -1.0316814621223079e+07 
-8.6999999999999851e+00 -5.6494987795208973e-01 +7.7438468165736865e+00 -1.6628602754636779e-01 -3.0958918574745564e+01 +3.9302703496030432e+02 -3.6561363020420751e+04 -9.8346103085619900e+06 
-8.7999999999999847e+00 -5.6495035367678315e-01 +7.7438605728616325e+00 -1.6067670797843961e-01 -3.1765780830505822e+01 +2.8637924796560526e+02 -3.1275247663062433e+04 -9.3996211319193263e+06 
-8.8999999999999844e+00 -5.6495082842722810e-01 +7.7438741287789865e+00 -1.5565956179051157e-01 -3.2573371340332066e+01 +1.9127800392718376e+02 -2.5973391113384263e+04 -9.0173437729554661e+06 
-8.9999999999999840e+00 -5.6495130232854662e-01 +7.7438873655677947e+00 -1.5132428297042622e-01 -3.3371640534869442e+01 +1.0920339773201493e+02 -2.0723619276280035e+04 -8.6932762862180602e+06 
-9.0999999999999837e+00 -5.6495177550577891e-01 +7.7439001645045638e+00 -1.4776058154985902e-01 -3.4150539968005624e+01 +4.1635833506176709e+01 -1.5593752020720469e+04 -8.4329181178502385e+06 
-9.1999999999999833e+00 -5.6495224808390654e-01 +7.7439124069022283e+00 -1.4505818120397251e-01 -3.4900022379184918e+01 -9.9440180754562864e+00 -1.0651602816386534e+04 -8.2417699084719941e+06 
-9.2999999999999829e+00 -5.6495272018780107e-01 +7.7439239741097952e+00 -1.4330682614080339e-01 -3.5610041684885338e+01 -4.4055086650876547e+01 -5.9649788071138055e+03 -8.1253341297540190e+06 
-9.3999999999999826e+00 -5.6495319194228899e-01 +7.7439347475140989e+00 -1.4259627199444452e-01 -3.6270553024170709e+01 -5.9216081572815895e+01 -1.6016805879253848e+03 -8.0891142128924048e+06 
-9.4999999999999822e+00 -5.6495366347208120e-01 +7.7439446085442230e+00 -1.4301629616030806e-01 -3.6871512910141412e+01 -5.3945288914886810e+01 +2.3704987332262317e+03 -8.1386155264593642e+06 
-9.5999999999999819e+00 -5.6495413490180091e-01 +7.7439534386675870e+00 -1.4465669347903351e-01 -3.7402879096837090e+01 -2.6760656750246927e+01 +5.8837726635687486e+03 -8.2793449631082024e+06 
-9.6999999999999815e+00 -5.6495460635599659e-01 +7.7439611193907663e+00 -1.4760727524909761e-01 -3.7854610619034901e+01 +2.3820185304353757e+01 +8.8703615951285592e+03 -8.5168108380963411e+06 
-9.7999999999999812e+00 -5.6495507795911459e-01 +7.7439675322627632e+00 -1.5195787312618245e-01 -3.8216667891381839e+01 +9.9280007361378608e+01 +1.1262493364541606e+04 -8.8565232964634467e+06 
-9.8999999999999808e+00 -5.6495554983550877e-01 +7.7439725588769379e+00 -1.5779833705890298e-01 -3.8479012759158266e+01 +2.0110192978211214e+02 +1.2992403508709698e+04 -9.3039940449144412e+06 
-9.9999999999999805e+00 -5.6495602210945539e-01 +7.7439760808713132e+00 -1.6521853403148534e-01 -3.8631608516823100e+01 +3.3076939962707564e+02 +1.3992334935594918e+04 -9.8647362764885984e+06 
-1.0099999999999980e+01 -5.6495649487050081e-01 +7.7439780185167404e+00 -1.7426851159092738e-01 -3.8667377890196214e+01 +4.8901874670564774e+02 +1.4213833393206978e+04 -1.0541149744841332e+07 
