# field on trajectory
# s[mm] rx[mm] ry[mm] rz[mm] bx[T] by[T] bz[T]
0.0000000000000000e+00 +8.1529999999999987e+00 +0.0000000000000000e+00 +0.0000000000000000e+00 -2.9278768141342521e-02 -5.6459188891706913e-01 +5.7099378311723289e-03
1.0000000000000001e-01 +8.1529997170139676e+00 +0.0000000000000000e+00 +9.9999999999466113e-02 -2.9278844196116566e-02 -5.6459191704385581e-01 +5.7099604287167765e-03
2.0000000000000001e-01 +8.1529988680558532e+00 +0.0000000000000000e+00 +1.9999999999572898e-01 -2.9278919194180370e-02 -5.6459195011943653e-01 +5.7099842528030029e-03
3.0000000000000004e-01 +8.1529974531256215e+00 +0.0000000000000000e+00 +2.9999999998558535e-01 -2.9278993218611781e-02 -5.6459198720555992e-01 +5.7100092724815680e-03
4.0000000000000002e-01 +8.1529954722232354e+00 +0.0000000000000000e+00 +3.9999999996583202e-01 -2.9279066352489627e-02 -5.6459202736397840e-01 +5.7100354568018000e-03
5.0000000000000000e-01 +8.1529929253486557e+00 +0.0000000000000000e+00 +4.9999999993326572e-01 -2.9279138678893177e-02 -5.6459206965644804e-01 +5.7100627748120532e-03
5.9999999999999998e-01 +8.1529898125018399e+00 +0.0000000000000000e+00 +5.9999999988468322e-01 -2.9279210280901628e-02 -5.6459211314472479e-01 +5.7100911955598960e-03
6.9999999999999996e-01 +8.1529861336827452e+00 +0.0000000000000000e+00 +6.9999999981688121e-01 -2.9279281241593607e-02 -5.6459215689056330e-01 +5.7101206880923313e-03
7.9999999999999993e-01 +8.1529818888913272e+00 +0.0000000000000000e+00 +7.9999999972665647e-01 -2.9279351644046613e-02 -5.6459219995571419e-01 +5.7101512214560194e-03
8.9999999999999991e-01 +8.1529770781275435e+00 +0.0000000000000000e+00 +8.9999999961080579e-01 -2.9279421571336523e-02 -5.6459224140192188e-01 +5.7101827646974697e-03
9.9999999999999989e-01 +8.1529717013913530e+00 +0.0000000000000000e+00 +9.9999999946612583e-01 -2.9279491106537089e-02 -5.6459228029092345e-01 +5.7102152868632816e-03
1.0999999999999999e+00 +8.1529657586827167e+00 +0.0000000000000000e+00 +1.0999999992894134e+00 -2.9279560332719400e-02 -5.6459231568444534e-01 +5.7102487570003420e-03
1.2000000000000000e+00 +8.1529592500015990e+00 +0.0000000000000000e+00 +1.1999999990774652e+00 -2.9279629332951352e-02 -5.6459234664420155e-01 +5.7102831441560422e-03
1.3000000000000000e+00 +8.1529521753479699e+00 +0.0000000000000000e+00 +1.2999999988270781e+00 -2.9279698190297153e-02 -5.6459237223189151e-01 +5.7103184173784892e-03
1.4000000000000001e+00 +8.1529445347218026e+00 +0.0000000000000000e+00 +1.3999999985350486e+00 -2.9279766987816810e-02 -5.6459239150919860e-01 +5.7103545457167348e-03
1.5000000000000002e+00 +8.1529363281230793e+00 +0.0000000000000000e+00 +1.4999999981981738e+00 -2.9279835808565559e-02 -5.6459240353778717e-01 +5.7103914982209658e-03
1.6000000000000003e+00 +8.1529275555517877e+00 +0.0000000000000000e+00 +1.5999999978132502e+00 -2.9279904735593429e-02 -5.6459240737930039e-01 +5.7104292439427362e-03
1.7000000000000004e+00 +8.1529182170079242e+00 +0.0000000000000000e+00 +1.6999999973770747e+00 -2.9279973851944658e-02 -5.6459240209535844e-01 +5.7104677519351811e-03
1.8000000000000005e+00 +8.1529083124914958e+00 +0.0000000000000000e+00 +1.7999999968864440e+00 -2.9280043240657194e-02 -5.6459238674755696e-01 +5.7105069912532121e-03
1.9000000000000006e+00 +8.1528978420025169e+00 +0.0000000000000000e+00 +1.8999999963381549e+00 -2.9280112984762165e-02 -5.6459236039746297e-01 +5.7105469309537511e-03
2.0000000000000004e+00 +8.1528868055410157e+00 +0.0000000000000000e+00 +1.9999999957290040e+00 -2.9280183167283418e-02 -5.6459232210661592e-01 +5.7105875400959415e-03
2.1000000000000005e+00 +8.1528752031070297e+00 +0.0000000000000000e+00 +2.0999999950557879e+00 -2.9280253899977751e-02 -5.6459227141379131e-01 +5.7106287978856141e-03
2.2000000000000006e+00 +8.1528630347006104e+00 +0.0000000000000000e+00 +2.1999999943153039e+00 -2.9280325409559903e-02 -5.6459220976682511e-01 +5.7106707241078277e-03
2.3000000000000007e+00 +8.1528503003218198e+00 +0.0000000000000000e+00 +2.2999999935043483e+00 -2.9280397951485047e-02 -5.6459213909082373e-01 +5.7107133486934067e-03
2.4000000000000008e+00 +8.1528369999707291e+00 +0.0000000000000000e+00 +2.3999999926197182e+00 -2.9280471781209121e-02 -5.6459206131090167e-01 +5.7107567015745944e-03
2.5000000000000009e+00 +8.1528231336474164e+00 +0.0000000000000000e+00 +2.4999999916582101e+00 -2.9280547154189349e-02 -5.6459197835218189e-01 +5.7108008126851217e-03
2.6000000000000010e+00 +8.1528087013519652e+00 +0.0000000000000000e+00 +2.5999999906166207e+00 -2.9280624325884692e-02 -5.6459189213980032e-01 +5.7108457119602572e-03
2.7000000000000011e+00 +8.1527937030844608e+00 +0.0000000000000000e+00 +2.6999999894917472e+00 -2.9280703551756389e-02 -5.6459180459890634e-01 +5.7108914293368300e-03
2.8000000000000012e+00 +8.1527781388449938e+00 +0.0000000000000000e+00 +2.7999999882803861e+00 -2.9280785087268446e-02 -5.6459171765466676e-01 +5.7109379947533250e-03
2.9000000000000012e+00 +8.1527620086336494e+00 +0.0000000000000000e+00 +2.8999999869793340e+00 -2.9280869187888137e-02 -5.6459163323226746e-01 +5.7109854381498888e-03
3.0000000000000013e+00 +8.1527453124505147e+00 +0.0000000000000000e+00 +2.9999999855853878e+00 -2.9280956109086483e-02 -5.6459155325691546e-01 +5.7110337894684081e-03
3.1000000000000014e+00 +8.1527280502956696e+00 +0.0000000000000000e+00 +3.0999999840953443e+00 -2.9281046106338766e-02 -5.6459147965384171e-01 +5.7110830786525494e-03
3.2000000000000015e+00 +8.1527102221691869e+00 +0.0000000000000000e+00 +3.1999999825060002e+00 -2.9281139435125031e-02 -5.6459141434830362e-01 +5.7111333356478031e-03
3.3000000000000016e+00 +8.1526918280711342e+00 +0.0000000000000000e+00 +3.2999999808141522e+00 -2.9281236350930565e-02 -5.6459135926558746e-01 +5.7111845904015447e-03
3.4000000000000017e+00 +8.1526728680015665e+00 +0.0000000000000000e+00 +3.3999999790165978e+00 -2.9281337109246425e-02 -5.6459131633101023e-01 +5.7112368728630810e-03
3.5000000000000018e+00 +8.1526533419605265e+00 +0.0000000000000000e+00 +3.4999999771101331e+00 -2.9281441965569921e-02 -5.6459128746992249e-01 +5.7112902129836966e-03
3.6000000000000019e+00 +8.1526332499480443e+00 +0.0000000000000000e+00 +3.5999999750915546e+00 -2.9281551175405075e-02 -5.6459127460771097e-01 +5.7113446407167038e-03
3.7000000000000020e+00 +8.1526125919641341e+00 +0.0000000000000000e+00 +3.6999999729576594e+00 -2.9281664994263205e-02 -5.6459127966980061e-01 +5.7114001860174976e-03
3.8000000000000020e+00 +8.1525913680087907e+00 +0.0000000000000000e+00 +3.7999999707052443e+00 -2.9281783677663323e-02 -5.6459130458165618e-01 +5.7114568788435979e-03
3.9000000000000021e+00 +8.1525695780819891e+00 +0.0000000000000000e+00 +3.8999999683311062e+00 -2.9281907481132720e-02 -5.6459135126878679e-01 +5.7115147491547122e-03
4.0000000000000018e+00 +8.1525472221836832e+00 +0.0000000000000000e+00 +3.9999999658320418e+00 -2.9282036660207414e-02 -5.6459142165674636e-01 +5.7115738269127633e-03
4.1000000000000014e+00 +8.1525243003138037e+00 +0.0000000000000000e+00 +4.0999999632048478e+00 -2.9282171385134399e-02 -5.6459151715443456e-01 +5.7116341312412212e-03
4.2000000000000011e+00 +8.1525008124722547e+00 +0.0000000000000000e+00 +4.1999999604463207e+00 -2.9282311484980030e-02 -5.6459163710397409e-01 +5.7116956379021687e-03
4.3000000000000007e+00 +8.1524767586589171e+00 +0.0000000000000000e+00 +4.2999999575532577e+00 -2.9282456703530378e-02 -5.6459178033078217e-01 +5.7117583118173592e-03
4.4000000000000004e+00 +8.1524521388736488e+00 +0.0000000000000000e+00 +4.3999999545224551e+00 -2.9282606784591318e-02 -5.6459194566026683e-01 +5.7118221179087471e-03
4.5000000000000000e+00 +8.1524269531162847e+00 +0.0000000000000000e+00 +4.4999999513507101e+00 -2.9282761471989577e-02 -5.6459213191782631e-01 +5.7118870210984031e-03
4.5999999999999996e+00 +8.1524012013866383e+00 +0.0000000000000000e+00 +4.5999999480348190e+00 -2.9282920509573686e-02 -5.6459233792884767e-01 +5.7119529863084492e-03
4.6999999999999993e+00 +8.1523748836845051e+00 +0.0000000000000000e+00 +4.6999999445715783e+00 -2.9283083641215020e-02 -5.6459256251870604e-01 +5.7120199784609794e-03
4.7999999999999989e+00 +8.1523480000096598e+00 +0.0000000000000000e+00 +4.7999999409577851e+00 -2.9283250610808775e-02 -5.6459280451276306e-01 +5.7120879624779821e-03
4.8999999999999986e+00 +8.1523205503618623e+00 +0.0000000000000000e+00 +4.8999999371902359e+00 -2.9283421162274989e-02 -5.6459306273636489e-01 +5.7121569032812748e-03
4.9999999999999982e+00 +8.1522925347408535e+00 +0.0000000000000000e+00 +4.9999999332657268e+00 -2.9283595039559535e-02 -5.6459333601484274e-01 +5.7122267657924294e-03
5.0999999999999979e+00 +8.1522639531463597e+00 +0.0000000000000000e+00 +5.0999999291810552e+00 -2.9283771986635149e-02 -5.6459362317351103e-01 +5.7122975149326849e-03
5.1999999999999975e+00 +8.1522348055780949e+00 +0.0000000000000000e+00 +5.1999999249330182e+00 -2.9283951747502385e-02 -5.6459392303766553e-01 +5.7123691156228855e-03
5.2999999999999972e+00 +8.1522050920357607e+00 +0.0000000000000000e+00 +5.2999999205184114e+00 -2.9284134066190685e-02 -5.6459423443258294e-01 +5.7124415327834124e-03
5.3999999999999968e+00 +8.1521748125190445e+00 +0.0000000000000000e+00 +5.3999999159340319e+00 -2.9284318686759358e-02 -5.6459455618351906e-01 +5.7125147313340846e-03
5.4999999999999964e+00 +8.1521439670276248e+00 +0.0000000000000000e+00 +5.4999999111766771e+00 -2.9284505353298532e-02 -5.6459488711570860e-01 +5.7125886761941139e-03
5.5999999999999961e+00 +8.1521125555611729e+00 +0.0000000000000000e+00 +5.5999999062431423e+00 -2.9284693809930255e-02 -5.6459522605436308e-01 +5.7126633322820124e-03
5.6999999999999957e+00 +8.1520805781193477e+00 +0.0000000000000000e+00 +5.6999999011302247e+00 -2.9284883800809444e-02 -5.6459557182467057e-01 +5.7127386645155261e-03
5.7999999999999954e+00 +8.1520480347018047e+00 +0.0000000000000000e+00 +5.7999998958347208e+00 -2.9285075070124914e-02 -5.6459592325179297e-01 +5.7128146378115554e-03
5.8999999999999950e+00 +8.1520149253081939e+00 +0.0000000000000000e+00 +5.8999998903534276e+00 -2.9285267362100343e-02 -5.6459627916086685e-01 +5.7128912170860838e-03
5.9999999999999947e+00 +8.1519812499381583e+00 +0.0000000000000000e+00 +5.9999998846831417e+00 -2.9285460420995325e-02 -5.6459663837700080e-01 +5.7129683672541105e-03
6.0999999999999943e+00 +8.1519470085913390e+00 +0.0000000000000000e+00 +6.0999998788206593e+00 -2.9285653982085082e-02 -5.6459699978537947e-01 +5.7130460667801112e-03
6.1999999999999940e+00 +8.1519122012673755e+00 +0.0000000000000000e+00 +6.1999998727627768e+00 -2.9285847744566874e-02 -5.6459736251158876e-01 +5.7131243483294286e-03
6.2999999999999936e+00 +8.1518768279659035e+00 +0.0000000000000000e+00 +6.2999998665062904e+00 -2.9286041398569749e-02 -5.6459772574132439e-01 +5.7132032581158013e-03
6.3999999999999932e+00 +8.1518408886865625e+00 +0.0000000000000000e+00 +6.3999998600479975e+00 -2.9286234634165777e-02 -5.6459808866028938e-01 +5.7132828423504993e-03
6.4999999999999929e+00 +8.1518043834289884e+00 +0.0000000000000000e+00 +6.4999998533846943e+00 -2.9286427141367255e-02 -5.6459845045419377e-01 +5.7133631472422262e-03
6.5999999999999925e+00 +8.1517673121928205e+00 +0.0000000000000000e+00 +6.5999998465131782e+00 -2.9286618610124035e-02 -5.6459881030875736e-01 +5.7134442189969758e-03
6.6999999999999922e+00 +8.1517296749777000e+00 +0.0000000000000000e+00 +6.6999998394302445e+00 -2.9286808730320808e-02 -5.6459916740970761e-01 +5.7135261038179334e-03
6.7999999999999918e+00 +8.1516914717832680e+00 +0.0000000000000000e+00 +6.7999998321326904e+00 -2.9286997191774352e-02 -5.6459952094278165e-01 +5.7136088479053486e-03
6.8999999999999915e+00 +8.1516527026091730e+00 +0.0000000000000000e+00 +6.8999998246173124e+00 -2.9287183684230802e-02 -5.6459987009372481e-01 +5.7136924974564088e-03
6.9999999999999911e+00 +8.1516133674550666e+00 +0.0000000000000000e+00 +6.9999998168809068e+00 -2.9287367897362984e-02 -5.6460021404829330e-01 +5.7137770986651296e-03
7.0999999999999908e+00 +8.1515734663206043e+00 +0.0000000000000000e+00 +7.0999998089202707e+00 -2.9287549520767637e-02 -5.6460055199225312e-01 +5.7138626977222412e-03
7.1999999999999904e+00 +8.1515329992054486e+00 +0.0000000000000000e+00 +7.1999998007321997e+00 -2.9287728243962710e-02 -5.6460088311138079e-01 +5.7139493408150509e-03
7.2999999999999901e+00 +8.1514919661092708e+00 +0.0000000000000000e+00 +7.2999997923134909e+00 -2.9287903756384660e-02 -5.6460120659146329e-01 +5.7140370741273379e-03
7.3999999999999897e+00 +8.1514503670317460e+00 +0.0000000000000000e+00 +7.3999997836609408e+00 -2.9288075747385678e-02 -5.6460152161829902e-01 +5.7141259438392286e-03
7.4999999999999893e+00 +8.1514082019725613e+00 +0.0000000000000000e+00 +7.4999997747713456e+00 -2.9288243906231051e-02 -5.6460182737769848e-01 +5.7142159961270809e-03
7.5999999999999890e+00 +8.1513654709314096e+00 +0.0000000000000000e+00 +7.5999997656415026e+00 -2.9288407922096353e-02 -5.6460212305548296e-01 +5.7143072771633609e-03
7.6999999999999886e+00 +8.1513221739079977e+00 +0.0000000000000000e+00 +7.6999997562682072e+00 -2.9288567484064811e-02 -5.6460240783748727e-01 +5.7143998331165308e-03
7.7999999999999883e+00 +8.1512783109020415e+00 +0.0000000000000000e+00 +7.7999997466482567e+00 -2.9288722281124488e-02 -5.6460268090955801e-01 +5.7144937101509191e-03
7.8999999999999879e+00 +8.1512338819132673e+00 +0.0000000000000000e+00 +7.8999997367784474e+00 -2.9288872002165650e-02 -5.6460294145755507e-01 +5.7145889544266094e-03
7.9999999999999876e+00 +8.1511888869414175e+00 +0.0000000000000000e+00 +7.9999997266555756e+00 -2.9289016335977986e-02 -5.6460318866735215e-01 +5.7146856120993197e-03
8.0999999999999872e+00 +8.1511433259862436e+00 +0.0000000000000000e+00 +8.0999997162764377e+00 -2.9289155061328440e-02 -5.6460342217193316e-01 +5.7147837030445325e-03
8.1999999999999869e+00 +8.1510971990475145e+00 +0.0000000000000000e+00 +8.1999997056378309e+00 -2.9289288317255170e-02 -5.6460364339268920e-01 +5.7148831420304087e-03
8.2999999999999865e+00 +8.1510505061250083e+00 +0.0000000000000000e+00 +8.2999996947365524e+00 -2.9289416332915513e-02 -5.6460385419810022e-01 +5.7149838175473084e-03
8.3999999999999861e+00 +8.1510032472185170e+00 +0.0000000000000000e+00 +8.3999996835693977e+00 -2.9289539337518881e-02 -5.6460405645662826e-01 +5.7150856180842573e-03
8.4999999999999858e+00 +8.1509554223278382e+00 +0.0000000000000000e+00 +8.4999996721331623e+00 -2.9289657560328801e-02 -5.6460425203671505e-01 +5.7151884321288912e-03
8.5999999999999854e+00 +8.1509070314527765e+00 +0.0000000000000000e+00 +8.5999996604246434e+00 -2.9289771230665111e-02 -5.6460444280678401e-01 +5.7152921481674838e-03
8.6999999999999851e+00 +8.1508580745931436e+00 +0.0000000000000000e+00 +8.6999996484406381e+00 -2.9289880577905943e-02 -5.6460463063523780e-01 +5.7153966546848985e-03
8.7999999999999847e+00 +8.1508085517487512e+00 +0.0000000000000000e+00 +8.7999996361779438e+00 -2.9289985831489840e-02 -5.6460481739045765e-01 +5.7155018401645781e-03
8.8999999999999844e+00 +8.1507584629194145e+00 +0.0000000000000000e+00 +8.8999996236333558e+00 -2.9290087220917835e-02 -5.6460500494080446e-01 +5.7156075930885463e-03
8.9999999999999840e+00 +8.1507078081049453e+00 +0.0000000000000000e+00 +8.9999996108036697e+00 -2.9290184975755546e-02 -5.6460519515461571e-01 +5.7157138019373714e-03
9.0999999999999837e+00 +8.1506565873051553e+00 +0.0000000000000000e+00 +9.0999995976856844e+00 -2.9290279325635216e-02 -5.6460538990020681e-01 +5.7158203551901628e-03
9.1999999999999833e+00 +8.1506048005198508e+00 +0.0000000000000000e+00 +9.1999995842761937e+00 -2.9290370500257845e-02 -5.6460559104587060e-01 +5.7159271413245493e-03
9.2999999999999829e+00 +8.1505524477488329e+00 +0.0000000000000000e+00 +9.2999995705719964e+00 -2.9290458729395254e-02 -5.6460580045987463e-01 +5.7160340488166704e-03
9.3999999999999826e+00 +8.1504995289918920e+00 +0.0000000000000000e+00 +9.3999995565698882e+00 -2.9290544242892142e-02 -5.6460602001046323e-01 +5.7161409661411521e-03
9.4999999999999822e+00 +8.1504460442488096e+00 +0.0000000000000000e+00 +9.4999995422666643e+00 -2.9290627270668154e-02 -5.6460625156585431e-01 +5.7162477817710939e-03
9.5999999999999819e+00 +8.1503919935193547e+00 +0.0000000000000000e+00 +9.5999995276591239e+00 -2.9290708042720045e-02 -5.6460649699424148e-01 +5.7163543841780677e-03
9.6999999999999815e+00 +8.1503373768032841e+00 +0.0000000000000000e+00 +9.6999995127440606e+00 -2.9290786789123665e-02 -5.6460675816379036e-01 +5.7164606618320670e-03
9.7999999999999812e+00 +8.1502821941003365e+00 +0.0000000000000000e+00 +9.7999994975182716e+00 -2.9290863740036050e-02 -5.6460703694264136e-01 +5.7165665032015353e-03
9.8999999999999808e+00 +8.1502264454102349e+00 +0.0000000000000000e+00 +9.8999994819785542e+00 -2.9290939125697565e-02 -5.6460733519890605e-01 +5.7166717967533165e-03
9.9999999999999805e+00 +8.1501701307326808e+00 +0.0000000000000000e+00 +9.9999994661217055e+00 -2.9291013176433910e-02 -5.6460765480066877e-01 +5.7167764309526622e-03
1.0099999999999980e+01 +8.1501132500673563e+00 +0.0000000000000000e+00 +1.0099999449944521e+01 -2.9291086096779873e-02 -5.6460799708271070e-01 +5.7168803221341845e-03
1.0199999999999980e+01 +8.1500558034139203e+00 +0.0000000000000000e+00 +1.0199999433443796e+01 -2.9291157987811872e-02 -5.6460836124669100e-01 +5.7169834981193636e-03
1.0299999999999979e+01 +8.1499977907720087e+00 +0.0000000000000000e+00 +1.0299999416616329e+01 -2.9291228924727280e-02 -5.6460874596104182e-01 +5.7170860146076264e-03
1.0399999999999979e+01 +8.1499392121412395e+00 +0.0000000000000000e+00 +1.0399999399458913e+01 -2.9291298982715114e-02 -5.6460914989426869e-01 +5.7171879273053266e-03
1.0499999999999979e+01 +8.1498800675212077e+00 +0.0000000000000000e+00 +1.0499999381968347e+01 -2.9291368236955780e-02 -5.6460957171495330e-01 +5.7172892919259439e-03
1.0599999999999978e+01 +8.1498203569114942e+00 +0.0000000000000000e+00 +1.0599999364141429e+01 -2.9291436762620592e-02 -5.6461001009175504e-01 +5.7173901641902726e-03
1.0699999999999978e+01 +8.1497600803116619e+00 +0.0000000000000000e+00 +1.0699999345974952e+01 -2.9291504634871537e-02 -5.6461046369341239e-01 +5.7174905998265925e-03
1.0799999999999978e+01 +8.1496992377212560e+00 +0.0000000000000000e+00 +1.0799999327465713e+01 -2.9291571928860890e-02 -5.6461093118874472e-01 +5.7175906545708696e-03
1.0899999999999977e+01 +8.1496378291398113e+00 +0.0000000000000000e+00 +1.0899999308610509e+01 -2.9291638719730801e-02 -5.6461141124665526e-01 +5.7176903841669423e-03
1.0999999999999977e+01 +8.1495758545668480e+00 +0.0000000000000000e+00 +1.0999999289406135e+01 -2.9291705082613022e-02 -5.6461190253613169e-01 +5.7177898443666981e-03
1.1099999999999977e+01 +8.1495133140018776e+00 +0.0000000000000000e+00 +1.1099999269849389e+01 -2.9291771092628548e-02 -5.6461240372624910e-01 +5.7178890909302714e-03
1.1199999999999976e+01 +8.1494502074443975e+00 +0.0000000000000000e+00 +1.1199999249937067e+01 -2.9291836824887243e-02 -5.6461291348617038e-01 +5.7179881796262230e-03
1.1299999999999976e+01 +8.1493865348938996e+00 +0.0000000000000000e+00 +1.1299999229665962e+01 -2.9291902354487427e-02 -5.6461343048514956e-01 +5.7180871662317230e-03
1.1399999999999975e+01 +8.1493222963498688e+00 +0.0000000000000000e+00 +1.1399999209032874e+01 -2.9291967756515672e-02 -5.6461395339253240e-01 +5.7181861065327497e-03
1.1499999999999975e+01 +8.1492574918117811e+00 +0.0000000000000000e+00 +1.1499999188034597e+01 -2.9292033106046340e-02 -5.6461448087776001e-01 +5.7182850563242639e-03
1.1599999999999975e+01 +8.1491921212791105e+00 +0.0000000000000000e+00 +1.1599999166667928e+01 -2.9292098478141210e-02 -5.6461501161036842e-01 +5.7183840714104036e-03
1.1699999999999974e+01 +8.1491261847513279e+00 +0.0000000000000000e+00 +1.1699999144929663e+01 -2.9292163947849236e-02 -5.6461554425999194e-01 +5.7184832076046513e-03
1.1799999999999974e+01 +8.1490596822279020e+00 +0.0000000000000000e+00 +1.1799999122816599e+01 -2.9292229590206071e-02 -5.6461607749636478e-01 +5.7185825207300509e-03
