# multipoles
# s[mm] polynom_b[n=0][T/m^n] polynom_b[n=1][T/m^n] polynom_b[n=2][T/m^n] polynom_b[n=3][T/m^n] polynom_b[n=4][T/m^n] polynom_b[n=5][T/m^n] polynom_b[n=6][T/m^n] 
-0.0000000000000000e+00 -5.9308572867176712e-01 +8.1218149989484694e+00 -1.6566119085009465e+00 +3.9707551604107273e+01 +1.9383192175999546e+04 -4.1044159415228316e+05 -8.0893475407020688e+07 
-1.0000000000000001e-01 -5.9308585548670578e-01 +8.1218342131913719e+00 -1.6486311780338048e+00 +3.8972836303463893e+01 +1.9223179937385528e+04 -4.0549399343299324e+05 -8.0150120393500730e+07 
-2.0000000000000001e-01 -5.9308598471128837e-01 +8.1218542067259154e+00 -1.6407072558003089e+00 +3.8277198441265966e+01 +1.9060394982063139e+04 -4.0084892635414994e+05 -7.9385590029144526e+07 
-2.9999999999999999e-01 -5.9308611587293958e-01 +8.1218748683226938e+00 -1.6328834469361808e+00 +3.7620968571782925e+01 +1.8895954635726641e+04 -3.9650629406881810e+05 -7.8605657268700495e+07 
-4.0000000000000002e-01 -5.9308624849911207e-01 +8.1218960867544592e+00 -1.6252030560869120e+00 +3.7004477217216078e+01 +1.8730976216543015e+04 -3.9246599766626715e+05 -7.7816095026805699e+07 
-5.0000000000000000e-01 -5.9308638211715947e-01 +8.1219177508009448e+00 -1.6177093902925397e+00 +3.6428054717820565e+01 +1.8566577090877319e+04 -3.8872793725808966e+05 -7.7022676445192114e+07 
-5.9999999999999998e-01 -5.9308651625449793e-01 +8.1219397492374643e+00 -1.6104457560952032e+00 +3.5892031552535876e+01 +1.8403874613397322e+04 -3.8529201380553003e+05 -7.6231174595916718e+07 
-6.9999999999999996e-01 -5.9308665043862152e-01 +8.1219619708459216e+00 -1.6034554628103070e+00 +3.5396738016259157e+01 +1.8243986196162739e+04 -3.8215812724871194e+05 -7.5447362826360613e+07 
-8.0000000000000004e-01 -5.9308678419685357e-01 +8.1219843044056983e+00 -1.5967818188465344e+00 +3.4942504483534890e+01 +1.8088029231677850e+04 -3.7932617801168625e+05 -7.4677014377313003e+07 
-9.0000000000000002e-01 -5.9308691705661132e-01 +8.1220066387031160e+00 -1.5904681366264990e+00 +3.4529661110852025e+01 +1.7937121191753380e+04 -3.7679606522420835e+05 -7.3925902865530834e+07 
-1.0000000000000000e+00 -5.9308704854533112e-01 +8.1220288625222583e+00 -1.5845577262676611e+00 +3.4158538126103224e+01 +1.7792379503350130e+04 -3.7456768844939891e+05 -7.3199801683118954e+07 
-1.1000000000000001e+00 -5.9308717819033385e-01 +8.1220508646513725e+00 -1.5790939011525311e+00 +3.3829465609852619e+01 +1.7654921652795678e+04 -3.7264094632919395e+05 -7.2504484489459366e+07 
-1.2000000000000000e+00 -5.9308730551905375e-01 +8.1220725338811519e+00 -1.5741199767385756e+00 +3.3542773546497003e+01 +1.7525865174365263e+04 -3.7101573687737464e+05 -7.1845725186406344e+07 
-1.3000000000000000e+00 -5.9308743005881226e-01 +8.1220937590041320e+00 -1.5696792666861485e+00 +3.3298791842614314e+01 +1.7406327558310961e+04 -3.6969195757874474e+05 -7.1229297431926951e+07 
-1.3999999999999999e+00 -5.9308755133700353e-01 +8.1221144288149674e+00 -1.5658150872339049e+00 +3.3097850307448589e+01 +1.7297426348361543e+04 -3.6866950525373983e+05 -7.0660975142206341e+07 
-1.5000000000000000e+00 -5.9308766888103925e-01 +8.1221344321100126e+00 -1.5625707525801060e+00 +3.2940278664834189e+01 +1.7200279049320507e+04 -3.6794827611119958e+05 -7.0146532040732592e+07 
-1.6000000000000001e+00 -5.9308778221819614e-01 +8.1221536576887043e+00 -1.5599895859029433e+00 +3.2826406494930637e+01 +1.7116003333315075e+04 -3.6752816536508058e+05 -6.9691742630389348e+07 
-1.7000000000000000e+00 -5.9308789087581548e-01 +8.1221719943543427e+00 -1.5581149025435590e+00 +3.2756563225043841e+01 +1.7045716723134527e+04 -3.6740906720947003e+05 -6.9302380693171948e+07 
-1.8000000000000000e+00 -5.9308799438128057e-01 +8.1221893309077142e+00 -1.5569900231461908e+00 +3.2731078275612475e+01 +1.6990536841964171e+04 -3.6759087555364938e+05 -6.8984220482370481e+07 
-1.8999999999999999e+00 -5.9308809226185200e-01 +8.1222055561596047e+00 -1.5566582688671544e+00 +3.2750280738915507e+01 +1.6951581321879534e+04 -3.6807348227602721e+05 -6.8743036283582181e+07 
-2.0000000000000000e+00 -5.9308818404488917e-01 +8.1222205589178440e+00 -1.5571629625471304e+00 +3.2814499695846315e+01 +1.6929967821964729e+04 -3.6885677889934869e+05 -6.8584602489861369e+07 
-2.1000000000000001e+00 -5.9308826952132210e-01 +8.1222342461431030e+00 -1.5585266982463484e+00 +3.2923551656332080e+01 +1.6926396910600673e+04 -3.6993705365910096e+05 -6.8512726097615421e+07 
-2.2000000000000002e+00 -5.9308834948927602e-01 +8.1222465906898460e+00 -1.5606929902681956e+00 +3.3075440047031421e+01 +1.6939979669811317e+04 -3.7129754455277155e+05 -6.8523730497814342e+07 
-2.2999999999999998e+00 -5.9308842498737036e-01 +8.1222575803252806e+00 -1.5635864872558300e+00 +3.3267769692499535e+01 +1.6969448351597715e+04 -3.7291854105087806e+05 -6.8612158803831071e+07 
-2.3999999999999999e+00 -5.9308849705428335e-01 +8.1222672028083558e+00 -1.5671318399390961e+00 +3.3498145623412995e+01 +1.7013535238997287e+04 -3.7478033369113324e+05 -6.8772554258113161e+07 
-2.5000000000000000e+00 -5.9308856672860522e-01 +8.1222754458983655e+00 -1.5712536991178272e+00 +3.3764172835066667e+01 +1.7070972618204356e+04 -3.7686321269957727e+05 -6.8999460127228245e+07 
-2.6000000000000001e+00 -5.9308863504895359e-01 +8.1222822973513864e+00 -1.5758767144535688e+00 +3.4063456381497907e+01 +1.7140492747810938e+04 -3.7914746850357304e+05 -6.9287419537466243e+07 
-2.7000000000000002e+00 -5.9308870305395289e-01 +8.1222877449145692e+00 -1.5809255339664214e+00 +3.4393601550908684e+01 +1.7220827851151287e+04 -3.8161339277370594e+05 -6.9630975443179235e+07 
-2.7999999999999998e+00 -5.9308877178222152e-01 +8.1222917763332649e+00 -1.5863248057664057e+00 +3.4752213642198797e+01 +1.7310710153443037e+04 -3.8424127707810747e+05 -7.0024670818201959e+07 
-2.8999999999999999e+00 -5.9308884227235481e-01 +8.1222943793466804e+00 -1.5919991793661850e+00 +3.5136898121140298e+01 +1.7408871898199988e+04 -3.8701141387745528e+05 -7.0463048709896341e+07 
-3.0000000000000000e+00 -5.9308891556297683e-01 +8.1222955416875102e+00 -1.5978733001668850e+00 +3.5545260593364254e+01 +1.7514045250617957e+04 -3.8990409624555148e+05 -7.0940651803319529e+07 
-3.1000000000000001e+00 -5.9308899269269133e-01 +8.1222952510754869e+00 -1.6038718143308355e+00 +3.5974907031936240e+01 +1.7624962382857306e+04 -3.9289961931409285e+05 -7.1452022809976891e+07 
-3.2000000000000002e+00 -5.9308907470010386e-01 +8.1222934952348336e+00 -1.6099193669483114e+00 +3.6423443232872259e+01 +1.7740355444888457e+04 -3.9597827699667629e+05 -7.1991704343592614e+07 
-3.2999999999999998e+00 -5.9308916262382116e-01 +8.1222902618690238e+00 -1.6159406015613835e+00 +3.6888475572156466e+01 +1.7858956550392733e+04 -3.9912036644400348e+05 -7.2554238841103598e+07 
-3.3999999999999999e+00 -5.9308925750245878e-01 +8.1222855386841051e+00 -1.6218601586398256e+00 +3.7367610332078748e+01 +1.7979497748901544e+04 -4.0230618415072531e+05 -7.3134168436380476e+07 
-3.5000000000000000e+00 -5.9308936037460969e-01 +8.1222793133691251e+00 -1.6276026811747470e+00 +3.7858454244702578e+01 +1.8100711137778548e+04 -4.0551602902928420e+05 -7.3726035505688146e+07 
-3.6000000000000001e+00 -5.9308947227890307e-01 +8.1222715736089377e+00 -1.6330928085239171e+00 +3.8358614154290358e+01 +1.8221328732341390e+04 -4.0873020054860628e+05 -7.4324382019635573e+07 
-3.7000000000000002e+00 -5.9308959425390484e-01 +8.1222623070714786e+00 -1.6382551759800599e+00 +3.8865697350556083e+01 +1.8340082470383692e+04 -4.1192900055964361e+05 -7.4923749598225728e+07 
-3.7999999999999998e+00 -5.9308972733824272e-01 +8.1222515014204753e+00 -1.6430144206483948e+00 +3.9377311230324970e+01 +1.8455704318320448e+04 -4.1509273141882516e+05 -7.5518680002088934e+07 
-3.8999999999999999e+00 -5.9308987257055246e-01 +8.1222391443069526e+00 -1.6472951762620640e+00 +3.9891063535037468e+01 +1.8566926169849543e+04 -4.1820169733153080e+05 -7.6103714645808518e+07 
-4.0000000000000000e+00 -5.9309003098937940e-01 +8.1222252233672272e+00 -1.6510220745535504e+00 +4.0404562424863975e+01 +1.8672479873922744e+04 -4.2123620478654891e+05 -7.6673394734802037e+07 
-4.0999999999999996e+00 -5.9309020335100870e-01 +8.1222097703461795e+00 -1.6541427444117076e+00 +4.0915398706299968e+01 +1.8771410164594065e+04 -4.2417894542906299e+05 -7.7223408436858714e+07 
-4.2000000000000002e+00 -5.9309038937988467e-01 +8.1221929778255006e+00 -1.6566902649906758e+00 +4.1421217338804730e+01 +1.8863914785267702e+04 -4.2702227055478253e+05 -7.7753628599525720e+07 
-4.2999999999999998e+00 -5.9309058856493979e-01 +8.1221750750286912e+00 -1.6587175599410797e+00 +4.1919704951047137e+01 +1.8950456990870585e+04 -4.2976097085168224e+05 -7.8264881685528174e+07 
-4.4000000000000004e+00 -5.9309080039499384e-01 +8.1221562911949672e+00 -1.6602775539593744e+00 +4.2408547794392753e+01 +1.9031500068411628e+04 -4.3238983517015184e+05 -7.8757994339555860e+07 
-4.5000000000000000e+00 -5.9309102435901728e-01 +8.1221368555714637e+00 -1.6614231690462071e+00 +4.2885431966459500e+01 +1.9107507262855055e+04 -4.3490365182365873e+05 -7.9233793027021408e+07 
-4.5999999999999996e+00 -5.9309125994588419e-01 +8.1221169974092167e+00 -1.6622073263757056e+00 +4.3348043522937218e+01 +1.9178941815149927e+04 -4.3729720923297701e+05 -7.9693104219019979e+07 
-4.7000000000000002e+00 -5.9309150664460419e-01 +8.1220969459781340e+00 -1.6626829474551699e+00 +4.3794068058593659e+01 +1.9246266990540003e+04 -4.3956529353788664e+05 -8.0136754545852274e+07 
-4.7999999999999998e+00 -5.9309176394407193e-01 +8.1220769305576681e+00 -1.6629029544615648e+00 +4.4221191001331647e+01 +1.9309946072432707e+04 -4.4170269039988250e+05 -8.0565570731981024e+07 
-4.9000000000000004e+00 -5.9309203133335031e-01 +8.1220571804364301e+00 -1.6629202666473810e+00 +4.4627097588972816e+01 +1.9370442310546125e+04 -4.4370418475586158e+05 -8.0980379392488152e+07 
-5.0000000000000000e+00 -5.9309230830138460e-01 +8.1220379249200683e+00 -1.6627878046894160e+00 +4.5009472672836409e+01 +1.9428218992595677e+04 -4.4556455979496898e+05 -8.1382007347442225e+07 
-5.0999999999999996e+00 -5.9309259433729156e-01 +8.1220193933244662e+00 -1.6625584858573268e+00 +4.5366000926135818e+01 +1.9483739360571846e+04 -4.4727859820274590e+05 -8.1771281239674956e+07 
-5.2000000000000002e+00 -5.9309288893010370e-01 +8.1220018149848041e+00 -1.6622852289038068e+00 +4.5694366568577905e+01 +1.9537466698980439e+04 -4.4884108053998055e+05 -8.2149027946135476e+07 
-5.2999999999999998e+00 -5.9309319156891938e-01 +8.1219854192435719e+00 -1.6620209509515920e+00 +4.5992253725008524e+01 +1.9589864278961326e+04 -4.5024678736220341e+05 -8.2516074316897437e+07 
-5.4000000000000004e+00 -5.9309350174284647e-01 +8.1219704354673841e+00 -1.6618185710182596e+00 +4.6257345955013299e+01 +1.9641395427133524e+04 -4.5149049654217297e+05 -8.2873247509091437e+07 
-5.5000000000000000e+00 -5.9309381894102176e-01 +8.1219570930355367e+00 -1.6617310037085622e+00 +4.6487326564456033e+01 +1.9692523405483396e+04 -4.5256698504361173e+05 -8.3221374413403422e+07 
-5.5999999999999996e+00 -5.9309414265270177e-01 +8.1219456213452972e+00 -1.6618111630452004e+00 +4.6679878495135007e+01 +1.9743711483926305e+04 -4.5347102839558083e+05 -8.3561281997961611e+07 
-5.7000000000000002e+00 -5.9309447236706492e-01 +8.1219362498094867e+00 -1.6621119648721934e+00 +4.6832684363548069e+01 +1.9795422988103408e+04 -4.5419740085836494e+05 -8.3893797541481256e+07 
-5.7999999999999998e+00 -5.9309480757335409e-01 +8.1219292078672147e+00 -1.6626863239267042e+00 +4.6943426174526941e+01 +1.9848121242074529e+04 -4.5474087381628691e+05 -8.4219748354939535e+07 
-5.9000000000000004e+00 -5.9309514776085903e-01 +8.1219247249685047e+00 -1.6635871528375694e+00 +4.7009785772867495e+01 +1.9902269553711812e+04 -4.5509621844989492e+05 -8.4539961724405125e+07 
-5.9999999999999902e+00 -5.9309549241889703e-01 +8.1219230305807830e+00 -1.6648673653146449e+00 +4.7029444736502427e+01 +1.9958331295904482e+04 -4.5525820499702630e+05 -8.4855265332712948e+07 
-6.0999999999999899e+00 -5.9309584108504387e-01 +8.1219242883248253e+00 -1.6665660093993471e+00 +4.7000968944337963e+01 +2.0016652175834930e+04 -4.5522434176472126e+05 -8.5166313482242778e+07 
-6.1999999999999904e+00 -5.9309619346729725e-01 +8.1219284335295647e+00 -1.6686713097985486e+00 +4.6925597182052741e+01 +2.0077131732113779e+04 -4.5499891456323012e+05 -8.5473030874981433e+07 
-6.2999999999999901e+00 -5.9309654931147182e-01 +8.1219353520312332e+00 -1.6711598518815223e+00 +4.6805059079503607e+01 +2.0139564739718666e+04 -4.5458706390416663e+05 -8.5775158886641413e+07 
-6.3999999999999897e+00 -5.9309690836339057e-01 +8.1219449296582891e+00 -1.6740082197017720e+00 +4.6641084486644502e+01 +2.0203745941299665e+04 -4.5399393148506165e+05 -8.6072438720628917e+07 
-6.4999999999999902e+00 -5.9309727036886517e-01 +8.1219570522348867e+00 -1.6771929974688775e+00 +4.6435403361956553e+01 +2.0269470072717988e+04 -4.5322465950851259e+05 -8.6364611525901958e+07 
-6.5999999999999899e+00 -5.9309763507370861e-01 +8.1219716055768583e+00 -1.6806907684309129e+00 +4.6189745905396769e+01 +2.0336531841381082e+04 -4.5228439148007432e+05 -8.6651418290408552e+07 
-6.6999999999999904e+00 -5.9309800222372056e-01 +8.1219884754965275e+00 -1.6844781165324563e+00 +4.5905842392721610e+01 +2.0404725957736631e+04 -4.5117827118789981e+05 -8.6932599991597369e+07 
-6.7999999999999901e+00 -5.9309837156474743e-01 +8.1220075477977680e+00 -1.6885316225196065e+00 +4.5585423339349845e+01 +2.0473847059448388e+04 -4.4991144368613797e+05 -8.7207897230547175e+07 
-6.8999999999999897e+00 -5.9309874284250308e-01 +8.1220287082761295e+00 -1.6928278716793723e+00 +4.5230219472933371e+01 +2.0543689860083090e+04 -4.4848905507654988e+05 -8.7477050944917694e+07 
-6.9999999999999902e+00 -5.9309911580281161e-01 +8.1220518427174966e+00 -1.6973434453121694e+00 +4.4841961795217863e+01 +2.0614048984839381e+04 -4.4691625292262243e+05 -8.7739801620813936e+07 
-7.0999999999999899e+00 -5.9309949019147890e-01 +8.1220768369065865e+00 -1.7020549221596819e+00 +4.4422381314692394e+01 +2.0684718998102471e+04 -4.4519818462748826e+05 -8.7995889425417513e+07 
-7.1999999999999904e+00 -5.9309986575425722e-01 +8.1221035766129006e+00 -1.7069388861904851e+00 +4.3973209454704509e+01 +2.0755494548007875e+04 -4.4333999980757869e+05 -8.8245054884832650e+07 
-7.2999999999999901e+00 -5.9310024223694957e-01 +8.1221319475988079e+00 -1.7119719176384656e+00 +4.3496177830990817e+01 +2.0826170200119457e+04 -4.4134684902397933e+05 -8.8487038105019659e+07 
-7.3999999999999897e+00 -5.9310061938526781e-01 +8.1221618356176055e+00 -1.7171305958703174e+00 +4.2993018283736269e+01 +2.0896540489707157e+04 -4.3922388389543252e+05 -8.8721579013076708e+07 
-7.4999999999999902e+00 -5.9310099694502216e-01 +8.1221931264121405e+00 -1.7223915008189687e+00 +4.2465462944845953e+01 +2.0966399945917961e+04 -4.3697625756383140e+05 -8.8948417466801867e+07 
-7.5999999999999899e+00 -5.9310137466188284e-01 +8.1222257057192024e+00 -1.7277312138041925e+00 +4.1915244078822489e+01 +2.1035543108830552e+04 -4.3460912366914400e+05 -8.9167293336023808e+07 
-7.6999999999999904e+00 -5.9310175228162942e-01 +8.1222594592560693e+00 -1.7331263120835174e+00 +4.1344094488046657e+01 +2.1103764424977948e+04 -4.3212763874029368e+05 -8.9377946005842835e+07 
-7.7999999999999901e+00 -5.9310212954998232e-01 +8.1222942727397029e+00 -1.7385533750738495e+00 +4.0753746954815924e+01 +2.1170858368234924e+04 -4.2953695895072044e+05 -8.9580114959063515e+07 
-7.8999999999999897e+00 -5.9310250621269645e-01 +8.1223300318700815e+00 -1.7439889795828170e+00 +4.0145934719700271e+01 +2.1236619341167981e+04 -4.2684224287278915e+05 -8.9773539283731148e+07 
-7.9999999999999902e+00 -5.9310288201548234e-01 +8.1223666223262043e+00 -1.7494097039752183e+00 +3.9522391513564308e+01 +2.1300841770447165e+04 -4.2404865202755993e+05 -8.9957958206842482e+07 
-8.0999999999999908e+00 -5.9310325689768417e-01 +8.1224039167602733e+00 -1.7547866448283682e+00 +3.8885262468274284e+01 +2.1363246307726989e+04 -4.2116421128008515e+05 -9.0132830907773077e+07 
-8.1999999999999904e+00 -5.9310363142953793e-01 +8.1224417500619506e+00 -1.7600735165603449e+00 +3.8238012877416452e+01 +2.1423317604457814e+04 -4.1820615358077694e+05 -9.0296693474955723e+07 
-8.2999999999999901e+00 -5.9310400630954196e-01 +8.1224799503943874e+00 -1.7652206090142522e+00 +3.7584374631686153e+01 +2.1480493214358070e+04 -4.1519357992050704e+05 -9.0447891872865811e+07 
-8.3999999999999897e+00 -5.9310438223604534e-01 +8.1225183459035240e+00 -1.7701782178972116e+00 +3.6928079996786195e+01 +2.1534210786184896e+04 -4.1214559284206800e+05 -9.0584772471796855e+07 
-8.4999999999999893e+00 -5.9310475990747447e-01 +8.1225567647150019e+00 -1.7748966428110644e+00 +3.6272861716593241e+01 +2.1583908032562791e+04 -4.0908129706207576e+05 -9.0705681916401803e+07 
-8.5999999999999908e+00 -5.9310514002210857e-01 +8.1225950349344611e+00 -1.7793261862209562e+00 +3.5622452988555501e+01 +2.1629022712456215e+04 -4.0601979928457458e+05 -9.0808967047988400e+07 
-8.6999999999999904e+00 -5.9310552327827859e-01 +8.1226329846496981e+00 -1.7834171568101209e+00 +3.4980587403440822e+01 +2.1668992685868299e+04 -4.0298020783800271e+05 -9.0892975140891165e+07 
-8.7999999999999794e+00 -5.9310591037419957e-01 +8.1226704419241322e+00 -1.7871198657965912e+00 +3.4350999130988505e+01 +2.1703255852251616e+04 -3.9998163374739775e+05 -9.0956053630710423e+07 
-8.8999999999999808e+00 -5.9310630200801884e-01 +8.1227072347992735e+00 -1.7903846303653532e+00 +3.3737422842648471e+01 +2.1731250204343847e+04 -3.9704319025118125e+05 -9.0996550341380715e+07 
-8.9999999999999805e+00 -5.9310669887794221e-01 +8.1227431913018755e+00 -1.7931617716035357e+00 +3.3143593505684954e+01 +2.1752413807175348e+04 -3.9418399160502607e+05 -9.1012813432599634e+07 
-9.0999999999999801e+00 -5.9310710168204284e-01 +8.1227781394244616e+00 -1.7954016132580479e+00 +3.2573246928579913e+01 +2.1766184753541140e+04 -3.9142315619075164e+05 -9.1003191132494926e+07 
-9.1999999999999797e+00 -5.9310751111831561e-01 +8.1228119071450831e+00 -1.7970544876964527e+00 +3.2030119207712772e+01 +2.1772001288665117e+04 -3.8877980334084027e+05 -9.0966032361237556e+07 
-9.2999999999999794e+00 -5.9310792788481570e-01 +8.1228443224162774e+00 -1.7980707293231146e+00 +3.1517947025486503e+01 +2.1769301683885904e+04 -3.8627305500640528e+05 -9.0899686126989946e+07 
-9.3999999999999808e+00 -5.9310835267944995e-01 +8.1228752131628532e+00 -1.7984006779159816e+00 +3.1040467711636179e+01 +2.1757524294777068e+04 -3.8392203609273781e+05 -9.0802501787419289e+07 
-9.4999999999999805e+00 -5.9310878620007279e-01 +8.1229044072890382e+00 -1.7979946786693368e+00 +3.0601419049731309e+01 +2.1736107569599309e+04 -3.8174587337391329e+05 -9.0672829111887828e+07 
-9.5999999999999801e+00 -5.9310922914455866e-01 +8.1229317326720132e+00 -1.7968030833690680e+00 +3.0204539433709542e+01 +2.1704490063353725e+04 -3.7976369629133929e+05 -9.0509018322985679e+07 
-9.6999999999999797e+00 -5.9310968221061233e-01 +8.1229570171608891e+00 -1.7947762482081437e+00 +2.9853567920721439e+01 +2.1662110399545880e+04 -3.7799463733486657e+05 -9.0309419927135900e+07 
-9.7999999999999794e+00 -5.9311014609601420e-01 +8.1229800885815191e+00 -1.7918645334611294e+00 +2.9552244066308596e+01 +2.1608407266272010e+04 -3.7645783099265734e+05 -9.0072384699302405e+07 
-9.8999999999999808e+00 -5.9311062149837002e-01 +8.1230007747305422e+00 -1.7880183076189002e+00 +2.9304308110087906e+01 +2.1542819487074667e+04 -3.7517241486649151e+05 -8.9796264000134438e+07 
-9.9999999999999805e+00 -5.9311110911511733e-01 +8.1230189034016682e+00 -1.7831879560566135e+00 +2.9113499284928103e+01 +2.1464786043165641e+04 -3.7415751805059402e+05 -8.9479409476554558e+07 
-1.0100000000000000e+01 -5.9311160933909679e-01 +8.1230343412976982e+00 -1.7773522708653036e+00 +2.8982395206844100e+01 +2.1374100225547816e+04 -3.7342569933451241e+05 -8.9121331300967276e+07 
