# multipoles
# s[mm] polynom_b[n=0][T/m^n] polynom_b[n=1][T/m^n] polynom_b[n=2][T/m^n] polynom_b[n=3][T/m^n] polynom_b[n=4][T/m^n] polynom_b[n=5][T/m^n] polynom_b[n=6][T/m^n] 
+0.0000000000000000e+00 -5.3645272447511982e-01 +7.3459166334802823e+00 -4.9273441552209467e-02 +3.8933927431212510e+01 +1.1760084206843810e+03 -3.4308893454687361e+05 -2.0098493239282787e+07 
-1.0000000000000001e-01 -5.3645278306701982e-01 +7.3458980452663605e+00 -5.4383408009808114e-02 +3.9158723127178341e+01 +1.3047508433271021e+03 -3.4342585307758331e+05 -2.0778499343981568e+07 
-2.0000000000000001e-01 -5.3645285578596635e-01 +7.3458799832895485e+00 -5.9574081736283285e-02 +3.9354956275428506e+01 +1.4396073578487164e+03 -3.4353917164857127e+05 -2.1497873843751557e+07 
-3.0000000000000004e-01 -5.3645294190011727e-01 +7.3458625329023466e+00 -6.4816509213513174e-02 +3.9522751427347124e+01 +1.5795643337049935e+03 -3.4343942917011777e+05 -2.2250827491592411e+07 
-4.0000000000000002e-01 -5.3645304067761923e-01 +7.3458457794497622e+00 -7.0081738646237124e-02 +3.9662233310235237e+01 +1.7236081736417209e+03 -3.4313716542578727e+05 -2.3031571203043666e+07 
-5.0000000000000000e-01 -5.3645315138663241e-01 +7.3458298082816214e+00 -7.5340816280867987e-02 +3.9773526506404558e+01 +1.8707252434490506e+03 -3.4264291931758198e+05 -2.3834315722710993e+07 
-5.9999999999999998e-01 -5.3645327329531600e-01 +7.3458147047377560e+00 -8.0564788764617798e-02 +3.9856755864512849e+01 +2.0199019168583161e+03 -3.4196723121358693e+05 -2.4653271834382243e+07 
-6.9999999999999996e-01 -5.3645340567183286e-01 +7.3458005541659244e+00 -8.5724702063637831e-02 +3.9912046013072924e+01 +2.1701245545625143e+03 -3.4112064022311219e+05 -2.5482650261204593e+07 
-7.9999999999999993e-01 -5.3645354778436494e-01 +7.3457874419062721e+00 -9.0791600281038665e-02 +3.9939521793529067e+01 +2.3203794851820471e+03 -3.4011368667205184e+05 -2.6316661581575271e+07 
-8.9999999999999991e-01 -5.3645369890107375e-01 +7.3457754533037578e+00 -9.5736530204167683e-02 +3.9939307922465993e+01 +2.4696530904008009e+03 -3.3895691020954103e+05 -2.7149516631128039e+07 
-9.9999999999999989e-01 -5.3645385829016456e-01 +7.3457646736949078e+00 -1.0053053367542579e-01 +3.9911529377495548e+01 +2.6169316618039552e+03 -3.3766085206153244e+05 -2.7975425824433219e+07 
-1.0999999999999999e+00 -5.3645402521981422e-01 +7.3457551884262333e+00 -1.0514465631133066e-01 +3.9856310874728223e+01 +2.7612015665735576e+03 -3.3623605204272433e+05 -2.8788599943447594e+07 
-1.2000000000000000e+00 -5.3645419895822122e-01 +7.3457470828319309e+00 -1.0954994214406807e-01 +3.9773777517195164e+01 +2.9014491488304038e+03 -3.3469305232512887e+05 -2.9583249673400369e+07 
-1.3000000000000000e+00 -5.3645437877357227e-01 +7.3457404422551793e+00 -1.1371743659728820e-01 +3.9664054189273273e+01 +3.0366607810304981e+03 -3.3304239397033880e+05 -3.0353585835365191e+07 
-1.4000000000000001e+00 -5.3645456393410118e-01 +7.3457353520372397e+00 -1.1761818067088185e-01 +3.9527265876437689e+01 +3.1658227622089858e+03 -3.3129461880608561e+05 -3.1093818921696793e+07 
-1.5000000000000002e+00 -5.3645475370798890e-01 +7.3457318975199195e+00 -1.2122322248247205e-01 +3.9363537603689913e+01 +3.2879215333741563e+03 -3.2946026909756905e+05 -3.1798160112421341e+07 
-1.6000000000000003e+00 -5.3645494736346500e-01 +7.3457301640434682e+00 -1.2450360490689895e-01 +3.9172994503221339e+01 +3.4019434411437906e+03 -3.2754988797136472e+05 -3.2460820141951777e+07 
-1.7000000000000004e+00 -5.3645514416876727e-01 +7.3457302369491950e+00 -1.2743037123161707e-01 +3.8955761747809589e+01 +3.5068748539495077e+03 -3.2557401905939350e+05 -3.3076009877592467e+07 
-1.8000000000000005e+00 -5.3645534339209711e-01 +7.3457322015808941e+00 -1.2997456984376299e-01 +3.8711964510040787e+01 +3.6017022415300235e+03 -3.2354320627738646e+05 -3.3637940669260055e+07 
-1.9000000000000006e+00 -5.3645554430170295e-01 +7.3457361432840997e+00 -1.3210724508792721e-01 +3.8441728003458849e+01 +3.6854120122055424e+03 -3.2146799411965307e+05 -3.4140823603851184e+07 
-2.0000000000000004e+00 -5.3645574616581704e-01 +7.3457421474040370e+00 -1.3379944419174591e-01 +3.8145177531809345e+01 +3.7569906381908713e+03 -3.1935892793040950e+05 -3.4578870084875621e+07 
-2.1000000000000005e+00 -5.3645594843866840e-01 +7.3457502805863033e+00 -1.3503343554979427e-01 +3.7822445627275265e+01 +3.8157563622567500e+03 -3.1722436960569798e+05 -3.4948067354235418e+07 
-2.2000000000000006e+00 -5.3645615132110080e-01 +7.3457605435674100e+00 -1.3583575543572790e-01 +3.7473457363219154e+01 +3.8623471289793456e+03 -3.1506267452881712e+05 -3.5251499770455971e+07 
-2.3000000000000007e+00 -5.3645635520126311e-01 +7.3457729228379174e+00 -1.3624386356348825e-01 +3.7098026252256851e+01 +3.8977292405854309e+03 -3.1286937264820671e+05 -3.5494025891734175e+07 
-2.4000000000000008e+00 -5.3645656046727308e-01 +7.3457874048870542e+00 -1.3629522401802641e-01 +3.6695965831372447e+01 +3.9228690859488088e+03 -3.1063999405331729e+05 -3.5680504695946977e+07 
-2.5000000000000009e+00 -5.3645676750728644e-01 +7.3458039762075797e+00 -1.3602729627265436e-01 +3.6267089515450543e+01 +3.9387329676716377e+03 -3.0837006810261362e+05 -3.5815794752917297e+07 
-2.6000000000000010e+00 -5.3645697670946246e-01 +7.3458226232942048e+00 -1.3547754060075526e-01 +3.5811210636275902e+01 +3.9462872135569814e+03 -3.0605512363484787e+05 -3.5904754778514713e+07 
-2.7000000000000011e+00 -5.3645718846195434e-01 +7.3458433326433887e+00 -1.3468341764599895e-01 +3.5328142442515912e+01 +3.9464981546221634e+03 -3.0369068895571079e+05 -3.5952243492033839e+07 
-2.8000000000000012e+00 -5.3645740315294366e-01 +7.3458660907485234e+00 -1.3368238579760441e-01 +3.4817698237163533e+01 +3.9403320908077053e+03 -3.0127229261426796e+05 -3.5963119498154588e+07 
-2.9000000000000012e+00 -5.3645762117058704e-01 +7.3458908841129880e+00 -1.3251190644865324e-01 +3.4279690986054739e+01 +3.9287553753687348e+03 -2.9879546110906533e+05 -3.5942241643419616e+07 
-3.0000000000000013e+00 -5.3645784290307197e-01 +7.3459176992367716e+00 -1.3120943772827445e-01 +3.3713933703215183e+01 +3.9127343067891748e+03 -2.9625572110929427e+05 -3.5894468535210431e+07 
-3.1000000000000014e+00 -5.3645806873859625e-01 +7.3459465226236880e+00 -1.2981243687967772e-01 +3.3120239234360284e+01 +3.8932351678094583e+03 -2.9364859817152674e+05 -3.5824658710114144e+07 
-3.2000000000000015e+00 -5.3645829906532971e-01 +7.3459773407812294e+00 -1.2835836505452045e-01 +3.2498420259985281e+01 +3.8712243194220850e+03 -2.9096961676482559e+05 -3.5737671089697979e+07 
-3.3000000000000016e+00 -5.3645853427148915e-01 +7.3460101402193736e+00 -1.2688467789884852e-01 +3.1848289318427234e+01 +3.8476680190498714e+03 -2.8821430036410072e+05 -3.5638364106350288e+07 
-3.4000000000000017e+00 -5.3645877474528958e-01 +7.3460449074450320e+00 -1.2542883152962320e-01 +3.1169658958302104e+01 +3.8235325368531876e+03 -2.8537817230748379e+05 -3.5531596268366404e+07 
-3.5000000000000018e+00 -5.3645902087492825e-01 +7.3460816289777178e+00 -1.2402828477424012e-01 +3.0462341286539420e+01 +3.7997841953356155e+03 -2.8245675318937819e+05 -3.5422226335734896e+07 
-3.6000000000000019e+00 -5.3645927304863605e-01 +7.3461202913299299e+00 -1.2272049228216846e-01 +2.9726148524514173e+01 +3.7773892391642580e+03 -2.7944556403817609e+05 -3.5315112708083101e+07 
-3.7000000000000020e+00 -5.3645953165463567e-01 +7.3461608810252965e+00 -1.2154291018710574e-01 +2.8960892476636232e+01 +3.7573139434169261e+03 -2.7634012322766607e+05 -3.5215113938597240e+07 
-3.8000000000000020e+00 -5.3645979708116009e-01 +7.3462033845860191e+00 -1.2053299355946245e-01 +2.8166384894641475e+01 +3.7405245643432518e+03 -2.7313594858153193e+05 -3.5127088499246255e+07 
-3.9000000000000021e+00 -5.3646006971647520e-01 +7.3462477885371351e+00 -1.1972819367485295e-01 +2.7342437333412899e+01 +3.7279872874655312e+03 -2.6982855648452585e+05 -3.5055894534129634e+07 
-4.0000000000000018e+00 -5.3646034994879732e-01 +7.3462940794099563e+00 -1.1916596794408282e-01 +2.6488861068169079e+01 +3.7206684139085410e+03 -2.6641346144819644e+05 -3.5006390740647487e+07 
-4.1000000000000014e+00 -5.3646063799224586e-01 +7.3463422070770674e+00 -1.1887557968292983e-01 +2.5606303633850761e+01 +3.7192972717779821e+03 -2.6289040362306614e+05 -3.4982224825750642e+07 
-4.2000000000000011e+00 -5.3646093336221301e-01 +7.3463919612545094e+00 -1.1885279857315385e-01 +2.4699067237467240e+01 +3.7236380396693662e+03 -2.5927747310590895e+05 -3.4982112876328185e+07 
-4.3000000000000007e+00 -5.3646123539895829e-01 +7.3464430882045946e+00 -1.1908480062475026e-01 +2.3772446006055930e+01 +3.7332084136259605e+03 -2.5559771345412871e+05 -3.5003511977985032e+07 
-4.4000000000000004e+00 -5.3646154344268904e-01 +7.3464953341831247e+00 -1.1955876746835437e-01 +2.2831734320198677e+01 +3.7475261827848090e+03 -2.5187416991120146e+05 -3.5043879619615667e+07 
-4.5000000000000000e+00 -5.3646185683360170e-01 +7.3465484454511021e+00 -1.2026188108882999e-01 +2.1882226492539285e+01 +3.7661091309851754e+03 -2.4812988759271495e+05 -3.5100673231767043e+07 
-4.5999999999999996e+00 -5.3646217491188297e-01 +7.3466021682721152e+00 -1.2118132348866165e-01 +2.0929216833496127e+01 +3.7884750266857432e+03 -2.4438791184546644e+05 -3.5171350128323138e+07 
-4.6999999999999993e+00 -5.3646249701765247e-01 +7.3466562489073901e+00 -1.2230428349320034e-01 +1.9977999814374897e+01 +3.8141417503483158e+03 -2.4067128924537660e+05 -3.5253368106210195e+07 
-4.7999999999999989e+00 -5.3646282249104627e-01 +7.3467104336235831e+00 -1.2361794716260807e-01 +1.9033869835004300e+01 +3.8426271174254607e+03 -2.3700306623330049e+05 -3.5344184618720271e+07 
-4.8999999999999986e+00 -5.3646315067214356e-01 +7.3467644686808322e+00 -1.2510950584161767e-01 +1.8102121574426736e+01 +3.8734490232750868e+03 -2.3340629115763950e+05 -3.5441257441561304e+07 
-4.9999999999999982e+00 -5.3646348090100493e-01 +7.3468181003501440e+00 -1.2676615172398295e-01 +1.7188049513926256e+01 +3.9061253612713158e+03 -2.2990401158818710e+05 -3.5542044291547686e+07 
-5.0999999999999979e+00 -5.3646381251766173e-01 +7.3468710748970478e+00 -1.2857507918141697e-01 +1.6296948380762220e+01 +3.9401740472393499e+03 -2.2651927680690793e+05 -3.5644002939093687e+07 
-5.1999999999999975e+00 -5.3646414486209826e-01 +7.3469231385885205e+00 -1.3052348694574323e-01 +1.5434112982870300e+01 +3.9751130602891581e+03 -2.2327513693977150e+05 -3.5744591401266195e+07 
-5.2999999999999972e+00 -5.3646447727427449e-01 +7.3469740376976009e+00 -1.3259857453859308e-01 +1.4604838071261398e+01 +4.0104603707317410e+03 -2.2019464215551983e+05 -3.5841267588554844e+07 
-5.3999999999999968e+00 -5.3646480909410565e-01 +7.3470235184903778e+00 -1.3478754576419075e-01 +1.3814418716899452e+01 +4.0457340097493602e+03 -2.1730084485344315e+05 -3.5931489642207943e+07 
-5.4999999999999964e+00 -5.3646513966148357e-01 +7.3470713272411912e+00 -1.3707760519980688e-01 +1.3068149873468874e+01 +4.0804520002126492e+03 -2.1461679712783662e+05 -3.6012715602121785e+07 
-5.5999999999999961e+00 -5.3646546831622610e-01 +7.3471172102218789e+00 -1.3945596481700454e-01 +1.2371326711565773e+01 +4.1141324814039108e+03 -2.1216555277509539e+05 -3.6082403994669296e+07 
-5.6999999999999957e+00 -5.3646579439815589e-01 +7.3471609137040002e+00 -1.4190983379682218e-01 +1.1729244539175024e+01 +4.1462935134232885e+03 -2.0997016679147325e+05 -3.6138012896694891e+07 
-5.7999999999999954e+00 -5.3646611724700499e-01 +7.3472021839637174e+00 -1.4442643041587361e-01 +1.1147198681053002e+01 +4.1764533042190915e+03 -2.0805369472789805e+05 -3.6177001020545788e+07 
-5.8999999999999950e+00 -5.3646643620249890e-01 +7.3472407672757765e+00 -1.4699297172851994e-01 +1.0630484644195727e+01 +4.2041300116800203e+03 -2.0643919362908381e+05 -3.6196826765749827e+07 
-5.9999999999999947e+00 -5.3646675060430360e-01 +7.3472764099137651e+00 -1.4959667958078590e-01 +1.0184398131586594e+01 +4.2288418545845607e+03 -2.0514972218582820e+05 -3.6194948739354432e+07 
-6.0999999999999943e+00 -5.3646705995432520e-01 +7.3473088909541353e+00 -1.5222539541662353e-01 +9.8133354973011340e+00 +4.2501865771938556e+03 -2.0420390059498666e+05 -3.6169335547907427e+07 
-6.1999999999999940e+00 -5.3646736440709974e-01 +7.3473381329563310e+00 -1.5487032627027561e-01 +9.5177804224034848e+00 +4.2681080049693519e+03 -2.0360084166597304e+05 -3.6120135045733109e+07 
-6.2999999999999936e+00 -5.3646766428119419e-01 +7.3473640975401660e+00 -1.5752377792691405e-01 +9.2971556881499318e+00 +4.2826443485783302e+03 -2.0333432668315474e+05 -3.6048079426889256e+07 
-6.3999999999999932e+00 -5.3646795989514662e-01 +7.3473867463186373e+00 -1.6017805816297184e-01 +9.1508842568075472e+00 +4.2938338469686378e+03 -2.0339813782238640e+05 -3.5953901004242264e+07 
-6.4999999999999929e+00 -5.3646825156747990e-01 +7.3474060409001902e+00 -1.6282547435687159e-01 +9.0783892132407011e+00 +4.3017147167660059e+03 -2.0378605780548992e+05 -3.5838331956951089e+07 
-6.5999999999999925e+00 -5.3646853961670904e-01 +7.3474219428911276e+00 -1.6545833360653478e-01 +9.0790936770855755e+00 +4.3063251591809794e+03 -2.0449186934020731e+05 -3.5702104372801974e+07 
-6.6999999999999922e+00 -5.3646882436133447e-01 +7.3474344138933878e+00 -1.6806894272780248e-01 +9.1524208769023332e+00 +4.3077033585200497e+03 -2.0550935556495035e+05 -3.5545950242655575e+07 
-6.7999999999999918e+00 -5.3646910611984366e-01 +7.3474434155015951e+00 -1.7064960840590992e-01 +9.2977942301732348e+00 +4.3058874833734881e+03 -2.0683230049724897e+05 -3.5370601457171775e+07 
-6.8999999999999915e+00 -5.3646938521070220e-01 +7.3474489093069044e+00 -1.7319263813037256e-01 +9.5146372281932372e+00 +4.3009157059608942e+03 -2.0845448834572008e+05 -3.5176789906770654e+07 
-6.9999999999999911e+00 -5.3646966195237089e-01 +7.3474508568926025e+00 -1.7569033771482390e-01 +9.8023735619336119e+00 +4.2928261537297985e+03 -2.1036970423105740e+05 -3.4965247247830756e+07 
-7.0999999999999908e+00 -5.3646993666330001e-01 +7.3474492198439378e+00 -1.7813501254548395e-01 +1.0160426838879157e+01 +4.2816569333128409e+03 -2.1257173253949021e+05 -3.4736705016978145e+07 
-7.1999999999999904e+00 -5.3647020966190118e-01 +7.3474439597332371e+00 -1.8051897092616875e-01 +1.0588221005798163e+01 +4.2674461951167250e+03 -2.1505435934724304e+05 -3.4491894940723501e+07 
-7.2999999999999901e+00 -5.3647048126659391e-01 +7.3474350381287916e+00 -1.8283451739443088e-01 +1.1085180096775369e+01 +4.2502320030599449e+03 -2.1781137096597679e+05 -3.4231548311681882e+07 
-7.3999999999999897e+00 -5.3647075179579284e-01 +7.3474224165955127e+00 -1.8507395559531803e-01 +1.1650728207837192e+01 +4.2300523928076291e+03 -2.2083655377395218e+05 -3.3956396270064928e+07 
-7.4999999999999893e+00 -5.3647102156786486e-01 +7.3474060566890342e+00 -1.8722959256183219e-01 +1.2284289663673423e+01 +4.2069454488340234e+03 -2.2412369516274965e+05 -3.3667170162199877e+07 
-7.5999999999999890e+00 -5.3647129090120382e-01 +7.3473859199614102e+00 -1.8929372987292897e-01 +1.2985288855504644e+01 +4.1809491417541158e+03 -2.2766658260304097e+05 -3.3364600783196937e+07 
-7.6999999999999886e+00 -5.3647156011414998e-01 +7.3473619679555142e+00 -1.9125867351772757e-01 +1.3753150398975553e+01 +4.1521015099008573e+03 -2.3145900453084178e+05 -3.3049419221581034e+07 
-7.7999999999999883e+00 -5.3647182952505656e-01 +7.3473341622068578e+00 -1.9311672531020482e-01 +1.4587299077498590e+01 +4.1204404993896833e+03 -2.3549475001530431e+05 -3.2722356110990070e+07 
-7.8999999999999879e+00 -5.3647209945223573e-01 +7.3473024642494069e+00 -1.9486018985605513e-01 +1.5487159679112317e+01 +4.0860040942655428e+03 -2.3976760781306785e+05 -3.2384142241521906e+07 
-7.9999999999999876e+00 -5.3647237021402794e-01 +7.3472668356024755e+00 -1.9648136580532380e-01 +1.6452157368532696e+01 +4.0488301531445745e+03 -2.4427136851455804e+05 -3.2035507793834001e+07 
-8.0999999999999872e+00 -5.3647264217347368e-01 +7.3472273139952771e+00 -1.9797404182086659e-01 +1.7480487774842896e+01 +4.0090027291862225e+03 -2.4899556582728060e+05 -3.1677409894294277e+07 
-8.1999999999999869e+00 -5.3647291586977275e-01 +7.3471842481606240e+00 -1.9934253603618307e-01 +1.8565312516950105e+01 +3.9668662020185634e+03 -2.5391234059493785e+05 -3.1311986929023668e+07 
-8.2999999999999865e+00 -5.3647319188544051e-01 +7.3471380663578678e+00 -2.0059497401236809e-01 +1.9698506190869615e+01 +3.9228495420133208e+03 -2.5898942710486107e+05 -3.0941743224267084e+07 
-8.3999999999999861e+00 -5.3647347080304419e-01 +7.3470891968461567e+00 -2.0173947939253478e-01 +2.0871943262328287e+01 +3.8773817298222580e+03 -2.6419455843941477e+05 -3.0569183269396883e+07 
-8.4999999999999858e+00 -5.3647375320524471e-01 +7.3470380678757392e+00 -2.0278416887022735e-01 +2.2077498309490490e+01 +3.8308916631192865e+03 -2.6949546780296124e+05 -3.0196811282627884e+07 
-8.5999999999999854e+00 -5.3647403967475871e-01 +7.3469851076945583e+00 -2.0373715686969693e-01 +2.3307045813777624e+01 +3.7838082478171723e+03 -2.7485988724911882e+05 -2.9827131653843310e+07 
-8.6999999999999851e+00 -5.3647433079440265e-01 +7.3469307445432852e+00 -2.0460655047316526e-01 +2.4552460298280110e+01 +3.7365603032505874e+03 -2.8025554847473250e+05 -2.9462648494790170e+07 
-8.7999999999999847e+00 -5.3647462714704608e-01 +7.3468754066603532e+00 -2.0540045519222763e-01 +2.5805616196493659e+01 +3.6895766746291270e+03 -2.8565018209365342e+05 -2.9105866184732620e+07 
-8.8999999999999844e+00 -5.3647492931566376e-01 +7.3468195222779897e+00 -2.0612696854814896e-01 +2.7058387930737528e+01 +3.6432861085286659e+03 -2.9101151798184362e+05 -2.8759288766990904e+07 
-8.9999999999999840e+00 -5.3647523788329265e-01 +7.3467635196252257e+00 -2.0679418634937724e-01 +2.8302649854067511e+01 +3.5981173818718371e+03 -2.9630728502759279e+05 -2.8425420590798028e+07 
-9.0999999999999837e+00 -5.3647555343308739e-01 +7.3467078269196291e+00 -2.0741019466735439e-01 +2.9530276462189317e+01 +3.5544991415484224e+03 -3.0150521227412269e+05 -2.8106765526314571e+07 
-9.1999999999999833e+00 -5.3647587654826756e-01 +7.3466528723798801e+00 -2.0798307761730303e-01 +3.0733142025088195e+01 +3.5128600612126611e+03 -3.0657302677549992e+05 -2.7805827734490942e+07 
-9.2999999999999829e+00 -5.3647620781215721e-01 +7.3465990842161704e+00 -2.0852091212478827e-01 +3.1903120879744876e+01 +3.4736287396185389e+03 -3.1147845532499393e+05 -2.7525111176420692e+07 
-9.3999999999999826e+00 -5.3647654780816656e-01 +7.3465468906345244e+00 -2.0903177075901191e-01 +3.3032087271656820e+01 +3.4372337591050905e+03 -3.1618922344715032e+05 -2.7267119903549001e+07 
-9.4999999999999822e+00 -5.3647689711982316e-01 +7.3464967198321682e+00 -2.0952371723382326e-01 +3.4111915512250938e+01 +3.4041035984874543e+03 -3.2067305637064442e+05 -2.7034357641096156e+07 
-9.5999999999999819e+00 -5.3647725633072008e-01 +7.3464490000029237e+00 -2.1000481396549572e-01 +3.5134479794419477e+01 +3.3746667802528186e+03 -3.2489767787747458e+05 -2.6829328493998762e+07 
-9.6999999999999815e+00 -5.3647762602458027e-01 +7.3464041593362435e+00 -2.1048311354637284e-01 +3.6091654236075904e+01 +3.3493517108872538e+03 -3.2883081059538672e+05 -2.6654536195897058e+07 
-9.7999999999999812e+00 -5.3647800678522573e-01 +7.3463626260123362e+00 -2.1096666311658449e-01 +3.6975312995543042e+01 +3.3285867639273602e+03 -3.3244017659702030e+05 -2.6512484502934106e+07 
-9.8999999999999808e+00 -5.3647839919658258e-01 +7.3463248282048541e+00 -2.1146350356705265e-01 +3.7777330209757849e+01 +3.3128002669077050e+03 -3.3569349707200140e+05 -2.6405677137449272e+07 
-9.9999999999999805e+00 -5.3647880384267688e-01 +7.3462911940873479e+00 -2.1198167065493453e-01 +3.8489579750139740e+01 +3.3024205213640976e+03 -3.3855849059947644e+05 -2.6336617859352034e+07 
-1.0099999999999980e+01 -5.3647922106077950e-01 +7.3462620520832278e+00 -2.1252840812872334e-01 +3.9105730575670222e+01 +3.2977639595606338e+03 -3.4100961447347439e+05 -2.6307053277374934e+07 
