# field on trajectory
# s[mm] rx[mm] ry[mm] rz[mm] bx[T] by[T] bz[T]
-0.0000000000000000e+00 +8.1530000000000094e+00 +0.0000000000000000e+00 -0.0000000000000000e+00 -3.1948300843140487e-02 -5.9243497778407284e-01 +5.8971001531206583e-03
-1.0000000000000001e-01 +8.1529997163925092e+00 +0.0000000000000000e+00 -9.9999999999463796e-02 -3.1948217060942773e-02 -5.9243490139159338e-01 +5.8970458805787532e-03
-2.0000000000000001e-01 +8.1529988655711296e+00 +0.0000000000000000e+00 -1.9999999999571000e-01 -3.1948129094356945e-02 -5.9243483351056758e-01 +5.8969923072554123e-03
-2.9999999999999999e-01 +8.1529974475415692e+00 +0.0000000000000000e+00 -2.9999999998552201e-01 -3.1948037314236753e-02 -5.9243477377515164e-01 +5.8969393544658806e-03
-4.0000000000000002e-01 +8.1529954622965306e+00 +0.0000000000000000e+00 -3.9999999996568197e-01 -3.1947942091440973e-02 -5.9243472181958912e-01 +5.8968869435274025e-03
-5.0000000000000000e-01 +8.1529929098396696e+00 +0.0000000000000000e+00 -4.9999999993297300e-01 -3.1947843796822528e-02 -5.9243467727802157e-01 +5.8968349957572138e-03
-5.9999999999999998e-01 +8.1529897901673394e+00 +0.0000000000000000e+00 -5.9999999988417696e-01 -3.1947742801235447e-02 -5.9243463978463695e-01 +5.8967834324739725e-03
-6.9999999999999996e-01 +8.1529861032831796e+00 +0.0000000000000000e+00 -6.9999999981607697e-01 -3.1947639475527978e-02 -5.9243460897355837e-01 +5.8967321749965303e-03
-8.0000000000000004e-01 +8.1529818491871993e+00 +0.0000000000000000e+00 -7.9999999972545699e-01 -3.1947534190546370e-02 -5.9243458447893416e-01 +5.8966811446447649e-03
-9.0000000000000002e-01 +8.1529770278793894e+00 +0.0000000000000000e+00 -8.9999999960909804e-01 -3.1947427317132571e-02 -5.9243456593491217e-01 +5.8966302627392374e-03
-1.0000000000000000e+00 +8.1529716393597500e+00 +0.0000000000000000e+00 -9.9999999946378304e-01 -3.1947319226123552e-02 -5.9243455297564473e-01 +5.8965794506011353e-03
-1.1000000000000001e+00 +8.1529656836210105e+00 +0.0000000000000000e+00 -1.0999999992862901e+00 -3.1947210288353525e-02 -5.9243454523534955e-01 +5.8965286295528281e-03
-1.2000000000000000e+00 +8.1529591606740706e+00 +0.0000000000000000e+00 -1.1999999990734200e+00 -3.1947100874642496e-02 -5.9243454234810800e-01 +5.8964777209157219e-03
-1.3000000000000000e+00 +8.1529520705153100e+00 +0.0000000000000000e+00 -1.2999999988219300e+00 -3.1946991355809300e-02 -5.9243454394813277e-01 +5.8964266460128879e-03
-1.3999999999999999e+00 +8.1529444131410909e+00 +0.0000000000000000e+00 -1.3999999985286200e+00 -3.1946882102664657e-02 -5.9243454966965514e-01 +5.8963753261678355e-03
-1.5000000000000000e+00 +8.1529361885550298e+00 +0.0000000000000000e+00 -1.4999999981902701e+00 -3.1946773486007413e-02 -5.9243455914686971e-01 +5.8963236827038485e-03
-1.6000000000000001e+00 +8.1529273967571498e+00 +0.0000000000000000e+00 -1.5999999978036501e+00 -3.1946665876628297e-02 -5.9243457201402372e-01 +5.8962716369448335e-03
-1.7000000000000000e+00 +8.1529180377474404e+00 +0.0000000000000000e+00 -1.6999999973655600e+00 -3.1946559645307709e-02 -5.9243458790539427e-01 +5.8962191102149789e-03
-1.8000000000000000e+00 +8.1529081115222706e+00 +0.0000000000000000e+00 -1.7999999968727800e+00 -3.1946455162816426e-02 -5.9243460645531931e-01 +5.8961660238389963e-03
-1.8999999999999999e+00 +8.1528976180852606e+00 +0.0000000000000000e+00 -1.8999999963220899e+00 -3.1946352799910295e-02 -5.9243462729811491e-01 +5.8961122991411765e-03
-2.0000000000000000e+00 +8.1528865574327902e+00 +0.0000000000000000e+00 -1.9999999957102601e+00 -3.1946252927335536e-02 -5.9243465006819473e-01 +5.8960578574465293e-03
-2.1000000000000001e+00 +8.1528749295721408e+00 +0.0000000000000000e+00 -2.0999999950340902e+00 -3.1946155794399043e-02 -5.9243467444913089e-01 +5.8960026599655570e-03
-2.2000000000000002e+00 +8.1528627344960096e+00 +0.0000000000000000e+00 -2.1999999942903599e+00 -3.1946061164715718e-02 -5.9243470032146484e-01 +5.8959468274552979e-03
-2.2999999999999998e+00 +8.1528499722080596e+00 +0.0000000000000000e+00 -2.2999999934758399e+00 -3.1945968680463926e-02 -5.9243472761486438e-01 +5.8958905205582571e-03
-2.3999999999999999e+00 +8.1528366427046404e+00 +0.0000000000000000e+00 -2.3999999925873299e+00 -3.1945877983814555e-02 -5.9243475625906272e-01 +5.8958338999175394e-03
-2.5000000000000000e+00 +8.1528227459894005e+00 +0.0000000000000000e+00 -2.4999999916215998e+00 -3.1945788716924696e-02 -5.9243478618373790e-01 +5.8957771261756043e-03
-2.6000000000000001e+00 +8.1528082820659602e+00 +0.0000000000000000e+00 -2.5999999905754398e+00 -3.1945700521940540e-02 -5.9243481731857273e-01 +5.8957203599748348e-03
-2.7000000000000002e+00 +8.1527932509234198e+00 +0.0000000000000000e+00 -2.6999999894456299e+00 -3.1945613041003088e-02 -5.9243484959337089e-01 +5.8956637619586878e-03
-2.7999999999999998e+00 +8.1527776525726896e+00 +0.0000000000000000e+00 -2.7999999882289601e+00 -3.1945525916232780e-02 -5.9243488293775948e-01 +5.8956074927686425e-03
-2.8999999999999999e+00 +8.1527614870065008e+00 +0.0000000000000000e+00 -2.8999999869222002e+00 -3.1945438789745907e-02 -5.9243491728151387e-01 +5.8955517130474732e-03
-3.0000000000000000e+00 +8.1527447542284808e+00 +0.0000000000000000e+00 -2.9999999855221300e+00 -3.1945351303642344e-02 -5.9243495255431999e-01 +5.8954965834367989e-03
-3.1000000000000001e+00 +8.1527274542386294e+00 +0.0000000000000000e+00 -3.0999999840255499e+00 -3.1945263100011237e-02 -5.9243498868589151e-01 +5.8954422645782368e-03
-3.2000000000000002e+00 +8.1527095870333106e+00 +0.0000000000000000e+00 -3.1999999824292300e+00 -3.1945173820930872e-02 -5.9243502560596772e-01 +5.8953889171133676e-03
-3.2999999999999998e+00 +8.1526911526198091e+00 +0.0000000000000000e+00 -3.2999999807299600e+00 -3.1945083108462259e-02 -5.9243506324419526e-01 +5.8953367016824840e-03
-3.3999999999999999e+00 +8.1526721509872004e+00 +0.0000000000000000e+00 -3.3999999789245101e+00 -3.1944990604661147e-02 -5.9243510153036272e-01 +5.8952857789269604e-03
-3.5000000000000000e+00 +8.1526525821464002e+00 +0.0000000000000000e+00 -3.4999999770096801e+00 -3.1944895951560998e-02 -5.9243514039407486e-01 +5.8952363094858951e-03
-3.6000000000000001e+00 +8.1526324460901396e+00 +0.0000000000000000e+00 -3.5999999749822500e+00 -3.1944798791189485e-02 -5.9243517976507598e-01 +5.8951884539993685e-03
-3.7000000000000002e+00 +8.1526117428220495e+00 +0.0000000000000000e+00 -3.6999999728389801e+00 -3.1944698765556091e-02 -5.9243521957301248e-01 +5.8951423731060165e-03
-3.7999999999999998e+00 +8.1525904723421299e+00 +0.0000000000000000e+00 -3.7999999705766800e+00 -3.1944595516657959e-02 -5.9243525974755040e-01 +5.8950982274441717e-03
-3.8999999999999999e+00 +8.1525686346503807e+00 +0.0000000000000000e+00 -3.8999999681921298e+00 -3.1944488686478117e-02 -5.9243530021834467e-01 +5.8950561776515229e-03
-4.0000000000000000e+00 +8.1525462297431694e+00 +0.0000000000000000e+00 -3.9999999656820902e+00 -3.1944377916986740e-02 -5.9243534091506578e-01 +5.8950163843653732e-03
-4.0999999999999996e+00 +8.1525232576241304e+00 +0.0000000000000000e+00 -4.0999999630433699e+00 -3.1944262973416487e-02 -5.9243538173306520e-01 +5.8949789789746300e-03
-4.2000000000000002e+00 +8.1524997182896204e+00 +0.0000000000000000e+00 -4.1999999602727298e+00 -3.1944144114119027e-02 -5.9243542243074976e-01 +5.8949439758799417e-03
-4.2999999999999998e+00 +8.1524756117469206e+00 +0.0000000000000000e+00 -4.2999999573669703e+00 -3.1944021720734884e-02 -5.9243546273217385e-01 +5.8949113602339712e-03
-4.4000000000000004e+00 +8.1524509379887604e+00 +0.0000000000000000e+00 -4.3999999543228601e+00 -3.1943896174927662e-02 -5.9243550236149223e-01 +5.8948811171907062e-03
-4.5000000000000000e+00 +8.1524256970187707e+00 +0.0000000000000000e+00 -4.4999999511372000e+00 -3.1943767858374980e-02 -5.9243554104275198e-01 +5.8948532319033761e-03
-4.5999999999999996e+00 +8.1523998888369498e+00 +0.0000000000000000e+00 -4.5999999478067499e+00 -3.1943637152776122e-02 -5.9243557850001050e-01 +5.8948276895256675e-03
-4.7000000000000002e+00 +8.1523735134396702e+00 +0.0000000000000000e+00 -4.6999999443283098e+00 -3.1943504439853554e-02 -5.9243561445733250e-01 +5.8948044752117250e-03
-4.7999999999999998e+00 +8.1523465708305594e+00 +0.0000000000000000e+00 -4.7999999406986600e+00 -3.1943370101349948e-02 -5.9243564863870202e-01 +5.8947835741152681e-03
-4.9000000000000004e+00 +8.1523190610096208e+00 +0.0000000000000000e+00 -4.8999999369145701e+00 -3.1943234519034282e-02 -5.9243568076810804e-01 +5.8947649713905047e-03
-5.0000000000000000e+00 +8.1522909839768491e+00 +0.0000000000000000e+00 -4.9999999329728402e+00 -3.1943098074701873e-02 -5.9243571056951583e-01 +5.8947486521918457e-03
-5.0999999999999996e+00 +8.1522623397286207e+00 +0.0000000000000000e+00 -5.0999999288702398e+00 -3.1942961150177460e-02 -5.9243573776689329e-01 +5.8947346016742031e-03
-5.2000000000000002e+00 +8.1522331282685592e+00 +0.0000000000000000e+00 -5.1999999246035600e+00 -3.1942824127312232e-02 -5.9243576208412263e-01 +5.8947228049921257e-03
-5.2999999999999998e+00 +8.1522033495966806e+00 +0.0000000000000000e+00 -5.2999999201695802e+00 -3.1942687387989846e-02 -5.9243578324508683e-01 +5.8947132473006836e-03
-5.4000000000000004e+00 +8.1521730037093203e+00 +0.0000000000000000e+00 -5.3999999155650800e+00 -3.1942551314128133e-02 -5.9243580097366888e-01 +5.8947059137554984e-03
-5.5000000000000000e+00 +8.1521420906137791e+00 +0.0000000000000000e+00 -5.4999999107868396e+00 -3.1942416287674413e-02 -5.9243581499363263e-01 +5.8947007895115526e-03
-5.5999999999999996e+00 +8.1521106102991308e+00 +0.0000000000000000e+00 -5.5999999058316599e+00 -3.1942282690619328e-02 -5.9243582502885728e-01 +5.8946978597255919e-03
-5.7000000000000002e+00 +8.1520785627762997e+00 +0.0000000000000000e+00 -5.6999999006963096e+00 -3.1942150904981620e-02 -5.9243583080301243e-01 +5.8946971095528494e-03
-5.7999999999999998e+00 +8.1520459480379905e+00 +0.0000000000000000e+00 -5.7999998953775700e+00 -3.1942021312826412e-02 -5.9243583203987948e-01 +5.8946985241503502e-03
-5.9000000000000004e+00 +8.1520127660915005e+00 +0.0000000000000000e+00 -5.8999998898722197e+00 -3.1941894296253104e-02 -5.9243582846308773e-01 +5.8947020886742198e-03
-5.9999999999999902e+00 +8.1519790169259103e+00 +0.0000000000000000e+00 -5.9999998841770603e+00 -3.1941770237410620e-02 -5.9243581979637672e-01 +5.8947077882824089e-03
-6.0999999999999899e+00 +8.1519447005521197e+00 +0.0000000000000000e+00 -6.0999998782888598e+00 -3.1941649441351395e-02 -5.9243580599716150e-01 +5.8947155954494875e-03
-6.1999999999999904e+00 +8.1519098169665103e+00 +0.0000000000000000e+00 -6.1999998722044003e+00 -3.1941531904644278e-02 -5.9243578795851215e-01 +5.8947254319241310e-03
-6.2999999999999901e+00 +8.1518743661654298e+00 +0.0000000000000000e+00 -6.2999998659204701e+00 -3.1941417546743803e-02 -5.9243576680737775e-01 +5.8947372067744324e-03
-6.3999999999999897e+00 +8.1518383481488907e+00 +0.0000000000000000e+00 -6.3999998594338496e+00 -3.1941306287117645e-02 -5.9243574367066576e-01 +5.8947508290697259e-03
-6.4999999999999902e+00 +8.1518017629241495e+00 +0.0000000000000000e+00 -6.4999998527413201e+00 -3.1941198045245416e-02 -5.9243571967521524e-01 +5.8947662078803606e-03
-6.5999999999999899e+00 +8.1517646104839496e+00 +0.0000000000000000e+00 -6.5999998458396698e+00 -3.1941092740628008e-02 -5.9243569594797052e-01 +5.8947832522795521e-03
-6.6999999999999904e+00 +8.1517268908319203e+00 +0.0000000000000000e+00 -6.6999998387256703e+00 -3.1940990292777263e-02 -5.9243567361577776e-01 +5.8948018713413375e-03
-6.7999999999999901e+00 +8.1516886039680703e+00 +0.0000000000000000e+00 -6.7999998313961196e+00 -3.1940890621222323e-02 -5.9243565380550067e-01 +5.8948219741418399e-03
-6.8999999999999897e+00 +8.1516497498923908e+00 +0.0000000000000000e+00 -6.8999998238477902e+00 -3.1940793645508350e-02 -5.9243563764399187e-01 +5.8948434697590193e-03
-6.9999999999999902e+00 +8.1516103286012402e+00 +0.0000000000000000e+00 -6.9999998160774597e+00 -3.1940699285198319e-02 -5.9243562625812296e-01 +5.8948662672730426e-03
-7.0999999999999899e+00 +8.1515703400982602e+00 +0.0000000000000000e+00 -7.0999998080819298e+00 -3.1940607459868722e-02 -5.9243562077469469e-01 +5.8948902757654208e-03
-7.1999999999999904e+00 +8.1515297843834595e+00 +0.0000000000000000e+00 -7.1999997998579603e+00 -3.1940518089114411e-02 -5.9243562232052616e-01 +5.8949154043199860e-03
-7.2999999999999901e+00 +8.1514886614531896e+00 +0.0000000000000000e+00 -7.2999997914023496e+00 -3.1940431092548925e-02 -5.9243563202245464e-01 +5.8949415620229428e-03
-7.3999999999999897e+00 +8.1514469713147300e+00 +0.0000000000000000e+00 -7.3999997827118804e+00 -3.1940346389798487e-02 -5.9243565100721840e-01 +5.8949686579617211e-03
-7.4999999999999902e+00 +8.1514047139571595e+00 +0.0000000000000000e+00 -7.4999997737833199e+00 -3.1940263900514680e-02 -5.9243568040169114e-01 +5.8949966012274450e-03
-7.5999999999999899e+00 +8.1513618893914099e+00 +0.0000000000000000e+00 -7.5999997646134698e+00 -3.1940183544357792e-02 -5.9243572133255851e-01 +5.8950253009116818e-03
-7.6999999999999904e+00 +8.1513184976138309e+00 +0.0000000000000000e+00 -7.6999997551991104e+00 -3.1940105241012422e-02 -5.9243577492661292e-01 +5.8950546661095012e-03
-7.7999999999999901e+00 +8.1512745386207808e+00 +0.0000000000000000e+00 -7.7999997455370096e+00 -3.1940028910181592e-02 -5.9243584231063584e-01 +5.8950846059183425e-03
-7.8999999999999897e+00 +8.1512300124159101e+00 +0.0000000000000000e+00 -7.8999997356239602e+00 -3.1939954471583973e-02 -5.9243592461133721e-01 +5.8951150294374545e-03
-7.9999999999999902e+00 +8.1511849189955701e+00 +0.0000000000000000e+00 -7.9999997254567399e+00 -3.1939881844960251e-02 -5.9243602295547582e-01 +5.8951458457691761e-03
-8.0999999999999908e+00 +8.1511392583670403e+00 +0.0000000000000000e+00 -8.0999997150321406e+00 -3.1939811023440533e-02 -5.9243613830257280e-01 +5.8951769693730812e-03
-8.1999999999999904e+00 +8.1510930305230396e+00 +0.0000000000000000e+00 -8.1999997043469399e+00 -3.1939742293664232e-02 -5.9243627094372941e-01 +5.8952083361314194e-03
-8.2999999999999901e+00 +8.1510462354672200e+00 +0.0000000000000000e+00 -8.2999996933979094e+00 -3.1939676015613344e-02 -5.9243642100287697e-01 +5.8952398872734362e-03
-8.3999999999999897e+00 +8.1509988731995708e+00 +0.0000000000000000e+00 -8.3999996821818605e+00 -3.1939612549237016e-02 -5.9243658860404280e-01 +5.8952715640196926e-03
-8.4999999999999893e+00 +8.1509509437164507e+00 +0.0000000000000000e+00 -8.4999996706955496e+00 -3.1939552254450145e-02 -5.9243677387135429e-01 +5.8953033075817641e-03
-8.5999999999999908e+00 +8.1509024470215099e+00 +0.0000000000000000e+00 -8.5999996589357703e+00 -3.1939495491127588e-02 -5.9243697692895103e-01 +5.8953350591610673e-03
-8.6999999999999904e+00 +8.1508533831147396e+00 +0.0000000000000000e+00 -8.6999996468993004e+00 -3.1939442619107347e-02 -5.9243719790107596e-01 +5.8953667599494714e-03
-8.7999999999999794e+00 +8.1508037519961398e+00 +0.0000000000000000e+00 -8.7999996345829192e+00 -3.1939393998187640e-02 -5.9243743691204875e-01 +5.8953983511286960e-03
-8.8999999999999808e+00 +8.1507535536620708e+00 +0.0000000000000000e+00 -8.8999996219834205e+00 -3.1939349988127225e-02 -5.9243769408629643e-01 +5.8954297738703513e-03
-8.9999999999999805e+00 +8.1507027881161793e+00 +0.0000000000000000e+00 -8.9999996090975891e+00 -3.1939310948639395e-02 -5.9243796954826844e-01 +5.8954609693347279e-03
-9.0999999999999801e+00 +8.1506514553584601e+00 +0.0000000000000000e+00 -9.0999995959221902e+00 -3.1939277239395214e-02 -5.9243826342252637e-01 +5.8954918786714248e-03
-9.1999999999999797e+00 +8.1505995553889097e+00 +0.0000000000000000e+00 -9.1999995824540193e+00 -3.1939249220020720e-02 -5.9243857583371795e-01 +5.8955224430187634e-03
-9.2999999999999794e+00 +8.1505470882038900e+00 +0.0000000000000000e+00 -9.2999995686898593e+00 -3.1939227250097069e-02 -5.9243890690660728e-01 +5.8955526035037948e-03
-9.3999999999999808e+00 +8.1504940538070496e+00 +0.0000000000000000e+00 -9.3999995546264898e+00 -3.1939211689154617e-02 -5.9243925676599019e-01 +5.8955823012411127e-03
-9.4999999999999805e+00 +8.1504404521983798e+00 +0.0000000000000000e+00 -9.4999995402606903e+00 -3.1939202896676198e-02 -5.9243962553678287e-01 +5.8956114773334777e-03
-9.5999999999999801e+00 +8.1503862833778804e+00 +0.0000000000000000e+00 -9.5999995255892507e+00 -3.1939201232094233e-02 -5.9244001334399843e-01 +5.8956400728712209e-03
-9.6999999999999797e+00 +8.1503315473419207e+00 +0.0000000000000000e+00 -9.6999995106089507e+00 -3.1939207054790912e-02 -5.9244042031277344e-01 +5.8956680289322626e-03
-9.7999999999999794e+00 +8.1502762440941297e+00 +0.0000000000000000e+00 -9.7999994953165697e+00 -3.1939220724092290e-02 -5.9244084656828699e-01 +5.8956952865809329e-03
-9.8999999999999808e+00 +8.1502203736345091e+00 +0.0000000000000000e+00 -9.8999994797088906e+00 -3.1939242599271556e-02 -5.9244129223584774e-01 +5.8957217868685673e-03
-9.9999999999999805e+00 +8.1501639359594300e+00 +0.0000000000000000e+00 -9.9999994637827001e+00 -3.1939273039547654e-02 -5.9244175744089755e-01 +5.8957474708332385e-03
-1.0100000000000000e+01 +8.1501069310761505e+00 +0.0000000000000000e+00 -1.0099999447534801e+01 -3.1939312226579773e-02 -5.9244224214478292e-01 +5.8957723199910793e-03
-1.0199999999999999e+01 +8.1500493589774106e+00 +0.0000000000000000e+00 -1.0199999430961901e+01 -3.1939359631989239e-02 -5.9244274565257005e-01 +5.8957964778280393e-03
-1.0300000000000001e+01 +8.1499912196668394e+00 +0.0000000000000000e+00 -1.0299999414060901e+01 -3.1939414549879884e-02 -5.9244326710511319e-01 +5.8958201283335334e-03
-1.0400000000000000e+01 +8.1499325131444493e+00 +0.0000000000000000e+00 -1.0399999396828500e+01 -3.1939476274352382e-02 -5.9244380564327914e-01 +5.8958434555100988e-03
-1.0500000000000000e+01 +8.1498732394065900e+00 +0.0000000000000000e+00 -1.0499999379261400e+01 -3.1939544099504377e-02 -5.9244436040794812e-01 +5.8958666433737376e-03
-1.0600000000000000e+01 +8.1498133984568994e+00 +0.0000000000000000e+00 -1.0599999361356600e+01 -3.1939617319425739e-02 -5.9244493053992231e-01 +5.8958898759534023e-03
-1.0699999999999999e+01 +8.1497529902953794e+00 +0.0000000000000000e+00 -1.0699999343110701e+01 -3.1939695228203377e-02 -5.9244551518001520e-01 +5.8959133372922584e-03
-1.0800000000000001e+01 +8.1496920149220404e+00 +0.0000000000000000e+00 -1.0799999324520600e+01 -3.1939777119919570e-02 -5.9244611346902121e-01 +5.8959372114477434e-03
-1.0900000000000000e+01 +8.1496304723332305e+00 +0.0000000000000000e+00 -1.0899999305583000e+01 -3.1939862288653594e-02 -5.9244672454774316e-01 +5.8959616824922579e-03
-1.1000000000000000e+01 +8.1495683625325892e+00 +0.0000000000000000e+00 -1.0999999286294800e+01 -3.1939950028477132e-02 -5.9244734755690454e-01 +5.8959869345125947e-03
-1.1100000000000000e+01 +8.1495056855201309e+00 +0.0000000000000000e+00 -1.1099999266652601e+01 -3.1940039633458907e-02 -5.9244798163723666e-01 +5.8960131516112464e-03
-1.1199999999999999e+01 +8.1494424412958306e+00 +0.0000000000000000e+00 -1.1199999246653300e+01 -3.1940130397663115e-02 -5.9244862592944725e-01 +5.8960405179064417e-03
-1.1300000000000001e+01 +8.1493786298560700e+00 +0.0000000000000000e+00 -1.1299999226293700e+01 -3.1940221615151067e-02 -5.9244927957425186e-01 +5.8960692175328341e-03
-1.1400000000000000e+01 +8.1493142512044905e+00 +0.0000000000000000e+00 -1.1399999205570500e+01 -3.1940312579976517e-02 -5.9244994171228083e-01 +5.8960994346409510e-03
-1.1500000000000000e+01 +8.1492493053447106e+00 +0.0000000000000000e+00 -1.1499999184480499e+01 -3.1940402586188854e-02 -5.9245061148414135e-01 +5.8961313533981725e-03
-1.1600000000000000e+01 +8.1491837922658306e+00 +0.0000000000000000e+00 -1.1599999163020600e+01 -3.1940490927839169e-02 -5.9245128803053193e-01 +5.8961651579903015e-03
-1.1699999999999999e+01 +8.1491177119787608e+00 +0.0000000000000000e+00 -1.1699999141187400e+01 -3.1940576898965019e-02 -5.9245197049194831e-01 +5.8962010326189087e-03
