# multipoles
# s[mm] polynom_b[n=0][T/m^n] polynom_b[n=1][T/m^n] polynom_b[n=2][T/m^n] polynom_b[n=3][T/m^n] polynom_b[n=4][T/m^n] polynom_b[n=5][T/m^n] polynom_b[n=6][T/m^n] 
+0.0000000000000000e+00 -5.6508758460753361e-01 +7.7361111605437083e+00 -9.4259529640664608e-01 -9.2400272258286932e+01 +8.3511173794115384e+03 +3.3240392605598224e+05 -4.3920148872822590e+07 
+1.0000000000000001e-01 -5.6508714524281511e-01 +7.7360873219835815e+00 -9.3666073951205586e-01 -9.1710430844685803e+01 +8.2181786237457945e+03 +3.2817925028801622e+05 -4.3300129681448333e+07 
+2.0000000000000001e-01 -5.6508670456194821e-01 +7.7360630805566686e+00 -9.3130666146495278e-01 -9.0979176633550736e+01 +8.0962787675395830e+03 +3.2362691683522199e+05 -4.2726574938176401e+07 
+2.9999999999999999e-01 -5.6508626317063360e-01 +7.7360386403284682e+00 -9.2649809387422266e-01 -9.0214012191860064e+01 +7.9847191543490117e+03 +3.1879474595910561e+05 -4.2196275468172044e+07 
+4.0000000000000002e-01 -5.6508582167464605e-01 +7.7360142053650813e+00 -9.2220007174537744e-01 -8.9422440124698355e+01 +7.8828011911973954e+03 +3.1373055815191969e+05 -4.1706022386838600e+07 
+5.0000000000000000e-01 -5.6508538067967551e-01 +7.7359899797379503e+00 -9.1837763111246018e-01 -8.8611963212453901e+01 +7.7898263116120906e+03 +3.0848217493332550e+05 -4.1252606949686840e+07 
+5.9999999999999998e-01 -5.6508494079146876e-01 +7.7359661675178799e+00 -9.1499580757742938e-01 -8.7790084237049570e+01 +7.7050959384095422e+03 +3.0309741783706605e+05 -4.0832820350570723e+07 
+6.9999999999999996e-01 -5.6508450261573351e-01 +7.7359429727817384e+00 -9.1201963586616808e-01 -8.6964306173454034e+01 +7.6279114866210475e+03 +2.9762410951661289e+05 -4.0443453766230255e+07 
+8.0000000000000004e-01 -5.6508406675819545e-01 +7.7359205996047278e+00 -9.0941415130581260e-01 -8.6142131957238618e+01 +7.5575743802422458e+03 +2.9211007237679214e+05 -4.0081298409956262e+07 
+9.0000000000000002e-01 -5.6508363382458571e-01 +7.7358992520635139e+00 -9.0714438952490206e-01 -8.5331064576635072e+01 +7.4933860549640131e+03 +2.8660312910284108e+05 -3.9743145565172002e+07 
+1.0000000000000000e+00 -5.6508320442067439e-01 +7.7358791342387700e+00 -9.0517538138005782e-01 -8.4538607148223079e+01 +7.4346478594208020e+03 +2.8115110311924282e+05 -3.9425786113475889e+07 
+1.1000000000000001e+00 -5.6508277915225436e-01 +7.7358604502102795e+00 -9.0347216208873715e-01 -8.3772262767494055e+01 +7.3806612273192977e+03 +2.7580181769070996e+05 -3.9126011350228421e+07 
+1.2000000000000000e+00 -5.6508235862502421e-01 +7.7358434040619208e+00 -9.0199976130858250e-01 -8.3039534647909818e+01 +7.3307274892367932e+03 +2.7060309671690140e+05 -3.8840612090462223e+07 
+1.3000000000000000e+00 -5.6508194344480878e-01 +7.7358281998738558e+00 -9.0072320663775773e-01 -8.2347925903805177e+01 +7.2841479377828291e+03 +2.6560276350485685e+05 -3.8566378978472054e+07 
+1.3999999999999999e+00 -5.6508153421742569e-01 +7.7358150417304996e+00 -8.9960752730096927e-01 -8.1704939763569698e+01 +7.2402239039529431e+03 +2.6084864194896177e+05 -3.8300102868552476e+07 
+1.5000000000000000e+00 -5.6508113154869655e-01 +7.7358041337131116e+00 -8.9861774477497391e-01 -8.1118079361281417e+01 +7.1982565716087784e+03 +2.5638855534630793e+05 -3.8038573923279881e+07 
+1.6000000000000001e+00 -5.6508073604445175e-01 +7.7357956799080618e+00 -8.9771888284715418e-01 -8.0594847977761262e+01 +7.1575471719732695e+03 +2.5227032779349660e+05 -3.7778582551259391e+07 
+1.7000000000000000e+00 -5.6508034831058229e-01 +7.7357898843941619e+00 -8.9687595779664808e-01 -8.0142748656832907e+01 +7.1173967966112159e+03 +2.4854178192119527e+05 -3.7516918515474834e+07 
+1.8000000000000000e+00 -5.6507996895300583e-01 +7.7357869512563733e+00 -8.9605398588335028e-01 -7.9769284623046516e+01 +7.0771065401718579e+03 +2.4525074137325055e+05 -3.7250371616785601e+07 
+1.8999999999999999e+00 -5.6507959857763623e-01 +7.7357870845752963e+00 -8.9521797679777992e-01 -7.9481958943815215e+01 +7.0359773742478037e+03 +2.4244502874817239e+05 -3.6975731088697083e+07 
+2.0000000000000000e+00 -5.6507923779045721e-01 +7.7357904884331363e+00 -8.9433293855473794e-01 -7.9288274731174312e+01 +6.9933102451483719e+03 +2.4017246686020543e+05 -3.6689786079222567e+07 
+2.1000000000000001e+00 -5.6507888710426812e-01 +7.7357972804627995e+00 -8.9336937842980901e-01 -7.9193199000153029e+01 +6.9485485811454473e+03 +2.3846626292479725e+05 -3.6390112206347875e+07 
+2.2000000000000002e+00 -5.6507854665142032e-01 +7.7358072340169235e+00 -8.9231978374028753e-01 -7.9191649741858910e+01 +6.9016947990023191e+03 +2.3730176933984796e+05 -3.6077348854114145e+07 
+2.2999999999999998e+00 -5.6507821646704048e-01 +7.7358200367351460e+00 -8.9118212733353042e-01 -7.9276055477974509e+01 +6.8528882728861299e+03 +2.3664001948806981e+05 -3.5752880669158272e+07 
+2.3999999999999999e+00 -5.6507789658632646e-01 +7.7358353762469179e+00 -8.8995438001821181e-01 -7.9438844453346121e+01 +6.8022683374028866e+03 +2.3644204524626021e+05 -3.5418092113058150e+07 
+2.5000000000000000e+00 -5.6507758704438849e-01 +7.7358529401845102e+00 -8.8863451543427463e-01 -7.9672444991128614e+01 +6.7499743726876968e+03 +2.3666887899615202e+05 -3.5074367843857534e+07 
+2.6000000000000001e+00 -5.6507728787635247e-01 +7.7358724161802490e+00 -8.8722050497747873e-01 -7.9969285439103786e+01 +6.6961457126721343e+03 +2.3728155339818829e+05 -3.4723092293226950e+07 
+2.7000000000000002e+00 -5.6507699911741027e-01 +7.7358934918570892e+00 -8.8571032513353987e-01 -8.0321793870526193e+01 +6.6409217808732410e+03 +2.3824109958701179e+05 -3.4365650302258164e+07 
+2.7999999999999998e+00 -5.6507672080261639e-01 +7.7359158548339817e+00 -8.8410194804251452e-01 -8.0722398265797537e+01 +6.5844419137595023e+03 +2.3950854831699238e+05 -3.4003426287502155e+07 
+2.8999999999999999e+00 -5.6507645296710318e-01 +7.7359391927314780e+00 -8.8239335237075323e-01 -8.1163526654240044e+01 +6.5268455612562129e+03 +2.4104493072521925e+05 -3.3637805179392628e+07 
+3.0000000000000000e+00 -5.6507619564592793e-01 +7.7359631931640491e+00 -8.8058251497449958e-01 -8.1637606904148896e+01 +6.4682721312659960e+03 +2.4281127717169467e+05 -3.3270171688852262e+07 
+3.1000000000000001e+00 -5.6507594887413826e-01 +7.7359875437434811e+00 -8.7866741638449142e-01 -8.2137066824103243e+01 +6.4088610915538356e+03 +2.4476861783037681e+05 -3.2901910785587814e+07 
+3.2000000000000002e+00 -5.6507571268678614e-01 +7.7360119320721372e+00 -8.7664603964207899e-01 -8.2654333960382587e+01 +6.3487519505670307e+03 +2.4687798151739029e+05 -3.2534407614033561e+07 
+3.2999999999999998e+00 -5.6507548711882838e-01 +7.7360360457513142e+00 -8.7451636746596051e-01 -8.3181835842263922e+01 +6.2880841968205332e+03 +2.4910039711940565e+05 -3.2169047187214844e+07 
+3.3999999999999999e+00 -5.6507527220530995e-01 +7.7360595723801096e+00 -8.7227638846503808e-01 -8.3711999958413102e+01 +6.2269974223182962e+03 +2.5139689350067358e+05 -3.1807214988070410e+07 
+3.5000000000000000e+00 -5.6507506798110407e-01 +7.7360821995456313e+00 -8.6992409039604146e-01 -8.4237253457523749e+01 +6.1656311889196186e+03 +2.5372849772903940e+05 -3.1450296316812646e+07 
+3.6000000000000001e+00 -5.6507487448116678e-01 +7.7361036148326772e+00 -8.6745746687216696e-01 -8.4750023450581608e+01 +6.1041251580324652e+03 +2.5605623690250862e+05 -3.1099676916220065e+07 
+3.7000000000000002e+00 -5.6507469174033420e-01 +7.7361235058241684e+00 -8.6487451493668266e-01 -8.5242737004610831e+01 +6.0426190427493557e+03 +2.5834113806203048e+05 -3.0756742735620838e+07 
+3.7999999999999998e+00 -5.6507451979343792e-01 +7.7361415600866792e+00 -8.6217323426276737e-01 -8.5707820741171815e+01 +5.9812525918155734e+03 +2.6054422593213647e+05 -3.0422879854477804e+07 
+3.8999999999999999e+00 -5.6507435867528288e-01 +7.7361574651938056e+00 -8.5935162634785489e-01 -8.6137701496533481e+01 +5.9201655732154923e+03 +2.6262652670414653e+05 -3.0099474400525670e+07 
+4.0000000000000000e+00 -5.6507420842063316e-01 +7.7361709087004096e+00 -8.5640770011208656e-01 -8.6524805594696076e+01 +5.8594978814547785e+03 +2.6454906389465061e+05 -2.9787913060261499e+07 
+4.0999999999999996e+00 -5.6507406891967604e-01 +7.7361816390484117e+00 -8.5334506599735660e-01 -8.6862906479309885e+01 +5.7994225139715581e+03 +2.6627896628186502e+05 -2.9489457616408795e+07 
+4.2000000000000002e+00 -5.6507393948876794e-01 +7.7361896435122883e+00 -8.5019079573330836e-01 -8.7150961161783329e+01 +5.7402690509259783e+03 +2.6780607092106459e+05 -2.9204972334264506e+07 
+4.2999999999999998e+00 -5.6507381930153111e-01 +7.7361949679400333e+00 -8.4697811091482100e-01 -8.7389172027254887e+01 +5.6824124657829580e+03 +2.6912546225787146e+05 -2.8935247360119384e+07 
+4.4000000000000004e+00 -5.6507370753174091e-01 +7.7361976581951097e+00 -8.4374022791942926e-01 -8.7577741908526505e+01 +5.6262276334501630e+03 +2.7023222719427227e+05 -2.8681072361274917e+07 
+4.5000000000000000e+00 -5.6507360335306889e-01 +7.7361977601421428e+00 -8.4051036610320284e-01 -8.7716873667359835e+01 +5.5720894917213018e+03 +2.7112145265758503e+05 -2.8443237312395975e+07 
+4.5999999999999996e+00 -5.6507350593920602e-01 +7.7361953196584903e+00 -8.3732174606534782e-01 -8.7806770529610887e+01 +5.5203730047480112e+03 +2.7178822753276723e+05 -2.8222532309847947e+07 
+4.7000000000000002e+00 -5.6507341446384807e-01 +7.7361903826263454e+00 -8.3420759179170445e-01 -8.7847635860380933e+01 +5.4714532072542661e+03 +2.7222764136025863e+05 -2.8019747791632287e+07 
+4.7999999999999998e+00 -5.6507332810062916e-01 +7.7361829949380310e+00 -8.3120112780803590e-01 -8.7839673308695566e+01 +5.4257051452611186e+03 +2.7243478513514809e+05 -2.7835674240666125e+07 
+4.9000000000000004e+00 -5.6507324602320674e-01 +7.7361732024951699e+00 -8.2833558026165655e-01 -8.7783086793438287e+01 +5.3835039067256048e+03 +2.7240475124987448e+05 -2.7671102357562110e+07 
+5.0000000000000000e+00 -5.6507316740522462e-01 +7.7361610512110515e+00 -8.2564417707861382e-01 -8.7678080560539897e+01 +5.3452246155806733e+03 +2.7213263377987855e+05 -2.7526823005773377e+07 
+5.0999999999999996e+00 -5.6507309142034667e-01 +7.7361465870042645e+00 -8.2316014752923183e-01 -8.7524859005571614e+01 +5.3112424268960376e+03 +2.7161352746196726e+05 -2.7403627198780231e+07 
+5.2000000000000002e+00 -5.6507301724216918e-01 +7.7361298558122353e+00 -8.2091672322885167e-01 -8.7323627062142734e+01 +5.2819325509764767e+03 +2.7084252993028954e+05 -2.7302306227594703e+07 
+5.2999999999999998e+00 -5.6507294404430508e-01 +7.7361109035740743e+00 -8.1894713765175997e-01 -8.7074589704315599e+01 +5.2576702388354133e+03 +2.6981473881661828e+05 -2.7223651576112427e+07 
+5.4000000000000004e+00 -5.6507287100037928e-01 +7.7360897762510987e+00 -8.1728462665514490e-01 -8.6777952542355308e+01 +5.2388307936608644e+03 +2.6852525519235322e+05 -2.7168454979567613e+07 
+5.5000000000000000e+00 -5.6507279728394144e-01 +7.7360665198096754e+00 -8.1596242596415725e-01 -8.6433921323081762e+01 +5.2257895268157099e+03 +2.6696918066846591e+05 -2.7137508224435285e+07 
+5.5999999999999996e+00 -5.6507272206864034e-01 +7.7360411802322204e+00 -8.1501377692459187e-01 -8.6042702249125739e+01 +5.2189218627325672e+03 +2.6514161921713554e+05 -2.7131603634348623e+07 
+5.7000000000000002e+00 -5.6507264452797901e-01 +7.7360138035161734e+00 -8.1447191902847382e-01 -8.5604501946923179e+01 +5.2186032031964314e+03 +2.6303767698703363e+05 -2.7151533442831606e+07 
+5.7999999999999998e+00 -5.6507256383557825e-01 +7.7359844356677305e+00 -8.1437009526108162e-01 -8.5119527284058620e+01 +5.2252090240867465e+03 +2.6065246122228348e+05 -2.7198090237222962e+07 
+5.9000000000000004e+00 -5.6507247916491077e-01 +7.7359531227156797e+00 -8.1474155351209399e-01 -8.4587985776652943e+01 +5.2391149029271901e+03 +2.5798108263116982e+05 -2.7272067093197789e+07 
+5.9999999999999902e+00 -5.6507238968962259e-01 +7.7359199106993701e+00 -8.1561953914660923e-01 -8.4010085229061772e+01 +5.2606963847687493e+03 +2.5501865325447431e+05 -2.7374256954199206e+07 
+6.0999999999999899e+00 -5.6507229482849219e-01 +7.7358848761572201e+00 -8.1702291083677792e-01 -8.3386704047141123e+01 +5.2901535282842488e+03 +2.5176462418526920e+05 -2.7504973024605744e+07 
+6.1999999999999904e+00 -5.6507219499037120e-01 +7.7358482225466929e+00 -8.1891301030938113e-01 -8.2721679277190219e+01 +5.3269881317280478e+03 +2.4823833903637319e+05 -2.7662675608145140e+07 
+6.2999999999999901e+00 -5.6507209083400878e-01 +7.7358101863580613e+00 -8.2123679120014781e-01 -8.2019659659731673e+01 +5.3705284781684122e+03 +2.4446478265280460e+05 -2.7845381956450872e+07 
+6.3999999999999897e+00 -5.6507198301817063e-01 +7.7357710040641274e+00 -8.2394120243690927e-01 -8.1285293480487510e+01 +5.4201027673704984e+03 +2.4046893775333132e+05 -2.8051108953639001e+07 
+6.4999999999999902e+00 -5.6507187220161181e-01 +7.7357309121295623e+00 -8.2697318986255797e-01 -8.0523228848539631e+01 +5.4750391559452919e+03 +2.3627578649739121e+05 -2.8277873323357202e+07 
+6.5999999999999899e+00 -5.6507175904321005e-01 +7.7356901470000707e+00 -8.3027969900680965e-01 -7.9738113366131941e+01 +5.5346658003178891e+03 +2.3191030854619789e+05 -2.8523691809402406e+07 
+6.6999999999999904e+00 -5.6507164420184197e-01 +7.7356489451082124e+00 -8.3380766746640900e-01 -7.8934594307888347e+01 +5.5983107225022022e+03 +2.2739748213774280e+05 -2.8786580566737808e+07 
+6.7999999999999901e+00 -5.6507152833641761e-01 +7.7356075428726259e+00 -8.3750403323173850e-01 -7.8117318600239201e+01 +5.6653019559847680e+03 +2.2276228399530024e+05 -2.9064555819616005e+07 
+6.8999999999999897e+00 -5.6507141210590417e-01 +7.7355661766907504e+00 -8.4131572967998147e-01 -7.7290932605342405e+01 +5.7349674627036857e+03 +2.1802968806207800e+05 -2.9355633502033491e+07 
+6.9999999999999902e+00 -5.6507129616935470e-01 +7.7355250829462783e+00 -8.4518968488485491e-01 -7.6460082350247220e+01 +5.8066351159876740e+03 +2.1322466688835726e+05 -2.9657829165567040e+07 
+7.0999999999999899e+00 -5.6507118118579613e-01 +7.7354844980057154e+00 -8.4907282518368610e-01 -7.5629413415039110e+01 +5.8796327663854918e+03 +2.0837219096056346e+05 -2.9969158287304185e+07 
+7.1999999999999904e+00 -5.6507106781434624e-01 +7.7354446582150000e+00 -8.5291207078436149e-01 -7.4803570853136478e+01 +5.9532881595464023e+03 +2.0349722830545704e+05 -3.0287635884400025e+07 
+7.2999999999999901e+00 -5.6507095671418517e-01 +7.7354057999045382e+00 -8.5665434033706145e-01 -7.3987199318230992e+01 +6.0269290271694772e+03 +1.9862474518058065e+05 -3.0611276956335854e+07 
+7.3999999999999897e+00 -5.6507084854447298e-01 +7.7353681593816139e+00 -8.6024654644390153e-01 -7.3184942873528655e+01 +6.0998829978513186e+03 +1.9377970506587173e+05 -3.0938096052780282e+07 
+7.4999999999999902e+00 -5.6507074396456747e-01 +7.7353319729347243e+00 -8.6363559721732841e-01 -7.2401445086606358e+01 +6.1714776295491265e+03 +1.8898706914879166e+05 -3.1266107433184028e+07 
+7.5999999999999899e+00 -5.6507064363371362e-01 +7.7352974768310743e+00 -8.6676839544301587e-01 -7.1641348982845912e+01 +6.2410403903953929e+03 +1.8427179612274954e+05 -3.1593324971428491e+07 
+7.6999999999999904e+00 -5.6507054821131097e-01 +7.7352649073179736e+00 -8.6959184156926816e-01 -7.0909297080346732e+01 +6.3078987195644922e+03 +1.7965884240799843e+05 -3.1917762452227257e+07 
+7.7999999999999901e+00 -5.6507045835685132e-01 +7.7352345006196854e+00 -8.7205282728187405e-01 -7.0209931304694578e+01 +6.3713799072954307e+03 +1.7517316167354587e+05 -3.2237433009002015e+07 
+7.8999999999999897e+00 -5.6507037472978905e-01 +7.7352064929351041e+00 -8.7409824393364521e-01 -6.9547892906405679e+01 +6.4308112481926701e+03 +1.7083970433345422e+05 -3.2550349834160682e+07 
+7.9999999999999902e+00 -5.6507029798973463e-01 +7.7351811204423937e+00 -8.7567497325473453e-01 -6.8927822656008871e+01 +6.4855198670355085e+03 +1.6668341881452987e+05 -3.2854525358002946e+07 
+8.0999999999999908e+00 -5.6507022866576095e-01 +7.7351585761287218e+00 -8.7674210228756888e-01 -6.8354198348462091e+01 +6.5349336557011920e+03 +1.6272999118157488e+05 -3.3148050833471075e+07 
+8.1999999999999904e+00 -5.6507016677071620e-01 +7.7351388742443437e+00 -8.7730435567179965e-01 -6.7830267521289116e+01 +6.5788545251136493e+03 +1.5900369825625719e+05 -3.3429262343413588e+07 
+8.2999999999999901e+00 -5.6507011218942693e-01 +7.7351219827902407e+00 -8.7737708394541558e-01 -6.7358830883192510e+01 +6.6171694243051697e+03 +1.5552740467198717e+05 -3.3696528749845602e+07 
+8.3999999999999897e+00 -5.6507006480674615e-01 +7.7351078697763409e+00 -8.7697563566597314e-01 -6.6942689255073020e+01 +6.6497652590748903e+03 +1.5232397493164771e+05 -3.3948218722852342e+07 
+8.4999999999999893e+00 -5.6507002450760591e-01 +7.7350965032242591e+00 -8.7611534931386248e-01 -6.6584643630807307e+01 +6.6765287294110467e+03 +1.4941627377329030e+05 -3.4182699951535247e+07 
+8.5999999999999908e+00 -5.6506999117691237e-01 +7.7350878511643328e+00 -8.7481155672684530e-01 -6.6287495105068217e+01 +6.6973464007073071e+03 +1.4682716577072721e+05 -3.4398339499293461e+07 
+8.6999999999999904e+00 -5.6506996469959414e-01 +7.7350818816363960e+00 -8.7307958709053157e-01 -6.6054044875762997e+01 +6.7121047785785886e+03 +1.4457951527893983e+05 -3.4593504160446040e+07 
+8.7999999999999794e+00 -5.6506994496063467e-01 +7.7350785626944942e+00 -8.7093475950139276e-01 -6.5887094395932152e+01 +6.7206901656565069e+03 +1.4269618735439915e+05 -3.4766559772289276e+07 
+8.8999999999999808e+00 -5.6506993184507603e-01 +7.7350778623991578e+00 -8.6839238582730538e-01 -6.5789445119175838e+01 +6.7229887169096492e+03 +1.4120004617239171e+05 -3.4915871483167335e+07 
+8.9999999999999805e+00 -5.6506992523792010e-01 +7.7350797488276779e+00 -8.6546777219973436e-01 -6.5763898815948579e+01 +6.7188864662030301e+03 +1.4011395690060232e+05 -3.5039803875236072e+07 
+9.0999999999999801e+00 -5.6506992502421949e-01 +7.7350841900676617e+00 -8.6217621810236034e-01 -6.5813257368519842e+01 +6.7082693076801579e+03 +1.3946078445680081e+05 -3.5136720873334080e+07 
+9.1999999999999797e+00 -5.6506993108906933e-01 +7.7350911542157288e+00 -8.5853301438920138e-01 -6.5940322724226405e+01 +6.6910229618459971e+03 +1.3926339319016147e+05 -3.5204985593737103e+07 
+9.2999999999999794e+00 -5.6506994331762828e-01 +7.7351006093870023e+00 -8.5455344345645368e-01 -6.6147897186024196e+01 +6.6670329761405173e+03 +1.3954464860813925e+05 -3.5242960342200808e+07 
+9.3999999999999808e+00 -5.6506996159501399e-01 +7.7351125237082181e+00 -8.5025278150164152e-01 -6.6438783186200453e+01 +6.6361847642509920e+03 +1.4032741596599913e+05 -3.5249006791758172e+07 
+9.4999999999999805e+00 -5.6506998580641177e-01 +7.7351268653157321e+00 -8.4564629600944652e-01 -6.6815783225597912e+01 +6.5983635634288921e+03 +1.4163455990113202e+05 -3.5221485794523962e+07 
+9.5999999999999801e+00 -5.6507001583703698e-01 +7.7351436023671019e+00 -8.4074924640426096e-01 -6.7281700219533406e+01 +6.5534544433137171e+03 +1.4348894645782784e+05 -3.5158757414495759e+07 
+9.6999999999999797e+00 -5.6507005157216439e-01 +7.7351627030274948e+00 -8.3557688410181463e-01 -6.7839337092236335e+01 +6.5013423080866169e+03 +1.4591344068992173e+05 -3.5059180942342348e+07 
+9.7999999999999794e+00 -5.6507009289704324e-01 +7.7351841354806679e+00 -8.3014445177333096e-01 -6.8491497074452198e+01 +6.4419118782993855e+03 +1.4893090830970078e+05 -3.4921114799867116e+07 
+9.8999999999999808e+00 -5.6507013969698283e-01 +7.7352078679269205e+00 -8.2446718388616824e-01 -6.9240983662457495e+01 +6.3750477056185673e+03 +1.5256421549689199e+05 -3.4742916621754557e+07 
+9.9999999999999805e+00 -5.6507019185735985e-01 +7.7352338685744337e+00 -8.1856030606406616e-01 -7.0090600262008451e+01 +6.3006341737912808e+03 +1.5683622674935916e+05 -3.4522943287285127e+07 
+1.0100000000000000e+01 -5.6507024926478955e-01 +7.7352620694026024e+00 -8.1244362210346910e-01 -7.1040868729137458e+01 +6.2187515124598203e+03 +1.6175492408367229e+05 -3.4260718361796483e+07 
