# field on trajectory
# s[mm] rx[mm] ry[mm] rz[mm] bx[T] by[T] bz[T]
0.0000000000000000e+00 +8.1649999999999991e+00 +0.0000000000000000e+00 +0.0000000000000000e+00 -2.9783173152435952e-02 -5.6502674847182799e-01 +5.7530708050315058e-03
-1.0000000000000001e-01 +8.1649997167501756e+00 +0.0000000000000000e+00 -9.9999999999465142e-02 -2.9783371398373771e-02 -5.6502740778022897e-01 +5.7529122820870453e-03
-2.0000000000000001e-01 +8.1649988670002607e+00 +0.0000000000000000e+00 -1.9999999999572107e-01 -2.9783566527355958e-02 -5.6502808398586613e-01 +5.7527488581722184e-03
-3.0000000000000004e-01 +8.1649974507495777e+00 +0.0000000000000000e+00 -2.9999999998555854e-01 -2.9783758242330295e-02 -5.6502877600791268e-01 +5.7525806349256869e-03
-4.0000000000000002e-01 +8.1649954679974321e+00 +0.0000000000000000e+00 -3.9999999996576829e-01 -2.9783946246239233e-02 -5.6502948276556109e-01 +5.7524077139854361e-03
-5.0000000000000000e-01 +8.1649929187431152e+00 +0.0000000000000000e+00 -4.9999999993314109e-01 -2.9784130242020021e-02 -5.6503020317802077e-01 +5.7522301969890992e-03
-5.9999999999999998e-01 +8.1649898029859056e+00 +0.0000000000000000e+00 -5.9999999988446762e-01 -2.9784309932604641e-02 -5.6503093616451694e-01 +5.7520481855742756e-03
-6.9999999999999996e-01 +8.1649861207250680e+00 +0.0000000000000000e+00 -6.9999999981653871e-01 -2.9784485020919890e-02 -5.6503168064428833e-01 +5.7518617813788649e-03
-7.9999999999999993e-01 +8.1649818719598564e+00 +0.0000000000000000e+00 -7.9999999972614499e-01 -2.9784655209887392e-02 -5.6503243553658589e-01 +5.7516710860413822e-03
-8.9999999999999991e-01 +8.1649770566895139e+00 +0.0000000000000000e+00 -8.9999999961007715e-01 -2.9784820202423512e-02 -5.6503319976067068e-01 +5.7514762012012798e-03
-9.9999999999999989e-01 +8.1649716749132750e+00 +0.0000000000000000e+00 -9.9999999946512586e-01 -2.9784979701439552e-02 -5.6503397223581187e-01 +5.7512772284992785e-03
-1.0999999999999999e+00 +8.1649657266303652e+00 +0.0000000000000000e+00 -1.0999999992880818e+00 -2.9785133409841617e-02 -5.6503475188128538e-01 +5.7510742695776858e-03
-1.2000000000000000e+00 +8.1649592118400030e+00 +0.0000000000000000e+00 -1.1999999990757355e+00 -2.9785281030530741e-02 -5.6503553761637182e-01 +5.7508674260807243e-03
-1.3000000000000000e+00 +8.1649521305414012e+00 +0.0000000000000000e+00 -1.2999999988248778e+00 -2.9785422266402833e-02 -5.6503632836035400e-01 +5.7506567996548465e-03
-1.4000000000000001e+00 +8.1649444827337678e+00 +0.0000000000000000e+00 -1.3999999985322993e+00 -2.9785556820348707e-02 -5.6503712303251741e-01 +5.7504424919490671e-03
-1.5000000000000002e+00 +8.1649362684163052e+00 +0.0000000000000000e+00 -1.4999999981947905e+00 -2.9785684395254166e-02 -5.6503792055214486e-01 +5.7502246046152788e-03
-1.6000000000000003e+00 +8.1649274875882156e+00 +0.0000000000000000e+00 -1.5999999978091419e+00 -2.9785804693999926e-02 -5.6503871983851861e-01 +5.7500032393085852e-03
-1.7000000000000004e+00 +8.1649181402486963e+00 +0.0000000000000000e+00 -1.6999999973721445e+00 -2.9785917419461728e-02 -5.6503951981091505e-01 +5.7497784976876156e-03
-1.8000000000000005e+00 +8.1649082263969461e+00 +0.0000000000000000e+00 -1.7999999968805884e+00 -2.9786022274510247e-02 -5.6504031938860511e-01 +5.7495504814148515e-03
-1.9000000000000006e+00 +8.1648977460321657e+00 +0.0000000000000000e+00 -1.8999999963312644e+00 -2.9786118962011252e-02 -5.6504111749085228e-01 +5.7493192921569481e-03
-2.0000000000000004e+00 +8.1648866991535538e+00 +0.0000000000000000e+00 -1.9999999957209631e+00 -2.9786207184825490e-02 -5.6504191303690887e-01 +5.7490850315850637e-03
-2.1000000000000005e+00 +8.1648750857603130e+00 +0.0000000000000000e+00 -2.0999999950464749e+00 -2.9786286751128051e-02 -5.6504270508175081e-01 +5.7488477802191901e-03
-2.2000000000000006e+00 +8.1648629058516491e+00 +0.0000000000000000e+00 -2.1999999943045903e+00 -2.9786357890371176e-02 -5.6504349322327052e-01 +5.7486075339586691e-03
-2.3000000000000007e+00 +8.1648501594267735e+00 +0.0000000000000000e+00 -2.2999999934920998e+00 -2.9786420937335887e-02 -5.6504427719507710e-01 +5.7483642675470320e-03
-2.4000000000000008e+00 +8.1648368464848993e+00 +0.0000000000000000e+00 -2.3999999926057938e+00 -2.9786476226815583e-02 -5.6504505673075944e-01 +5.7481179557272487e-03
-2.5000000000000009e+00 +8.1648229670252466e+00 +0.0000000000000000e+00 -2.4999999916424631e+00 -2.9786524093617817e-02 -5.6504583156388533e-01 +5.7478685732414124e-03
-2.6000000000000010e+00 +8.1648085210470391e+00 +0.0000000000000000e+00 -2.5999999905988980e+00 -2.9786564872565997e-02 -5.6504660142799767e-01 +5.7476160948304374e-03
-2.7000000000000011e+00 +8.1647935085495043e+00 +0.0000000000000000e+00 -2.6999999894718889e+00 -2.9786598898501205e-02 -5.6504736605661410e-01 +5.7473604952337455e-03
-2.8000000000000012e+00 +8.1647779295318763e+00 +0.0000000000000000e+00 -2.7999999882582260e+00 -2.9786626506283879e-02 -5.6504812518322400e-01 +5.7471017491889428e-03
-2.9000000000000012e+00 +8.1647617839933950e+00 +0.0000000000000000e+00 -2.8999999869547004e+00 -2.9786648030795549e-02 -5.6504887854128605e-01 +5.7468398314315253e-03
-3.0000000000000013e+00 +8.1647450719333055e+00 +0.0000000000000000e+00 -2.9999999855581021e+00 -2.9786663806940686e-02 -5.6504962586422791e-01 +5.7465747166945604e-03
-3.1000000000000014e+00 +8.1647277933508597e+00 +0.0000000000000000e+00 -3.0999999840652213e+00 -2.9786674169648308e-02 -5.6505036688544164e-01 +5.7463063797083625e-03
-3.2000000000000015e+00 +8.1647099482453154e+00 +0.0000000000000000e+00 -3.1999999824728484e+00 -2.9786679453873872e-02 -5.6505110133828429e-01 +5.7460347952002083e-03
-3.3000000000000016e+00 +8.1646915366159352e+00 +0.0000000000000000e+00 -3.2999999807777742e+00 -2.9786679994600874e-02 -5.6505182895607287e-01 +5.7457599378939973e-03
-3.4000000000000017e+00 +8.1646725584619908e+00 +0.0000000000000000e+00 -3.3999999789767887e+00 -2.9786676126842757e-02 -5.6505254947208550e-01 +5.7454817825099650e-03
-3.5000000000000018e+00 +8.1646530137827611e+00 +0.0000000000000000e+00 -3.4999999770666825e+00 -2.9786668185644509e-02 -5.6505326261955680e-01 +5.7452003037643563e-03
-3.6000000000000019e+00 +8.1646329025775319e+00 +0.0000000000000000e+00 -3.5999999750442457e+00 -2.9786656506084499e-02 -5.6505396813167641e-01 +5.7449154763691123e-03
-3.7000000000000020e+00 +8.1646122248455963e+00 +0.0000000000000000e+00 -3.6999999729062689e+00 -2.9786641423276205e-02 -5.6505466574158769e-01 +5.7446272750315717e-03
-3.8000000000000020e+00 +8.1645909805862544e+00 +0.0000000000000000e+00 -3.7999999706495422e+00 -2.9786623272369955e-02 -5.6505535518238537e-01 +5.7443356744541511e-03
-3.9000000000000021e+00 +8.1645691697988170e+00 +0.0000000000000000e+00 -3.8999999682708562e+00 -2.9786602388554684e-02 -5.6505603618711264e-01 +5.7440406493340359e-03
-4.0000000000000018e+00 +8.1645467924826018e+00 +0.0000000000000000e+00 -3.9999999657670009e+00 -2.9786579107059674e-02 -5.6505670848876055e-01 +5.7437421743628736e-03
-4.1000000000000014e+00 +8.1645238486369358e+00 +0.0000000000000000e+00 -4.0999999631347670e+00 -2.9786553752800319e-02 -5.6505737197448558e-01 +5.7434402278007763e-03
-4.2000000000000011e+00 +8.1645003382611527e+00 +0.0000000000000000e+00 -4.1999999603709446e+00 -2.9786526609290858e-02 -5.6505802714830011e-01 +5.7431348022010517e-03
-4.3000000000000007e+00 +8.1644762613545989e+00 +0.0000000000000000e+00 -4.2999999574723233e+00 -2.9786497949675528e-02 -5.6505867466844828e-01 +5.7428258936905391e-03
-4.4000000000000004e+00 +8.1644516179166242e+00 +0.0000000000000000e+00 -4.3999999544356942e+00 -2.9786468047077325e-02 -5.6505931519319308e-01 +5.7425134983958371e-03
-4.5000000000000000e+00 +8.1644264079465874e+00 +0.0000000000000000e+00 -4.4999999512578475e+00 -2.9786437174596080e-02 -5.6505994938081849e-01 +5.7421976124433435e-03
-4.5999999999999996e+00 +8.1644006314438524e+00 +0.0000000000000000e+00 -4.5999999479355731e+00 -2.9786405605306262e-02 -5.6506057788963193e-01 +5.7418782319592996e-03
-4.6999999999999993e+00 +8.1643742884077923e+00 +0.0000000000000000e+00 -4.6999999444656613e+00 -2.9786373612255054e-02 -5.6506120137796712e-01 +5.7415553530698622e-03
-4.7999999999999989e+00 +8.1643473788377801e+00 +0.0000000000000000e+00 -4.7999999408449030e+00 -2.9786341468460136e-02 -5.6506182050418508e-01 +5.7412289719011309e-03
-4.8999999999999986e+00 +8.1643199027331974e+00 +0.0000000000000000e+00 -4.8999999370700875e+00 -2.9786309446907817e-02 -5.6506243592667837e-01 +5.7408990845792254e-03
-4.9999999999999982e+00 +8.1642918600934280e+00 +0.0000000000000000e+00 -4.9999999331380058e+00 -2.9786277820550773e-02 -5.6506304830387166e-01 +5.7405656872303139e-03
-5.0999999999999979e+00 +8.1642632509178590e+00 +0.0000000000000000e+00 -5.0999999290454472e+00 -2.9786246862306114e-02 -5.6506365829422556e-01 +5.7402287759806834e-03
-5.1999999999999975e+00 +8.1642340752058793e+00 +0.0000000000000000e+00 -5.1999999247892026e+00 -2.9786216845053320e-02 -5.6506426655623809e-01 +5.7398883469567735e-03
-5.2999999999999972e+00 +8.1642043329568796e+00 +0.0000000000000000e+00 -5.2999999203660622e+00 -2.9786188041632102e-02 -5.6506487374844749e-01 +5.7395443962852460e-03
-5.3999999999999968e+00 +8.1641740241702525e+00 +0.0000000000000000e+00 -5.3999999157728160e+00 -2.9786160724840416e-02 -5.6506548052943406e-01 +5.7391969200930289e-03
-5.4999999999999964e+00 +8.1641431488453904e+00 +0.0000000000000000e+00 -5.4999999110062534e+00 -2.9786135167432348e-02 -5.6506608755782295e-01 +5.7388459145073555e-03
-5.5999999999999961e+00 +8.1641117069816858e+00 +0.0000000000000000e+00 -5.5999999060631653e+00 -2.9786111642116080e-02 -5.6506669549228705e-01 +5.7384913756558424e-03
-5.6999999999999957e+00 +8.1640796985785293e+00 +0.0000000000000000e+00 -5.6999999009403419e+00 -2.9786090421551833e-02 -5.6506730499154789e-01 +5.7381332996665193e-03
-5.7999999999999954e+00 +8.1640471236353118e+00 +0.0000000000000000e+00 -5.7999998956345733e+00 -2.9786071778349788e-02 -5.6506791671437984e-01 +5.7377716826678901e-03
-5.8999999999999950e+00 +8.1640139821514204e+00 +0.0000000000000000e+00 -5.8999998901426496e+00 -2.9786055985068012e-02 -5.6506853131961043e-01 +5.7374065207889818e-03
-5.9999999999999947e+00 +8.1639802741262404e+00 +0.0000000000000000e+00 -5.9999998844613609e+00 -2.9786043314210416e-02 -5.6506914946612508e-01 +5.7370378101593983e-03
-6.0999999999999943e+00 +8.1639459995591519e+00 +0.0000000000000000e+00 -6.0999998785874974e+00 -2.9786033932278674e-02 -5.6506977178536189e-01 +5.7366655683218949e-03
-6.1999999999999940e+00 +8.1639111584495332e+00 +0.0000000000000000e+00 -6.1999998725178491e+00 -2.9786027581953669e-02 -5.6507039879878751e-01 +5.7362898984710314e-03
-6.2999999999999936e+00 +8.1638757507967572e+00 +0.0000000000000000e+00 -6.2999998662492063e+00 -2.9786023899973472e-02 -5.6507103100039013e-01 +5.7359109252167117e-03
-6.3999999999999932e+00 +8.1638397766001898e+00 +0.0000000000000000e+00 -6.3999998597783581e+00 -2.9786022523086458e-02 -5.6507166888418336e-01 +5.7355287731718418e-03
-6.4999999999999929e+00 +8.1638032358591932e+00 +0.0000000000000000e+00 -6.4999998531020955e+00 -2.9786023088052019e-02 -5.6507231294420679e-01 +5.7351435669524354e-03
-6.5999999999999925e+00 +8.1637661285731227e+00 +0.0000000000000000e+00 -6.5999998462172078e+00 -2.9786025231641363e-02 -5.6507296367452742e-01 +5.7347554311777847e-03
-6.6999999999999922e+00 +8.1637284547413262e+00 +0.0000000000000000e+00 -6.6999998391204860e+00 -2.9786028590638149e-02 -5.6507362156923835e-01 +5.7343644904705570e-03
-6.7999999999999918e+00 +8.1636902143631467e+00 +0.0000000000000000e+00 -6.7999998318087194e+00 -2.9786032801839325e-02 -5.6507428712246244e-01 +5.7339708694569662e-03
-6.8999999999999915e+00 +8.1636514074379178e+00 +0.0000000000000000e+00 -6.8999998242786980e+00 -2.9786037502055829e-02 -5.6507496082835063e-01 +5.7335746927668872e-03
-6.9999999999999911e+00 +8.1636120339649647e+00 +0.0000000000000000e+00 -6.9999998165272119e+00 -2.9786042328113348e-02 -5.6507564318108461e-01 +5.7331760850339985e-03
-7.0999999999999908e+00 +8.1635720939436052e+00 +0.0000000000000000e+00 -7.0999998085510514e+00 -2.9786046916853035e-02 -5.6507633467487617e-01 +5.7327751708959197e-03
-7.1999999999999904e+00 +8.1635315873731464e+00 +0.0000000000000000e+00 -7.1999998003470065e+00 -2.9786050905132293e-02 -5.6507703580396929e-01 +5.7323720749943435e-03
-7.2999999999999901e+00 +8.1634905142528869e+00 +0.0000000000000000e+00 -7.2999997919118664e+00 -2.9786053929825470e-02 -5.6507774706263914e-01 +5.7319669219751766e-03
-7.3999999999999897e+00 +8.1634488745821141e+00 +0.0000000000000000e+00 -7.3999997832424214e+00 -2.9786055627824652e-02 -5.6507846894519553e-01 +5.7315598364886707e-03
-7.4999999999999893e+00 +8.1634066683601070e+00 +0.0000000000000000e+00 -7.4999997743354614e+00 -2.9786055636040386e-02 -5.6507920194598082e-01 +5.7311509431895594e-03
-7.5999999999999890e+00 +8.1633638955861318e+00 +0.0000000000000000e+00 -7.5999997651877766e+00 -2.9786053591402416e-02 -5.6507994655937266e-01 +5.7307403667371951e-03
-7.6999999999999886e+00 +8.1633205562594426e+00 +0.0000000000000000e+00 -7.6999997557961564e+00 -2.9786049130860481e-02 -5.6508070327978455e-01 +5.7303282317956884e-03
-7.7999999999999883e+00 +8.1632766503792826e+00 +0.0000000000000000e+00 -7.7999997461573907e+00 -2.9786041891384972e-02 -5.6508147260166508e-01 +5.7299146630340322e-03
-7.8999999999999879e+00 +8.1632321779448809e+00 +0.0000000000000000e+00 -7.8999997362682697e+00 -2.9786031509967777e-02 -5.6508225501950105e-01 +5.7294997851262512e-03
-7.9999999999999876e+00 +8.1631871389554558e+00 +0.0000000000000000e+00 -7.9999997261255826e+00 -2.9786017623622971e-02 -5.6508305102781686e-01 +5.7290837227515221e-03
-8.0999999999999872e+00 +8.1631415334102098e+00 +0.0000000000000000e+00 -8.0999997157261188e+00 -2.9786000085369656e-02 -5.6508386081855200e-01 +5.7286666198440818e-03
-8.1999999999999869e+00 +8.1630953613083328e+00 +0.0000000000000000e+00 -8.1999997050666700e+00 -2.9785979612177903e-02 -5.6508468337316109e-01 +5.7282486973385446e-03
-8.2999999999999865e+00 +8.1630486226490007e+00 +0.0000000000000000e+00 -8.2999996941440237e+00 -2.9785957137005367e-02 -5.6508551737045098e-01 +5.7278301954121601e-03
-8.3999999999999861e+00 +8.1630013174313802e+00 +0.0000000000000000e+00 -8.3999996829549719e+00 -2.9785933592809656e-02 -5.6508636148920144e-01 +5.7274113542332642e-03
-8.4999999999999858e+00 +8.1629534456546260e+00 +0.0000000000000000e+00 -8.4999996714963029e+00 -2.9785909912548314e-02 -5.6508721440816434e-01 +5.7269924139610228e-03
-8.5999999999999854e+00 +8.1629050073178853e+00 +0.0000000000000000e+00 -8.5999996597648067e+00 -2.9785887029178861e-02 -5.6508807480606282e-01 +5.7265736147451120e-03
-8.6999999999999851e+00 +8.1628560024202965e+00 +0.0000000000000000e+00 -8.6999996477572719e+00 -2.9785865875658710e-02 -5.6508894136158994e-01 +5.7261551967254416e-03
-8.7999999999999847e+00 +8.1628064309609929e+00 +0.0000000000000000e+00 -8.7999996354704901e+00 -2.9785847384945191e-02 -5.6508981275340675e-01 +5.7257374000318469e-03
-8.8999999999999844e+00 +8.1627562929391022e+00 +0.0000000000000000e+00 -8.8999996229012499e+00 -2.9785832489995535e-02 -5.6509068766014259e-01 +5.7253204647838094e-03
-8.9999999999999840e+00 +8.1627055883537487e+00 +0.0000000000000000e+00 -8.9999996100463413e+00 -2.9785822123766844e-02 -5.6509156476039180e-01 +5.7249046310901492e-03
-9.0999999999999837e+00 +8.1626543172040549e+00 +0.0000000000000000e+00 -9.0999995969025527e+00 -2.9785817219216099e-02 -5.6509244273271486e-01 +5.7244901390487426e-03
-9.1999999999999833e+00 +8.1626024794891414e+00 +0.0000000000000000e+00 -9.1999995834666741e+00 -2.9785818709300114e-02 -5.6509332025563586e-01 +5.7240772287462209e-03
-9.2999999999999829e+00 +8.1625500752081326e+00 +0.0000000000000000e+00 -9.2999995697354958e+00 -2.9785827526975530e-02 -5.6509419600764099e-01 +5.7236661402576740e-03
-9.3999999999999826e+00 +8.1624971043601509e+00 +0.0000000000000000e+00 -9.3999995557058078e+00 -2.9785844605198779e-02 -5.6509506866717818e-01 +5.7232571136463664e-03
-9.4999999999999822e+00 +8.1624435669443223e+00 +0.0000000000000000e+00 -9.4999995413743985e+00 -2.9785870876926104e-02 -5.6509593691265569e-01 +5.7228503889634359e-03
-9.5999999999999819e+00 +8.1623894629597782e+00 +0.0000000000000000e+00 -9.5999995267380580e+00 -2.9785907275113498e-02 -5.6509679942244095e-01 +5.7224462062475997e-03
-9.6999999999999815e+00 +8.1623347924056571e+00 +0.0000000000000000e+00 -9.6999995117935764e+00 -2.9785954732716741e-02 -5.6509765487485897e-01 +5.7220448055248646e-03
-9.7999999999999812e+00 +8.1622795552811027e+00 +0.0000000000000000e+00 -9.7999994965377422e+00 -2.9786014182691219e-02 -5.6509850194819167e-01 +5.7216464268082237e-03
-9.8999999999999808e+00 +8.1622237515852678e+00 +0.0000000000000000e+00 -9.8999994809673453e+00 -2.9786086557992128e-02 -5.6509933932067624e-01 +5.7212513100973724e-03
-9.9999999999999805e+00 +8.1621673813173139e+00 +0.0000000000000000e+00 -9.9999994650791741e+00 -2.9786172791574285e-02 -5.6510016567050458e-01 +5.7208596953784120e-03
-1.0099999999999980e+01 +8.1621104444764150e+00 +0.0000000000000000e+00 -1.0099999448870021e+01 -2.9786273477647320e-02 -5.6510097997171449e-01 +5.7204717453069225e-03
-1.0199999999999980e+01 +8.1620529410617557e+00 +0.0000000000000000e+00 -1.0199999432336671e+01 -2.9786387855411819e-02 -5.6510178238188968e-01 +5.7200873132607624e-03
-1.0299999999999979e+01 +8.1619948710725350e+00 +0.0000000000000000e+00 -1.0299999415475918e+01 -2.9786514825290961e-02 -5.6510257335446845e-01 +5.7197061753062554e-03
-1.0399999999999979e+01 +8.1619362345079605e+00 +0.0000000000000000e+00 -1.0399999398284550e+01 -2.9786653287683807e-02 -5.6510335334284134e-01 +5.7193281075195550e-03
-1.0499999999999979e+01 +8.1618770313672524e+00 +0.0000000000000000e+00 -1.0499999380759355e+01 -2.9786802142964714e-02 -5.6510412280034938e-01 +5.7189528859869221e-03
-1.0599999999999978e+01 +8.1618172616496398e+00 +0.0000000000000000e+00 -1.0599999362897124e+01 -2.9786960291482780e-02 -5.6510488218028343e-01 +5.7185802868050381e-03
-1.0699999999999978e+01 +8.1617569253543643e+00 +0.0000000000000000e+00 -1.0699999344694646e+01 -2.9787126633561218e-02 -5.6510563193588159e-01 +5.7182100860812806e-03
-1.0799999999999978e+01 +8.1616960224806760e+00 +0.0000000000000000e+00 -1.0799999326148711e+01 -2.9787300069496928e-02 -5.6510637252033102e-01 +5.7178420599340272e-03
-1.0899999999999977e+01 +8.1616345530278345e+00 +0.0000000000000000e+00 -1.0899999307256108e+01 -2.9787479499559760e-02 -5.6510710438676270e-01 +5.7174759844929408e-03
-1.0999999999999977e+01 +8.1615725169951077e+00 +0.0000000000000000e+00 -1.0999999288013626e+01 -2.9787663823992089e-02 -5.6510782798825432e-01 +5.7171116358992764e-03
-1.1099999999999977e+01 +8.1615099143817726e+00 +0.0000000000000000e+00 -1.1099999268418054e+01 -2.9787851943008183e-02 -5.6510854377782638e-01 +5.7167487903061571e-03
-1.1199999999999976e+01 +8.1614467451871135e+00 +0.0000000000000000e+00 -1.1199999248466183e+01 -2.9788042756793653e-02 -5.6510925220844210e-01 +5.7163872238788866e-03
-1.1299999999999976e+01 +8.1613830094104216e+00 +0.0000000000000000e+00 -1.1299999228154801e+01 -2.9788235165504908e-02 -5.6510995373300654e-01 +5.7160267127952255e-03
-1.1399999999999975e+01 +8.1613187070509952e+00 +0.0000000000000000e+00 -1.1399999207480699e+01 -2.9788428069268555e-02 -5.6511064880436412e-01 +5.7156670332456968e-03
-1.1499999999999975e+01 +8.1612538381081396e+00 +0.0000000000000000e+00 -1.1499999186440665e+01 -2.9788620368180883e-02 -5.6511133787529999e-01 +5.7153079614338789e-03
-1.1599999999999975e+01 +8.1611884025811676e+00 +0.0000000000000000e+00 -1.1599999165031488e+01 -2.9788810962307271e-02 -5.6511202139853600e-01 +5.7149492735766921e-03
-1.1699999999999974e+01 +8.1611224004693934e+00 +0.0000000000000000e+00 -1.1699999143249958e+01 -2.9788998751681645e-02 -5.6511269982673096e-01 +5.7145907459047046e-03
