# multipoles
# s[mm] polynom_b[n=0][T/m^n] polynom_b[n=1][T/m^n] polynom_b[n=2][T/m^n] polynom_b[n=3][T/m^n] polynom_b[n=4][T/m^n] polynom_b[n=5][T/m^n] polynom_b[n=6][T/m^n] 
-0.0000000000000000e+00 -5.6512328391546240e-01 +7.7422044656323896e+00 -5.3713189926894145e-01 +2.8593859548828274e+01 +7.6409920354181768e+03 -2.8140978139318700e+05 -3.9562243368928343e+07 
-1.0000000000000001e-01 -5.6512394111909126e-01 +7.7421979270431764e+00 -5.3002184533871832e-01 +2.8580689640765730e+01 +7.5575329234789579e+03 -2.7996960672780074e+05 -3.9293164467429504e+07 
-2.0000000000000001e-01 -5.6512460945817145e-01 +7.7421950770249239e+00 -5.2234998322154180e-01 +2.8443858839783811e+01 +7.4647127811379487e+03 -2.7784667350181099e+05 -3.8981264479406774e+07 
-2.9999999999999999e-01 -5.6512528816591745e-01 +7.7421958194652234e+00 -5.1416592349712620e-01 +2.8190929249335142e+01 +7.3632156367227099e+03 -2.7508994085544435e+05 -3.8629302065121077e+07 
-4.0000000000000002e-01 -5.6512597647566942e-01 +7.7422000582506421e+00 -5.0551927346236225e-01 +2.7829463007499601e+01 +7.2537254604899417e+03 -2.7174836815974582e+05 -3.8240035626787044e+07 
-5.0000000000000000e-01 -5.6512667362070890e-01 +7.7422076972633693e+00 -4.9645963791379111e-01 +2.7367022363737355e+01 +7.1369261852288410e+03 -2.6787091539871972e+05 -3.7816223419412524e+07 
-5.9999999999999998e-01 -5.6512737883436936e-01 +7.7422186403894333e+00 -4.8703662221562627e-01 +2.6811169471238017e+01 +7.0135017557964684e+03 -2.6350654205524368e+05 -3.7360623760932185e+07 
-6.9999999999999996e-01 -5.6512809134993847e-01 +7.7422327915095828e+00 -4.7729983096092410e-01 +2.6169466629724116e+01 +6.8841361096600212e+03 -2.5870420845863214e+05 -3.6875994955190696e+07 
-8.0000000000000004e-01 -5.6512881040075458e-01 +7.7422500545094728e+00 -4.6729886635996770e-01 +2.5449476002846456e+01 +6.7495131445565712e+03 -2.5351287418385711e+05 -3.6365095131526813e+07 
-9.0000000000000002e-01 -5.6512953522017495e-01 +7.7422703332734963e+00 -4.5708332901512749e-01 +2.4658759817039389e+01 +6.6103167327973770e+03 -2.4798149926003561e+05 -3.5830682310122602e+07 
-1.0000000000000000e+00 -5.6513026504153785e-01 +7.7422935316886266e+00 -4.4670282276056145e-01 +2.3804880213835965e+01 +6.4672308135880039e+03 -2.4215904320576636e+05 -3.5275514839282341e+07 
-1.1000000000000001e+00 -5.6513099909827225e-01 +7.7423195536428624e+00 -4.3620694814191874e-01 +2.2895399338305111e+01 +6.3209392698062202e+03 -2.3609446567499131e+05 -3.4702350810727395e+07 
-1.2000000000000000e+00 -5.6513173662364358e-01 +7.7423483030234390e+00 -4.2564530948936291e-01 +2.1937879369169671e+01 +6.1721260610127692e+03 -2.2983672656775109e+05 -3.4113948686165951e+07 
-1.3000000000000000e+00 -5.6513247685104384e-01 +7.7423796837253498e+00 -4.1506751038795930e-01 +2.0939882287443560e+01 +6.0214751391472237e+03 -2.2343478472663224e+05 -3.3513066901996311e+07 
-1.3999999999999999e+00 -5.6513321901387825e-01 +7.7424135996403756e+00 -4.0452315427981428e-01 +1.9908970187602065e+01 +5.8696704571729870e+03 -2.1693759973263490e+05 -3.2902463896176714e+07 
-1.5000000000000000e+00 -5.6513396234547808e-01 +7.7424499546680341e+00 -3.9406184822355655e-01 +1.8852704968148146e+01 +5.7173960435462404e+03 -2.1039413012567160e+05 -3.2284898472834479e+07 
-1.6000000000000001e+00 -5.6513470607921401e-01 +7.7424886527070997e+00 -3.8373319917346660e-01 +1.7778648587533738e+01 +5.5653359302623703e+03 -2.0385333491702564e+05 -3.1663129455224726e+07 
-1.7000000000000000e+00 -5.6513544944844230e-01 +7.7425295976631867e+00 -3.7358681777455410e-01 +1.6694362835230738e+01 +5.4141742247326720e+03 -1.9736417224760095e+05 -3.1039916022880055e+07 
-1.8000000000000000e+00 -5.6513619168655405e-01 +7.7425726934442745e+00 -3.6367231532860950e-01 +1.5607409469815837e+01 +5.2645950524019672e+03 -1.9097560019791676e+05 -3.0418017439945813e+07 
-1.8999999999999999e+00 -5.6513693202685211e-01 +7.7426178439627371e+00 -3.5403930923444205e-01 +1.4525350164451394e+01 +5.1172826599913560e+03 -1.8473657649323752e+05 -2.9800193542297497e+07 
-2.0000000000000000e+00 -5.6513766970274093e-01 +7.7426649531380676e+00 -3.4473741325908924e-01 +1.3455746424326156e+01 +4.9729212320007473e+03 -1.7869605801627380e+05 -2.9189203868977875e+07 
-2.1000000000000001e+00 -5.6513840407622618e-01 +7.7427138857461619e+00 -3.3580952961483906e-01 +1.2405771479323199e+01 +4.8321460191799388e+03 -1.7289822384490893e+05 -2.8587725256896917e+07 
-2.2000000000000002e+00 -5.6513913502906643e-01 +7.7427643514435172e+00 -3.2727048955001048e-01 +1.1380970096747323e+01 +4.6953879385072223e+03 -1.6736773023725682e+05 -2.7998100341103654e+07 
-2.2999999999999998e+00 -5.6513986257400051e-01 +7.7428160214762869e+00 -3.1912781042797245e-01 +1.0386460085828983e+01 +4.5630248953284226e+03 -1.6212424337857813e+05 -2.7422588404085930e+07 
-2.3999999999999999e+00 -5.6514058672379419e-01 +7.7428685670900350e+00 -3.1138901291699811e-01 +9.4273592553262748e+00 +4.4354348518074330e+03 -1.5718742937975880e+05 -2.6863448977330193e+07 
-2.5000000000000000e+00 -5.6514130749115077e-01 +7.7429216595380552e+00 -3.0406161908387075e-01 +8.5087851693588998e+00 +4.3129957970396508e+03 -1.5257695285844372e+05 -2.6322941713980377e+07 
-2.6000000000000001e+00 -5.6514202488873899e-01 +7.7429749700682846e+00 -2.9715315374693357e-01 +7.6358555234397683e+00 +4.1960857578092082e+03 -1.4831247910737485e+05 -2.5803326402039956e+07 
-2.7000000000000002e+00 -5.6514273892931788e-01 +7.7430281699320878e+00 -2.9067114484963769e-01 +6.8136879025265600e+00 +4.0850828172290721e+03 -1.4441367271705775e+05 -2.5306863082739536e+07 
-2.7999999999999998e+00 -5.6514344962545870e-01 +7.7430809303818027e+00 -2.8462312136144013e-01 +6.0473998239928903e+00 +3.9803650658956326e+03 -1.4090019774651609e+05 -2.4835811796596672e+07 
-2.8999999999999999e+00 -5.6514415698985399e-01 +7.7431329226714514e+00 -2.7901661398867705e-01 +5.3421087261881262e+00 +3.8823106178456001e+03 -1.3779171767928381e+05 -2.4392432664579075e+07 
-3.0000000000000000e+00 -5.6514486103505734e-01 +7.7431838180575907e+00 -2.7385915955144025e-01 +4.7029319405155121e+00 +3.7912976933321379e+03 -1.3510789524546580e+05 -2.3978986281404983e+07 
-3.1000000000000001e+00 -5.6514556177363995e-01 +7.7432332877914574e+00 -2.6915829436222083e-01 +4.1349869107493094e+00 +3.7077044870585560e+03 -1.3286839367442948e+05 -2.3597733073995207e+07 
-3.2000000000000002e+00 -5.6514625921817085e-01 +7.7432810031305053e+00 -2.6492155787318850e-01 +3.6433908540673223e+00 +3.6319092441441526e+03 -1.3109287470268595e+05 -2.3250933680562072e+07 
-3.2999999999999998e+00 -5.6514695338107357e-01 +7.7433266353337942e+00 -2.6115649517847916e-01 +3.2332608979627735e+00 +3.5642902981028437e+03 -1.2980099938047362e+05 -2.2940849105727512e+07 
-3.3999999999999999e+00 -5.6514764427491171e-01 +7.7433698556549784e+00 -2.5787065036180018e-01 +2.9097142757600611e+00 +3.5052259520305192e+03 -1.2901242917999371e+05 -2.2669740176533468e+07 
-3.5000000000000000e+00 -5.6514833191201685e-01 +7.7434103353509585e+00 -2.5507157323872809e-01 +2.6778680672590305e+00 +3.4550945976624057e+03 -1.2874682446051843e+05 -2.2439868084317725e+07 
-3.6000000000000001e+00 -5.6514901630484238e-01 +7.7434477456793118e+00 -2.5276681434953807e-01 +2.5428392728900979e+00 +3.4142746241607319e+03 -1.2902384489673811e+05 -2.2253493962174103e+07 
-3.7000000000000002e+00 -5.6514969746566412e-01 +7.7434817578995458e+00 -2.5096393358947966e-01 +2.5097447764155052e+00 +3.3831445789920763e+03 -1.2986314925715368e+05 -2.2112879642996326e+07 
-3.7999999999999998e+00 -5.6515037540681645e-01 +7.7435120432687308e+00 -2.4967048555238683e-01 +2.5837014695607574e+00 +3.3620828923761251e+03 -1.3128439611441037e+05 -2.2020286354665563e+07 
-3.8999999999999999e+00 -5.6515105014052314e-01 +7.7435382730408486e+00 -2.4889403530905252e-01 +2.7698262575982002e+00 +3.3514681670129717e+03 -1.3330724383945900e+05 -2.1977976074569844e+07 
-4.0000000000000000e+00 -5.6515172167903405e-01 +7.7435601184747060e+00 -2.4864214663136572e-01 +3.0732358299697244e+00 +3.3516789636190269e+03 -1.3595134927774291e+05 -2.1988210532935761e+07 
-4.0999999999999996e+00 -5.6515239006724338e-01 +7.7435773493176638e+00 -2.4891305666365793e-01 +3.4968060164484034e+00 +3.3628601475033238e+03 -1.3922565433013160e+05 -2.2052049214956198e+07 
-4.2000000000000002e+00 -5.6515305548806793e-01 +7.7435901216937442e+00 -2.4966934990506187e-01 +4.0347176073194451e+00 +3.3842617090954072e+03 -1.4309769316177192e+05 -2.2165929775116436e+07 
-4.2999999999999998e+00 -5.6515371816062865e-01 +7.7435986865332644e+00 -2.5086509466056944e-01 +4.6790421329005518e+00 +3.4149193581832383e+03 -1.4752500084671043e+05 -2.2325178291648492e+07 
-4.4000000000000004e+00 -5.6515437830416360e-01 +7.7436032947594278e+00 -2.5245435894723778e-01 +5.4218513604599448e+00 +3.4538688060952181e+03 -1.5246511396384105e+05 -2.2525120873993836e+07 
-4.5000000000000000e+00 -5.6515503613782370e-01 +7.7436041972872998e+00 -2.5439121018125815e-01 +6.2552173467433700e+00 +3.5001457558551592e+03 -1.5787557094483613e+05 -2.2761083609996766e+07 
-4.5999999999999996e+00 -5.6515569188083781e-01 +7.7436016450416663e+00 -2.5662970949214658e-01 +7.1712119080183854e+00 +3.5527857991016276e+03 -1.6371390899544425e+05 -2.3028392087593634e+07 
-4.7000000000000002e+00 -5.6515634575245577e-01 +7.7435958889301721e+00 -2.5912391866087020e-01 +8.1619074066430102e+00 +3.6108245479130228e+03 -1.6993766866489378e+05 -2.3322372022753973e+07 
-4.7999999999999998e+00 -5.6515699797192132e-01 +7.7435871798654787e+00 -2.6182789270141177e-01 +9.2193761170028026e+00 +3.6732974921170385e+03 -1.7650439020367019e+05 -2.3638348577549230e+07 
-4.9000000000000004e+00 -5.6515764875850805e-01 +7.7435757687530318e+00 -2.6469568602278976e-01 +1.0335690576042746e+01 +3.7392401181085233e+03 -1.8337161558132808e+05 -2.3971646930067349e+07 
-5.0000000000000000e+00 -5.6515829833154918e-01 +7.7435619064938468e+00 -2.6768134591738091e-01 +1.1502923509430104e+01 +3.8076877911176912e+03 -1.9049688809132550e+05 -2.4317591731191434e+07 
-5.0999999999999996e+00 -5.6515894691039426e-01 +7.7435458439880067e+00 -2.7073892016917833e-01 +1.2713147731617285e+01 +3.8776758912853875e+03 -1.9783775176567052e+05 -2.4671507730907410e+07 
-5.2000000000000002e+00 -5.6515959471440846e-01 +7.7435278321255510e+00 -2.7382244763500790e-01 +1.3958436418128571e+01 +3.9482396419470124e+03 -2.0535175299041279e+05 -2.5028718980239850e+07 
-5.2999999999999998e+00 -5.6516024196298165e-01 +7.7435081217958812e+00 -2.7688596744575117e-01 +1.5230862836619266e+01 +4.0184142834290788e+03 -2.1299643895760129e+05 -2.5384549656410083e+07 
-5.4000000000000004e+00 -5.6516088887561333e-01 +7.7434869638830683e+00 -2.7988350790154998e-01 +1.6522500468360203e+01 +4.0872348603882929e+03 -2.2072935832685552e+05 -2.5734323047928784e+07 
-5.5000000000000000e+00 -5.6516153567170402e-01 +7.7434646092659252e+00 -2.8276909906859532e-01 +1.7825423039659903e+01 +4.1537364652882343e+03 -2.2850806151194769e+05 -2.6073362724111877e+07 
-5.5999999999999996e+00 -5.6516218257088568e-01 +7.7434413088127654e+00 -2.8549675962896498e-01 +1.9131704655353339e+01 +4.2169539903675077e+03 -2.3629010139934003e+05 -2.6396991362179141e+07 
-5.7000000000000002e+00 -5.6516282979263599e-01 +7.7434173133946071e+00 -2.8802050573548338e-01 +2.0433419424504240e+01 +4.2759222887994019e+03 -2.4403303121261715e+05 -2.6700531492538732e+07 
-5.7999999999999998e+00 -5.6516347755661978e-01 +7.7433928738694258e+00 -2.9029434811492116e-01 +2.1722641915077407e+01 +4.3296761309640988e+03 -2.5169440713692488e+05 -2.6979305325178027e+07 
-5.9000000000000004e+00 -5.6516412608242639e-01 +7.7433682410946130e+00 -2.9227229188077947e-01 +2.2991446814710841e+01 +4.3772501917672471e+03 -2.5923178642909008e+05 -2.7228634663965195e+07 
-5.9999999999999902e+00 -5.6516477558987877e-01 +7.7433436659165782e+00 -2.9390833131116467e-01 +2.4231909213046741e+01 +4.4176789621886510e+03 -2.6660272896271048e+05 -2.7443840512751576e+07 
-6.0999999999999899e+00 -5.6516542632619426e-01 +7.7433193644515121e+00 -2.9516669060179246e-01 +2.5437027767718480e+01 +4.4502091803950161e+03 -2.7376899025280168e+05 -2.7621217243510056e+07 
-6.1999999999999904e+00 -5.6516607864544144e-01 +7.7432954253686281e+00 -2.9605166286023471e-01 +2.6603278229805010e+01 +4.4749102781765532e+03 -2.8070827162434609e+05 -2.7760836558035593e+07 
-6.2999999999999901e+00 -5.6516673292725683e-01 +7.7432719082559416e+00 -2.9657740348691952e-01 +2.7727954056239309e+01 +4.4920518996277306e+03 -2.8740205708891730e+05 -2.7863690394699272e+07 
-6.3999999999999897e+00 -5.6516738955132029e-01 +7.7432488727086817e+00 -2.9675805819476631e-01 +2.8808348437007847e+01 +4.5019035064168738e+03 -2.9383182904057839e+05 -2.7930769853506967e+07 
-6.4999999999999902e+00 -5.6516804889722494e-01 +7.7432263783286999e+00 -2.9660777530738147e-01 +2.9841754351380185e+01 +4.5047346097590726e+03 -2.9997906871474290e+05 -2.7963066293711502e+07 
-6.5999999999999899e+00 -5.6516871134472602e-01 +7.7432044847179240e+00 -2.9614069569800217e-01 +3.0825464723106041e+01 +4.5008145768797340e+03 -3.0582525699132297e+05 -2.7961570407121010e+07 
-6.6999999999999904e+00 -5.6516937727354088e-01 +7.7431832514871886e+00 -2.9537095363733001e-01 +3.1756772172040687e+01 +4.4904126519446309e+03 -3.1135187298739818e+05 -2.7927272330998775e+07 
-6.7999999999999901e+00 -5.6517004706338159e-01 +7.7431627382536634e+00 -2.9431268612353928e-01 +3.2632969095652761e+01 +4.4737981283618492e+03 -3.1654039453919278e+05 -2.7861162456838563e+07 
-6.8999999999999897e+00 -5.6517072109406008e-01 +7.7431430046351055e+00 -2.9298001702446541e-01 +3.3451347820491108e+01 +4.4512400540016379e+03 -3.2137229905832943e+05 -2.7764230045112848e+07 
-6.9999999999999902e+00 -5.6517139974536668e-01 +7.7431241102594059e+00 -2.9138707477636544e-01 +3.4209200329245121e+01 +4.4230075593017345e+03 -3.2582906194839295e+05 -2.7637464764321227e+07 
-7.0999999999999899e+00 -5.6517208339713065e-01 +7.7431061147596569e+00 -2.8954797472094351e-01 +3.4903818396730536e+01 +4.3893695260817640e+03 -3.2989215738788468e+05 -2.7481855130163468e+07 
-7.1999999999999904e+00 -5.6517277242918196e-01 +7.7430890777721233e+00 -2.8747683476977492e-01 +3.5532493657211702e+01 +4.3505948869377771e+03 -3.3354305874040507e+05 -2.7298389932946585e+07 
-7.2999999999999901e+00 -5.6517346722143114e-01 +7.7430730589438213e+00 -2.8518776483280711e-01 +3.6092517378340162e+01 +4.3069524205385915e+03 -3.3676323723878263e+05 -2.7088057255620286e+07 
-7.3999999999999897e+00 -5.6517416815373656e-01 +7.7430581179270002e+00 -2.8269486947783684e-01 +3.6581180602605158e+01 +4.2587108036231630e+03 -3.3953416274769604e+05 -2.6851844725913621e+07 
-7.4999999999999902e+00 -5.6517487560613355e-01 +7.7430443143810548e+00 -2.8001224727890606e-01 +3.6995774114951260e+01 +4.2061385980930163e+03 -3.4183730365029868e+05 -2.6590739454336960e+07 
-7.5999999999999899e+00 -5.6517558995847905e-01 +7.7430317079671935e+00 -2.7715399706317018e-01 +3.7333588582245405e+01 +4.1495043719893301e+03 -3.4365412761469319e+05 -2.6305728615084011e+07 
-7.6999999999999904e+00 -5.6517631159082882e-01 +7.7430203583631938e+00 -2.7413420522177356e-01 +3.7591914121925385e+01 +4.0890764546013311e+03 -3.4496609908878454e+05 -2.5997798273759089e+07 
-7.7999999999999901e+00 -5.6517704088323284e-01 +7.7430103252493705e+00 -2.7096695766254486e-01 +3.7768040711648922e+01 +4.0251231662915893e+03 -3.4575468168801174e+05 -2.5667934486666758e+07 
-7.8999999999999897e+00 -5.6517777821572246e-01 +7.7430016683127088e+00 -2.6766633406281198e-01 +3.7859258060022931e+01 +3.9579127085791156e+03 -3.4600133741607057e+05 -2.5317122779225878e+07 
-7.9999999999999902e+00 -5.6517852396843382e-01 +7.7429944472515446e+00 -2.6424640668979338e-01 +3.7862855522115190e+01 +3.8877131462754905e+03 -3.4568752633328876e+05 -2.4946348075727373e+07 
-8.0999999999999908e+00 -5.6517927835150672e-01 +7.7429887126822372e+00 -2.6072479729088255e-01 +3.7777475773112080e+01 +3.8148567339509596e+03 -3.4480423092773912e+05 -2.4557037739248246e+07 
-8.1999999999999904e+00 -5.6518004087204676e-01 +7.7429844755226629e+00 -2.5713614717195216e-01 +3.7607020407846434e+01 +3.7399276028460517e+03 -3.4337851557902416e+05 -2.4152219701121170e+07 
-8.2999999999999901e+00 -5.6518081085569005e-01 +7.7429817357011146e+00 -2.5352000592457191e-01 +3.7356685081047139e+01 +3.6635712166848252e+03 -3.4144607588948240e+05 -2.3735281599292826e+07 
-8.3999999999999897e+00 -5.6518158762809423e-01 +7.7429804931524160e+00 -2.4991592843214450e-01 +3.7031665367735926e+01 +3.5864331463494823e+03 -3.3904260685851175e+05 -2.3309611571126588e+07 
-8.4999999999999893e+00 -5.6518237051496056e-01 +7.7429807478030837e+00 -2.4636347094486585e-01 +3.6637157196337427e+01 +3.5091589899875721e+03 -3.3620380551280139e+05 -2.2878597848730192e+07 
-8.5999999999999908e+00 -5.6518315884188552e-01 +7.7429824995972378e+00 -2.4290220026209811e-01 +3.6178356083093902e+01 +3.4323945543157347e+03 -3.3296536640018888e+05 -2.2445629638461128e+07 
-8.6999999999999904e+00 -5.6518395193448767e-01 +7.7429857484653350e+00 -2.3957168783319571e-01 +3.5660458067658432e+01 +3.3567857358118954e+03 -3.2936298710272455e+05 -2.2014096533941537e+07 
-8.7999999999999794e+00 -5.6518474911837457e-01 +7.7429904943510461e+00 -2.3641151093862720e-01 +3.5088658908194709e+01 +3.2829785492389328e+03 -3.2543236346966994e+05 -2.1587388670489315e+07 
-8.8999999999999808e+00 -5.6518554971915047e-01 +7.7429967371949964e+00 -2.3346125518087316e-01 +3.4468154580850594e+01 +3.2116191707487278e+03 -3.2120919259118027e+05 -2.1168896913757939e+07 
-8.9999999999999805e+00 -5.6518635306237208e-01 +7.7430044769433337e+00 -2.3076050950346746e-01 +3.3804141020001097e+01 +3.1433538459498300e+03 -3.1672917124243802e+05 -2.0762012431654651e+07 
-9.0999999999999801e+00 -5.6518715847356804e-01 +7.7430137135424424e+00 -2.2834887482246474e-01 +3.3101814284415042e+01 +3.0788290532522292e+03 -3.1202799687997310e+05 -2.0370127464578249e+07 
-9.1999999999999797e+00 -5.6518796527829240e-01 +7.7430244469399367e+00 -2.2626595356490425e-01 +3.2366370516812218e+01 +3.0186913051768133e+03 -3.0714136735489045e+05 -1.9996634381421693e+07 
-9.2999999999999794e+00 -5.6518877280205704e-01 +7.7430366770892176e+00 -2.2455136189816285e-01 +3.1603005833813587e+01 +2.9635873796392007e+03 -3.0210498032811395e+05 -1.9644926774255477e+07 
-9.3999999999999808e+00 -5.6518958037034472e-01 +7.7430504039465022e+00 -2.2324471778482810e-01 +3.0816916399659693e+01 +2.9141640964226003e+03 -2.9695453365105938e+05 -1.9318398404524032e+07 
-9.4999999999999805e+00 -5.6519038730860383e-01 +7.7430656274669714e+00 -2.2238565218457548e-01 +3.0013298551522670e+01 +2.8710685265523343e+03 -2.9172572611982515e+05 -1.9020444185733646e+07 
-9.5999999999999801e+00 -5.6519119294229936e-01 +7.7430823476057009e+00 -2.2201379925693032e-01 +2.9197348767867613e+01 +2.8349478071309122e+03 -2.8645425726833928e+05 -1.8754459305320669e+07 
-9.6999999999999797e+00 -5.6519199659686170e-01 +7.7431005643316251e+00 -2.2216880646058276e-01 +2.8374263276456606e+01 +2.8064493346021700e+03 -2.8117582511796069e+05 -1.8523840147031754e+07 
-9.7999999999999794e+00 -5.6519279759767260e-01 +7.7431202776021966e+00 -2.2289032623728988e-01 +2.7549238783014694e+01 +2.7862206070179645e+03 -2.7592613037427148e+05 -1.8331983537247680e+07 
-9.8999999999999808e+00 -5.6519359527009272e-01 +7.7431414873902815e+00 -2.2421802245173936e-01 +2.6727471697024477e+01 +2.7749093430163289e+03 -2.7074087194171286e+05 -1.8182287302963488e+07 
-9.9999999999999805e+00 -5.6519438893950991e-01 +7.7431641936616833e+00 -2.2619156519500350e-01 +2.5914158737813707e+01 +2.7731633816708977e+03 -2.6565575023605349e+05 -1.8078149778478414e+07 
-1.0100000000000000e+01 -5.6519517807478392e-01 +7.7431883639322638e+00 -2.2883824249663107e-01 +2.5114086427962562e+01 +2.7814499489805248e+03 -2.6070223684738119e+05 -1.8022091559663825e+07 
