# multipoles
# s[mm] polynom_b[n=0][T/m^n] polynom_b[n=1][T/m^n] polynom_b[n=2][T/m^n] polynom_b[n=3][T/m^n] polynom_b[n=4][T/m^n] polynom_b[n=5][T/m^n] polynom_b[n=6][T/m^n] 
+0.0000000000000000e+00 -5.3659454983087229e-01 +7.3450329178083171e+00 -7.6750227704619922e-01 +6.5856131064513974e+01 +4.2261021558217471e+03 -5.2163560755718034e+05 -1.5841837437724719e+07 
+1.0000000000000001e-01 -5.3659458186173625e-01 +7.3450553120847744e+00 -7.6958138331675507e-01 +6.5558975371562710e+01 +4.2761127045414778e+03 -5.2069448374123505e+05 -1.6076232022035716e+07 
+2.0000000000000001e-01 -5.3659461639492334e-01 +7.3450828159619013e+00 -7.7201587456588039e-01 +6.5169678992722609e+01 +4.3315064451542057e+03 -5.1941376817219245e+05 -1.6328845974207480e+07 
+2.9999999999999999e-01 -5.3659465353416869e-01 +7.3451149161107230e+00 -7.7479259054922378e-01 +6.4695605201247858e+01 +4.3921591535844627e+03 -5.1781556918850384e+05 -1.6599547236179475e+07 
+4.0000000000000002e-01 -5.3659469338316879e-01 +7.3451510992022024e+00 -7.7789837221784131e-01 +6.4144117260549280e+01 +4.4579466401545524e+03 -5.1592199508953711e+05 -1.6888203942267597e+07 
+5.0000000000000000e-01 -5.3659473604573082e-01 +7.3451908519113323e+00 -7.8132005388532566e-01 +6.3522578312193687e+01 +4.5287445932478122e+03 -5.1375515348601091e+05 -1.7194683653740767e+07 
+5.9999999999999998e-01 -5.3659478162558605e-01 +7.3452336609153894e+00 -7.8504447611269235e-01 +6.2838351418905170e+01 +4.6044288261601923e+03 -5.1133715153025807e+05 -1.7518854543922149e+07 
+6.9999999999999996e-01 -5.3659483022648868e-01 +7.3452790128872394e+00 -7.8905847373291771e-01 +6.2098799767024012e+01 +4.6848750467196314e+03 -5.0869009710632660e+05 -1.7860584292713627e+07 
+8.0000000000000004e-01 -5.3659488195222460e-01 +7.3453263945136396e+00 -7.9334888403934312e-01 +6.1311286121746953e+01 +4.7699590119399973e+03 -5.0583609562646976e+05 -1.8219740824132837e+07 
+9.0000000000000002e-01 -5.3659493690655657e-01 +7.3453752924693134e+00 -7.9790254335555144e-01 +6.0483173592637414e+01 +4.8595564584867871e+03 -5.0279725450028438e+05 -1.8596191963816483e+07 
+1.0000000000000000e+00 -5.3659499519322185e-01 +7.3454251934386958e+00 -8.0270628785380582e-01 +5.9621824987715115e+01 +4.9535431213476631e+03 -4.9959567934854614e+05 -1.8989805537352558e+07 
+1.1000000000000001e+00 -5.3659505691601284e-01 +7.3454755841054880e+00 -8.0774695183125234e-01 +5.8734603127612544e+01 +5.0517946921829889e+03 -4.9625347583944740e+05 -1.9400449151115231e+07 
+1.2000000000000000e+00 -5.3659512217866945e-01 +7.3455259511522657e+00 -8.1301137235029042e-01 +5.7828870847700614e+01 +5.1541869109602558e+03 -4.9279274967978144e+05 -1.9827990637433525e+07 
+1.3000000000000000e+00 -5.3659519108490217e-01 +7.3455757812664650e+00 -8.1848638519617867e-01 +5.6911990835852272e+01 +5.2605954861995760e+03 -4.8923560569597385e+05 -2.0272297670309693e+07 
+1.3999999999999999e+00 -5.3659526373849009e-01 +7.3456245611282709e+00 -8.2415882593454115e-01 +5.5991325960859832e+01 +5.3708961117788249e+03 -4.8560414966735640e+05 -2.0733237837571263e+07 
+1.5000000000000000e+00 -5.3659534024305477e-01 +7.3456717774255642e+00 -8.3001553162027253e-01 +5.5074238863396900e+01 +5.4849644992654394e+03 -4.8192048602424579e+05 -2.1210678794271972e+07 
+1.6000000000000001e+00 -5.3659542070234745e-01 +7.3457169168419068e+00 -8.3604333747129800e-01 +5.4168092285162878e+01 +5.6026763112225763e+03 -4.7820671968615986e+05 -2.1704487939815868e+07 
+1.7000000000000000e+00 -5.3659550522000177e-01 +7.3457594660624821e+00 -8.4222908436055288e-01 +5.3280248905655270e+01 +5.7239073020164806e+03 -4.7448495514477883e+05 -2.2214533083767746e+07 
+1.8000000000000000e+00 -5.3659559389969980e-01 +7.3457989117690303e+00 -8.4855960494550464e-01 +5.2418071486684148e+01 +5.8485330556975568e+03 -4.7077729728753719e+05 -2.2740681204698972e+07 
+1.8999999999999999e+00 -5.3659568684499903e-01 +7.3458347406467590e+00 -8.5502174075816739e-01 +5.1588922667852785e+01 +5.9764293021185658e+03 -4.6710585019077960e+05 -2.3282799932391159e+07 
+2.0000000000000000e+00 -5.3659578415950460e-01 +7.3458664393766551e+00 -8.6160233143234100e-01 +5.0800165186337708e+01 +6.1074717169312362e+03 -4.6349271838426642e+05 -2.3840756610305868e+07 
+2.1000000000000001e+00 -5.3659588589684948e-01 +7.3458936172615488e+00 -8.6828480370208805e-01 +5.0057758101367149e+01 +6.2414194941563564e+03 -4.5995704858568910e+05 -2.4413794331258081e+07 
+2.2000000000000002e+00 -5.3659599190963725e-01 +7.3459163711801656e+00 -8.7504078398554141e-01 +4.9362137914790125e+01 +6.3775887229535965e+03 -4.5650662034782261e+05 -2.4998717958989121e+07 
+2.2999999999999998e+00 -5.3659610199990249e-01 +7.3459349191911123e+00 -8.8183941417495659e-01 +4.8712384284610643e+01 +6.5151904176785984e+03 -4.5314649484226119e+05 -2.5591737397870872e+07 
+2.3999999999999999e+00 -5.3659621596969287e-01 +7.3459494793557285e+00 -8.8864983068960945e-01 +4.8107576836120714e+01 +6.6534354830566599e+03 -4.4988173315965361e+05 -2.6189062012208238e+07 
+2.5000000000000000e+00 -5.3659633362098613e-01 +7.3459602697267128e+00 -8.9544117638962029e-01 +4.7546795491457495e+01 +6.7915349495145401e+03 -4.4671739821504592e+05 -2.6786901768322755e+07 
+2.6000000000000001e+00 -5.3659645475583162e-01 +7.3459675083623726e+00 -9.0218259143499524e-01 +4.7029120073439444e+01 +6.9286997908164867e+03 -4.4365855250290944e+05 -2.7381466342319444e+07 
+2.7000000000000002e+00 -5.3659657917625814e-01 +7.3459714133095328e+00 -9.0884321525358158e-01 +4.6553630805033748e+01 +7.0641409624275875e+03 -4.4071026099186204e+05 -2.7968965303312931e+07 
+2.7999999999999998e+00 -5.3659670668424730e-01 +7.3459722026191914e+00 -9.1539219117610426e-01 +4.6119407847392488e+01 +7.1970694993172738e+03 -4.3787758843743667e+05 -2.8545608603533570e+07 
+2.8999999999999999e+00 -5.3659683708183892e-01 +7.3459700943376287e+00 -9.2179866222630114e-01 +4.5725531591610121e+01 +7.3266964281417067e+03 -4.3516560115547205e+05 -2.9107606139144659e+07 
+3.0000000000000000e+00 -5.3659697017108243e-01 +7.3459653065065780e+00 -9.2803176733487669e-01 +4.5371082627375934e+01 +7.4522326961109657e+03 -4.3257936677253200e+05 -2.9651167410411734e+07 
+3.1000000000000001e+00 -5.3659710575396358e-01 +7.3459580571660270e+00 -9.3406065157102824e-01 +4.5055141695636017e+01 +7.5728893706537183e+03 -4.3012395404188993e+05 -3.0172502485610582e+07 
+3.2000000000000002e+00 -5.3659724363254302e-01 +7.3459485643521827e+00 -9.3985445827521830e-01 +4.4776789738648013e+01 +7.6878774897779849e+03 -4.2780443310759525e+05 -3.0667821287853848e+07 
+3.2999999999999998e+00 -5.3659738360885711e-01 +7.3459370460968545e+00 -9.4538233152081141e-01 +4.4535107926284532e+01 +7.7964081029182762e+03 -4.2562587568053562e+05 -3.1133333769175731e+07 
+3.3999999999999999e+00 -5.3659752548492090e-01 +7.3459237204272627e+00 -9.5061341630216845e-01 +4.4329177670415469e+01 +7.8976922849357552e+03 -4.2359335514532466e+05 -3.1565250008142702e+07 
+3.5000000000000000e+00 -5.3659766906282969e-01 +7.3459088053687251e+00 -9.5551685581360857e-01 +4.4158080551943335e+01 +7.9909410777727871e+03 -4.2171194614871481e+05 -3.1959779908761527e+07 
+3.6000000000000001e+00 -5.3659781414463481e-01 +7.3458925189393067e+00 -9.6006179710877004e-01 +4.4020898482567098e+01 +8.0753656022758569e+03 -4.1998672555595334e+05 -3.2313133744695518e+07 
+3.7000000000000002e+00 -5.3659796053237541e-01 +7.3458750791558023e+00 -9.6421738723893347e-01 +4.3916713538687375e+01 +8.1501769835224995e+03 -4.1842277150786720e+05 -3.2621521798854347e+07 
+3.7999999999999998e+00 -5.3659810802817076e-01 +7.3458567040290985e+00 -9.6795277197323770e-01 +4.3844608096522357e+01 +8.2145863278607139e+03 -4.1702516420383408e+05 -3.2881154255151067e+07 
+3.8999999999999999e+00 -5.3659825643408388e-01 +7.3458376115623913e+00 -9.7123709964244720e-01 +4.3803664895387044e+01 +8.2678047972384047e+03 -4.1579898629908060e+05 -3.3088241555538289e+07 
+4.0000000000000000e+00 -5.3659840555227800e-01 +7.3458180197543239e+00 -9.7403951820183921e-01 +4.3792966950545058e+01 +8.3090435527898662e+03 -4.1474932240489306e+05 -3.3238994127963606e+07 
+4.0999999999999996e+00 -5.3659855529841971e-01 +7.3457981323561539e+00 -9.7633551519356931e-01 +4.3811146784470516e+01 +8.3377086500814694e+03 -4.1387723036045604e+05 -3.3330562774005424e+07 
+4.2000000000000002e+00 -5.3659870604622395e-01 +7.3457781060578942e+00 -9.7812507168468843e-01 +4.3854788812822299e+01 +8.3539884761295198e+03 -4.1316679889166693e+05 -3.3363921185820460e+07 
+4.2999999999999998e+00 -5.3659885828471954e-01 +7.3457580883002658e+00 -9.7941410849682597e-01 +4.3919900839659114e+01 +8.3582684330028551e+03 -4.1259763981284032e+05 -3.3341017201374438e+07 
+4.4000000000000004e+00 -5.3659901250291908e-01 +7.3457382265246034e+00 -9.8020854593988904e-01 +4.4002490583350657e+01 +8.3509339220703951e+03 -4.1214936430381238e+05 -3.3263798680319835e+07 
+4.5000000000000000e+00 -5.3659916918986872e-01 +7.3457186681709343e+00 -9.8051430088531999e-01 +4.4098565740827937e+01 +8.3323702870375419e+03 -4.1180158330836502e+05 -3.3134213230958235e+07 
+4.5999999999999996e+00 -5.3659932883459494e-01 +7.3456995606820588e+00 -9.8033729004754011e-01 +4.4204133842076793e+01 +8.3029628770798245e+03 -4.1153390660079377e+05 -3.2954208513122480e+07 
+4.7000000000000002e+00 -5.3659949192622391e-01 +7.3456810514932895e+00 -9.7968342520272578e-01 +4.4315202559278191e+01 +8.2630969578919412e+03 -4.1132594462454255e+05 -3.2725731820750851e+07 
+4.7999999999999998e+00 -5.3659965895382489e-01 +7.3456632880412673e+00 -9.7855862270948435e-01 +4.4427779428828181e+01 +8.2131578916290546e+03 -4.1115730681885156e+05 -3.2450730936110295e+07 
+4.9000000000000004e+00 -5.3659983040653936e-01 +7.3456464177641951e+00 -9.7696878715301938e-01 +4.4537871853857837e+01 +8.1535308250243188e+03 -4.1100760166371393e+05 -3.2131152642743345e+07 
+5.0000000000000000e+00 -5.3660000677349806e-01 +7.3456305880983956e+00 -9.7491983232902824e-01 +4.4641487183429433e+01 +8.0846010934391197e+03 -4.1085643708637875e+05 -3.1768944663112298e+07 
+5.0999999999999996e+00 -5.3660018854386149e-01 +7.3456159464778574e+00 -9.7241766233568960e-01 +4.4734632726155397e+01 +8.0067538569107364e+03 -4.1068342053659231e+05 -3.1366053914706334e+07 
+5.2000000000000002e+00 -5.3660037620684020e-01 +7.3456026403364678e+00 -9.6946818253891787e-01 +4.4813315684729105e+01 +7.9203743125640658e+03 -4.1046815862367995e+05 -3.0924427532783378e+07 
+5.2999999999999998e+00 -5.3660057025165642e-01 +7.3455908171094180e+00 -9.6607729456449709e-01 +4.4873543088794840e+01 +7.8258475978240222e+03 -4.1019025664608576e+05 -3.0446012404072046e+07 
+5.4000000000000004e+00 -5.3660077116755778e-01 +7.3455806242292327e+00 -9.6225089750547976e-01 +4.4911321920844429e+01 +7.7235588144534786e+03 -4.0982931935546797e+05 -2.9932755287142869e+07 
+5.5000000000000000e+00 -5.3660097944380081e-01 +7.3455722091271554e+00 -9.5799488792060439e-01 +4.4922659069522865e+01 +7.6138930341038676e+03 -4.0936495067806746e+05 -2.9386602851562135e+07 
+5.5999999999999996e+00 -5.3660119556968677e-01 +7.3455657192369292e+00 -9.5331516312683839e-01 +4.4903561200644695e+01 +7.4972353486260472e+03 -4.0877675290909992e+05 -2.8809501887601025e+07 
+5.7000000000000002e+00 -5.3660142003455413e-01 +7.3455613019891599e+00 -9.4821761101206059e-01 +4.4850034925524923e+01 +7.3739706911521562e+03 -4.0804432771055860e+05 -2.8203398492292482e+07 
+5.7999999999999998e+00 -5.3660165332776211e-01 +7.3455591048166644e+00 -9.4270812467059883e-01 +4.4758086632407405e+01 +7.2444841083283445e+03 -4.0714727510082757e+05 -2.7570239350782145e+07 
+5.9000000000000004e+00 -5.3660189593872210e-01 +7.3455592751504364e+00 -9.3679258787612540e-01 +4.4623722597863278e+01 +7.1091604817994303e+03 -4.0606519408099301e+05 -2.6911970405163586e+07 
+5.9999999999999902e+00 -5.3660214835686126e-01 +7.3455619604213966e+00 -9.3047688396673633e-01 +4.4442948937220201e+01 +6.9683847037537253e+03 -4.0477768237954064e+05 -2.6230537708471484e+07 
+6.0999999999999899e+00 -5.3660241088829241e-01 +7.3455672458371337e+00 -9.2377504856135650e-01 +4.4213146840212211e+01 +6.8226253101035336e+03 -4.0327088273926615e+05 -2.5528208063079685e+07 
+6.1999999999999904e+00 -5.3660268309951775e-01 +7.3455749634110914e+00 -9.1673208139212747e-01 +4.3937326984026335e+01 +6.6726471183466556e+03 -4.0155742886883538e+05 -2.4808353899573542e+07 
+6.2999999999999901e+00 -5.3660296437046273e-01 +7.3455848806596427e+00 -9.0940029653591981e-01 +4.3619942272193967e+01 +6.5192790199586780e+03 -3.9965666148408869e+05 -2.4074578465489201e+07 
+6.3999999999999897e+00 -5.3660325408113685e-01 +7.3455967650978256e+00 -9.0183200628064686e-01 +4.3265445663222948e+01 +6.3633498618212616e+03 -3.9758792164035764e+05 -2.3330484776888426e+07 
+6.4999999999999902e+00 -5.3660355161136453e-01 +7.3456103842527058e+00 -8.9407952769116905e-01 +4.2878289782902527e+01 +6.2056885651511238e+03 -3.9537054852088250e+05 -2.2579676165324196e+07 
+6.5999999999999899e+00 -5.3660385634107155e-01 +7.3456255056615403e+00 -8.8619518020664467e-01 +4.2462926976091673e+01 +6.0471240849159303e+03 -3.9302387973364780e+05 -2.1825756101048667e+07 
+6.6999999999999904e+00 -5.3660416765012797e-01 +7.3456418968634321e+00 -8.7823128549456775e-01 +4.2023809554803385e+01 +5.8884854041164253e+03 -3.9056725276144460e+05 -2.1072328154957883e+07 
+6.7999999999999901e+00 -5.3660448491825741e-01 +7.3456593254104998e+00 -8.7024016823985550e-01 +4.1565389475395094e+01 +5.7306015464312632e+03 -3.8802000310330727e+05 -2.0322996053835999e+07 
+6.8999999999999897e+00 -5.3660480752529227e-01 +7.3456775588625352e+00 -8.6227415426679244e-01 +4.1092118487974403e+01 +5.5743015423582356e+03 -3.8540146511401969e+05 -1.9581363526876975e+07 
+6.9999999999999902e+00 -5.3660513485098060e-01 +7.3456963647865834e+00 -8.5438557511378155e-01 +4.0608448161709354e+01 +5.4204145156061222e+03 -3.8273097219851543e+05 -1.8851034710991159e+07 
+7.0999999999999899e+00 -5.3660546627495498e-01 +7.3457155107624716e+00 -8.4662676425158667e-01 +4.0118829720074039e+01 +5.2697696070951652e+03 -3.8002785583154444e+05 -1.8135613782380618e+07 
+7.1999999999999904e+00 -5.3660580117687773e-01 +7.3457347643764717e+00 -8.3905005650220288e-01 +3.9627714217853431e+01 +5.1231959675023963e+03 -3.7731144657474902e+05 -1.7438704928213093e+07 
+7.2999999999999901e+00 -5.3660613893636511e-01 +7.3457538932269930e+00 -8.3170779361447655e-01 +3.9139552396379834e+01 +4.9815228623516687e+03 -3.7460107328969706e+05 -1.6763912847330227e+07 
+7.3999999999999897e+00 -5.3660647893297930e-01 +7.3457726649229995e+00 -8.2465231812253637e-01 +3.8658794709607427e+01 +4.8455795488148942e+03 -3.7191606323575031e+05 -1.6114842144133369e+07 
+7.4999999999999902e+00 -5.3660682054619635e-01 +7.3457908470829372e+00 -8.1793597845531130e-01 +3.8189891373487740e+01 +4.7161953812131251e+03 -3.6927574240204570e+05 -1.5495097854356270e+07 
+7.5999999999999899e+00 -5.3660716315552104e-01 +7.3458082073386510e+00 -8.1161112305318350e-01 +3.7737292248352027e+01 +4.5941996904029238e+03 -3.6669943482066202e+05 -1.4908284849938981e+07 
+7.6999999999999904e+00 -5.3660750614032715e-01 +7.3458245133280400e+00 -8.0573010806628753e-01 +3.7305447045802573e+01 +4.4804219341793378e+03 -3.6420646374442545e+05 -1.4358008561650129e+07 
+7.7999999999999901e+00 -5.3660784888003243e-01 +7.3458395327092516e+00 -8.0034529158263834e-01 +3.6898804927157734e+01 +4.3756915862943060e+03 -3.6181614934750070e+05 -1.3847874452407939e+07 
+7.8999999999999897e+00 -5.3660819075390209e-01 +7.3458530331440013e+00 -7.9550903475606016e-01 +3.6521814991318429e+01 +4.2808381554397583e+03 -3.5954781156771345e+05 -1.3381488097914049e+07 
+7.9999999999999902e+00 -5.3660853114116358e-01 +7.3458647823129635e+00 -7.9127370759976468e-01 +3.6178925835730567e+01 +4.1966912980866146e+03 -3.5742076759660029e+05 -1.2962455735860432e+07 
+8.0999999999999908e+00 -5.3660886952702613e-01 +7.3458746123290357e+00 -7.8768104168173414e-01 +3.5873615621489840e+01 +4.1239171193812199e+03 -3.5545119724917330e+05 -1.2593721969000096e+07 
+8.1999999999999904e+00 -5.3660920582202654e-01 +7.3458826095449261e+00 -7.8473349096841971e-01 +3.5605487490211964e+01 +4.0625762023565376e+03 -3.5364253053102031e+05 -1.2275737014330065e+07 
+8.2999999999999901e+00 -5.3660954004355665e-01 +7.3458889231470561e+00 -7.8242448039112056e-01 +3.5373180001696205e+01 +4.0125895235168118e+03 -3.5199499895983457e+05 -1.2008364178756081e+07 
+8.3999999999999897e+00 -5.3660987220897804e-01 +7.3458937023203523e+00 -7.8074743772988764e-01 +3.5175331762557292e+01 +3.9738781283200133e+03 -3.5050883421826275e+05 -1.1791467107456742e+07 
+8.4999999999999893e+00 -5.3661020233573842e-01 +7.3458970962471355e+00 -7.7969578987146237e-01 +3.5010581433090621e+01 +3.9463630650699333e+03 -3.4918426810340607e+05 -1.1624909482988574e+07 
+8.5999999999999908e+00 -5.3661053044121698e-01 +7.3458992541139922e+00 -7.7926296827756913e-01 +3.4877567540181872e+01 +3.9299654868042717e+03 -3.4802153147448692e+05 -1.1508555505509863e+07 
+8.6999999999999904e+00 -5.3661085654289642e-01 +7.3459003250998745e+00 -7.7944240112993690e-01 +3.4774928818909672e+01 +3.9246065032509614e+03 -3.4702085620905214e+05 -1.1442269190110845e+07 
+8.7999999999999794e+00 -5.3661118065823354e-01 +7.3459004583915766e+00 -7.8022752009244767e-01 +3.4701303760865422e+01 +3.9302073136767940e+03 -3.4618247258610022e+05 -1.1425915009137105e+07 
+8.8999999999999808e+00 -5.3661150280467296e-01 +7.3458998031656879e+00 -7.8161175761842117e-01 +3.4655331137890570e+01 +3.9466891494802585e+03 -3.4550661230426596e+05 -1.1459357602736235e+07 
+8.9999999999999805e+00 -5.3661182299976740e-01 +7.3458985086055453e+00 -7.8358854342465256e-01 +3.4635649512669424e+01 +3.9739732158160473e+03 -3.4499350565822097e+05 -1.1542461521896305e+07 
+9.0999999999999801e+00 -5.3661214126100765e-01 +7.3458967238889361e+00 -7.8615131406806438e-01 +3.4640897595000489e+01 +4.0119808645631097e+03 -3.4464338359184953e+05 -1.1675092028005045e+07 
+9.1999999999999797e+00 -5.3661245760592158e-01 +7.3458945981935537e+00 -7.8929350232429218e-01 +3.4669714084190254e+01 +4.0606334030404660e+03 -3.4445647678566450e+05 -1.1857114209079491e+07 
+9.2999999999999794e+00 -5.3661277205209246e-01 +7.3458922806974041e+00 -7.9300854407383403e-01 +3.4720737640229672e+01 +4.1198522187610324e+03 -3.4443301543578855e+05 -1.2088393555108503e+07 
+9.3999999999999808e+00 -5.3661308461710278e-01 +7.3458899205748738e+00 -7.9728987572872778e-01 +3.4792607032310237e+01 +4.1895587337014094e+03 -3.4457323020830011e+05 -1.2368795750702532e+07 
+9.4999999999999805e+00 -5.3661339531854779e-01 +7.3458876670010698e+00 -8.0213093564584803e-01 +3.4883960980508618e+01 +4.2696744302356110e+03 -3.4487735122329433e+05 -1.2698186792613534e+07 
+9.5999999999999801e+00 -5.3661370417401744e-01 +7.3458856691478145e+00 -8.0752516038988564e-01 +3.4993438289015188e+01 +4.3601207852423968e+03 -3.4534560887565993e+05 -1.3076432691668931e+07 
+9.6999999999999797e+00 -5.3661401120122665e-01 +7.3458840761851532e+00 -8.1346599120527308e-01 +3.5119677789848701e+01 +4.4608193866207930e+03 -3.4597823346433800e+05 -1.3503400005757228e+07 
+9.7999999999999794e+00 -5.3661431641780788e-01 +7.3458830372845485e+00 -8.1994686733836386e-01 +3.5261318264066844e+01 +4.5716918132405717e+03 -3.4677545477398549e+05 -1.3978955288099620e+07 
+9.8999999999999808e+00 -5.3661461984150249e-01 +7.3458827016112087e+00 -8.2696122809172357e-01 +3.5416998655226358e+01 +4.6926596694194104e+03 -3.4773750327781815e+05 -1.4502965238962602e+07 
+9.9999999999999805e+00 -5.3661492148999856e-01 +7.3458832183352891e+00 -8.3450252102635170e-01 +3.5585357683263773e+01 +4.8236447415156617e+03 -3.4886460771047359e+05 -1.5075297440993490e+07 
+1.0100000000000000e+01 -5.3661522144180263e-01 +7.3458847074515603e+00 -8.4256314089449591e-01 +3.5764848312243451e+01 +4.9645197423944146e+03 -3.5015344906197838e+05 -1.5695451464436660e+07 
