# multipoles
# s[mm] polynom_b[n=0][T/m^n] polynom_b[n=1][T/m^n] polynom_b[n=2][T/m^n] polynom_b[n=3][T/m^n] polynom_b[n=4][T/m^n] polynom_b[n=5][T/m^n] polynom_b[n=6][T/m^n] 
+0.0000000000000000e+00 -5.6474716408512959e-01 +7.7326332826003803e+00 -7.1446661967292047e-01 -9.7262685359755228e+00 +4.7979059163986431e+03 -1.3766180356153322e+05 -2.2624199018263366e+07 
+1.0000000000000001e-01 -5.6474709158285807e-01 +7.7326259492754108e+00 -7.0898408282484604e-01 -9.8612085929753839e+00 +4.7258645145484497e+03 -1.3640602563931237e+05 -2.2387829722795162e+07 
+2.0000000000000001e-01 -5.6474702787146858e-01 +7.7326150343743487e+00 -7.0346580386735857e-01 -9.8886961202858590e+00 +4.6561689181449974e+03 -1.3584001664658086e+05 -2.2170192508912966e+07 
+2.9999999999999999e-01 -5.6474697197086243e-01 +7.7326009411768117e+00 -6.9795225048151055e-01 -9.8187121583108290e+00 +4.5889749813923017e+03 -1.3590563614095273e+05 -2.1970538377971418e+07 
+4.0000000000000002e-01 -5.6474692290103556e-01 +7.7325840729601127e+00 -6.9248389132517674e-01 -9.6612376879190691e+00 +4.5244385812062701e+03 -1.3654474397251461e+05 -2.1788118444044068e+07 
+5.0000000000000000e-01 -5.6474687968186210e-01 +7.7325648330026375e+00 -6.8710120003346564e-01 -9.4262537338563295e+00 +4.4627156903266923e+03 -1.3769919968214890e+05 -2.1622184271255489e+07 
+5.9999999999999998e-01 -5.6474684133329234e-01 +7.7325436245860022e+00 -6.8184464798003297e-01 -9.1237414081982102e+00 +4.4039622410119882e+03 -1.3931086230560875e+05 -2.1471987232072126e+07 
+6.9999999999999996e-01 -5.6474680687517609e-01 +7.7325208509883954e+00 -6.7675471234799600e-01 -8.7636817239323612e+00 +4.3483342781890478e+03 -1.4132159146096578e+05 -2.1336779234619994e+07 
+8.0000000000000004e-01 -5.6474677532742767e-01 +7.7324969154919359e+00 -6.7187186609861216e-01 -8.3560557969011597e+00 +4.2959877671969198e+03 -1.4367324621037274e+05 -2.1215811803915981e+07 
+9.0000000000000002e-01 -5.6474674570993311e-01 +7.7324722213853772e+00 -6.6723658643557182e-01 -7.9108449018664686e+00 +4.2470787610273001e+03 -1.4630768481672692e+05 -2.1108336897720709e+07 
+1.0000000000000000e+00 -5.6474671704259982e-01 +7.7324471719545516e+00 -6.6288934806744737e-01 -7.4380302080516749e+00 +4.2017632657580707e+03 -1.4916676624755492e+05 -2.1013606247453857e+07 
+1.1000000000000001e+00 -5.6474668834539032e-01 +7.7324221704962062e+00 -6.5887062644659955e-01 -6.9475931625376210e+00 +4.1601973039166451e+03 -1.5219234801865558e+05 -2.0930871665206909e+07 
+1.2000000000000000e+00 -5.6474665863814744e-01 +7.7323976203069158e+00 -6.5522089496157820e-01 -6.4495151620855689e+00 +4.1225368637846068e+03 -1.5532628812655571e+05 -2.0859384811669152e+07 
+1.3000000000000000e+00 -5.6474662694082611e-01 +7.7323739246903971e+00 -6.5198062760963704e-01 -5.9537777617051937e+00 +4.0889379493968063e+03 -1.5851044386158721e+05 -2.0798397432894371e+07 
+1.3999999999999999e+00 -5.6474659227341562e-01 +7.7323514869575769e+00 -6.4919029453828303e-01 -5.4703626634277374e+00 +4.0595564910534190e+03 -1.6168667191522243e+05 -2.0747160919084076e+07 
+1.5000000000000000e+00 -5.6474655365586757e-01 +7.7323307104231862e+00 -6.4689036449750925e-01 -5.0092516114856620e+00 +4.0345484004836817e+03 -1.6479682903055419e+05 -2.0704926595412742e+07 
+1.6000000000000001e+00 -5.6474651010818022e-01 +7.7323119984117623e+00 -6.4512130437055704e-01 -4.5804265648704465e+00 +4.0140695558335397e+03 -1.6778277100267532e+05 -2.0670945632161345e+07 
+1.7000000000000000e+00 -5.6474646065038769e-01 +7.7322957542590727e+00 -6.4392357731661665e-01 -4.1938697247015577e+00 +3.9982757694866355e+03 -1.7058635257931100e+05 -2.0644468902099542e+07 
+1.8000000000000000e+00 -5.6474640430258405e-01 +7.7322823813020749e+00 -6.4333764343931343e-01 -3.8595632347424993e+00 +3.9873227983569318e+03 -1.7314942923290157e+05 -2.0624747021338820e+07 
+1.8999999999999999e+00 -5.6474634008486979e-01 +7.7322722828920982e+00 -6.4340395554385488e-01 -3.5874895585665487e+00 +3.9813662663847513e+03 -1.7541385499915318e+05 -2.0611029992866255e+07 
+2.0000000000000000e+00 -5.6474626701738118e-01 +7.7322658623900917e+00 -6.4416297007998990e-01 -3.3876313424814231e+00 +3.9805618711562224e+03 -1.7732148327560848e+05 -2.0602568184604868e+07 
+2.1000000000000001e+00 -5.6474618446884728e-01 +7.7322634055096522e+00 -6.4564294534186450e-01 -3.2674751846132670e+00 +3.9850579169089519e+03 -1.7882704527828630e+05 -2.0599068995995998e+07 
+2.2000000000000002e+00 -5.6474609319474067e-01 +7.7322647336967183e+00 -6.4782289239745960e-01 -3.2247883762314209e+00 +3.9949625448955849e+03 -1.7993520169978269e+05 -2.0602008640717436e+07 
+2.2999999999999998e+00 -5.6474599429523520e-01 +7.7322695538915465e+00 -6.5066938367540317e-01 -3.2549741268982970e+00 +4.0103710803925060e+03 -1.8066270390446568e+05 -2.0613290378958870e+07 
+2.3999999999999999e+00 -5.6474588887056421e-01 +7.7322775730387932e+00 -6.5414899082363931e-01 -3.3534358163327500e+00 +4.0313788290740567e+03 -1.8102630217578352e+05 -2.0634817371306688e+07 
+2.5000000000000000e+00 -5.6474577802087100e-01 +7.7322884980799600e+00 -6.5822828826419477e-01 -3.5155767889888510e+00 +4.0580811391152592e+03 -1.8104274685442651e+05 -2.0668492960234314e+07 
+2.6000000000000001e+00 -5.6474566284635019e-01 +7.7323020359557875e+00 -6.6287384413357731e-01 -3.7368004268757224e+00 +4.0905732389661998e+03 -1.8072878790537160e+05 -2.0716219927267294e+07 
+2.7000000000000002e+00 -5.6474554444725789e-01 +7.7323178936043346e+00 -6.6805223112451673e-01 -4.0125101082482475e+00 +4.1289504305132541e+03 -1.8010117510927271e+05 -2.0779901376407702e+07 
+2.7999999999999998e+00 -5.6474542392370819e-01 +7.7323357779589088e+00 -6.7373001841076563e-01 -4.3381091605603030e+00 +4.1733079466943191e+03 -1.7917665828920275e+05 -2.0861440088867705e+07 
+2.8999999999999999e+00 -5.6474530237591214e-01 +7.7323553959561933e+00 -6.7987377871766741e-01 -4.7090010896007071e+00 +4.2237410741680605e+03 -1.7797198599942881e+05 -2.0962739075126227e+07 
+3.0000000000000000e+00 -5.6474518090401649e-01 +7.7323764545190192e+00 -6.8645008104829930e-01 -5.1205891163171984e+00 +4.2803450202586564e+03 -1.7650390809817280e+05 -2.1085700957632173e+07 
+3.1000000000000001e+00 -5.6474506060817797e-01 +7.7323986605726427e+00 -6.9342549525545372e-01 -5.5682766346853274e+00 +4.3432149958830878e+03 -1.7478917312972629e+05 -2.1232228352701075e+07 
+3.2000000000000002e+00 -5.6474494258854624e-01 +7.7324217210324502e+00 -7.0076659437439237e-01 -6.0474668779368441e+00 +4.4124462649331099e+03 -1.7284453018545322e+05 -2.1404224123683617e+07 
+3.2999999999999998e+00 -5.6474482794519698e-01 +7.7324453428126905e+00 -7.0843994814942157e-01 -6.5535631883375753e+00 +4.4881340138262949e+03 -1.7068672728710444e+05 -2.1603590738607235e+07 
+3.3999999999999999e+00 -5.6474471777832702e-01 +7.7324692328177749e+00 -7.1641212704899015e-01 -7.0819687562138824e+00 +4.5703734295152435e+03 -1.6833251292358318e+05 -2.1832230647816200e+07 
+3.5000000000000000e+00 -5.6474461318792890e-01 +7.7324930979441504e+00 -7.2464970372750792e-01 -7.6280867005177999e+00 +4.6592597245968545e+03 -1.6579863549417665e+05 -2.2092046396176953e+07 
+3.6000000000000001e+00 -5.6474451527412473e-01 +7.7325166450813665e+00 -7.3311925082692275e-01 -8.1873200951775615e+00 +4.7548881013932923e+03 -1.6310184317140534e+05 -2.2384940469735425e+07 
+3.7000000000000002e+00 -5.6474442513692436e-01 +7.7325395811110731e+00 -7.4178734193567453e-01 -8.7550719668605410e+00 +4.8573537592546427e+03 -1.6025888382773136e+05 -2.2712815299972951e+07 
+3.7999999999999998e+00 -5.6474434387636097e-01 +7.7325616129031731e+00 -7.5062054901201747e-01 -9.3267451869496423e+00 +4.9667518538727454e+03 -1.5728650564668429e+05 -2.3077573096716259e+07 
+3.8999999999999999e+00 -5.6474427259240034e-01 +7.7325824473223221e+00 -7.5958544977278986e-01 -9.8977426662821806e+00 +5.0831776273921523e+03 -1.5420145596425302e+05 -2.3481116436581329e+07 
+4.0000000000000000e+00 -5.6474421238504524e-01 +7.7326017912179950e+00 -7.6864861885238134e-01 -1.0463467074046511e+01 +5.2067262524661892e+03 -1.5102048289869083e+05 -2.3925347558678243e+07 
+4.0999999999999996e+00 -5.6474416412963546e-01 +7.7326194045487666e+00 -7.7777642787406354e-01 -1.1019830228673049e+01 +5.3373447222565492e+03 -1.4776053902059980e+05 -2.4411259502239924e+07 
+4.2000000000000002e+00 -5.6474412779870731e-01 +7.7326352471104061e+00 -7.8693648100228131e-01 -1.1564383811142939e+01 +5.4744129085367085e+03 -1.4444132717273149e+05 -2.4936261339868251e+07 
+4.2999999999999998e+00 -5.6474410313787404e-01 +7.7326493255157134e+00 -7.9609717977985484e-01 -1.2094988155936109e+01 +5.6171745949295209e+03 -1.4108374254157924e+05 -2.5496875841151692e+07 
+4.4000000000000004e+00 -5.6474408989281011e-01 +7.7326616463697952e+00 -8.0522693267682555e-01 -1.2609503352101763e+01 +5.7648736972633533e+03 -1.3770868167449674e+05 -2.6089626392983768e+07 
+4.5000000000000000e+00 -5.6474408780909235e-01 +7.7326722162729009e+00 -8.1429415118333437e-01 -1.3105789319480456e+01 +5.9167542018730956e+03 -1.3433704206740943e+05 -2.6711036743209057e+07 
+4.5999999999999996e+00 -5.6474409663235248e-01 +7.7326810418239447e+00 -8.2326724329657563e-01 -1.3581705920190975e+01 +6.0720600259105759e+03 -1.3098972147175497e+05 -2.7357630287655566e+07 
+4.7000000000000002e+00 -5.6474411610818120e-01 +7.7326881296140959e+00 -8.3211462723420493e-01 -1.4035112751855015e+01 +6.2300352941034826e+03 -1.2768761915315746e+05 -2.8025931432455461e+07 
+4.7999999999999998e+00 -5.6474414598212330e-01 +7.7326934862289161e+00 -8.4080472047769561e-01 -1.4463869213545017e+01 +6.3899241210261107e+03 -1.2445163548693745e+05 -2.8712464530554358e+07 
+4.9000000000000004e+00 -5.6474418599972864e-01 +7.7326971182495932e+00 -8.4930594467575837e-01 -1.4865834539286352e+01 +6.5509707097886121e+03 -1.2130267176961101e+05 -2.9413754363537151e+07 
+5.0000000000000000e+00 -5.6474423590653888e-01 +7.7326990322528211e+00 -8.5758672327135543e-01 -1.5238867782905828e+01 +6.7124193040538612e+03 -1.1826163032461934e+05 -3.0126325906451065e+07 
+5.0999999999999996e+00 -5.6474429544808180e-01 +7.7326992348068879e+00 -8.6561548635009333e-01 -1.5580827706212858e+01 +6.8735142853561729e+03 -1.1534941514655299e+05 -3.0846704803235903e+07 
+5.2000000000000002e+00 -5.6474436436982300e-01 +7.7326977324768666e+00 -8.7336066593057082e-01 -1.5889572923471288e+01 +7.0335000801184842e+03 -1.1258693107146176e+05 -3.1571416912670687e+07 
+5.2999999999999998e+00 -5.6474444241724686e-01 +7.7326945318197771e+00 -8.8079069679937849e-01 -1.6162961747437198e+01 +7.1916211799615639e+03 -1.0999508469751442e+05 -3.2296988417392503e+07 
+5.4000000000000004e+00 -5.6474452933580532e-01 +7.7326896393904407e+00 -8.8787402245489100e-01 -1.6398852379201397e+01 +7.3471222499868527e+03 -1.0759478322591544e+05 -3.3019946323440965e+07 
+5.5000000000000000e+00 -5.6474462487089183e-01 +7.7326830617314553e+00 -8.9457908470126557e-01 -1.6595102579742345e+01 +7.4992479370279761e+03 -1.0540693646544848e+05 -3.3736817566396505e+07 
+5.5999999999999996e+00 -5.6474472876799331e-01 +7.7326748053817713e+00 -9.0087433274907169e-01 -1.6749569946971327e+01 +7.6472430393285977e+03 -1.0345245513354646e+05 -3.4444129805176079e+07 
+5.7000000000000002e+00 -5.6474484077240827e-01 +7.7326648768753570e+00 -9.0672822015560950e-01 -1.6860111838121028e+01 +7.7903524521771751e+03 -1.0175225141579105e+05 -3.5138411174463250e+07 
+5.7999999999999998e+00 -5.6474496062953894e-01 +7.7326532827383492e+00 -9.1210920673334983e-01 -1.6924585318243196e+01 +7.9278212020723277e+03 -1.0032723916090111e+05 -3.5816190439492315e+07 
+5.9000000000000004e+00 -5.6474508808468438e-01 +7.7326400294862880e+00 -9.1698575301826224e-01 -1.6940847053052110e+01 +8.0588943450199768e+03 -9.9198334587236997e+04 -3.6473996521679327e+07 
+5.9999999999999902e+00 -5.6474522288321982e-01 +7.7326251236334826e+00 -9.2132632928541991e-01 -1.6906753585411614e+01 +8.1828171329046754e+03 -9.8386454629633416e+04 -3.7108359272160284e+07 
+6.0999999999999899e+00 -5.6474536474144954e-01 +7.7326085763171966e+00 -9.2510958175970293e-01 -1.6820656076986285e+01 +8.2989630274933625e+03 -9.7908406031644205e+04 -3.7716183551535465e+07 
+6.1999999999999904e+00 -5.6474551327080269e-01 +7.7325904201465221e+00 -9.2835355033185440e-01 -1.6682724153788129e+01 +8.4072069489167679e+03 -9.7766048740211030e+04 -3.8295882019552112e+07 
+6.2999999999999901e+00 -5.6474566805900750e-01 +7.7325706938691035e+00 -9.3108582128707273e-01 -1.6493545105292139e+01 +8.5075463270761065e+03 -9.7957850482478112e+04 -3.8846244493429385e+07 
+6.3999999999999897e+00 -5.6474582869377576e-01 +7.7325494362445282e+00 -9.3333397976434340e-01 -1.6253706384435457e+01 +8.5999785735232781e+03 -9.8482278710169776e+04 -3.9366060704018585e+07 
+6.4999999999999902e+00 -5.6474599476275766e-01 +7.7325266860398241e+00 -9.3512561249422987e-01 -1.5963795478704737e+01 +8.6845011355505630e+03 -9.9337801351798422e+04 -3.9854120554143697e+07 
+6.5999999999999899e+00 -5.6474616585370263e-01 +7.7325024820286838e+00 -9.3648830788999604e-01 -1.5624399876966402e+01 +8.7611114935007990e+03 -1.0052288704999808e+05 -4.0309214096570082e+07 
+6.6999999999999904e+00 -5.6474634155427994e-01 +7.7324768630011587e+00 -9.3744965498972488e-01 -1.5236107353398594e+01 +8.8298071482149026e+03 -1.0203600351614108e+05 -4.0730131493679523e+07 
+6.7999999999999901e+00 -5.6474652145217452e-01 +7.7324498677596187e+00 -9.3803724452150161e-01 -1.4799505831920323e+01 +8.8905856333294814e+03 -1.0387561837433602e+05 -4.1115663052885771e+07 
+6.8999999999999897e+00 -5.6474670513509240e-01 +7.7324215351118779e+00 -9.3827866556254935e-01 -1.4315183173031000e+01 +8.9434444582617871e+03 -1.0604020045620624e+05 -4.1464598974213362e+07 
+6.9999999999999902e+00 -5.6474689219072383e-01 +7.7323919038842091e+00 -9.3820151303543298e-01 -1.3783727574356041e+01 +8.9883812474216302e+03 -1.0852821740113951e+05 -4.1775730003690891e+07 
+7.0999999999999899e+00 -5.6474708220673364e-01 +7.7323610129099851e+00 -9.3783337925586807e-01 -1.3205727202118974e+01 +9.0253935820974621e+03 -1.1133813793693141e+05 -4.2047846685035355e+07 
+7.1999999999999904e+00 -5.6474727477080622e-01 +7.7323289010379161e+00 -9.3720185741259743e-01 -1.2581770436919324e+01 +9.0544790629578874e+03 -1.1446843042624134e+05 -4.2279739651731990e+07 
+7.2999999999999901e+00 -5.6474746947064369e-01 +7.7322956071338700e+00 -9.3633454325222465e-01 -1.1912445921827958e+01 +9.0756353447611200e+03 -1.1791756261812533e+05 -4.2470199794159569e+07 
+7.3999999999999897e+00 -5.6474766589386438e-01 +7.7322611700740556e+00 -9.3525903316295422e-01 -1.1198342348255579e+01 +9.0888601022764669e+03 -1.2168400294394098e+05 -4.2618018107089683e+07 
+7.4999999999999902e+00 -5.6474786362822238e-01 +7.7322256287503857e+00 -9.3400292446789168e-01 -1.0440048617556563e+01 +9.0941510296163415e+03 -1.2576621956937779e+05 -4.2721985667252064e+07 
+7.5999999999999899e+00 -5.6474806226132257e-01 +7.7321890220694760e+00 -9.3259381312416512e-01 -9.6381537898821001e+00 +9.0915058029641314e+03 -1.3016268076950112e+05 -4.2780893474912398e+07 
+7.6999999999999904e+00 -5.6474826138085554e-01 +7.7321513889538656e+00 -9.3105929927038766e-01 -8.7932471218822705e+00 +9.0809221837430196e+03 -1.3487185470257816e+05 -4.2793532936279848e+07 
+7.7999999999999901e+00 -5.6474846057451367e-01 +7.7321127683434066e+00 -9.2942698315384320e-01 -7.9059181057481576e+00 +9.0623979390471759e+03 -1.3989220920490386e+05 -4.2758695481254295e+07 
+7.8999999999999897e+00 -5.6474865942994457e-01 +7.7320731991927580e+00 -9.2772446478844917e-01 -6.9767563717910965e+00 +9.0359308398561425e+03 -1.4522221242656338e+05 -4.2675172565970458e+07 
+7.9999999999999902e+00 -5.6474885753485660e-01 +7.7320327204740673e+00 -9.2597934460295972e-01 -6.0063517647102662e+00 +9.0015186735788775e+03 -1.5086033221811516e+05 -4.2541755715930887e+07 
+8.0999999999999908e+00 -5.6474905461624980e-01 +7.7319914020266225e+00 -9.2421368831528616e-01 -4.9962973876536632e+00 +8.9592419873767885e+03 -1.5679754746151844e+05 -4.2357983870273933e+07 
+8.1999999999999904e+00 -5.6474925098461604e-01 +7.7319494557189792e+00 -9.2242556501774131e-01 -3.9531743734815010e+00 +8.9094994952865909e+03 -1.6298944519156971e+05 -4.2126463343748495e+07 
+8.2999999999999901e+00 -5.6474944710288999e-01 +7.7319071337750183e+00 -9.2060661249160969e-01 -2.8850670897384152e+00 +8.8527689372924378e+03 -1.6938129037433144e+05 -4.1850602534425959e+07 
+8.3999999999999897e+00 -5.6474964343410095e-01 +7.7318646884039666e+00 -9.1874845966233631e-01 -1.8000597765572899e+00 +8.7895278817340422e+03 -1.7591834783014664e+05 -4.1533809058541432e+07 
+8.4999999999999893e+00 -5.6474984044141674e-01 +7.7318223718053094e+00 -9.1684272091486629e-01 -7.0623666696317955e-01 +8.7202536084823460e+03 -1.8254588152626369e+05 -4.1179489170026407e+07 
+8.5999999999999908e+00 -5.6475003858802719e-01 +7.7317804361656526e+00 -9.1488099881018459e-01 +3.8831810146609674e-01 +8.6454231531564437e+03 -1.8920915509338977e+05 -4.0791047953981966e+07 
+8.6999999999999904e+00 -5.6475023833726989e-01 +7.7317391336572943e+00 -9.1285488035196571e-01 +1.4755205179255684e+00 +8.5655132448708391e+03 -1.9585343196655205e+05 -4.0371889054683834e+07 
+8.7999999999999794e+00 -5.6475044015255560e-01 +7.7316987164420050e+00 -9.1075594177796049e-01 +2.5472865714188133e+00 +8.4810003913584496e+03 -2.0242397460233953e+05 -3.9925415066810958e+07 
+8.8999999999999808e+00 -5.6475064449745171e-01 +7.7316594366651570e+00 -9.0857574239786498e-01 +3.5955324207709620e+00 +8.3923607660474954e+03 -2.0886604545301473e+05 -3.9455027009975202e+07 
+8.9999999999999805e+00 -5.6475085183556495e-01 +7.7316215464591744e+00 -9.0630582772242141e-01 +4.6121742813216526e+00 +8.3000702595179118e+03 -2.1512490626929290e+05 -3.8964124553327143e+07 
+9.0999999999999801e+00 -5.6475106263065911e-01 +7.7315852979417237e+00 -9.0393772621292534e-01 +5.5891284627171940e+00 +8.2046044271578940e+03 -2.2114581828150968e+05 -3.8456105795503601e+07 
+9.1999999999999797e+00 -5.6475127734657127e-01 +7.7315509432172398e+00 -9.0146295508985663e-01 +6.5183113203395537e+00 +8.1064385875780581e+03 -2.2687404189317930e+05 -3.7934367699217141e+07 
+9.2999999999999794e+00 -5.6475149644732980e-01 +7.7315187343716465e+00 -8.9887301064267855e-01 +7.3916393979654051e+00 +8.0060476507998601e+03 -2.3225483747372776e+05 -3.7402305309899718e+07 
+9.3999999999999808e+00 -5.6475172039698440e-01 +7.7314889234747017e+00 -8.9615937671649348e-01 +8.2010293452515040e+00 +7.9039062654140635e+03 -2.3723346484868813e+05 -3.6863312419915557e+07 
+9.4999999999999805e+00 -5.6475194965976794e-01 +7.7314617625869424e+00 -8.9331351756877964e-01 +8.9383977161657864e+00 +7.8004886974759147e+03 -2.4175518210652540e+05 -3.6320781031942651e+07 
+9.5999999999999801e+00 -5.6475218470001598e-01 +7.7314375037446679e+00 -8.9032688197110987e-01 +9.5956613773575548e+00 +7.6962688933328227e+03 -2.4576524790286008e+05 -3.5778101619554423e+07 
+9.6999999999999797e+00 -5.6475242598223185e-01 +7.7314163989697153e+00 -8.8719090011092905e-01 +1.0164737241273883e+01 +7.5917204302789341e+03 -2.4920891994556962e+05 -3.5238662919135533e+07 
+9.7999999999999794e+00 -5.6475267397098794e-01 +7.7313987002654674e+00 -8.8389698460698096e-01 +1.0637542344333541e+01 +7.4873165304828808e+03 -2.5203145534370735e+05 -3.4705851983599417e+07 
+9.8999999999999808e+00 -5.6475292913100761e-01 +7.7313846596213720e+00 -8.8043653111476328e-01 +1.1005993723427128e+01 +7.3835300742531654e+03 -2.5417810990668510e+05 -3.4183054250974752e+07 
+9.9999999999999805e+00 -5.6475319192719753e-01 +7.7313745290045288e+00 -8.7680091389607018e-01 +1.1262008650057613e+01 +7.2808335119821577e+03 -2.5559413998219071e+05 -3.3673653163146898e+07 
+1.0100000000000000e+01 -5.6475346271731452e-01 +7.7313684699710530e+00 -8.7298994057760337e-01 +1.1399862331530024e+01 +7.1797175738223450e+03 -2.5624035898777144e+05 -3.3180898523754634e+07 
