# field on trajectory
# s[mm] rx[mm] ry[mm] rz[mm] bx[T] by[T] bz[T]
0.0000000000000000e+00 +8.1649999999999991e+00 +0.0000000000000000e+00 +0.0000000000000000e+00 -2.9438598427541363e-02 -5.6513184578657694e-01 +5.6288340875832949e-03
1.0000000000000001e-01 +8.1649997166976132e+00 +0.0000000000000000e+00 +9.9999999999464934e-02 -2.9438565183701991e-02 -5.6513176891879269e-01 +5.6288519939189869e-03
2.0000000000000001e-01 +8.1649988667905031e+00 +0.0000000000000000e+00 +1.9999999999571944e-01 -2.9438534915896541e-02 -5.6513170133241941e-01 +5.6288710833133585e-03
3.0000000000000004e-01 +8.1649974502787366e+00 +0.0000000000000000e+00 +2.9999999998555316e-01 -2.9438507821324858e-02 -5.6513164242471325e-01 +5.6288912846315887e-03
4.0000000000000002e-01 +8.1649954671623739e+00 +0.0000000000000000e+00 +3.9999999996575564e-01 -2.9438484097187731e-02 -5.6513159159290616e-01 +5.6289125267397931e-03
5.0000000000000000e-01 +8.1649929174414666e+00 +0.0000000000000000e+00 +4.9999999993311650e-01 -2.9438463940685788e-02 -5.6513154823420908e-01 +5.6289347385049000e-03
5.9999999999999998e-01 +8.1649898011160573e+00 +0.0000000000000000e+00 +5.9999999988442532e-01 -2.9438447549018129e-02 -5.6513151174581555e-01 +5.6289578487944830e-03
6.9999999999999996e-01 +8.1649861181861834e+00 +0.0000000000000000e+00 +6.9999999981647165e-01 -2.9438435119381188e-02 -5.6513148152490289e-01 +5.6289817864766337e-03
7.9999999999999993e-01 +8.1649818686518749e+00 +0.0000000000000000e+00 +7.9999999972604519e-01 -2.9438426848967431e-02 -5.6513145696863709e-01 +5.6290064804198165e-03
8.9999999999999991e-01 +8.1649770525131569e+00 +0.0000000000000000e+00 +8.9999999960993549e-01 -2.9438422934964101e-02 -5.6513143747417416e-01 +5.6290318594927110e-03
9.9999999999999989e-01 +8.1649716697700487e+00 +0.0000000000000000e+00 +9.9999999946493212e-01 -2.9438423574552005e-02 -5.6513142243866377e-01 +5.6290578525640938e-03
1.0999999999999999e+00 +8.1649657204225647e+00 +0.0000000000000000e+00 +1.0999999992878247e+00 -2.9438428964904294e-02 -5.6513141125925292e-01 +5.6290843885026696e-03
1.2000000000000000e+00 +8.1649592044707173e+00 +0.0000000000000000e+00 +1.1999999990754027e+00 -2.9438439303185175e-02 -5.6513140333308853e-01 +5.6291113961769498e-03
1.3000000000000000e+00 +8.1649521219145154e+00 +0.0000000000000000e+00 +1.2999999988244559e+00 -2.9438454786548648e-02 -5.6513139805731849e-01 +5.6291388044550882e-03
1.4000000000000001e+00 +8.1649444727539642e+00 +0.0000000000000000e+00 +1.3999999985317739e+00 -2.9438475612137315e-02 -5.6513139482909858e-01 +5.6291665422047521e-03
1.5000000000000002e+00 +8.1649362569890673e+00 +0.0000000000000000e+00 +1.4999999981941461e+00 -2.9438501977081165e-02 -5.6513139304559201e-01 +5.6291945382929871e-03
1.6000000000000003e+00 +8.1649274746198266e+00 +0.0000000000000000e+00 +1.5999999978083623e+00 -2.9438534078496212e-02 -5.6513139210397301e-01 +5.6292227215860441e-03
1.7000000000000004e+00 +8.1649181256462420e+00 +0.0000000000000000e+00 +1.6999999973712121e+00 -2.9438572113483351e-02 -5.6513139140143143e-01 +5.6292510209492606e-03
1.8000000000000005e+00 +8.1649082100683170e+00 +0.0000000000000000e+00 +1.7999999968794849e+00 -2.9438616279127115e-02 -5.6513139033517434e-01 +5.6292793652469161e-03
1.9000000000000006e+00 +8.1648977278860517e+00 +0.0000000000000000e+00 +1.8999999963299703e+00 -2.9438666772494342e-02 -5.6513138830242893e-01 +5.6293076833420774e-03
2.0000000000000004e+00 +8.1648866790994479e+00 +0.0000000000000000e+00 +1.9999999957194581e+00 -2.9438723790633069e-02 -5.6513138470044644e-01 +5.6293359040964636e-03
2.1000000000000005e+00 +8.1648750637085108e+00 +0.0000000000000000e+00 +2.0999999950447377e+00 -2.9438787402084526e-02 -5.6513137915761225e-01 +5.6293639696911226e-03
2.2000000000000006e+00 +8.1648628817132458e+00 +0.0000000000000000e+00 +2.1999999943025990e+00 -2.9438857161432214e-02 -5.6513137222676912e-01 +5.6293918755888853e-03
2.3000000000000007e+00 +8.1648501331136600e+00 +0.0000000000000000e+00 +2.2999999934898314e+00 -2.9438932494779971e-02 -5.6513136469188807e-01 +5.6294196305719723e-03
2.4000000000000008e+00 +8.1648368179097623e+00 +0.0000000000000000e+00 +2.3999999926032243e+00 -2.9439012828243304e-02 -5.6513135733695941e-01 +5.6294472434210777e-03
2.5000000000000009e+00 +8.1648229361015598e+00 +0.0000000000000000e+00 +2.4999999916395677e+00 -2.9439097587951671e-02 -5.6513135094599487e-01 +5.6294747229152777e-03
2.6000000000000010e+00 +8.1648084876890596e+00 +0.0000000000000000e+00 +2.5999999905956508e+00 -2.9439186200050812e-02 -5.6513134630302919e-01 +5.6295020778319221e-03
2.7000000000000011e+00 +8.1647934726722653e+00 +0.0000000000000000e+00 +2.6999999894682634e+00 -2.9439278090705071e-02 -5.6513134419212152e-01 +5.6295293169465310e-03
2.8000000000000012e+00 +8.1647778910511803e+00 +0.0000000000000000e+00 +2.7999999882541950e+00 -2.9439372686099662e-02 -5.6513134539735599e-01 +5.6295564490326990e-03
2.9000000000000012e+00 +8.1647617428258048e+00 +0.0000000000000000e+00 +2.8999999869502355e+00 -2.9439469412443006e-02 -5.6513135070284504e-01 +5.6295834828619844e-03
3.0000000000000013e+00 +8.1647450279961333e+00 +0.0000000000000000e+00 +2.9999999855531740e+00 -2.9439567695969060e-02 -5.6513136089272831e-01 +5.6296104272038098e-03
3.1000000000000014e+00 +8.1647277465621553e+00 +0.0000000000000000e+00 +3.0999999840598003e+00 -2.9439666962939561e-02 -5.6513137675117620e-01 +5.6296372908253524e-03
3.2000000000000015e+00 +8.1647098985238564e+00 +0.0000000000000000e+00 +3.1999999824669043e+00 -2.9439766639646398e-02 -5.6513139906239029e-01 +5.6296640824914611e-03
3.3000000000000016e+00 +8.1646914838812137e+00 +0.0000000000000000e+00 +3.2999999807712754e+00 -2.9439866152413882e-02 -5.6513142861060517e-01 +5.6296908109645305e-03
3.4000000000000017e+00 +8.1646725026341986e+00 +0.0000000000000000e+00 +3.3999999789697029e+00 -2.9439964927601054e-02 -5.6513146618008947e-01 +5.6297174850044093e-03
3.5000000000000018e+00 +8.1646529547827758e+00 +0.0000000000000000e+00 +3.4999999770589767e+00 -2.9440062391604023e-02 -5.6513151255514782e-01 +5.6297441133682929e-03
3.6000000000000019e+00 +8.1646328403268971e+00 +0.0000000000000000e+00 +3.5999999750358862e+00 -2.9440157970858260e-02 -5.6513156852012203e-01 +5.6297707048106388e-03
3.7000000000000020e+00 +8.1646121592665075e+00 +0.0000000000000000e+00 +3.6999999728972210e+00 -2.9440251091840865e-02 -5.6513163485939233e-01 +5.6297972680830278e-03
3.8000000000000020e+00 +8.1645909116015414e+00 +0.0000000000000000e+00 +3.7999999706397709e+00 -2.9440341181072929e-02 -5.6513171235737880e-01 +5.6298238119340980e-03
3.9000000000000021e+00 +8.1645690973319205e+00 +0.0000000000000000e+00 +3.8999999682603255e+00 -2.9440427665121831e-02 -5.6513180179854339e-01 +5.6298503451094129e-03
4.0000000000000018e+00 +8.1645467164575578e+00 +0.0000000000000000e+00 +3.9999999657556740e+00 -2.9440509970603507e-02 -5.6513190396739088e-01 +5.6298768763513845e-03
4.1000000000000014e+00 +8.1645237689783503e+00 +0.0000000000000000e+00 +4.0999999631226061e+00 -2.9440587647711226e-02 -5.6513201941225966e-01 +5.6299034304367985e-03
4.2000000000000011e+00 +8.1645002548941825e+00 +0.0000000000000000e+00 +4.1999999603579115e+00 -2.9440660740776111e-02 -5.6513214773666509e-01 +5.6299300962921262e-03
4.3000000000000007e+00 +8.1644761742049266e+00 +0.0000000000000000e+00 +4.2999999574583798e+00 -2.9440729417650541e-02 -5.6513228830788920e-01 +5.6299569788847816e-03
4.4000000000000004e+00 +8.1644515269104438e+00 +0.0000000000000000e+00 +4.3999999544208004e+00 -2.9440793846174634e-02 -5.6513244049317957e-01 +5.6299841831863543e-03
4.5000000000000000e+00 +8.1644263130105816e+00 +0.0000000000000000e+00 +4.4999999512419624e+00 -2.9440854194174818e-02 -5.6513260365975104e-01 +5.6300118141729416e-03
4.5999999999999996e+00 +8.1644005325051783e+00 +0.0000000000000000e+00 +4.5999999479186560e+00 -2.9440910629462066e-02 -5.6513277717477728e-01 +5.6300399768254581e-03
4.6999999999999993e+00 +8.1643741853940597e+00 +0.0000000000000000e+00 +4.6999999444476712e+00 -2.9440963319830458e-02 -5.6513296040539107e-01 +5.6300687761299739e-03
4.7999999999999989e+00 +8.1643472716770429e+00 +0.0000000000000000e+00 +4.7999999408257965e+00 -2.9441012433055525e-02 -5.6513315271868136e-01 +5.6300983170780470e-03
4.8999999999999986e+00 +8.1643197913539360e+00 +0.0000000000000000e+00 +4.8999999370498220e+00 -2.9441058136892670e-02 -5.6513335348168792e-01 +5.6301287046670381e-03
4.9999999999999982e+00 +8.1642917444245384e+00 +0.0000000000000000e+00 +4.9999999331165368e+00 -2.9441100599075648e-02 -5.6513356206139986e-01 +5.6301600439004531e-03
5.0999999999999979e+00 +8.1642631308886422e+00 +0.0000000000000000e+00 +5.0999999290227311e+00 -2.9441139987314870e-02 -5.6513377782475327e-01 +5.6301924397882458e-03
5.1999999999999975e+00 +8.1642339507460324e+00 +0.0000000000000000e+00 +5.1999999247651933e+00 -2.9441176469295949e-02 -5.6513400013862625e-01 +5.6302259973471805e-03
5.2999999999999972e+00 +8.1642042039964871e+00 +0.0000000000000000e+00 +5.2999999203407135e+00 -2.9441210212678023e-02 -5.6513422836983696e-01 +5.6302608216011246e-03
5.3999999999999968e+00 +8.1641738906397787e+00 +0.0000000000000000e+00 +5.3999999157460818e+00 -2.9441241385092194e-02 -5.6513446188513927e-01 +5.6302970175813993e-03
5.4999999999999964e+00 +8.1641430106756729e+00 +0.0000000000000000e+00 +5.4999999109780866e+00 -2.9441270154139994e-02 -5.6513470005122268e-01 +5.6303346903270914e-03
5.5999999999999961e+00 +8.1641115641039335e+00 +0.0000000000000000e+00 +5.5999999060335179e+00 -2.9441296687391760e-02 -5.6513494223470628e-01 +5.6303739448853975e-03
5.6999999999999957e+00 +8.1640795509243187e+00 +0.0000000000000000e+00 +5.6999999009091660e+00 -2.9441321152385024e-02 -5.6513518780213623e-01 +5.6304148863119338e-03
5.7999999999999954e+00 +8.1640469711365817e+00 +0.0000000000000000e+00 +5.7999998956018191e+00 -2.9441343716623016e-02 -5.6513543611998396e-01 +5.6304576196710716e-03
5.8999999999999950e+00 +8.1640138247404757e+00 +0.0000000000000000e+00 +5.8999998901082673e+00 -2.9441364547572985e-02 -5.6513568655464153e-01 +5.6305022500362650e-03
5.9999999999999947e+00 +8.1639801117357518e+00 +0.0000000000000000e+00 +5.9999998844253000e+00 -2.9441383812664711e-02 -5.6513593847241972e-01 +5.6305488824903768e-03
6.0999999999999943e+00 +8.1639458321221561e+00 +0.0000000000000000e+00 +6.0999998785497063e+00 -2.9441401676943982e-02 -5.6513619138969495e-01 +5.6305975939388688e-03
6.1999999999999940e+00 +8.1639109858994381e+00 +0.0000000000000000e+00 +6.1999998724782763e+00 -2.9441418296042177e-02 -5.6513644542339625e-01 +5.6306483485448209e-03
6.2999999999999936e+00 +8.1638755730673438e+00 +0.0000000000000000e+00 +6.2999998662077994e+00 -2.9441433823219783e-02 -5.6513670084061063e-01 +5.6307010822844641e-03
6.3999999999999932e+00 +8.1638395936256174e+00 +0.0000000000000000e+00 +6.3999998597350647e+00 -2.9441448411711767e-02 -5.6513695790844332e-01 +5.6307557311335481e-03
6.4999999999999929e+00 +8.1638030475740031e+00 +0.0000000000000000e+00 +6.4999998530568615e+00 -2.9441462214726745e-02 -5.6513721689401553e-01 +5.6308122310672441e-03
6.5999999999999925e+00 +8.1637659349122416e+00 +0.0000000000000000e+00 +6.5999998461699789e+00 -2.9441475385446059e-02 -5.6513747806446968e-01 +5.6308705180600398e-03
6.6999999999999922e+00 +8.1637282556400734e+00 +0.0000000000000000e+00 +6.6999998390712072e+00 -2.9441488077022970e-02 -5.6513774168696762e-01 +5.6309305280856283e-03
6.7999999999999918e+00 +8.1636900097572358e+00 +0.0000000000000000e+00 +6.7999998317573356e+00 -2.9441500442581727e-02 -5.6513800802869329e-01 +5.6309921971168094e-03
6.8999999999999915e+00 +8.1636511972634604e+00 +0.0000000000000000e+00 +6.8999998242251532e+00 -2.9441512635216712e-02 -5.6513827735685251e-01 +5.6310554611253890e-03
6.9999999999999911e+00 +8.1636118181584809e+00 +0.0000000000000000e+00 +6.9999998164714494e+00 -2.9441524807991594e-02 -5.6513854993867629e-01 +5.6311202560820695e-03
7.0999999999999908e+00 +8.1635718724420236e+00 +0.0000000000000000e+00 +7.0999998084930143e+00 -2.9441537113938404e-02 -5.6513882604142007e-01 +5.6311865179563539e-03
7.1999999999999904e+00 +8.1635313601138133e+00 +0.0000000000000000e+00 +7.1999998002866361e+00 -2.9441549706056707e-02 -5.6513910593236594e-01 +5.6312541827164327e-03
7.2999999999999901e+00 +8.1634902811735710e+00 +0.0000000000000000e+00 +7.2999997918491051e+00 -2.9441562737312736e-02 -5.6513938987882295e-01 +5.6313231863290890e-03
7.3999999999999897e+00 +8.1634486356210143e+00 +0.0000000000000000e+00 +7.3999997831772104e+00 -2.9441576360638454e-02 -5.6513967814812982e-01 +5.6313934647595930e-03
7.4999999999999893e+00 +8.1634064234558537e+00 +0.0000000000000000e+00 +7.4999997742677422e+00 -2.9441590728930777e-02 -5.6513997100765434e-01 +5.6314649539715910e-03
7.5999999999999890e+00 +8.1633636446777977e+00 +0.0000000000000000e+00 +7.5999997651174889e+00 -2.9441605995050617e-02 -5.6514026872479550e-01 +5.6315375899270090e-03
7.6999999999999886e+00 +8.1633202992865499e+00 +0.0000000000000000e+00 +7.6999997557232396e+00 -2.9441622311822069e-02 -5.6514057156698527e-01 +5.6316113085859527e-03
7.7999999999999883e+00 +8.1632763872818064e+00 +0.0000000000000000e+00 +7.7999997460817845e+00 -2.9441639832031546e-02 -5.6514087980168826e-01 +5.6316860459065948e-03
7.8999999999999879e+00 +8.1632319086632616e+00 +0.0000000000000000e+00 +7.8999997361899128e+00 -2.9441658708426813e-02 -5.6514119369640381e-01 +5.6317617378450731e-03
7.9999999999999876e+00 +8.1631868634306013e+00 +0.0000000000000000e+00 +7.9999997260444138e+00 -2.9441679093716276e-02 -5.6514151351866793e-01 +5.6318383203553942e-03
8.0999999999999872e+00 +8.1631412515835056e+00 +0.0000000000000000e+00 +8.0999997156420758e+00 -2.9441701064962654e-02 -5.6514183937918161e-01 +5.6319157257095900e-03
8.1999999999999869e+00 +8.1630950731216494e+00 +0.0000000000000000e+00 +8.1999997049796889e+00 -2.9441724396790089e-02 -5.6514217076120543e-01 +5.6319938714557947e-03
8.2999999999999865e+00 +8.1630483280447024e+00 +0.0000000000000000e+00 +8.2999996940540441e+00 -2.9441748788247485e-02 -5.6514250699118884e-01 +5.6320726714528761e-03
8.3999999999999861e+00 +8.1630010163523288e+00 +0.0000000000000000e+00 +8.3999996828619281e+00 -2.9441773938423028e-02 -5.6514284739564835e-01 +5.6321520395492758e-03
8.4999999999999858e+00 +8.1629531380441893e+00 +0.0000000000000000e+00 +8.4999996714001309e+00 -2.9441799546445751e-02 -5.6514319130116852e-01 +5.6322318895826702e-03
8.5999999999999854e+00 +8.1629046931199394e+00 +0.0000000000000000e+00 +8.5999996596654427e+00 -2.9441825311487115e-02 -5.6514353803440620e-01 +5.6323121353796454e-03
8.6999999999999851e+00 +8.1628556815792344e+00 +0.0000000000000000e+00 +8.6999996476546517e+00 -2.9441850932762435e-02 -5.6514388692208894e-01 +5.6323926907553530e-03
8.7999999999999847e+00 +8.1628061034217261e+00 +0.0000000000000000e+00 +8.7999996353645482e+00 -2.9441876109532542e-02 -5.6514423729102026e-01 +5.6324734695131877e-03
8.8999999999999844e+00 +8.1627559586470646e+00 +0.0000000000000000e+00 +8.8999996227919222e+00 -2.9441900541105258e-02 -5.6514458846807958e-01 +5.6325543854444382e-03
8.9999999999999840e+00 +8.1627052472549000e+00 +0.0000000000000000e+00 +8.9999996099335604e+00 -2.9441923926836939e-02 -5.6514493978022551e-01 +5.6326353523279719e-03
9.0999999999999837e+00 +8.1626539692448805e+00 +0.0000000000000000e+00 +9.0999995967862546e+00 -2.9441945966134083e-02 -5.6514529055449714e-01 +5.6327162839298868e-03
9.1999999999999833e+00 +8.1626021246166580e+00 +0.0000000000000000e+00 +9.1999995833467931e+00 -2.9441966358454731e-02 -5.6514564011801560e-01 +5.6327970940031873e-03
9.2999999999999829e+00 +8.1625497133698826e+00 +0.0000000000000000e+00 +9.2999995696119644e+00 -2.9441984803310148e-02 -5.6514598779798664e-01 +5.6328776962874414e-03
9.3999999999999826e+00 +8.1624967355042060e+00 +0.0000000000000000e+00 +9.3999995555785585e+00 -2.9442001000266303e-02 -5.6514633292170391e-01 +5.6329580045084574e-03
9.4999999999999822e+00 +8.1624431910192854e+00 +0.0000000000000000e+00 +9.4999995412433638e+00 -2.9442014648945389e-02 -5.6514667481654779e-01 +5.6330379323779453e-03
9.5999999999999819e+00 +8.1623890799147798e+00 +0.0000000000000000e+00 +9.5999995266031704e+00 -2.9442025449027381e-02 -5.6514701280999025e-01 +5.6331173935931858e-03
9.6999999999999815e+00 +8.1623344021903534e+00 +0.0000000000000000e+00 +9.6999995116547684e+00 -2.9442033100251612e-02 -5.6514734622959539e-01 +5.6331963018366946e-03
9.7999999999999812e+00 +8.1622791578456724e+00 +0.0000000000000000e+00 +9.7999994963949462e+00 -2.9442037302418220e-02 -5.6514767440302216e-01 +5.6332745707758907e-03
9.8999999999999808e+00 +8.1622233468804097e+00 +0.0000000000000000e+00 +9.8999994808204921e+00 -2.9442037755389790e-02 -5.6514799665802606e-01 +5.6333521140627717e-03
9.9999999999999805e+00 +8.1621669692942440e+00 +0.0000000000000000e+00 +9.9999994649281962e+00 -2.9442034159092818e-02 -5.6514831232246043e-01 +5.6334288453335603e-03
1.0099999999999980e+01 +8.1621100250868590e+00 +0.0000000000000000e+00 +1.0099999448714847e+01 -2.9442026417440231e-02 -5.6514862104076991e-01 +5.6335047010582845e-03
1.0199999999999980e+01 +8.1620525142579492e+00 +0.0000000000000000e+00 +1.0199999432177234e+01 -2.9442015250089160e-02 -5.6514892372340275e-01 +5.6335797091016399e-03
1.0299999999999979e+01 +8.1619944368072126e+00 +0.0000000000000000e+00 +1.0299999415312147e+01 -2.9442001580637728e-02 -5.6514922159719827e-01 +5.6336539201903282e-03
1.0399999999999979e+01 +8.1619357927343525e+00 +0.0000000000000000e+00 +1.0399999398116375e+01 -2.9441986332692849e-02 -5.6514951588886431e-01 +5.6337273850653249e-03
1.0499999999999979e+01 +8.1618765820390742e+00 +0.0000000000000000e+00 +1.0499999380586708e+01 -2.9441970429870182e-02 -5.6514980782497193e-01 +5.6338001544823007e-03
1.0599999999999978e+01 +8.1618168047210879e+00 +0.0000000000000000e+00 +1.0599999362719934e+01 -2.9441954795794294e-02 -5.6515009863195342e-01 +5.6338722792120266e-03
1.0699999999999978e+01 +8.1617564607801043e+00 +0.0000000000000000e+00 +1.0699999344512843e+01 -2.9441940354098677e-02 -5.6515038953609775e-01 +5.6339438100407868e-03
1.0799999999999978e+01 +8.1616955502158319e+00 +0.0000000000000000e+00 +1.0799999325962224e+01 -2.9441928028425858e-02 -5.6515068176354688e-01 +5.6340147977708040e-03
1.0899999999999977e+01 +8.1616340730279813e+00 +0.0000000000000000e+00 +1.0899999307064865e+01 -2.9441918742427454e-02 -5.6515097654029245e-01 +5.6340852932206236e-03
1.0999999999999977e+01 +8.1615720292162575e+00 +0.0000000000000000e+00 +1.0999999287817557e+01 -2.9441913419764248e-02 -5.6515127509217200e-01 +5.6341553472255565e-03
1.1099999999999977e+01 +8.1615094187803638e+00 +0.0000000000000000e+00 +1.1099999268217088e+01 -2.9441912984106259e-02 -5.6515157864486354e-01 +5.6342250106380621e-03
1.1199999999999976e+01 +8.1614462417199967e+00 +0.0000000000000000e+00 +1.1199999248260248e+01 -2.9441918359132832e-02 -5.6515188842388531e-01 +5.6342943343281864e-03
1.1299999999999976e+01 +8.1613824980348486e+00 +0.0000000000000000e+00 +1.1299999227943825e+01 -2.9441930468532662e-02 -5.6515220565458812e-01 +5.6343633691839472e-03
1.1399999999999975e+01 +8.1613181877246035e+00 +0.0000000000000000e+00 +1.1399999207264610e+01 -2.9441950236003912e-02 -5.6515253156215450e-01 +5.6344321661117658e-03
1.1499999999999975e+01 +8.1612533107889362e+00 +0.0000000000000000e+00 +1.1499999186219391e+01 -2.9441978585254269e-02 -5.6515286737159365e-01 +5.6345007760368708e-03
1.1599999999999975e+01 +8.1611878672275129e+00 +0.0000000000000000e+00 +1.1599999164804956e+01 -2.9442016440000988e-02 -5.6515321430773757e-01 +5.6345692499037087e-03
1.1699999999999974e+01 +8.1611218570399870e+00 +0.0000000000000000e+00 +1.1699999143018095e+01 -2.9442064723970998e-02 -5.6515357359523832e-01 +5.6346376386763476e-03
1.1799999999999974e+01 +8.1610552802259999e+00 +0.0000000000000000e+00 +1.1799999120855599e+01 -2.9442124360900941e-02 -5.6515394645856354e-01 +5.6347059933389105e-03
