# field on trajectory
# s[mm] rx[mm] ry[mm] rz[mm] bx[T] by[T] bz[T]
0.0000000000000000e+00 +8.1649999999999991e+00 +0.0000000000000000e+00 +0.0000000000000000e+00 -2.9940829258143439e-02 -5.6427292928993567e-01 +5.6215178054328805e-03
1.0000000000000001e-01 +8.1649997171281505e+00 +0.0000000000000000e+00 +9.9999999999466557e-02 -2.9940898157478798e-02 -5.6427308325225844e-01 +5.6214619578566372e-03
2.0000000000000001e-01 +8.1649988685125034e+00 +0.0000000000000000e+00 +1.9999999999573245e-01 -2.9940965466250011e-02 -5.6427323719704747e-01 +5.6214043845974138e-03
3.0000000000000004e-01 +8.1649974541529033e+00 +0.0000000000000000e+00 +2.9999999998559701e-01 -2.9941030972885630e-02 -5.6427339106826846e-01 +5.6213453325149763e-03
4.0000000000000002e-01 +8.1649954740491957e+00 +0.0000000000000000e+00 +3.9999999996585961e-01 -2.9941094465810440e-02 -5.6427354480989933e-01 +5.6212850484685948e-03
5.0000000000000000e-01 +8.1649929282012259e+00 +0.0000000000000000e+00 +4.9999999993331956e-01 -2.9941155733446474e-02 -5.6427369836592656e-01 +5.6212237793171072e-03
5.9999999999999998e-01 +8.1649898166088413e+00 +0.0000000000000000e+00 +5.9999999988477615e-01 -2.9941214564214173e-02 -5.6427385168034638e-01 +5.6211617719189918e-03
6.9999999999999996e-01 +8.1649861392718872e+00 +0.0000000000000000e+00 +6.9999999981702876e-01 -2.9941270746533469e-02 -5.6427400469716471e-01 +5.6210992731324499e-03
7.9999999999999993e-01 +8.1649818961902110e+00 +0.0000000000000000e+00 +7.9999999972687674e-01 -2.9941324068824882e-02 -5.6427415736039621e-01 +5.6210365298154687e-03
8.9999999999999991e-01 +8.1649770873636598e+00 +0.0000000000000000e+00 +8.9999999961111932e-01 -2.9941374319510619e-02 -5.6427430961406422e-01 +5.6209737888258957e-03
9.9999999999999989e-01 +8.1649717127920809e+00 +0.0000000000000000e+00 +9.9999999946655582e-01 -2.9941421287015671e-02 -5.6427446140219983e-01 +5.6209112970215074e-03
1.0999999999999999e+00 +8.1649657724753215e+00 +0.0000000000000000e+00 +1.0999999992899856e+00 -2.9941464759768891e-02 -5.6427461266884149e-01 +5.6208493012600809e-03
1.2000000000000000e+00 +8.1649592664132307e+00 +0.0000000000000000e+00 +1.1999999990782080e+00 -2.9941504526204116e-02 -5.6427476335803539e-01 +5.6207880483994718e-03
1.3000000000000000e+00 +8.1649521946056591e+00 +0.0000000000000000e+00 +1.2999999988280222e+00 -2.9941540374761263e-02 -5.6427491341383385e-01 +5.6207277852976809e-03
1.4000000000000001e+00 +8.1649445570524541e+00 +0.0000000000000000e+00 +1.3999999985362277e+00 -2.9941572093887404e-02 -5.6427506278029693e-01 +5.6206687588129245e-03
1.5000000000000002e+00 +8.1649363537534683e+00 +0.0000000000000000e+00 +1.4999999981996237e+00 -2.9941599472037891e-02 -5.6427521140148873e-01 +5.6206112158037093e-03
1.6000000000000003e+00 +8.1649275847085523e+00 +0.0000000000000000e+00 +1.5999999978150097e+00 -2.9941622297677394e-02 -5.6427535922148042e-01 +5.6205554031289037e-03
1.7000000000000004e+00 +8.1649182499175570e+00 +0.0000000000000000e+00 +1.6999999973791846e+00 -2.9941640359281107e-02 -5.6427550618434752e-01 +5.6205015676478020e-03
1.8000000000000005e+00 +8.1649083493803367e+00 +0.0000000000000000e+00 +1.7999999968889480e+00 -2.9941653445335739e-02 -5.6427565223417075e-01 +5.6204499562202146e-03
1.9000000000000006e+00 +8.1648978830967440e+00 +0.0000000000000000e+00 +1.8999999963410992e+00 -2.9941661344340675e-02 -5.6427579731503474e-01 +5.6204008157065164e-03
2.0000000000000004e+00 +8.1648868510666350e+00 +0.0000000000000000e+00 +1.9999999957324373e+00 -2.9941663844809056e-02 -5.6427594137102832e-01 +5.6203543929677349e-03
2.1000000000000005e+00 +8.1648752532898659e+00 +0.0000000000000000e+00 +2.0999999950597616e+00 -2.9941660912637315e-02 -5.6427608456459466e-01 +5.6203108747182829e-03
2.2000000000000006e+00 +8.1648630897662926e+00 +0.0000000000000000e+00 +2.1999999943198718e+00 -2.9941653223208398e-02 -5.6427622793157861e-01 +5.6202702070843802e-03
2.3000000000000007e+00 +8.1648503604957714e+00 +0.0000000000000000e+00 +2.2999999935095667e+00 -2.9941641629280927e-02 -5.6427637272616948e-01 +5.6202322760468071e-03
2.4000000000000008e+00 +8.1648370654781566e+00 +0.0000000000000000e+00 +2.3999999926256459e+00 -2.9941626983619886e-02 -5.6427652020254748e-01 +5.6201969675885449e-03
2.5000000000000009e+00 +8.1648232047133025e+00 +0.0000000000000000e+00 +2.4999999916649087e+00 -2.9941610138996412e-02 -5.6427667161488215e-01 +5.6201641676949582e-03
2.6000000000000010e+00 +8.1648087782010563e+00 +0.0000000000000000e+00 +2.5999999906241542e+00 -2.9941591948187837e-02 -5.6427682821733105e-01 +5.6201337623540066e-03
2.7000000000000011e+00 +8.1647937859412618e+00 +0.0000000000000000e+00 +2.6999999895001814e+00 -2.9941573263977516e-02 -5.6427699126403863e-01 +5.6201056375564246e-03
2.8000000000000012e+00 +8.1647782279337573e+00 +0.0000000000000000e+00 +2.7999999882897901e+00 -2.9941554939154760e-02 -5.6427716200913358e-01 +5.6200796792959347e-03
2.9000000000000012e+00 +8.1647621041783704e+00 +0.0000000000000000e+00 +2.8999999869897795e+00 -2.9941537826514784e-02 -5.6427734170672883e-01 +5.6200557735694443e-03
3.0000000000000013e+00 +8.1647454146749219e+00 +0.0000000000000000e+00 +2.9999999855969484e+00 -2.9941522778858583e-02 -5.6427753161091876e-01 +5.6200338063772341e-03
3.1000000000000014e+00 +8.1647281594232215e+00 +0.0000000000000000e+00 +3.0999999841080963e+00 -2.9941510648992854e-02 -5.6427773297577766e-01 +5.6200136637231616e-03
3.2000000000000015e+00 +8.1647103384230686e+00 +0.0000000000000000e+00 +3.1999999825200227e+00 -2.9941502289729929e-02 -5.6427794705535927e-01 +5.6199952316148610e-03
3.3000000000000016e+00 +8.1646919516742482e+00 +0.0000000000000000e+00 +3.2999999808295266e+00 -2.9941498553887651e-02 -5.6427817510369471e-01 +5.6199783960639293e-03
3.4000000000000017e+00 +8.1646729991765312e+00 +0.0000000000000000e+00 +3.3999999790334074e+00 -2.9941500294289325e-02 -5.6427841837479065e-01 +5.6199630430861366e-03
3.5000000000000018e+00 +8.1646534809296760e+00 +0.0000000000000000e+00 +3.4999999771284642e+00 -2.9941508363763580e-02 -5.6427867812262700e-01 +5.6199490587016190e-03
3.6000000000000019e+00 +8.1646333969334215e+00 +0.0000000000000000e+00 +3.5999999751114964e+00 -2.9941523615144388e-02 -5.6427895560115859e-01 +5.6199363289350796e-03
3.7000000000000020e+00 +8.1646127471874905e+00 +0.0000000000000000e+00 +3.6999999729793029e+00 -2.9941546901270807e-02 -5.6427925206430896e-01 +5.6199247398159811e-03
3.8000000000000020e+00 +8.1645915316915865e+00 +0.0000000000000000e+00 +3.7999999707286833e+00 -2.9941579074987051e-02 -5.6427956876597374e-01 +5.6199141773787386e-03
3.9000000000000021e+00 +8.1645697504453931e+00 +0.0000000000000000e+00 +3.8999999683564366e+00 -2.9941620989142333e-02 -5.6427990696001440e-01 +5.6199045276629335e-03
4.0000000000000018e+00 +8.1645474034485712e+00 +0.0000000000000000e+00 +3.9999999658593617e+00 -2.9941673496590739e-02 -5.6428026790025998e-01 +5.6198956767134932e-03
4.1000000000000014e+00 +8.1645244907007584e+00 +0.0000000000000000e+00 +4.0999999632342581e+00 -2.9941737113714312e-02 -5.6428065227804203e-01 +5.6198875350591563e-03
4.2000000000000011e+00 +8.1645010122015726e+00 +0.0000000000000000e+00 +4.1999999604779248e+00 -2.9941811010985489e-02 -5.6428105853480992e-01 +5.6198801111443791e-03
4.3000000000000007e+00 +8.1644769679506055e+00 +0.0000000000000000e+00 +4.2999999575871612e+00 -2.9941894022389007e-02 -5.6428148454954208e-01 +5.6198734378890385e-03
4.4000000000000004e+00 +8.1644523579474306e+00 +0.0000000000000000e+00 +4.3999999545587665e+00 -2.9941984981897266e-02 -5.6428192820121281e-01 +5.6198675482089988e-03
4.5000000000000000e+00 +8.1644271821916057e+00 +0.0000000000000000e+00 +4.4999999513895395e+00 -2.9942082723469283e-02 -5.6428238736879310e-01 +5.6198624750157487e-03
4.5999999999999996e+00 +8.1644014406826706e+00 +0.0000000000000000e+00 +4.5999999480762792e+00 -2.9942186081049645e-02 -5.6428285993125060e-01 +5.6198582512160325e-03
4.6999999999999993e+00 +8.1643751334201529e+00 +0.0000000000000000e+00 +4.6999999446157856e+00 -2.9942293888567520e-02 -5.6428334376755040e-01 +5.6198549097114968e-03
4.7999999999999989e+00 +8.1643482604035675e+00 +0.0000000000000000e+00 +4.7999999410048568e+00 -2.9942404979935579e-02 -5.6428383675665572e-01 +5.6198524833982978e-03
4.8999999999999986e+00 +8.1643208216324226e+00 +0.0000000000000000e+00 +4.8999999372402927e+00 -2.9942518189049049e-02 -5.6428433677752765e-01 +5.6198510051667684e-03
4.9999999999999982e+00 +8.1642928171062170e+00 +0.0000000000000000e+00 +4.9999999333188923e+00 -2.9942632349784590e-02 -5.6428484170912596e-01 +5.6198505079010147e-03
5.0999999999999979e+00 +8.1642642468244464e+00 +0.0000000000000000e+00 +5.0999999292374536e+00 -2.9942746295999335e-02 -5.6428534943040942e-01 +5.6198510244785862e-03
5.1999999999999975e+00 +8.1642351107866009e+00 +0.0000000000000000e+00 +5.1999999249927766e+00 -2.9942858861529864e-02 -5.6428585782033625e-01 +5.6198525877700772e-03
5.2999999999999972e+00 +8.1642054089921743e+00 +0.0000000000000000e+00 +5.2999999205816604e+00 -2.9942968880191143e-02 -5.6428636475786531e-01 +5.6198552306387832e-03
5.3999999999999968e+00 +8.1641751414406585e+00 +0.0000000000000000e+00 +5.3999999160009038e+00 -2.9943075185775492e-02 -5.6428686812195494e-01 +5.6198589859403174e-03
5.4999999999999964e+00 +8.1641443081315490e+00 +0.0000000000000000e+00 +5.4999999112473059e+00 -2.9943176612051623e-02 -5.6428736579156458e-01 +5.6198638865222646e-03
5.5999999999999961e+00 +8.1641129090643485e+00 +0.0000000000000000e+00 +5.5999999063176658e+00 -2.9943271992763545e-02 -5.6428785564565509e-01 +5.6198699652237876e-03
5.6999999999999957e+00 +8.1640809442385684e+00 +0.0000000000000000e+00 +5.6999999012087823e+00 -2.9943360161629597e-02 -5.6428833556318880e-01 +5.6198772548752855e-03
5.7999999999999954e+00 +8.1640484136537275e+00 +0.0000000000000000e+00 +5.7999998959174537e+00 -2.9943439952341375e-02 -5.6428880342313015e-01 +5.6198857882980187e-03
5.8999999999999950e+00 +8.1640153173093584e+00 +0.0000000000000000e+00 +5.8999998904404798e+00 -2.9943510198562721e-02 -5.6428925710444644e-01 +5.6198955983037318e-03
5.9999999999999947e+00 +8.1639816552050064e+00 +0.0000000000000000e+00 +5.9999998847746596e+00 -2.9943569733928709e-02 -5.6428969448610766e-01 +5.6199067176943033e-03
6.0999999999999943e+00 +8.1639474273402346e+00 +0.0000000000000000e+00 +6.0999998789167922e+00 -2.9943617789579963e-02 -5.6429011408958551e-01 +5.6199191664512661e-03
6.1999999999999940e+00 +8.1639126337146237e+00 +0.0000000000000000e+00 +6.1999998728636765e+00 -2.9943655186788955e-02 -5.6429051700635580e-01 +5.6199329133094335e-03
6.2999999999999936e+00 +8.1638772743277723e+00 +0.0000000000000000e+00 +6.2999998666121115e+00 -2.9943683144379181e-02 -5.6429090497039314e-01 +5.6199479141949117e-03
6.3999999999999932e+00 +8.1638413491792896e+00 +0.0000000000000000e+00 +6.3999998601588963e+00 -2.9943702881191865e-02 -5.6429127971566861e-01 +5.6199641250365669e-03
6.4999999999999929e+00 +8.1638048582688025e+00 +0.0000000000000000e+00 +6.4999998535008299e+00 -2.9943715616086889e-02 -5.6429164297614942e-01 +5.6199815017661855e-03
6.5999999999999925e+00 +8.1637678015959469e+00 +0.0000000000000000e+00 +6.5999998466347112e+00 -2.9943722567943712e-02 -5.6429199648579942e-01 +5.6200000003186635e-03
6.6999999999999922e+00 +8.1637301791603711e+00 +0.0000000000000000e+00 +6.6999998395573392e+00 -2.9943724955662283e-02 -5.6429234197857792e-01 +5.6200195766321730e-03
6.7999999999999918e+00 +8.1636919909617287e+00 +0.0000000000000000e+00 +6.7999998322655131e+00 -2.9943723998163949e-02 -5.6429268118844134e-01 +5.6200401866483398e-03
6.8999999999999915e+00 +8.1636532369996804e+00 +0.0000000000000000e+00 +6.8999998247560317e+00 -2.9943720914392409e-02 -5.6429301584934299e-01 +5.6200617863124223e-03
6.9999999999999911e+00 +8.1636139172738904e+00 +0.0000000000000000e+00 +6.9999998170256941e+00 -2.9943716923314583e-02 -5.6429334769523265e-01 +5.6200843315734840e-03
7.0999999999999908e+00 +8.1635740317840302e+00 +0.0000000000000000e+00 +7.0999998090712992e+00 -2.9943713243921529e-02 -5.6429367846005685e-01 +5.6201077783845721e-03
7.1999999999999904e+00 +8.1635335805297675e+00 +0.0000000000000000e+00 +7.1999998008896453e+00 -2.9943711095229416e-02 -5.6429400987775957e-01 +5.6201320827028896e-03
7.2999999999999901e+00 +8.1634925635107702e+00 +0.0000000000000000e+00 +7.2999997924775322e+00 -2.9943711696280344e-02 -5.6429434368228160e-01 +5.6201572004899742e-03
7.3999999999999897e+00 +8.1634509807267062e+00 +0.0000000000000000e+00 +7.3999997838317588e+00 -2.9943716266143360e-02 -5.6429468160756091e-01 +5.6201830877118759e-03
7.4999999999999893e+00 +8.1634088321772378e+00 +0.0000000000000000e+00 +7.4999997749491243e+00 -2.9943726023915301e-02 -5.6429502538753318e-01 +5.6202097003393257e-03
7.5999999999999890e+00 +8.1633661178620223e+00 +0.0000000000000000e+00 +7.5999997658264267e+00 -2.9943742188721707e-02 -5.6429537675613128e-01 +5.6202369943479207e-03
7.6999999999999886e+00 +8.1633228377807079e+00 +0.0000000000000000e+00 +7.6999997564604659e+00 -2.9943765979717773e-02 -5.6429573744728578e-01 +5.6202649257182909e-03
7.7999999999999883e+00 +8.1632789919329340e+00 +0.0000000000000000e+00 +7.7999997468480400e+00 -2.9943798616089222e-02 -5.6429610919492490e-01 +5.6202934504362831e-03
7.8999999999999879e+00 +8.1632345803183295e+00 +0.0000000000000000e+00 +7.8999997369859489e+00 -2.9943841317053264e-02 -5.6429649373297497e-01 +5.6203225244931335e-03
7.9999999999999876e+00 +8.1631896029365087e+00 +0.0000000000000000e+00 +7.9999997268709908e+00 -2.9943895301859438e-02 -5.6429689279535999e-01 +5.6203521038856383e-03
8.0999999999999872e+00 +8.1631440597870739e+00 +0.0000000000000000e+00 +8.0999997164999655e+00 -2.9943961507418251e-02 -5.6429730767350961e-01 +5.6203821562646698e-03
8.1999999999999869e+00 +8.1630979508696111e+00 +0.0000000000000000e+00 +8.1999997058696703e+00 -2.9944039741147701e-02 -5.6429773788887849e-01 +5.6204126958766896e-03
8.2999999999999865e+00 +8.1630512761836904e+00 +0.0000000000000000e+00 +8.2999996949769042e+00 -2.9944129528045517e-02 -5.6429818252045472e-01 +5.6204437486115592e-03
8.3999999999999861e+00 +8.1630040357288678e+00 +0.0000000000000000e+00 +8.3999996838184678e+00 -2.9944230393057578e-02 -5.6429864064726276e-01 +5.6204753403528351e-03
8.4999999999999858e+00 +8.1629562295046849e+00 +0.0000000000000000e+00 +8.4999996723911586e+00 -2.9944341861076234e-02 -5.6429911134836430e-01 +5.6205074969775774e-03
8.5999999999999854e+00 +8.1629078575106711e+00 +0.0000000000000000e+00 +8.5999996606917755e+00 -2.9944463456938634e-02 -5.6429959370286098e-01 +5.6205402443561458e-03
8.6999999999999851e+00 +8.1628589197463448e+00 +0.0000000000000000e+00 +8.6999996487171174e+00 -2.9944594705425074e-02 -5.6430008678989352e-01 +5.6205736083520252e-03
8.7999999999999847e+00 +8.1628094162112124e+00 +0.0000000000000000e+00 +8.7999996364639834e+00 -2.9944735131257366e-02 -5.6430058968864583e-01 +5.6206076148216074e-03
8.8999999999999844e+00 +8.1627593469047728e+00 +0.0000000000000000e+00 +8.8999996239291725e+00 -2.9944884259097113e-02 -5.6430110147834323e-01 +5.6206422896140085e-03
8.9999999999999840e+00 +8.1627087118265145e+00 +0.0000000000000000e+00 +8.9999996111094820e+00 -2.9945041613544113e-02 -5.6430162123825534e-01 +5.6206776585708759e-03
9.0999999999999837e+00 +8.1626575109759170e+00 +0.0000000000000000e+00 +9.0999995980017125e+00 -2.9945206719134636e-02 -5.6430214804769763e-01 +5.6207137475261888e-03
9.1999999999999833e+00 +8.1626057443524545e+00 +0.0000000000000000e+00 +9.1999995846026614e+00 -2.9945379100339842e-02 -5.6430268098603131e-01 +5.6207505823060678e-03
9.2999999999999829e+00 +8.1625534119555940e+00 +0.0000000000000000e+00 +9.2999995709091277e+00 -2.9945558281564016e-02 -5.6430321913266535e-01 +5.6207881887285682e-03
9.3999999999999826e+00 +8.1625005137847992e+00 +0.0000000000000000e+00 +9.3999995569179102e+00 -2.9945743787143014e-02 -5.6430376156705786e-01 +5.6208265926035016e-03
9.4999999999999822e+00 +8.1624470498395265e+00 +0.0000000000000000e+00 +9.4999995426258081e+00 -2.9945935141342552e-02 -5.6430430736871673e-01 +5.6208658197322257e-03
9.5999999999999819e+00 +8.1623930201192305e+00 +0.0000000000000000e+00 +9.5999995280296204e+00 -2.9946131868356523e-02 -5.6430485561720178e-01 +5.6209058959074652e-03
9.6999999999999815e+00 +8.1623384246233641e+00 +0.0000000000000000e+00 +9.6999995131261443e+00 -2.9946333492305417e-02 -5.6430540539212481e-01 +5.6209468469131012e-03
9.7999999999999812e+00 +8.1622832633513767e+00 +0.0000000000000000e+00 +9.7999994979121805e+00 -2.9946539537234602e-02 -5.6430595577315157e-01 +5.6209886985239838e-03
9.8999999999999808e+00 +8.1622275363027192e+00 +0.0000000000000000e+00 +9.8999994823845263e+00 -2.9946749527112654e-02 -5.6430650584000308e-01 +5.6210314765057362e-03
9.9999999999999805e+00 +8.1621712434768430e+00 +0.0000000000000000e+00 +9.9999994665399807e+00 -2.9946962985829776e-02 -5.6430705467245612e-01 +5.6210752066145602e-03
1.0099999999999980e+01 +8.1621143848731990e+00 +0.0000000000000000e+00 +1.0099999450375343e+01 -2.9947179327878545e-02 -5.6430760161417792e-01 +5.6211199078708167e-03
1.0199999999999980e+01 +8.1620569604912401e+00 +0.0000000000000000e+00 +1.0199999433887410e+01 -2.9947397530450941e-02 -5.6430814706421606e-01 +5.6211655723895195e-03
1.0299999999999979e+01 +8.1619989703304210e+00 +0.0000000000000000e+00 +1.0299999417072980e+01 -2.9947616461496674e-02 -5.6430869168545750e-01 +5.6212121855764184e-03
1.0399999999999979e+01 +8.1619404143901981e+00 +0.0000000000000000e+00 +1.0399999399928856e+01 -2.9947834989061201e-02 -5.6430923614078099e-01 +5.6212597328573867e-03
1.0499999999999979e+01 +8.1618812926700262e+00 +0.0000000000000000e+00 +1.0499999382451831e+01 -2.9948051981288391e-02 -5.6430978109305840e-01 +5.6213081996789298e-03
1.0599999999999978e+01 +8.1618216051693615e+00 +0.0000000000000000e+00 +1.0599999364638707e+01 -2.9948266306423162e-02 -5.6431032720515173e-01 +5.6213575715087245e-03
1.0699999999999978e+01 +8.1617613518876588e+00 +0.0000000000000000e+00 +1.0699999346486283e+01 -2.9948476832814108e-02 -5.6431087513991540e-01 +5.6214078338361444e-03
1.0799999999999978e+01 +8.1617005328243692e+00 +0.0000000000000000e+00 +1.0799999327991356e+01 -2.9948682428916126e-02 -5.6431142556019354e-01 +5.6214589721727817e-03
1.0899999999999977e+01 +8.1616391479789439e+00 +0.0000000000000000e+00 +1.0899999309150726e+01 -2.9948881963293140e-02 -5.6431197912882125e-01 +5.6215109720529777e-03
1.0999999999999977e+01 +8.1615771973508302e+00 +0.0000000000000000e+00 +1.0999999289961188e+01 -2.9949074304620668e-02 -5.6431253650862401e-01 +5.6215638190343512e-03
1.1099999999999977e+01 +8.1615146809394705e+00 +0.0000000000000000e+00 +1.1099999270419545e+01 -2.9949258321688470e-02 -5.6431309836241550e-01 +5.6216174986983150e-03
1.1199999999999976e+01 +8.1614515987443035e+00 +0.0000000000000000e+00 +1.1199999250522593e+01 -2.9949432883403255e-02 -5.6431366535299976e-01 +5.6216719966506257e-03
1.1299999999999976e+01 +8.1613879507647624e+00 +0.0000000000000000e+00 +1.1299999230267131e+01 -2.9949596858791269e-02 -5.6431423814316939e-01 +5.6217272985218895e-03
1.1399999999999975e+01 +8.1613237370002754e+00 +0.0000000000000000e+00 +1.1399999209649959e+01 -2.9949749117000924e-02 -5.6431481739570488e-01 +5.6217833899680847e-03
1.1499999999999975e+01 +8.1612589574502650e+00 +0.0000000000000000e+00 +1.1499999188667873e+01 -2.9949888527305513e-02 -5.6431540377337486e-01 +5.6218402566711118e-03
1.1599999999999975e+01 +8.1611936121141433e+00 +0.0000000000000000e+00 +1.1599999167317673e+01 -2.9950013959105806e-02 -5.6431599793893539e-01 +5.6218978843393082e-03
1.1699999999999974e+01 +8.1611277009913170e+00 +0.0000000000000000e+00 +1.1699999145596157e+01 -2.9950124281932694e-02 -5.6431660055513011e-01 +5.6219562587079708e-03
1.1799999999999974e+01 +8.1610612240811840e+00 +0.0000000000000000e+00 +1.1799999123500124e+01 -2.9950218365449862e-02 -5.6431721228468901e-01 +5.6220153655398833e-03
