# multipoles
# s[mm] polynom_b[n=0][T/m^n] polynom_b[n=1][T/m^n] polynom_b[n=2][T/m^n] polynom_b[n=3][T/m^n] polynom_b[n=4][T/m^n] polynom_b[n=5][T/m^n] polynom_b[n=6][T/m^n] 
+0.0000000000000000e+00 -5.3659454983087540e-01 +7.3450329178082319e+00 -7.6750227670525306e-01 +6.5856131066615646e+01 +4.2261021494621209e+03 -5.2163560756781715e+05 -1.5841837407746533e+07 
-1.0000000000000001e-01 -5.3659452025211785e-01 +7.3450160137860658e+00 -7.6578893643057311e-01 +6.6055731740428087e+01 +4.1815982418492786e+03 -5.2222060990313883e+05 -1.5625954533956092e+07 
-2.0000000000000001e-01 -5.3659449330961950e-01 +7.3450044500293918e+00 -7.6444064274462964e-01 +6.6160157820880727e+01 +4.1427215023563258e+03 -5.2245527215952770e+05 -1.5429517307777630e+07 
-3.0000000000000004e-01 -5.3659446925125409e-01 +7.3449979438714781e+00 -7.6345389561378729e-01 +6.6173738698687927e+01 +4.1095916640553633e+03 -5.2235095428003184e+05 -1.5253619895967813e+07 
-4.0000000000000002e-01 -5.3659444832490044e-01 +7.3449962126432702e+00 -7.6282519470804910e-01 +6.6100803830669321e+01 +4.0823284593449207e+03 -5.2191901663698122e+05 -1.5099356471210130e+07 
-5.0000000000000000e-01 -5.3659443077846147e-01 +7.3449989736886074e+00 -7.6255103780277667e-01 +6.5945682280039264e+01 +4.0610515954389075e+03 -5.2117081730122439e+05 -1.4967821111912245e+07 
-5.9999999999999998e-01 -5.3659441685986364e-01 +7.3450059443441251e+00 -7.6262792130300872e-01 +6.5712703309704580e+01 +4.0458807653466320e+03 -5.2011771550897619e+05 -1.4860107857356729e+07 
-6.9999999999999996e-01 -5.3659440681701998e-01 +7.3450168419504935e+00 -7.6305234276827771e-01 +6.5406196049136000e+01 +4.0369356831282234e+03 -5.1877106970619608e+05 -1.4777310843797503e+07 
-7.9999999999999993e-01 -5.3659440089787280e-01 +7.3450313838536214e+00 -7.6382079742598163e-01 +6.5030489455576046e+01 +4.0343360298433199e+03 -5.1714223730679357e+05 -1.4720524080302944e+07 
-8.9999999999999991e-01 -5.3659439935037745e-01 +7.3450492873947493e+00 -7.6492977930599471e-01 +6.4589912602275135e+01 +4.0382014667069793e+03 -5.1524257636042673e+05 -1.4690841489731990e+07 
-9.9999999999999989e-01 -5.3659440242247713e-01 +7.3450702699224966e+00 -7.6637578391744454e-01 +6.4088794327074353e+01 +4.0486516851310403e+03 -5.1308344350495079e+05 -1.4689357145680048e+07 
-1.0999999999999999e+00 -5.3659441036213018e-01 +7.3450940487832099e+00 -7.6815530496371975e-01 +6.3531463509408859e+01 +4.0658063415898177e+03 -5.1067619555968646e+05 -1.4717164956129268e+07 
-1.2000000000000000e+00 -5.3659442341732255e-01 +7.3451203413228878e+00 -7.7026483303892068e-01 +6.2922249009572475e+01 +4.0897850381884255e+03 -5.0803218915362516e+05 -1.4775358587214876e+07 
-1.3000000000000000e+00 -5.3659444183600191e-01 +7.3451488648914784e+00 -7.7270086329919829e-01 +6.2265479550673930e+01 +4.1207074611700000e+03 -5.0516278005348804e+05 -1.4865032102919606e+07 
-1.4000000000000001e+00 -5.3659446586615622e-01 +7.3451793368364813e+00 -7.7545988540209920e-01 +6.1565483893078309e+01 +4.1586931901679382e+03 -5.0207932414193836e+05 -1.4987279060266161e+07 
-1.5000000000000002e+00 -5.3659449575574991e-01 +7.3452114745081394e+00 -7.7853839159471594e-01 +6.0826590683855734e+01 +4.2038618477615782e+03 -4.9879317653881054e+05 -1.5143193208845951e+07 
-1.6000000000000003e+00 -5.3659453175276839e-01 +7.3452449952562704e+00 -7.8193287116280519e-01 +6.0053128555242196e+01 +4.2563330013501500e+03 -4.9531569217962277e+05 -1.5333868048665609e+07 
-1.7000000000000004e+00 -5.3659457410516553e-01 +7.3452796164267422e+00 -7.8563981637087699e-01 +5.9249426207997125e+01 +4.3162262640281542e+03 -4.9165822624945524e+05 -1.5560397275093852e+07 
-1.8000000000000005e+00 -5.3659462306090921e-01 +7.3453150553712243e+00 -7.8965571722095174e-01 +5.8419812146256767e+01 +4.3836612016856334e+03 -4.8783213268441986e+05 -1.5823874356801299e+07 
-1.9000000000000006e+00 -5.3659467886796897e-01 +7.3453510294346893e+00 -7.9397706243464428e-01 +5.7568615022960053e+01 +4.4587573479140856e+03 -4.8384876612511283e+05 -1.6125392599945217e+07 
-2.0000000000000004e+00 -5.3659474177429467e-01 +7.3453872559678972e+00 -7.9860034207740560e-01 +5.6700163280328049e+01 +4.5416342500817527e+03 -4.7971947982994607e+05 -1.6466045355072675e+07 
-2.1000000000000005e+00 -5.3659481201100612e-01 +7.3454234967475980e+00 -8.0351530792689752e-01 +5.5818242979132101e+01 +4.6322494134367444e+03 -4.7545523700384598e+05 -1.6846108607447367e+07 
-2.2000000000000006e+00 -5.3659488973997072e-01 +7.3454596881413750e+00 -8.0868563471468702e-01 +5.4924557293735688e+01 +4.7299250484367303e+03 -4.7106589788781427e+05 -1.7262621404973861e+07 
-2.3000000000000007e+00 -5.3659497510530652e-01 +7.3454958093752021e+00 -8.1406868692301038e-01 +5.4020311107152196e+01 +4.8338275336330425e+03 -4.6656116823985073e+05 -1.7711820547506660e+07 
-2.4000000000000008e+00 -5.3659506825111658e-01 +7.3455318396742211e+00 -8.1962183041590042e-01 +5.3106709319558803e+01 +4.9431232712312121e+03 -4.6195075386756810e+05 -1.8189942942265876e+07 
-2.5000000000000009e+00 -5.3659516932152240e-01 +7.3455677582618515e+00 -8.2530242928449871e-01 +5.2184956878399390e+01 +5.0569786327575557e+03 -4.5724436082095781e+05 -1.8693225358884610e+07 
-2.6000000000000010e+00 -5.3659527846061195e-01 +7.3456035443542307e+00 -8.3106785124741667e-01 +5.1256258940983045e+01 +5.1745600556807567e+03 -4.5245169632203039e+05 -1.9217904874165371e+07 
-2.7000000000000011e+00 -5.3659539581248161e-01 +7.3456391771692733e+00 -8.3687546351108222e-01 +5.0321820617036998e+01 +5.2950339707058311e+03 -4.4758246730083309e+05 -1.9760218539522484e+07 
-2.8000000000000012e+00 -5.3659552152123746e-01 +7.3456746359196670e+00 -8.4268263202535387e-01 +4.9382847177957707e+01 +5.4175667851551780e+03 -4.4264638160982524e+05 -2.0316403297677852e+07 
-2.9000000000000012e+00 -5.3659565573098045e-01 +7.3457098998123813e+00 -8.4844672302465962e-01 +4.8440544063480694e+01 +5.5413249077245864e+03 -4.3765314805005683e+05 -2.0882696084471788e+07 
-3.0000000000000013e+00 -5.3659579858578121e-01 +7.3457449480532935e+00 -8.5412510694083077e-01 +4.7496116759492445e+01 +5.6654748321838733e+03 -4.3261247568519902e+05 -2.1455334255150117e+07 
-3.1000000000000014e+00 -5.3659595022973750e-01 +7.3457797598403127e+00 -8.5967515102106562e-01 +4.6550770995258723e+01 +5.7891829917744490e+03 -4.2753407498559827e+05 -2.2030554874286335e+07 
-3.2000000000000015e+00 -5.3659611080691538e-01 +7.3458143143727490e+00 -8.6505422613021188e-01 +4.5605712471073105e+01 +5.9116158868916527e+03 -4.2242765623834677e+05 -2.2604595320582796e+07 
-3.3000000000000016e+00 -5.3659628046140839e-01 +7.3458485908374218e+00 -8.7021970026313800e-01 +4.4662147278952240e+01 +6.0319399666104682e+03 -4.1730293203701446e+05 -2.3173692733513292e+07 
-3.4000000000000017e+00 -5.3659645933727573e-01 +7.3458825684226250e+00 -8.7512894578582601e-01 +4.3721281474931772e+01 +6.1493217645249451e+03 -4.1216961473560700e+05 -2.3734084656310301e+07 
-3.5000000000000018e+00 -5.3659664757857450e-01 +7.3459162263061577e+00 -8.7973933550603167e-01 +4.2784321457283433e+01 +6.2629278242176351e+03 -4.0703741872710106e+05 -2.4282008681228206e+07 
-3.6000000000000019e+00 -5.3659684532936724e-01 +7.3459495436642168e+00 -8.8400824161118186e-01 +4.1852473683989594e+01 +6.3719246774947787e+03 -4.0191605873508920e+05 -2.4813702339402683e+07 
-3.7000000000000020e+00 -5.3659705273371705e-01 +7.3459824996615319e+00 -8.8789303672200082e-01 +4.0926944980770649e+01 +6.4754788693413866e+03 -3.9681525165625435e+05 -2.5325403235822320e+07 
-3.8000000000000020e+00 -5.3659726993564771e-01 +7.3460150734620768e+00 -8.9135109839912607e-01 +4.0008942226180281e+01 +6.5727570367547423e+03 -3.9174471472223796e+05 -2.5813349400640324e+07 
-3.9000000000000021e+00 -5.3659749707919091e-01 +7.3460472442205917e+00 -8.9433980335828578e-01 +3.9099672604456870e+01 +6.6629258046735804e+03 -3.8671416698393272e+05 -2.6273778815650914e+07 
-4.0000000000000018e+00 -5.3659773430839430e-01 +7.3460789910860482e+00 -8.9681652713047300e-01 +3.8200343490682414e+01 +6.7451517788105848e+03 -3.8173332860018412e+05 -2.6702929371313184e+07 
-4.1000000000000014e+00 -5.3659798163119610e-01 +7.3461102997898973e+00 -8.9875240073678786e-01 +3.7312114066804185e+01 +6.8188068127572178e+03 -3.7681166443851899e+05 -2.7097840200674199e+07 
-4.2000000000000011e+00 -5.3659823851220856e-01 +7.3461411844766538e+00 -9.0017361159057951e-01 +3.6435973863300276e+01 +6.8840819429210369e+03 -3.7195798374082614e+05 -2.7458746130389877e+07 
-4.3000000000000007e+00 -5.3659850428037170e-01 +7.3461716669098029e+00 -9.0112013827230986e-01 +3.5572876284752788e+01 +6.9413727994731753e+03 -3.6718102540205856e+05 -2.7786679365328681e+07 
-4.4000000000000004e+00 -5.3659877826461866e-01 +7.3462017688610839e+00 -9.0163196075932428e-01 +3.4723774579139743e+01 +6.9910750401551004e+03 -3.6248952768875443e+05 -2.8082672233388245e+07 
-4.5000000000000000e+00 -5.3659905979389233e-01 +7.3462315121056303e+00 -9.0174905872491951e-01 +3.3889621963440959e+01 +7.0335843194998233e+03 -3.5789222893409716e+05 -2.8347757042417511e+07 
-4.5999999999999996e+00 -5.3659934819712751e-01 +7.3462609184258119e+00 -9.0151141404315194e-01 +3.3071371532680701e+01 +7.0692963387902628e+03 -3.5339786707062484e+05 -2.8582966322446425e+07 
-4.6999999999999993e+00 -5.3659964280325789e-01 +7.3462900096075812e+00 -9.0095900921708860e-01 +3.2269976360998463e+01 +7.0986068111705217e+03 -3.4901518020869221e+05 -2.8789332646992508e+07 
-4.7999999999999989e+00 -5.3659994294119917e-01 +7.3463188074504640e+00 -9.0013182988010942e-01 +3.1486389212362244e+01 +7.1219115128783806e+03 -3.4475290496335545e+05 -2.8967888887012571e+07 
-4.8999999999999986e+00 -5.3660024793989070e-01 +7.3463473337573504e+00 -8.9906985967588759e-01 +3.0721562851163178e+01 +7.1396061825516399e+03 -3.4061977830289293e+05 -2.9119667717972703e+07 
-4.9999999999999982e+00 -5.3660055712823562e-01 +7.3463756103398437e+00 -8.9781308798186032e-01 +2.9976449883722719e+01 +7.1520866754874887e+03 -3.3662453662289504e+05 -2.9245702378457837e+07 
-5.0999999999999979e+00 -5.3660086983514887e-01 +7.3464036590201323e+00 -8.9640150351980807e-01 +2.9252002705412121e+01 +7.1597488335415946e+03 -3.3277591545021598e+05 -2.9347026023552574e+07 
-5.1999999999999975e+00 -5.3660118538955082e-01 +7.3464315016272188e+00 -8.9487509537397036e-01 +2.8549173626970767e+01 +7.1629885089087666e+03 -3.2908265022498899e+05 -2.9424671849754255e+07 
-5.2999999999999972e+00 -5.3660150312034471e-01 +7.3464591600013787e+00 -8.9327385623024791e-01 +2.7868914731757165e+01 +7.1622016286360194e+03 -3.2555347544113651e+05 -2.9479673411267702e+07 
-5.3999999999999968e+00 -5.3660182235644360e-01 +7.3464866559936333e+00 -8.9163777799871802e-01 +2.7212177908533555e+01 +7.1577841025059233e+03 -3.2219712489248952e+05 -2.9513064154431019e+07 
-5.4999999999999964e+00 -5.3660214242674298e-01 +7.3465140114633014e+00 -8.9000685662472223e-01 +2.6579914918348564e+01 +7.1501319257149207e+03 -3.1902233205169952e+05 -2.9525877937901434e+07 
-5.5999999999999961e+00 -5.3660246266012424e-01 +7.3465412482831329e+00 -8.8842109090798072e-01 +2.5973077259050179e+01 +7.1396411498611978e+03 -3.1603782932580123e+05 -2.9519148874907587e+07 
-5.6999999999999957e+00 -5.3660278238549075e-01 +7.3465683883359514e+00 -8.8692047781908745e-01 +2.5392616254799808e+01 +7.1267077925144740e+03 -3.1325234855976718e+05 -2.9493910898833029e+07 
-5.7999999999999954e+00 -5.3660310093174091e-01 +7.3465954535166293e+00 -8.8554501674372932e-01 +2.4839483010765072e+01 +7.1117279258698545e+03 -3.1067462080972944e+05 -2.9451198207195543e+07 
-5.8999999999999950e+00 -5.3660341762774344e-01 +7.3466224657325796e+00 -8.8433471166408295e-01 +2.4314628399862375e+01 +7.0950977087312658e+03 -3.0831337627840810e+05 -2.9392045385751460e+07 
-5.9999999999999947e+00 -5.3660373180237986e-01 +7.3466494469078389e+00 -8.8332956684463670e-01 +2.3819002946232242e+01 +7.0772133125498094e+03 -3.0617734362749528e+05 -2.9317487076339703e+07 
-6.0999999999999943e+00 -5.3660404295944719e-01 +7.3466764028492060e+00 -8.8255797398026947e-01 +2.3353288708876487e+01 +7.0583697063457303e+03 -3.0427217304044648e+05 -2.9228333832898419e+07 
-6.1999999999999940e+00 -5.3660435130955975e-01 +7.3467032796737852e+00 -8.8200022444461568e-01 +2.2916756280199504e+01 +7.0384490990691093e+03 -3.0258917558530165e+05 -2.9124533646031324e+07 
-6.2999999999999936e+00 -5.3660465724194695e-01 +7.3467300098071089e+00 -8.8162416599747828e-01 +2.2508233514650833e+01 +7.0172290241307228e+03 -3.0111553166038642e+05 -2.9005830742711119e+07 
-6.3999999999999932e+00 -5.3660496114584411e-01 +7.3467565256686411e+00 -8.8139764429199630e-01 +2.2126548351713886e+01 +6.9944869706070995e+03 -2.9983842188349046e+05 -2.8871969141719762e+07 
-6.4999999999999929e+00 -5.3660526341048376e-01 +7.3467827596686455e+00 -8.8128850262159031e-01 +2.1770528927315635e+01 +6.9700003695735741e+03 -2.9874502776433039e+05 -2.8722692568931632e+07 
-6.5999999999999925e+00 -5.3660556442507523e-01 +7.3468086442078331e+00 -8.8126458604837088e-01 +2.1439003553132899e+01 +6.9435466822532762e+03 -2.9782253148678900e+05 -2.8557744902299989e+07 
-6.6999999999999922e+00 -5.3660586457884818e-01 +7.3468341116732754e+00 -8.8129373442439030e-01 +2.1130800864099506e+01 +6.9149032581246120e+03 -2.9705811685184180e+05 -2.8376869473722812e+07 
-6.7999999999999918e+00 -5.3660616426099450e-01 +7.3468590944507772e+00 -8.8134379048397726e-01 +2.0844749427320796e+01 +6.8838474941816603e+03 -2.9643896690926736e+05 -2.8179809841722552e+07 
-6.8999999999999915e+00 -5.3660646386075250e-01 +7.3468835249062039e+00 -8.8138258881565001e-01 +2.0579678289101480e+01 +6.8501566212392390e+03 -2.9595226714737975e+05 -2.7966308764594693e+07 
-6.9999999999999911e+00 -5.3660676376730543e-01 +7.3469073353998500e+00 -8.8137796846825722e-01 +2.0334416557334819e+01 +6.8136079455380477e+03 -2.9558520306121366e+05 -2.7736109357005034e+07 
-7.0999999999999908e+00 -5.3660706436988181e-01 +7.3469304582775710e+00 -8.8129776051196507e-01 +2.0107793647552825e+01 +6.7739786107781692e+03 -2.9532496154998499e+05 -2.7488953953822620e+07 
-7.1999999999999904e+00 -5.3660736605764847e-01 +7.3469528258770271e+00 -8.8110980110034087e-01 +1.9898639096592603e+01 +6.7310458464150797e+03 -2.9515872981744149e+05 -2.7224585293035351e+07 
-7.2999999999999901e+00 -5.3660766921981795e-01 +7.3469743705195869e+00 -8.8078191808505935e-01 +1.9705782802134340e+01 +6.6845867117073049e+03 -2.9507369676793669e+05 -2.6942745293621238e+07 
-7.3999999999999897e+00 -5.3660797424558671e-01 +7.3469950245152029e+00 -8.8028193884959127e-01 +1.9528054860135235e+01 +6.6343782479669571e+03 -2.9505705200812692e+05 -2.6643175791763138e+07 
-7.4999999999999893e+00 -5.3660828152412121e-01 +7.3470147201632310e+00 -8.7957769111477790e-01 +1.9364285557388250e+01 +6.5801974862940251e+03 -2.9509598583835660e+05 -2.6325618556402553e+07 
-7.5999999999999890e+00 -5.3660859144463491e-01 +7.3470333897448290e+00 -8.7863699479917590e-01 +1.9213305566558798e+01 +6.5218213024172528e+03 -2.9517769031931943e+05 -2.5989814625304196e+07 
-7.6999999999999886e+00 -5.3660890439628506e-01 +7.3470509655297498e+00 -8.7742767327983850e-01 +1.9073945762692077e+01 +6.4590266225644100e+03 -2.9528935823414504e+05 -2.5635505265506465e+07 
-7.7999999999999883e+00 -5.3660922076824025e-01 +7.3470673797729820e+00 -8.7591754522282117e-01 +1.8945037294269174e+01 +6.3915902683432823e+03 -2.9541818342907773e+05 -2.5262431235152405e+07 
-7.8999999999999879e+00 -5.3660954094968716e-01 +7.3470825647150662e+00 -8.7407442462106466e-01 +1.8825411592937385e+01 +6.3192889628519870e+03 -2.9555136091702606e+05 -2.4870332826936241e+07 
-7.9999999999999876e+00 -5.3660986532979882e-01 +7.3470964525799376e+00 -8.7186612351442128e-01 +1.8713900425185777e+01 +6.2418993768953878e+03 -2.9567608712710108e+05 -2.4458950075038649e+07 
-8.0999999999999872e+00 -5.3661019422311662e-01 +7.3471089700658894e+00 -8.6926729420103943e-01 +1.8610172825401349e+01 +6.1592794454815812e+03 -2.9578504309458210e+05 -2.4028310403273124e+07 
-8.1999999999999869e+00 -5.3661052763446060e-01 +7.3471200215540904e+00 -8.6628125239808773e-01 +1.8517391296192962e+01 +6.0715982729844663e+03 -2.9589366554631729e+05 -2.3579448617415972e+07 
-8.2999999999999865e+00 -5.3661086548820813e-01 +7.3471295056147383e+00 -8.6291882835872735e-01 +1.8439640200629270e+01 +5.9790991835512086e+03 -2.9602335292244400e+05 -2.3113614828216374e+07 
-8.3999999999999861e+00 -5.3661120770870785e-01 +7.3471373208183239e+00 -8.5919085603868817e-01 +1.8381003878036026e+01 +5.8820255539387390e+03 -2.9619550330235553e+05 -2.2632059344858546e+07 
-8.4999999999999858e+00 -5.3661155422028139e-01 +7.3471433657323937e+00 -8.5510817208721912e-01 +1.8345566710813465e+01 +5.7806207888407089e+03 -2.9643151480917190e+05 -2.2136032534778483e+07 
-8.5999999999999854e+00 -5.3661190494722610e-01 +7.3471475389228429e+00 -8.5068161653685936e-01 +1.8337413087882737e+01 +5.6751283410548003e+03 -2.9675278540642699e+05 -2.1626784938389000e+07 
-8.6999999999999851e+00 -5.3661225981378402e-01 +7.3471497389554576e+00 -8.4592203585932924e-01 +1.8360627351671233e+01 +5.5657917643357896e+03 -2.9718071255777148e+05 -2.1105567506499201e+07 
-8.7999999999999847e+00 -5.3661261874418342e-01 +7.3471498643949795e+00 -8.4084027826427110e-01 +1.8419293836861105e+01 +5.4528546258985389e+03 -2.9773669349127903e+05 -2.0573631187722974e+07 
-8.8999999999999844e+00 -5.3661298166260740e-01 +7.3471478138024784e+00 -8.3544719765821196e-01 +1.8517496933560498e+01 +5.3365605810826000e+03 -2.9844212551663583e+05 -2.0032227281874336e+07 
-8.9999999999999840e+00 -5.3661334849320141e-01 +7.3471434857421274e+00 -8.2975365231546971e-01 +1.8659320904009320e+01 +5.2171533472773481e+03 -2.9931840500591171e+05 -1.9482607314866688e+07 
-9.0999999999999837e+00 -5.3661371916008715e-01 +7.3471367787746660e+00 -8.2377050337269686e-01 +1.8848850049511743e+01 +5.0948766728084474e+03 -3.0038692829335778e+05 -1.8926022880926792e+07 
-9.1999999999999833e+00 -5.3661409358731404e-01 +7.3471275914603913e+00 -8.1750862088944420e-01 +1.9090168649947032e+01 +4.9699744552307347e+03 -3.0166909139515291e+05 -1.8363726216015555e+07 
-9.2999999999999829e+00 -5.3661447169893661e-01 +7.3471158223564483e+00 -8.1097887423746717e-01 +1.9387361017187771e+01 +4.8426905545921691e+03 -3.0318629024250462e+05 -1.7796969295337562e+07 
-9.3999999999999826e+00 -5.3661485341894921e-01 +7.3471013700215151e+00 -8.0419214048759713e-01 +1.9744511370907194e+01 +4.7132689577696947e+03 -3.0495992000258173e+05 -1.7227004629970718e+07 
-9.4999999999999822e+00 -5.3661523867130401e-01 +7.3470841330142918e+00 -7.9715930204826768e-01 +2.0165703882973286e+01 +4.5819537286355508e+03 -3.0701137532782409e+05 -1.6655085014361640e+07 
-9.5999999999999819e+00 -5.3661562737990964e-01 +7.3470640098893112e+00 -7.8989124575509329e-01 +2.0655022789009461e+01 +4.4489889869926410e+03 -3.0936205097423407e+05 -1.6082463418592835e+07 
-9.6999999999999815e+00 -5.3661601946864723e-01 +7.3470408992027396e+00 -7.8239886320018603e-01 +2.1216552226301360e+01 +4.3146189259518669e+03 -3.1203334087745106e+05 -1.5510393096315147e+07 
-9.7999999999999812e+00 -5.3661641486133438e-01 +7.3470146995089864e+00 -7.7469305280124912e-01 +2.1854376329452695e+01 +4.1790878367340138e+03 -3.1504663869623025e+05 -1.4940127666022699e+07 
-9.8999999999999808e+00 -5.3661681348177392e-01 +7.3469853093601323e+00 -7.6678471547097837e-01 +2.2572579241965322e+01 +4.0426400379829624e+03 -3.1842333786789345e+05 -1.4372920806000875e+07 
-9.9999999999999805e+00 -5.3661721525368489e-01 +7.3469526273143542e+00 -7.5868476224584680e-01 +2.3375244842537843e+01 +3.9055200053341805e+03 -3.2218483021678473e+05 -1.3810026846513825e+07 
-1.0099999999999980e+01 -5.3661762009958414e-01 +7.3469166003193527e+00 -7.5041055506334353e-01 +2.4264618935152800e+01 +3.7680289906457829e+03 -3.2634281787321228e+05 -1.3252812924507735e+07 
