# field on trajectory
# s[mm] rx[mm] ry[mm] rz[mm] bx[T] by[T] bz[T]
0.0000000000000000e+00 +7.9199999999999999e+00 +0.0000000000000000e+00 +0.0000000000000000e+00 -3.2387609293789539e-02 -5.9464332992843438e-01 +5.9128161485293724e-03
1.0000000000000001e-01 +7.9199997168526455e+00 +0.0000000000000000e+00 +9.9999999999465516e-02 -3.2387602640649556e-02 -5.9464317009118617e-01 +5.9127982808715972e-03
2.0000000000000001e-01 +7.9199988674106843e+00 +0.0000000000000000e+00 +1.9999999999572415e-01 -3.2387602418914772e-02 -5.9464300885924215e-01 +5.9127808598765470e-03
3.0000000000000004e-01 +7.9199974516742699e+00 +0.0000000000000000e+00 +2.9999999998556898e-01 -3.2387608678046291e-02 -5.9464284715769111e-01 +5.9127638777093788e-03
4.0000000000000002e-01 +7.9199954696435562e+00 +0.0000000000000000e+00 +3.9999999996579316e-01 -3.2387621467491981e-02 -5.9464268591159908e-01 +5.9127473265348602e-03
5.0000000000000000e-01 +7.9199929213186966e+00 +0.0000000000000000e+00 +4.9999999993318978e-01 -3.2387640836689102e-02 -5.9464252604601553e-01 +5.9127311985175323e-03
5.9999999999999998e-01 +7.9199898066998431e+00 +0.0000000000000000e+00 +5.9999999988455188e-01 -3.2387666835066782e-02 -5.9464236848597407e-01 +5.9127154858218426e-03
6.9999999999999996e-01 +7.9199861257871458e+00 +0.0000000000000000e+00 +6.9999999981667271e-01 -3.2387699512048514e-02 -5.9464221415649565e-01 +5.9127001806122811e-03
7.9999999999999993e-01 +7.9199818785807521e+00 +0.0000000000000000e+00 +7.9999999972634528e-01 -3.2387738917054820e-02 -5.9464206398259378e-01 +5.9126852750535372e-03
8.9999999999999991e-01 +7.9199770650808050e+00 +0.0000000000000000e+00 +8.9999999961036270e-01 -3.2387785099505670e-02 -5.9464191888927609e-01 +5.9126707613106413e-03
9.9999999999999989e-01 +7.9199716852874422e+00 +0.0000000000000000e+00 +9.9999999946551821e-01 -3.2387838108823036e-02 -5.9464177980154809e-01 +5.9126566315491069e-03
1.0999999999999999e+00 +7.9199657392007969e+00 +0.0000000000000000e+00 +1.0999999992886049e+00 -3.2387897994433479e-02 -5.9464164764441596e-01 +5.9126428779350711e-03
1.2000000000000000e+00 +7.9199592268209953e+00 +0.0000000000000000e+00 +1.1999999990764159e+00 -3.2387964805770643e-02 -5.9464152334289044e-01 +5.9126294926354454e-03
1.3000000000000000e+00 +7.9199521481481554e+00 +0.0000000000000000e+00 +1.2999999988257442e+00 -3.2388038592277762e-02 -5.9464140782198904e-01 +5.9126164678180550e-03
1.4000000000000001e+00 +7.9199445031823874e+00 +0.0000000000000000e+00 +1.3999999985333831e+00 -3.2388119403410291e-02 -5.9464130200674048e-01 +5.9126037956517856e-03
1.5000000000000002e+00 +7.9199362919237926e+00 +0.0000000000000000e+00 +1.4999999981961256e+00 -3.2388207288638345e-02 -5.9464120682218691e-01 +5.9125914683067311e-03
1.6000000000000003e+00 +7.9199275143724615e+00 +0.0000000000000000e+00 +1.5999999978107651e+00 -3.2388302297449253e-02 -5.9464112319338758e-01 +5.9125794779543257e-03
1.7000000000000004e+00 +7.9199181705284740e+00 +0.0000000000000000e+00 +1.6999999973740945e+00 -3.2388404479350125e-02 -5.9464105204542150e-01 +5.9125678167674988e-03
1.8000000000000005e+00 +7.9199082603918978e+00 +0.0000000000000000e+00 +1.7999999968829068e+00 -3.2388513883870387e-02 -5.9464099430339201e-01 +5.9125564769208182e-03
1.9000000000000006e+00 +7.9198977839627887e+00 +0.0000000000000000e+00 +1.8999999963339953e+00 -3.2388630560564270e-02 -5.9464095089242786e-01 +5.9125454505906281e-03
2.0000000000000004e+00 +7.9198867412411875e+00 +0.0000000000000000e+00 +1.9999999957241532e+00 -3.2388754559013404e-02 -5.9464092273768832e-01 +5.9125347299552036e-03
2.1000000000000005e+00 +7.9198751322271228e+00 +0.0000000000000000e+00 +2.0999999950501738e+00 -3.2388885794740495e-02 -5.9464091053657153e-01 +5.9125243205249119e-03
2.2000000000000006e+00 +7.9198629569206052e+00 +0.0000000000000000e+00 +2.1999999943088495e+00 -3.2389023646937035e-02 -5.9464091407532582e-01 +5.9125142811314374e-03
2.3000000000000007e+00 +7.9198502153216319e+00 +0.0000000000000000e+00 +2.2999999934969741e+00 -3.2389167360715593e-02 -5.9464093291241282e-01 +5.9125046839358167e-03
2.4000000000000008e+00 +7.9198369074301862e+00 +0.0000000000000000e+00 +2.3999999926113409e+00 -3.2389316181196073e-02 -5.9464096660629817e-01 +5.9124956010979425e-03
2.5000000000000009e+00 +7.9198230332462360e+00 +0.0000000000000000e+00 +2.4999999916487425e+00 -3.2389469353505382e-02 -5.9464101471545050e-01 +5.9124871047763457e-03
2.6000000000000010e+00 +7.9198085927697361e+00 +0.0000000000000000e+00 +2.5999999906059723e+00 -3.2389626122776842e-02 -5.9464107679834144e-01 +5.9124792671279682e-03
2.7000000000000011e+00 +7.9197935860006279e+00 +0.0000000000000000e+00 +2.6999999894798230e+00 -3.2389785734149738e-02 -5.9464115241344406e-01 +5.9124721603079512e-03
2.8000000000000012e+00 +7.9197780129388393e+00 +0.0000000000000000e+00 +2.7999999882670883e+00 -3.2389947432768851e-02 -5.9464124111923244e-01 +5.9124658564694071e-03
2.9000000000000012e+00 +7.9197618735842870e+00 +0.0000000000000000e+00 +2.8999999869645610e+00 -3.2390110463784018e-02 -5.9464134247418221e-01 +5.9124604277632029e-03
3.0000000000000013e+00 +7.9197451679368749e+00 +0.0000000000000000e+00 +2.9999999855690342e+00 -3.2390274072349588e-02 -5.9464145603676832e-01 +5.9124559463377439e-03
3.1000000000000014e+00 +7.9197278959964947e+00 +0.0000000000000000e+00 +3.0999999840773009e+00 -3.2390437503623984e-02 -5.9464158136546452e-01 +5.9124524843387379e-03
3.2000000000000015e+00 +7.9197100577630284e+00 +0.0000000000000000e+00 +3.1999999824861542e+00 -3.2390600002769242e-02 -5.9464171801874366e-01 +5.9124501139089956e-03
3.3000000000000016e+00 +7.9196916532363471e+00 +0.0000000000000000e+00 +3.2999999807923874e+00 -3.2390760814950507e-02 -5.9464186555507637e-01 +5.9124489071881942e-03
3.4000000000000017e+00 +7.9196726824163095e+00 +0.0000000000000000e+00 +3.3999999789927937e+00 -3.2390919185335584e-02 -5.9464202353293039e-01 +5.9124489363126609e-03
3.5000000000000018e+00 +7.9196531453027665e+00 +0.0000000000000000e+00 +3.4999999770841659e+00 -3.2391074359094434e-02 -5.9464219151076958e-01 +5.9124502734151521e-03
3.6000000000000019e+00 +7.9196330418955592e+00 +0.0000000000000000e+00 +3.5999999750632972e+00 -3.2391225581398744e-02 -5.9464236904705481e-01 +5.9124529906246477e-03
3.7000000000000020e+00 +7.9196123721945186e+00 +0.0000000000000000e+00 +3.6999999729269808e+00 -3.2391372097421413e-02 -5.9464255570024094e-01 +5.9124571600661013e-03
3.8000000000000020e+00 +7.9195911361994682e+00 +0.0000000000000000e+00 +3.7999999706720096e+00 -3.2391513152336078e-02 -5.9464275102877784e-01 +5.9124628538602380e-03
3.9000000000000021e+00 +7.9195693339102222e+00 +0.0000000000000000e+00 +3.8999999682951767e+00 -3.2391647991316677e-02 -5.9464295459110939e-01 +5.9124701441233395e-03
4.0000000000000018e+00 +7.9195469653265871e+00 +0.0000000000000000e+00 +3.9999999657932754e+00 -3.2391775859536960e-02 -5.9464316594567224e-01 +5.9124791029670038e-03
4.1000000000000014e+00 +7.9195240304483630e+00 +0.0000000000000000e+00 +4.0999999631630990e+00 -3.2391896238040729e-02 -5.9464338460232380e-01 +5.9124897872684309e-03
4.2000000000000011e+00 +7.9195005292753420e+00 +0.0000000000000000e+00 +4.1999999604014393e+00 -3.2392009551345503e-02 -5.9464360987662512e-01 +5.9125021929844167e-03
4.3000000000000007e+00 +7.9194764618073110e+00 +0.0000000000000000e+00 +4.2999999575050909e+00 -3.2392116459812818e-02 -5.9464384103554957e-01 +5.9125163008449519e-03
4.4000000000000004e+00 +7.9194518280440507e+00 +0.0000000000000000e+00 +4.3999999544708457e+00 -3.2392217623772673e-02 -5.9464407734605551e-01 +5.9125320915837326e-03
4.5000000000000000e+00 +7.9194266279853363e+00 +0.0000000000000000e+00 +4.4999999512954973e+00 -3.2392313703521490e-02 -5.9464431807508433e-01 +5.9125495459384763e-03
4.5999999999999996e+00 +7.9194008616309395e+00 +0.0000000000000000e+00 +4.5999999479758387e+00 -3.2392405359319990e-02 -5.9464456248955933e-01 +5.9125686446511927e-03
4.6999999999999993e+00 +7.9193745289806285e+00 +0.0000000000000000e+00 +4.6999999445086624e+00 -3.2392493251391097e-02 -5.9464480985638568e-01 +5.9125893684684981e-03
4.7999999999999989e+00 +7.9193476300341690e+00 +0.0000000000000000e+00 +4.7999999408907623e+00 -3.2392578039917699e-02 -5.9464505944244772e-01 +5.9126116981418949e-03
4.8999999999999986e+00 +7.9193201647913245e+00 +0.0000000000000000e+00 +4.8999999371189311e+00 -3.2392660385040746e-02 -5.9464531051460923e-01 +5.9126356144280721e-03
4.9999999999999982e+00 +7.9192921332518562e+00 +0.0000000000000000e+00 +4.9999999331899616e+00 -3.2392740946856950e-02 -5.9464556233971222e-01 +5.9126610980892039e-03
5.0999999999999979e+00 +7.9192635354155252e+00 +0.0000000000000000e+00 +5.0999999291006466e+00 -3.2392820385416785e-02 -5.9464581418457463e-01 +5.9126881298932283e-03
5.1999999999999975e+00 +7.9192343712820925e+00 +0.0000000000000000e+00 +5.1999999248477797e+00 -3.2392899360722316e-02 -5.9464606531599207e-01 +5.9127166906141650e-03
5.2999999999999972e+00 +7.9192046408513201e+00 +0.0000000000000000e+00 +5.2999999204281538e+00 -3.2392978532725117e-02 -5.9464631500073439e-01 +5.9127467610323864e-03
5.3999999999999968e+00 +7.9191743441229718e+00 +0.0000000000000000e+00 +5.3999999158385616e+00 -3.2393058561324135e-02 -5.9464656250554460e-01 +5.9127783219349236e-03
5.4999999999999964e+00 +7.9191434810968122e+00 +0.0000000000000000e+00 +5.4999999110757960e+00 -3.2393140106363613e-02 -5.9464680709713991e-01 +5.9128113541157597e-03
5.5999999999999961e+00 +7.9191120517726104e+00 +0.0000000000000000e+00 +5.5999999061366506e+00 -3.2393223827630865e-02 -5.9464704804220792e-01 +5.9128458383761210e-03
5.6999999999999957e+00 +7.9190800561501371e+00 +0.0000000000000000e+00 +5.6999999010179172e+00 -3.2393310384854337e-02 -5.9464728460740901e-01 +5.9128817555247721e-03
5.7999999999999954e+00 +7.9190474942291678e+00 +0.0000000000000000e+00 +5.7999998957163896e+00 -3.2393400437701343e-02 -5.9464751605937194e-01 +5.9129190863783081e-03
5.8999999999999950e+00 +7.9190143660094838e+00 +0.0000000000000000e+00 +5.8999998902288615e+00 -3.2393494645775962e-02 -5.9464774166469447e-01 +5.9129578117614540e-03
5.9999999999999947e+00 +7.9189806714908713e+00 +0.0000000000000000e+00 +5.9999998845521247e+00 -3.2393593668617042e-02 -5.9464796068994252e-01 +5.9129979125073532e-03
6.0999999999999943e+00 +7.9189464106731231e+00 +0.0000000000000000e+00 +6.0999998786829730e+00 -3.2393697901147225e-02 -5.9464817266536119e-01 +5.9130393754931237e-03
6.1999999999999940e+00 +7.9189115835560377e+00 +0.0000000000000000e+00 +6.1999998726181991e+00 -3.2393806680060970e-02 -5.9464837817603100e-01 +5.9130822117415124e-03
6.2999999999999936e+00 +7.9188761901394216e+00 +0.0000000000000000e+00 +6.2999998663545957e+00 -3.2393919077541536e-02 -5.9464857807075644e-01 +5.9131264383072034e-03
6.3999999999999932e+00 +7.9188402304230845e+00 +0.0000000000000000e+00 +6.3999998598889558e+00 -3.2394034165823891e-02 -5.9464877319835674e-01 +5.9131720722401509e-03
6.4999999999999929e+00 +7.9188037044068418e+00 +0.0000000000000000e+00 +6.4999998532180729e+00 -3.2394151017197427e-02 -5.9464896440766701e-01 +5.9132191305853307e-03
6.5999999999999925e+00 +7.9187666120905122e+00 +0.0000000000000000e+00 +6.5999998463387390e+00 -3.2394268704008682e-02 -5.9464915254753947e-01 +5.9132676303824709e-03
6.6999999999999922e+00 +7.9187289534739183e+00 +0.0000000000000000e+00 +6.6999998392477478e+00 -3.2394386298664084e-02 -5.9464933846684298e-01 +5.9133175886658127e-03
6.7999999999999918e+00 +7.9186907285568839e+00 +0.0000000000000000e+00 +6.7999998319418928e+00 -3.2394502873632630e-02 -5.9464952301446572e-01 +5.9133690224638380e-03
6.8999999999999915e+00 +7.9186519373392343e+00 +0.0000000000000000e+00 +6.8999998244179661e+00 -3.2394617501448661e-02 -5.9464970703931486e-01 +5.9134219487990197e-03
6.9999999999999911e+00 +7.9186125798207962e+00 +0.0000000000000000e+00 +6.9999998166727613e+00 -3.2394729254714566e-02 -5.9464989139031843e-01 +5.9134763846875726e-03
7.0999999999999908e+00 +7.9185726560013947e+00 +0.0000000000000000e+00 +7.0999998087030702e+00 -3.2394837206103519e-02 -5.9465007691642591e-01 +5.9135323471391837e-03
7.1999999999999904e+00 +7.9185321658808538e+00 +0.0000000000000000e+00 +7.1999998005056867e+00 -3.2394940428362169e-02 -5.9465026446660851e-01 +5.9135898531567695e-03
7.2999999999999901e+00 +7.9184911094589969e+00 +0.0000000000000000e+00 +7.2999997920774042e+00 -3.2395037994313453e-02 -5.9465045488986190e-01 +5.9136489197362061e-03
7.3999999999999897e+00 +7.9184494867356436e+00 +0.0000000000000000e+00 +7.3999997834150149e+00 -3.2395128976859214e-02 -5.9465064903520459e-01 +5.9137095638660819e-03
7.4999999999999893e+00 +7.9184072977106101e+00 +0.0000000000000000e+00 +7.4999997745153113e+00 -3.2395212448983045e-02 -5.9465084775168109e-01 +5.9137718025274507e-03
7.5999999999999890e+00 +7.9183645423837081e+00 +0.0000000000000000e+00 +7.5999997653750873e+00 -3.2395287483752949e-02 -5.9465105188836209e-01 +5.9138356526935477e-03
7.6999999999999886e+00 +7.9183212207547449e+00 +0.0000000000000000e+00 +7.6999997559911355e+00 -3.2395353154324097e-02 -5.9465126229434495e-01 +5.9139011313295645e-03
7.7999999999999883e+00 +7.9182773328235214e+00 +0.0000000000000000e+00 +7.7999997463602488e+00 -3.2395408533941544e-02 -5.9465147981875555e-01 +5.9139682553923708e-03
7.8999999999999879e+00 +7.9182328785898326e+00 +0.0000000000000000e+00 +7.8999997364792200e+00 -3.2395452695943031e-02 -5.9465170531074851e-01 +5.9140370418302775e-03
7.9999999999999876e+00 +7.9181878580534644e+00 +0.0000000000000000e+00 +7.9999997263448428e+00 -3.2395484713761587e-02 -5.9465193961950824e-01 +5.9141075075827615e-03
8.0999999999999872e+00 +7.9181422712141947e+00 +0.0000000000000000e+00 +8.0999997159539099e+00 -3.2395504018876690e-02 -5.9465218337576842e-01 +5.9141796359978563e-03
8.1999999999999869e+00 +7.9180961180717935e+00 +0.0000000000000000e+00 +8.1999997053032132e+00 -3.2395511474632252e-02 -5.9465243633635012e-01 +5.9142532760868352e-03
8.2999999999999865e+00 +7.9180493986260210e+00 +0.0000000000000000e+00 +8.2999996943895464e+00 -3.2395508302315044e-02 -5.9465269803959664e-01 +5.9143282432772525e-03
8.3999999999999861e+00 +7.9180021128766294e+00 +0.0000000000000000e+00 +8.3999996832097015e+00 -3.2395495723189303e-02 -5.9465296802385359e-01 +5.9144043529966439e-03
8.4999999999999858e+00 +7.9179542608233637e+00 +0.0000000000000000e+00 +8.4999996717604720e+00 -3.2395474958495783e-02 -5.9465324582747170e-01 +5.9144814206725880e-03
8.5999999999999854e+00 +7.9179058424659603e+00 +0.0000000000000000e+00 +8.5999996600386517e+00 -3.2395447229450598e-02 -5.9465353098880580e-01 +5.9145592617327212e-03
8.6999999999999851e+00 +7.9178568578041499e+00 +0.0000000000000000e+00 +8.6999996480410324e+00 -3.2395413757244126e-02 -5.9465382304621495e-01 +5.9146376916047825e-03
8.7999999999999847e+00 +7.9178073068376555e+00 +0.0000000000000000e+00 +8.7999996357644061e+00 -3.2395375763039989e-02 -5.9465412153806263e-01 +5.9147165257166390e-03
8.8999999999999844e+00 +7.9177571895661947e+00 +0.0000000000000000e+00 +8.8999996232055665e+00 -3.2395334467973914e-02 -5.9465442600271601e-01 +5.9147955794963247e-03
8.9999999999999840e+00 +7.9177065059894787e+00 +0.0000000000000000e+00 +8.9999996103613071e+00 -3.2395291093152687e-02 -5.9465473597854812e-01 +5.9148746683720718e-03
9.0999999999999837e+00 +7.9176552561072144e+00 +0.0000000000000000e+00 +9.0999995972284200e+00 -3.2395246859653032e-02 -5.9465505100393523e-01 +5.9149536077723460e-03
9.1999999999999833e+00 +7.9176034399191035e+00 +0.0000000000000000e+00 +9.1999995838036988e+00 -3.2395202988520576e-02 -5.9465537061725871e-01 +5.9150322131258769e-03
9.2999999999999829e+00 +7.9175510574248431e+00 +0.0000000000000000e+00 +9.2999995700839353e+00 -3.2395160700768720e-02 -5.9465569435690491e-01 +5.9151102998617018e-03
9.3999999999999826e+00 +7.9174981086241267e+00 +0.0000000000000000e+00 +9.3999995560659233e+00 -3.2395121217377573e-02 -5.9465602176126464e-01 +5.9151876834091901e-03
9.4999999999999822e+00 +7.9174445935166444e+00 +0.0000000000000000e+00 +9.4999995417464547e+00 -3.2395085759292834e-02 -5.9465635236873349e-01 +5.9152641791980773e-03
9.5999999999999819e+00 +7.9173905121020827e+00 +0.0000000000000000e+00 +9.5999995271223231e+00 -3.2395055547424750e-02 -5.9465668571771180e-01 +5.9153396026585033e-03
9.6999999999999815e+00 +7.9173358643801262e+00 +0.0000000000000000e+00 +9.6999995121903204e+00 -3.2395031802646981e-02 -5.9465702134660525e-01 +5.9154137692210493e-03
9.7999999999999812e+00 +7.9172806503504569e+00 +0.0000000000000000e+00 +9.7999994969472404e+00 -3.2395015745795501e-02 -5.9465735879382453e-01 +5.9154864943167622e-03
9.8999999999999808e+00 +7.9172248700127561e+00 +0.0000000000000000e+00 +9.8999994813898748e+00 -3.2395008597667564e-02 -5.9465769759778531e-01 +5.9155575933771982e-03
9.9999999999999805e+00 +7.9171685233667022e+00 +0.0000000000000000e+00 +9.9999994655150175e+00 -3.2395011579020555e-02 -5.9465803729690825e-01 +5.9156268818344503e-03
1.0099999999999980e+01 +7.9171116104119736e+00 +0.0000000000000000e+00 +1.0099999449319460e+01 -3.2395025599427536e-02 -5.9465837751212036e-01 +5.9156942260175319e-03
1.0199999999999980e+01 +7.9170541311482481e+00 +0.0000000000000000e+00 +1.0199999432799997e+01 -3.2395050323839623e-02 -5.9465871819435090e-01 +5.9157596958449542e-03
1.0299999999999979e+01 +7.9169960855752031e+00 +0.0000000000000000e+00 +1.0299999415953419e+01 -3.2395085106048729e-02 -5.9465905937700669e-01 +5.9158234121345476e-03
1.0399999999999979e+01 +7.9169374736925153e+00 +0.0000000000000000e+00 +1.0399999398776520e+01 -3.2395129299844158e-02 -5.9465940109346638e-01 +5.9158854957056008e-03
1.0499999999999979e+01 +7.9168782954998616e+00 +0.0000000000000000e+00 +1.0499999381266093e+01 -3.2395182259012494e-02 -5.9465974337707972e-01 +5.9159460673789150e-03
1.0599999999999978e+01 +7.9168185509969176e+00 +0.0000000000000000e+00 +1.0599999363418929e+01 -3.2395243337337551e-02 -5.9466008626116573e-01 +5.9160052479768467e-03
1.0699999999999978e+01 +7.9167582401833592e+00 +0.0000000000000000e+00 +1.0699999345231824e+01 -3.2395311888600280e-02 -5.9466042977901368e-01 +5.9160631583233753e-03
1.0799999999999978e+01 +7.9166973630588604e+00 +0.0000000000000000e+00 +1.0799999326701567e+01 -3.2395387266578667e-02 -5.9466077396387995e-01 +5.9161199192441357e-03
1.0899999999999977e+01 +7.9166359196230962e+00 +0.0000000000000000e+00 +1.0899999307824952e+01 -3.2395468825047749e-02 -5.9466111884899020e-01 +5.9161756515664840e-03
1.0999999999999977e+01 +7.9165739098757397e+00 +0.0000000000000000e+00 +1.0999999288598772e+01 -3.2395555917779435e-02 -5.9466146446753554e-01 +5.9162304761195420e-03
1.1099999999999977e+01 +7.9165113338164632e+00 +0.0000000000000000e+00 +1.1099999269019820e+01 -3.2395647898542497e-02 -5.9466181085267467e-01 +5.9162845137342547e-03
1.1199999999999976e+01 +7.9164481914449398e+00 +0.0000000000000000e+00 +1.1199999249084890e+01 -3.2395744121102445e-02 -5.9466215803753142e-01 +5.9163378852434391e-03
1.1299999999999976e+01 +7.9163844827608409e+00 +0.0000000000000000e+00 +1.1299999228790773e+01 -3.2395843939221493e-02 -5.9466250605519388e-01 +5.9163907114818167e-03
1.1399999999999975e+01 +7.9163202077638362e+00 +0.0000000000000000e+00 +1.1399999208134261e+01 -3.2395946706658511e-02 -5.9466285493871529e-01 +5.9164431132861075e-03
1.1499999999999975e+01 +7.9162553664535960e+00 +0.0000000000000000e+00 +1.1499999187112147e+01 -3.2396051777168873e-02 -5.9466320472111078e-01 +5.9164952114950427e-03
1.1599999999999975e+01 +7.9161899588297890e+00 +0.0000000000000000e+00 +1.1599999165721226e+01 -3.2396158504504481e-02 -5.9466355543535987e-01 +5.9165471269494296e-03
1.1699999999999974e+01 +7.9161239848920841e+00 +0.0000000000000000e+00 +1.1699999143958287e+01 -3.2396266242413603e-02 -5.9466390711440242e-01 +5.9165989804922069e-03
1.1799999999999974e+01 +7.9160574446401482e+00 +0.0000000000000000e+00 +1.1799999121820125e+01 -3.2396374344640842e-02 -5.9466425979113990e-01 +5.9166508929684907e-03
