# multipoles
# s[mm] polynom_b[n=0][T/m^n] polynom_b[n=1][T/m^n] polynom_b[n=2][T/m^n] polynom_b[n=3][T/m^n] polynom_b[n=4][T/m^n] polynom_b[n=5][T/m^n] polynom_b[n=6][T/m^n] 
+0.0000000000000000e+00 -5.3825223773748088e-01 +7.3458217624585957e+00 -1.2018401599699700e-01 +4.2600838457713103e+01 +2.6135449835754293e+03 -3.5021665471209900e+05 -2.6021016171402402e+07 
+1.0000000000000001e-01 -5.3825219755283216e-01 +7.3458403705658668e+00 -1.1514058986541871e-01 +4.2383397519566564e+01 +2.4944696902541650e+03 -3.4995952678341902e+05 -2.5403688143111393e+07 
+2.0000000000000001e-01 -5.3825217107912027e-01 +7.3458592697813456e+00 -1.1018902299422403e-01 +4.2139723325433124e+01 +2.3815654555337896e+03 -3.4947562758334057e+05 -2.4825700108604405e+07 
+3.0000000000000004e-01 -5.3825215675481697e-01 +7.3458784842380007e+00 -1.0539123856531611e-01 +4.1869962263356754e+01 +2.2756328001626975e+03 -3.4876975190558191e+05 -2.4289841035174113e+07 
+4.0000000000000002e-01 -5.3825215301842111e-01 +7.3458980380676442e+00 -1.0080915582540310e-01 +4.1574260731138239e+01 +2.1774721650603628e+03 -3.4784669449978840e+05 -2.3798899501119222e+07 
+5.0000000000000000e-01 -5.3825215830840401e-01 +7.3459179553989333e+00 -9.6504697121994415e-02 +4.1252765185377470e+01 +2.0878840487069247e+03 -3.4671125034057803e+05 -2.3355664360417783e+07 
+5.9999999999999998e-01 -5.3825217106327528e-01 +7.3459382603651866e+00 -9.2539779784117274e-02 +4.0905621918885103e+01 +2.0076688505607190e+03 -3.4536821334440226e+05 -2.2962923988875467e+07 
+6.9999999999999996e-01 -5.3825218972151767e-01 +7.3459589770990563e+00 -8.8976324130298004e-02 +4.0532977225433186e+01 +1.9376270250529258e+03 -3.4382237736627710e+05 -2.2623467023255352e+07 
+7.9999999999999993e-01 -5.3825221272165424e-01 +7.3459801297323599e+00 -8.5876245341468024e-02 +4.0134977388611439e+01 +1.8785589283661363e+03 -3.4207853608023952e+05 -2.2340081634896263e+07 
+8.9999999999999991e-01 -5.3825223850217985e-01 +7.3460017424017225e+00 -8.3301462000476070e-02 +3.9711768548228321e+01 +1.8312649793854646e+03 -3.4014148230887292e+05 -2.2115556290551733e+07 
+9.9999999999999989e-01 -5.3825226550161609e-01 +7.3460238392474517e+00 -8.1313888818360061e-02 +3.9263496701661168e+01 +1.7965455207488969e+03 -3.3801600793668727e+05 -2.1952679090650670e+07 
+1.0999999999999999e+00 -5.3825229215847181e-01 +7.3460464444131688e+00 -7.9975442625021959e-02 +3.8790307748796693e+01 +1.7752009393890337e+03 -3.3570690427080134e+05 -2.1854238359723218e+07 
+1.2000000000000000e+00 -5.3825231691129061e-01 +7.3460695820452662e+00 -7.9348035244332163e-02 +3.8292347482706553e+01 +1.7680315226861132e+03 -3.3321896192555508e+05 -2.1823021938718174e+07 
+1.3000000000000000e+00 -5.3825233819856666e-01 +7.3460932762977027e+00 -7.9493584607852191e-02 +3.7769761473876947e+01 +1.7758376740021924e+03 -3.3055697021574673e+05 -2.1861818222153150e+07 
+1.4000000000000001e+00 -5.3825235445885711e-01 +7.3461175513290975e+00 -8.0474001330577596e-02 +3.7222695141945010e+01 +1.7994196622335210e+03 -3.2772571754116681e+05 -2.1973414978771187e+07 
+1.5000000000000002e+00 -5.3825236413068100e-01 +7.3461424313064416e+00 -8.2351200038754901e-02 +3.6651293654604203e+01 +1.8395778294982872e+03 -3.2472999082759040e+05 -2.2160600319613770e+07 
+1.6000000000000003e+00 -5.3825236565259260e-01 +7.3461679404024309e+00 -8.5187091868166046e-02 +3.6055702010445735e+01 +1.8971124569463632e+03 -3.2157457602055522e+05 -2.2426162080294076e+07 
+1.7000000000000004e+00 -5.3825235746311506e-01 +7.3461941027973401e+00 -8.9043591062255317e-02 +3.5436064985674584e+01 +1.9728238823740371e+03 -3.1826425778474612e+05 -2.2772888361239024e+07 
+1.8000000000000005e+00 -5.3825233800080530e-01 +7.3462209426836207e+00 -9.3982608356513578e-02 +3.4792526998488540e+01 +2.0675123812876873e+03 -3.1480381871531042e+05 -2.3203566977434989e+07 
+1.9000000000000006e+00 -5.3825230570421267e-01 +7.3462484842587124e+00 -1.0006605544572883e-01 +3.4125232317984768e+01 +2.1819782505846915e+03 -3.1119804055490915e+05 -2.3720985855573997e+07 
+2.0000000000000004e+00 -5.3825225901188134e-01 +7.3462767517339396e+00 -1.0735584465950443e-01 +3.3434324821662393e+01 +2.3170218005567676e+03 -3.0745170283317956e+05 -2.4327932989568520e+07 
+2.1000000000000005e+00 -5.3825219692744908e-01 +7.3463057351789018e+00 -1.1587825799671822e-01 +3.2720753831900545e+01 +2.4728930278309913e+03 -3.0357353139286296e+05 -2.5024977302953146e+07 
+2.2000000000000006e+00 -5.3825212071343786e-01 +7.3463352877515531e+00 -1.2551680311761032e-01 +3.1988692765243243e+01 +2.6476340046275227e+03 -2.9958777762550407e+05 -2.5803779433872826e+07 
+2.3000000000000007e+00 -5.3825203219674078e-01 +7.3463652282900833e+00 -1.3611922592166209e-01 +3.1243121778554567e+01 +2.8387330509470298e+03 -2.9552250966180192e+05 -2.6653764642819915e+07 
+2.4000000000000008e+00 -5.3825193320421383e-01 +7.3463953756270941e+00 -1.4753327716937364e-01 +3.0489021187387156e+01 +3.0436785798148608e+03 -2.9140579648168915e+05 -2.7564358631801132e+07 
+2.5000000000000009e+00 -5.3825182556273776e-01 +7.3464255485837038e+00 -1.5960670437305424e-01 +2.9731371639833757e+01 +3.2599589406358559e+03 -2.8726570891544869e+05 -2.8524986792804118e+07 
+2.6000000000000010e+00 -5.3825171109915948e-01 +7.3464555659829136e+00 -1.7218725909591648e-01 +2.8975153739703288e+01 +3.4850625577427822e+03 -2.8313031749599136e+05 -2.9525074864677634e+07 
+2.7000000000000011e+00 -5.3825159164031855e-01 +7.3464852466230095e+00 -1.8512269371774068e-01 +2.8225348807035111e+01 +3.7164778682251563e+03 -2.7902769681557233e+05 -3.0554048635580786e+07 
+2.8000000000000012e+00 -5.3825146901301091e-01 +7.3465144093038655e+00 -1.9826076561583170e-01 +2.7486938120297765e+01 +3.9516934011067524e+03 -2.7498592115375941e+05 -3.1601334319849741e+07 
+2.9000000000000012e+00 -5.3825134504404260e-01 +7.3465428728069293e+00 -2.1144923094199908e-01 +2.6764903494339222e+01 +4.1881976598821502e+03 -2.7103306780346116e+05 -3.2656357998803500e+07 
+3.0000000000000013e+00 -5.3825122156020022e-01 +7.3465704559013743e+00 -2.2453584814297042e-01 +2.6064227119641259e+01 +4.4234791896801735e+03 -2.6719721618855034e+05 -3.3708545941892743e+07 
+3.1000000000000014e+00 -5.3825110038820823e-01 +7.3465969773413971e+00 -2.3736838305259469e-01 +2.5389891613516259e+01 +4.6550266701459714e+03 -2.6350644807182951e+05 -3.4747325036905542e+07 
+3.2000000000000015e+00 -5.3825098335480348e-01 +7.3466222558647711e+00 -2.4979459996377501e-01 +2.4746880090086339e+01 +4.8803287519110881e+03 -2.5998884803801580e+05 -3.5762122028972819e+07 
+3.3000000000000016e+00 -5.3825087228670199e-01 +7.3466461101929070e+00 -2.6166226517390001e-01 +2.4140176140997134e+01 +5.0968741151641561e+03 -2.5667250332477910e+05 -3.6742363773862526e+07 
+3.4000000000000017e+00 -5.3825076901056046e-01 +7.3466683590278707e+00 -2.7281915273330176e-01 +2.3574763938703001e+01 +5.3021515890790051e+03 -2.5358550445913771e+05 -3.7677477834478021e+07 
+3.5000000000000018e+00 -5.3825067535302662e-01 +7.3466888210533003e+00 -2.8311303691984402e-01 +2.3055628197315610e+01 +5.4936499974089766e+03 -2.5075594498858790e+05 -3.8556891714749947e+07 
+3.6000000000000019e+00 -5.3825059314072277e-01 +7.3467073149317779e+00 -2.9239169539126314e-01 +2.2587754252859618e+01 +5.6688582278620606e+03 -2.4821192195548152e+05 -3.9370033214072675e+07 
+3.7000000000000020e+00 -5.3825052420021047e-01 +7.3467236593030965e+00 -3.0050291285074388e-01 +2.2176128121362947e+01 +5.8252652944940510e+03 -2.4598153624217317e+05 -4.0106330704962544e+07 
+3.8000000000000020e+00 -5.3825047035805440e-01 +7.3467376727814271e+00 -3.0729447375045177e-01 +2.1825736574995208e+01 +5.9603602052449169e+03 -2.4409289299551377e+05 -4.0755212518843971e+07 
+3.9000000000000021e+00 -5.3825043344076551e-01 +7.3467491739604327e+00 -3.1261416848801710e-01 +2.1541567000949016e+01 +6.0716320719312043e+03 -2.4257410081539280e+05 -4.1306107447792493e+07 
+4.0000000000000018e+00 -5.3825041527480821e-01 +7.3467579814084107e+00 -3.1630979330758197e-01 +2.1328607531795051e+01 +6.1565701146595738e+03 -2.4145327247067698e+05 -4.1748444781441830e+07 
+4.1000000000000014e+00 -5.3825041722036460e-01 +7.3467639545929195e+00 -3.1827125381052435e-01 +2.1190489283185435e+01 +6.2133334227129626e+03 -2.4075024767168309e+05 -4.2074379479459539e+07 
+4.2000000000000011e+00 -5.3825043878367995e-01 +7.3467671236909649e+00 -3.1855644154657792e-01 +2.1125359823798895e+01 +6.2427654740589978e+03 -2.4045220983902129e+05 -4.2287033330281988e+07 
+4.3000000000000007e+00 -5.3825047901025802e-01 +7.3467675633706895e+00 -3.1726515188819854e-01 +2.1129979931695239e+01 +6.2463823423920912e+03 -2.4053827301765885e+05 -4.2392286048586093e+07 
+4.4000000000000004e+00 -5.3825053694557923e-01 +7.3467653482987751e+00 -3.1449718241674213e-01 +2.1201110447373868e+01 +6.2257001384146715e+03 -2.4098755182115181e+05 -4.2396017514001131e+07 
+4.5000000000000000e+00 -5.3825061163512711e-01 +7.3467605531560283e+00 -3.1035232955699593e-01 +2.1335511832151223e+01 +6.1822349458620474e+03 -2.4177915890229857e+05 -4.2304107469146833e+07 
+4.5999999999999996e+00 -5.3825070212441184e-01 +7.3467532526307950e+00 -3.0493038593133276e-01 +2.1529944352075624e+01 +6.1175027752100314e+03 -2.4289220600897644e+05 -4.2122435311806642e+07 
+4.6999999999999993e+00 -5.3825080745893006e-01 +7.3467435214203185e+00 -2.9833114444192216e-01 +2.1781168050317419e+01 +6.0330196322022111e+03 -2.4430580387218858e+05 -4.1856880394625731e+07 
+4.7999999999999989e+00 -5.3825092668418317e-01 +7.3467314342335168e+00 -2.9065439696239614e-01 +2.2085942654974236e+01 +5.9303015014818702e+03 -2.4599906164916136e+05 -4.1513321971257269e+07 
+4.8999999999999986e+00 -5.3825105884568336e-01 +7.3467170657901519e+00 -2.8199993290731651e-01 +2.2441027620320888e+01 +5.8108643150816024e+03 -2.4795108721925283e+05 -4.1097639036991678e+07 
+4.9999999999999982e+00 -5.3825120298896056e-01 +7.3467004908245173e+00 -2.7246753855374695e-01 +2.2843182005921541e+01 +5.6762239400660792e+03 -2.5014098646667731e+05 -4.0615710269666955e+07 
+5.0999999999999979e+00 -5.3825135815955227e-01 +7.3466817840813707e+00 -2.6215699832888179e-01 +2.3289164605173291e+01 +5.5278962035361201e+03 -2.5254786405483898e+05 -4.0073414151560903e+07 
+5.1999999999999975e+00 -5.3825152340298721e-01 +7.3466610203226423e+00 -2.5116809656168060e-01 +2.3775733746056396e+01 +5.3673969242414396e+03 -2.5515082227583523e+05 -3.9476629115340568e+07 
+5.2999999999999972e+00 -5.3825169776483450e-01 +7.3466382743232792e+00 -2.3960061164042745e-01 +2.4299647420746972e+01 +5.1962418031838388e+03 -2.5792896184346185e+05 -3.8831233028409511e+07 
+5.3999999999999968e+00 -5.3825188029065862e-01 +7.3466136208754689e+00 -2.2755432162538725e-01 +2.4857663151334933e+01 +5.0159465313694755e+03 -2.6086138108352164e+05 -3.8143103709222332e+07 
+5.4999999999999964e+00 -5.3825207002604591e-01 +7.3465871347899192e+00 -2.1512900013705316e-01 +2.5446537973079028e+01 +4.8280267049374615e+03 -2.6392717591853451e+05 -3.7418118505587026e+07 
+5.5999999999999961e+00 -5.3825226601657605e-01 +7.3465588908919770e+00 -2.0242442094970725e-01 +2.6063028532271627e+01 +4.6339979207484512e+03 -2.6710544039019354e+05 -3.6662154772307709e+07 
+5.6999999999999957e+00 -5.3825246730788057e-01 +7.3465289640257696e+00 -1.8954035028686431e-01 +2.6703890969583409e+01 +4.4353756270640888e+03 -2.7037526602286485e+05 -3.5881089153058961e+07 
+5.7999999999999954e+00 -5.3825267294556767e-01 +7.3464974290614631e+00 -1.7657655538341704e-01 +2.7365880722303952e+01 +4.2336752801400153e+03 -2.7371574070968048e+05 -3.5080798309620515e+07 
+5.8999999999999950e+00 -5.3825288197529308e-01 +7.3464643608804767e+00 -1.6363279713813192e-01 +2.8045752934706421e+01 +4.0304122151817965e+03 -2.7710595105905936e+05 -3.4267158336623028e+07 
+5.9999999999999947e+00 -5.3825309344273065e-01 +7.3464298343914249e+00 -1.5080883227653658e-01 +2.8740262030127681e+01 +3.8271016794534976e+03 -2.8052498004016199e+05 -3.3446044901239734e+07 
+6.0999999999999943e+00 -5.3825330655410453e-01 +7.3463939364255975e+00 -1.3818952064695147e-01 +2.9446323403670704e+01 +3.6250604692864781e+03 -2.8395422862572933e+05 -3.2622686791921545e+07 
+6.1999999999999940e+00 -5.3825352114755931e-01 +7.3463568010365279e+00 -1.2580208307417687e-01 +3.0161320540095783e+01 +3.4248356677657912e+03 -2.8738264780808002e+05 -3.1799787129348382e+07 
+6.2999999999999936e+00 -5.3825373721672898e-01 +7.3463185740053918e+00 -1.1365980412855108e-01 +3.0882711491245701e+01 +3.2267881259269584e+03 -2.9080066289498226e+05 -3.0979436017289177e+07 
+6.3999999999999932e+00 -5.3825395475525439e-01 +7.3462794011152264e+00 -1.0177596818219976e-01 +3.1607954219616779e+01 +3.0312787024840773e+03 -2.9419869842629286e+05 -3.0163723633046489e+07 
+6.4999999999999929e+00 -5.3825417375681162e-01 +7.3462394281499490e+00 -9.0163857353347338e-02 +3.2334506626242081e+01 +2.8386682327768372e+03 -2.9756717834159767e+05 -2.9354740098983798e+07 
+6.5999999999999925e+00 -5.3825439421508980e-01 +7.3461988008944319e+00 -7.8836752701064813e-02 +3.3059826538674379e+01 +2.6493175446573473e+03 -3.0089652587708493e+05 -2.8554575541985631e+07 
+6.6999999999999922e+00 -5.3825461612377046e-01 +7.3461576651366265e+00 -6.7807938208531982e-02 +3.3781371657197681e+01 +2.4635875406019159e+03 -3.0417716325921944e+05 -2.7765320499703415e+07 
+6.7999999999999918e+00 -5.3825483947658115e-01 +7.3461161666674624e+00 -5.7090693372945846e-02 +3.4496599556424222e+01 +2.2818390539576417e+03 -3.0739951170966751e+05 -2.6989065229711767e+07 
+6.8999999999999915e+00 -5.3825506426725378e-01 +7.3460744512789908e+00 -4.6698298745307246e-02 +3.5202967723471808e+01 +2.1044329571118237e+03 -3.1055399161767878e+05 -2.6227900231991045e+07 
+6.9999999999999911e+00 -5.3825529048952825e-01 +7.3460326647647616e+00 -3.6644035355173070e-02 +3.5897933559133307e+01 +1.9317301485297148e+03 -3.1363102255989698e+05 -2.5483916181630183e+07 
+7.0999999999999908e+00 -5.3825551813719230e-01 +7.3459909529220182e+00 -2.6941180508456911e-02 +3.6578954304694939e+01 +1.7640914799147467e+03 -3.1662102285673283e+05 -2.4759203601440392e+07 
+7.1999999999999904e+00 -5.3825574720402325e-01 +7.3459494615467298e+00 -1.7603013681973263e-02 +3.7243487190166974e+01 +1.6018778576113207e+03 -3.1951441042486770e+05 -2.4055853316123780e+07 
+7.2999999999999901e+00 -5.3825597768384059e-01 +7.3459083364402185e+00 -8.6428117282942966e-03 +3.7888989227080863e+01 +1.4454501651410555e+03 -3.2230160153346421e+05 -2.3375956120537002e+07 
+7.3999999999999897e+00 -5.3825620957047848e-01 +7.3458677234012653e+00 -7.3851223960801600e-05 +3.8512917455701327e+01 +1.2951692993117529e+03 -3.2497301227065240e+05 -2.2721602927534539e+07 
+7.4999999999999893e+00 -5.3825644285778540e-01 +7.3458277682353135e+00 +8.0905912311751895e-03 +3.9112728655507290e+01 +1.1513961797635488e+03 -3.2751905680861982e+05 -2.2094884826587975e+07 
+7.5999999999999890e+00 -5.3825667753964446e-01 +7.3457886167488944e+00 +1.5837240928669453e-02 +3.9685879517283794e+01 +1.0144917147416818e+03 -3.2993014840781991e+05 -2.1497892924242672e+07 
+7.6999999999999886e+00 -5.3825691360995576e-01 +7.3457504147485029e+00 +2.3152823405799602e-02 +4.0229826667736155e+01 +8.8481683099359157e+02 -3.3219669953775796e+05 -2.0932718484118622e+07 
+7.7999999999999883e+00 -5.3825715106263550e-01 +7.3457133080430426e+00 +3.0024064181662792e-02 +4.0742026607656982e+01 +7.6273247837511826e+02 -3.3430912153879052e+05 -2.0401452946954370e+07 
+7.8999999999999879e+00 -5.3825738989164762e-01 +7.3456774424445710e+00 +3.6437692102357602e-02 +4.1219935665771594e+01 +6.4859957115511531e+02 -3.3625782426413888e+05 -1.9906187665408507e+07 
+7.9999999999999876e+00 -5.3825763009096272e-01 +7.3456429637645018e+00 +4.2380435108119320e-02 +4.1661010124604459e+01 +5.4277906345374902e+02 -3.3803321678447578e+05 -1.9449014242284153e+07 
+8.0999999999999872e+00 -5.3825787171001971e-01 +7.3456100098747648e+00 +4.7843823672516640e-02 +4.2063175333600960e+01 +4.4553454469156105e+02 -3.3962801803756278e+05 -1.9031484083299484e+07 
+8.1999999999999869e+00 -5.3825811502240994e-01 +7.3455786818218662e+00 +5.2839397596306202e-02 +4.2426458372173919e+01 +3.5670627960174318e+02 -3.4104596861650550e+05 -1.8652815818407860e+07 
+8.2999999999999865e+00 -5.3825836035830343e-01 +7.3455490700372721e+00 +5.7383908344491023e-02 +4.2751474772071596e+01 +2.7601963085393544e+02 -3.4229403611439455e+05 -1.8311596778195005e+07 
+8.3999999999999861e+00 -5.3825860804793202e-01 +7.3455212649457380e+00 +6.1494112245274228e-02 +4.3038840240571737e+01 +2.0319987019617463e+02 -3.4337918924632564e+05 -1.8006413836061597e+07 
+8.4999999999999858e+00 -5.3825885842155086e-01 +7.3454953569743378e+00 +6.5186765661845641e-02 +4.3289170398305878e+01 +1.3797227426296433e+02 -3.4430839636148495e+05 -1.7735853875424393e+07 
+8.5999999999999854e+00 -5.3825911180940589e-01 +7.3454714365502696e+00 +6.8478621067304346e-02 +4.3503080831394612e+01 +8.0062199063549741e+01 -3.4508862572090275e+05 -1.7498504144273732e+07 
+8.6999999999999851e+00 -5.3825936854177503e-01 +7.3454495940965892e+00 +7.1386431449315127e-02 +4.3681187223446919e+01 +2.9194996435768349e+01 -3.4572684629117156e+05 -1.7292951852861252e+07 
+8.7999999999999847e+00 -5.3825962894899193e-01 +7.3454299200393294e+00 +7.3926954066662734e-02 +4.3824105138413181e+01 -1.4904058590884148e+01 -3.4623002646043198e+05 -1.7117783828924816e+07 
+8.8999999999999844e+00 -5.3825989336139424e-01 +7.3454125047976415e+00 +7.6116943190139050e-02 +4.3932450322167490e+01 -5.2509628337507358e+01 -3.4660513583749230e+05 -1.6971587180243112e+07 
+8.9999999999999840e+00 -5.3826016210931882e-01 +7.3453974387938423e+00 +7.7973149994949600e-02 +4.4006838388196485e+01 -8.3896311398623226e+01 -3.4685914337439532e+05 -1.6852949299214277e+07 
+9.0999999999999837e+00 -5.3826043552317038e-01 +7.3453848124492414e+00 +7.9512330561067657e-02 +4.4047884962401838e+01 -1.0933879410449720e+02 -3.4699901827544952e+05 -1.6760457140693722e+07 
+9.1999999999999833e+00 -5.3826071393335650e-01 +7.3453747161792382e+00 +8.0751237776378340e-02 +4.4056205804424565e+01 -1.2911169547347200e+02 -3.4703173065041273e+05 -1.6692697963014660e+07 
+9.2999999999999829e+00 -5.3826099767031355e-01 +7.3453672404001384e+00 +8.1706625078059605e-02 +4.4032416621563534e+01 -1.4348964182662721e+02 -3.4696425047357951e+05 -1.6648258963432161e+07 
+9.3999999999999826e+00 -5.3826128706451037e-01 +7.3453624755300693e+00 +8.2395246074913872e-02 +4.3977133035620028e+01 -1.5274725678597298e+02 -3.4680354737619677e+05 -1.6625727330355205e+07 
+9.4999999999999822e+00 -5.3826158244644196e-01 +7.3453605119809398e+00 +8.2833853899637072e-02 +4.3890970820513090e+01 -1.5715914775074424e+02 -3.4655659205364599e+05 -1.6623690311117114e+07 
+9.5999999999999819e+00 -5.3826188414661646e-01 +7.3453614401630576e+00 +8.3039199929978602e-02 +4.3774545766215923e+01 -1.5699988589386606e+02 -3.4623035546188918e+05 -1.6640735295706920e+07 
+9.6999999999999815e+00 -5.3826219249559504e-01 +7.3453653504852037e+00 +8.3028037898722984e-02 +4.3628473669259975e+01 -1.5254407922602942e+02 -3.4583180875930621e+05 -1.6675449479536353e+07 
+9.7999999999999812e+00 -5.3826250782394802e-01 +7.3453723333585001e+00 +8.2817119434791031e-02 +4.3453370233053626e+01 -1.4406629325599405e+02 -3.4536792276368017e+05 -1.6726420228381190e+07 
+9.8999999999999808e+00 -5.3826283046229151e-01 +7.3453824791856093e+00 +8.2423197394041317e-02 +4.3249851365620117e+01 -1.3184110970695065e+02 -3.4484566964535316e+05 -1.6792234806682099e+07 
+9.9999999999999805e+00 -5.3826316074125558e-01 +7.3453958783720594e+00 +8.1863022514957987e-02 +4.3018532839912652e+01 -1.1614306750006777e+02 -3.4427202110449120e+05 -1.6871480661428049e+07 
+1.0099999999999980e+01 -5.3826349882289415e-01 +7.3454125731178914e+00 +8.1150906077815846e-02 +4.2760124192577209e+01 -9.7248258443354928e+01 -3.4365279247706180e+05 -1.6962697518177506e+07 
