# multipoles
# s[mm] polynom_b[n=0][T/m^n] polynom_b[n=1][T/m^n] polynom_b[n=2][T/m^n] polynom_b[n=3][T/m^n] polynom_b[n=4][T/m^n] polynom_b[n=5][T/m^n] polynom_b[n=6][T/m^n] 
+0.0000000000000000e+00 -5.9245377874693139e-01 +8.1128624941515248e+00 -3.6700140052388774e-01 -6.0032251568033573e+01 +3.2462811385376090e+03 +8.3985725602579463e+04 -2.3910825635633614e+07 
-1.0000000000000001e-01 -5.9245384316711203e-01 +8.1129500381017614e+00 -3.6468919225645474e-01 -6.1975019985068379e+01 +3.2017265999204778e+03 +9.3794478912755338e+04 -2.3710436991787195e+07 
-2.0000000000000001e-01 -5.9245389961154715e-01 +8.1130378171517332e+00 -3.6246194667607168e-01 -6.3926011210078691e+01 +3.1516039397829500e+03 +1.0366455989507545e+05 -2.3471519200177561e+07 
-3.0000000000000004e-01 -5.9245394804091556e-01 +8.1131254041508321e+00 -3.6036814044694304e-01 -6.5876322495389758e+01 +3.0971413882176766e+03 +1.1355145250140045e+05 -2.3200125889410604e+07 
-4.0000000000000002e-01 -5.9245398841588681e-01 +8.1132123719463394e+00 -3.5845625126559766e-01 -6.7817050979960015e+01 +3.0395671941642181e+03 +1.2341063986735724e+05 -2.2902310777713329e+07 
-5.0000000000000000e-01 -5.9245402069712161e-01 +8.1132982933942603e+00 -3.5677475793203739e-01 -6.9739294008225144e+01 +2.9801096256289165e+03 +1.3319760617861652e+05 -2.2584127668128900e+07 
-5.9999999999999998e-01 -5.9245404484527830e-01 +8.1133827413492288e+00 -3.5537213866426626e-01 -7.1634148841357288e+01 +2.9199969348053214e+03 +1.4286783499738318e+05 -2.2251630278755549e+07 
-6.9999999999999996e-01 -5.9245406082099827e-01 +8.1134652886734209e+00 -3.5429687347419864e-01 -7.3492712930682572e+01 +2.8604574041210371e+03 +1.5237681088739922e+05 -2.1910872460232001e+07 
-7.9999999999999993e-01 -5.9245406858490457e-01 +8.1135455082276486e+00 -3.5359744408757449e-01 -7.5306083655048681e+01 +2.8027193431444375e+03 +1.6168001788141209e+05 -2.1567908178298973e+07 
-8.9999999999999991e-01 -5.9245406809760126e-01 +8.1136229728853912e+00 -3.5332233364186538e-01 -7.7065358749056827e+01 +2.7480110821220783e+03 +1.7073294201347086e+05 -2.1228791482141718e+07 
-9.9999999999999989e-01 -5.9245405931970030e-01 +8.1136972555116387e+00 -3.5352002419628853e-01 -7.8761635681293654e+01 +2.6975609285557498e+03 +1.7949106769093906e+05 -2.0899576306071252e+07 
-1.0999999999999999e+00 -5.9245404221174192e-01 +8.1137679289858564e+00 -3.5423900457489682e-01 -8.0386012343499203e+01 +2.6525973030076943e+03 +1.8790988175326402e+05 -2.0586317082068685e+07 
-1.2000000000000000e+00 -5.9245401673427289e-01 +8.1138345661890803e+00 -3.5552776270660003e-01 -8.1929586670741131e+01 +2.6143486062737420e+03 +1.9594487125412701e+05 -2.0295068139796346e+07 
-1.3000000000000000e+00 -5.9245398284778494e-01 +8.1138967400060924e+00 -3.5743479135897854e-01 -8.3383456716778866e+01 +2.5840433177047212e+03 +2.0355152391990440e+05 -2.0031884148445480e+07 
-1.4000000000000001e+00 -5.9245394051275801e-01 +8.1139540233236040e+00 -3.6000858453494411e-01 -8.4738720606374187e+01 +2.5629099355641092e+03 +2.1068532788936319e+05 -1.9802819853147898e+07 
-1.5000000000000002e+00 -5.9245388968962387e-01 +8.1140059890338208e+00 -3.6329764018962524e-01 -8.5986476646298811e+01 +2.5521770186287017e+03 +2.1730177238156408e+05 -1.9613930249212172e+07 
-1.6000000000000003e+00 -5.9245383033877241e-01 +8.1140522100400041e+00 -3.6735045983307130e-01 -8.7117823497766324e+01 +2.5530731802471214e+03 +2.2335634871378707e+05 -1.9471270556404121e+07 
-1.7000000000000004e+00 -5.9245376242055392e-01 +8.1140922592415112e+00 -3.7221554876846685e-01 -8.8123859744795567e+01 +2.5668270959640354e+03 +2.2880454780630785e+05 -1.9380896263089702e+07 
-1.8000000000000005e+00 -5.9245368589527281e-01 +8.1141257095491301e+00 -3.7794141602906700e-01 -8.8995684346977029e+01 +2.5946674973215377e+03 +2.3360186283128784e+05 -1.9348863084325802e+07 
-1.9000000000000006e+00 -5.9245360072316555e-01 +8.1141521338753080e+00 -3.8457657747999041e-01 -8.9724396363057821e+01 +2.6378232323763887e+03 +2.3770378761301300e+05 -1.9381227253053330e+07 
-2.0000000000000004e+00 -5.9245350686443765e-01 +8.1141711051396719e+00 -3.9216955067103609e-01 -9.0301095120177592e+01 +2.6975231644075225e+03 +2.4106581765237657e+05 -1.9484045029791806e+07 
-2.1000000000000005e+00 -5.9245340456840079e-01 +8.1141823150937320e+00 -4.0074262878433670e-01 -9.0719207316039785e+01 +2.7745191550684663e+03 +2.4365466313263291e+05 -1.9661278487601351e+07 
-2.2000000000000006e+00 -5.9245329524648915e-01 +8.1141859272583776e+00 -4.1021401319732131e-01 -9.0981367980549734e+01 +2.8676702829384471e+03 +2.4548157066130245e+05 -1.9908584573897909e+07 
-2.3000000000000007e+00 -5.9245318060210317e-01 +8.1141822222229685e+00 -4.2047607867860726e-01 -9.1092489157635057e+01 +2.9753661068371966e+03 +2.4656884175865434e+05 -2.0219561358687785e+07 
-2.4000000000000008e+00 -5.9245306233867134e-01 +8.1141714805760419e+00 -4.3142119569228077e-01 -9.1057482901506745e+01 +3.0959960946892606e+03 +2.4693877812707957e+05 -2.0587806452835709e+07 
-2.5000000000000009e+00 -5.9245294215955557e-01 +8.1141539828918159e+00 -4.4294174316413365e-01 -9.0881260886325265e+01 +3.2279498755742570e+03 +2.4661367938005860e+05 -2.1006918231394503e+07 
-2.6000000000000010e+00 -5.9245282176812464e-01 +8.1141300097456561e+00 -4.5493009872305162e-01 -9.0568734866356309e+01 +3.3696170479068101e+03 +2.4561584577138803e+05 -2.1470494903402779e+07 
-2.7000000000000011e+00 -5.9245270286776153e-01 +8.1140998417007619e+00 -4.6727863810015541e-01 -9.0124816274774631e+01 +3.5193871711307265e+03 +2.4396757581107999e+05 -2.1972134481286250e+07 
-2.8000000000000012e+00 -5.9245258716180482e-01 +8.1140637593126073e+00 -4.7987974318194832e-01 -8.9554416374505479e+01 +3.6756499239318841e+03 +2.4169116722958538e+05 -2.2505435545931172e+07 
-2.9000000000000012e+00 -5.9245247635362308e-01 +8.1140220431280774e+00 -4.9262579157464403e-01 -8.8862446214954829e+01 +3.8367948966361705e+03 +2.3880891665903118e+05 -2.3063996234149642e+07 
-3.0000000000000013e+00 -5.9245237214655588e-01 +8.1139749736796745e+00 -5.0540916500767774e-01 -8.8053816481666232e+01 +4.0012117609525721e+03 +2.3534311883569785e+05 -2.3641415074527528e+07 
-3.1000000000000014e+00 -5.9245227624394681e-01 +8.1139228314950635e+00 -5.1812224513055904e-01 -8.7133437771604250e+01 +4.1672901850054905e+03 +2.3131606819026350e+05 -2.4231290565886457e+07 
-3.2000000000000015e+00 -5.9245219034915386e-01 +8.1138658970807871e+00 -5.3065741200152250e-01 -8.6106220107738395e+01 +4.3334198077298606e+03 +2.2675005599704746e+05 -2.4827221067469388e+07 
-3.3000000000000016e+00 -5.9245211616551674e-01 +8.1138044509345892e+00 -5.4290704902456166e-01 -8.4977073331457618e+01 +4.4979903344575996e+03 +2.2166737277049446e+05 -2.5422805254394028e+07 
-3.4000000000000017e+00 -5.9245205539640011e-01 +8.1137387735411082e+00 -5.5476353601740225e-01 -8.3750906934563289e+01 +4.6593913969661216e+03 +2.1609030715598466e+05 -2.6011641431491099e+07 
-3.5000000000000018e+00 -5.9245200974518253e-01 +8.1136691453649501e+00 -5.6611925316941913e-01 -8.2432629903819091e+01 +4.8160126467995378e+03 +2.1004114517970770e+05 -2.6587328026643887e+07 
-3.6000000000000019e+00 -5.9245198091520690e-01 +8.1135958468556382e+00 -5.7686658491056764e-01 -8.1027150844057545e+01 +4.9662438097073727e+03 +2.0354217089571318e+05 -2.7143463794412397e+07 
-3.7000000000000020e+00 -5.9245197060987564e-01 +8.1135191584503570e+00 -5.8689790935653663e-01 -7.9539378054554518e+01 +5.1084744971561931e+03 +1.9661566683938072e+05 -2.7673646955521066e+07 
-3.8000000000000020e+00 -5.9245198053258641e-01 +8.1134393605598181e+00 -5.9610560670693491e-01 -7.7974219138403043e+01 +5.2410943676672259e+03 +1.8928391181552768e+05 -2.8171475966888770e+07 
-3.9000000000000021e+00 -5.9245201238672385e-01 +8.1133567335824708e+00 -6.0438205901594344e-01 -7.6336581402995179e+01 +5.3624931133864020e+03 +1.8156918319554286e+05 -2.8630549433421481e+07 
-4.0000000000000018e+00 -5.9245206787575522e-01 +8.1132715578904655e+00 -6.1161964011650305e-01 -7.4631371466528080e+01 +5.4710602799910394e+03 +1.7349375467961424e+05 -2.9044465280286293e+07 
-4.1000000000000014e+00 -5.9245214819267167e-01 +8.1131841692880720e+00 -6.1773980708757437e-01 -7.2864730384287398e+01 +5.5655772381532543e+03 +1.6508592585900601e+05 -2.9408321263514966e+07 
-4.2000000000000011e+00 -5.9245225249215883e-01 +8.1130951223734691e+00 -6.2278133914026379e-01 -7.1047606139403953e+01 +5.6464155229835915e+03 +1.5639721661282668e+05 -2.9723324680164300e+07 
-4.3000000000000007e+00 -5.9245237942008822e-01 +8.1130050257573867e+00 -6.2681260951084550e-01 -6.9192116806388853e+01 +5.7143501426086159e+03 +1.4748473549470113e+05 -2.9992238442518897e+07 
-4.4000000000000004e+00 -5.9245252762237999e-01 +8.1129144880605644e+00 -6.2990198939464648e-01 -6.7310380681672996e+01 +5.7701560968474396e+03 +1.3840559223192799e+05 -3.0217825501642883e+07 
-4.5000000000000000e+00 -5.9245269574503967e-01 +8.1128241179059106e+00 -6.3211784201466847e-01 -6.5414516044700605e+01 +5.8146082559528722e+03 +1.2921689630039647e+05 -3.0402848247597843e+07 
-4.5999999999999996e+00 -5.9245288243413974e-01 +8.1127345239243809e+00 -6.3352852575714380e-01 -6.3516641321638552e+01 +5.8484814250695435e+03 +1.1997575786679646e+05 -3.0550068827985935e+07 
-4.6999999999999993e+00 -5.9245308633582272e-01 +8.1126463147552155e+00 -6.3420239444896986e-01 -6.1628875109894913e+01 +5.8725503545431175e+03 +1.1073928798721745e+05 -3.0662249212294098e+07 
-4.7999999999999989e+00 -5.9245330609632785e-01 +8.1125600990419873e+00 -6.3420779336861244e-01 -5.9763336015328591e+01 +5.8875896616801083e+03 +1.0156459751425883e+05 -3.0742150812031437e+07 
-4.8999999999999986e+00 -5.9245354036196263e-01 +8.1124764854418352e+00 -6.3361306343134793e-01 -5.7932142949538473e+01 +5.8943739137350276e+03 +9.2508798919883746e+04 -3.0792534886300817e+07 
-4.9999999999999982e+00 -5.9245378777914026e-01 +8.1123960826160513e+00 -6.3248653667483623e-01 -5.6147414840202650e+01 +5.8936775416287428e+03 +8.3629004565476236e+04 -3.0816162126722436e+07 
-5.0999999999999979e+00 -5.9245404699434001e-01 +8.1123194992377723e+00 -6.3089654107626270e-01 -5.4421270832943769e+01 +5.8862749344995664e+03 +7.4982327819480561e+04 -3.0815793119395178e+07 
-5.1999999999999975e+00 -5.9245431665418058e-01 +8.1122473439933138e+00 -6.2891139210031421e-01 -5.2765830353954897e+01 +5.8729402815925105e+03 +6.6625883486753199e+04 -3.0794187596596103e+07 
-5.2999999999999972e+00 -5.9245459540534540e-01 +8.1121802255758588e+00 -6.2659940177230566e-01 -5.1193212887271109e+01 +5.8544477439547618e+03 +5.8616786402215213e+04 -3.0754105252438970e+07 
-5.3999999999999968e+00 -5.9245488189464457e-01 +8.1121187526937231e+00 -6.2402887155278230e-01 -4.9715538239288676e+01 +5.8315713245028201e+03 +5.1012153053759474e+04 -3.0698305139985677e+07 
-5.4999999999999964e+00 -5.9245517476898690e-01 +8.1120635340647240e+00 -6.2126809528232829e-01 -4.8344926344078793e+01 +5.8050849177988812e+03 +4.3869100351923611e+04 -3.0629545890625115e+07 
-5.5999999999999961e+00 -5.9245547267540222e-01 +8.1120151784252759e+00 -6.1838535759976332e-01 -4.7093497546097801e+01 +5.7757622914369731e+03 +3.7244747327183679e+04 -3.0550585656412687e+07 
-5.6999999999999957e+00 -5.9245577426103979e-01 +8.1119742945176352e+00 -6.1544893281424273e-01 -4.5973372193460335e+01 +5.7443770557595344e+03 +3.1196212679975808e+04 -3.0464181943867676e+07 
-5.7999999999999954e+00 -5.9245607817315404e-01 +8.1119414911085830e+00 -6.1252708900660802e-01 -4.4996671196743236e+01 +5.7117027551752008e+03 +2.5780618060968918e+04 -3.0373092081115890e+07 
-5.8999999999999950e+00 -5.9245638305916670e-01 +8.1119173769699557e+00 -6.0968807844298389e-01 -4.4175515463425775e+01 +5.6785126759333398e+03 +2.1055084793223588e+04 -3.0280072279087268e+07 
-5.9999999999999947e+00 -5.9245668756658809e-01 +8.1119025608960698e+00 -6.0700014881363096e-01 -4.3522026374793285e+01 +5.6455800694604468e+03 +1.7076736600305994e+04 -3.0187878715375427e+07 
-6.0999999999999943e+00 -5.9245699055001588e-01 +8.1118974464146500e+00 -6.0452463091872966e-01 -4.3044592104758451e+01 +5.6136625883178813e+03 +1.3886087036023098e+04 -3.0099315448444977e+07 
-6.1999999999999940e+00 -5.9245729167608308e-01 +8.1119016241844282e+00 -6.0228914679037604e-01 -4.2736974292205524e+01 +5.5833509048903297e+03 +1.1458297532312687e+04 -3.0016933627801731e+07 
-6.2999999999999936e+00 -5.9245759081050831e-01 +8.1119144833843961e+00 -6.0031138264935668e-01 -4.2589352432402741e+01 +5.5551682467920655e+03 +9.7524620940235145e+03 -2.9943111375463963e+07 
-6.3999999999999932e+00 -5.9245788781891917e-01 +8.1119354131942369e+00 -5.9860903143487687e-01 -4.2591906131585532e+01 +5.5296379409701485e+03 +8.7276753835987492e+03 -2.9880227219268136e+07 
-6.4999999999999929e+00 -5.9245818256688831e-01 +8.1119638027938343e+00 -5.9719978844383348e-01 -4.2734815095024551e+01 +5.5072833319095789e+03 +8.3430327175176953e+03 -2.9830659713304199e+07 
-6.5999999999999925e+00 -5.9245847491992298e-01 +8.1119990413739718e+00 -5.9610135227237537e-01 -4.3008259446516178e+01 +5.4886277951500842e+03 +8.5576319333185747e+03 -2.9796787489215612e+07 
-6.6999999999999922e+00 -5.9245876474344628e-01 +8.1120405181215851e+00 -5.9533142716900389e-01 -4.3402419293922158e+01 +5.4741947827782033e+03 +9.3305708459851703e+03 -2.9780989476497281e+07 
-6.7999999999999918e+00 -5.9245905190282766e-01 +8.1120876222309608e+00 -5.9490771874828940e-01 -4.3907475062764640e+01 +5.4645077410670656e+03 +1.0620949198984024e+04 -2.9785644509722337e+07 
-6.8999999999999915e+00 -5.9245933626333569e-01 +8.1121397428954793e+00 -5.9484793979464301e-01 -4.4513607263131931e+01 +5.4600902157197725e+03 +1.2387867311536209e+04 -2.9813131814029261e+07 
-6.9999999999999911e+00 -5.9245961769015643e-01 +8.1121962693217071e+00 -5.9516980779226947e-01 -4.5210996904903396e+01 +5.4614658088099641e+03 +1.4590428509723906e+04 -2.9865830814758509e+07 
-7.0999999999999908e+00 -5.9245989604842297e-01 +8.1122565907094568e+00 -5.9589104016466510e-01 -4.5989824923663953e+01 +5.4691580774282247e+03 +1.7187735791607036e+04 -2.9946120623465873e+07 
-7.1999999999999904e+00 -5.9246017120312655e-01 +8.1123200962666964e+00 -5.9702936666303541e-01 -4.6840272608140552e+01 +5.4836907778576415e+03 +2.0138894284772996e+04 -3.0056381224937480e+07 
-7.2999999999999901e+00 -5.9246044301917666e-01 +8.1123861752082487e+00 -5.9860252052897445e-01 -4.7752521582656186e+01 +5.5055876911619043e+03 +2.3403011189106895e+04 -3.0198992631165415e+07 
-7.3999999999999897e+00 -5.9246071136142209e-01 +8.1124542167455029e+00 -6.0062823534211429e-01 -4.8716753493987618e+01 +5.5353725592139472e+03 +2.6939193919164773e+04 -3.0376334568027135e+07 
-7.4999999999999893e+00 -5.9246097609456438e-01 +8.1125236101007658e+00 -6.0312425700185290e-01 -4.9723150461093191e+01 +5.5735693177598232e+03 +3.0706552784412921e+04 -3.0590787595786400e+07 
-7.5999999999999890e+00 -5.9246123708321741e-01 +8.1125937444987244e+00 -6.0610833449459922e-01 -5.0761894798993609e+01 +5.6207019111711306e+03 +3.4664199313927158e+04 -3.0844732204137698e+07 
-7.6999999999999886e+00 -5.9246149419187977e-01 +8.1126640091655133e+00 -6.0959822391314766e-01 -5.1823169020175989e+01 +5.6772943726268022e+03 +3.8771246321591098e+04 -3.1140549205958236e+07 
-7.7999999999999883e+00 -5.9246174728493706e-01 +8.1127337933357850e+00 -6.1361168772742036e-01 -5.2897156029504664e+01 +5.7438708071524334e+03 +4.2986809007481934e+04 -3.1480619646810677e+07 
-7.8999999999999879e+00 -5.9246199622666218e-01 +8.1128024862432824e+00 -6.1816649472548846e-01 -5.3974038869338180e+01 +5.8209553897205178e+03 +4.7270003516335950e+04 -3.1867324795059111e+07 
-7.9999999999999876e+00 -5.9246224088120236e-01 +8.1128694771326515e+00 -6.2328042105003745e-01 -5.5044001049231888e+01 +5.9090723808647426e+03 +5.1579948709762386e+04 -3.2303046215475138e+07 
-8.0999999999999872e+00 -5.9246248133369728e-01 +8.1129342371662947e+00 -6.2895656808516520e-01 -5.6098412763570110e+01 +6.0084304437072724e+03 +5.5880140504589428e+04 -3.2788692256150462e+07 
-8.1999999999999869e+00 -5.9246271855707067e-01 +8.1129965563856850e+00 -6.3514322265417111e-01 -5.7132893292164567e+01 +6.1180268585644035e+03 +6.0149522179660984e+04 -3.3319452909938246e+07 
-8.2999999999999865e+00 -5.9246295374711944e-01 +8.1130563025016258e+00 -6.4177590458258493e-01 -5.8143995459271785e+01 +6.2365669405539975e+03 +6.4370351449453730e+04 -3.3889124037271693e+07 
-8.3999999999999861e+00 -5.9246318809961185e-01 +8.1131133432124987e+00 -6.4879013540292618e-01 -5.9128271623485560e+01 +6.3627560145091575e+03 +6.8524883102120060e+04 -3.4491501494276308e+07 
-8.4999999999999858e+00 -5.9246342281026698e-01 +8.1131675462132353e+00 -6.5612144203463185e-01 -6.0082273987298123e+01 +6.4952994994570772e+03 +7.2595370744274071e+04 -3.5120381562726341e+07 
-8.5999999999999854e+00 -5.9246365907474352e-01 +8.1132187791917740e+00 -6.6370535663853403e-01 -6.1002554447924247e+01 +6.6329028906228477e+03 +7.6564065799735588e+04 -3.5769560819782555e+07 
-8.6999999999999851e+00 -5.9246389808870015e-01 +8.1132669098233929e+00 -6.7147740996090488e-01 -6.1885664484164941e+01 +6.7742716423829197e+03 +8.0413216995028662e+04 -3.6432835609058075e+07 
-8.7999999999999847e+00 -5.9246414104770673e-01 +8.1133118057842371e+00 -6.7937314257912673e-01 -6.2728155490840997e+01 +6.9181113815169265e+03 +8.4125072139122116e+04 -3.7104003052970417e+07 
-8.8999999999999844e+00 -5.9246438914730715e-01 +8.1133533347313875e+00 -6.8732809599133537e-01 -6.3526578244087382e+01 +7.0631277299358271e+03 +8.7681875135608250e+04 -3.7776860187684566e+07 
-8.9999999999999840e+00 -5.9246464358299367e-01 +8.1133913643189555e+00 -6.9527781681756551e-01 -6.4277483326584587e+01 +7.2080263929042048e+03 +9.1065868333113816e+04 -3.8445204405257709e+07 
-9.0999999999999837e+00 -5.9246490555021303e-01 +8.1134257621974442e+00 -7.0315785582386170e-01 -6.4977421148067918e+01 +7.3515131360099158e+03 +9.4259292754124297e+04 -3.9102833331243478e+07 
-9.1999999999999833e+00 -5.9246517624436057e-01 +8.1134563959967601e+00 -7.1090376841284753e-01 -6.5622941401374504e+01 +7.4922937954773934e+03 +9.7244384788842624e+04 -3.9743544877679132e+07 
-9.2999999999999829e+00 -5.9246545686077867e-01 +8.1134831333482307e+00 -7.1845111472088485e-01 -6.6210593746870643e+01 +7.6290742765196710e+03 +1.0000338029563532e+05 -4.0361137223465607e+07 
-9.3999999999999826e+00 -5.9246574859476875e-01 +8.1135058418672230e+00 -7.2573545862151168e-01 -6.6736927264977851e+01 +7.7605605405816277e+03 +1.0251851130106575e+05 -4.0949408772606023e+07 
-9.4999999999999822e+00 -5.9246605264157970e-01 +8.1135243891608297e+00 -7.3269236827933493e-01 -6.7198490705863861e+01 +7.8854586067891132e+03 +1.0477200751744375e+05 -4.1502158135030970e+07 
-9.5999999999999819e+00 -5.9246637019638582e-01 +8.1135386428261782e+00 -7.3925741982270243e-01 -6.7591832419217127e+01 +8.0024746291510910e+03 +1.0674609588006319e+05 -4.2013184513423681e+07 
-9.6999999999999815e+00 -5.9246670245433308e-01 +8.1135484704526384e+00 -7.4536619119021819e-01 -6.7913500424035448e+01 +8.1103147761895543e+03 +1.0842300096228934e+05 -4.2476287121072091e+07 
-9.7999999999999812e+00 -5.9246705061048510e-01 +8.1135537396120245e+00 -7.5095426853245528e-01 -6.8160042117222815e+01 +8.2076853518290845e+03 +1.0978494326205517e+05 -4.2885265756763354e+07 
-9.8999999999999808e+00 -5.9246741585989371e-01 +8.1135543178735556e+00 -7.5595723749598431e-01 -6.8328004709830438e+01 +8.2932926272750865e+03 +1.1081414173933159e+05 -4.3233919995318666e+07 
-9.9999999999999805e+00 -5.9246779939750505e-01 +8.1135500727893177e+00 -7.6031069537581064e-01 -6.8413934745104271e+01 +8.3658430846270785e+03 +1.1149281104730669e+05 -4.3516050370770268e+07 
-1.0099999999999980e+01 -5.9246820207968709e-01 +8.1135409619081660e+00 -7.6396005753679175e-01 -6.8416117176873968e+01 +8.4242674012525931e+03 +1.1181153939853587e+05 -4.3726655877698265e+07 
