# field on trajectory
# s[mm] rx[mm] ry[mm] rz[mm] bx[T] by[T] bz[T]
0.0000000000000000e+00 +8.1649999999999991e+00 +0.0000000000000000e+00 +0.0000000000000000e+00 -2.9577100930291093e-02 -5.6495612059821909e-01 +5.7122174658138219e-03
1.0000000000000001e-01 +8.1649997167857133e+00 +0.0000000000000000e+00 +9.9999999999465253e-02 -2.9577025510117868e-02 -5.6495599178228240e-01 +5.7122202002691316e-03
2.0000000000000001e-01 +8.1649988671429377e+00 +0.0000000000000000e+00 +1.9999999999572210e-01 -2.9576946833703016e-02 -5.6495588431147714e-01 +5.7122220333618310e-03
3.0000000000000004e-01 +8.1649974510717822e+00 +0.0000000000000000e+00 +2.9999999998556215e-01 -2.9576865739544118e-02 -5.6495579670492191e-01 +5.7122230880947769e-03
4.0000000000000002e-01 +8.1649954685723323e+00 +0.0000000000000000e+00 +3.9999999996577695e-01 -2.9576783066145224e-02 -5.6495572748175327e-01 +5.7122234874715612e-03
5.0000000000000000e-01 +8.1649929196446589e+00 +0.0000000000000000e+00 +4.9999999993315808e-01 -2.9576699652015738e-02 -5.6495567516112566e-01 +5.7122233544964493e-03
5.9999999999999998e-01 +8.1649898042888154e+00 +0.0000000000000000e+00 +5.9999999988449715e-01 -2.9576616335669312e-02 -5.6495563826220563e-01 +5.7122228121742726e-03
6.9999999999999996e-01 +8.1649861225048372e+00 +0.0000000000000000e+00 +6.9999999981658578e-01 -2.9576533955622666e-02 -5.6495561530417104e-01 +5.7122219835103816e-03
7.9999999999999993e-01 +8.1649818742927494e+00 +0.0000000000000000e+00 +7.9999999972621560e-01 -2.9576453350394605e-02 -5.6495560480620788e-01 +5.7122209915105634e-03
8.9999999999999991e-01 +8.1649770596525606e+00 +0.0000000000000000e+00 +8.9999999961017818e-01 -2.9576375358504797e-02 -5.6495560528750677e-01 +5.7122199591809588e-03
9.9999999999999989e-01 +8.1649716785842728e+00 +0.0000000000000000e+00 +9.9999999946526508e-01 -2.9576300818472678e-02 -5.6495561526726013e-01 +5.7122190095279871e-03
1.0999999999999999e+00 +8.1649657310878752e+00 +0.0000000000000000e+00 +1.0999999992882679e+00 -2.9576230568816378e-02 -5.6495563326466069e-01 +5.7122182655582766e-03
1.2000000000000000e+00 +8.1649592171633500e+00 +0.0000000000000000e+00 +1.1999999990759782e+00 -2.9576165448051566e-02 -5.6495565779889700e-01 +5.7122178502785823e-03
1.3000000000000000e+00 +8.1649521368106726e+00 +0.0000000000000000e+00 +1.2999999988251876e+00 -2.9576106294690364e-02 -5.6495568738915192e-01 +5.7122178866957085e-03
1.4000000000000001e+00 +8.1649444900298143e+00 +0.0000000000000000e+00 +1.3999999985326876e+00 -2.9576053947240197e-02 -5.6495572055459831e-01 +5.7122184978164407e-03
1.5000000000000002e+00 +8.1649362768207414e+00 +0.0000000000000000e+00 +1.4999999981952699e+00 -2.9576009244202728e-02 -5.6495575581439783e-01 +5.7122198066474634e-03
1.6000000000000003e+00 +8.1649274971834203e+00 +0.0000000000000000e+00 +1.5999999978097259e+00 -2.9575973024072694e-02 -5.6495579168769672e-01 +5.7122219361952845e-03
1.7000000000000004e+00 +8.1649181511178153e+00 +0.0000000000000000e+00 +1.6999999973728475e+00 -2.9575946125336823e-02 -5.6495582669362421e-01 +5.7122250094661601e-03
1.8000000000000005e+00 +8.1649082386238909e+00 +0.0000000000000000e+00 +1.7999999968814262e+00 -2.9575929386472726e-02 -5.6495585935128867e-01 +5.7122291494660178e-03
1.9000000000000006e+00 +8.1648977597016152e+00 +0.0000000000000000e+00 +1.8999999963322534e+00 -2.9575923645947723e-02 -5.6495588817977493e-01 +5.7122344792003817e-03
2.0000000000000004e+00 +8.1648867143509598e+00 +0.0000000000000000e+00 +1.9999999957221208e+00 -2.9575929742217833e-02 -5.6495591169814252e-01 +5.7122411216742964e-03
2.1000000000000005e+00 +8.1648751025719015e+00 +0.0000000000000000e+00 +2.0999999950478201e+00 -2.9575948178664119e-02 -5.6495592873540257e-01 +5.7122491875137875e-03
2.2000000000000006e+00 +8.1648629243644226e+00 +0.0000000000000000e+00 +2.1999999943061428e+00 -2.9575978118408060e-02 -5.6495593936046862e-01 +5.7122587378306573e-03
2.3000000000000007e+00 +8.1648501797285142e+00 +0.0000000000000000e+00 +2.2999999934938806e+00 -2.9576018389505097e-02 -5.6495594395222049e-01 +5.7122698213582035e-03
2.4000000000000008e+00 +8.1648368686641728e+00 +0.0000000000000000e+00 +2.3999999926078246e+00 -2.9576067820008298e-02 -5.6495594288952555e-01 +5.7122824868297423e-03
2.5000000000000009e+00 +8.1648229911713983e+00 +0.0000000000000000e+00 +2.4999999916447671e+00 -2.9576125237968598e-02 -5.6495593655123699e-01 +5.7122967829786181e-03
2.6000000000000010e+00 +8.1648085472501979e+00 +0.0000000000000000e+00 +2.5999999906014990e+00 -2.9576189471434977e-02 -5.6495592531619387e-01 +5.7123127585381956e-03
2.7000000000000011e+00 +8.1647935369005822e+00 +0.0000000000000000e+00 +2.6999999894748123e+00 -2.9576259348454752e-02 -5.6495590956322106e-01 +5.7123304622418661e-03
2.8000000000000012e+00 +8.1647779601225690e+00 +0.0000000000000000e+00 +2.7999999882614985e+00 -2.9576333697073760e-02 -5.6495588967112786e-01 +5.7123499428230673e-03
2.9000000000000012e+00 +8.1647618169161778e+00 +0.0000000000000000e+00 +2.8999999869583495e+00 -2.9576411345336638e-02 -5.6495586601870884e-01 +5.7123712490152667e-03
3.0000000000000013e+00 +8.1647451072814334e+00 +0.0000000000000000e+00 +2.9999999855621562e+00 -2.9576491121287008e-02 -5.6495583898474344e-01 +5.7123944295519799e-03
3.1000000000000014e+00 +8.1647278312183627e+00 +0.0000000000000000e+00 +3.0999999840697106e+00 -2.9576571852967731e-02 -5.6495580894799324e-01 +5.7124195331667666e-03
3.2000000000000015e+00 +8.1647099887269974e+00 +0.0000000000000000e+00 +3.1999999824778045e+00 -2.9576652368421132e-02 -5.6495577628720484e-01 +5.7124466085932395e-03
3.3000000000000016e+00 +8.1646915798073696e+00 +0.0000000000000000e+00 +3.2999999807832290e+00 -2.9576731495689249e-02 -5.6495574138110716e-01 +5.7124757045650676e-03
3.4000000000000017e+00 +8.1646726044595166e+00 +0.0000000000000000e+00 +3.3999999789827759e+00 -2.9576808062814052e-02 -5.6495570460841182e-01 +5.7125068698159753e-03
3.5000000000000018e+00 +8.1646530626834739e+00 +0.0000000000000000e+00 +3.4999999770732373e+00 -2.9576880897837665e-02 -5.6495566634781302e-01 +5.7125401530797584e-03
3.6000000000000019e+00 +8.1646329544792824e+00 +0.0000000000000000e+00 +3.5999999750514040e+00 -2.9576948828802616e-02 -5.6495562697798640e-01 +5.7125756030902732e-03
3.7000000000000020e+00 +8.1646122798469811e+00 +0.0000000000000000e+00 +3.6999999729140680e+00 -2.9577010683752080e-02 -5.6495558687758962e-01 +5.7126132685814505e-03
3.8000000000000020e+00 +8.1645910387866110e+00 +0.0000000000000000e+00 +3.7999999706580212e+00 -2.9577065290730085e-02 -5.6495554642526058e-01 +5.7126531982872979e-03
3.9000000000000021e+00 +8.1645692312982128e+00 +0.0000000000000000e+00 +3.8999999682800546e+00 -2.9577111477781776e-02 -5.6495550599961819e-01 +5.7126954409419022e-03
4.0000000000000018e+00 +8.1645468573818274e+00 +0.0000000000000000e+00 +3.9999999657769600e+00 -2.9577148072953627e-02 -5.6495546597926216e-01 +5.7127400452794295e-03
4.1000000000000014e+00 +8.1645239170374957e+00 +0.0000000000000000e+00 +4.0999999631455291e+00 -2.9577174227670869e-02 -5.6495542672485133e-01 +5.7127870435142872e-03
4.2000000000000011e+00 +8.1645004102652585e+00 +0.0000000000000000e+00 +4.1999999603825540e+00 -2.9577190386866077e-02 -5.6495538852536686e-01 +5.7128364017814161e-03
4.3000000000000007e+00 +8.1644763370651550e+00 +0.0000000000000000e+00 +4.2999999574848253e+00 -2.9577197318838656e-02 -5.6495535165190802e-01 +5.7128880696958404e-03
4.4000000000000004e+00 +8.1644516974372223e+00 +0.0000000000000000e+00 +4.3999999544491351e+00 -2.9577195791875340e-02 -5.6495531637562080e-01 +5.7129419968725264e-03
4.5000000000000000e+00 +8.1644264913814979e+00 +0.0000000000000000e+00 +4.4999999512722750e+00 -2.9577186574249549e-02 -5.6495528296770026e-01 +5.7129981329263899e-03
4.5999999999999996e+00 +8.1644007188980137e+00 +0.0000000000000000e+00 +4.5999999479510372e+00 -2.9577170434220805e-02 -5.6495525169939553e-01 +5.7130564274722878e-03
4.6999999999999993e+00 +8.1643743799868034e+00 +0.0000000000000000e+00 +4.6999999444822125e+00 -2.9577148140034103e-02 -5.6495522284201083e-01 +5.7131168301250146e-03
4.7999999999999989e+00 +8.1643474746478972e+00 +0.0000000000000000e+00 +4.7999999408625929e+00 -2.9577120459919361e-02 -5.6495519666691107e-01 +5.7131792904992935e-03
4.8999999999999986e+00 +8.1643200028813201e+00 +0.0000000000000000e+00 +4.8999999370889693e+00 -2.9577088162090759e-02 -5.6495517344552426e-01 +5.7132437582097838e-03
4.9999999999999982e+00 +8.1642919646870986e+00 +0.0000000000000000e+00 +4.9999999331581337e+00 -2.9577052014746159e-02 -5.6495515344934399e-01 +5.7133101828710526e-03
5.0999999999999979e+00 +8.1642633600652523e+00 +0.0000000000000000e+00 +5.0999999290668780e+00 -2.9577012786066528e-02 -5.6495513694993538e-01 +5.7133785140976046e-03
5.1999999999999975e+00 +8.1642341890157990e+00 +0.0000000000000000e+00 +5.1999999248119932e+00 -2.9576971244215270e-02 -5.6495512421893479e-01 +5.7134487015038458e-03
5.2999999999999972e+00 +8.1642044515387528e+00 +0.0000000000000000e+00 +5.2999999203902721e+00 -2.9576928157337697e-02 -5.6495511552805666e-01 +5.7135206947041030e-03
5.3999999999999968e+00 +8.1641741476341227e+00 +0.0000000000000000e+00 +5.3999999157985048e+00 -2.9576884293560358e-02 -5.6495511114909469e-01 +5.7135944433125974e-03
5.4999999999999964e+00 +8.1641432773019140e+00 +0.0000000000000000e+00 +5.4999999110334841e+00 -2.9576840420990482e-02 -5.6495511135392573e-01 +5.7136698969434633e-03
5.5999999999999961e+00 +8.1641118405421285e+00 +0.0000000000000000e+00 +5.5999999060920009e+00 -2.9576797307715324e-02 -5.6495511641451368e-01 +5.7137470052107285e-03
5.6999999999999957e+00 +8.1640798373547607e+00 +0.0000000000000000e+00 +5.6999999009708473e+00 -2.9576755721801601e-02 -5.6495512660291225e-01 +5.7138257177283104e-03
5.7999999999999954e+00 +8.1640472677398019e+00 +0.0000000000000000e+00 +5.7999998956668142e+00 -2.9576716431294840e-02 -5.6495514219126830e-01 +5.7139059841100166e-03
5.8999999999999950e+00 +8.1640141316972379e+00 +0.0000000000000000e+00 +5.8999998901766935e+00 -2.9576680204218844e-02 -5.6495516345182584e-01 +5.7139877539695398e-03
5.9999999999999947e+00 +8.1639804292270473e+00 +0.0000000000000000e+00 +5.9999998844972771e+00 -2.9576647808574993e-02 -5.6495519065692845e-01 +5.7140709769204542e-03
6.0999999999999943e+00 +8.1639461603292052e+00 +0.0000000000000000e+00 +6.0999998786253560e+00 -2.9576619858354983e-02 -5.6495522395832387e-01 +5.7141555766152628e-03
6.1999999999999940e+00 +8.1639113250036779e+00 +0.0000000000000000e+00 +6.1999998725577230e+00 -2.9576596351598247e-02 -5.6495526302501342e-01 +5.7142413728625673e-03
6.2999999999999936e+00 +8.1638759232504299e+00 +0.0000000000000000e+00 +6.2999998662911683e+00 -2.9576577132389117e-02 -5.6495530740526534e-01 +5.7143281595106853e-03
6.3999999999999932e+00 +8.1638399550694150e+00 +0.0000000000000000e+00 +6.3999998598224845e+00 -2.9576562044851182e-02 -5.6495535664729923e-01 +5.7144157304088805e-03
6.4999999999999929e+00 +8.1638034204605869e+00 +0.0000000000000000e+00 +6.4999998531484628e+00 -2.9576550933149426e-02 -5.6495541029928287e-01 +5.7145038794074177e-03
6.5999999999999925e+00 +8.1637663194238925e+00 +0.0000000000000000e+00 +6.5999998462658942e+00 -2.9576543641491850e-02 -5.6495546790933027e-01 +5.7145924003575892e-03
6.6999999999999922e+00 +8.1637286519592749e+00 +0.0000000000000000e+00 +6.6999998391715705e+00 -2.9576540014131514e-02 -5.6495552902549717e-01 +5.7146810871117589e-03
6.7999999999999918e+00 +8.1636904180666754e+00 +0.0000000000000000e+00 +6.7999998318622836e+00 -2.9576539895368306e-02 -5.6495559319578037e-01 +5.7147697335233980e-03
6.8999999999999915e+00 +8.1636516177460283e+00 +0.0000000000000000e+00 +6.8999998243348255e+00 -2.9576543129550832e-02 -5.6495565996811348e-01 +5.7148581334471316e-03
6.9999999999999911e+00 +8.1636122509972697e+00 +0.0000000000000000e+00 +6.9999998165859871e+00 -2.9576549561078341e-02 -5.6495572889036372e-01 +5.7149460807387666e-03
7.0999999999999908e+00 +8.1635723178203321e+00 +0.0000000000000000e+00 +7.0999998086125604e+00 -2.9576559034402518e-02 -5.6495579951032993e-01 +5.7150333692553368e-03
7.1999999999999904e+00 +8.1635318182151462e+00 +0.0000000000000000e+00 +7.1999998004113364e+00 -2.9576571394029381e-02 -5.6495587137573955e-01 +5.7151197928551421e-03
7.2999999999999901e+00 +8.1634907521816409e+00 +0.0000000000000000e+00 +7.2999997919791069e+00 -2.9576586484521182e-02 -5.6495594403424543e-01 +5.7152051453977868e-03
7.3999999999999897e+00 +8.1634491197197434e+00 +0.0000000000000000e+00 +7.3999997833126638e+00 -2.9576604150498224e-02 -5.6495601703342258e-01 +5.7152892207442182e-03
7.4999999999999893e+00 +8.1634069208293827e+00 +0.0000000000000000e+00 +7.4999997744087983e+00 -2.9576624236640776e-02 -5.6495608992076640e-01 +5.7153718127567685e-03
7.5999999999999890e+00 +8.1633641555104877e+00 +0.0000000000000000e+00 +7.5999997652643021e+00 -2.9576646587690918e-02 -5.6495616224368916e-01 +5.7154527152991907e-03
7.6999999999999886e+00 +8.1633208237629873e+00 +0.0000000000000000e+00 +7.6999997558759663e+00 -2.9576671048454434e-02 -5.6495623354951674e-01 +5.7155317222367073e-03
7.7999999999999883e+00 +8.1632769255868105e+00 +0.0000000000000000e+00 +7.7999997462405828e+00 -2.9576697463802658e-02 -5.6495630338548630e-01 +5.7156086274360324e-03
7.8999999999999879e+00 +8.1632324609818898e+00 +0.0000000000000000e+00 +7.8999997363549435e+00 -2.9576725678674348e-02 -5.6495637129874321e-01 +5.7156832247654268e-03
7.9999999999999876e+00 +8.1631874299481577e+00 +0.0000000000000000e+00 +7.9999997262158393e+00 -2.9576755538077606e-02 -5.6495643683633845e-01 +5.7157553080947410e-03
8.0999999999999872e+00 +8.1631418324855503e+00 +0.0000000000000000e+00 +8.0999997158200614e+00 -2.9576786799376878e-02 -5.6495649985906216e-01 +5.7158247355589969e-03
8.1999999999999869e+00 +8.1630956685940070e+00 +0.0000000000000000e+00 +8.1999997051644034e+00 -2.9576818869119139e-02 -5.6495656148299545e-01 +5.7158916223487123e-03
8.2999999999999865e+00 +8.1630489382734659e+00 +0.0000000000000000e+00 +8.2999996942456544e+00 -2.9576851066130855e-02 -5.6495662313805317e-01 +5.7159561479136868e-03
8.3999999999999861e+00 +8.1630016415238664e+00 +0.0000000000000000e+00 +8.3999996830606083e+00 -2.9576882709226572e-02 -5.6495668625414974e-01 +5.7160184916975817e-03
8.4999999999999858e+00 +8.1629537783451465e+00 +0.0000000000000000e+00 +8.4999996716060551e+00 -2.9576913117208104e-02 -5.6495675226120112e-01 +5.7160788331377162e-03
8.5999999999999854e+00 +8.1629053487372421e+00 +0.0000000000000000e+00 +8.5999996598787867e+00 -2.9576941608863885e-02 -5.6495682258912161e-01 +5.7161373516648887e-03
8.6999999999999851e+00 +8.1628563527000839e+00 +0.0000000000000000e+00 +8.6999996478755932e+00 -2.9576967502968139e-02 -5.6495689866782872e-01 +5.7161942267031640e-03
8.7999999999999847e+00 +8.1628067902335975e+00 +0.0000000000000000e+00 +8.7999996355932684e+00 -2.9576990118280192e-02 -5.6495698192723909e-01 +5.7162496376696884e-03
8.8999999999999844e+00 +8.1627566613377009e+00 +0.0000000000000000e+00 +8.8999996230286023e+00 -2.9577008773543738e-02 -5.6495707379727189e-01 +5.7163037639745033e-03
8.9999999999999840e+00 +8.1627059660123038e+00 +0.0000000000000000e+00 +8.9999996101783868e+00 -2.9577022787486060e-02 -5.6495717570784765e-01 +5.7163567850203349e-03
9.0999999999999837e+00 +8.1626547042573048e+00 +0.0000000000000000e+00 +9.0999995970394139e+00 -2.9577031478817316e-02 -5.6495728908888765e-01 +5.7164088802024128e-03
9.1999999999999833e+00 +8.1626028760725919e+00 +0.0000000000000000e+00 +9.1999995836084754e+00 -2.9577034166229820e-02 -5.6495741537031685e-01 +5.7164602289082626e-03
9.2999999999999829e+00 +8.1625504814580392e+00 +0.0000000000000000e+00 +9.2999995698823632e+00 -2.9577030168397220e-02 -5.6495755598206110e-01 +5.7165110105175266e-03
9.3999999999999826e+00 +8.1624975204135080e+00 +0.0000000000000000e+00 +9.3999995558578675e+00 -2.9577018803973901e-02 -5.6495771235405001e-01 +5.7165614044017571e-03
9.4999999999999822e+00 +8.1624439929388437e+00 +0.0000000000000000e+00 +9.4999995415317802e+00 -2.9576999391594087e-02 -5.6495788591621510e-01 +5.7166115899242274e-03
9.5999999999999819e+00 +8.1623898990338741e+00 +0.0000000000000000e+00 +9.5999995269008931e+00 -2.9576971249871201e-02 -5.6495807809849152e-01 +5.7166617464397308e-03
9.6999999999999815e+00 +8.1623352386984074e+00 +0.0000000000000000e+00 +9.6999995119619964e+00 -2.9576933697397098e-02 -5.6495829033081701e-01 +5.7167120532943903e-03
9.7999999999999812e+00 +8.1622800119322321e+00 +0.0000000000000000e+00 +9.7999994967118838e+00 -2.9576886052741357e-02 -5.6495852404313374e-01 +5.7167626898254687e-03
9.8999999999999808e+00 +8.1622242187351155e+00 +0.0000000000000000e+00 +9.8999994811473453e+00 -2.9576827634450461e-02 -5.6495878066538718e-01 +5.7168138353611590e-03
9.9999999999999805e+00 +8.1621678591068019e+00 +0.0000000000000000e+00 +9.9999994652651711e+00 -2.9576757761047134e-02 -5.6495906162752707e-01 +5.7168656692204046e-03
1.0099999999999980e+01 +8.1621109330470123e+00 +0.0000000000000000e+00 +1.0099999449062155e+01 -2.9576676107464849e-02 -5.6495936784539424e-01 +5.7169183294769072e-03
1.0199999999999980e+01 +8.1620534405554412e+00 +0.0000000000000000e+00 +1.0199999432535087e+01 -2.9576583774368108e-02 -5.6495969817835578e-01 +5.7169717892542439e-03
1.0299999999999979e+01 +8.1619953816317583e+00 +0.0000000000000000e+00 +1.0299999415680759e+01 -2.9576482218821067e-02 -5.6496005097167012e-01 +5.7170259804437875e-03
1.0399999999999979e+01 +8.1619367562756135e+00 +0.0000000000000000e+00 +1.0399999398495961e+01 -2.9576372897837735e-02 -5.6496042457061935e-01 +5.7170808349433387e-03
1.0499999999999979e+01 +8.1618775644866339e+00 +0.0000000000000000e+00 +1.0499999380977487e+01 -2.9576257268380587e-02 -5.6496081732050929e-01 +5.7171362846572937e-03
1.0599999999999978e+01 +8.1618178062644269e+00 +0.0000000000000000e+00 +1.0599999363122127e+01 -2.9576136787359306e-02 -5.6496122756667022e-01 +5.7171922614968678e-03
1.0699999999999978e+01 +8.1617574816085838e+00 +0.0000000000000000e+00 +1.0699999344926670e+01 -2.9576012911629489e-02 -5.6496165365445805e-01 +5.7172486973802806e-03
1.0799999999999978e+01 +8.1616965905186802e+00 +0.0000000000000000e+00 +1.0799999326387910e+01 -2.9575887097991308e-02 -5.6496209392925445e-01 +5.7173055242329658e-03
1.0899999999999977e+01 +8.1616351329942756e+00 +0.0000000000000000e+00 +1.0899999307502638e+01 -2.9575760803188196e-02 -5.6496254673646795e-01 +5.7173626739877598e-03
1.0999999999999977e+01 +8.1615731090349186e+00 +0.0000000000000000e+00 +1.0999999288267645e+01 -2.9575635483905606e-02 -5.6496301042153407e-01 +5.7174200785851028e-03
1.1099999999999977e+01 +8.1615105186401475e+00 +0.0000000000000000e+00 +1.1099999268679722e+01 -2.9575512596769608e-02 -5.6496348332991697e-01 +5.7174776699732456e-03
1.1199999999999976e+01 +8.1614473618094880e+00 +0.0000000000000000e+00 +1.1199999248735660e+01 -2.9575393598345653e-02 -5.6496396380710845e-01 +5.7175353801084345e-03
1.1299999999999976e+01 +8.1613836385424623e+00 +0.0000000000000000e+00 +1.1299999228432251e+01 -2.9575279945137242e-02 -5.6496445019863062e-01 +5.7175931409551278e-03
1.1399999999999975e+01 +8.1613193488385836e+00 +0.0000000000000000e+00 +1.1399999207766285e+01 -2.9575173093584609e-02 -5.6496494085003501e-01 +5.7176508844861773e-03
1.1499999999999975e+01 +8.1612544926973634e+00 +0.0000000000000000e+00 +1.1499999186734554e+01 -2.9575074500063435e-02 -5.6496543410690414e-01 +5.7177085426830428e-03
1.1599999999999975e+01 +8.1611890701183096e+00 +0.0000000000000000e+00 +1.1599999165333848e+01 -2.9574985620883482e-02 -5.6496592831485160e-01 +5.7177660475359856e-03
1.1699999999999974e+01 +8.1611230811009285e+00 +0.0000000000000000e+00 +1.1699999143560960e+01 -2.9574907912287358e-02 -5.6496642181952361e-01 +5.7178233310442549e-03
1.1799999999999974e+01 +8.1610565256447263e+00 +0.0000000000000000e+00 +1.1799999121412680e+01 -2.9574842830449175e-02 -5.6496691296659851e-01 +5.7178803252163190e-03
