# trajectory
# s[mm] rx[mm] ry[mm] rz[mm] px[rad] py[rad] pz[rad]
0.0000000000000000e+00 +8.1529999999999987e+00 +0.0000000000000000e+00 +0.0000000000000000e+00 +0.0000000000000000e+00 +0.0000000000000000e+00 +1.0000000000000000e+00
1.0000000000000001e-01 +8.1529997169777797e+00 +0.0000000000000000e+00 +9.9999999999466002e-02 -5.6604447259278064e-06 +0.0000000000000000e+00 +9.9999999998397970e-01
2.0000000000000001e-01 +8.1529988679109913e+00 +0.0000000000000000e+00 +1.9999999999572793e-01 -1.1320891350514694e-05 +0.0000000000000000e+00 +9.9999999993591870e-01
3.0000000000000004e-01 +8.1529974527994540e+00 +0.0000000000000000e+00 +2.9999999998558169e-01 -1.6981339661944718e-05 +0.0000000000000000e+00 +9.9999999985581700e-01
4.0000000000000002e-01 +8.1529954716430098e+00 +0.0000000000000000e+00 +3.9999999996582325e-01 -2.2641789459176419e-05 +0.0000000000000000e+00 +9.9999999974367459e-01
5.0000000000000000e-01 +8.1529929244415200e+00 +0.0000000000000000e+00 +4.9999999993324856e-01 -2.8302240551942797e-05 +0.0000000000000000e+00 +9.9999999959949148e-01
5.9999999999999998e-01 +8.1529898111948622e+00 +0.0000000000000000e+00 +5.9999999988465347e-01 -3.3962692760751295e-05 +0.0000000000000000e+00 +9.9999999942326767e-01
6.9999999999999996e-01 +8.1529861319029351e+00 +0.0000000000000000e+00 +6.9999999981683403e-01 -3.9623145916883756e-05 +0.0000000000000000e+00 +9.9999999921500304e-01
7.9999999999999993e-01 +8.1529818865656516e+00 +0.0000000000000000e+00 +7.9999999972658609e-01 -4.5283599862396375e-05 +0.0000000000000000e+00 +9.9999999897469771e-01
8.9999999999999991e-01 +8.1529770751829407e+00 +0.0000000000000000e+00 +8.9999999961070554e-01 -5.0944054450119657e-05 +0.0000000000000000e+00 +9.9999999870235157e-01
9.9999999999999989e-01 +8.1529716977547455e+00 +0.0000000000000000e+00 +9.9999999946598839e-01 -5.6604509543658381e-05 +0.0000000000000000e+00 +9.9999999839796461e-01
1.0999999999999999e+00 +8.1529657542810199e+00 +0.0000000000000000e+00 +1.0999999992892304e+00 -6.2264965017391489e-05 +0.0000000000000000e+00 +9.9999999806153694e-01
1.2000000000000000e+00 +8.1529592447617336e+00 +0.0000000000000000e+00 +1.1999999990772277e+00 -6.7925420756472074e-05 +0.0000000000000000e+00 +9.9999999769306847e-01
1.3000000000000000e+00 +8.1529521691968636e+00 +0.0000000000000000e+00 +1.2999999988267761e+00 -7.3585876656827244e-05 +0.0000000000000000e+00 +9.9999999729255928e-01
1.4000000000000001e+00 +8.1529445275863992e+00 +0.0000000000000000e+00 +1.3999999985346716e+00 -7.9246332625158096e-05 +0.0000000000000000e+00 +9.9999999686000929e-01
1.5000000000000002e+00 +8.1529363199303386e+00 +0.0000000000000000e+00 +1.4999999981977099e+00 -8.4906788578939578e-05 +0.0000000000000000e+00 +9.9999999639541848e-01
1.6000000000000003e+00 +8.1529275462286872e+00 +0.0000000000000000e+00 +1.5999999978126871e+00 -9.0567244446420410e-05 +0.0000000000000000e+00 +9.9999999589878696e-01
1.7000000000000004e+00 +8.1529182064814556e+00 +0.0000000000000000e+00 +1.6999999973763993e+00 -9.6227700166622989e-05 +0.0000000000000000e+00 +9.9999999537011475e-01
1.8000000000000005e+00 +8.1529083006886616e+00 +0.0000000000000000e+00 +1.7999999968856422e+00 -1.0188815568934326e-04 +0.0000000000000000e+00 +9.9999999480940172e-01
1.9000000000000006e+00 +8.1528978288503264e+00 +0.0000000000000000e+00 +1.8999999963372116e+00 -1.0754861097515061e-04 +0.0000000000000000e+00 +9.9999999421664798e-01
2.0000000000000004e+00 +8.1528867909664751e+00 +0.0000000000000000e+00 +1.9999999957279038e+00 -1.1320906599538770e-04 +0.0000000000000000e+00 +9.9999999359185354e-01
2.1000000000000005e+00 +8.1528751870371359e+00 +0.0000000000000000e+00 +2.0999999950545143e+00 -1.1886952073237419e-04 +0.0000000000000000e+00 +9.9999999293501840e-01
2.2000000000000006e+00 +8.1528630170623373e+00 +0.0000000000000000e+00 +2.1999999943138393e+00 -1.2452997518164839e-04 +0.0000000000000000e+00 +9.9999999224614255e-01
2.3000000000000007e+00 +8.1528502810421077e+00 +0.0000000000000000e+00 +2.2999999935026749e+00 -1.3019042935420900e-04 +0.0000000000000000e+00 +9.9999999152522601e-01
2.4000000000000008e+00 +8.1528369789764739e+00 +0.0000000000000000e+00 +2.3999999926178166e+00 -1.3585088327671915e-04 +0.0000000000000000e+00 +9.9999999077226875e-01
2.5000000000000009e+00 +8.1528231108654587e+00 +0.0000000000000000e+00 +2.4999999916560607e+00 -1.4151133699150640e-04 +0.0000000000000000e+00 +9.9999998998727069e-01
2.6000000000000010e+00 +8.1528086767090802e+00 +0.0000000000000000e+00 +2.5999999906142026e+00 -1.4717179055656306e-04 +0.0000000000000000e+00 +9.9999998917023192e-01
2.7000000000000011e+00 +8.1527936765073505e+00 +0.0000000000000000e+00 +2.6999999894890387e+00 -1.5283224404554629e-04 +0.0000000000000000e+00 +9.9999998832115244e-01
2.8000000000000012e+00 +8.1527781102602717e+00 +0.0000000000000000e+00 +2.7999999882773650e+00 -1.5849269754777834e-04 +0.0000000000000000e+00 +9.9999998744003227e-01
2.9000000000000012e+00 +8.1527619779678382e+00 +0.0000000000000000e+00 +2.8999999869759772e+00 -1.6415315116824678e-04 +0.0000000000000000e+00 +9.9999998652687128e-01
3.0000000000000013e+00 +8.1527452796300306e+00 +0.0000000000000000e+00 +2.9999999855816712e+00 -1.6981360502760483e-04 +0.0000000000000000e+00 +9.9999998558166958e-01
3.1000000000000014e+00 +8.1527280152468204e+00 +0.0000000000000000e+00 +3.0999999840912431e+00 -1.7547405926217159e-04 +0.0000000000000000e+00 +9.9999998460442707e-01
3.2000000000000015e+00 +8.1527101848181616e+00 +0.0000000000000000e+00 +3.1999999825014886e+00 -1.8113451402393234e-04 +0.0000000000000000e+00 +9.9999998359514375e-01
3.3000000000000016e+00 +8.1526917883439936e+00 +0.0000000000000000e+00 +3.2999999808092038e+00 -1.8679496948053884e-04 +0.0000000000000000e+00 +9.9999998255381950e-01
3.4000000000000017e+00 +8.1526728258242365e+00 +0.0000000000000000e+00 +3.3999999790111843e+00 -1.9245542581530984e-04 +0.0000000000000000e+00 +9.9999998148045433e-01
3.5000000000000018e+00 +8.1526532972587944e+00 +0.0000000000000000e+00 +3.4999999771042263e+00 -1.9811588322723124e-04 +0.0000000000000000e+00 +9.9999998037504823e-01
3.6000000000000019e+00 +8.1526332026475483e+00 +0.0000000000000000e+00 +3.5999999750851259e+00 -2.0377634193095669e-04 +0.0000000000000000e+00 +9.9999997923760098e-01
3.7000000000000020e+00 +8.1526125419903579e+00 +0.0000000000000000e+00 +3.6999999729506787e+00 -2.0943680215680785e-04 +0.0000000000000000e+00 +9.9999997806811269e-01
3.8000000000000020e+00 +8.1525913152870579e+00 +0.0000000000000000e+00 +3.7999999706976806e+00 -2.1509726415077493e-04 +0.0000000000000000e+00 +9.9999997686658315e-01
3.9000000000000021e+00 +8.1525695225374601e+00 +0.0000000000000000e+00 +3.8999999683229274e+00 -2.2075772817451716e-04 +0.0000000000000000e+00 +9.9999997563301235e-01
4.0000000000000018e+00 +8.1525471637413460e+00 +0.0000000000000000e+00 +3.9999999658232150e+00 -2.2641819450536322e-04 +0.0000000000000000e+00 +9.9999997436740018e-01
4.1000000000000014e+00 +8.1525242388984722e+00 +0.0000000000000000e+00 +4.0999999631953390e+00 -2.3207866343495900e-04 +0.0000000000000000e+00 +9.9999997306974653e-01
4.2000000000000011e+00 +8.1525007480085634e+00 +0.0000000000000000e+00 +4.1999999604360960e+00 -2.3773913525438714e-04 +0.0000000000000000e+00 +9.9999997174005129e-01
4.3000000000000007e+00 +8.1524766910713158e+00 +0.0000000000000000e+00 +4.2999999575422816e+00 -2.4339961023928615e-04 +0.0000000000000000e+00 +9.9999997037831434e-01
4.4000000000000004e+00 +8.1524520680864008e+00 +0.0000000000000000e+00 +4.3999999545106911e+00 -2.4906008864849735e-04 +0.0000000000000000e+00 +9.9999996898453558e-01
4.5000000000000000e+00 +8.1524268790534631e+00 +0.0000000000000000e+00 +4.4999999513381210e+00 -2.5472057072406453e-04 +0.0000000000000000e+00 +9.9999996755871479e-01
4.5999999999999996e+00 +8.1524011239721261e+00 +0.0000000000000000e+00 +4.5999999480213667e+00 -2.6038105669123353e-04 +0.0000000000000000e+00 +9.9999996610085196e-01
4.6999999999999993e+00 +8.1523748028419885e+00 +0.0000000000000000e+00 +4.6999999445572236e+00 -2.6604154675845195e-04 +0.0000000000000000e+00 +9.9999996461094698e-01
4.7999999999999989e+00 +8.1523479156626308e+00 +0.0000000000000000e+00 +4.7999999409424881e+00 -2.7170204111736870e-04 +0.0000000000000000e+00 +9.9999996308899963e-01
4.8999999999999986e+00 +8.1523204624336163e+00 +0.0000000000000000e+00 +4.8999999371739555e+00 -2.7736253994283363e-04 +0.0000000000000000e+00 +9.9999996153500992e-01
4.9999999999999982e+00 +8.1522924431544883e+00 +0.0000000000000000e+00 +4.9999999332484215e+00 -2.8302304339289689e-04 +0.0000000000000000e+00 +9.9999995994897761e-01
5.0999999999999979e+00 +8.1522638578247779e+00 +0.0000000000000000e+00 +5.0999999291626823e+00 -2.8868355160880863e-04 +0.0000000000000000e+00 +9.9999995833090261e-01
5.1999999999999975e+00 +8.1522347064440037e+00 +0.0000000000000000e+00 +5.1999999249135334e+00 -2.9434406471501832e-04 +0.0000000000000000e+00 +9.9999995668078479e-01
5.2999999999999972e+00 +8.1522049890116683e+00 +0.0000000000000000e+00 +5.2999999204977710e+00 -3.0000458281917441e-04 +0.0000000000000000e+00 +9.9999995499862404e-01
5.3999999999999968e+00 +8.1521747055272691e+00 +0.0000000000000000e+00 +5.3999999159121899e+00 -3.0566510601212361e-04 +0.0000000000000000e+00 +9.9999995328442026e-01
5.4999999999999964e+00 +8.1521438559902926e+00 +0.0000000000000000e+00 +5.4999999111535862e+00 -3.1132563436791019e-04 +0.0000000000000000e+00 +9.9999995153817334e-01
5.5999999999999961e+00 +8.1521124404002201e+00 +0.0000000000000000e+00 +5.5999999062187564e+00 -3.1698616794377559e-04 +0.0000000000000000e+00 +9.9999994975988327e-01
5.6999999999999957e+00 +8.1520804587565276e+00 +0.0000000000000000e+00 +5.6999999011044951e+00 -3.2264670678015757e-04 +0.0000000000000000e+00 +9.9999994794954983e-01
5.7999999999999954e+00 +8.1520479110586876e+00 +0.0000000000000000e+00 +5.7999998958075984e+00 -3.2830725090068961e-04 +0.0000000000000000e+00 +9.9999994610717291e-01
5.8999999999999950e+00 +8.1520147973061707e+00 +0.0000000000000000e+00 +5.8999998903248621e+00 -3.3396780031220020e-04 +0.0000000000000000e+00 +9.9999994423275251e-01
5.9999999999999947e+00 +8.1519811174984493e+00 +0.0000000000000000e+00 +5.9999998846530813e+00 -3.3962835500471206e-04 +0.0000000000000000e+00 +9.9999994232628842e-01
6.0999999999999943e+00 +8.1519468716349959e+00 +0.0000000000000000e+00 +6.0999998787890517e+00 -3.4528891495218543e-04 +0.0000000000000000e+00 +9.9999994038778062e-01
6.1999999999999940e+00 +8.1519120597152863e+00 +0.0000000000000000e+00 +6.1999998727295695e+00 -3.5094948012070212e-04 +0.0000000000000000e+00 +9.9999993841722912e-01
6.2999999999999936e+00 +8.1518766817388002e+00 +0.0000000000000000e+00 +6.2999998664714294e+00 -3.5661005047665008e-04 +0.0000000000000000e+00 +9.9999993641463369e-01
6.3999999999999932e+00 +8.1518407377050206e+00 +0.0000000000000000e+00 +6.3999998600114276e+00 -3.6227062598746779e-04 +0.0000000000000000e+00 +9.9999993437999435e-01
6.4999999999999929e+00 +8.1518042276134324e+00 +0.0000000000000000e+00 +6.4999998533463597e+00 -3.6793120662164449e-04 +0.0000000000000000e+00 +9.9999993231331108e-01
6.5999999999999925e+00 +8.1517671514635257e+00 +0.0000000000000000e+00 +6.5999998464730218e+00 -3.7359179234872065e-04 +0.0000000000000000e+00 +9.9999993021458367e-01
6.6999999999999922e+00 +8.1517295092547926e+00 +0.0000000000000000e+00 +6.6999998393882088e+00 -3.7925238313928826e-04 +0.0000000000000000e+00 +9.9999992808381211e-01
6.7999999999999918e+00 +8.1516913009867285e+00 +0.0000000000000000e+00 +6.7999998320887158e+00 -3.8491297896499122e-04 +0.0000000000000000e+00 +9.9999992592099629e-01
6.8999999999999915e+00 +8.1516525266588324e+00 +0.0000000000000000e+00 +6.8999998245713394e+00 -3.9057357979852578e-04 +0.0000000000000000e+00 +9.9999992372613622e-01
6.9999999999999911e+00 +8.1516131862706036e+00 +0.0000000000000000e+00 +6.9999998168328750e+00 -3.9623418561364091e-04 +0.0000000000000000e+00 +9.9999992149923178e-01
7.0999999999999908e+00 +8.1515732798215446e+00 +0.0000000000000000e+00 +7.0999998088701179e+00 -4.0189479638513880e-04 +0.0000000000000000e+00 +9.9999991924028286e-01
7.1999999999999904e+00 +8.1515328073111615e+00 +0.0000000000000000e+00 +7.1999998006798638e+00 -4.0755541208887511e-04 +0.0000000000000000e+00 +9.9999991694928936e-01
7.2999999999999901e+00 +8.1514917687389623e+00 +0.0000000000000000e+00 +7.2999997922589079e+00 -4.1321603270175975e-04 +0.0000000000000000e+00 +9.9999991462625126e-01
7.3999999999999897e+00 +8.1514501641044586e+00 +0.0000000000000000e+00 +7.3999997836040459e+00 -4.1887665820175709e-04 +0.0000000000000000e+00 +9.9999991227116847e-01
7.4999999999999893e+00 +8.1514079934071599e+00 +0.0000000000000000e+00 +7.4999997747120730e+00 -4.2453728856788671e-04 +0.0000000000000000e+00 +9.9999990988404097e-01
7.5999999999999890e+00 +8.1513652566465833e+00 +0.0000000000000000e+00 +7.5999997655797857e+00 -4.3019792378022365e-04 +0.0000000000000000e+00 +9.9999990746486866e-01
7.6999999999999886e+00 +8.1513219538222437e+00 +0.0000000000000000e+00 +7.6999997562039786e+00 -4.3585856381989920e-04 +0.0000000000000000e+00 +9.9999990501365144e-01
7.7999999999999883e+00 +8.1512780849336597e+00 +0.0000000000000000e+00 +7.7999997465814479e+00 -4.4151920866910139e-04 +0.0000000000000000e+00 +9.9999990253038917e-01
7.8999999999999879e+00 +8.1512336499803499e+00 +0.0000000000000000e+00 +7.8999997367089883e+00 -4.4717985831107545e-04 +0.0000000000000000e+00 +9.9999990001508188e-01
7.9999999999999876e+00 +8.1511886489618384e+00 +0.0000000000000000e+00 +7.9999997265833960e+00 -4.5284051273012451e-04 +0.0000000000000000e+00 +9.9999989746772944e-01
8.0999999999999872e+00 +8.1511430818776454e+00 +0.0000000000000000e+00 +8.0999997162014665e+00 -4.5850117191141392e-04 +0.0000000000000000e+00 +9.9999989488833185e-01
8.1999999999999869e+00 +8.1510969487272966e+00 +0.0000000000000000e+00 +8.1999997055599945e+00 -4.6416183583881243e-04 +0.0000000000000000e+00 +9.9999989227688901e-01
8.2999999999999865e+00 +8.1510502495103196e+00 +0.0000000000000000e+00 +8.2999996946557761e+00 -4.6982250449273302e-04 +0.0000000000000000e+00 +9.9999988963340081e-01
8.3999999999999861e+00 +8.1510029842262419e+00 +0.0000000000000000e+00 +8.3999996834856070e+00 -4.7548317784993613e-04 +0.0000000000000000e+00 +9.9999988695786712e-01
8.4999999999999858e+00 +8.1509551528745945e+00 +0.0000000000000000e+00 +8.4999996720462825e+00 -4.8114385588352937e-04 +0.0000000000000000e+00 +9.9999988425028796e-01
8.5999999999999854e+00 +8.1509067554549102e+00 +0.0000000000000000e+00 +8.5999996603345963e+00 -4.8680453856296714e-04 +0.0000000000000000e+00 +9.9999988151066332e-01
8.6999999999999851e+00 +8.1508577919667271e+00 +0.0000000000000000e+00 +8.6999996483473456e+00 -4.9246522585405029e-04 +0.0000000000000000e+00 +9.9999987873899299e-01
8.7999999999999847e+00 +8.1508082624095870e+00 +0.0000000000000000e+00 +8.7999996360813260e+00 -4.9812591771892557e-04 +0.0000000000000000e+00 +9.9999987593527706e-01
8.8999999999999844e+00 +8.1507581667830333e+00 +0.0000000000000000e+00 +8.8999996235333327e+00 -5.0378661411608556e-04 +0.0000000000000000e+00 +9.9999987309951532e-01
8.9999999999999840e+00 +8.1507075050866149e+00 +0.0000000000000000e+00 +8.9999996107001614e+00 -5.0944731500036781e-04 +0.0000000000000000e+00 +9.9999987023170789e-01
9.0999999999999837e+00 +8.1506562773198858e+00 +0.0000000000000000e+00 +9.0999995975786074e+00 -5.1510802032295481e-04 +0.0000000000000000e+00 +9.9999986733185464e-01
9.1999999999999833e+00 +8.1506044834824039e+00 +0.0000000000000000e+00 +9.1999995841654645e+00 -5.2076873003137336e-04 +0.0000000000000000e+00 +9.9999986439995547e-01
9.2999999999999829e+00 +8.1505521235737355e+00 +0.0000000000000000e+00 +9.2999995704575298e+00 -5.2642944406949409e-04 +0.0000000000000000e+00 +9.9999986143601038e-01
9.3999999999999826e+00 +8.1504991975934491e+00 +0.0000000000000000e+00 +9.3999995564515988e+00 -5.3209016237753095e-04 +0.0000000000000000e+00 +9.9999985844001926e-01
9.4999999999999822e+00 +8.1504457055411201e+00 +0.0000000000000000e+00 +9.4999995421444652e+00 -5.3775088489204108e-04 +0.0000000000000000e+00 +9.9999985541198222e-01
9.5999999999999819e+00 +8.1503916474163329e+00 +0.0000000000000000e+00 +9.5999995275329262e+00 -5.4341161154592376e-04 +0.0000000000000000e+00 +9.9999985235189914e-01
9.6999999999999815e+00 +8.1503370232186754e+00 +0.0000000000000000e+00 +9.6999995126137772e+00 -5.4907234226842048e-04 +0.0000000000000000e+00 +9.9999984925976992e-01
9.7999999999999812e+00 +8.1502818329477460e+00 +0.0000000000000000e+00 +9.7999994973838120e+00 -5.5473307698511399e-04 +0.0000000000000000e+00 +9.9999984613559467e-01
9.8999999999999808e+00 +8.1502260766031487e+00 +0.0000000000000000e+00 +9.8999994818398278e+00 -5.6039381561792797e-04 +0.0000000000000000e+00 +9.9999984297937328e-01
9.9999999999999805e+00 +8.1501697541844944e+00 +0.0000000000000000e+00 +9.9999994659786182e+00 -5.6605455808512648e-04 +0.0000000000000000e+00 +9.9999983979110574e-01
1.0099999999999980e+01 +8.1501128656914066e+00 +0.0000000000000000e+00 +1.0099999449796980e+01 -5.7171530430209262e-04 +0.0000000000000000e+00 +9.9999983657079194e-01
1.0199999999999980e+01 +8.1500554111235122e+00 +0.0000000000000000e+00 +1.0199999433291708e+01 -5.7737605418990007e-04 +0.0000000000000000e+00 +9.9999983331843201e-01
1.0299999999999979e+01 +8.1499973904804488e+00 +0.0000000000000000e+00 +1.0299999416459599e+01 -5.8303680768388548e-04 +0.0000000000000000e+00 +9.9999983003402593e-01
1.0399999999999979e+01 +8.1499388037618576e+00 +0.0000000000000000e+00 +1.0399999399297446e+01 -5.8869756473442752e-04 +0.0000000000000000e+00 +9.9999982671757359e-01
1.0499999999999979e+01 +8.1498796509673852e+00 +0.0000000000000000e+00 +1.0499999381802045e+01 -5.9435832530694741e-04 +0.0000000000000000e+00 +9.9999982336907489e-01
1.0599999999999978e+01 +8.1498199320966798e+00 +0.0000000000000000e+00 +1.0599999363970193e+01 -6.0001908938190891e-04 +0.0000000000000000e+00 +9.9999981998852994e-01
1.0699999999999978e+01 +8.1497596471493914e+00 +0.0000000000000000e+00 +1.0699999345798684e+01 -6.0567985695481887e-04 +0.0000000000000000e+00 +9.9999981657593862e-01
1.0799999999999978e+01 +8.1496987961251719e+00 +0.0000000000000000e+00 +1.0799999327284313e+01 -6.1134062803622701e-04 +0.0000000000000000e+00 +9.9999981313130082e-01
1.0899999999999977e+01 +8.1496373790236678e+00 +0.0000000000000000e+00 +1.0899999308423876e+01 -6.1700140265172647e-04 +0.0000000000000000e+00 +9.9999980965461643e-01
1.0999999999999977e+01 +8.1495753958445238e+00 +0.0000000000000000e+00 +1.0999999289214168e+01 -6.2266218084195400e-04 +0.0000000000000000e+00 +9.9999980614588546e-01
1.1099999999999977e+01 +8.1495128465873794e+00 +0.0000000000000000e+00 +1.1099999269651985e+01 -6.2832296266259022e-04 +0.0000000000000000e+00 +9.9999980260510779e-01
1.1199999999999976e+01 +8.1494497312518686e+00 +0.0000000000000000e+00 +1.1199999249734121e+01 -6.3398374818435959e-04 +0.0000000000000000e+00 +9.9999979903228331e-01
1.1299999999999976e+01 +8.1493860498376165e+00 +0.0000000000000000e+00 +1.1299999229457374e+01 -6.3964453749303118e-04 +0.0000000000000000e+00 +9.9999979542741191e-01
1.1399999999999975e+01 +8.1493218023442395e+00 +0.0000000000000000e+00 +1.1399999208818535e+01 -6.4530533068941855e-04 +0.0000000000000000e+00 +9.9999979179049348e-01
1.1499999999999975e+01 +8.1492569887713451e+00 +0.0000000000000000e+00 +1.1499999187814403e+01 -6.5096612788938019e-04 +0.0000000000000000e+00 +9.9999978812152779e-01
1.1599999999999975e+01 +8.1491916091185246e+00 +0.0000000000000000e+00 +1.1599999166441773e+01 -6.5662692922381963e-04 +0.0000000000000000e+00 +9.9999978442051474e-01
1.1699999999999974e+01 +8.1491256633853570e+00 +0.0000000000000000e+00 +1.1699999144697438e+01 -6.6228773483868590e-04 +0.0000000000000000e+00 +9.9999978068745421e-01
1.1799999999999974e+01 +8.1490591515714073e+00 +0.0000000000000000e+00 +1.1799999122578194e+01 -6.6794854489497389e-04 +0.0000000000000000e+00 +9.9999977692234587e-01
