# multipoles
# s[mm] polynom_b[n=0][T/m^n] polynom_b[n=1][T/m^n] polynom_b[n=2][T/m^n] polynom_b[n=3][T/m^n] polynom_b[n=4][T/m^n] polynom_b[n=5][T/m^n] polynom_b[n=6][T/m^n] 
-0.0000000000000000e+00 -5.3668739456809611e-01 +7.3487221630686346e+00 -3.4164598623772219e-01 -2.4192007678193150e+01 +2.4506012999154657e+02 +6.1397960037260716e+04 -8.2447048101387871e+06 
-1.0000000000000001e-01 -5.3668753477874387e-01 +7.3487132996449773e+00 -3.4377022067503071e-01 -2.4052904451013696e+01 +3.1058205449476350e+02 +6.0238974429338385e+04 -8.5927821149534043e+06 
-2.0000000000000001e-01 -5.3668769128983806e-01 +7.3487040946498885e+00 -3.4463773725412772e-01 -2.3883967964601997e+01 +3.5603563225521168e+02 +5.8816334891565952e+04 -8.8649060719489772e+06 
-2.9999999999999999e-01 -5.3668786334250618e-01 +7.3486946974827347e+00 -3.4431551846425451e-01 -2.3688960151140094e+01 +3.8234668979288330e+02 +5.7157710635121883e+04 -9.0639772764370143e+06 
-4.0000000000000002e-01 -5.3668805017777399e-01 +7.3486852575359585e+00 -3.4287055514801618e-01 -2.3471642724357061e+01 +3.9044121566331478e+02 +5.5290769651281815e+04 -9.1928970966231283e+06 
-5.0000000000000000e-01 -5.3668825103678086e-01 +7.3486759241934658e+00 -3.4036983049161151e-01 -2.3235777123849232e+01 +3.8124505302149879e+02 +5.3243178347530556e+04 -9.2545662034370005e+06 
-5.9999999999999998e-01 -5.3668846516056601e-01 +7.3486668468368466e+00 -3.3688033812331575e-01 -2.2985124717815356e+01 +3.5568425105048061e+02 +5.1042602776948326e+04 -9.2518862635192722e+06 
-6.9999999999999996e-01 -5.3668869179022860e-01 +7.3486581748400797e+00 -3.3246906080658345e-01 -2.2723446624333135e+01 +3.1468464949203377e+02 +4.8716707506355342e+04 -9.1877579338608384e+06 
-8.0000000000000004e-01 -5.3668893016684849e-01 +7.3486500575792482e+00 -3.2720299055618779e-01 -2.2454504013609849e+01 +2.5917226631579592e+02 +4.6293157413131412e+04 -9.0650827253726572e+06 
-9.0000000000000002e-01 -5.3668917953152750e-01 +7.3486426444216733e+00 -3.2114911414739250e-01 -2.2182057780110711e+01 +1.9007302218666717e+02 +4.3799615739782465e+04 -8.8867616880183015e+06 
-1.0000000000000000e+00 -5.3668943912532163e-01 +7.3486360847389083e+00 -3.1437442122398912e-01 -2.1909868927439728e+01 +1.0831289464298933e+02 +4.1263746319694517e+04 -8.6556961501556393e+06 
-1.1000000000000001e+00 -5.3668970818937856e-01 +7.3486305278979120e+00 -3.0694589668259664e-01 -2.1641698307547216e+01 +1.4817769828625561e+01 +3.8713212045704706e+04 -8.3747870022999393e+06 
-1.2000000000000000e+00 -5.3668998596479367e-01 +7.3486261232677332e+00 -2.9893052934967029e-01 -2.1381306818020349e+01 -8.9486390921492443e+01 +3.6175676004999179e+04 -8.0469354956649952e+06 
-1.3000000000000000e+00 -5.3669027169266514e-01 +7.3486230202175777e+00 -2.9039530454589385e-01 -2.1132455349772872e+01 -2.0367369230645127e+02 +3.3678801163219097e+04 -7.6750425720959278e+06 
-1.3999999999999999e+00 -5.3669056461418807e-01 +7.3486213681196428e+00 -2.8140720620495874e-01 -2.0898904860740195e+01 -3.2681826404030039e+02 +3.1250250764590619e+04 -7.2620090629773214e+06 
-1.5000000000000000e+00 -5.3669086397041110e-01 +7.3486213163486180e+00 -2.7203322017593357e-01 -2.0684416371776990e+01 -4.5799420143924323e+02 +2.8917688311793681e+04 -6.8107359618753484e+06 
-1.6000000000000001e+00 -5.3669116900256297e-01 +7.3486230142846205e+00 -2.6234032695898502e-01 -2.0492751043748516e+01 -5.9627570083706541e+02 +2.6708777978229347e+04 -6.3241237910050126e+06 
-1.7000000000000000e+00 -5.3669147895182334e-01 +7.3486266113072931e+00 -2.5239550719387849e-01 -2.0327670014570007e+01 -7.4073695667879974e+02 +2.4651183667706384e+04 -5.8050730863476889e+06 
-1.8000000000000000e+00 -5.3669179305937942e-01 +7.3486322568106619e+00 -2.4226574034476261e-01 -2.0192934818444378e+01 -8.9045218941971734e+02 +2.2772571398923919e+04 -5.2564842598357638e+06 
-1.8999999999999999e+00 -5.3669211056642396e-01 +7.3486401001842063e+00 -2.3201800300352135e-01 -2.0092306851495234e+01 -1.0444956724944548e+03 +2.1100606236014773e+04 -4.6812574849798856e+06 
-2.0000000000000000e+00 -5.3669243071422457e-01 +7.3486502908349705e+00 -2.2171926931300959e-01 -2.0029548008519445e+01 -1.2019417282447710e+03 +1.9662955934909787e+04 -4.0822927077667159e+06 
-2.1000000000000001e+00 -5.3669275282353657e-01 +7.3486629145725475e+00 -2.1143244095238695e-01 -2.0007390513199773e+01 -1.3618573494130665e+03 +1.8480970711277238e+04 -3.4627994597417130e+06 
-2.2000000000000002e+00 -5.3669307652892406e-01 +7.3486778049983981e+00 -2.0120386403403784e-01 -2.0024571061077616e+01 -1.5232819347123900e+03 +1.7551632759968623e+04 -2.8272009368646056e+06 
-2.2999999999999998e+00 -5.3669340154245593e-01 +7.3486947331982897e+00 -1.9107567498095787e-01 -2.0078858170632419e+01 -1.6852484360702147e+03 +1.6866054381945713e+04 -2.1802177390482058e+06 
-2.3999999999999999e+00 -5.3669372757616440e-01 +7.3487134702594776e+00 -1.8109001065086897e-01 -2.0168020440855010e+01 -1.8467897994243467e+03 +1.6415348394885517e+04 -1.5265704972999680e+06 
-2.5000000000000000e+00 -5.3669405434203288e-01 +7.3487337872773599e+00 -1.7128900981344522e-01 -2.0289826739505141e+01 -2.0069389404429355e+03 +1.6190629221730047e+04 -8.7097997542219423e+05 
-2.6000000000000001e+00 -5.3669438155212734e-01 +7.3487554553510694e+00 -1.6171480654778245e-01 -2.0442046087730130e+01 -2.1647288654567492e+03 +1.6183012258740328e+04 -2.1816651339464900e+05 
-2.7000000000000002e+00 -5.3669470891844662e-01 +7.3487782455806459e+00 -1.5240953911245947e-01 -2.0622447587117652e+01 -2.3191925068728065e+03 +1.6383613477257202e+04 +4.2714920600292791e+05 
-2.7999999999999998e+00 -5.3669503615297243e-01 +7.3488019290751359e+00 -1.4341534312873813e-01 -2.0828800642773395e+01 -2.4693628524753417e+03 +1.6783550682795954e+04 +1.0602467680965886e+06 
-2.8999999999999999e+00 -5.3669536296773401e-01 +7.3488262769473298e+00 -1.3477435381780031e-01 -2.1058874844191038e+01 -2.6142729015835448e+03 +1.7373942922852275e+04 +1.6764058142721849e+06 
-3.0000000000000000e+00 -5.3669568907471521e-01 +7.3488510603140691e+00 -1.2652870727461185e-01 -2.1310439943323203e+01 -2.7529556436250418e+03 +1.8145910274886177e+04 +2.2709059484741152e+06 
-3.1000000000000001e+00 -5.3669601418584634e-01 +7.3488760503010342e+00 -1.1872054103627047e-01 -2.1581266028980519e+01 -2.8844440458970762e+03 +1.9090574958818055e+04 +2.8390266716386052e+06 
-3.2000000000000002e+00 -5.3669633801314731e-01 +7.3489010180345620e+00 -1.1139198722722882e-01 -2.1869123281233929e+01 -3.0077711830840867e+03 +2.0199059888815344e+04 +3.3760480006023198e+06 
-3.2999999999999998e+00 -5.3669666026852858e-01 +7.3489257346525223e+00 -1.0458518565781785e-01 -2.2171782284666772e+01 -3.1219699935083740e+03 +2.1462490482854431e+04 +3.8772493169198553e+06 
-3.3999999999999999e+00 -5.3669698066391225e-01 +7.3489499712930666e+00 -9.8342270100463522e-02 -2.2487013725961226e+01 -3.2260735332305212e+03 +2.2871992985681165e+04 +4.3379105603887206e+06 
-3.5000000000000000e+00 -5.3669729891121765e-01 +7.3489734991046207e+00 -9.2705378829472287e-02 -2.2812588664605151e+01 -3.3191147839441646e+03 +2.4418695980958957e+04 +4.7533113361530807e+06 
-3.6000000000000001e+00 -5.3669761472235100e-01 +7.3489960892411652e+00 -8.7716646873238782e-02 -2.3146278428372987e+01 -3.4001267914304372e+03 +2.6093729872390828e+04 +5.1187315491082612e+06 
-3.7000000000000002e+00 -5.3669792780915782e-01 +7.3490175128621846e+00 -8.3418210596074696e-02 -2.3485854590096597e+01 -3.4681425892456627e+03 +2.7888226703009655e+04 +5.4294510700776456e+06 
-3.7999999999999998e+00 -5.3669823788349458e-01 +7.3490375411366857e+00 -7.9852209850436812e-02 -2.3829089107258593e+01 -3.5221951478706064e+03 +2.9793321015114278e+04 +5.6807494651292330e+06 
-3.8999999999999999e+00 -5.3669854465717703e-01 +7.3490559452352269e+00 -7.7060779879458835e-02 -2.4173754090168941e+01 -3.5613175390986821e+03 +3.1800148518496622e+04 +5.8679068088699821e+06 
-4.0000000000000000e+00 -5.3669884784204380e-01 +7.3490724963430241e+00 -7.5086060941168889e-02 -2.4517622181897242e+01 -3.5845427431040011e+03 +3.3899848276627206e+04 +5.9862027343171416e+06 
-4.0999999999999996e+00 -5.3669914724687140e-01 +7.3490870274255808e+00 -7.3953732756920382e-02 -2.4858986593542657e+01 -3.5912761954944804e+03 +3.6084864420645790e+04 +6.0326452633960359e+06 
-4.2000000000000002e+00 -5.3669944306904571e-01 +7.3490996087965188e+00 -7.3625238527101733e-02 -2.5197909574113297e+01 -3.5824008836900284e+03 +3.8351725500179848e+04 +6.0111283421916282e+06 
-4.2999999999999998e+00 -5.3669973560327999e-01 +7.3491103676730436e+00 -7.4046335228928603e-02 -2.5534815262782686e+01 -3.5591669091856847e+03 +4.0697687570128153e+04 +5.9272637584725013e+06 
-4.4000000000000004e+00 -5.3670002514428083e-01 +7.3491194312651462e+00 -7.5162777764057928e-02 -2.5870127486875891e+01 -3.5228244107872561e+03 +4.3120004717494485e+04 +5.7866634718819754e+06 
-4.5000000000000000e+00 -5.3670031198674362e-01 +7.3491269267799275e+00 -7.6920323361734252e-02 -2.6204269854533667e+01 -3.4746234809184084e+03 +4.5615929485538611e+04 +5.5949392225834439e+06 
-4.5999999999999996e+00 -5.3670059642537549e-01 +7.3491329814173412e+00 -7.9264725378404871e-02 -2.6537665634322153e+01 -3.4158142820383409e+03 +4.8182712195009801e+04 +5.3577030809426773e+06 
-4.7000000000000002e+00 -5.3670087875491879e-01 +7.3491377223778747e+00 -8.2141740027171006e-02 -2.6870737973660077e+01 -3.3476469206715328e+03 +5.0817602199911962e+04 +5.0805668524861513e+06 
-4.7999999999999998e+00 -5.3670115927011119e-01 +7.3491412768464741e+00 -8.5497122024868186e-02 -2.7203909424933599e+01 -3.2713715287981681e+03 +5.3517845131096918e+04 +4.7691424654148687e+06 
-4.9000000000000004e+00 -5.3670143826565586e-01 +7.3491437720107378e+00 -8.9276627997818478e-02 -2.7537602444894691e+01 -3.1882381980015143e+03 +5.6280685721177564e+04 +4.4290416524416199e+06 
-5.0000000000000000e+00 -5.3670171603634387e-01 +7.3491453350481244e+00 -9.3426011584653398e-02 -2.7872239034790070e+01 -3.0994970722004773e+03 +5.9103365753340338e+04 +4.0658763924085167e+06 
-5.0999999999999996e+00 -5.3670199287689557e-01 +7.3491460931280681e+00 -9.7891029517252662e-02 -2.8208240791101346e+01 -3.0063982348830209e+03 +6.1983124336458401e+04 +3.6852583823269741e+06 
-5.2000000000000002e+00 -5.3670226908211793e-01 +7.3491461734102739e+00 -1.0261743619473729e-01 -2.8546028835681334e+01 -2.9101918064758511e+03 +6.4917197452999091e+04 +3.2927994865547786e+06 
-5.2999999999999998e+00 -5.3670254494679015e-01 +7.3491457030539689e+00 -1.0755098703359728e-01 -2.8886024085339677e+01 -2.8121278870725605e+03 +6.7902819524222345e+04 +2.8941114813700365e+06 
-5.4000000000000004e+00 -5.3670282076571618e-01 +7.3491448092004532e+00 -1.1263743652798870e-01 -2.9228646735707482e+01 -2.7134565841975000e+03 +7.0937220409000452e+04 +2.4948061625882778e+06 
-5.5000000000000000e+00 -5.3670309683366790e-01 +7.3491436189868002e+00 -1.1782254101088556e-01 -2.9574316643618772e+01 -2.6154279683060904e+03 +7.4017627581562250e+04 +2.1004951572974506e+06 
-5.5999999999999996e+00 -5.3670337344549790e-01 +7.3491422595406100e+00 -1.2305205516758769e-01 -2.9923453174515654e+01 -2.5192921348604218e+03 +7.7141265249324482e+04 +1.7167902083882121e+06 
-5.7000000000000002e+00 -5.3670365089601302e-01 +7.3491408579771926e+00 -1.2827173446005161e-01 -3.0276475104233530e+01 -2.4262991602526490e+03 +8.0305353754155352e+04 +1.3493029716458165e+06 
-5.7999999999999998e+00 -5.3670392948008616e-01 +7.3491395414044289e+00 -1.3342733515255248e-01 -3.0633800762541394e+01 -2.3376990940157207e+03 +8.3507110411242422e+04 +1.0036449576189894e+06 
-5.9000000000000004e+00 -5.3670420949259767e-01 +7.3491384369157204e+00 -1.3846461053536219e-01 -3.0995847802120245e+01 -2.2547420414843541e+03 +8.6743748107499618e+04 +6.8542795731279335e+05 
-5.9999999999999902e+00 -5.3670449122842034e-01 +7.3491376715936285e+00 -1.4332931727592751e-01 -3.1363033303881682e+01 -2.1786780317859002e+03 +9.0012475990560648e+04 +4.0026338766596362e+05 
-6.0999999999999899e+00 -5.3670477497948477e-01 +7.3491373377602267e+00 -1.4797642753404480e-01 -3.1734917581505577e+01 -2.1104631870146436e+03 +9.3305581048775304e+04 +1.5230746114253995e+05 
-6.1999999999999904e+00 -5.3670506101731541e-01 +7.3491374041708344e+00 -1.5239767698425211e-01 -3.2108209820204273e+01 -2.0498848606235374e+03 +9.6597835578744794e+04 -6.0039127550608704e+04 
-6.2999999999999901e+00 -5.3670534960586302e-01 +7.3491378124949645e+00 -1.5659403827326790e-01 -3.2479048083498022e+01 -1.9964378428563055e+03 +9.9860153017608987e+04 -2.3980677907667795e+05 
-6.3999999999999897e+00 -5.3670564100913787e-01 +7.3491385043906652e+00 -1.6056648891518108e-01 -3.2843570261315179e+01 -1.9496168158077653e+03 +1.0306344616262612e+05 -3.9002640946353879e+05 
-6.4999999999999902e+00 -5.3670593549097667e-01 +7.3491394215149164e+00 -1.6431601236049145e-01 -3.3197914401073483e+01 -1.9089163492751252e+03 +1.0617862926797914e+05 -5.1372943170056626e+05 
-6.5999999999999899e+00 -5.3670623331532663e-01 +7.3491405055171724e+00 -1.6784359804127805e-01 -3.3538218515503573e+01 -1.8738308819650035e+03 +1.0917661692502534e+05 -6.1394789243851718e+05 
-6.6999999999999904e+00 -5.3670653474610430e-01 +7.3491416980422857e+00 -1.7115023675297450e-01 -3.3860620670403321e+01 -1.8438548240432310e+03 +1.1202832456894283e+05 -6.9371394480083126e+05 
-6.7999999999999901e+00 -5.3670684004704639e-01 +7.3491429407227269e+00 -1.7423693152250652e-01 -3.4161258796401114e+01 -1.8184823376719337e+03 +1.1470466749889342e+05 -7.5606092286262207e+05 
-6.8999999999999897e+00 -5.3670714948202547e-01 +7.3491441751886351e+00 -1.7710468641096852e-01 -3.4436270956736010e+01 -1.7972075597669213e+03 +1.1717656235704718e+05 -8.0402225766701647e+05 
-6.9999999999999902e+00 -5.3670746331485319e-01 +7.3491453430634275e+00 -1.7975451228106801e-01 -3.4681795247567656e+01 -1.7795244868015811e+03 +1.1941492663477540e+05 -8.4063203557186120e+05 
-7.0999999999999899e+00 -5.3670778180921697e-01 +7.3491463859624879e+00 -1.8218742776468685e-01 -3.4893969758658827e+01 -1.7649269561172321e+03 +1.2139067842819731e+05 -8.6892508844311745e+05 
-7.1999999999999904e+00 -5.3670810522883161e-01 +7.3491472454896218e+00 -1.8440445699946398e-01 -3.5068932489712239e+01 -1.7529086906817231e+03 +1.2307473601727815e+05 -8.9193677456123452e+05 
-7.2999999999999901e+00 -5.3670843383739697e-01 +7.3491478632475467e+00 -1.8640663169053903e-01 -3.5202821660285331e+01 -1.7429632578233484e+03 +1.2443801967049751e+05 -9.1270317914742476e+05 
-7.3999999999999897e+00 -5.3670876789857469e-01 +7.3491481808296921e+00 -1.8819498764936021e-01 -3.5291775470958612e+01 -1.7345841349828177e+03 +1.2545145025676912e+05 -9.3426079978316778e+05 
-7.4999999999999902e+00 -5.3670910767592428e-01 +7.3491481398157621e+00 -1.8977057229013891e-01 -3.5331932000231880e+01 -1.7272645677155658e+03 +1.2608594872614865e+05 -9.5964722167378443e+05 
-7.5999999999999899e+00 -5.3670945343306653e-01 +7.3491476817857020e+00 -1.9113443504747127e-01 -3.5319429601958618e+01 -1.7204977500870054e+03 +1.2631243837575863e+05 -9.9190025891106133e+05 
-7.6999999999999904e+00 -5.3670980543347724e-01 +7.3491467483056141e+00 -1.9228763892194867e-01 -3.5250406517725537e+01 -1.7137766087459927e+03 +1.2610184267520788e+05 -1.0340589743680119e+06 
-7.7999999999999901e+00 -5.3671016394072069e-01 +7.3491452809331532e+00 -1.9323124904057937e-01 -3.5121001044960543e+01 -1.7065940138601891e+03 +1.2542508626515926e+05 -1.0891626909456456e+06 
-7.8999999999999897e+00 -5.3671052921819529e-01 +7.3491432212213539e+00 -1.9396634057457401e-01 -3.4927351636290453e+01 -1.6984426319196175e+03 +1.2425309549996998e+05 -1.1602516824189182e+06 
-7.9999999999999902e+00 -5.3671090152930589e-01 +7.3491405107118037e+00 -1.9449399715968346e-01 -3.4665596784611040e+01 -1.6888149659441294e+03 +1.2255679789317127e+05 -1.2503669559024789e+06 
-8.0999999999999908e+00 -5.3671128107091381e-01 +7.3491371249211515e+00 -1.9482032883315009e-01 -3.4333996787751921e+01 -1.6772844424620471e+03 +1.2032158430453487e+05 -1.3617832255496373e+06 
-8.1999999999999904e+00 -5.3671166780891322e-01 +7.3491331613563169e+00 -1.9496828402273936e-01 -3.3938405792218781e+01 -1.6637407030492604e+03 +1.1758548948275343e+05 -1.4939571204362793e+06 
-8.2999999999999901e+00 -5.3671206166009389e-01 +7.3491287448707920e+00 -1.9496418744539809e-01 -3.3486376452956328e+01 -1.6481528224270151e+03 +1.1439857573111707e+05 -1.6456891208296388e+06 
-8.3999999999999897e+00 -5.3671246254128346e-01 +7.3491240003319822e+00 -1.9483435353607270e-01 -3.2985461733384888e+01 -1.6304900659808238e+03 +1.1081090660221013e+05 -1.8157788698069635e+06 
-8.4999999999999893e+00 -5.3671287036939674e-01 +7.3491190526248635e+00 -1.9460508983509975e-01 -3.2443214989953390e+01 -1.6107218319533997e+03 +1.0687254720397439e+05 -2.0030254193753046e+06 
-8.5999999999999908e+00 -5.3671328506135030e-01 +7.3491140266531803e+00 -1.9430269415242143e-01 -3.1867190011056156e+01 -1.5888177002935101e+03 +1.0263356442319123e+05 -2.2062270176195349e+06 
-8.6999999999999904e+00 -5.3671370653418815e-01 +7.3491090473415168e+00 -1.9395345255978474e-01 -3.1264941067897535e+01 -1.5647474717443606e+03 +9.8144027182280959e+04 -2.4241809185706340e+06 
-8.7999999999999794e+00 -5.3671413470496487e-01 +7.3491042396305026e+00 -1.9358364346207821e-01 -3.0644022762936199e+01 -1.5384810918917049e+03 +9.3454005516299090e+04 -2.6556837429835703e+06 
-8.8999999999999808e+00 -5.3671456949076679e-01 +7.3490997284823685e+00 -1.9321953466638303e-01 -3.0011990208216350e+01 -1.5099887086616516e+03 +8.8613571634610649e+04 -2.8995312017872152e+06 
-8.9999999999999805e+00 -5.3671501080880335e-01 +7.3490956388797066e+00 -1.9288738281557283e-01 -2.9376398958279943e+01 -1.4792406765143123e+03 +8.3672799444330274e+04 -3.1545180954771005e+06 
-9.0999999999999801e+00 -5.3671545857630221e-01 +7.3490920958271335e+00 -1.9261343493698740e-01 -2.8744805076093389e+01 -1.4462075361967154e+03 +7.8681764957861829e+04 -3.4194383881786484e+06 
-9.1999999999999797e+00 -5.3671591271054375e-01 +7.3490892243509425e+00 -1.9242392570981803e-01 -2.8124765106910232e+01 -1.4108600583013028e+03 +7.3690546092419623e+04 -3.6930850220395587e+06 
-9.2999999999999794e+00 -5.3671637312892784e-01 +7.3490871494994945e+00 -1.9234507743017612e-01 -2.7523836087529485e+01 -1.3731692496737421e+03 +6.8749222699205435e+04 -3.9742498776884298e+06 
-9.3999999999999808e+00 -5.3671683974886619e-01 +7.3490859963418886e+00 -1.9240310465504565e-01 -2.6949575503320901e+01 -1.3331062614142331e+03 +6.3907876297287839e+04 -4.2617242202809164e+06 
-9.4999999999999805e+00 -5.3671731248788790e-01 +7.3490858899746634e+00 -1.9262420310700548e-01 -2.6409541474671894e+01 -1.2906426055367463e+03 +5.9216591108788074e+04 -4.5542976557579748e+06 
-9.5999999999999801e+00 -5.3671779126347507e-01 +7.3490869555161833e+00 -1.9303456463680566e-01 -2.5911292599803811e+01 -1.2457498616153657e+03 +5.4725453164220911e+04 -4.8507595530504901e+06 
-9.6999999999999797e+00 -5.3671827599337896e-01 +7.3490893181110826e+00 -1.9366035980389776e-01 -2.5462388070824190e+01 -1.1984000173233894e+03 +5.0484550915735847e+04 -5.1498974002210675e+06 
-9.7999999999999794e+00 -5.3671876659524198e-01 +7.3490931029287374e+00 -1.9452775282133619e-01 -2.5070387623176451e+01 -1.1485651759118177e+03 +4.6543974918133266e+04 -5.4504982199777979e+06 
-9.8999999999999808e+00 -5.3671926298689088e-01 +7.3490984351648194e+00 -1.9566289022232178e-01 -2.4742851578801414e+01 -1.0962177804921039e+03 +4.2953818067514701e+04 -5.7513474817929910e+06 
-9.9999999999999805e+00 -5.3671976508619323e-01 +7.3491054400365119e+00 -1.9709190682391592e-01 -2.4487340635066925e+01 -1.0413304800103797e+03 +3.9764174382752419e+04 -6.0512297843859037e+06 
-1.0100000000000000e+01 -5.3672027274953760e-01 +7.3491141852230024e+00 -1.9883652094594600e-01 -2.4309008108050271e+01 -9.8387664438208049e+02 +3.7011559463660495e+04 -6.3492200989740640e+06 
