# multipoles
# s[mm] polynom_b[n=0][T/m^n] polynom_b[n=1][T/m^n] polynom_b[n=2][T/m^n] polynom_b[n=3][T/m^n] polynom_b[n=4][T/m^n] polynom_b[n=5][T/m^n] polynom_b[n=6][T/m^n] 
-0.0000000000000000e+00 -5.3668739456809789e-01 +7.3487221630687367e+00 -3.4164598602893842e-01 -2.4192007681223966e+01 +2.4506012626455379e+02 +6.1397960055125754e+04 -8.2447047931599477e+06 
-1.0000000000000001e-01 -5.3668753489766274e-01 +7.3487132923926897e+00 -3.4377140907458953e-01 -2.4052780653636987e+01 +3.1062635152367346e+02 +6.0237937343249854e+04 -8.5930299885181431e+06 
-2.0000000000000001e-01 -5.3668769155321516e-01 +7.3487040797156764e+00 -3.4463815442565143e-01 -2.3883675529312406e+01 +3.5609281782839457e+02 +5.8813860166917257e+04 -8.8652824599654619e+06 
-2.9999999999999999e-01 -5.3668786377404964e-01 +7.3486946748001074e+00 -3.4431336647376726e-01 -2.3688463397478959e+01 +3.8238759356567539e+02 +5.7153464909452843e+04 -9.0643698524749149e+06 
-4.0000000000000002e-01 -5.3668805079942994e-01 +7.3486852273951246e+00 -3.4286419592206197e-01 -2.3470914941767912e+01 +3.9043887038255127e+02 +5.5284485641890598e+04 -9.1932003982644305e+06 
-5.0000000000000000e-01 -5.3668825186857450e-01 +7.3486758872434024e+00 -3.4035778918835419e-01 -2.3234800643583263e+01 +3.8117476052215471e+02 +5.3234655306953064e+04 -9.2546819522913713e+06 
-5.9999999999999998e-01 -5.3668846622073729e-01 +7.3486668040881158e+00 -3.3686129599411990e-01 -2.2983890971237962e+01 +3.5552344351360392e+02 +5.1031706758375920e+04 -9.2517226954743154e+06 
-6.9999999999999996e-01 -5.3668869309524714e-01 +7.3486581276618432e+00 -3.3244186661309805e-01 -2.2721956081868676e+01 +3.1441310801482052e+02 +4.8703371086831539e+04 -9.1872308446377777e+06 
-8.0000000000000004e-01 -5.3668893173128696e-01 +7.3486500076957748e+00 -3.2716665017584828e-01 -2.2452766065334316e+01 +2.5877192567549474e+02 +4.6277378950302656e+04 -9.0641145467441007e+06 
-9.0000000000000002e-01 -5.3668918136814914e-01 +7.3486425939214532e+00 -3.2110279552225107e-01 -2.2180091009496007e+01 +1.8952806032335235e+02 +4.3781460980875010e+04 -8.8852819031002782e+06 
-1.0000000000000000e+00 -5.3668944124513562e-01 +7.3486360360652236e+00 -3.1431745150834889e-01 -2.1907700831687350e+01 +1.0760968217017837e+02 +4.1243346768248499e+04 -8.6536410608643424e+06 
-1.1000000000000001e+00 -5.3668971060146098e-01 +7.3486304838577174e+00 -3.0687776760481850e-01 -2.1639365558888500e+01 +1.3944969544396468e+01 +3.8690766482312880e+04 -8.3721001976611856e+06 
-1.2000000000000000e+00 -5.3668998867646989e-01 +7.3486260870210955e+00 -2.9885089099881829e-01 -2.1378854964081512e+01 -9.0537940582495978e+01 +3.6151448769395225e+04 -8.0435673015775466e+06 
-1.3000000000000000e+00 -5.3669027470941033e-01 +7.3486229952889612e+00 -2.9030396830782496e-01 -2.1129939122691095e+01 -2.0491092005107450e+02 +3.3653123900599538e+04 -7.6709503273811545e+06 
-1.3999999999999999e+00 -5.3669056793960235e-01 +7.3486213583896518e+00 -2.8130414709728679e-01 -2.0896387954691420e+01 -3.2824582712066882e+02 +3.1223521173372978e+04 -7.2571572859114259e+06 
-1.5000000000000000e+00 -5.3669086760641260e-01 +7.3486213260603996e+00 -2.7191857010718817e-01 -2.0681971621051787e+01 -4.5961460649617123e+02 +2.8890371162955315e+04 -6.8050957976719392e+06 
-1.6000000000000001e+00 -5.3669117294915170e-01 +7.3486230480346091e+00 -2.6221438051466550e-01 -2.0490460155369430e+01 -5.9808919948968150e+02 +2.6681403561890875e+04 -6.3176734906070977e+06 
-1.7000000000000000e+00 -5.3669148320713322e-01 +7.3486266740574608e+00 -2.5225872151431900e-01 -2.0325623919408898e+01 -7.4274154609084042e+02 +2.4624349820853047e+04 -5.7977980116732344e+06 
-1.8000000000000000e+00 -5.3669179761979846e-01 +7.3486323538753151e+00 -2.4211873116893529e-01 -2.0191233301733458e+01 -8.9264368464350332e+02 +2.2746941397963841e+04 -5.2483765445383061e+06 
-1.8999999999999999e+00 -5.3669211542647366e-01 +7.3486402372433881e+00 -2.3186154873970236e-01 -2.0091058927489879e+01 -1.0468676323267725e+03 +2.1076910926617369e+04 -4.6723163799947351e+06 
-2.0000000000000000e+00 -5.3669243586663595e-01 +7.3486504739247804e+00 -2.2155430848696991e-01 -2.0028871641075746e+01 -1.2044855045086615e+03 +1.9641992094922811e+04 -4.0725243463525060e+06 
-2.1000000000000001e+00 -5.3669275826324059e-01 +7.3486631468374455e+00 -2.1125986389373505e-01 -2.0007360487946126e+01 -1.3645616849425330e+03 +1.8463281944020699e+04 -3.4522327827284923e+06 
-2.2000000000000002e+00 -5.3669308225369938e-01 +7.3486780862136039e+00 -2.0102447243108637e-01 -2.0025212790918896e+01 -1.5261329837888625e+03 +1.7537473976402442e+04 -2.8158895361512592e+06 
-2.2999999999999998e+00 -5.3669340754932493e-01 +7.3486950625872982e+00 -1.9089037296491584e-01 -2.0080191663917109e+01 -1.6882300065225895e+03 +1.6855658891822117e+04 -2.1682266582768606e+06 
-2.3999999999999999e+00 -5.3669373386149810e-01 +7.3487138465006714e+00 -1.8089980509748696e-01 -2.0170060489410336e+01 -1.8498833489559852e+03 +1.6408928996067505e+04 -1.5139762416249246e+06 
-2.5000000000000000e+00 -5.3669406090153160e-01 +7.3487342084966505e+00 -1.7109500637300723e-01 -2.0292582709445661e+01 -2.0101236466557887e+03 +1.6188376993064434e+04 -8.5787019733235321e+05 
-2.6000000000000001e+00 -5.3669438838074901e-01 +7.3487559191215519e+00 -1.6151821496602975e-01 -2.0445521910626493e+01 -2.1679815305171410e+03 +1.6185096515993453e+04 -2.0464044625853392e+05 
-2.7000000000000002e+00 -5.3669471601048346e-01 +7.3487787489278933e+00 -1.5221166695851807e-01 -2.0626641909946223e+01 -2.3224876748102565e+03 +1.6390182628635190e+04 +4.4098129877978488e+05 
-2.7999999999999998e+00 -5.3669504350204100e-01 +7.3488024684752240e+00 -1.4321760066611752e-01 -2.0833706775216974e+01 -2.4726727140924363e+03 +1.6794731938233770e+04 +1.0742631333166191e+06 
-2.8999999999999999e+00 -5.3669537056671179e-01 +7.3488268483256629e+00 -1.3457825492006509e-01 -2.1064480716008173e+01 -2.6175672811989557e+03 +1.7389842025214275e+04 +1.6904731587508155e+06 
-3.0000000000000000e+00 -5.3669569691581565e-01 +7.3488516590446631e+00 -1.2633586360072360e-01 -2.1316728095775908e+01 -2.7562021059991525e+03 +1.8166611481839122e+04 +2.2848799353990643e+06 
-3.1000000000000001e+00 -5.3669602226061297e-01 +7.3488766712086733e+00 -1.1853266622263571e-01 -2.1588213673392765e+01 -2.8876078195640280e+03 +1.9116141366984168e+04 +2.8527515669851410e+06 
-3.2000000000000002e+00 -5.3669634631236685e-01 +7.3489016553951814e+00 -1.1121090056298029e-01 -2.1876702298330041e+01 -3.0108150878716069e+03 +2.0229533403272471e+04 +3.3893563168741036e+06 
-3.2999999999999998e+00 -5.3669666878234512e-01 +7.3489263821886404e+00 -1.0441280159149510e-01 -2.2179959120214715e+01 -3.1248546426586095e+03 +2.1497891290238978e+04 +3.8899627855829927e+06 
-3.3999999999999999e+00 -5.3669698938177302e-01 +7.3489506221811611e+00 -9.8180608220783311e-02 -2.2495749573529423e+01 -3.2287571424677549e+03 +2.2912320524602197e+04 +4.3498392192988899e+06 
-3.5000000000000000e+00 -5.3669730782187275e-01 +7.3489741459680680e+00 -9.2556557328682565e-02 -2.2821839286183991e+01 -3.3215532935507063e+03 +2.4463927970370594e+04 +4.7642541030815495e+06 
-3.6000000000000001e+00 -5.3669762381386543e-01 +7.3489967241552145e+00 -8.7582887174982443e-02 -2.3155994279032281e+01 -3.4022737843974996e+03 +2.6143822986064941e+04 +5.1284758500635587e+06 
-3.7000000000000002e+00 -5.3669793706887636e-01 +7.3490181273528696e+00 -8.3301835803907640e-02 -2.3495980801451843e+01 -3.4699493138418638e+03 +2.7943116507326449e+04 +5.4377729275284968e+06 
-3.7999999999999998e+00 -5.3669824729807525e-01 +7.3490381261781712e+00 -7.9755643277893293e-02 -2.3839565408808998e+01 -3.5236105513478569e+03 +2.9852921516010545e+04 +5.6874136742550572e+06 
-3.8999999999999999e+00 -5.3669855421263313e-01 +7.3490564912524610e+00 -7.6986547172234798e-02 -2.4184514880021400e+01 -3.5622882209083918e+03 +3.1864352550979056e+04 +5.8726666966754207e+06 
-4.0000000000000000e+00 -5.3669885752359847e-01 +7.3490729932178613e+00 -7.5036786694824678e-02 -2.4528596653050311e+01 -3.5850130254256987e+03 +3.3968528020145866e+04 +5.9888005010820609e+06 
-4.0999999999999996e+00 -5.3669915704903826e-01 +7.3490874706728446e+00 -7.3930484740254612e-02 -2.4870148483225812e+01 -3.5912258132999445e+03 +3.6157992372497029e+04 +6.0329871725202054e+06 
-4.2000000000000002e+00 -5.3669945299579536e-01 +7.3490999994766675e+00 -7.3627522263384773e-02 -2.5209268946579066e+01 -3.5818459122636582e+03 +3.8429342694931198e+04 +6.0092899377266858e+06 
-4.2999999999999998e+00 -5.3669974565932710e-01 +7.3491107071503761e+00 -7.4073525052810021e-02 -2.5546383146089649e+01 -3.5581264411100224e+03 +4.0779828163479870e+04 +5.9233341211417178e+06 
-4.4000000000000004e+00 -5.3670003533500943e-01 +7.3491197212107497e+00 -7.5214115984165983e-02 -2.5881915947157019e+01 -3.5213205741492661e+03 +4.3206696350161823e+04 +5.7807453167837998e+06 
-4.5000000000000000e+00 -5.3670032231829501e-01 +7.3491271691704663e+00 -7.6994922319682760e-02 -2.6216291961543838e+01 -3.4726814020003985e+03 +4.5707193090572473e+04 +5.5871487254109504e+06 
-4.5999999999999996e+00 -5.3670060690455612e-01 +7.3491331785352649e+00 -7.9361569012827607e-02 -2.6549935483657848e+01 -3.4134620546002088e+03 +4.8278562167082637e+04 +5.3481697288584877e+06 
-4.7000000000000002e+00 -5.3670088938928628e-01 +7.3491378768094826e+00 -8.2259679969511043e-02 -2.6883270609602018e+01 -3.3449156803941341e+03 +5.0918045896840224e+04 +5.0694338004021663e+06 
-4.7999999999999998e+00 -5.3670117006786855e-01 +7.3491413914857864e+00 -8.5634880778938494e-02 -2.7216720952792027e+01 -3.2682953908407540e+03 +5.3622883520730385e+04 +4.7565662322204523e+06 
-4.9000000000000004e+00 -5.3670144923580798e-01 +7.3491438500582253e+00 -8.9432796190957967e-02 -2.7550710008876443e+01 -3.1848543107125297e+03 +5.6390313295271255e+04 +4.4151923809921881e+06 
-5.0000000000000000e+00 -5.3670172718850317e-01 +7.3491453800049058e+00 -9.3599051679889925e-02 -2.7885660639848407e+01 -3.0958455485259547e+03 +5.9217569471216404e+04 +4.0509375280447230e+06 
-5.0999999999999996e+00 -5.3670200422149861e-01 +7.3491461088044296e+00 -9.8079269752256781e-02 -2.8221995546054018e+01 -3.0025222626419172e+03 +6.2101885022150454e+04 +3.6694271859545950e+06 
-5.2000000000000002e+00 -5.3670228063023007e-01 +7.3491461639204037e+00 -1.0281907739303439e-01 -2.8560136802192531e+01 -2.9061375232083242e+03 +6.5040488921064774e+04 +3.2762864487170624e+06 
-5.2999999999999998e+00 -5.3670255671018052e-01 +7.3491456728180049e+00 -1.0776410056236087e-01 -2.8900506337666236e+01 -2.8079444161987135e+03 +6.8030608937059573e+04 +2.8771404886574950e+06 
-5.4000000000000004e+00 -5.3670283275687747e-01 +7.3491447629444382e+00 -1.1285996131140473e-01 -2.9243525358033541e+01 -2.7091960935632828e+03 +7.1069468253255400e+04 +2.4776147798838466e+06 
-5.5000000000000000e+00 -5.3670310906580465e-01 +7.3491435617415277e+00 -1.1805228531043915e-01 -2.9589614694151720e+01 -2.6111456364832429e+03 +7.4154287449159936e+04 +2.0833344699051562e+06 
-5.5999999999999996e+00 -5.3670338593254219e-01 +7.3491421966426334e+00 -1.2328669796364815e-01 -2.9939194715812413e+01 -2.5150461232363996e+03 +7.7282284029471164e+04 +1.6999246828249716e+06 
-5.7000000000000002e+00 -5.3670366365261202e-01 +7.3491407950669254e+00 -1.2850882384052542e-01 -3.0292685145172335e+01 -2.4221506425848052e+03 +8.0450671279033602e+04 +1.3330105941857770e+06 
-5.7999999999999998e+00 -5.3670394252157150e-01 +7.3491394844258107e+00 -1.3366428803629696e-01 -3.0650505243836015e+01 -2.3337122670592876e+03 +8.3656659364385487e+04 +9.8821729932047694e+05 
-5.9000000000000004e+00 -5.3670422283499108e-01 +7.3491383921211737e+00 -1.3869871631943270e-01 -3.1013073747192532e+01 -2.2509840490272368e+03 +8.6897454919343232e+04 +6.7116979493250232e+05 
-5.9999999999999902e+00 -5.3670450488847765e-01 +7.3491376455255493e+00 -1.4355773407218361e-01 -3.1380808221536046e+01 -2.1752190142732265e+03 +9.0170257963707874e+04 +3.8749294177937479e+05 
-6.0999999999999899e+00 -5.3670478897410268e-01 +7.3491373321690672e+00 -1.4819759534795018e-01 -3.1753147317901369e+01 -2.1073313345193401e+03 +9.3466627205722238e+04 +1.4113426314898217e+05 
-6.1999999999999904e+00 -5.3670507536312995e-01 +7.3491374168458146e+00 -1.5261127813654590e-01 -3.2126707754738824e+01 -2.0470677602188907e+03 +9.6760722043626651e+04 -6.9705955858667468e+04 
-6.2999999999999901e+00 -5.3670536432013460e-01 +7.3491378410811476e+00 -1.5679976227119571e-01 -3.2497618201089885e+01 -1.9939217712605673e+03 +1.0002338526314244e+05 -2.4806585753965445e+05 
-6.3999999999999897e+00 -5.3670565610970300e-01 +7.3491385463951664e+00 -1.6076402791792505e-01 -3.2862007342882947e+01 -1.9473868330713453e+03 +1.0322546023555766e+05 -3.9698364079945802e+05 
-6.4999999999999902e+00 -5.3670595099641494e-01 +7.3491394743067175e+00 -1.6450505823783015e-01 -3.3216004008788296e+01 -1.9069563444279934e+03 +1.0633779168792599e+05 -5.1949781151664985e+05 
-6.5999999999999899e+00 -5.3670624924478560e-01 +7.3491405663197913e+00 -1.6802384607361978e-01 -3.3555736788849011e+01 -1.8721235140452402e+03 +1.0933122352034354e+05 -6.1864775983356929e+05 
-6.6999999999999904e+00 -5.3670655111931798e-01 +7.3491417639400094e+00 -1.7132138780004427e-01 -3.3877334516306313e+01 -1.8423814707533875e+03 +1.1217660160948717e+05 -6.9747325447262300e+05 
-6.7999999999999901e+00 -5.3670685688451181e-01 +7.3491430086600120e+00 -1.7439868576327239e-01 -3.4176925847863096e+01 -1.8172232230389013e+03 +1.1484477138561552e+05 -7.5901461325865460e+05 
-6.8999999999999897e+00 -5.3670716680475217e-01 +7.3491442419694124e+00 -1.7725674862262245e-01 -3.4450639578719581e+01 -1.7961416492377630e+03 +1.1730657973134964e+05 -8.0631276093270921e+05 
-6.9999999999999902e+00 -5.3670748114448774e-01 +7.3491454053510630e+00 -1.7989658956846696e-01 -3.4694604518315906e+01 -1.7786295284702885e+03 +1.1953287421640319e+05 -8.4240908856614353e+05 
-7.0999999999999899e+00 -5.3670780016809516e-01 +7.3491464402778846e+00 -1.8231922941959064e-01 -3.4904949437535130e+01 -1.7641794872103344e+03 +1.2149450290109254e+05 -8.7034569084972818e+05 
-7.1999999999999904e+00 -5.3670812413990820e-01 +7.3491472882157334e+00 -1.8452569689897400e-01 -3.5077803128565144e+01 -1.7522839899746373e+03 +1.2316231461278355e+05 -8.9316541921496997e+05 
-7.2999999999999901e+00 -5.3670845332427553e-01 +7.3491478906243293e+00 -1.8651702436442893e-01 -3.5209294463580292e+01 -1.7424354210233582e+03 +1.2450715937990753e+05 -9.1391149310477881e+05 
-7.3999999999999897e+00 -5.3670878798541977e-01 +7.3491481889558345e+00 -1.8829425263936039e-01 -3.5295552355016788e+01 -1.7341259911465270e+03 +1.2549988819933923e+05 -9.3562794353207841e+05 
-7.4999999999999902e+00 -5.3670912838763651e-01 +7.3491481246514647e+00 -1.8985842914573531e-01 -3.5332705668359388e+01 -1.7268477761635922e+03 +1.2611135256216676e+05 -9.6135942038266256e+05 
-7.5999999999999899e+00 -5.3670947479506281e-01 +7.3491476391475965e+00 -1.9121061046969551e-01 -3.5316883405141851e+01 -1.7200926624263791e+03 +1.2631240553205181e+05 -9.9415146836072404e+05 
-7.6999999999999904e+00 -5.3670982747189899e-01 +7.3491466738696074e+00 -1.9235185783417630e-01 -3.5244214531315855e+01 -1.7133524386347087e+03 +1.2607390076924316e+05 -1.0370500702427608e+06 
-7.7999999999999901e+00 -5.3671018668225123e-01 +7.3491451702371746e+00 -1.9328324388778215e-01 -3.5110828144993640e+01 -1.7061186597729966e+03 +1.2536669353487305e+05 -1.0931023148074942e+06 
-7.8999999999999897e+00 -5.3671055269025547e-01 +7.3491430696588775e+00 -1.9400584327689097e-01 -3.4912853331666895e+01 -1.6978828341479341e+03 +1.2416163989064161e+05 -1.1653554816864245e+06 
-7.9999999999999902e+00 -5.3671092575984358e-01 +7.3491403135656554e+00 -1.9452074976328682e-01 -3.4646421220772616e+01 -1.6881362496181166e+03 +1.2242960976376972e+05 -1.2568575072860881e+06 
-8.0999999999999908e+00 -5.3671130607548945e-01 +7.3491368840352926e+00 -1.9483504315297462e-01 -3.4310200668743761e+01 -1.6764675860293971e+03 +1.2015879073773265e+05 -1.3697379526778704e+06 
-8.1999999999999904e+00 -5.3671169359367787e-01 +7.3491328839166536e+00 -1.9497238482027832e-01 -3.3910377239349181e+01 -1.6627804622856918e+03 +1.1738954008040615e+05 -1.5033313981797381e+06 
-8.2999999999999901e+00 -5.3671208823102512e-01 +7.3491284383615634e+00 -1.9495916291628909e-01 -3.3454521692660087e+01 -1.6470438749093200e+03 +1.1417204024086887e+05 -1.6564354737990261e+06 
-8.3999999999999897e+00 -5.3671248990413944e-01 +7.3491236725388474e+00 -1.9482175386978340e-01 -3.2950205175204303e+01 -1.6292270413862809e+03 +1.1055647521492135e+05 -1.8278468109434613e+06 
-8.4999999999999893e+00 -5.3671289852978132e-01 +7.3491187116362244e+00 -1.9458652597544812e-01 -3.2404999270198807e+01 -1.6092993315055267e+03 +1.0659303083089032e+05 -2.0163613705027848e+06 
-8.5999999999999908e+00 -5.3671331402462963e-01 +7.3491136808592250e+00 -1.9427984162767864e-01 -3.1826475956240106e+01 -1.5872302260082222e+03 +1.0233189444647159e+05 -2.2207746380992006e+06 
-8.6999999999999904e+00 -5.3671373630556241e-01 +7.3491087054306554e+00 -1.9392804896936522e-01 -3.1222207596712742e+01 -1.5629894748354989e+03 +9.7823254907754352e+04 -2.4398808753074850e+06 
-8.7999999999999794e+00 -5.3671416528940541e-01 +7.3491039105972735e+00 -1.9355748942297887e-01 -3.0599767115148797e+01 -1.5365469552751958e+03 +9.3117303488511316e+04 -2.6724737930639763e+06 
-8.8999999999999808e+00 -5.3671460089305922e-01 +7.3490994216196883e+00 -1.9319449265726399e-01 -2.9966727715149219e+01 -1.5078727645827469e+03 +8.8264232301572149e+04 -2.9173461187444399e+06 
-8.9999999999999805e+00 -5.3671504303357331e-01 +7.3490953637853407e+00 -1.9286537602771223e-01 -2.9330663233798496e+01 -1.4769372342582622e+03 +8.3314236260505088e+04 -3.1732895240548234e+06 
-9.0999999999999801e+00 -5.3671549162792953e-01 +7.3490918623985877e+00 -1.9259645240792311e-01 -2.8699147861811415e+01 -1.4437107810956061e+03 +7.8317511473819715e+04 -3.4390953314512731e+06 
-9.1999999999999797e+00 -5.3671594659324773e-01 +7.3490890427881670e+00 -1.9241401402434050e-01 -2.8079756357960967e+01 -1.4081642109329800e+03 +7.3324256465336119e+04 -3.7135530848667528e+06 
-9.2999999999999794e+00 -5.3671640784670638e-01 +7.3490870303042168e+00 -1.9234435264608055e-01 -2.7480063948583407e+01 -1.3702683371255080e+03 +6.8384671543070697e+04 -3.9954523563090363e+06 
-9.3999999999999808e+00 -5.3671687530556433e-01 +7.3490859503212107e+00 -1.9241373624307373e-01 -2.6907646404488055e+01 -1.3299944248939423e+03 +6.3548959206164414e+04 -4.2835806352256527e+06 
-9.4999999999999805e+00 -5.3671734888707767e-01 +7.3490859282362386e+00 -1.9264842944976240e-01 -2.6370080008075877e+01 -1.2873138031258379e+03 +5.8867323992990001e+04 -4.5767251733853640e+06 
-9.5999999999999801e+00 -5.3671782850868277e-01 +7.3490870894691058e+00 -1.9307468076862869e-01 -2.5874941531410869e+01 -1.2421981054287148e+03 +5.4389972269138547e+04 -4.8736718458273513e+06 
-9.6999999999999797e+00 -5.3671831408777315e-01 +7.3490895594684762e+00 -1.9371872707576393e-01 -2.5429808411407624e+01 -1.1946191850833522e+03 +5.0167113223931810e+04 -5.1732055562941395e+06 
-9.7999999999999794e+00 -5.3671880554192219e-01 +7.3490934637071952e+00 -1.9460679191731103e-01 -2.5042258623219837e+01 -1.1445491481404752e+03 +4.6248958147541482e+04 -5.4741100800108602e+06 
-9.8999999999999808e+00 -5.3671930278870672e-01 +7.3490989276827996e+00 -1.9576508474260529e-01 -2.4719870677482355e+01 -1.0919603678084827e+03 +4.2685720357044345e+04 -5.7751679960690755e+06 
-9.9999999999999805e+00 -5.3671980574581990e-01 +7.3491060768745333e+00 -1.9721979828309597e-01 -2.4470220768799301e+01 -1.0368253132090749e+03 +3.9527597579021465e+04 -6.0751619950822871e+06 
-1.0100000000000000e+01 -5.3672031425256606e-01 +7.3491149642642561e+00 -1.9899157852262644e-01 -2.4297869264191156e+01 -9.7911951258009594e+02 +3.6807814923266233e+04 -6.3732265947271036e+06 
