# field on trajectory
# s[mm] rx[mm] ry[mm] rz[mm] bx[T] by[T] bz[T]
0.0000000000000000e+00 +7.9199999999999999e+00 +0.0000000000000000e+00 +0.0000000000000000e+00 -2.9429447668067443e-02 -5.6651283910756300e-01 +5.6556027926350453e-03
-1.0000000000000001e-01 +7.9199997169395351e+00 +0.0000000000000000e+00 -9.9999999999465849e-02 -2.9429189368820833e-02 -5.6651281479136317e-01 +5.6555946029223638e-03
-2.0000000000000001e-01 +7.9199988677581556e+00 +0.0000000000000000e+00 -1.9999999999572676e-01 -2.9428930427090008e-02 -5.6651280273841431e-01 +5.6555886450186084e-03
-3.0000000000000004e-01 +7.9199974524558732e+00 +0.0000000000000000e+00 -2.9999999998557780e-01 -2.9428671183691090e-02 -5.6651280226917100e-01 +5.6555850065400830e-03
-4.0000000000000002e-01 +7.9199954710326885e+00 +0.0000000000000000e+00 -3.9999999996581409e-01 -2.9428411979443153e-02 -5.6651281270406106e-01 +5.6555837751025633e-03
-5.0000000000000000e-01 +7.9199929234885920e+00 +0.0000000000000000e+00 -4.9999999993323063e-01 -2.9428153155166965e-02 -5.6651283336349156e-01 +5.6555850383213056e-03
-5.9999999999999998e-01 +7.9199898098235622e+00 +0.0000000000000000e+00 -5.9999999988462260e-01 -2.9427895051683781e-02 -5.6651286356785191e-01 +5.6555888838110309e-03
-6.9999999999999996e-01 +7.9199861300375689e+00 +0.0000000000000000e+00 -6.9999999981678496e-01 -2.9427638009814076e-02 -5.6651290263752074e-01 +5.6555953991859302e-03
-7.9999999999999993e-01 +7.9199818841305740e+00 +0.0000000000000000e+00 -7.9999999972651281e-01 -2.9427382370376370e-02 -5.6651294989286938e-01 +5.6556046720596673e-03
-8.9999999999999991e-01 +7.9199770721025304e+00 +0.0000000000000000e+00 -8.9999999961060118e-01 -2.9427128474185982e-02 -5.6651300465426813e-01 +5.6556167900453759e-03
-9.9999999999999989e-01 +7.9199716939533831e+00 +0.0000000000000000e+00 -9.9999999946584517e-01 -2.9426876662053781e-02 -5.6651306624209075e-01 +5.6556318407556582e-03
-1.0999999999999999e+00 +7.9199657496830715e+00 +0.0000000000000000e+00 -1.0999999992890399e+00 -2.9426627274784980e-02 -5.6651313397671976e-01 +5.6556499118025835e-03
-1.2000000000000000e+00 +7.9199592392915275e+00 +0.0000000000000000e+00 -1.1999999990769803e+00 -2.9426380653177920e-02 -5.6651320717855125e-01 +5.6556710907976889e-03
-1.3000000000000000e+00 +7.9199521627786780e+00 +0.0000000000000000e+00 -1.2999999988264617e+00 -2.9426137138022817e-02 -5.6651328516800004e-01 +5.6556954653519814e-03
-1.4000000000000001e+00 +7.9199445201444458e+00 +0.0000000000000000e+00 -1.3999999985342788e+00 -2.9425897070100522e-02 -5.6651336726550428e-01 +5.6557231230759302e-03
-1.5000000000000002e+00 +7.9199363113887493e+00 +0.0000000000000000e+00 -1.4999999981972270e+00 -2.9425660790181364e-02 -5.6651345279153165e-01 +5.6557541515794727e-03
-1.6000000000000003e+00 +7.9199275365115032e+00 +0.0000000000000000e+00 -1.5999999978121011e+00 -2.9425428639023834e-02 -5.6651354106658292e-01 +5.6557886384720089e-03
-1.7000000000000004e+00 +7.9199181955126194e+00 +0.0000000000000000e+00 -1.6999999973756963e+00 -2.9425200957373419e-02 -5.6651363141119815e-01 +5.6558266713624050e-03
-1.8000000000000005e+00 +7.9199082883920084e+00 +0.0000000000000000e+00 -1.7999999968848075e+00 -2.9424978085961354e-02 -5.6651372314596127e-01 +5.6558683378589939e-03
-1.9000000000000006e+00 +7.9198978151495787e+00 +0.0000000000000000e+00 -1.8999999963362300e+00 -2.9424760365503400e-02 -5.6651381559150527e-01 +5.6559137255695630e-03
-2.0000000000000004e+00 +7.9198867757852387e+00 +0.0000000000000000e+00 -1.9999999957267587e+00 -2.9424548136698592e-02 -5.6651390806851687e-01 +5.6559629221013714e-03
-2.1000000000000005e+00 +7.9198751702988961e+00 +0.0000000000000000e+00 -2.0999999950531887e+00 -2.9424341667089265e-02 -5.6651399997497698e-01 +5.6560159577323504e-03
-2.2000000000000006e+00 +7.9198629986904585e+00 +0.0000000000000000e+00 -2.1999999943123147e+00 -2.9424140931648333e-02 -5.6651409101785200e-01 +5.6560726334254534e-03
-2.3000000000000007e+00 +7.9198502609598362e+00 +0.0000000000000000e+00 -2.2999999935009323e+00 -2.9423945832203806e-02 -5.6651418098135964e-01 +5.6561326928163654e-03
-2.4000000000000008e+00 +7.9198369571069405e+00 +0.0000000000000000e+00 -2.3999999926158364e+00 -2.9423756270579245e-02 -5.6651426964972895e-01 +5.6561958795427296e-03
-2.5000000000000009e+00 +7.9198230871316824e+00 +0.0000000000000000e+00 -2.4999999916538216e+00 -2.9423572148594233e-02 -5.6651435680719930e-01 +5.6562619372443950e-03
-2.6000000000000010e+00 +7.9198086510339749e+00 +0.0000000000000000e+00 -2.5999999906116833e+00 -2.9423393368064873e-02 -5.6651444223801828e-01 +5.6563306095636472e-03
-2.7000000000000011e+00 +7.9197936488137337e+00 +0.0000000000000000e+00 -2.6999999894862166e+00 -2.9423219830804270e-02 -5.6651452572644101e-01 +5.6564016401454819e-03
-2.8000000000000012e+00 +7.9197780804708753e+00 +0.0000000000000000e+00 -2.7999999882742164e+00 -2.9423051438623039e-02 -5.6651460705672951e-01 +5.6564747726378451e-03
-2.9000000000000012e+00 +7.9197619460053197e+00 +0.0000000000000000e+00 -2.8999999869724777e+00 -2.9422888093329738e-02 -5.6651468601314958e-01 +5.6565497506918657e-03
-3.0000000000000013e+00 +7.9197452454169879e+00 +0.0000000000000000e+00 -2.9999999855777961e+00 -2.9422729696731431e-02 -5.6651476237997200e-01 +5.6566263179621259e-03
-3.1000000000000014e+00 +7.9197279787058044e+00 +0.0000000000000000e+00 -3.0999999840869661e+00 -2.9422576150634101e-02 -5.6651483594146868e-01 +5.6567042181069043e-03
-3.2000000000000015e+00 +7.9197101458716963e+00 +0.0000000000000000e+00 -3.1999999824967826e+00 -2.9422427356843233e-02 -5.6651490648191427e-01 +5.6567831947884192e-03
-3.3000000000000016e+00 +7.9196917469145935e+00 +0.0000000000000000e+00 -3.2999999808040408e+00 -2.9422283217164190e-02 -5.6651497378558235e-01 +5.6568629916730782e-03
-3.4000000000000017e+00 +7.9196727818344295e+00 +0.0000000000000000e+00 -3.3999999790055360e+00 -2.9422143633402766e-02 -5.6651503763674560e-01 +5.6569433524317342e-03
-3.5000000000000018e+00 +7.9196532506311410e+00 +0.0000000000000000e+00 -3.4999999770980628e+00 -2.9422008507365677e-02 -5.6651509781967413e-01 +5.6570240207399211e-03
-3.6000000000000019e+00 +7.9196331533046687e+00 +0.0000000000000000e+00 -3.5999999750784166e+00 -2.9421877740861021e-02 -5.6651515411863429e-01 +5.6571047402781240e-03
-3.7000000000000020e+00 +7.9196124898549574e+00 +0.0000000000000000e+00 -3.6999999729433921e+00 -2.9421751235698776e-02 -5.6651520631788732e-01 +5.6571852547320075e-03
-3.8000000000000020e+00 +7.9195912602819547e+00 +0.0000000000000000e+00 -3.7999999706897847e+00 -2.9421628893691300e-02 -5.6651525420168891e-01 +5.6572653077926671e-03
-3.9000000000000021e+00 +7.9195694645856136e+00 +0.0000000000000000e+00 -3.8999999683143893e+00 -2.9421510616653785e-02 -5.6651529755428565e-01 +5.6573446431568948e-03
-4.0000000000000018e+00 +7.9195471027658924e+00 +0.0000000000000000e+00 -3.9999999658140011e+00 -2.9421396306404800e-02 -5.6651533615991745e-01 +5.6574230045274071e-03
-4.1000000000000014e+00 +7.9195241748227518e+00 +0.0000000000000000e+00 -4.0999999631854145e+00 -2.9421285866531751e-02 -5.6651537003798247e-01 +5.6575002022263010e-03
-4.2000000000000011e+00 +7.9195006807561601e+00 +0.0000000000000000e+00 -4.1999999604254254e+00 -2.9421179207693472e-02 -5.6651540014854473e-01 +5.6575763130319772e-03
-4.3000000000000007e+00 +7.9194766205660869e+00 +0.0000000000000000e+00 -4.2999999575308285e+00 -2.9421076242338591e-02 -5.6651542768681429e-01 +5.6576514803339407e-03
-4.4000000000000004e+00 +7.9194519942525057e+00 +0.0000000000000000e+00 -4.3999999544984183e+00 -2.9420976882943838e-02 -5.6651545384797231e-01 +5.6577258475183946e-03
-4.5000000000000000e+00 +7.9194268018153906e+00 +0.0000000000000000e+00 -4.4999999513249902e+00 -2.9420881042015890e-02 -5.6651547982717143e-01 +5.6577995579679347e-03
-4.5999999999999996e+00 +7.9194010432547168e+00 +0.0000000000000000e+00 -4.5999999480073397e+00 -2.9420788632093131e-02 -5.6651550681953233e-01 +5.6578727550612110e-03
-4.6999999999999993e+00 +7.9193747185704586e+00 +0.0000000000000000e+00 -4.6999999445422613e+00 -2.9420699565747308e-02 -5.6651553602014115e-01 +5.6579455821726184e-03
-4.7999999999999989e+00 +7.9193478277625866e+00 +0.0000000000000000e+00 -4.7999999409265497e+00 -2.9420613755585464e-02 -5.6651556862404961e-01 +5.6580181826719799e-03
-4.8999999999999986e+00 +7.9193203708310698e+00 +0.0000000000000000e+00 -4.8999999371570002e+00 -2.9420531114251528e-02 -5.6651560582627070e-01 +5.6580906999242203e-03
-4.9999999999999982e+00 +7.9192923477758708e+00 +0.0000000000000000e+00 -4.9999999332304084e+00 -2.9420451554428184e-02 -5.6651564882177763e-01 +5.6581632772890553e-03
-5.0999999999999979e+00 +7.9192637585969479e+00 +0.0000000000000000e+00 -5.0999999291435687e+00 -2.9420374988838618e-02 -5.6651569880550201e-01 +5.6582360581206607e-03
-5.1999999999999975e+00 +7.9192346032942522e+00 +0.0000000000000000e+00 -5.1999999248932767e+00 -2.9420301330248241e-02 -5.6651575697233170e-01 +5.6583091857673662e-03
-5.2999999999999972e+00 +7.9192048818677261e+00 +0.0000000000000000e+00 -5.2999999204763268e+00 -2.9420230491466481e-02 -5.6651582451710858e-01 +5.6583828035713232e-03
-5.3999999999999968e+00 +7.9191745943173029e+00 +0.0000000000000000e+00 -5.3999999158895147e+00 -2.9420162385348555e-02 -5.6651590263462659e-01 +5.6584570548681998e-03
-5.4999999999999964e+00 +7.9191437406429062e+00 +0.0000000000000000e+00 -5.4999999111296347e+00 -2.9420096924797211e-02 -5.6651599251962981e-01 +5.6585320829868457e-03
-5.5999999999999961e+00 +7.9191123208444463e+00 +0.0000000000000000e+00 -5.5999999061934824e+00 -2.9420034022764479e-02 -5.6651609536681047e-01 +5.6586080312489868e-03
-5.6999999999999957e+00 +7.9190803349218211e+00 +0.0000000000000000e+00 -5.6999999010778524e+00 -2.9419973592253495e-02 -5.6651621237080640e-01 +5.6586850429688950e-03
-5.7999999999999954e+00 +7.9190477828749151e+00 +0.0000000000000000e+00 -5.7999998957795400e+00 -2.9419915546320202e-02 -5.6651634472620027e-01 +5.6587632614530778e-03
-5.8999999999999950e+00 +7.9190146647035968e+00 +0.0000000000000000e+00 -5.8999998902953399e+00 -2.9419859798075151e-02 -5.6651649362751610e-01 +5.6588428299999523e-03
-5.9999999999999947e+00 +7.9189809804077189e+00 +0.0000000000000000e+00 -5.9999998846220475e+00 -2.9419806260685237e-02 -5.6651666026921765e-01 +5.6589238918995253e-03
-6.0999999999999943e+00 +7.9189467299871152e+00 +0.0000000000000000e+00 -6.0999998787564573e+00 -2.9419754764280142e-02 -5.6651684533119684e-01 +5.6590065601467470e-03
-6.1999999999999940e+00 +7.9189119134416019e+00 +0.0000000000000000e+00 -6.1999998726953640e+00 -2.9419704806631364e-02 -5.6651704743526254e-01 +5.6590908265842874e-03
-6.2999999999999936e+00 +7.9188765307709792e+00 +0.0000000000000000e+00 -6.2999998664355630e+00 -2.9419655802376349e-02 -5.6651726468872687e-01 +5.6591766527659933e-03
-6.3999999999999932e+00 +7.9188405819750303e+00 +0.0000000000000000e+00 -6.3999998599738497e+00 -2.9419607166103305e-02 -5.6651749519892858e-01 +5.6592640002440450e-03
-6.4999999999999929e+00 +7.9188040670535269e+00 +0.0000000000000000e+00 -6.4999998533070187e+00 -2.9419558312348496e-02 -5.6651773707323327e-01 +5.6593528305689351e-03
-6.5999999999999925e+00 +7.9187669860062284e+00 +0.0000000000000000e+00 -6.5999998464318645e+00 -2.9419508655593739e-02 -5.6651798841903711e-01 +5.6594431052894708e-03
-6.6999999999999922e+00 +7.9187293388328843e+00 +0.0000000000000000e+00 -6.6999998393451827e+00 -2.9419457610263801e-02 -5.6651824734376643e-01 +5.6595347859527403e-03
-6.7999999999999918e+00 +7.9186911255332380e+00 +0.0000000000000000e+00 -6.7999998320437678e+00 -2.9419404590723831e-02 -5.6651851195488012e-01 +5.6596278341041265e-03
-6.8999999999999915e+00 +7.9186523461070264e+00 +0.0000000000000000e+00 -6.8999998245244143e+00 -2.9419349011276769e-02 -5.6651878035987180e-01 +5.6597222112872792e-03
-6.9999999999999911e+00 +7.9186130005539823e+00 +0.0000000000000000e+00 -6.9999998167839177e+00 -2.9419290286160780e-02 -5.6651905066627029e-01 +5.6598178790441015e-03
-7.0999999999999908e+00 +7.9185730888738375e+00 +0.0000000000000000e+00 -7.0999998088190726e+00 -2.9419227829546698e-02 -5.6651932098164204e-01 +5.6599147989147532e-03
-7.1999999999999904e+00 +7.9185326110663228e+00 +0.0000000000000000e+00 -7.1999998006266743e+00 -2.9419161055535374e-02 -5.6651958941359259e-01 +5.6600129324376166e-03
-7.2999999999999901e+00 +7.9184915671311717e+00 +0.0000000000000000e+00 -7.2999997922035176e+00 -2.9419089378155173e-02 -5.6651985406976746e-01 +5.6601122411493072e-03
-7.3999999999999897e+00 +7.9184499570681215e+00 +0.0000000000000000e+00 -7.3999997835463969e+00 -2.9419012211359345e-02 -5.6652011305785466e-01 +5.6602126865846446e-03
-7.4999999999999893e+00 +7.9184077808769144e+00 +0.0000000000000000e+00 -7.4999997746521077e+00 -2.9418928969023504e-02 -5.6652036448558674e-01 +5.6603142302766507e-03
-7.5999999999999890e+00 +7.9183650385573001e+00 +0.0000000000000000e+00 -7.5999997655174445e+00 -2.9418839064942970e-02 -5.6652060646074009e-01 +5.6604168337565323e-03
-7.6999999999999886e+00 +7.9183217301090396e+00 +0.0000000000000000e+00 -7.6999997561392020e+00 -2.9418741912830244e-02 -5.6652083709113921e-01 +5.6605204585536695e-03
-7.7999999999999883e+00 +7.9182778555319029e+00 +0.0000000000000000e+00 -7.7999997465141755e+00 -2.9418636926312414e-02 -5.6652105448465684e-01 +5.6606250661956018e-03
-7.8999999999999879e+00 +7.9182334148256750e+00 +0.0000000000000000e+00 -7.8999997366391597e+00 -2.9418523518928579e-02 -5.6652125674921583e-01 +5.6607306182080248e-03
-7.9999999999999876e+00 +7.9181884079901552e+00 +0.0000000000000000e+00 -7.9999997265109490e+00 -2.9418401104127242e-02 -5.6652144199279109e-01 +5.6608370761147666e-03
-8.0999999999999872e+00 +7.9181428350251597e+00 +0.0000000000000000e+00 -8.0999997161263391e+00 -2.9418269257692829e-02 -5.6652160899632886e-01 +5.6609444086519363e-03
-8.1999999999999869e+00 +7.9180966959305232e+00 +0.0000000000000000e+00 -8.1999997054821243e+00 -2.9418128205082678e-02 -5.6652175923250792e-01 +5.6610526134145758e-03
-8.2999999999999865e+00 +7.9180499907060966e+00 +0.0000000000000000e+00 -8.2999996945751011e+00 -2.9417978334218813e-02 -5.6652189484693893e-01 +5.6611616952211286e-03
-8.3999999999999861e+00 +7.9180027193517466e+00 +0.0000000000000000e+00 -8.3999996834020614e+00 -2.9417820033069506e-02 -5.6652201798523050e-01 +5.6612716589004965e-03
-8.4999999999999858e+00 +7.9179548818673506e+00 +0.0000000000000000e+00 -8.4999996719598023e+00 -2.9417653689651040e-02 -5.6652213079298874e-01 +5.6613825092923864e-03
-8.5999999999999854e+00 +7.9179064782527968e+00 +0.0000000000000000e+00 -8.5999996602451194e+00 -2.9417479692029434e-02 -5.6652223541581781e-01 +5.6614942512476611e-03
-8.6999999999999851e+00 +7.9178575085079830e+00 +0.0000000000000000e+00 -8.6999996482548063e+00 -2.9417298428322237e-02 -5.6652233399931873e-01 +5.6616068896286967e-03
-8.7999999999999847e+00 +7.9178079726328114e+00 +0.0000000000000000e+00 -8.7999996359856567e+00 -2.9417110286700281e-02 -5.6652242868909009e-01 +5.6617204293097330e-03
-8.8999999999999844e+00 +7.9177578706271889e+00 +0.0000000000000000e+00 -8.8999996234344678e+00 -2.9416915655389349e-02 -5.6652252163072725e-01 +5.6618348751772173e-03
-8.9999999999999840e+00 +7.9177072024910249e+00 +0.0000000000000000e+00 -8.9999996105980333e+00 -2.9416714922672060e-02 -5.6652261496982259e-01 +5.6619502321301699e-03
-9.0999999999999837e+00 +7.9176559682242269e+00 +0.0000000000000000e+00 -9.0999995974731487e+00 -2.9416508476889518e-02 -5.6652271085196559e-01 +5.6620665050805333e-03
-9.1999999999999833e+00 +7.9176041678267000e+00 +0.0000000000000000e+00 -9.1999995840566076e+00 -2.9416296706443138e-02 -5.6652281142274175e-01 +5.6621836989535143e-03
-9.2999999999999829e+00 +7.9175518012983463e+00 +0.0000000000000000e+00 -9.2999995703452072e+00 -2.9416079999796309e-02 -5.6652291882773331e-01 +5.6623018186879428e-03
-9.3999999999999826e+00 +7.9174988686390595e+00 +0.0000000000000000e+00 -9.3999995563357412e+00 -2.9415858745476274e-02 -5.6652303521251823e-01 +5.6624208692366328e-03
-9.4999999999999822e+00 +7.9174453698487239e+00 +0.0000000000000000e+00 -9.4999995420250034e+00 -2.9415633332075777e-02 -5.6652316272267111e-01 +5.6625408555667171e-03
-9.5999999999999819e+00 +7.9173913049272153e+00 +0.0000000000000000e+00 -9.5999995274097909e+00 -2.9415404148254845e-02 -5.6652330350376223e-01 +5.6626617826600169e-03
-9.6999999999999815e+00 +7.9173366738743933e+00 +0.0000000000000000e+00 -9.6999995124868974e+00 -2.9415171582742566e-02 -5.6652345970135731e-01 +5.6627836555133738e-03
-9.7999999999999812e+00 +7.9172814766901034e+00 +0.0000000000000000e+00 -9.7999994972531166e+00 -2.9414936024338853e-02 -5.6652363346101808e-01 +5.6629064791390259e-03
-9.8999999999999808e+00 +7.9172257133741741e+00 +0.0000000000000000e+00 -9.8999994817052457e+00 -2.9414697861916136e-02 -5.6652382692830106e-01 +5.6630302585649389e-03
-9.9999999999999805e+00 +7.9171693839264137e+00 +0.0000000000000000e+00 -9.9999994658400784e+00 -2.9414457484421182e-02 -5.6652404224875874e-01 +5.6631549988351735e-03
-1.0099999999999980e+01 +7.9171124883466089e+00 +0.0000000000000000e+00 -1.0099999449654408e+01 -2.9414215391029619e-02 -5.6652428110417874e-01 +5.6632806855457197e-03
-1.0199999999999980e+01 +7.9170550266345217e+00 +0.0000000000000000e+00 -1.0199999433145031e+01 -2.9413972521581958e-02 -5.6652454332128244e-01 +5.6634072264400348e-03
-1.0299999999999979e+01 +7.9169969987898927e+00 +0.0000000000000000e+00 -1.0299999416308742e+01 -2.9413729926067150e-02 -5.6652482826301487e-01 +5.6635345097855571e-03
-1.0399999999999979e+01 +7.9169384048124396e+00 +0.0000000000000000e+00 -1.0399999399142336e+01 -2.9413488654457982e-02 -5.6652513529232229e-01 +5.6636624238359844e-03
-1.0499999999999979e+01 +7.9168792447018568e+00 +0.0000000000000000e+00 -1.0499999381642608e+01 -2.9413249756710405e-02 -5.6652546377214896e-01 +5.6637908568308573e-03
-1.0599999999999978e+01 +7.9168195184578183e+00 +0.0000000000000000e+00 -1.0599999363806353e+01 -2.9413014282763064e-02 -5.6652581306543881e-01 +5.6639196969951941e-03
-1.0699999999999978e+01 +7.9167592260799768e+00 +0.0000000000000000e+00 -1.0699999345630363e+01 -2.9412783282536617e-02 -5.6652618253513531e-01 +5.6640488325390842e-03
-1.0799999999999978e+01 +7.9166983675679647e+00 +0.0000000000000000e+00 -1.0799999327111436e+01 -2.9412557805933225e-02 -5.6652657154418096e-01 +5.6641781516573002e-03
-1.0899999999999977e+01 +7.9166369429213965e+00 +0.0000000000000000e+00 -1.0899999308246365e+01 -2.9412338902835934e-02 -5.6652697945551689e-01 +5.6643075425289145e-03
-1.0999999999999977e+01 +7.9165749521398654e+00 +0.0000000000000000e+00 -1.0999999289031944e+01 -2.9412127623108089e-02 -5.6652740563208381e-01 +5.6644368933169058e-03
-1.1099999999999977e+01 +7.9165123952229477e+00 +0.0000000000000000e+00 -1.1099999269464970e+01 -2.9411925016592767e-02 -5.6652784943682089e-01 +5.6645660921677598e-03
-1.1199999999999976e+01 +7.9164492721702029e+00 +0.0000000000000000e+00 -1.1199999249542236e+01 -2.9411732133112201e-02 -5.6652831023266692e-01 +5.6646950272110962e-03
-1.1299999999999976e+01 +7.9163855829811718e+00 +0.0000000000000000e+00 -1.1299999229260536e+01 -2.9411550022467148e-02 -5.6652878738255874e-01 +5.6648235865592580e-03
-1.1399999999999975e+01 +7.9163213276553801e+00 +0.0000000000000000e+00 -1.1399999208616665e+01 -2.9411379734436364e-02 -5.6652928024943283e-01 +5.6649516583069477e-03
-1.1499999999999975e+01 +7.9162565061923367e+00 +0.0000000000000000e+00 -1.1499999187607418e+01 -2.9411222318775975e-02 -5.6652978819622346e-01 +5.6650791305308057e-03
-1.1599999999999975e+01 +7.9161911185915361e+00 +0.0000000000000000e+00 -1.1599999166229590e+01 -2.9411078825218925e-02 -5.6653031058586445e-01 +5.6652058912890534e-03
-1.1699999999999974e+01 +7.9161251648524598e+00 +0.0000000000000000e+00 -1.1699999144479976e+01 -2.9410950303474338e-02 -5.6653084678128784e-01 +5.6653318286210789e-03
