# field on trajectory
# s[mm] rx[mm] ry[mm] rz[mm] bx[T] by[T] bz[T]
0.0000000000000000e+00 +8.1649999999999991e+00 +0.0000000000000000e+00 +0.0000000000000000e+00 -3.1043038119598489e-02 -5.9224396940073032e-01 +5.9778716035465296e-03
1.0000000000000001e-01 +8.1649997170336608e+00 +0.0000000000000000e+00 +9.9999999999466210e-02 -3.1043086059688026e-02 -5.9224381925582092e-01 +5.9778735545109093e-03
2.0000000000000001e-01 +8.1649988681347452e+00 +0.0000000000000000e+00 +1.9999999999572959e-01 -3.1043139963842215e-02 -5.9224366421786157e-01 +5.9778750627811714e-03
3.0000000000000004e-01 +8.1649974533033980e+00 +0.0000000000000000e+00 +2.9999999998558741e-01 -3.1043199224058484e-02 -5.9224350531803183e-01 +5.9778761273180363e-03
4.0000000000000002e-01 +8.1649954725397738e+00 +0.0000000000000000e+00 +3.9999999996583685e-01 -3.1043263232330271e-02 -5.9224334358749631e-01 +5.9778767470821045e-03
5.0000000000000000e-01 +8.1649929258440253e+00 +0.0000000000000000e+00 +4.9999999993327515e-01 -3.1043331380647698e-02 -5.9224318005740340e-01 +5.9778769210340546e-03
5.9999999999999998e-01 +8.1649898132163088e+00 +0.0000000000000000e+00 +5.9999999988469943e-01 -3.1043403060998224e-02 -5.9224301575889027e-01 +5.9778766481348505e-03
6.9999999999999996e-01 +8.1649861346567807e+00 +0.0000000000000000e+00 +6.9999999981690697e-01 -3.1043477665367244e-02 -5.9224285172308522e-01 +5.9778759273459263e-03
7.9999999999999993e-01 +8.1649818901655991e+00 +0.0000000000000000e+00 +7.9999999972669500e-01 -3.1043554585738778e-02 -5.9224268898111032e-01 +5.9778747576294039e-03
8.9999999999999991e-01 +8.1649770797429184e+00 +0.0000000000000000e+00 +8.9999999961086075e-01 -3.1043633214096058e-02 -5.9224252856408288e-01 +5.9778731379482673e-03
9.9999999999999989e-01 +8.1649717033888933e+00 +0.0000000000000000e+00 +9.9999999946620144e-01 -3.1043712942422273e-02 -5.9224237150312176e-01 +5.9778710672665891e-03
1.0999999999999999e+00 +8.1649657611036730e+00 +0.0000000000000000e+00 +1.0999999992895142e+00 -3.1043793162701075e-02 -5.9224221882934680e-01 +5.9778685445497168e-03
1.2000000000000000e+00 +8.1649592528874049e+00 +0.0000000000000000e+00 +1.1999999990775962e+00 -3.1043873266917300e-02 -5.9224207157388298e-01 +5.9778655687644624e-03
1.3000000000000000e+00 +8.1649521787402275e+00 +0.0000000000000000e+00 +1.2999999988272450e+00 -3.1043952647057636e-02 -5.9224193076786280e-01 +5.9778621388793191e-03
1.4000000000000001e+00 +8.1649445386622777e+00 +0.0000000000000000e+00 +1.3999999985352576e+00 -3.1044030695111205e-02 -5.9224179744242988e-01 +5.9778582538646515e-03
1.5000000000000002e+00 +8.1649363326536815e+00 +0.0000000000000000e+00 +1.4999999981984313e+00 -3.1044106803070213e-02 -5.9224167262874106e-01 +5.9778539126928987e-03
1.6000000000000003e+00 +8.1649275607145597e+00 +0.0000000000000000e+00 +1.5999999978135633e+00 -3.1044180362930596e-02 -5.9224155735796846e-01 +5.9778491143387619e-03
1.7000000000000004e+00 +8.1649182228450208e+00 +0.0000000000000000e+00 +1.6999999973774509e+00 -3.1044250766692733e-02 -5.9224145266130490e-01 +5.9778438577794213e-03
1.8000000000000005e+00 +8.1649083190451659e+00 +0.0000000000000000e+00 +1.7999999968868912e+00 -3.1044317406361974e-02 -5.9224135956996327e-01 +5.9778381419947277e-03
1.9000000000000006e+00 +8.1648978493150857e+00 +0.0000000000000000e+00 +1.8999999963386816e+00 -3.1044379673949341e-02 -5.9224127911518132e-01 +5.9778319659673906e-03
2.0000000000000004e+00 +8.1648868136548565e+00 +0.0000000000000000e+00 +1.9999999957296191e+00 -3.1044436961472199e-02 -5.9224121232822502e-01 +5.9778253286831970e-03
2.1000000000000005e+00 +8.1648752120645405e+00 +0.0000000000000000e+00 +2.0999999950565011e+00 -3.1044488911374398e-02 -5.9224115993060777e-01 +5.9778182408658908e-03
2.2000000000000006e+00 +8.1648630445441910e+00 +0.0000000000000000e+00 +2.1999999943161250e+00 -3.1044536167784475e-02 -5.9224112140473406e-01 +5.9778107601802461e-03
2.3000000000000007e+00 +8.1648503110938435e+00 +0.0000000000000000e+00 +2.2999999935052879e+00 -3.1044579625255204e-02 -5.9224109592322027e-01 +5.9778029560257784e-03
2.4000000000000008e+00 +8.1648370117135229e+00 +0.0000000000000000e+00 +2.3999999926207871e+00 -3.1044620178343845e-02 -5.9224108265866982e-01 +5.9777948978015239e-03
2.5000000000000009e+00 +8.1648231464032435e+00 +0.0000000000000000e+00 +2.4999999916594193e+00 -3.1044658721612287e-02 -5.9224108078367188e-01 +5.9777866549057986e-03
2.6000000000000010e+00 +8.1648087151630069e+00 +0.0000000000000000e+00 +2.5999999906179823e+00 -3.1044696149627335e-02 -5.9224108947079857e-01 +5.9777782967359609e-03
2.7000000000000011e+00 +8.1647937179928043e+00 +0.0000000000000000e+00 +2.6999999894932731e+00 -3.1044733356960903e-02 -5.9224110789260298e-01 +5.9777698926881890e-03
2.8000000000000012e+00 +8.1647781548926197e+00 +0.0000000000000000e+00 +2.7999999882820892e+00 -3.1044771238190147e-02 -5.9224113522161637e-01 +5.9777615121572279e-03
2.9000000000000012e+00 +8.1647620258624283e+00 +0.0000000000000000e+00 +2.8999999869812276e+00 -3.1044810687897724e-02 -5.9224117063034676e-01 +5.9777532245361663e-03
3.0000000000000013e+00 +8.1647453309021962e+00 +0.0000000000000000e+00 +2.9999999855874857e+00 -3.1044852600671989e-02 -5.9224121329127533e-01 +5.9777450992161913e-03
3.1000000000000014e+00 +8.1647280700118827e+00 +0.0000000000000000e+00 +3.0999999840976606e+00 -3.1044897871107147e-02 -5.9224126237685493e-01 +5.9777372055863634e-03
3.2000000000000015e+00 +8.1647102431914416e+00 +0.0000000000000000e+00 +3.1999999825085497e+00 -3.1044947393803517e-02 -5.9224131705950844e-01 +5.9777296130333708e-03
3.3000000000000016e+00 +8.1646918504408212e+00 +0.0000000000000000e+00 +3.2999999808169500e+00 -3.1045002063367699e-02 -5.9224137651162490e-01 +5.9777223909413015e-03
3.4000000000000017e+00 +8.1646728917599667e+00 +0.0000000000000000e+00 +3.3999999790196584e+00 -3.1045062774412727e-02 -5.9224143990555844e-01 +5.9777156086914026e-03
3.5000000000000018e+00 +8.1646533671488157e+00 +0.0000000000000000e+00 +3.4999999771134727e+00 -3.1045130421558376e-02 -5.9224150641362527e-01 +5.9777093356618433e-03
3.6000000000000019e+00 +8.1646332766073080e+00 +0.0000000000000000e+00 +3.5999999750951899e+00 -3.1045205899431254e-02 -5.9224157520810206e-01 +5.9777036412274878e-03
3.7000000000000020e+00 +8.1646126201353777e+00 +0.0000000000000000e+00 +3.6999999729616073e+00 -3.1045290102665050e-02 -5.9224164546122338e-01 +5.9776985947596530e-03
3.8000000000000020e+00 +8.1645913977329574e+00 +0.0000000000000000e+00 +3.7999999707095222e+00 -3.1045383925900717e-02 -5.9224171634517853e-01 +5.9776942656258663e-03
3.9000000000000021e+00 +8.1645696093999813e+00 +0.0000000000000000e+00 +3.8999999683357314e+00 -3.1045488263786690e-02 -5.9224178703211094e-01 +5.9776907231896496e-03
4.0000000000000018e+00 +8.1645472551363820e+00 +0.0000000000000000e+00 +3.9999999658370324e+00 -3.1045604010979042e-02 -5.9224185669411411e-01 +5.9776880368102589e-03
4.1000000000000014e+00 +8.1645243349420937e+00 +0.0000000000000000e+00 +4.0999999632102222e+00 -3.1045731760375676e-02 -5.9224192470929982e-01 +5.9776862338508634e-03
4.2000000000000011e+00 +8.1645008488170525e+00 +0.0000000000000000e+00 +4.1999999604520983e+00 -3.1045870897812012e-02 -5.9224199128002641e-01 +5.9776851737049445e-03
4.3000000000000007e+00 +8.1644767967611944e+00 +0.0000000000000000e+00 +4.2999999575594581e+00 -3.1046020507350176e-02 -5.9224205681473796e-01 +5.9776846737739494e-03
4.4000000000000004e+00 +8.1644521787744591e+00 +0.0000000000000000e+00 +4.3999999545290986e+00 -3.1046179673043701e-02 -5.9224212172190260e-01 +5.9776845514594454e-03
4.5000000000000000e+00 +8.1644269948567842e+00 +0.0000000000000000e+00 +4.4999999513578164e+00 -3.1046347478936823e-02 -5.9224218641001602e-01 +5.9776846241631704e-03
4.5999999999999996e+00 +8.1644012450081096e+00 +0.0000000000000000e+00 +4.5999999480424094e+00 -3.1046523009063600e-02 -5.9224225128760222e-01 +5.9776847092871035e-03
4.6999999999999993e+00 +8.1643749292283729e+00 +0.0000000000000000e+00 +4.6999999445796750e+00 -3.1046705347447294e-02 -5.9224231676321759e-01 +5.9776846242335091e-03
4.7999999999999989e+00 +8.1643480475175139e+00 +0.0000000000000000e+00 +4.7999999409664094e+00 -3.1046893578099574e-02 -5.9224238324545120e-01 +5.9776841864050091e-03
4.8999999999999986e+00 +8.1643205998754684e+00 +0.0000000000000000e+00 +4.8999999371994107e+00 -3.1047086785019801e-02 -5.9224245114292962e-01 +5.9776832132046424e-03
4.9999999999999982e+00 +8.1642925863021727e+00 +0.0000000000000000e+00 +4.9999999332754754e+00 -3.1047284052194240e-02 -5.9224252086431606e-01 +5.9776815220359174e-03
5.0999999999999979e+00 +8.1642640067975609e+00 +0.0000000000000000e+00 +5.0999999291914015e+00 -3.1047484463595374e-02 -5.9224259281831582e-01 +5.9776789303028757e-03
5.1999999999999975e+00 +8.1642348613615656e+00 +0.0000000000000000e+00 +5.1999999249439854e+00 -3.1047687103181124e-02 -5.9224266741367670e-01 +5.9776752554101592e-03
5.2999999999999972e+00 +8.1642051499941175e+00 +0.0000000000000000e+00 +5.2999999205300252e+00 -3.1047891054894146e-02 -5.9224274505919228e-01 +5.9776703147630568e-03
5.3999999999999968e+00 +8.1641748726951420e+00 +0.0000000000000000e+00 +5.3999999159463172e+00 -3.1048095402661048e-02 -5.9224282616370238e-01 +5.9776639257675714e-03
5.4999999999999964e+00 +8.1641440294645626e+00 +0.0000000000000000e+00 +5.4999999111896596e+00 -3.1048299230391704e-02 -5.9224291113609906e-01 +5.9776559058304845e-03
5.5999999999999961e+00 +8.1641126203022996e+00 +0.0000000000000000e+00 +5.5999999062568486e+00 -3.1048501621978475e-02 -5.9224300038532418e-01 +5.9776460723594080e-03
5.6999999999999957e+00 +8.1640806452082675e+00 +0.0000000000000000e+00 +5.6999999011446816e+00 -3.1048701661295482e-02 -5.9224309432037558e-01 +5.9776342427628470e-03
5.7999999999999954e+00 +8.1640481041823776e+00 +0.0000000000000000e+00 +5.7999998958499566e+00 -3.1048898432197925e-02 -5.9224319335030784e-01 +5.9776202344502668e-03
5.8999999999999950e+00 +8.1640149972245375e+00 +0.0000000000000000e+00 +5.8999998903694699e+00 -3.1049091018521241e-02 -5.9224329788423402e-01 +5.9776038648321362e-03
5.9999999999999947e+00 +8.1639813243346477e+00 +0.0000000000000000e+00 +5.9999998847000189e+00 -3.1049278504080510e-02 -5.9224340833132960e-01 +5.9775849513200204e-03
6.0999999999999943e+00 +8.1639470855126035e+00 +0.0000000000000000e+00 +6.0999998788384007e+00 -3.1049460167646949e-02 -5.9224352503179356e-01 +5.9775633846154193e-03
6.1999999999999940e+00 +8.1639122807582947e+00 +0.0000000000000000e+00 +6.1999998727814125e+00 -3.1049636067893738e-02 -5.9224364804971086e-01 +5.9775393485781026e-03
6.2999999999999936e+00 +8.1638769100716058e+00 +0.0000000000000000e+00 +6.2999998665258516e+00 -3.1049806458482827e-02 -5.9224377738013179e-01 +5.9775131003605170e-03
6.3999999999999932e+00 +8.1638409734524142e+00 +0.0000000000000000e+00 +6.3999998600685153e+00 -3.1049971593089632e-02 -5.9224391301810664e-01 +5.9774848971187707e-03
6.4999999999999929e+00 +8.1638044709005904e+00 +0.0000000000000000e+00 +6.4999998534061998e+00 -3.1050131725403829e-02 -5.9224405495868648e-01 +5.9774549960128105e-03
6.5999999999999925e+00 +8.1637674024159992e+00 +0.0000000000000000e+00 +6.5999998465357033e+00 -3.1050287109129937e-02 -5.9224420319692084e-01 +5.9774236542065526e-03
6.6999999999999922e+00 +8.1637297679985021e+00 +0.0000000000000000e+00 +6.6999998394538229e+00 -3.1050437997988081e-02 -5.9224435772785855e-01 +5.9773911288680407e-03
6.7999999999999918e+00 +8.1636915676479518e+00 +0.0000000000000000e+00 +6.7999998321573552e+00 -3.1050584645714554e-02 -5.9224451854654747e-01 +5.9773576771695912e-03
6.8999999999999915e+00 +8.1636528013641954e+00 +0.0000000000000000e+00 +6.8999998246430980e+00 -3.1050727306062564e-02 -5.9224468564803223e-01 +5.9773235562879451e-03
6.9999999999999911e+00 +8.1636134691470748e+00 +0.0000000000000000e+00 +6.9999998169078479e+00 -3.1050866232802902e-02 -5.9224485902735657e-01 +5.9772890234044184e-03
7.0999999999999908e+00 +8.1635735709964266e+00 +0.0000000000000000e+00 +7.0999998089484020e+00 -3.1051001679724570e-02 -5.9224503867956102e-01 +5.9772543357050484e-03
7.1999999999999904e+00 +8.1635331069120785e+00 +0.0000000000000000e+00 +7.1999998007615575e+00 -3.1051133900635505e-02 -5.9224522459968310e-01 +5.9772197503807504e-03
7.2999999999999901e+00 +8.1634920768938546e+00 +0.0000000000000000e+00 +7.2999997923441118e+00 -3.1051263149363181e-02 -5.9224541678275666e-01 +5.9771855246274503e-03
7.3999999999999897e+00 +8.1634504809415738e+00 +0.0000000000000000e+00 +7.3999997836928619e+00 -3.1051389679755358e-02 -5.9224561522381192e-01 +5.9771519156462611e-03
7.4999999999999893e+00 +8.1634083190550477e+00 +0.0000000000000000e+00 +7.4999997748046043e+00 -3.1051513745680683e-02 -5.9224581991787473e-01 +5.9771191806435985e-03
7.5999999999999890e+00 +8.1633655912340810e+00 +0.0000000000000000e+00 +7.5999997656761371e+00 -3.1051635601029373e-02 -5.9224603085996652e-01 +5.9770875768313594e-03
7.6999999999999886e+00 +8.1633222974784729e+00 +0.0000000000000000e+00 +7.6999997563042566e+00 -3.1051755499713906e-02 -5.9224624804510317e-01 +5.9770573614270532e-03
7.7999999999999883e+00 +8.1632784377880192e+00 +0.0000000000000000e+00 +7.7999997466857600e+00 -3.1051873695669672e-02 -5.9224647146829568e-01 +5.9770287916539608e-03
7.8999999999999879e+00 +8.1632340121625067e+00 +0.0000000000000000e+00 +7.8999997368174455e+00 -3.1051990442855604e-02 -5.9224670112454791e-01 +5.9770021247412689e-03
7.9999999999999876e+00 +8.1631890206017168e+00 +0.0000000000000000e+00 +7.9999997266961085e+00 -3.1052105995254934e-02 -5.9224693700885933e-01 +5.9769776179242383e-03
8.0999999999999872e+00 +8.1631434631054276e+00 +0.0000000000000000e+00 +8.0999997163185480e+00 -3.1052220594482975e-02 -5.9224717892912082e-01 +5.9769554454096275e-03
8.1999999999999869e+00 +8.1630973396734081e+00 +0.0000000000000000e+00 +8.1999997056815594e+00 -3.1052334432587470e-02 -5.9224742594480817e-01 +5.9769354492634876e-03
8.2999999999999865e+00 +8.1630506503054239e+00 +0.0000000000000000e+00 +8.2999996947819401e+00 -3.1052447689188557e-02 -5.9224767692828095e-01 +5.9769173885068951e-03
8.3999999999999861e+00 +8.1630033950012368e+00 +0.0000000000000000e+00 +8.3999996836164872e+00 -3.1052560543865064e-02 -5.9224793075188542e-01 +5.9769010221503178e-03
8.4999999999999858e+00 +8.1629555737606054e+00 +0.0000000000000000e+00 +8.4999996721819979e+00 -3.1052673176153137e-02 -5.9224818628795539e-01 +5.9768861091932472e-03
8.5999999999999854e+00 +8.1629071865832881e+00 +0.0000000000000000e+00 +8.5999996604752695e+00 -3.1052785765544971e-02 -5.9224844240880858e-01 +5.9768724086238529e-03
8.6999999999999851e+00 +8.1628582334690414e+00 +0.0000000000000000e+00 +8.6999996484930993e+00 -3.1052898491487402e-02 -5.9224869798674906e-01 +5.9768596794186248e-03
8.7999999999999847e+00 +8.1628087144176220e+00 +0.0000000000000000e+00 +8.7999996362322825e+00 -3.1053011533380661e-02 -5.9224895189406535e-01 +5.9768476805420155e-03
8.8999999999999844e+00 +8.1627586294287884e+00 +0.0000000000000000e+00 +8.8999996236896184e+00 -3.1053125070576941e-02 -5.9224920300302930e-01 +5.9768361709460838e-03
8.9999999999999840e+00 +8.1627079785023042e+00 +0.0000000000000000e+00 +8.9999996108619023e+00 -3.1053239282379134e-02 -5.9224945018589670e-01 +5.9768249095701453e-03
9.0999999999999837e+00 +8.1626567616379351e+00 +0.0000000000000000e+00 +9.0999995977459314e+00 -3.1053354348039460e-02 -5.9224969231490610e-01 +5.9768136553404053e-03
9.1999999999999833e+00 +8.1626049788354500e+00 +0.0000000000000000e+00 +9.1999995843385030e+00 -3.1053470446758137e-02 -5.9224992826227818e-01 +5.9768021671696174e-03
9.2999999999999829e+00 +8.1625526300946252e+00 +0.0000000000000000e+00 +9.2999995706364160e+00 -3.1053587757682084e-02 -5.9225015690021543e-01 +5.9767902039567231e-03
9.3999999999999826e+00 +8.1624997154152439e+00 +0.0000000000000000e+00 +9.3999995566364642e+00 -3.1053706459903532e-02 -5.9225037710090178e-01 +5.9767775245865009e-03
9.4999999999999822e+00 +8.1624462347970983e+00 +0.0000000000000000e+00 +9.4999995423354466e+00 -3.1053826732458743e-02 -5.9225058773650130e-01 +5.9767638879292028e-03
9.5999999999999819e+00 +8.1623921882399895e+00 +0.0000000000000000e+00 +9.5999995277301604e+00 -3.1053948754326627e-02 -5.9225078767915851e-01 +5.9767490528402105e-03
9.6999999999999815e+00 +8.1623375757437273e+00 +0.0000000000000000e+00 +9.6999995128174028e+00 -3.1054072704427428e-02 -5.9225097580099706e-01 +5.9767327781596767e-03
9.7999999999999812e+00 +8.1622823973081342e+00 +0.0000000000000000e+00 +9.7999994975939693e+00 -3.1054198761621410e-02 -5.9225115097411951e-01 +5.9767148227121729e-03
9.8999999999999808e+00 +8.1622266529330432e+00 +0.0000000000000000e+00 +9.8999994820566570e+00 -3.1054327104707506e-02 -5.9225131207060699e-01 +5.9766949453063378e-03
9.9999999999999805e+00 +8.1621703426183050e+00 +0.0000000000000000e+00 +9.9999994662022651e+00 -3.1054457912421965e-02 -5.9225145796251810e-01 +5.9766729047345145e-03
1.0099999999999980e+01 +8.1621134663637793e+00 +0.0000000000000000e+00 +1.0099999450027589e+01 -3.1054591344727909e-02 -5.9225158801381528e-01 +5.9766485233553098e-03
1.0199999999999980e+01 +8.1620560241693454e+00 +0.0000000000000000e+00 +1.0199999433529426e+01 -3.1054727486712796e-02 -5.9225170355617873e-01 +5.9766218778550123e-03
1.0299999999999979e+01 +8.1619980160348931e+00 +0.0000000000000000e+00 +1.0299999416704573e+01 -3.1054866404764153e-02 -5.9225180641322228e-01 +5.9765931085125719e-03
1.0399999999999979e+01 +8.1619394419603264e+00 +0.0000000000000000e+00 +1.0399999399549827e+01 -3.1055008165286765e-02 -5.9225189840854930e-01 +5.9765623556171906e-03
1.0499999999999979e+01 +8.1618803019455601e+00 +0.0000000000000000e+00 +1.0499999382061986e+01 -3.1055152834703340e-02 -5.9225198136575430e-01 +5.9765297594686177e-03
1.0599999999999978e+01 +8.1618205959905161e+00 +0.0000000000000000e+00 +1.0599999364237846e+01 -3.1055300479455289e-02 -5.9225205710842321e-01 +5.9764954603774836e-03
1.0699999999999978e+01 +8.1617603240951233e+00 +0.0000000000000000e+00 +1.0699999346074204e+01 -3.1055451166003334e-02 -5.9225212746013145e-01 +5.9764595986655658e-03
1.0799999999999978e+01 +8.1616994862593160e+00 +0.0000000000000000e+00 +1.0799999327567857e+01 -3.1055604960828244e-02 -5.9225219424444575e-01 +5.9764223146661312e-03
1.0899999999999977e+01 +8.1616380824830337e+00 +0.0000000000000000e+00 +1.0899999308715604e+01 -3.1055761930431559e-02 -5.9225225928492220e-01 +5.9763837487242059e-03
1.0999999999999977e+01 +8.1615761127662143e+00 +0.0000000000000000e+00 +1.0999999289514239e+01 -3.1055922141336255e-02 -5.9225232440510711e-01 +5.9763440411969163e-03
1.1099999999999977e+01 +8.1615135771087992e+00 +0.0000000000000000e+00 +1.1099999269960561e+01 -3.1056085660087444e-02 -5.9225239142853625e-01 +5.9763033324537525e-03
1.1199999999999976e+01 +8.1614504755107244e+00 +0.0000000000000000e+00 +1.1199999250051366e+01 -3.1056252553253064e-02 -5.9225246217873506e-01 +5.9762617628769058e-03
1.1299999999999976e+01 +8.1613868079719261e+00 +0.0000000000000000e+00 +1.1299999229783454e+01 -3.1056422887424644e-02 -5.9225253847921822e-01 +5.9762194728615594e-03
1.1399999999999975e+01 +8.1613225744923312e+00 +0.0000000000000000e+00 +1.1399999209153618e+01 -3.1056596729217890e-02 -5.9225262215348984e-01 +5.9761766028161847e-03
1.1499999999999975e+01 +8.1612577750718636e+00 +0.0000000000000000e+00 +1.1499999188158657e+01 -3.1056774145273493e-02 -5.9225271502504295e-01 +5.9761332931628566e-03
1.1599999999999975e+01 +8.1611924097104342e+00 +0.0000000000000000e+00 +1.1599999166795369e+01 -3.1056955202257760e-02 -5.9225281891735893e-01 +5.9760896843375462e-03
1.1699999999999974e+01 +8.1611264784079474e+00 +0.0000000000000000e+00 +1.1699999145060550e+01 -3.1057139966863333e-02 -5.9225293565390791e-01 +5.9760459167904302e-03
1.1799999999999974e+01 +8.1610599811642928e+00 +0.0000000000000000e+00 +1.1799999122950997e+01 -3.1057328505809893e-02 -5.9225306705814884e-01 +5.9760021309861917e-03
