# multipoles
# s[mm] polynom_b[n=0][T/m^n] polynom_b[n=1][T/m^n] polynom_b[n=2][T/m^n] polynom_b[n=3][T/m^n] polynom_b[n=4][T/m^n] polynom_b[n=5][T/m^n] polynom_b[n=6][T/m^n] 
-0.0000000000000000e+00 -5.6485308635384934e-01 +7.7326241694962459e+00 -4.1466813117303436e-01 -2.2954357083064860e+01 +4.2574896883892970e+03 -6.2618782621761369e+04 -2.9174120165797930e+07 
-1.0000000000000001e-01 -5.6485300266260574e-01 +7.7326504100860234e+00 -4.2786446300765146e-01 -2.3268243411572580e+01 +4.4284221733142958e+03 -6.1757403182287257e+04 -2.9795219113279916e+07 
-2.0000000000000001e-01 -5.6485293441259266e-01 +7.7326782721604825e+00 -4.4070868824893633e-01 -2.3589106173740291e+01 +4.5922394172471295e+03 -6.0945420856410070e+04 -3.0373931658840947e+07 
-2.9999999999999999e-01 -5.6485288135491341e-01 +7.7327077447998454e+00 -4.5320135108046178e-01 -2.3918295857379587e+01 +4.7492505864815030e+03 -6.0173261275007142e+04 -3.0912986162087154e+07 
-4.0000000000000002e-01 -5.6485284324061624e-01 +7.7327388170853890e+00 -4.6534299853796496e-01 -2.4257162999492230e+01 +4.8997649090960467e+03 -5.9431349837679940e+04 -3.1415111291718099e+07 
-5.0000000000000000e-01 -5.6485281982083013e-01 +7.7327714780947492e+00 -4.7713417492680732e-01 -2.4607058030650940e+01 +5.0440915620995911e+03 -5.8710112645589405e+04 -3.1883035469377168e+07 
-5.9999999999999998e-01 -5.6485281084664885e-01 +7.7328057169088193e+00 -4.8857542622035793e-01 -2.4969331505326824e+01 +5.1825397598263708e+03 -5.7999975061700658e+04 -3.2319487304982621e+07 
-6.9999999999999996e-01 -5.6485281606915727e-01 +7.7328415226019898e+00 -4.9966729605462035e-01 -2.5345333786369540e+01 +5.3154186730765050e+03 -5.7291363618329488e+04 -3.2727195199526969e+07 
-8.0000000000000004e-01 -5.6485283523948060e-01 +7.7328788842526350e+00 -5.1041033120366675e-01 -2.5736415387834409e+01 +5.4430375399169316e+03 -5.6574703889304001e+04 -3.3108887890016388e+07 
-9.0000000000000002e-01 -5.6485286810871260e-01 +7.7329177909323992e+00 -5.2080507872139825e-01 -2.6143926635335088e+01 +5.5657056044894380e+03 -5.5840422525936425e+04 -3.3467294141552363e+07 
-1.0000000000000000e+00 -5.6485291442796803e-01 +7.7329582317160002e+00 -5.3085208042667742e-01 -2.6569217976225715e+01 +5.6837320169512977e+03 -5.5078945363863473e+04 -3.3805142283672869e+07 
-1.1000000000000001e+00 -5.6485297394838696e-01 +7.7330001956701091e+00 -5.4055188223240835e-01 -2.7013639645359994e+01 +5.7974260098614004e+03 -5.4280699374825526e+04 -3.4125161048326783e+07 
-1.2000000000000000e+00 -5.6485304642109624e-01 +7.7330436718596456e+00 -5.4990502829490484e-01 -2.7478541858854680e+01 +5.9070967839523109e+03 -5.3436111492790660e+04 -3.4430079018692739e+07 
-1.3000000000000000e+00 -5.6485313159719053e-01 +7.7330886493458051e+00 -5.5891206360497359e-01 -2.7965274750886252e+01 +6.0130535600981448e+03 -5.2535608974243769e+04 -3.4722624884344168e+07 
-1.3999999999999999e+00 -5.6485322922786307e-01 +7.7331351171922185e+00 -5.6757353193342364e-01 -2.8475188567732999e+01 +6.1156055415596502e+03 -5.1569618201432197e+04 -3.5005527264333040e+07 
-1.5000000000000000e+00 -5.6485333906416613e-01 +7.7331830644471511e+00 -5.7588997721328405e-01 -2.9009633138876833e+01 +6.2150619382974401e+03 -5.0528567788550128e+04 -3.5281514820510119e+07 
-1.6000000000000001e+00 -5.6485346085731547e-01 +7.7332324801649603e+00 -5.8386194044103279e-01 -2.9569958512055159e+01 +6.3117319061572680e+03 -4.9402884813273864e+04 -3.5553315961241558e+07 
-1.7000000000000000e+00 -5.6485359435844662e-01 +7.7332833533869643e+00 -5.9148996604813753e-01 -3.0157514396834650e+01 +6.4059246728609469e+03 -4.8182998047115339e+04 -3.5823659456133269e+07 
-1.8000000000000000e+00 -5.6485373931872040e-01 +7.7333356731549019e+00 -5.9877459524065457e-01 -3.0773650562010925e+01 +6.4979494068322838e+03 -4.6859335604427324e+04 -3.6095273799482666e+07 
-1.8999999999999999e+00 -5.6485389548927001e-01 +7.7333894285026457e+00 -6.0571636927629047e-01 -3.1419716593822560e+01 +6.5881152824161127e+03 -4.5422326327755902e+04 -3.6370887528901629e+07 
-2.0000000000000000e+00 -5.6485406262128735e-01 +7.7334446084577477e+00 -6.1231582917480654e-01 -3.2097061935554201e+01 +6.6767314728861011e+03 -4.3862399553306546e+04 -3.6653229188254610e+07 
-2.1000000000000001e+00 -5.6485424038272014e-01 +7.7335011610867328e+00 -6.1857331121981174e-01 -3.2806182831093516e+01 +6.7640152344465669e+03 -4.2173197773035921e+04 -3.6944284165628031e+07 
-2.2000000000000002e+00 -5.6485442810893038e-01 +7.7335588668000996e+00 -6.2448772342869585e-01 -3.3544002749012037e+01 +6.8498033094108760e+03 -4.0362382191600460e+04 -3.7243014611240566e+07 
-2.2999999999999998e+00 -5.6485462505228767e-01 +7.7336174631264702e+00 -6.3005745876280084e-01 -3.4306511727654950e+01 +6.9338339216505829e+03 -3.8441409663887804e+04 -3.7547613043278933e+07 
-2.3999999999999999e+00 -5.6485483046511109e-01 +7.7336766875870593e+00 -6.3528091193488834e-01 -3.5089699612099608e+01 +7.0158453217363267e+03 -3.6421738051979446e+04 -3.7856272097083628e+07 
-2.5000000000000000e+00 -5.6485504359970862e-01 +7.7337362777075738e+00 -6.4015647468306713e-01 -3.5889556365381658e+01 +7.0955756967367724e+03 -3.4314824517402085e+04 -3.8167184094860427e+07 
-2.6000000000000001e+00 -5.6485526370840167e-01 +7.7337959710079174e+00 -6.4468254300333550e-01 -3.6702071795261993e+01 +7.1727633059728832e+03 -3.2132127045430025e+04 -3.8478541688306041e+07 
-2.7000000000000002e+00 -5.6485549004348845e-01 +7.7338555050104514e+00 -6.4885751022106164e-01 -3.7523235757997867e+01 +7.2471463430663389e+03 -2.9885103351897254e+04 -3.8788537185910337e+07 
-2.7999999999999998e+00 -5.6485572185722732e-01 +7.7339146172343138e+00 -6.5267977020412704e-01 -3.8349038031475466e+01 +7.3184630044494033e+03 -2.7585211536653565e+04 -3.9095362899991922e+07 
-2.8999999999999999e+00 -5.6485595840191394e-01 +7.7339730451987725e+00 -6.5614771754736700e-01 -3.9175468372169732e+01 +7.3864514872808295e+03 -2.5243909859690652e+04 -3.9397211123414896e+07 
-3.0000000000000000e+00 -5.6485619892978955e-01 +7.7340305264206632e+00 -6.5925974810454768e-01 -3.9998516463325998e+01 +7.4508499970619096e+03 -2.2872656985720769e+04 -3.9692274157255381e+07 
-3.1000000000000001e+00 -5.6485644269306667e-01 +7.7340867984198587e+00 -6.6201425610520781e-01 -4.0814172052249603e+01 +7.5113966950390832e+03 -2.0482911248927128e+04 -3.9978744070746534e+07 
-3.2000000000000002e+00 -5.6485668894397012e-01 +7.7341415987127311e+00 -6.6440963930603758e-01 -4.1618424773742731e+01 +7.5678297924966209e+03 -1.8086131655176701e+04 -4.0254813138048463e+07 
-3.2999999999999998e+00 -5.6485693693470551e-01 +7.7341946648171405e+00 -6.6644429210554890e-01 -4.2407264279670976e+01 +7.6198874202796314e+03 -1.5693777161862336e+04 -4.0518673221104376e+07 
-3.3999999999999999e+00 -5.6485718591739764e-01 +7.7342457342522897e+00 -6.6811661318071602e-01 -4.3176680240134438e+01 +7.6673077712114218e+03 -1.3317306674503130e+04 -4.0768516439707443e+07 
-3.5000000000000000e+00 -5.6485743514423115e-01 +7.7342945445351567e+00 -6.6942499871173089e-01 -4.3922662236015547e+01 +7.7098289735019926e+03 -1.0968179677708276e+04 -4.1002534576404326e+07 
-3.6000000000000001e+00 -5.6485768386732538e-01 +7.7343408331854384e+00 -6.7036784681891604e-01 -4.4641199891616196e+01 +7.7471891708493440e+03 -8.6578555032695258e+03 -4.1218919447154582e+07 
-3.7000000000000002e+00 -5.6485793133873863e-01 +7.7343843377215382e+00 -6.7094355703448627e-01 -4.5328282768653253e+01 +7.7791265109307578e+03 -6.3977939184384331e+03 -4.1415862842693880e+07 
-3.7999999999999998e+00 -5.6485817681057771e-01 +7.7344247956685210e+00 -6.7115052722215662e-01 -4.5979900576290625e+01 +7.8053790888656640e+03 -4.1994539783199371e+03 -4.1591556266769454e+07 
-3.8999999999999999e+00 -5.6485841953483606e-01 +7.7344619445440665e+00 -6.7098715958593991e-01 -4.6592042784993225e+01 +7.8256850584413241e+03 -2.0742961936231904e+03 -4.1744191456981629e+07 
-4.0000000000000000e+00 -5.6485865876358410e-01 +7.7344955218733427e+00 -6.7045185386180151e-01 -4.7160699026098740e+01 +7.8397824979842371e+03 -3.3780339162760498e+01 -4.1871959736452483e+07 
-4.0999999999999996e+00 -5.6485889398325606e-01 +7.7345253158098606e+00 -6.6954761111829653e-01 -4.7682535213059765e+01 +7.8475042477390853e+03 +1.9120222668803935e+03 -4.1973485762349106e+07 
-4.2000000000000002e+00 -5.6485912561502805e-01 +7.7345513265808972e+00 -6.6829771731389997e-01 -4.8156984955097570e+01 +7.8490903834393439e+03 +3.7588076426756138e+03 -4.2049213537171043e+07 
-4.2999999999999998e+00 -5.6485935431289336e-01 +7.7345736098682192e+00 -6.6673102259145278e-01 -4.8584188887606317e+01 +7.8448900491687828e+03 +5.5037558572557537e+03 -4.2100064204842292e+07 
-4.4000000000000004e+00 -5.6485958073085418e-01 +7.7345922213526901e+00 -6.6487637268009048e-01 -4.8964287581203614e+01 +7.8352523047207333e+03 +7.1440463550361310e+03 -4.2126958509653561e+07 
-4.5000000000000000e+00 -5.6485980552286386e-01 +7.7346072167263902e+00 -6.6276261871039166e-01 -4.9297421913022362e+01 +7.8205263073397819e+03 +8.6768601658343123e+03 -4.2130817649244763e+07 
-4.5999999999999996e+00 -5.6486002934284874e-01 +7.7346186516812834e+00 -6.6041861143455349e-01 -4.9583732710177649e+01 +7.8010612024600687e+03 +1.0099377730396172e+04 -4.2112562753787771e+07 
-4.7000000000000002e+00 -5.6486025284482533e-01 +7.7346265819152054e+00 -6.5787319728969040e-01 -4.9823360945711542e+01 +7.7772060548322870e+03 +1.1408780105519782e+04 -4.2073114577269368e+07 
-4.7999999999999998e+00 -5.6486047668268169e-01 +7.7346310631368942e+00 -6.5515523501641360e-01 -5.0016447863759822e+01 +7.7493101587772780e+03 +1.2602249611426907e+04 -4.2013394954871751e+07 
-4.9000000000000004e+00 -5.6486070151037870e-01 +7.7346321510555764e+00 -6.5229357044861658e-01 -5.0163134695978137e+01 +7.7177225604002379e+03 +1.3676968229868640e+04 -4.1934324535479024e+07 
-5.0000000000000000e+00 -5.6486092798183596e-01 +7.7346299013863700e+00 -6.4931706168918690e-01 -5.0263562794911543e+01 +7.6827925387973237e+03 +1.4630118308167905e+04 -4.1836825076222338e+07 
-5.0999999999999996e+00 -5.6486115675094817e-01 +7.7346243698582953e+00 -6.4625456268315640e-01 -5.0317873887650975e+01 +7.6448692918259831e+03 +1.5458884069054793e+04 -4.1721817944313534e+07 
-5.2000000000000002e+00 -5.6486138847166778e-01 +7.7346156121977119e+00 -6.4313492740071587e-01 -5.0326209572599282e+01 +7.6043020174314624e+03 +1.6160448630582678e+04 -4.1590224505424492e+07 
-5.2999999999999998e+00 -5.6486162379788085e-01 +7.7346036841485573e+00 -6.3998701446637618e-01 -5.0288711915217817e+01 +7.5614400012407086e+03 +1.6731997464531098e+04 -4.1442966541756667e+07 
-5.4000000000000004e+00 -5.6486186338350708e-01 +7.7345886414544927e+00 -6.3683967861334301e-01 -5.0205522933989862e+01 +7.5166324545664493e+03 +1.7170715422266308e+04 -4.1280965479780771e+07 
-5.5000000000000000e+00 -5.6486210788237590e-01 +7.7345705398693774e+00 -6.3372178212246333e-01 -5.0076784887353554e+01 +7.4702287305764075e+03 +1.7473788338482576e+04 -4.1105143417470798e+07 
-5.5999999999999996e+00 -5.6486235794841766e-01 +7.7345494351578665e+00 -6.3066218244954197e-01 -4.9902640301501840e+01 +7.4225780950134586e+03 +1.7638403211050223e+04 -4.0916422046824843e+07 
-5.7000000000000002e+00 -5.6486261423547102e-01 +7.7345253830924054e+00 -6.2768974112038045e-01 -4.9683231884548611e+01 +7.3740298875937924e+03 +1.7661747699668904e+04 -4.0715723402748041e+07 
-5.7999999999999998e+00 -5.6486287739742014e-01 +7.7344984394518761e+00 -6.2483332144933190e-01 -4.9418702472912301e+01 +7.3249334827992534e+03 +1.7541009762319867e+04 -4.0503969685028374e+07 
-5.9000000000000004e+00 -5.6486314808813576e-01 +7.7344686600258106e+00 -6.2212178571003585e-01 -4.9109195154652433e+01 +7.2756382410936958e+03 +1.7273378364096545e+04 -4.0282083041264445e+07 
-5.9999999999999902e+00 -5.6486342696146163e-01 +7.7344361006152011e+00 -6.1958399906102635e-01 -4.8754853294120423e+01 +7.2264935749016158e+03 +1.6856043624697522e+04 -4.0050985857748121e+07 
-6.0999999999999899e+00 -5.6486371464815854e-01 +7.7344008663960171e+00 -6.1723725429933618e-01 -4.8356776549664509e+01 +7.1777316661429977e+03 +1.6290223594990892e+04 -3.9811352923463508e+07 
-6.1999999999999904e+00 -5.6486401169166445e-01 +7.7343632565552758e+00 -6.1505386147373053e-01 -4.7920200490977955e+01 +7.1291424445482635e+03 +1.5595605812943750e+04 -3.9562976162656173e+07 
-6.2999999999999901e+00 -5.6486431861489039e-01 +7.7343236180042378e+00 -6.1299518398320807e-01 -4.7451474008429642e+01 +7.0804123676783465e+03 +1.4797085724554739e+04 -3.9305457837458931e+07 
-6.3999999999999897e+00 -5.6486463594086400e-01 +7.7342822976400969e+00 -6.1102258371302465e-01 -4.6956945668396301e+01 +7.0312278862943604e+03 +1.3919557202999578e+04 -3.9038400220189378e+07 
-6.4999999999999902e+00 -5.6486496419254950e-01 +7.7342396423522519e+00 -6.0909741561585840e-01 -4.6442963900518912e+01 +6.9812753472250670e+03 +1.2987913688310691e+04 -3.8761405151592888e+07 
-6.5999999999999899e+00 -5.6486530389308165e-01 +7.7341959990070297e+00 -6.0718103415369651e-01 -4.5915876554750284e+01 +6.9302411144933185e+03 +1.2027045629831358e+04 -3.8474074610332027e+07 
-6.6999999999999904e+00 -5.6486565556563040e-01 +7.7341517144629064e+00 -6.0523478827414146e-01 -4.5382031341194619e+01 +6.8778114726987787e+03 +1.1061843038111359e+04 -3.8176010251239464e+07 
-6.7999999999999901e+00 -5.6486601973331285e-01 +7.7341071355641224e+00 -6.0322002324127533e-01 -4.4847775659844054e+01 +6.8236726674464353e+03 +1.0117194547412664e+04 -3.7866813610504076e+07 
-6.8999999999999897e+00 -5.6486639691942564e-01 +7.7340626091331890e+00 -6.0109808224332673e-01 -4.4319456369067311e+01 +6.7675109333906939e+03 +9.2179860381585167e+03 -3.7546086234074593e+07 
-6.9999999999999902e+00 -5.6486678764730724e-01 +7.7340184819787909e+00 -5.9883030301604911e-01 -4.3803420043945280e+01 +6.7090124311302361e+03 +8.3891022260183345e+03 -3.7213429377378903e+07 
-7.0999999999999899e+00 -5.6486719244028605e-01 +7.7339751008969015e+00 -5.9637801815293756e-01 -4.3306012987190790e+01 +6.6478632585004179e+03 +7.6554266704461415e+03 -3.6868444072503634e+07 
-7.1999999999999904e+00 -5.6486761182178913e-01 +7.7339328126612337e+00 -5.9370255777906933e-01 -4.2833580979996917e+01 +6.5837494971468022e+03 +7.0418404177211605e+03 -3.6510731341714308e+07 
-7.2999999999999901e+00 -5.6486804631535070e-01 +7.7338919640281443e+00 -5.9076524644504691e-01 -4.2392469403200217e+01 +6.5163571573681002e+03 +6.5732226457383204e+03 -3.6139891938196823e+07 
-7.3999999999999897e+00 -5.6486849644454928e-01 +7.7338529017372277e+00 -5.8752740338537712e-01 -4.1989023279214514e+01 +6.4453721856152688e+03 +6.2744509873733523e+03 -3.5755526394838385e+07 
-7.4999999999999902e+00 -5.6486896273298515e-01 +7.7338159725094311e+00 -5.8395034560979275e-01 -4.1629587210888232e+01 +6.3704805206459332e+03 +6.1704011705175371e+03 -3.5357235278626099e+07 
-7.5999999999999899e+00 -5.6486944570439879e-01 +7.7337815230410856e+00 -5.7999538357018343e-01 -4.1320505215128605e+01 +6.2913680146257911e+03 +6.2859460686899320e+03 -3.4944618827011779e+07 
-7.6999999999999904e+00 -5.6486994588256001e-01 +7.7337499000142866e+00 -5.7562382170875659e-01 -4.1068121023924419e+01 +6.2077204454921703e+03 +6.6459574543858544e+03 -3.4517277008838817e+07 
-7.7999999999999901e+00 -5.6487046379139594e-01 +7.7337214500846274e+00 -5.7079695931979713e-01 -4.0878777739143679e+01 +6.1192235318008343e+03 +7.2753040448628208e+03 -3.4074809592669249e+07 
-7.8999999999999897e+00 -5.6487099995477930e-01 +7.7336965198921526e+00 -5.6547609314766534e-01 -4.0758818149239204e+01 +6.0255629854176277e+03 +8.1988533310735929e+03 -3.3616816403680861e+07 
-7.9999999999999902e+00 -5.6487155489674135e-01 +7.7336754560482452e+00 -5.5962251169934341e-01 -4.0714584383947773e+01 +5.9264243999054588e+03 +9.4414697176681093e+03 -3.3142896777086470e+07 
-8.0999999999999908e+00 -5.6487212881511417e-01 +7.7336585014476888e+00 -5.5321972845892087e-01 -4.0750373019440481e+01 +5.8217643986737685e+03 +1.1019279564602233e+04 -3.2653550528881695e+07 
-8.1999999999999904e+00 -5.6487272059293603e-01 +7.7336454786581070e+00 -5.4633584796344992e-01 -4.0861868580253123e+01 +5.7125370084936694e+03 +1.2910438846703022e+04 -3.2152518847518366e+07 
-8.2999999999999901e+00 -5.6487332878163055e-01 +7.7336361034374699e+00 -5.3905909226482707e-01 -4.1042489434356902e+01 +5.5999238462719559e+03 +1.5082853198542771e+04 -3.1644259946765222e+07 
-8.3999999999999897e+00 -5.6487395193256140e-01 +7.7336300915790943e+00 -5.3147768600394307e-01 -4.1285654876240116e+01 +5.4851065571167210e+03 +1.7504433392211842e+04 -3.1133232110572975e+07 
-8.4999999999999893e+00 -5.6487458859709305e-01 +7.7336271588949312e+00 -5.2367985966028141e-01 -4.1584784641014721e+01 +5.3692668799364619e+03 +2.0143092428577056e+04 -3.0623894011968974e+07 
-8.5999999999999908e+00 -5.6487523732647538e-01 +7.7336270212279263e+00 -5.1575384873357455e-01 -4.1933299270700587e+01 +5.2535866228745263e+03 +2.2966747700489595e+04 -3.0120704570279531e+07 
-8.6999999999999904e+00 -5.6487589667194116e-01 +7.7336293944487053e+00 -5.0778789661184820e-01 -4.2324620010011053e+01 +5.1392477249262056e+03 +2.5943320349160120e+04 -2.9628123264680021e+07 
-8.7999999999999794e+00 -5.6487656518467133e-01 +7.7336339944562544e+00 -4.9987024779451822e-01 -4.2752168803896886e+01 +5.0274321208146011e+03 +2.9040735193635133e+04 -2.9150609470827114e+07 
-8.8999999999999808e+00 -5.6487724141571782e-01 +7.7336405371829695e+00 -4.9208915760194072e-01 -4.3209368478978128e+01 +4.9193219292081922e+03 +3.2226921880150017e+04 -2.8692623370887984e+07 
-8.9999999999999805e+00 -5.6487792391614966e-01 +7.7336487385883315e+00 -4.8453288448143822e-01 -4.3689642523035111e+01 +4.8160993023599567e+03 +3.5469813500904784e+04 -2.8258625222100884e+07 
-9.0999999999999801e+00 -5.6487861123695304e-01 +7.7336583146653552e+00 -4.7728969157708656e-01 -4.4186415279468676e+01 +4.7189464567189225e+03 +3.8737347729793699e+04 -2.7853075508033302e+07 
-9.1999999999999797e+00 -5.6487930192898839e-01 +7.7336689814430031e+00 -4.7044785243441639e-01 -4.4693112017088083e+01 +4.6290457793108972e+03 +4.1997467237488876e+04 -2.7480435435779970e+07 
-9.2999999999999794e+00 -5.6487999454311555e-01 +7.7336804549788756e+00 -4.6409564552107568e-01 -4.5203158715407646e+01 +4.5475797250869246e+03 +4.5218118431791154e+04 -2.7145166453840211e+07 
-9.3999999999999808e+00 -5.6488068763008858e-01 +7.7336924513690208e+00 -4.5832135679583808e-01 -4.5709982334926103e+01 +4.4757308609732308e+03 +4.8367252984663799e+04 -2.6851730446691342e+07 
-9.4999999999999805e+00 -5.6488137974061636e-01 +7.7337046867441570e+00 -4.5321327609936318e-01 -4.6207010721303895e+01 +4.4146818030596132e+03 +5.1412827313165697e+04 -2.6604589452869933e+07 
-9.5999999999999801e+00 -5.6488206942523533e-01 +7.7337168772702203e+00 -4.4885970496129390e-01 -4.6687672593617663e+01 +4.3656153559739450e+03 +5.4322802436657323e+04 -2.6408206302613933e+07 
-9.6999999999999797e+00 -5.6488275523458398e-01 +7.7337287391524789e+00 -4.4534894765494798e-01 -4.7145397694635470e+01 +4.3297143475424191e+03 +5.7065144928052134e+04 -2.6267043843540315e+07 
-9.7999999999999794e+00 -5.6488343571904998e-01 +7.7337399886323617e+00 -4.4276931981858053e-01 -4.7573616655985894e+01 +4.3081617905589328e+03 +5.9607826009157994e+04 -2.6185565704962056e+07 
-9.8999999999999808e+00 -5.6488410942904055e-01 +7.7337503419935301e+00 -4.4120914265546918e-01 -4.7965761199231224e+01 +4.3021407715213827e+03 +6.1918822800698486e+04 -2.6168235765511043e+07 
-9.9999999999999805e+00 -5.6488477491485134e-01 +7.7337595155577645e+00 -4.4075674504589524e-01 -4.8315263982211675e+01 +4.3128344904362220e+03 +6.3966117260497114e+04 -2.6219518346986666e+07 
-1.0100000000000000e+01 -5.6488543107101175e-01 +7.7337672986533565e+00 -4.4147172867060136e-01 -4.8617287518271326e+01 +4.3410091051548925e+03 +6.5726305894647667e+04 -2.6342249300559018e+07 
