# field on trajectory
# s[mm] rx[mm] ry[mm] rz[mm] bx[T] by[T] bz[T]
0.0000000000000000e+00 +8.1530000000000005e+00 +0.0000000000000000e+00 +0.0000000000000000e+00 -3.0713036063031190e-02 -5.6473312960833466e-01 +5.6047500613387365e-03
1.0000000000000001e-01 +8.1529997163961507e+00 +0.0000000000000000e+00 +9.9999999999463796e-02 -3.0713158430011201e-02 -5.6473279244315555e-01 +5.6047162574163643e-03
2.0000000000000001e-01 +8.1529988655856904e+00 +0.0000000000000000e+00 +1.9999999999571000e-01 -3.0713266021760138e-02 -5.6473245780473713e-01 +5.6046855129251987e-03
2.9999999999999999e-01 +8.1529974475670297e+00 +0.0000000000000000e+00 +2.9999999998552201e-01 -3.0713359650264969e-02 -5.6473212696253350e-01 +5.6046577674216357e-03
4.0000000000000002e-01 +8.1529954623438208e+00 +0.0000000000000000e+00 +3.9999999996568297e-01 -3.0713440127510455e-02 -5.6473180118595834e-01 +5.6046329604623364e-03
5.0000000000000000e-01 +8.1529929099124292e+00 +0.0000000000000000e+00 +4.9999999993297400e-01 -3.0713508265483927e-02 -5.6473148174448462e-01 +5.6046110316053735e-03
5.9999999999999998e-01 +8.1529897902728408e+00 +0.0000000000000000e+00 +5.9999999988417896e-01 -3.0713564876170444e-02 -5.6473116990756156e-01 +5.6045919204095592e-03
6.9999999999999996e-01 +8.1529861034287006e+00 +0.0000000000000000e+00 +6.9999999981608096e-01 -3.0713610771552369e-02 -5.6473086694461527e-01 +5.6045755664346124e-03
8.0000000000000004e-01 +8.1529818493763706e+00 +0.0000000000000000e+00 +7.9999999972546199e-01 -3.0713646763613656e-02 -5.6473057412513672e-01 +5.6045619092422111e-03
9.0000000000000002e-01 +8.1529770281158598e+00 +0.0000000000000000e+00 +8.9999999960910604e-01 -3.0713673664334848e-02 -5.6473029271859843e-01 +5.6045508883952964e-03
1.0000000000000000e+00 +8.1529716396507901e+00 +0.0000000000000000e+00 +9.9999999946379403e-01 -3.0713692285692807e-02 -5.6473002399445582e-01 +5.6045424434582481e-03
1.1000000000000001e+00 +8.1529656839775306e+00 +0.0000000000000000e+00 +1.0999999992863101e+00 -3.0713703439664806e-02 -5.6472976922223428e-01 +5.6045365139979330e-03
1.2000000000000000e+00 +8.1529591610960797e+00 +0.0000000000000000e+00 +1.1999999990734400e+00 -3.0713707938223728e-02 -5.6472952967144585e-01 +5.6045330395830192e-03
1.3000000000000000e+00 +8.1529520710100805e+00 +0.0000000000000000e+00 +1.2999999988219599e+00 -3.0713706593337661e-02 -5.6472930661159104e-01 +5.6045319597841457e-03
1.3999999999999999e+00 +8.1529444137122500e+00 +0.0000000000000000e+00 +1.3999999985286500e+00 -3.0713700216975569e-02 -5.6472910131227472e-01 +5.6045332141752583e-03
1.5000000000000000e+00 +8.1529361892135093e+00 +0.0000000000000000e+00 +1.4999999981903001e+00 -3.0713689621094935e-02 -5.6472891504298062e-01 +5.6045367423314752e-03
1.6000000000000001e+00 +8.1529273975065699e+00 +0.0000000000000000e+00 +1.5999999978037001e+00 -3.0713675617656398e-02 -5.6472874907335613e-01 +5.6045424838321563e-03
1.7000000000000000e+00 +8.1529180385914497e+00 +0.0000000000000000e+00 +1.6999999973656199e+00 -3.0713659018612893e-02 -5.6472860467301644e-01 +5.6045503782590524e-03
1.8000000000000000e+00 +8.1529081124681397e+00 +0.0000000000000000e+00 +1.7999999968728499e+00 -3.0713640635912306e-02 -5.6472848311160218e-01 +5.6045603651970624e-03
1.8999999999999999e+00 +8.1528976191402798e+00 +0.0000000000000000e+00 +1.8999999963221601e+00 -3.0713621281495622e-02 -5.6472838565875483e-01 +5.6045723842341319e-03
2.0000000000000000e+00 +8.1528865586042194e+00 +0.0000000000000000e+00 +1.9999999957103500e+00 -3.0713601767301060e-02 -5.6472831358420128e-01 +5.6045863749622791e-03
2.1000000000000001e+00 +8.1528749308599799e+00 +0.0000000000000000e+00 +2.0999999950341901e+00 -3.0713582889484597e-02 -5.6472826765583684e-01 +5.6046022692397409e-03
2.2000000000000002e+00 +8.1528627359111905e+00 +0.0000000000000000e+00 +2.1999999942904802e+00 -3.0713565381096763e-02 -5.6472824663420962e-01 +5.6046199679781169e-03
2.2999999999999998e+00 +8.1528499737542006e+00 +0.0000000000000000e+00 +2.2999999934759798e+00 -3.0713549959412619e-02 -5.6472824877809102e-01 +5.6046393643520197e-03
2.3999999999999999e+00 +8.1528366443890299e+00 +0.0000000000000000e+00 +2.3999999925874800e+00 -3.0713537341702131e-02 -5.6472827234621936e-01 +5.6046603515347041e-03
2.5000000000000000e+00 +8.1528227478193003e+00 +0.0000000000000000e+00 +2.4999999916217801e+00 -3.0713528245230146e-02 -5.6472831559730008e-01 +5.6046828226977013e-03
2.6000000000000001e+00 +8.1528082840413791e+00 +0.0000000000000000e+00 +2.5999999905756401e+00 -3.0713523387260959e-02 -5.6472837679008703e-01 +5.6047066710113351e-03
2.7000000000000002e+00 +8.1527932530552807e+00 +0.0000000000000000e+00 +2.6999999894458502e+00 -3.0713523485053726e-02 -5.6472845418329520e-01 +5.6047317896434998e-03
2.7999999999999998e+00 +8.1527776548646198e+00 +0.0000000000000000e+00 +2.7999999882291999e+00 -3.0713529255862501e-02 -5.6472854603559908e-01 +5.6047580717593212e-03
2.8999999999999999e+00 +8.1527614894657692e+00 +0.0000000000000000e+00 +2.8999999869224702e+00 -3.0713541416940798e-02 -5.6472865060571509e-01 +5.6047854105216550e-03
3.0000000000000000e+00 +8.1527447568587394e+00 +0.0000000000000000e+00 +2.9999999855224302e+00 -3.0713560685536996e-02 -5.6472876615231449e-01 +5.6048136990898808e-03
3.1000000000000001e+00 +8.1527274570471508e+00 +0.0000000000000000e+00 +3.0999999840258798e+00 -3.0713587778894394e-02 -5.6472889093402101e-01 +5.6048428306195424e-03
3.2000000000000002e+00 +8.1527095900273707e+00 +0.0000000000000000e+00 +3.1999999824295902e+00 -3.0713623414255736e-02 -5.6472902320949347e-01 +5.6048726982628689e-03
3.2999999999999998e+00 +8.1526911557994008e+00 +0.0000000000000000e+00 +3.2999999807303602e+00 -3.0713668308858622e-02 -5.6472916123733941e-01 +5.6049031951675432e-03
3.3999999999999999e+00 +8.1526721543668792e+00 +0.0000000000000000e+00 +3.3999999789249502e+00 -3.0713723179935641e-02 -5.6472930327611159e-01 +5.6049342144763722e-03
3.5000000000000000e+00 +8.1526525857261696e+00 +0.0000000000000000e+00 +3.4999999770101602e+00 -3.0713788744718706e-02 -5.6472944758439192e-01 +5.6049656493277755e-03
3.6000000000000001e+00 +8.1526324498772702e+00 +0.0000000000000000e+00 +3.5999999749827598e+00 -3.0713865720434746e-02 -5.6472959242070331e-01 +5.6049973928545879e-03
3.7000000000000002e+00 +8.1526117468238208e+00 +0.0000000000000000e+00 +3.6999999728395401e+00 -3.0713954824305511e-02 -5.6472973604350851e-01 +5.6050293381836999e-03
3.7999999999999998e+00 +8.1525904765621799e+00 +0.0000000000000000e+00 +3.7999999705772902e+00 -3.0714056773552253e-02 -5.6472987671129138e-01 +5.6050613784365665e-03
3.8999999999999999e+00 +8.1525686390959908e+00 +0.0000000000000000e+00 +3.8999999681927799e+00 -3.0714172285389564e-02 -5.6473001268244249e-01 +5.6050934067277030e-03
4.0000000000000000e+00 +8.1525462344179704e+00 +0.0000000000000000e+00 +3.9999999656827998e+00 -3.0714302077033018e-02 -5.6473014221539874e-01 +5.6051253161657896e-03
4.0999999999999996e+00 +8.1525232625354001e+00 +0.0000000000000000e+00 +4.0999999630441302e+00 -3.0714446486388738e-02 -5.6473026386196079e-01 +5.6051570236318217e-03
4.2000000000000002e+00 +8.1524997234482708e+00 +0.0000000000000000e+00 +4.1999999602735496e+00 -3.0714604334169570e-02 -5.6473037734803488e-01 +5.6051885411254583e-03
4.2999999999999998e+00 +8.1524756171529607e+00 +0.0000000000000000e+00 +4.2999999573678496e+00 -3.0714774061808326e-02 -5.6473048269307169e-01 +5.6052199044286039e-03
4.4000000000000004e+00 +8.1524509436494608e+00 +0.0000000000000000e+00 +4.3999999543238104e+00 -3.0714954110758724e-02 -5.6473057991649267e-01 +5.6052511493252435e-03
4.5000000000000000e+00 +8.1524257029377605e+00 +0.0000000000000000e+00 +4.4999999511382098e+00 -3.0715142922498398e-02 -5.6473066903772084e-01 +5.6052823116019661e-03
4.5999999999999996e+00 +8.1523998950215208e+00 +0.0000000000000000e+00 +4.5999999478078299e+00 -3.0715338938528729e-02 -5.6473075007615114e-01 +5.6053134270479055e-03
4.7000000000000002e+00 +8.1523735198970808e+00 +0.0000000000000000e+00 +4.6999999443294600e+00 -3.0715540600380967e-02 -5.6473082305123767e-01 +5.6053445314558376e-03
4.7999999999999998e+00 +8.1523465775644599e+00 +0.0000000000000000e+00 +4.7999999406998803e+00 -3.0715746349612990e-02 -5.6473088798240656e-01 +5.6053756606215394e-03
4.9000000000000004e+00 +8.1523190680272801e+00 +0.0000000000000000e+00 +4.8999999369158704e+00 -3.0715954627810876e-02 -5.6473094488905862e-01 +5.6054068503440368e-03
5.0000000000000000e+00 +8.1522909912819195e+00 +0.0000000000000000e+00 +4.9999999329742204e+00 -3.0716163876594826e-02 -5.6473099379065439e-01 +5.6054381364266824e-03
5.0999999999999996e+00 +8.1522623473319999e+00 +0.0000000000000000e+00 +5.0999999288717000e+00 -3.0716372537614584e-02 -5.6473103470660080e-01 +5.6054695546762425e-03
5.2000000000000002e+00 +8.1522331361738907e+00 +0.0000000000000000e+00 +5.1999999246051098e+00 -3.0716579052556887e-02 -5.6473106765636460e-01 +5.6055011409042775e-03
5.2999999999999998e+00 +8.1522033578075899e+00 +0.0000000000000000e+00 +5.2999999201712198e+00 -3.0716781863142459e-02 -5.6473109265938881e-01 +5.6055329309265180e-03
5.4000000000000004e+00 +8.1521730122331100e+00 +0.0000000000000000e+00 +5.3999999155668199e+00 -3.0716979411128893e-02 -5.6473110973512075e-01 +5.6055649605633705e-03
5.5000000000000000e+00 +8.1521420994540694e+00 +0.0000000000000000e+00 +5.4999999107886799e+00 -3.0717170138310660e-02 -5.6473111890298477e-01 +5.6055972656398681e-03
5.5999999999999996e+00 +8.1521106194668391e+00 +0.0000000000000000e+00 +5.5999999058335996e+00 -3.0717352486525018e-02 -5.6473112018246685e-01 +5.6056298819867657e-03
5.7000000000000002e+00 +8.1520785722750606e+00 +0.0000000000000000e+00 +5.6999999006983604e+00 -3.0717524897647484e-02 -5.6473111359300232e-01 +5.6056628454396185e-03
5.7999999999999998e+00 +8.1520459578750906e+00 +0.0000000000000000e+00 +5.7999998953797300e+00 -3.0717685813599262e-02 -5.6473109915408992e-01 +5.6056961918401664e-03
5.9000000000000004e+00 +8.1520127762669308e+00 +0.0000000000000000e+00 +5.8999998898744996e+00 -3.0717833676344220e-02 -5.6473107688520607e-01 +5.6057299570356984e-03
5.9999999999999902e+00 +8.1519790274505795e+00 +0.0000000000000000e+00 +5.9999998841794504e+00 -3.0717966927891808e-02 -5.6473104680583530e-01 +5.6057641768795718e-03
6.0999999999999899e+00 +8.1519447114296799e+00 +0.0000000000000000e+00 +6.0999998782913698e+00 -3.0718084424299723e-02 -5.6473100927510145e-01 +5.6057988748972705e-03
6.1999999999999904e+00 +8.1519098282005906e+00 +0.0000000000000000e+00 +6.1999998722070400e+00 -3.0718186677662216e-02 -5.6473096601084138e-01 +5.6058340252836750e-03
6.2999999999999901e+00 +8.1518743777669407e+00 +0.0000000000000000e+00 +6.2999998659232403e+00 -3.0718274614037869e-02 -5.6473091907050155e-01 +5.6058695899003181e-03
6.3999999999999897e+00 +8.1518383601214701e+00 +0.0000000000000000e+00 +6.3999998594367504e+00 -3.0718349159441535e-02 -5.6473087051161663e-01 +5.6059055306103061e-03
6.4999999999999902e+00 +8.1518017752750893e+00 +0.0000000000000000e+00 +6.4999998527443603e+00 -3.0718411239829903e-02 -5.6473082239158423e-01 +5.6059418092760018e-03
6.5999999999999899e+00 +8.1517646232205205e+00 +0.0000000000000000e+00 +6.5999998458428504e+00 -3.0718461781114117e-02 -5.6473077676794647e-01 +5.6059783877618992e-03
6.6999999999999904e+00 +8.1517269039541098e+00 +0.0000000000000000e+00 +6.6999998387290001e+00 -3.0718501709148492e-02 -5.6473073569822230e-01 +5.6060152279328755e-03
6.7999999999999901e+00 +8.1516886174867995e+00 +0.0000000000000000e+00 +6.7999998313996004e+00 -3.0718531949723404e-02 -5.6473070123982105e-01 +5.6060522916533207e-03
6.8999999999999897e+00 +8.1516497638112906e+00 +0.0000000000000000e+00 +6.8999998238514202e+00 -3.0718553428576666e-02 -5.6473067545029831e-01 +5.6060895407897262e-03
6.9999999999999902e+00 +8.1516103429239593e+00 +0.0000000000000000e+00 +6.9999998160812602e+00 -3.0718567071381968e-02 -5.6473066038718611e-01 +5.6061269372089237e-03
7.0999999999999899e+00 +8.1515703548320708e+00 +0.0000000000000000e+00 +7.0999998080858804e+00 -3.0718573803743529e-02 -5.6473065810793710e-01 +5.6061644427775276e-03
7.1999999999999904e+00 +8.1515297995356395e+00 +0.0000000000000000e+00 +7.1999997998620904e+00 -3.0718574551201271e-02 -5.6473067067006510e-01 +5.6062020193633358e-03
7.2999999999999901e+00 +8.1514886770310095e+00 +0.0000000000000000e+00 +7.2999997914066501e+00 -3.0718570239226820e-02 -5.6473070013111770e-01 +5.6062396288350446e-03
7.3999999999999897e+00 +8.1514469873182005e+00 +0.0000000000000000e+00 +7.3999997827163604e+00 -3.0718561793218243e-02 -5.6473074854862015e-01 +5.6062772330616592e-03
7.4999999999999902e+00 +8.1514047304008308e+00 +0.0000000000000000e+00 +7.4999997737879900e+00 -3.0718550138497603e-02 -5.6473081798007552e-01 +5.6063147939124864e-03
7.5999999999999899e+00 +8.1513619062752696e+00 +0.0000000000000000e+00 +7.5999997646183202e+00 -3.0718536200313049e-02 -5.6473091048304880e-01 +5.6063522732579729e-03
7.6999999999999904e+00 +8.1513185149451601e+00 +0.0000000000000000e+00 +7.6999997552041499e+00 -3.0718520903830461e-02 -5.6473102811505527e-01 +5.6063896329685576e-03
7.7999999999999901e+00 +8.1512745564032194e+00 +0.0000000000000000e+00 +7.7999997455422498e+00 -3.0718505174138579e-02 -5.6473117293370145e-01 +5.6064268349160914e-03
7.8999999999999897e+00 +8.1512300306567305e+00 +0.0000000000000000e+00 +7.8999997356294100e+00 -3.0718489936236083e-02 -5.6473134699648697e-01 +5.6064638409718034e-03
7.9999999999999902e+00 +8.1511849377056897e+00 +0.0000000000000000e+00 +7.9999997254624002e+00 -3.0718476115038210e-02 -5.6473155236097594e-01 +5.6065006130080414e-03
8.0999999999999908e+00 +8.1511392775464593e+00 +0.0000000000000000e+00 +8.0999997150380096e+00 -3.0718464449979822e-02 -5.6473179044900912e-01 +5.6065371204612868e-03
8.1999999999999904e+00 +8.1510930501790408e+00 +0.0000000000000000e+00 +8.1999997043530293e+00 -3.0718454938871154e-02 -5.6473206013933841e-01 +5.6065733630191426e-03
8.2999999999999901e+00 +8.1510462556034309e+00 +0.0000000000000000e+00 +8.2999996934042404e+00 -3.0718447394162421e-02 -5.6473235967491009e-01 +5.6066093479255038e-03
8.3999999999999897e+00 +8.1509988938232691e+00 +0.0000000000000000e+00 +8.3999996821884100e+00 -3.0718441628351776e-02 -5.6473268729859893e-01 +5.6066450824158714e-03
8.4999999999999893e+00 +8.1509509648349194e+00 +0.0000000000000000e+00 +8.4999996707023406e+00 -3.0718437453991641e-02 -5.6473304125329193e-01 +5.6066805737179483e-03
8.5999999999999908e+00 +8.1509024686420197e+00 +0.0000000000000000e+00 +8.5999996589427994e+00 -3.0718434683684671e-02 -5.6473341978177338e-01 +5.6067158290502286e-03
8.6999999999999904e+00 +8.1508534052409196e+00 +0.0000000000000000e+00 +8.6999996469065692e+00 -3.0718433130091576e-02 -5.6473382112683845e-01 +5.6067508556228779e-03
8.7999999999999794e+00 +8.1508037746316404e+00 +0.0000000000000000e+00 +8.7999996345904599e+00 -3.0718432605928565e-02 -5.6473424353120483e-01 +5.6067856606366170e-03
8.8999999999999808e+00 +8.1507535768178094e+00 +0.0000000000000000e+00 +8.8999996219912205e+00 -3.0718432923969204e-02 -5.6473468523751347e-01 +5.6068202512824525e-03
8.9999999999999805e+00 +8.1507028117957798e+00 +0.0000000000000000e+00 +8.9999996091056396e+00 -3.0718433897050847e-02 -5.6473514448841033e-01 +5.6068546347422792e-03
9.0999999999999801e+00 +8.1506514795655693e+00 +0.0000000000000000e+00 +9.0999995959305195e+00 -3.0718435338071962e-02 -5.6473561952646234e-01 +5.6068888181877597e-03
9.1999999999999797e+00 +8.1505995801308000e+00 +0.0000000000000000e+00 +9.1999995824626293e+00 -3.0718437059994087e-02 -5.6473610859415424e-01 +5.6069228087800510e-03
9.2999999999999794e+00 +8.1505471134878498e+00 +0.0000000000000000e+00 +9.2999995686987500e+00 -3.0718438875848186e-02 -5.6473660993397312e-01 +5.6069566136704146e-03
9.3999999999999808e+00 +8.1504940796366991e+00 +0.0000000000000000e+00 +9.3999995546356701e+00 -3.0718440598732088e-02 -5.6473712178832269e-01 +5.6069902399990910e-03
9.4999999999999805e+00 +8.1504404785773694e+00 +0.0000000000000000e+00 +9.4999995402701707e+00 -3.0718442041813777e-02 -5.6473764239954927e-01 +5.6070236948953106e-03
9.5999999999999801e+00 +8.1503863103171206e+00 +0.0000000000000000e+00 +9.5999995255990296e+00 -3.0718443018330398e-02 -5.6473817000988513e-01 +5.6070569854764817e-03
9.6999999999999797e+00 +8.1503315748450404e+00 +0.0000000000000000e+00 +9.6999995106190298e+00 -3.0718443341600586e-02 -5.6473870286164352e-01 +5.6070901188499224e-03
9.7999999999999794e+00 +8.1502762721684103e+00 +0.0000000000000000e+00 +9.7999994953269702e+00 -3.0718442825011381e-02 -5.6473923919693703e-01 +5.6071231021097220e-03
9.8999999999999808e+00 +8.1502204022835905e+00 +0.0000000000000000e+00 +9.8999994797196091e+00 -3.0718441282032102e-02 -5.6473977725790037e-01 +5.6071559423387981e-03
9.9999999999999805e+00 +8.1501639651905897e+00 +0.0000000000000000e+00 +9.9999994637937508e+00 -3.0718438526210243e-02 -5.6474031528657720e-01 +5.6071886466074567e-03
1.0100000000000000e+01 +8.1501069608966592e+00 +0.0000000000000000e+00 +1.0099999447546200e+01 -3.0718434476081684e-02 -5.6474085169800359e-01 +5.6072212403740192e-03
1.0199999999999999e+01 +8.1500493893909205e+00 +0.0000000000000000e+00 +1.0199999430973600e+01 -3.0718429469885348e-02 -5.6474138559979836e-01 +5.6072538226979779e-03
1.0300000000000001e+01 +8.1499912506769796e+00 +0.0000000000000000e+00 +1.0299999414073000e+01 -3.0718423950758331e-02 -5.6474191627264581e-01 +5.6072865110452404e-03
1.0400000000000000e+01 +8.1499325447584905e+00 +0.0000000000000000e+00 +1.0399999396840901e+01 -3.0718418361819724e-02 -5.6474244299730147e-01 +5.6073194228894400e-03
1.0500000000000000e+01 +8.1498732716317992e+00 +0.0000000000000000e+00 +1.0499999379274200e+01 -3.0718413146173074e-02 -5.6474296505465271e-01 +5.6073526757127717e-03
1.0600000000000000e+01 +8.1498134313005703e+00 +0.0000000000000000e+00 +1.0599999361369800e+01 -3.0718408746899718e-02 -5.6474348172560640e-01 +5.6073863870050563e-03
1.0699999999999999e+01 +8.1497530237611500e+00 +0.0000000000000000e+00 +1.0699999343124301e+01 -3.0718405607064195e-02 -5.6474399229120464e-01 +5.6074206742651334e-03
1.0800000000000001e+01 +8.1496920490171796e+00 +0.0000000000000000e+00 +1.0799999324534600e+01 -3.0718404169707621e-02 -5.6474449603251353e-01 +5.6074556549999604e-03
1.0900000000000000e+01 +8.1496305070650106e+00 +0.0000000000000000e+00 +1.0899999305597399e+01 -3.0718404877853128e-02 -5.6474499223073826e-01 +5.6074914467259844e-03
1.1000000000000000e+01 +8.1495683979046607e+00 +0.0000000000000000e+00 +1.0999999286309500e+01 -3.0718408174500646e-02 -5.6474548016714132e-01 +5.6075281669685255e-03
1.1100000000000000e+01 +8.1495057215361193e+00 +0.0000000000000000e+00 +1.1099999266667700e+01 -3.0718414502627918e-02 -5.6474595912307124e-01 +5.6075659332622974e-03
1.1199999999999999e+01 +8.1494424779630208e+00 +0.0000000000000000e+00 +1.1199999246668799e+01 -3.0718424305188275e-02 -5.6474642837993805e-01 +5.6076048631513590e-03
1.1300000000000001e+01 +8.1493786671817396e+00 +0.0000000000000000e+00 +1.1299999226309600e+01 -3.0718438025114637e-02 -5.6474688721929844e-01 +5.6076450741902066e-03
1.1400000000000000e+01 +8.1493142891922599e+00 +0.0000000000000000e+00 +1.1399999205586900e+01 -3.0718456105314308e-02 -5.6474733492277485e-01 +5.6076866839431605e-03
1.1500000000000000e+01 +8.1492493440018698e+00 +0.0000000000000000e+00 +1.1499999184497300e+01 -3.0718478988666902e-02 -5.6474777077202809e-01 +5.6077298099842998e-03
1.1600000000000000e+01 +8.1491838315996592e+00 +0.0000000000000000e+00 +1.1599999163037801e+01 -3.0718507118034279e-02 -5.6474819404895749e-01 +5.6077745698997240e-03
1.1699999999999999e+01 +8.1491177519928897e+00 +0.0000000000000000e+00 +1.1699999141205099e+01 -3.0718540936244848e-02 -5.6474860403542104e-01 +5.6078210812849066e-03
1.1800000000000001e+01 +8.1490511051779304e+00 +0.0000000000000000e+00 +1.1799999118996000e+01 -3.0718580886105028e-02 -5.6474900001346195e-01 +5.6078694617472244e-03
