# multipoles
# s[mm] polynom_b[n=0][T/m^n] polynom_b[n=1][T/m^n] polynom_b[n=2][T/m^n] polynom_b[n=3][T/m^n] polynom_b[n=4][T/m^n] polynom_b[n=5][T/m^n] polynom_b[n=6][T/m^n] 
+0.0000000000000000e+00 -5.9313235608409898e-01 +8.1173216826498855e+00 -1.0137811286120784e+00 +1.3534432536445783e+01 +6.1362386974940073e+03 -3.8750466694464785e+05 -2.8403446343386330e+07 
+1.0000000000000001e-01 -5.9313206291199516e-01 +8.1173239572998739e+00 -1.0108254734417443e+00 +1.3405610122199663e+01 +6.0847554059885360e+03 -3.8708828926650336e+05 -2.8111513270620849e+07 
+2.0000000000000001e-01 -5.9313176432017245e-01 +8.1173239982881995e+00 -1.0086633084249839e+00 +1.3331732874205748e+01 +6.0416969450952711e+03 -3.8695332983431732e+05 -2.7846978126916688e+07 
+2.9999999999999999e-01 -5.9313146087376101e-01 +8.1173217010152268e+00 -1.0072359254155885e+00 +1.3314705329301306e+01 +6.0065736090339406e+03 -3.8710508448945661e+05 -2.7609022020194139e+07 
+4.0000000000000002e-01 -5.9313115313780918e-01 +8.1173169608845672e+00 -1.0064846207804112e+00 +1.3356431984086830e+01 +5.9788957725598375e+03 -3.8754884899593401e+05 -2.7396826427052561e+07 
+5.0000000000000000e-01 -5.9313084167742036e-01 +8.1173096733030849e+00 -1.0063506912235072e+00 +1.3458817252155637e+01 +5.9581738136396061e+03 -3.8828991864840273e+05 -2.7209572831330355e+07 
+5.9999999999999998e-01 -5.9313052705763758e-01 +8.1172997336820032e+00 -1.0067754367947785e+00 +1.3623765466985072e+01 +5.9439181691060321e+03 -3.8933358839034452e+05 -2.7046442984703410e+07 
+6.9999999999999996e-01 -5.9313020984350218e-01 +8.1172870374308310e+00 -1.0077001538752006e+00 +1.3853181022992144e+01 +5.9356392017380804e+03 -3.9068515352291503e+05 -2.6906618274761837e+07 
+8.0000000000000004e-01 -5.9312989060007348e-01 +8.1172714799611327e+00 -1.0090661429338315e+00 +1.4148968268164483e+01 +5.9328473427382178e+03 -3.9234990906177158e+05 -2.6789280390938796e+07 
+9.0000000000000002e-01 -5.9312956989235832e-01 +8.1172529566823037e+00 -1.0108147073634883e+00 +1.4513031615961577e+01 +5.9350530751667829e+03 -3.9433315036908508e+05 -2.6693611259682268e+07 
+1.0000000000000000e+00 -5.9312924828534319e-01 +8.1172313630066171e+00 -1.0128871486060769e+00 +1.4947275407391711e+01 +5.9417668373419674e+03 -3.9664017235194240e+05 -2.6618792574560370e+07 
+1.1000000000000001e+00 -5.9312892634405001e-01 +8.1172065943412068e+00 -1.0152247701033446e+00 +1.5453604105329827e+01 +5.9524990943098637e+03 -3.9927627047485398e+05 -2.6564006126718931e+07 
+1.2000000000000000e+00 -5.9312860463345651e-01 +8.1171785460887538e+00 -1.0177688771088089e+00 +1.6033922301174005e+01 +5.9667603416933280e+03 -4.0224674086795363e+05 -2.6528433843213949e+07 
+1.3000000000000000e+00 -5.9312828371850401e-01 +8.1171471136553333e+00 -1.0204607742251079e+00 +1.6690134460187735e+01 +5.9840610478048075e+03 -4.0555687875652738e+05 -2.6511257480991442e+07 
+1.3999999999999999e+00 -5.9312796416417446e-01 +8.1171121924347549e+00 -1.0232417714859092e+00 +1.7424145376291502e+01 +6.0039117764113016e+03 -4.0921198109994829e+05 -2.6511659233070318e+07 
+1.5000000000000000e+00 -5.9312764653535677e-01 +8.1170736778255002e+00 -1.0260531717698445e+00 +1.8237859664464867e+01 +6.0258229471309533e+03 -4.1321734358192771e+05 -2.6528820583503518e+07 
+1.6000000000000001e+00 -5.9312733139698393e-01 +8.1170314652097098e+00 -1.0288362891443741e+00 +1.9133182381624227e+01 +6.0493051747441841e+03 -4.1757826424157387e+05 -2.6561923900054157e+07 
+1.7000000000000000e+00 -5.9312701931397627e-01 +8.1169854499711338e+00 -1.0315324313029794e+00 +2.0112018480152805e+01 +6.0738689447401739e+03 -4.2230004021765565e+05 -2.6610150914958652e+07 
+1.8000000000000000e+00 -5.9312671085121904e-01 +8.1169355274825001e+00 -1.0340829093278845e+00 +2.1176273174717782e+01 +6.0990247915876425e+03 -4.2738796986525331e+05 -2.6672683551215269e+07 
+1.8999999999999999e+00 -5.9312640657355165e-01 +8.1168815931091167e+00 -1.0364290350071832e+00 +2.2327851832273460e+01 +6.1242832509242980e+03 -4.3284735209928639e+05 -2.6748703708405811e+07 
+2.0000000000000000e+00 -5.9312610704583513e-01 +8.1168235422101525e+00 -1.0385121239351645e+00 +2.3568659930321836e+01 +6.1491549148191079e+03 -4.3868348612264817e+05 -2.6837393510820664e+07 
+2.1000000000000001e+00 -5.9312581268078413e-01 +8.1167613829606537e+00 -1.0402860237300129e+00 +2.4897876766600714e+01 +6.1732153908681958e+03 -4.4488896809276333e+05 -2.6937829687476404e+07 
+2.2000000000000002e+00 -5.9312552328561563e-01 +8.1166955724614382e+00 -1.0417558196400458e+00 +2.6303967790233589e+01 +6.1963286034394432e+03 -4.5140680053511512e+05 -2.7048796057371762e+07 
+2.2999999999999998e+00 -5.9312523851697707e-01 +8.1166266794787276e+00 -1.0429396822999766e+00 +2.7772767245929540e+01 +6.2184374632444515e+03 -4.5816789188647334e+05 -2.7169034359162483e+07 
+2.3999999999999999e+00 -5.9312495803154963e-01 +8.1165552727813672e+00 -1.0438557752732414e+00 +2.9290109319674624e+01 +6.2394847597922571e+03 -4.6510315026746091e+05 -2.7297285798399050e+07 
+2.5000000000000000e+00 -5.9312468148599296e-01 +8.1164819211378347e+00 -1.0445222611666662e+00 +3.0841828227434213e+01 +6.2594132689252256e+03 -4.7214348400978488e+05 -2.7432291533193052e+07 
+2.6000000000000001e+00 -5.9312440853706572e-01 +8.1164071933152293e+00 -1.0449572986434843e+00 +3.2413758258625911e+01 +6.2781657060603075e+03 -4.7921980196086952e+05 -2.7572792480849624e+07 
+2.7000000000000002e+00 -5.9312413884153137e-01 +8.1163316580857039e+00 -1.0451790422874283e+00 +3.3991733589417549e+01 +6.2956847182780348e+03 -4.8626301240633661e+05 -2.7717529266197056e+07 
+2.7999999999999998e+00 -5.9312387205616401e-01 +8.1162558842180861e+00 -1.0452056425221541e+00 +3.5561588533839142e+01 +6.3119128897396940e+03 -4.9320402455433481e+05 -2.7865242267827325e+07 
+2.8999999999999999e+00 -5.9312360783785367e-01 +8.1161804404870654e+00 -1.0450552439650080e+00 +3.7109157273955333e+01 +6.3267927111287363e+03 -4.9997374697416951e+05 -2.8014671472128808e+07 
+3.0000000000000000e+00 -5.9312334584348725e-01 +8.1161058956704721e+00 -1.0447459883351884e+00 +3.8620273955025141e+01 +6.3402666328273172e+03 -5.0650308819662587e+05 -2.8164556724127226e+07 
+3.1000000000000001e+00 -5.9312308573000139e-01 +8.1160328185463761e+00 -1.0442960091260149e+00 +4.0080772775049482e+01 +6.3522769721329614e+03 -5.1272295726063120e+05 -2.8313637308401737e+07 
+3.2000000000000002e+00 -5.9312282715443942e-01 +8.1159617778979829e+00 -1.0437234348441158e+00 +4.1476487822205222e+01 +6.3627659707304592e+03 -5.1856426271495223e+05 -2.8460652211669188e+07 
+3.2999999999999998e+00 -5.9312256977387467e-01 +8.1158933425109172e+00 -1.0430463882249974e+00 +4.2793253198762372e+01 +6.3716757860217895e+03 -5.2395791348151112e+05 -2.8604340098856833e+07 
+3.3999999999999999e+00 -5.9312231324541176e-01 +8.1158280811748735e+00 -1.0422829853264901e+00 +4.4016902938823499e+01 +6.3789484694452640e+03 -5.2883481827614445e+05 -2.8743439199596662e+07 
+3.5000000000000000e+00 -5.9312205722628830e-01 +8.1157665626852715e+00 -1.0414513350974230e+00 +4.5133271002601276e+01 +6.3845259683818722e+03 -5.3312588571476960e+05 -2.8876687344041027e+07 
+3.6000000000000001e+00 -5.9312180137379367e-01 +8.1157093558412434e+00 -1.0405695377670265e+00 +4.6128191311992921e+01 +6.3883500892396278e+03 -5.3676202445301891e+05 -2.9002821769917876e+07 
+3.7000000000000002e+00 -5.9312154534526573e-01 +8.1156570294488795e+00 -1.0396556858940502e+00 +4.6987497660982292e+01 +6.3903625266215577e+03 -5.3967414269488864e+05 -2.9120579289162256e+07 
+3.7999999999999998e+00 -5.9312128879816273e-01 +8.1156101523222652e+00 -1.0387278659307329e+00 +4.7697023715785924e+01 +6.3905048886382692e+03 -5.4179314828314306e+05 -2.9228696395918779e+07 
+3.8999999999999999e+00 -5.9312103138999284e-01 +8.1155692932730172e+00 -1.0378041531289233e+00 +4.8242603294148125e+01 +6.3887186030268176e+03 -5.4304995025934896e+05 -2.9325908825110666e+07 
+4.0000000000000000e+00 -5.9312077277843478e-01 +8.1155350211308530e+00 -1.0369026145253910e+00 +4.8610069799685228e+01 +6.3849449807604833e+03 -5.4337545566384541e+05 -2.9410951879526056e+07 
+4.0999999999999996e+00 -5.9312051277207045e-01 +8.1155077442960124e+00 -1.0360388667240084e+00 +4.8789475573319386e+01 +6.3791729675973265e+03 -5.4272276188465476e+05 -2.9482926628463689e+07 
+4.2000000000000002e+00 -5.9312025176329164e-01 +8.1154872358598595e+00 -1.0352172498227465e+00 +4.8787533329952105e+01 +6.3715259301318474e+03 -5.4113270270084823e+05 -2.9542083213050757e+07 
+4.2999999999999998e+00 -5.9311999028544804e-01 +8.1154731115059473e+00 -1.0344389193966717e+00 +4.8615073295331527e+01 +6.3621470513424356e+03 -5.3866782342305779e+05 -2.9588881759143993e+07 
+4.4000000000000004e+00 -5.9311972887181552e-01 +8.1154649869207169e+00 -1.0337050363674787e+00 +4.8282925585114093e+01 +6.3511796156934925e+03 -5.3539066878326109e+05 -2.9623782862685740e+07 
+4.5000000000000000e+00 -5.9311946805566507e-01 +8.1154624777929953e+00 -1.0330167630472353e+00 +4.7801920183743427e+01 +6.3387669405572824e+03 -5.3136378273190674e+05 -2.9647247278982993e+07 
+4.5999999999999996e+00 -5.9311920837016763e-01 +8.1154651998186420e+00 -1.0323752701067941e+00 +4.7182886852330718e+01 +6.3250525008098502e+03 -5.2664970802978065e+05 -2.9659736494898204e+07 
+4.7000000000000002e+00 -5.9311895034854067e-01 +8.1154727686896049e+00 -1.0317817309146522e+00 +4.6436655375078018e+01 +6.3101798305816174e+03 -5.2131098747876065e+05 -2.9661712284153271e+07 
+4.7999999999999998e+00 -5.9311869452392740e-01 +8.1154848001044826e+00 -1.0312373240263750e+00 +4.5574055311928504e+01 +6.2942925611077562e+03 -5.1541016266742983e+05 -2.9653636861903261e+07 
+4.9000000000000004e+00 -5.9311844142937309e-01 +8.1155009097658350e+00 -1.0307432368650316e+00 +4.4605916046103211e+01 +6.2775344929313269e+03 -5.0900977417377790e+05 -2.9635973231493842e+07 
+5.0000000000000000e+00 -5.9311819159795121e-01 +8.1155207133780465e+00 -1.0303006610637597e+00 +4.3543066835470192e+01 +6.2600495106472908e+03 -5.0217236182771140e+05 -2.9609184788944632e+07 
+5.0999999999999996e+00 -5.9311794556263653e-01 +8.1155438266497804e+00 -1.0299107934191953e+00 +4.2396336746626865e+01 +6.2419815973565692e+03 -4.9496046436607238e+05 -2.9573735378801838e+07 
+5.2000000000000002e+00 -5.9311770385637563e-01 +8.1155698652913486e+00 -1.0295748413245300e+00 +4.1176554725098065e+01 +6.2234749339059454e+03 -4.8743661981948867e+05 -2.9530089754313350e+07 
+5.2999999999999998e+00 -5.9311746701205026e-01 +8.1155984450181826e+00 -1.0292940172893936e+00 +3.9894549504038473e+01 +6.2046738040905402e+03 -4.7966336503136606e+05 -2.9478713153043129e+07 
+5.4000000000000004e+00 -5.9311723556245755e-01 +8.1156291815521691e+00 -1.0290695441158018e+00 +3.8561149533246081e+01 +6.1857226829680267e+03 -4.7170323514707136e+05 -2.9420071685014099e+07 
+5.5000000000000000e+00 -5.9311701004032724e-01 +8.1156616906131660e+00 -1.0289026498954712e+00 +3.7187183241544425e+01 +6.1667661473298249e+03 -4.6361876519950380e+05 -2.9354631922960665e+07 
+5.5999999999999996e+00 -5.9311679097834513e-01 +8.1156955879307429e+00 -1.0287945752329417e+00 +3.5783478699098985e+01 +6.1479490095587935e+03 -4.5547248816767335e+05 -2.9282861529344078e+07 
+5.7000000000000002e+00 -5.9311657890909930e-01 +8.1157304892326021e+00 -1.0287465661101813e+00 +3.4360863922459288e+01 +6.1294161839935741e+03 -4.4732693666704500e+05 -2.9205228622628544e+07 
+5.7999999999999998e+00 -5.9311637436512310e-01 +8.1157660102555056e+00 -1.0287598821677193e+00 +3.2930166580592392e+01 +6.1113128403820529e+03 -4.3924464130893489e+05 -2.9122202498341933e+07 
+5.9000000000000004e+00 -5.9311617787888049e-01 +8.1158017667369258e+00 -1.0288357886908119e+00 +3.1502214217840013e+01 +6.0937842553948385e+03 -4.3128813196152181e+05 -2.9034252928919669e+07 
+5.9999999999999902e+00 -5.9311598998271498e-01 +8.1158373744218313e+00 -1.0289755658571567e+00 +3.0087834065761154e+01 +6.0769759855775328e+03 -4.2351993666243553e+05 -2.8941850978967279e+07 
+6.0999999999999899e+00 -5.9311581110026967e-01 +8.1158725190414991e+00 -1.0291770666799394e+00 +2.8696305403618805e+01 +6.0609676943533977e+03 -4.1599341158859129e+05 -2.8845303693126120e+07 
+6.1999999999999904e+00 -5.9311564124162619e-01 +8.1159071602735029e+00 -1.0294242814703627e+00 +2.7330676687295824e+01 +6.0455785698183172e+03 -4.0872405559382582e+05 -2.8744344337763321e+07 
+6.2999999999999901e+00 -5.9311548031874817e-01 +8.1159413248966690e+00 -1.0296976690594533e+00 +2.5992424728038358e+01 +6.0305632899918701e+03 -4.0171756508975365e+05 -2.8638584954408880e+07 
+6.3999999999999897e+00 -5.9311532824370616e-01 +8.1159750396731187e+00 -1.0299776862887642e+00 +2.4683026834840021e+01 +6.0156764818687379e+03 -3.9497963915615901e+05 -2.8527637296623673e+07 
+6.4999999999999902e+00 -5.9311518492843529e-01 +8.1160083313606695e+00 -1.0302447909662447e+00 +2.3403960447903007e+01 +6.0006727870252716e+03 -3.8851597744722088e+05 -2.8411113156371485e+07 
+6.5999999999999899e+00 -5.9311505028498379e-01 +8.1160412267059900e+00 -1.0304794449932231e+00 +2.2156703345057267e+01 +5.9853069092887372e+03 -3.8233228140671056e+05 -2.8288624564513631e+07 
+6.6999999999999904e+00 -5.9311492422542578e-01 +8.1160737524498572e+00 -1.0306621056420711e+00 +2.0942733486544750e+01 +5.9693334573598886e+03 -3.7643425333972328e+05 -2.8159783058809545e+07 
+6.7999999999999901e+00 -5.9311480666168515e-01 +8.1161059353208564e+00 -1.0307732350056398e+00 +1.9763529212503357e+01 +5.9525071191287097e+03 -3.7082759759907069e+05 -2.8024200501820169e+07 
+6.8999999999999897e+00 -5.9311469750586121e-01 +8.1161378020373487e+00 -1.0307932931654349e+00 +1.8620569161229209e+01 +5.9345825322226892e+03 -3.6551802002510341e+05 -2.7881488464863554e+07 
+6.9999999999999902e+00 -5.9311459667000854e-01 +8.1161693793098681e+00 -1.0307027433772349e+00 +1.7515332231418896e+01 +5.9153143829004694e+03 -3.6051122780765739e+05 -2.7731258698094405e+07 
+7.0999999999999899e+00 -5.9311450406609878e-01 +8.1162006938347275e+00 -1.0304820495700011e+00 +1.6449297746131734e+01 +5.8944573559673709e+03 -3.5581293035881978e+05 -2.7573122885826096e+07 
+7.1999999999999904e+00 -5.9311441960618028e-01 +8.1162317722964357e+00 -1.0301116747603805e+00 +1.5423945385866546e+01 +5.8717661054803075e+03 -3.5142883894012711e+05 -2.7406692509088054e+07 
+7.2999999999999901e+00 -5.9311434320234480e-01 +8.1162626413709891e+00 -1.0295720817595737e+00 +1.4440755114441178e+01 +5.8469952680442857e+03 -3.4736466626091301e+05 -2.7231578907363541e+07 
+7.3999999999999897e+00 -5.9311427476663225e-01 +8.1162933277228149e+00 -1.0288437375159079e+00 +1.3501207232353849e+01 +5.8198995431163639e+03 -3.4362612668775773e+05 -2.7047393654505800e+07 
+7.4999999999999902e+00 -5.9311421421109534e-01 +8.1163238579988395e+00 -1.0279071054012567e+00 +1.2606782591065999e+01 +5.7902335483438746e+03 -3.4021893759798771e+05 -2.6853747875408225e+07 
+7.5999999999999899e+00 -5.9311416144780860e-01 +8.1163542588375712e+00 -1.0267426545607996e+00 +1.1758962306054004e+01 +5.7577519927178782e+03 -3.3714881763441412e+05 -2.6650253057053715e+07 
+7.6999999999999904e+00 -5.9311411638885070e-01 +8.1163845568645563e+00 -1.0253308483380918e+00 +1.0959227887422006e+01 +5.7222094621555198e+03 -3.3442148744720133e+05 -2.6436520042583037e+07 
+7.7999999999999901e+00 -5.9311407894634594e-01 +8.1164147786879450e+00 -1.0236521562338314e+00 +1.0209061381094726e+01 +5.6833606374314413e+03 -3.3204267054232309e+05 -2.6212160043837383e+07 
+7.8999999999999897e+00 -5.9311404903233422e-01 +8.1164449509051746e+00 -1.0216870457898504e+00 +9.5099451771876797e+00 +5.6409601476175549e+03 -3.3001809216142283e+05 -2.5976783961334582e+07 
+7.9999999999999902e+00 -5.9311402655893020e-01 +8.1164751000984463e+00 -1.0194159841521111e+00 +8.8633620962557575e+00 +5.5947625924393078e+03 -3.2835347972211457e+05 -2.5730002476758961e+07 
+8.0999999999999908e+00 -5.9311401139442488e-01 +8.1165052372013733e+00 -1.0168268607092616e+00 +8.2700108498461677e+00 +5.5446002460901727e+03 -3.2704876803852461e+05 -2.5471563051425289e+07 
+8.1999999999999904e+00 -5.9311400323877339e-01 +8.1165353106136440e+00 -1.0139353920887442e+00 +7.7277003476687014e+00 +5.4906366191397983e+03 -3.2608296734820242e+05 -2.5201959150438052e+07 
+8.2999999999999901e+00 -5.9311400175121065e-01 +8.1165652533034951e+00 -1.0107638428615699e+00 +7.2335626248241764e+00 +5.4331235235795575e+03 -3.2543033418855222e+05 -2.4921918759803213e+07 
+8.3999999999999897e+00 -5.9311400659097679e-01 +8.1165949982473826e+00 -1.0073344702918690e+00 +6.7847294978306349e+00 +5.3723126249184597e+03 -3.2506512403996149e+05 -2.4632169186555710e+07 
+8.4999999999999893e+00 -5.9311401741736658e-01 +8.1166244784257078e+00 -1.0036695284730393e+00 +6.3783327096304436e+00 +5.3084555145277700e+03 -3.2496159210894862e+05 -2.4333437399448670e+07 
+8.5999999999999908e+00 -5.9311403388959294e-01 +8.1166536268322798e+00 -9.9979126979106803e-01 +6.0115036297078284e+00 +5.2418037329651424e+03 -3.2509399151870218e+05 -2.4026450130521622e+07 
+8.6999999999999904e+00 -5.9311405566696240e-01 +8.1166823764682494e+00 -9.9572193923389929e-01 +5.6813734734220018e+00 +5.1726086699568459e+03 -3.2543657470329636e+05 -2.3711933419166286e+07 
+8.7999999999999794e+00 -5.9311408240874164e-01 +8.1167106603400416e+00 -9.9148377799637910e-01 +5.3850733080948663e+00 +5.1011216234009171e+03 -3.2596359329579613e+05 -2.3390612874341536e+07 
+8.8999999999999808e+00 -5.9311411377416845e-01 +8.1167384114711272e+00 -9.8709902427488938e-01 +5.1197337711510533e+00 +5.0275938258242331e+03 -3.2664929665753414e+05 -2.3063213827769857e+07 
+8.9999999999999805e+00 -5.9311414942255580e-01 +8.1167655628857656e+00 -9.8258990829405868e-01 +4.8824854922000434e+00 +4.9522763328761057e+03 -3.2746793419616594e+05 -2.2730460764025718e+07 
+9.0999999999999801e+00 -5.9311418901317758e-01 +8.1167920476219741e+00 -9.7797865818966134e-01 +4.6704587562269788e+00 +4.8754201524532036e+03 -3.2839375351960229e+05 -2.2393077979344640e+07 
+9.1999999999999797e+00 -5.9311423220527315e-01 +8.1168177987295440e+00 -9.7328749774024226e-01 +4.4807835274913543e+00 +4.7972761905578727e+03 -3.2940100048624165e+05 -2.2051789299070608e+07 
+9.2999999999999794e+00 -5.9311427865818100e-01 +8.1168427492668140e+00 -9.6853864076723539e-01 +4.3105895755958707e+00 +4.7180951441655025e+03 -3.3046392002360884e+05 -2.1707317565216776e+07 
+9.3999999999999808e+00 -5.9311432803117370e-01 +8.1168668323023869e+00 -9.6375430100641180e-01 +4.1570064109545966e+00 +4.6381276949917692e+03 -3.3155675572345476e+05 -2.1360385580009259e+07 
+9.4999999999999805e+00 -5.9311437998355543e-01 +8.1168899809146691e+00 -9.5895668296696124e-01 +4.0171632997448761e+00 +4.5576243292594718e+03 -3.3265374992879492e+05 -2.1011715229589146e+07 
+9.5999999999999801e+00 -5.9311443417455123e-01 +8.1169121282002408e+00 -9.5416798915588152e-01 +3.8881890206707661e+00 +4.4768354810671763e+03 -3.3372914232227363e+05 -2.0662028185938589e+07 
+9.6999999999999797e+00 -5.9311449026356589e-01 +8.1169332072585547e+00 -9.4941041170549012e-01 +3.7672123199086403e+00 +4.3960113604999797e+03 -3.3475717260628979e+05 -2.0312045055705905e+07 
+9.7999999999999794e+00 -5.9311454790984464e-01 +8.1169531512073938e+00 -9.4470614007829024e-01 +3.6513614527657245e+00 +4.3154021186746868e+03 -3.3571207781073579e+05 -1.9962486218370229e+07 
+9.8999999999999808e+00 -5.9311460677273009e-01 +8.1169718931728134e+00 -9.4007735620612698e-01 +3.5377644786006228e+00 +4.2352577358838544e+03 -3.3656809401672613e+05 -1.9614071242125131e+07 
+9.9999999999999805e+00 -5.9311466651153666e-01 +8.1169893662938453e+00 -9.3554623686868676e-01 +3.4235491678608732e+00 +4.1558280850289129e+03 -3.3729945591262664e+05 -1.9267519238600049e+07 
+1.0100000000000000e+01 -5.9311472685735322e-01 +8.1170055248739690e+00 -9.3113411659352929e-01 +3.3060435299294584e+00 +4.0773933168805584e+03 -3.3788337578395795e+05 -1.8923784490029156e+07 
