# multipoles
# s[mm] polynom_b[n=0][T/m^n] polynom_b[n=1][T/m^n] polynom_b[n=2][T/m^n] polynom_b[n=3][T/m^n] polynom_b[n=4][T/m^n] polynom_b[n=5][T/m^n] polynom_b[n=6][T/m^n] 
+0.0000000000000000e+00 -5.9232521287514017e-01 +8.1041871591085304e+00 -2.8658571027088625e-01 +6.1175067119069098e+01 -1.5534318873719167e+03 -5.0719496964574035e+05 -5.7608781640547458e+06 
-1.0000000000000001e-01 -5.9232505179882033e-01 +8.1042055813792970e+00 -2.9080817873493786e-01 +6.0768972723263765e+01 -1.4482233482648096e+03 -5.0522684024697600e+05 -6.2195592844890608e+06 
-2.0000000000000001e-01 -5.9232489721325932e-01 +8.1042209885094341e+00 -2.9464728855578171e-01 +6.0414012325572592e+01 -1.3511054283081107e+03 -5.0348154904693417e+05 -6.6381419237874458e+06 
-3.0000000000000004e-01 -5.9232474939597135e-01 +8.1042334627224459e+00 -2.9808520734604999e-01 +6.0109504851092979e+01 -1.2623814467360339e+03 -5.0195701362166845e+05 -7.0158286819432015e+06 
-4.0000000000000002e-01 -5.9232460862446612e-01 +8.1042430862448640e+00 -3.0110410303494628e-01 +5.9854769176082897e+01 -1.1823547168309469e+03 -5.0065115139224217e+05 -7.3518221897791773e+06 
-5.0000000000000000e-01 -5.9232447517623199e-01 +8.1042499412962830e+00 -3.0368614540591160e-01 +5.9649124378454545e+01 -1.1113285248034774e+03 -4.9956188094427832e+05 -7.6453251847057035e+06 
-5.9999999999999998e-01 -5.9232434932876243e-01 +8.1042541101031809e+00 -3.0581350324687501e-01 +5.9491889379222144e+01 -1.0496061758327830e+03 -4.9868712007058709e+05 -7.8955403172528557e+06 
-6.9999999999999996e-01 -5.9232423135953594e-01 +8.1042556748775283e+00 -3.0746834708415777e-01 +5.9382383528531612e+01 -9.9749094640182784e+02 -4.9802478904399957e+05 -8.1016703614732735e+06 
-7.9999999999999993e-01 -5.9232412154601921e-01 +8.1042547178382431e+00 -3.0863284784623635e-01 +5.9319926011437289e+01 -9.5528611224429903e+02 -4.9757280723865767e+05 -8.2629180788344657e+06 
-8.9999999999999991e-01 -5.9232402016566921e-01 +8.1042513211975233e+00 -3.0928917796584654e-01 +5.9303836233756329e+01 -9.2329491995619901e+02 -4.9732909534048953e+05 -8.3784863707320839e+06 
-9.9999999999999989e-01 -5.9232392749593710e-01 +8.1042455671646731e+00 -3.0941950968102999e-01 +5.9333433715102423e+01 -9.0182062643355982e+02 -4.9729157470860094e+05 -8.4475780736871753e+06 
-1.0999999999999999e+00 -5.9232384381425451e-01 +8.1042375379465188e+00 -3.0900601791053878e-01 +5.9408038084801618e+01 -8.9116643750907690e+02 -4.9745816736849590e+05 -8.4693962679924294e+06 
-1.2000000000000000e+00 -5.9232376939807629e-01 +8.1042273157450904e+00 -3.0803087421114245e-01 +5.9526969142433572e+01 -8.9163562803207935e+02 -4.9782679633237416e+05 -8.4431436917307433e+06 
-1.3000000000000000e+00 -5.9232370452481986e-01 +8.1042149827588386e+00 -3.0647625482770813e-01 +5.9689546827524048e+01 -9.0353138499600573e+02 -4.9839538542048418e+05 -8.3680234983420335e+06 
-1.4000000000000001e+00 -5.9232364947191063e-01 +8.1042006211796362e+00 -3.0432433487648536e-01 +5.9895091312852600e+01 -9.2715691831554614e+02 -4.9916185981418676e+05 -8.2432387294675494e+06 
-1.5000000000000002e+00 -5.9232360451676624e-01 +8.1041843132025360e+00 -3.0155728998506948e-01 +6.0142922719879863e+01 -9.6281543458973874e+02 -5.0012414437702048e+05 -8.0679924242964378e+06 
-1.6000000000000003e+00 -5.9232356993677915e-01 +8.1041661410071679e+00 -2.9815729932261442e-01 +6.0432361648587651e+01 -1.0108100720599332e+03 -5.0128016670250951e+05 -7.8414879507246157e+06 
-1.7000000000000004e+00 -5.9232354600937875e-01 +8.1041461867752194e+00 -2.9410653759244582e-01 +6.0762728706105712e+01 -1.0714440544351069e+03 -5.0262785445192643e+05 -7.5629282688569548e+06 
-1.8000000000000005e+00 -5.9232353301195173e-01 +8.1041245326817748e+00 -2.8938718430554078e-01 +6.1133344716428567e+01 -1.1450205193190425e+03 -5.0416513645231386e+05 -7.2315167347714566e+06 
-1.9000000000000006e+00 -5.9232353122189585e-01 +8.1041012608919303e+00 -2.8398141835830848e-01 +6.1543530850648587e+01 -1.2318426145609114e+03 -5.0588994352609519e+05 -6.8464566581539446e+06 
-2.0000000000000004e+00 -5.9232354091659900e-01 +8.1040764535712082e+00 -2.7787141958942291e-01 +6.1992608322378636e+01 -1.3322134743215624e+03 -5.0780020670079137e+05 -6.4069514026330588e+06 
-2.1000000000000005e+00 -5.9232356224081884e-01 +8.1040502151071987e+00 -2.7104844440732462e-01 +6.2479086249558939e+01 -1.4462544829331905e+03 -5.0988966270453559e+05 -5.9128672628807453e+06 
-2.2000000000000006e+00 -5.9232359481081875e-01 +8.1040227394163722e+00 -2.6354006685386028e-01 +6.2998201578396809e+01 -1.5733548825745265e+03 -5.1213557569034706e+05 -5.3667492803269522e+06 
-2.3000000000000007e+00 -5.9232363811125122e-01 +8.1039942429442711e+00 -2.5538294506232823e-01 +6.3544367574130689e+01 -1.7127195302413595e+03 -5.1451117067181203e+05 -4.7718189438914685e+06 
-2.4000000000000008e+00 -5.9232369162678200e-01 +8.1039649421463551e+00 -2.4661373631261385e-01 +6.4111997184416282e+01 -1.8635532934352016e+03 -5.1698967075463338e+05 -4.1312977063713581e+06 
-2.5000000000000009e+00 -5.9232375484207411e-01 +8.1039350534699057e+00 -2.3726909757464212e-01 +6.4695503579818038e+01 -2.0250610443971841e+03 -5.1954430034442869e+05 -3.4484070037782616e+06 
-2.6000000000000010e+00 -5.9232382724179988e-01 +8.1039047933665103e+00 -2.2738568564717426e-01 +6.5289299787724971e+01 -2.1964476503671140e+03 -5.2214828300221759e+05 -2.7263683178373179e+06 
-2.7000000000000011e+00 -5.9232390831065973e-01 +8.1038743782829865e+00 -2.1700015370214348e-01 +6.5887798932158475e+01 -2.3769180443568630e+03 -5.2477484280081687e+05 -1.9684028257410817e+06 
-2.8000000000000012e+00 -5.9232399753336984e-01 +8.1038440246731760e+00 -2.0614915401991232e-01 +6.6485413907602535e+01 -2.5656771663358645e+03 -5.2739720248084294e+05 -1.1777316980652176e+06 
-2.9000000000000012e+00 -5.9232409439465927e-01 +8.1038139489880603e+00 -1.9486933671709450e-01 +6.7076557635830284e+01 -2.7619299944661780e+03 -5.2998858487808798e+05 -3.5757593426090927e+05 
-3.0000000000000013e+00 -5.9232419837926853e-01 +8.1037843676818788e+00 -1.8319735174266630e-01 +6.7655642922505592e+01 -2.9648814982714534e+03 -5.3252221219145064e+05 +4.8884339444984548e+05 
-3.1000000000000014e+00 -5.9232430897197341e-01 +8.1037554972117665e+00 -1.7116984520554832e-01 +6.8217082414814158e+01 -3.1737367109232459e+03 -5.3497130561190646e+05 +1.3583054940976184e+06 
-3.2000000000000015e+00 -5.9232442565755716e-01 +8.1037275540310869e+00 -1.5882346196180505e-01 +6.8755288823912466e+01 -3.3877006858280511e+03 -5.3730908670597186e+05 +2.2475896566691701e+06 
-3.3000000000000016e+00 -5.9232454792084510e-01 +8.1037007546035991e+00 -1.4619484306976821e-01 +6.9264674491321770e+01 -3.6059785322471989e+03 -5.3950877484231640e+05 +3.1534753951683114e+06 
-3.4000000000000017e+00 -5.9232467524667065e-01 +8.1036753153904453e+00 -1.3332062868777991e-01 +6.9739651771698888e+01 -3.8277753707421134e+03 -5.4154358945608989e+05 +4.0727422614269913e+06 
-3.5000000000000018e+00 -5.9232480711989288e-01 +8.1036514528584558e+00 -1.2023745676639554e-01 +7.0174632774373563e+01 -4.0522963488810838e+03 -5.4338674849455606e+05 +5.0021698939934280e+06 
-3.6000000000000019e+00 -5.9232494302541883e-01 +8.1036293834769371e+00 -1.0698195954531804e-01 +7.0564029474708406e+01 -4.2787467141247098e+03 -5.4501146914487053e+05 +5.9385383829907887e+06 
-3.7000000000000020e+00 -5.9232508244816562e-01 +8.1036093237209279e+00 -9.3590768981853242e-02 +7.0902253578860112e+01 -4.5063317044779305e+03 -5.4639096694124816e+05 +6.8786277338355919e+06 
-3.8000000000000020e+00 -5.9232522487309680e-01 +8.1035914900674939e+00 -8.0100511935808805e-02 +7.1183716656557479e+01 -4.7342566430209827e+03 -5.4749845662008401e+05 +7.8192183246163717e+06 
-3.9000000000000021e+00 -5.9232536978519068e-01 +8.1035760990007208e+00 -6.6547814222377211e-02 +7.1402829977804643e+01 -4.9617268587026592e+03 -5.4830715113310632e+05 +8.7570905227941349e+06 
-4.0000000000000018e+00 -5.9232551666949362e-01 +8.1035633670070268e+00 -5.2969294377113577e-02 +7.1554004645347007e+01 -5.1879478009765953e+03 -5.4879026243651030e+05 +9.6890252204370648e+06 
-4.1000000000000014e+00 -5.9232566507909190e-01 +8.1035534741632720e+00 -3.9405628221836082e-02 +7.1632742490654337e+01 -5.4120893451431366e+03 -5.4892620983741479e+05 +1.0611592429918196e+07 
-4.2000000000000011e+00 -5.9232581483575442e-01 +8.1035464581560195e+00 -2.5913241191140086e-02 +7.1638930675319031e+01 -5.6331986855659115e+03 -5.4871385149946890e+05 +1.1520608793170050e+07 
-4.3000000000000007e+00 -5.9232596582753516e-01 +8.1035423218447811e+00 -1.2552381616196753e-02 +7.1573559698690758e+01 -5.8502973033468515e+03 -5.4815705896861013e+05 +1.2411724586868469e+07 
-4.4000000000000004e+00 -5.9232611794251577e-01 +8.1035410680964510e+00 +6.1670518244379992e-04 +7.1437619838916646e+01 -6.0624067357531585e+03 -5.4725970244771801e+05 +1.3280590347200312e+07 
-4.5000000000000000e+00 -5.9232627106879154e-01 +8.1035426997931577e+00 +1.3533774610277790e-02 +7.1232100927035162e+01 -6.2685485323956191e+03 -5.4602564952194144e+05 +1.4122856668144340e+07 
-4.5999999999999996e+00 -5.9232642509445699e-01 +8.1035472198149190e+00 +2.6138581726883863e-02 +7.0957992850057934e+01 -6.4677442379484510e+03 -5.4445876808118378e+05 +1.4934174123471329e+07 
-4.6999999999999993e+00 -5.9232657990765247e-01 +8.1035546310604065e+00 +3.8370886467866690e-02 +7.0616284943506997e+01 -6.6590154886239980e+03 -5.4256292277840851e+05 +1.5710193721010653e+07 
-4.7999999999999989e+00 -5.9232673539647751e-01 +8.1035649364262117e+00 +5.0170442951953977e-02 +7.0207966605788499e+01 -6.8413838103474018e+03 -5.4034197861009883e+05 +1.6446565944759825e+07 
-4.8999999999999986e+00 -5.9232689144911488e-01 +8.1035781388257604e+00 +6.1477014891261887e-02 +6.9734026735262702e+01 -7.0138709106948609e+03 -5.3779979763530905e+05 +1.7138942142687857e+07 
-4.9999999999999982e+00 -5.9232704795370672e-01 +8.1035942411791897e+00 +7.2230360547282185e-02 +6.9195454037249576e+01 -7.1754983966795508e+03 -5.3494024076055677e+05 +1.7782973192568954e+07 
-5.0999999999999979e+00 -5.9232720479842160e-01 +8.1036132464164385e+00 +8.2370240495880584e-02 +6.8593236931644128e+01 -7.3252879187821363e+03 -5.3176716722679161e+05 +1.8374310178235017e+07 
-5.1999999999999975e+00 -5.9232736187146917e-01 +8.1036351574799070e+00 +9.1836420180077732e-02 +6.7928363471657079e+01 -7.4622612248270716e+03 -5.2828443409078859e+05 +1.8908604661640663e+07 
-5.2999999999999972e+00 -5.9232751906103231e-01 +8.1036599773178359e+00 +1.0056866001034494e-01 +6.7201821548004702e+01 -7.5854399610196688e+03 -5.2449589746442263e+05 +1.9381507704826199e+07 
-5.3999999999999968e+00 -5.9232767625534144e-01 +8.1036877088957358e+00 +1.0850672670441364e-01 +6.6414598544045873e+01 -7.6938459038260035e+03 -5.2040541046240338e+05 +1.9788671019612078e+07 
-5.4999999999999964e+00 -5.9232783334262329e-01 +8.1037183551877963e+00 +1.1559038484968587e-01 +6.5567681595461622e+01 -7.7865007851390019e+03 -5.1601682473754307e+05 +2.0125746095118299e+07 
-5.5999999999999961e+00 -5.9232799021112281e-01 +8.1037519191797234e+00 +1.2175940097737797e-01 +6.4662057510803734e+01 -7.8624263797225358e+03 -5.1133399003191839e+05 +2.0388384642341685e+07 
-5.6999999999999957e+00 -5.9232814674910017e-01 +8.1037884038694781e+00 +1.2695354258167171e-01 +6.3698712742810301e+01 -7.9206444814744000e+03 -5.0636075396728894e+05 +2.0572238465600532e+07 
-5.7999999999999954e+00 -5.9232830284482907e-01 +8.1038278122677845e+00 +1.3111257815442939e-01 +6.2678633381608094e+01 -7.9601769070504397e+03 -5.0110096205363126e+05 +2.0672959489211537e+07 
-5.8999999999999950e+00 -5.9232845838660453e-01 +8.1038701473988137e+00 +1.3417627756495140e-01 +6.1602805125140364e+01 -7.9800455004834848e+03 -4.9555845746622485e+05 +2.0686199773192365e+07 
-5.9999999999999947e+00 -5.9232861326272868e-01 +8.1039154123019657e+00 +1.3608441126113011e-01 +6.0472213250138516e+01 -7.9792721228952241e+03 -4.8973708095051395e+05 +2.0607611474236947e+07 
-6.0999999999999943e+00 -5.9232876736980200e-01 +8.1039635440122755e+00 +1.3679517570370861e-01 +5.9289109874163628e+01 -7.9572202886766709e+03 -4.8364733174850576e+05 +2.0434399604611553e+07 
-6.1999999999999940e+00 -5.9232892062672804e-01 +8.1040141988831920e+00 +1.3634170785316657e-01 +5.8061086793774507e+01 -7.9146419785899816e+03 -4.7732760115975665e+05 +2.0170104089410894e+07 
-6.2999999999999936e+00 -5.9232907295533188e-01 +8.1040669588324956e+00 +1.3477624252829665e-01 +5.6797140351611830e+01 -7.8526426899412018e+03 -4.7082358541017550e+05 +1.9819883954116121e+07 
-6.3999999999999932e+00 -5.9232922427731804e-01 +8.1041214057749240e+00 +1.3215100151088072e-01 +5.5506267075033911e+01 -7.7723276918065094e+03 -4.6418098204698617e+05 +1.9388897200619668e+07 
-6.4999999999999929e+00 -5.9232937451436829e-01 +8.1041771216188607e+00 +1.2851820573956899e-01 +5.4197463777110194e+01 -7.6748022530123453e+03 -4.5744549049659370e+05 +1.8882301875922319e+07 
-6.5999999999999925e+00 -5.9232952358805546e-01 +8.1042336882682839e+00 +1.2393006531237240e-01 +5.2879727499439120e+01 -7.5611714608618067e+03 -4.5066281172971480e+05 +1.8305255234428059e+07 
-6.6999999999999922e+00 -5.9232967141988857e-01 +8.1042906876365866e+00 +1.1843878410756706e-01 +5.1562055122456066e+01 -7.4325403022591654e+03 -4.4387864602390351e+05 +1.7662914107886221e+07 
-6.7999999999999918e+00 -5.9232981793131789e-01 +8.1043477016156960e+00 +1.1209656168269633e-01 +5.0253444257679632e+01 -7.2900137067859359e+03 -4.3713869813725888e+05 +1.6960435126795039e+07 
-6.8999999999999915e+00 -5.9232996304366259e-01 +8.1044043121089882e+00 +1.0495558298827408e-01 +4.8962892304220468e+01 -7.1346963419037711e+03 -4.3048867185389239e+05 +1.6202973721598785e+07 
-6.9999999999999911e+00 -5.9233010667818875e-01 +8.1044601010055199e+00 +9.7068029720240159e-02 +4.7699397195747991e+01 -6.9676928438146433e+03 -4.2397427431880566e+05 +1.5395685263653498e+07 
-7.0999999999999908e+00 -5.9233024875606499e-01 +8.1045146501951439e+00 +8.8486073982884994e-02 +4.6471956964206811e+01 -6.7901076880483542e+03 -4.1764121350651828e+05 +1.4543724423447365e+07 
-7.1999999999999904e+00 -5.9233038919835290e-01 +8.1045675415639771e+00 +7.9261877185764038e-02 +4.5289569887271028e+01 -6.6030451710541711e+03 -4.1153519912394602e+05 +1.3652245091736211e+07 
-7.2999999999999901e+00 -5.9233052792604202e-01 +8.1046183569895458e+00 +6.9447594819929861e-02 +4.4161234621464658e+01 -6.4076095027044557e+03 -4.0570194335106900e+05 +1.2726400822668988e+07 
-7.3999999999999897e+00 -5.9233066486001551e-01 +8.1046666783465700e+00 +5.9095371899233987e-02 +4.3095950039219389e+01 -6.2049047192438975e+03 -4.0018715991397144e+05 +1.1771344420613147e+07 
-7.4999999999999893e+00 -5.9233079992102600e-01 +8.1047120875021825e+00 +4.8257340543284864e-02 +4.2102715379726781e+01 -5.9960346405948203e+03 -3.9503656498344830e+05 +1.0792227744929122e+07 
-7.5999999999999890e+00 -5.9233093302974826e-01 +8.1047541663248790e+00 +3.6985626059181820e-02 +4.1190529982790281e+01 -5.7821029832969971e+03 -3.9029587561583926e+05 +9.7942022405811101e+06 
-7.6999999999999886e+00 -5.9233106410673675e-01 +8.1047924966682174e+00 +2.5332342500289019e-02 +4.0368393779090390e+01 -5.5642132815069899e+03 -3.8601081264222047e+05 +8.7824185765476637e+06 
-7.7999999999999883e+00 -5.9233119307244952e-01 +8.1048266603843757e+00 +1.3349594887373166e-02 +3.9645306882642224e+01 -5.3434689244576266e+03 -3.8222709825849935e+05 +7.7620268120228741e+06 
-7.8999999999999879e+00 -5.9233131984720810e-01 +8.1048562393176748e+00 +1.0894750193806780e-03 +3.9030269812597410e+01 -5.1209730832556552e+03 -3.7899045740812924e+05 +6.7381760662465412e+06 
-7.9999999999999876e+00 -5.9233144435122431e-01 +8.1048808153077978e+00 -1.1395935580641621e-02 +3.8532283368155021e+01 -4.8978287614885057e+03 -3.7634661691538891e+05 +5.7160147464795439e+06 
-8.0999999999999872e+00 -5.9233156661154485e-01 +8.1049001087746895e+00 -2.4052309518287039e-02 +3.8157159333583323e+01 -4.6751195056321076e+03 -3.7432501731928863e+05 +4.7005335537024504e+06 
-8.1999999999999869e+00 -5.9233168711326245e-01 +8.1049144036178120e+00 -3.6819590025606898e-02 +3.7897663328611429e+01 -4.4537634759092616e+03 -3.7288879595086275e+05 +3.6956332033124920e+06 
-8.2999999999999865e+00 -5.9233180646361283e-01 +8.1049241273850043e+00 -4.9637142959388987e-02 +3.7743213766013639e+01 -4.2346143794704503e+03 -3.7198415609317075e+05 +2.7048219631275581e+06 
-8.3999999999999861e+00 -5.9233192526991119e-01 +8.1049297076240414e+00 -6.2444325283495673e-02 +3.7683228974535147e+01 -4.0185260702680789e+03 -3.7155730039056606e+05 +1.7316087345029798e+06 
-8.4999999999999858e+00 -5.9233204413955820e-01 +8.1049315718514290e+00 -7.5180485570784522e-02 +3.7707128129369458e+01 -3.8063525292945915e+03 -3.7155443623483804e+05 +7.7950292211335339e+05 
-8.5999999999999854e+00 -5.9233216368003772e-01 +8.1049301475866233e+00 -8.7784964381416336e-02 +3.7804330222328112e+01 -3.5989478598142960e+03 -3.7192176969185425e+05 -1.4798557979989145e+05 
-8.6999999999999851e+00 -5.9233228449894104e-01 +8.1049258623203837e+00 -1.0019709059501507e-01 +3.7964255009880652e+01 -3.3971663568204481e+03 -3.7260551108645980e+05 -1.0473460604599526e+06 
-8.7999999999999847e+00 -5.9233240720396008e-01 +8.1049191435319408e+00 -1.1235618285077614e-01 +3.8176322491937086e+01 -3.2018624778850672e+03 -3.7355187191748328e+05 -1.9150671356893997e+06 
-8.8999999999999844e+00 -5.9233253240288641e-01 +8.1049104186866145e+00 -1.2420154959848619e-01 +3.8429952977923442e+01 -3.0138908411749640e+03 -3.7470706522751326e+05 -2.7476367600649046e+06 
-8.9999999999999840e+00 -5.9233266070360002e-01 +8.1049001152287889e+00 -1.3567249046237259e-01 +3.8714567297362365e+01 -2.8341062000119059e+03 -3.7601730684546969e+05 -3.5415423468365385e+06 
-9.0999999999999837e+00 -5.9233279271411976e-01 +8.1048886605900048e+00 -1.4670829065886437e-01 +3.9019586558295664e+01 -2.6633635421329282e+03 -3.7742881397073693e+05 -4.2932703158848267e+06 
-9.1999999999999833e+00 -5.9233292904255741e-01 +8.1048764821798116e+00 -1.5724822562902685e-01 +3.9334432400670138e+01 -2.5025180104159331e+03 -3.7888780661090795e+05 -4.9993064463376151e+06 
-9.2999999999999829e+00 -5.9233307029712123e-01 +8.1048640073923615e+00 -1.6723156182687857e-01 +3.9648526818885422e+01 -2.3524248769768615e+03 -3.8034050658265169e+05 -5.6561360306676542e+06 
-9.3999999999999826e+00 -5.9233321708618258e-01 +8.1048516635998045e+00 -1.7659754801726357e-01 +3.9951292327692528e+01 -2.2139397136092402e+03 -3.8173313841953664e+05 -6.2602430491712019e+06 
-9.4999999999999822e+00 -5.9233337001820119e-01 +8.1048398781618580e+00 -1.8528542411959664e-01 +4.0232151701413954e+01 -2.0879182227115525e+03 -3.8301192788676149e+05 -6.8081109796484020e+06 
-9.5999999999999819e+00 -5.9233352970176345e-01 +8.1048290784114272e+00 -1.9323441766132099e-01 +4.0480528385332491e+01 -1.9752162983251021e+03 -3.8412310436885146e+05 -7.2962225229210500e+06 
-9.6999999999999815e+00 -5.9233369674561076e-01 +8.1048196916660480e+00 -2.0038373978483320e-01 +4.0685846141091545e+01 -1.8766901053971535e+03 -3.8501289874664496e+05 -7.7210592161392346e+06 
-9.7999999999999812e+00 -5.9233387175856700e-01 +8.1048121452213060e+00 -2.0667259330803933e-01 +4.0837529263370790e+01 -1.7931959293532877e+03 -3.8562754471870372e+05 -8.0791021449105591e+06 
-9.8999999999999808e+00 -5.9233405534963679e-01 +8.1048068663504278e+00 -2.1204016280966803e-01 +4.0925002567287436e+01 -1.7255903519577903e+03 -3.8591327867187920e+05 -8.3668311371857850e+06 
-9.9999999999999805e+00 -5.9233424812793101e-01 +8.1048042823070254e+00 -2.1642562220461090e-01 +4.0937691305447721e+01 -1.6747301157324321e+03 -3.8581633910743083e+05 -8.5807253810555674e+06 
-1.0099999999999980e+01 -5.9233445056456291e-01 +8.1048047064649964e+00 -2.1978839461897307e-01 +4.0868017220022125e+01 -1.6411429069923768e+03 -3.8529829945809074e+05 -8.7186723838501181e+06 
