# field on trajectory
# s[mm] rx[mm] ry[mm] rz[mm] bx[T] by[T] bz[T]
0.0000000000000000e+00 +7.9199999999999999e+00 +0.0000000000000000e+00 +0.0000000000000000e+00 -3.0441742021096153e-02 -5.6646527693645587e-01 +5.6460268021775156e-03
1.0000000000000001e-01 +7.9199997169633356e+00 +0.0000000000000000e+00 +9.9999999999465933e-02 -3.0441725782736535e-02 -5.6646503700090312e-01 +5.6460380639058892e-03
2.0000000000000001e-01 +7.9199988678535016e+00 +0.0000000000000000e+00 +1.9999999999572748e-01 -3.0441698201321598e-02 -5.6646480092669182e-01 +5.6460464355865547e-03
3.0000000000000004e-01 +7.9199974526707342e+00 +0.0000000000000000e+00 +2.9999999998558025e-01 -3.0441660573988907e-02 -5.6646456959536617e-01 +5.6460521531356269e-03
4.0000000000000002e-01 +7.9199954714152643e+00 +0.0000000000000000e+00 +3.9999999996581986e-01 -3.0441614197882418e-02 -5.6646434388846179e-01 +5.6460554524707281e-03
5.0000000000000000e-01 +7.9199929240873175e+00 +0.0000000000000000e+00 +4.9999999993324196e-01 -3.0441560370152162e-02 -5.6646412468750740e-01 +5.6460565695109193e-03
5.9999999999999998e-01 +7.9199898106871132e+00 +0.0000000000000000e+00 +5.9999999988464214e-01 -3.0441500387953610e-02 -5.6646391287402376e-01 +5.6460557401765915e-03
6.9999999999999996e-01 +7.9199861312148627e+00 +0.0000000000000000e+00 +6.9999999981681604e-01 -3.0441435548447391e-02 -5.6646370932952483e-01 +5.6460532003893959e-03
7.9999999999999993e-01 +7.9199818856707696e+00 +0.0000000000000000e+00 +7.9999999972655933e-01 -3.0441367148798693e-02 -5.6646351493551772e-01 +5.6460491860721605e-03
8.9999999999999991e-01 +7.9199770740550282e+00 +0.0000000000000000e+00 +8.9999999961066757e-01 -3.0441296486176890e-02 -5.6646333057350318e-01 +5.6460439331487960e-03
9.9999999999999989e-01 +7.9199716963678224e+00 +0.0000000000000000e+00 +9.9999999946593643e-01 -3.0441224857755026e-02 -5.6646315712497586e-01 +5.6460376775442174e-03
1.0999999999999999e+00 +7.9199657526093263e+00 +0.0000000000000000e+00 +1.0999999992891616e+00 -3.0441153560709398e-02 -5.6646299547142343e-01 +5.6460306551842625e-03
1.2000000000000000e+00 +7.9199592427797008e+00 +0.0000000000000000e+00 +1.1999999990771386e+00 -3.0441083892219025e-02 -5.6646284649432921e-01 +5.6460231019955908e-03
1.3000000000000000e+00 +7.9199521668790958e+00 +0.0000000000000000e+00 +1.2999999988266633e+00 -3.0441017149465257e-02 -5.6646271107516977e-01 +5.6460152539056195e-03
1.4000000000000001e+00 +7.9199445249076454e+00 +0.0000000000000000e+00 +1.3999999985345311e+00 -3.0440954629631301e-02 -5.6646259009541766e-01 +5.6460073468424269e-03
1.5000000000000002e+00 +7.9199363168654724e+00 +0.0000000000000000e+00 +1.4999999981975378e+00 -3.0440897629901740e-02 -5.6646248443653924e-01 +5.6459996167346682e-03
1.6000000000000003e+00 +7.9199275427526814e+00 +0.0000000000000000e+00 +1.5999999978124790e+00 -3.0440847447462057e-02 -5.6646239497999717e-01 +5.6459922995114892e-03
1.7000000000000004e+00 +7.9199182025693622e+00 +0.0000000000000000e+00 +1.6999999973761504e+00 -3.0440805379498212e-02 -5.6646232260724916e-01 +5.6459856311024525e-03
1.8000000000000005e+00 +7.9199082963155876e+00 +0.0000000000000000e+00 +1.7999999968853475e+00 -3.0440772723196157e-02 -5.6646226819974932e-01 +5.6459798474374403e-03
1.9000000000000006e+00 +7.9198978239914126e+00 +0.0000000000000000e+00 +1.8999999963368661e+00 -3.0440750775741359e-02 -5.6646223263894679e-01 +5.6459751844465684e-03
2.0000000000000004e+00 +7.9198867855968720e+00 +0.0000000000000000e+00 +1.9999999957275019e+00 -3.0440740834318396e-02 -5.6646221680628817e-01 +5.6459718780601121e-03
2.1000000000000005e+00 +7.9198751811319825e+00 +0.0000000000000000e+00 +2.0999999950540502e+00 -3.0440743848052114e-02 -5.6646222116361045e-01 +5.6459701451385264e-03
2.2000000000000006e+00 +7.9198630105967407e+00 +0.0000000000000000e+00 +2.1999999943133073e+00 -3.0440759373829944e-02 -5.6646224449432669e-01 +5.6459701262625240e-03
2.3000000000000007e+00 +7.9198502739911225e+00 +0.0000000000000000e+00 +2.2999999935020683e+00 -3.0440786620472386e-02 -5.6646228516224684e-01 +5.6459719429423922e-03
2.4000000000000008e+00 +7.9198369713150889e+00 +0.0000000000000000e+00 +2.3999999926171287e+00 -3.0440824796789705e-02 -5.6646234153118646e-01 +5.6459757166877110e-03
2.5000000000000009e+00 +7.9198231025685839e+00 +0.0000000000000000e+00 +2.4999999916552844e+00 -3.0440873111580759e-02 -5.6646241196496694e-01 +5.6459815690072150e-03
2.6000000000000010e+00 +7.9198086677515374e+00 +0.0000000000000000e+00 +2.5999999906133313e+00 -3.0440930773631723e-02 -5.6646249482741551e-01 +5.6459896214086560e-03
2.7000000000000011e+00 +7.9197936668638675e+00 +0.0000000000000000e+00 +2.6999999894880649e+00 -3.0440996991714955e-02 -5.6646258848236841e-01 +5.6459999953986694e-03
2.8000000000000012e+00 +7.9197780999054812e+00 +0.0000000000000000e+00 +2.7999999882762805e+00 -3.0441070974587731e-02 -5.6646269129367022e-01 +5.6460128124826356e-03
2.9000000000000012e+00 +7.9197619668762762e+00 +0.0000000000000000e+00 +2.8999999869747737e+00 -3.0441151930991086e-02 -5.6646280162517559e-01 +5.6460281941645421e-03
3.0000000000000013e+00 +7.9197452677761433e+00 +0.0000000000000000e+00 +2.9999999855803403e+00 -3.0441239069648542e-02 -5.6646291784074942e-01 +5.6460462619468436e-03
3.1000000000000014e+00 +7.9197280026049670e+00 +0.0000000000000000e+00 +3.0999999840897763e+00 -3.0441331599264994e-02 -5.6646303830426936e-01 +5.6460671373303297e-03
3.2000000000000015e+00 +7.9197101713626274e+00 +0.0000000000000000e+00 +3.1999999824998766e+00 -3.0441428728525385e-02 -5.6646316137962460e-01 +5.6460909418139804e-03
3.3000000000000016e+00 +7.9196917740490020e+00 +0.0000000000000000e+00 +3.2999999808074372e+00 -3.0441529666093602e-02 -5.6646328543071944e-01 +5.6461177968948400e-03
3.4000000000000017e+00 +7.9196728106639673e+00 +0.0000000000000000e+00 +3.3999999790092539e+00 -3.0441633620611225e-02 -5.6646340882147217e-01 +5.6461478240678676e-03
3.5000000000000018e+00 +7.9196532812074016e+00 +0.0000000000000000e+00 +3.4999999771021222e+00 -3.0441739800696296e-02 -5.6646352991581705e-01 +5.6461811448258051e-03
3.6000000000000019e+00 +7.9196331856791842e+00 +0.0000000000000000e+00 +3.5999999750828375e+00 -3.0441847414942175e-02 -5.6646364707770525e-01 +5.6462178806590407e-03
3.7000000000000020e+00 +7.9196125240791986e+00 +0.0000000000000000e+00 +3.6999999729481954e+00 -3.0441955671916276e-02 -5.6646375867110565e-01 +5.6462581530554697e-03
3.8000000000000020e+00 +7.9195912964073347e+00 +0.0000000000000000e+00 +3.7999999706949916e+00 -3.0442063780158866e-02 -5.6646386306000596e-01 +5.6463020835003548e-03
3.9000000000000021e+00 +7.9195695026634887e+00 +0.0000000000000000e+00 +3.8999999683200217e+00 -3.0442170948181906e-02 -5.6646395860841359e-01 +5.6463497934761981e-03
4.0000000000000018e+00 +7.9195471428475654e+00 +0.0000000000000000e+00 +3.9999999658200815e+00 -3.0442276384467781e-02 -5.6646404368035663e-01 +5.6464014044625864e-03
4.1000000000000014e+00 +7.9195242169594815e+00 +0.0000000000000000e+00 +4.0999999631919666e+00 -3.0442379423689974e-02 -5.6646411707758881e-01 +5.6464569606471246e-03
4.2000000000000011e+00 +7.9195007249991640e+00 +0.0000000000000000e+00 +4.1999999604324723e+00 -3.0442479905393862e-02 -5.6646417935269655e-01 +5.6465161970592655e-03
4.3000000000000007e+00 +7.9194766669665508e+00 +0.0000000000000000e+00 +4.2999999575383940e+00 -3.0442577795358954e-02 -5.6646423149598135e-01 +5.6465787714392703e-03
4.4000000000000004e+00 +7.9194520428615913e+00 +0.0000000000000000e+00 +4.3999999545065274e+00 -3.0442673059382339e-02 -5.6646427449775172e-01 +5.6466443415276422e-03
4.5000000000000000e+00 +7.9194268526842428e+00 +0.0000000000000000e+00 +4.4999999513336686e+00 -3.0442765663280351e-02 -5.6646430934832526e-01 +5.6467125650652029e-03
4.5999999999999996e+00 +7.9194010964344717e+00 +0.0000000000000000e+00 +4.5999999480166132e+00 -3.0442855572890282e-02 -5.6646433703802845e-01 +5.6467830997931579e-03
4.6999999999999993e+00 +7.9193747741122502e+00 +0.0000000000000000e+00 +4.6999999445521565e+00 -3.0442942754072031e-02 -5.6646435855719601e-01 +5.6468556034531703e-03
4.7999999999999989e+00 +7.9193478857175581e+00 +0.0000000000000000e+00 +4.7999999409370941e+00 -3.0443027172709764e-02 -5.6646437489617130e-01 +5.6469297337874199e-03
4.8999999999999986e+00 +7.9193204312503793e+00 +0.0000000000000000e+00 +4.8999999371682215e+00 -3.0443108794713698e-02 -5.6646438704530711e-01 +5.6470051485386866e-03
4.9999999999999982e+00 +7.9192924107107032e+00 +0.0000000000000000e+00 +4.9999999332423348e+00 -3.0443187586021644e-02 -5.6646439599496479e-01 +5.6470815054504011e-03
5.0999999999999979e+00 +7.9192638240985218e+00 +0.0000000000000000e+00 +5.0999999291562297e+00 -3.0443263512600776e-02 -5.6646440273551479e-01 +5.6471584622667286e-03
5.1999999999999975e+00 +7.9192346714138280e+00 +0.0000000000000000e+00 +5.1999999249067006e+00 -3.0443336540449305e-02 -5.6646440825733657e-01 +5.6472356767326270e-03
5.2999999999999972e+00 +7.9192049526566182e+00 +0.0000000000000000e+00 +5.2999999204905439e+00 -3.0443406635598119e-02 -5.6646441355081967e-01 +5.6473128065939295e-03
5.3999999999999968e+00 +7.9191746678268879e+00 +0.0000000000000000e+00 +5.3999999159045560e+00 -3.0443473764112536e-02 -5.6646441960636229e-01 +5.6473895095973999e-03
5.4999999999999964e+00 +7.9191438169246320e+00 +0.0000000000000000e+00 +5.4999999111455313e+00 -3.0443537892093871e-02 -5.6646442741437175e-01 +5.6474654434908022e-03
5.5999999999999961e+00 +7.9191123999498432e+00 +0.0000000000000000e+00 +5.5999999062102663e+00 -3.0443598985681272e-02 -5.6646443796526635e-01 +5.6475402660229827e-03
5.6999999999999957e+00 +7.9190804169025117e+00 +0.0000000000000000e+00 +5.6999999010955564e+00 -3.0443657011053248e-02 -5.6646445224947251e-01 +5.6476136349439205e-03
5.7999999999999954e+00 +7.9190478677826244e+00 +0.0000000000000000e+00 +5.7999998957981971e+00 -3.0443711934429456e-02 -5.6646447125742760e-01 +5.6476852080048160e-03
5.8999999999999950e+00 +7.9190147525901633e+00 +0.0000000000000000e+00 +5.8999998903149837e+00 -3.0443763722072359e-02 -5.6646449597957826e-01 +5.6477546429581464e-03
5.9999999999999947e+00 +7.9189810713251045e+00 +0.0000000000000000e+00 +5.9999998846427118e+00 -3.0443812340288881e-02 -5.6646452740638154e-01 +5.6478215975577411e-03
6.0999999999999943e+00 +7.9189468239874179e+00 +0.0000000000000000e+00 +6.0999998787781777e+00 -3.0443857773257140e-02 -5.6646456638666598e-01 +5.6478858214436285e-03
6.1999999999999940e+00 +7.9189120105770661e+00 +0.0000000000000000e+00 +6.1999998727181760e+00 -3.0443900076483576e-02 -5.6646461320271246e-01 +5.6479474317975712e-03
6.2999999999999936e+00 +7.9188766310940029e+00 +0.0000000000000000e+00 +6.2999998664595029e+00 -3.0443939323293177e-02 -5.6646466799515993e-01 +5.6480066376877226e-03
6.3999999999999932e+00 +7.9188406855381741e+00 +0.0000000000000000e+00 +6.3999998599989540e+00 -3.0443975586998660e-02 -5.6646473090464322e-01 +5.6480636481832189e-03
6.4999999999999929e+00 +7.9188041739095185e+00 +0.0000000000000000e+00 +6.4999998533333248e+00 -3.0444008940899724e-02 -5.6646480207179206e-01 +5.6481186723542111e-03
6.5999999999999925e+00 +7.9187670962079668e+00 +0.0000000000000000e+00 +6.5999998464594114e+00 -3.0444039458282317e-02 -5.6646488163723152e-01 +5.6481719192719151e-03
6.6999999999999922e+00 +7.9187294524334400e+00 +0.0000000000000000e+00 +6.6999998393740086e+00 -3.0444067212417842e-02 -5.6646496974158167e-01 +5.6482235980086547e-03
6.7999999999999918e+00 +7.9186912425858509e+00 +0.0000000000000000e+00 +6.7999998320739126e+00 -3.0444092276562331e-02 -5.6646506652545503e-01 +5.6482739176378968e-03
6.8999999999999915e+00 +7.9186524666651046e+00 +0.0000000000000000e+00 +6.8999998245559189e+00 -3.0444114723955810e-02 -5.6646517212945902e-01 +5.6483230872343120e-03
6.9999999999999911e+00 +7.9186131246710962e+00 +0.0000000000000000e+00 +6.9999998168168229e+00 -3.0444134627821442e-02 -5.6646528669419327e-01 +5.6483713158737986e-03
7.0999999999999908e+00 +7.9185732166037130e+00 +0.0000000000000000e+00 +7.0999998088534202e+00 -3.0444152061364801e-02 -5.6646541036025033e-01 +5.6484188126335469e-03
7.1999999999999904e+00 +7.9185327424628325e+00 +0.0000000000000000e+00 +7.1999998006625061e+00 -3.0444167097773069e-02 -5.6646554326821419e-01 +5.6484657865920615e-03
7.2999999999999901e+00 +7.9184917022483230e+00 +0.0000000000000000e+00 +7.2999997922408761e+00 -3.0444179810214300e-02 -5.6646568555866106e-01 +5.6485124468292243e-03
7.3999999999999897e+00 +7.9184500959600443e+00 +0.0000000000000000e+00 +7.3999997835853257e+00 -3.0444190271836671e-02 -5.6646583737215805e-01 +5.6485590024263300e-03
7.4999999999999893e+00 +7.9184079235978455e+00 +0.0000000000000000e+00 +7.4999997746926512e+00 -3.0444198555767660e-02 -5.6646599884926319e-01 +5.6486056624661298e-03
7.5999999999999890e+00 +7.9183651851615666e+00 +0.0000000000000000e+00 +7.5999997655596481e+00 -3.0444204735113337e-02 -5.6646617013052381e-01 +5.6486526360328667e-03
7.6999999999999886e+00 +7.9183218806510371e+00 +0.0000000000000000e+00 +7.6999997561831108e+00 -3.0444208882957544e-02 -5.6646635135647772e-01 +5.6487001322123439e-03
7.7999999999999883e+00 +7.9182780100660786e+00 +0.0000000000000000e+00 +7.7999997465598359e+00 -3.0444211072361196e-02 -5.6646654266765195e-01 +5.6487483600919444e-03
7.8999999999999879e+00 +7.9182335734065008e+00 +0.0000000000000000e+00 +7.8999997366866186e+00 -3.0444211376361441e-02 -5.6646674420456178e-01 +5.6487975287606860e-03
7.9999999999999876e+00 +7.9181885706721031e+00 +0.0000000000000000e+00 +7.9999997265602545e+00 -3.0444209867970910e-02 -5.6646695610771058e-01 +5.6488478473092586e-03
8.0999999999999872e+00 +7.9181430018626759e+00 +0.0000000000000000e+00 +8.0999997161775390e+00 -3.0444206591906872e-02 -5.6646717839587402e-01 +5.6488994981378840e-03
8.1999999999999869e+00 +7.9180968669779981e+00 +0.0000000000000000e+00 +8.1999997055352676e+00 -3.0444201479788165e-02 -5.6646741060094352e-01 +5.6489525568770259e-03
8.2999999999999865e+00 +7.9180501660178395e+00 +0.0000000000000000e+00 +8.2999996946302357e+00 -3.0444194434961519e-02 -5.6646765213308359e-01 +5.6490070724611605e-03
8.3999999999999861e+00 +7.9180028989819604e+00 +0.0000000000000000e+00 +8.3999996834592388e+00 -3.0444185360774451e-02 -5.6646790240244804e-01 +5.6490630938208393e-03
8.4999999999999858e+00 +7.9179550658701121e+00 +0.0000000000000000e+00 +8.4999996720190722e+00 -3.0444174160575346e-02 -5.6646816081918105e-01 +5.6491206698825527e-03
8.5999999999999854e+00 +7.9179066666820379e+00 +0.0000000000000000e+00 +8.5999996603065316e+00 -3.0444160737713527e-02 -5.6646842679341636e-01 +5.6491798495686071e-03
8.6999999999999851e+00 +7.9178577014174731e+00 +0.0000000000000000e+00 +8.6999996483184123e+00 -3.0444144995539324e-02 -5.6646869973527647e-01 +5.6492406817969911e-03
8.7999999999999847e+00 +7.9178081700761478e+00 +0.0000000000000000e+00 +8.7999996360515098e+00 -3.0444126837404172e-02 -5.6646897905487348e-01 +5.6493032154812670e-03
8.8999999999999844e+00 +7.9177580726577830e+00 +0.0000000000000000e+00 +8.8999996235026195e+00 -3.0444106166660694e-02 -5.6646926416230736e-01 +5.6493674995304168e-03
8.9999999999999840e+00 +7.9177074091620963e+00 +0.0000000000000000e+00 +8.9999996106685369e+00 -3.0444082886662737e-02 -5.6646955446766645e-01 +5.6494335828487351e-03
9.0999999999999837e+00 +7.9176561795887999e+00 +0.0000000000000000e+00 +9.0999995975460575e+00 -3.0444056900765536e-02 -5.6646984938102707e-01 +5.6495015143356924e-03
9.1999999999999833e+00 +7.9176043839375998e+00 +0.0000000000000000e+00 +9.1999995841319748e+00 -3.0444028112325709e-02 -5.6647014831245246e-01 +5.6495713428858178e-03
9.2999999999999829e+00 +7.9175520222081994e+00 +0.0000000000000000e+00 +9.2999995704230862e+00 -3.0443996424701390e-02 -5.6647045067199375e-01 +5.6496431173885522e-03
9.3999999999999826e+00 +7.9174990944002976e+00 +0.0000000000000000e+00 +9.3999995564161871e+00 -3.0443961741252280e-02 -5.6647075586968776e-01 +5.6497168867281370e-03
9.4999999999999822e+00 +7.9174456005135925e+00 +0.0000000000000000e+00 +9.4999995421080730e+00 -3.0443923965339785e-02 -5.6647106331555885e-01 +5.6497926997834897e-03
9.5999999999999819e+00 +7.9173915405477775e+00 +0.0000000000000000e+00 +9.5999995274955392e+00 -3.0443883000327035e-02 -5.6647137241961665e-01 +5.6498706054280562e-03
9.6999999999999815e+00 +7.9173369145025454e+00 +0.0000000000000000e+00 +9.6999995125753813e+00 -3.0443838749579000e-02 -5.6647168259185676e-01 +5.6499506525297021e-03
9.7999999999999812e+00 +7.9172817223775889e+00 +0.0000000000000000e+00 +9.7999994973443929e+00 -3.0443791116462577e-02 -5.6647199324226005e-01 +5.6500328899505778e-03
9.8999999999999808e+00 +7.9172259641725988e+00 +0.0000000000000000e+00 +9.8999994817993713e+00 -3.0443740004346690e-02 -5.6647230378079272e-01 +5.6501173665469894e-03
9.9999999999999805e+00 +7.9171696398872671e+00 +0.0000000000000000e+00 +9.9999994659371101e+00 -3.0443685316602319e-02 -5.6647261361740497e-01 +5.6502041311692680e-03
1.0099999999999980e+01 +7.9171127495212854e+00 +0.0000000000000000e+00 +1.0099999449754407e+01 -3.0443627063581963e-02 -5.6647292232755897e-01 +5.6502931735796886e-03
1.0199999999999980e+01 +7.9170552930743474e+00 +0.0000000000000000e+00 +1.0199999433248056e+01 -3.0443565683569446e-02 -5.6647323014881423e-01 +5.6503842472076541e-03
1.0299999999999979e+01 +7.9169972705461467e+00 +0.0000000000000000e+00 +1.0299999416414853e+01 -3.0443501721847989e-02 -5.6647353748422846e-01 +5.6504770464062748e-03
1.0399999999999979e+01 +7.9169386819363785e+00 +0.0000000000000000e+00 +1.0399999399251591e+01 -3.0443435723719135e-02 -5.6647384473682394e-01 +5.6505712655376987e-03
1.0499999999999979e+01 +7.9168795272447383e+00 +0.0000000000000000e+00 +1.0499999381755069e+01 -3.0443368234503262e-02 -5.6647415230958631e-01 +5.6506665989733652e-03
1.0599999999999978e+01 +7.9168198064709197e+00 +0.0000000000000000e+00 +1.0599999363922080e+01 -3.0443299799539955e-02 -5.6647446060546358e-01 +5.6507627410942399e-03
1.0699999999999978e+01 +7.9167595196146161e+00 +0.0000000000000000e+00 +1.0699999345749420e+01 -3.0443230964188484e-02 -5.6647477002736557e-01 +5.6508593862910654e-03
1.0799999999999978e+01 +7.9166986666755212e+00 +0.0000000000000000e+00 +1.0799999327233884e+01 -3.0443162273828272e-02 -5.6647508097816268e-01 +5.6509562289646098e-03
1.0899999999999977e+01 +7.9166372476533260e+00 +0.0000000000000000e+00 +1.0899999308372267e+01 -3.0443094273859286e-02 -5.6647539386068668e-01 +5.6510529635259155e-03
1.0999999999999977e+01 +7.9165752625477195e+00 +0.0000000000000000e+00 +1.0999999289161366e+01 -3.0443027509702486e-02 -5.6647570907772671e-01 +5.6511492843965257e-03
1.1099999999999977e+01 +7.9165127113583882e+00 +0.0000000000000000e+00 +1.1099999269597975e+01 -3.0442962526800284e-02 -5.6647602703203215e-01 +5.6512448860087531e-03
1.1199999999999976e+01 +7.9164495940850168e+00 +0.0000000000000000e+00 +1.1199999249678887e+01 -3.0442899870616956e-02 -5.6647634812630898e-01 +5.6513394628059169e-03
1.1299999999999976e+01 +7.9163859107272865e+00 +0.0000000000000000e+00 +1.1299999229400902e+01 -3.0442840086639122e-02 -5.6647667276322089e-01 +5.6514327092425931e-03
1.1399999999999975e+01 +7.9163216612848748e+00 +0.0000000000000000e+00 +1.1399999208760812e+01 -3.0442783720376121e-02 -5.6647700134538703e-01 +5.6515243197848520e-03
1.1499999999999975e+01 +7.9162568457574558e+00 +0.0000000000000000e+00 +1.1499999187755414e+01 -3.0442731317360479e-02 -5.6647733427538227e-01 +5.6516139889105131e-03
1.1599999999999975e+01 +7.9161914641446982e+00 +0.0000000000000000e+00 +1.1599999166381501e+01 -3.0442683423148341e-02 -5.6647767195573540e-01 +5.6517014111093933e-03
1.1699999999999974e+01 +7.9161255164462672e+00 +0.0000000000000000e+00 +1.1699999144635871e+01 -3.0442640583319931e-02 -5.6647801478893023e-01 +5.6517862808835541e-03
1.1799999999999974e+01 +7.9160590026618216e+00 +0.0000000000000000e+00 +1.1799999122515318e+01 -3.0442603343479924e-02 -5.6647836317740197e-01 +5.6518682927475389e-03
