# multipoles
# s[mm] polynom_b[n=0][T/m^n] polynom_b[n=1][T/m^n] polynom_b[n=2][T/m^n] polynom_b[n=3][T/m^n] polynom_b[n=4][T/m^n] polynom_b[n=5][T/m^n] polynom_b[n=6][T/m^n] 
+0.0000000000000000e+00 -5.3644173483011259e-01 +7.3492454871277264e+00 -4.6263417012273073e-01 -4.2335571677194856e+01 +1.7746641673452959e+03 -4.2213306679177540e+03 -1.3321335304016059e+07 
+1.0000000000000001e-01 -5.3644179112289059e-01 +7.3492808551086730e+00 -4.6391412076631211e-01 -4.3109639642887345e+01 +1.7963521094405687e+03 -7.4961804044195344e+02 -1.3448394924857410e+07 
+2.0000000000000001e-01 -5.3644185662913357e-01 +7.3493170309760627e+00 -4.6459323758029686e-01 -4.3920775683799839e+01 +1.8080992900159245e+03 +2.9641827864430938e+03 -1.3533046006342668e+07 
+3.0000000000000004e-01 -5.3644193129121032e-01 +7.3493537053660907e+00 -4.6468743670573709e-01 -4.4761347523898323e+01 +1.8100437022025735e+03 +6.8816771736264236e+03 -1.3575461171953306e+07 
+4.0000000000000002e-01 -5.3644201505148015e-01 +7.3493905689151040e+00 -4.6421263529147894e-01 -4.5623722895228752e+01 +1.8023233580608874e+03 +1.0964470540570688e+04 -1.3575813138967425e+07 
+5.0000000000000000e-01 -5.3644210785229884e-01 +7.3494273122593814e+00 -4.6318475061491976e-01 -4.6500269523030511e+01 +1.7850762686451001e+03 +1.5174168252715346e+04 -1.3534274611596927e+07 
+5.9999999999999998e-01 -5.3644220963601374e-01 +7.3494636260291202e+00 -4.6161970014737486e-01 -4.7383354943827598e+01 +1.7584404426932440e+03 +1.9472374542326153e+04 -1.3451018270456366e+07 
+6.9999999999999996e-01 -5.3644232034499584e-01 +7.3494992008535522e+00 -4.5953339826710643e-01 -4.8265346664545355e+01 +1.7225538280217659e+03 +2.3820693454612327e+04 -1.3326216502006896e+07 
+7.9999999999999993e-01 -5.3644243992157115e-01 +7.3495337273624637e+00 -4.5694176417373278e-01 -4.9138612195997766e+01 +1.6775544583617534e+03 +2.8180729006474503e+04 -1.3160042088544451e+07 
+8.9999999999999991e-01 -5.3644256830810344e-01 +7.3495668961823419e+00 -4.5386071202160533e-01 -4.9995518936038827e+01 +1.6235802652065800e+03 +3.2514084498511605e+04 -1.2952667308580436e+07 
+9.9999999999999989e-01 -5.3644270544690786e-01 +7.3495983979409507e+00 -4.5030616128942508e-01 -5.0828434316980605e+01 +1.5607692757464615e+03 +3.6782363391195351e+04 -1.2704264884036463e+07 
+1.0999999999999999e+00 -5.3644285128030977e-01 +7.3496279232621564e+00 -4.4629402935120799e-01 -5.1629725640456478e+01 +1.4892594679426502e+03 +4.0947168316919408e+04 -1.2415007277438048e+07 
+1.2000000000000000e+00 -5.3644300575059567e-01 +7.3496551627726712e+00 -4.4184023772851677e-01 -5.2391760270511412e+01 +1.4091888907399123e+03 +4.4970102177221648e+04 -1.2085067268998142e+07 
+1.3000000000000000e+00 -5.3644316880005860e-01 +7.3496798070944696e+00 -4.3696070619211475e-01 -5.3106905426729561e+01 +1.3206955503434690e+03 +4.8812766978335727e+04 -1.1714617410063719e+07 
+1.4000000000000001e+00 -5.3644334037097052e-01 +7.3497015468527396e+00 -4.3167135633740167e-01 -5.3767528393677004e+01 +1.2239174782597970e+03 +5.2436764985284804e+04 -1.1303830347320836e+07 
+1.5000000000000002e+00 -5.3644352040556820e-01 +7.3497200726752023e+00 -4.2598811347616644e-01 -5.4365996510352659e+01 +1.1189927675876588e+03 +5.5803698674806998e+04 -1.0852878995403016e+07 
+1.6000000000000003e+00 -5.3644370884606263e-01 +7.3497350751824753e+00 -4.1992690440373054e-01 -5.4894676897607489e+01 +1.0060595216866029e+03 +5.8875169178993085e+04 -1.0361936267988633e+07 
+1.7000000000000004e+00 -5.3644390563466138e-01 +7.3497462450021294e+00 -4.1350365617621565e-01 -5.5345936846067481e+01 +8.8525584554436136e+02 +6.1612778463292707e+04 -9.8311750786973517e+06 
+1.8000000000000005e+00 -5.3644411071351561e-01 +7.3497532727599690e+00 -4.0673430106991887e-01 -5.5712143570831699e+01 +7.5671992291780998e+02 +6.3978127930946473e+04 -9.2607686574941464e+06 
+1.9000000000000006e+00 -5.3644432402476916e-01 +7.3497558490837269e+00 -3.9963477134018677e-01 -5.5985664324157554e+01 +6.2058992507249934e+02 +6.5932819083592025e+04 -8.6508901412328705e+06 
+2.0000000000000004e+00 -5.3644454551049803e-01 +7.3497536646016295e+00 -3.9222100651723313e-01 -5.6158866334066985e+01 +4.7700414847974457e+02 +6.7438453102568237e+04 -8.0017132263491526e+06 
+2.1000000000000005e+00 -5.3644477504861854e-01 +7.3497465180218997e+00 -3.8451489355351998e-01 -5.6226603062088898e+01 +3.2625425609398610e+02 +6.8468576731722584e+04 -7.3142193396011554e+06 
+2.2000000000000006e+00 -5.3644501226393371e-01 +7.3497346424513736e+00 -3.7656308110903153e-01 -5.6193769829749023e+01 +1.6926921793819966e+02 +6.9045063901572299e+04 -6.5927341202218905e+06 
+2.3000000000000007e+00 -5.3644525671893895e-01 +7.3497183801518835e+00 -3.6841864118721668e-01 -5.6067797600248738e+01 +7.1431393555874516e+00 +6.9202010572883330e+04 -5.8424469054239700e+06 
+2.4000000000000008e+00 -5.3644550797613066e-01 +7.3496980733831734e+00 -3.6013464601334400e-01 -5.5856117293443447e+01 -1.5902986881503028e+02 +6.8973512478834382e+04 -5.0685470625524232e+06 
+2.5000000000000009e+00 -5.3644576559800505e-01 +7.3496740644108307e+00 -3.5176416774511843e-01 -5.5566160027438883e+01 -3.2815569608338154e+02 +6.8393666554241325e+04 -4.2762239612966953e+06 
+2.6000000000000010e+00 -5.3644602914704964e-01 +7.3496466955064781e+00 -3.4336028005773411e-01 -5.5205357115120435e+01 -4.9914019826825449e+02 +6.7496570886419271e+04 -3.4706671462925929e+06 
+2.7000000000000011e+00 -5.3644629818579259e-01 +7.3496163089379305e+00 -3.3497605197377373e-01 -5.4781139792436441e+01 -6.7088931410346902e+02 +6.6316323191608841e+04 -2.6570657853986924e+06 
+2.8000000000000012e+00 -5.3644657227674875e-01 +7.3495832469840217e+00 -3.2666455454866500e-01 -5.4300939637452998e+01 -8.4230893888889443e+02 +6.4887023210531377e+04 -1.8406092669170613e+06 
+2.9000000000000012e+00 -5.3644685098245182e-01 +7.3495478519246689e+00 -3.1847885738928650e-01 -5.3772188311341573e+01 -1.0123049868427026e+03 +6.3242771282578193e+04 -1.0264869145588673e+06 
+3.0000000000000013e+00 -5.3644713386546972e-01 +7.3495104660454968e+00 -3.1047202608454155e-01 -5.3202317675539945e+01 -1.1797834428511444e+03 +6.1417668988027501e+04 -2.1988773320777467e+05 
+3.1000000000000014e+00 -5.3644742048834837e-01 +7.3494714316329075e+00 -3.0269713003801924e-01 -5.2598759656934838e+01 -1.3436502077728028e+03 +5.9445818384894592e+04 +5.7399883826859971e+05 
+3.2000000000000015e+00 -5.3644771041368422e-01 +7.3494310909862266e+00 -2.9520723319433512e-01 -5.1968946601058121e+01 -1.5028112765626436e+03 +5.7361324066750465e+04 +1.3499837811694229e+06 
+3.3000000000000016e+00 -5.3644800320411168e-01 +7.3493897863999802e+00 -2.8805539584701395e-01 -5.1320310775460030e+01 -1.6561726995455135e+03 +5.5198290329734606e+04 +2.1028782982320455e+06 
+3.4000000000000017e+00 -5.3644829842224884e-01 +7.3493478601835180e+00 -2.8129468106334243e-01 -5.0660284925699791e+01 -1.8026404673553932e+03 +5.2990824355240955e+04 +2.8274932893126477e+06 
+3.5000000000000018e+00 -5.3644859563075264e-01 +7.3493056546470461e+00 -2.7497814863927289e-01 -4.9996301886050063e+01 -1.9411206122064216e+03 +5.0773034009809126e+04 +3.5186397903632945e+06 
+3.6000000000000019e+00 -5.3644889439232368e-01 +7.3492635121065737e+00 -2.6915885433838782e-01 -4.9335794718113014e+01 -2.0705192299206383e+03 +4.8579028624973369e+04 +4.1711291049574441e+06 
+3.7000000000000020e+00 -5.3644919426969939e-01 +7.3492217748872388e+00 -2.6388984986069491e-01 -4.8686196818045303e+01 -2.1897424810578814e+03 +4.6442919661806562e+04 +4.7797728051628666e+06 
+3.8000000000000020e+00 -5.3644949482561988e-01 +7.3491807853197848e+00 -2.5922418904046524e-01 -4.8054941808804401e+01 -2.2976964627341795e+03 +4.4398820060117476e+04 +5.3393820975793088e+06 
+3.9000000000000021e+00 -5.3644979562288064e-01 +7.3491408857415736e+00 -2.5521491978080563e-01 -4.7449463584148553e+01 -2.3932873700676987e+03 +4.2480844545752603e+04 +5.8447686115106689e+06 
+4.0000000000000018e+00 -5.3645009622431583e-01 +7.3491024184979370e+00 -2.5191508703181842e-01 -4.6877196345130677e+01 -2.4754214328056273e+03 +4.0723109826660635e+04 +6.2907440792962471e+06 
+4.1000000000000014e+00 -5.3645039633575775e-01 +7.3490656611833050e+00 -2.4935852375032155e-01 -4.6343938193076241e+01 -2.5433481338022775e+03 +3.9151078898254222e+04 +6.6736197446425809e+06 
+4.2000000000000011e+00 -5.3645069622878283e-01 +7.3490306253275195e+00 -2.4750130877630808e-01 -4.5848803500878866e+01 -2.5977172067095876e+03 +3.7755148482560733e+04 +6.9958542079173950e+06 
+4.3000000000000007e+00 -5.3645099631493465e-01 +7.3489972540977133e+00 -2.4627983424645886e-01 -4.5389198340115939e+01 -2.6395356678575386e+03 +3.6516821975914434e+04 +7.2614818212780692e+06 
+4.4000000000000004e+00 -5.3645129700577443e-01 +7.3489654906559956e+00 -2.4563048999927992e-01 -4.4962528659568569e+01 -2.6698105760641097e+03 +3.5417602209995021e+04 +7.4745371472037677e+06 
+4.5000000000000000e+00 -5.3645159871284021e-01 +7.3489352781579269e+00 -2.4548967002128491e-01 -4.4566200232308816e+01 -2.6895489039319646e+03 +3.4438991112678472e+04 +7.6390543317758515e+06 
+4.5999999999999996e+00 -5.3645190184767622e-01 +7.3489065597455694e+00 -2.4579376848779563e-01 -4.4197618470745354e+01 -2.6997576115315069e+03 +3.3562488693034262e+04 +7.7590674514176073e+06 
+4.6999999999999993e+00 -5.3645220682179540e-01 +7.3488792785580985e+00 -2.4647918397706284e-01 -4.3854188717433104e+01 -2.7014435747528260e+03 +3.2769594682367562e+04 +7.8386101968817906e+06 
+4.7999999999999989e+00 -5.3645251404672245e-01 +7.3488533777221257e+00 -2.4748231492710895e-01 -4.3533315969504230e+01 -2.6956136607384083e+03 +3.2041806953894535e+04 +7.8817162020927472e+06 
+4.8999999999999986e+00 -5.3645282393397253e-01 +7.3488288003554922e+00 -2.4873956120429000e-01 -4.3232404997632685e+01 -2.6832747084187704e+03 +3.1360622251121273e+04 +7.8924189803883368e+06 
+4.9999999999999982e+00 -5.3645313689502627e-01 +7.3488054895638779e+00 -2.5018732831245472e-01 -4.2948860236060604e+01 -2.6654334408664308e+03 +3.0707535511913997e+04 +7.8747514879801413e+06 
+5.0999999999999979e+00 -5.3645345334137717e-01 +7.3487833884439899e+00 -2.5176202137081455e-01 -4.2680085874734232e+01 -2.6430965805837650e+03 +3.0064040418158536e+04 +7.8327466764838900e+06 
+5.1999999999999975e+00 -5.3645377368450253e-01 +7.3487624400799492e+00 -2.5340004799110194e-01 -4.2423485767563598e+01 -2.6172708000768425e+03 +2.9411628899881794e+04 +7.7704372712042984e+06 
+5.2999999999999972e+00 -5.3645409833587521e-01 +7.3487425875422243e+00 -2.5503781795665237e-01 -4.2176463381310342e+01 -2.5889627186803655e+03 +2.8731790786902522e+04 +7.6918557325118585e+06 
+5.3999999999999968e+00 -5.3645442770690843e-01 +7.3487237738923179e+00 -2.5661174878408788e-01 -4.1936421950596781e+01 -2.5591788080893048e+03 +2.8006014767626173e+04 +7.6010338372499328e+06 
+5.4999999999999964e+00 -5.3645476220907429e-01 +7.3487059421758110e+00 -2.5805825233687746e-01 -4.1700764261324935e+01 -2.5289256362044157e+03 +2.7215787101579954e+04 +7.5020038112988770e+06 
+5.5999999999999961e+00 -5.3645510225376791e-01 +7.3486890354231402e+00 -2.5931375107807791e-01 -4.1466892681163067e+01 -2.4992095643069638e+03 +2.6342591819803241e+04 +7.3987969072860796e+06 
+5.6999999999999957e+00 -5.3645544825240465e-01 +7.3486729966516302e+00 -2.6031466581542678e-01 -4.1232209217980810e+01 -2.4710369774520072e+03 +2.5367911067321103e+04 +7.2954444910894819e+06 
+5.7999999999999954e+00 -5.3645580061637521e-01 +7.3486577688652552e+00 -2.6099742176288415e-01 -4.0994115505323258e+01 -2.4454141718969759e+03 +2.4273225001211278e+04 +7.1959775192055721e+06 
+5.8999999999999950e+00 -5.3645615975703576e-01 +7.3486432950514695e+00 -2.6129844969699934e-01 -4.0750012721075905e+01 -2.4233473276440850e+03 +2.3040011363174181e+04 +7.1044263894181009e+06 
+5.9999999999999947e+00 -5.3645652608576544e-01 +7.3486295181764474e+00 -2.6115417843756583e-01 -4.0497301451115916e+01 -2.4058426601665806e+03 +2.1649744685901831e+04 +7.0248216918989383e+06 
+6.0999999999999943e+00 -5.3645689987168887e-01 +7.3486163959438668e+00 -2.6051981471419849e-01 -4.0234202070124127e+01 -2.3936500800013687e+03 +2.0090038651677609e+04 +6.9602464662296437e+06 
+6.1999999999999940e+00 -5.3645728082786948e-01 +7.3486039495783366e+00 -2.5942446171754502e-01 -3.9962081834923431e+01 -2.3864988384158719e+03 +1.8371953401771116e+04 +6.9099336547788819e+06 
+6.2999999999999936e+00 -5.3645766853131960e-01 +7.3485922174141445e+00 -2.5791544408164335e-01 -3.9683067323868435e+01 -2.3838636757020731e+03 +1.6512181607195333e+04 +6.8721373723411718e+06 
+6.3999999999999932e+00 -5.3645806255906703e-01 +7.3485812377884629e+00 -2.5604008429042296e-01 -3.9399285110017622e+01 -2.3852193759389229e+03 +1.4527415694944228e+04 +6.8451119370941855e+06 
+6.4999999999999929e+00 -5.3645846248814977e-01 +7.3485710490533700e+00 -2.5384570300498971e-01 -3.9112862097409867e+01 -2.3900407604413062e+03 +1.2434349724198129e+04 +6.8271118404780580e+06 
+6.5999999999999925e+00 -5.3645886789564445e-01 +7.3485616895689416e+00 -2.5137961554755345e-01 -3.8825925325510511e+01 -2.3978027570096165e+03 +1.0249678267792449e+04 +6.8163920840883944e+06 
+6.6999999999999922e+00 -5.3645927835864593e-01 +7.3485531977028220e+00 -2.4868913480072910e-01 -3.8540601961087027e+01 -2.4079803388174041e+03 +7.9900963761511994e+03 +6.8112078688393328e+06 
+6.7999999999999918e+00 -5.3645969345422917e-01 +7.3485456118355330e+00 -2.4582157568499868e-01 -3.8259019430002276e+01 -2.4200484466888706e+03 +5.6723002733516687e+03 +6.8098142489435747e+06 
+6.8999999999999915e+00 -5.3646011275953276e-01 +7.3485389703606909e+00 -2.4282424436650143e-01 -3.7983305418026099e+01 -2.4334821909339862e+03 +3.3129873498667653e+03 +6.8104670783659201e+06 
+6.9999999999999911e+00 -5.3646053585170550e-01 +7.3485333116798639e+00 -2.3974444538989811e-01 -3.7715587739084320e+01 -2.4477567167564412e+03 +9.2885544398115223e+02 +6.8114223750509880e+06 
+7.0999999999999908e+00 -5.3646096230790152e-01 +7.3485286742086879e+00 -2.3662948222450789e-01 -3.7457994487381590e+01 -2.4623471924015280e+03 -1.4633963504131716e+03 +6.8109362589136371e+06 
+7.1999999999999904e+00 -5.3646139170530793e-01 +7.3485250963750808e+00 -2.3352665321208074e-01 -3.7212653994964576e+01 -2.4767288914662795e+03 -3.8470679011189277e+03 +6.8072653576860353e+06 
+7.2999999999999901e+00 -5.3646182362111705e-01 +7.3485226166197402e+00 -2.3048325576068129e-01 -3.6981694828618735e+01 -2.4903771065515639e+03 -6.2054581089071517e+03 +6.7986663757913979e+06 
+7.3999999999999897e+00 -5.3646225763257760e-01 +7.3485212733981982e+00 -2.2754657930026623e-01 -3.6767245856059994e+01 -2.5027672888643351e+03 -8.5218645068440583e+03 +6.7833967752978867e+06 
+7.4999999999999893e+00 -5.3646269331693897e-01 +7.3485211051771913e+00 -2.2476391282147276e-01 -3.6571436136219809e+01 -2.5133749021935928e+03 -1.0779583910285332e+04 +6.7597140729421154e+06 
+7.5999999999999890e+00 -5.3646313025147641e-01 +7.3485221504431264e+00 -2.2218254094782397e-01 -3.6396395146205990e+01 -2.5216754997183616e+03 -1.2961911153282585e+04 +6.7258762088382626e+06 
+7.6999999999999886e+00 -5.3646356801349770e-01 +7.3485244476892424e+00 -2.1984974337715402e-01 -3.6244252426863014e+01 -2.5271447353289736e+03 -1.5052141091445104e+04 +6.6801416030772533e+06 
+7.7999999999999883e+00 -5.3646400618032186e-01 +7.3485280354328948e+00 -2.1781279805627568e-01 -3.6117138058129235e+01 -2.5292582997599425e+03 -1.7033565934061735e+04 +6.6207688421775801e+06 
+7.8999999999999879e+00 -5.3646444432931339e-01 +7.3485329522010439e+00 -2.1611897616631001e-01 -3.6017182254000673e+01 -2.5274920202291073e+03 -1.8889477527030489e+04 +6.5460171630358435e+06 
+7.9999999999999876e+00 -5.3646488203783782e-01 +7.3485392365402840e+00 -2.1481554745990109e-01 -3.5946515621654349e+01 -2.5213217570798856e+03 -2.0603165879761669e+04 +6.4541459609259907e+06 
+8.0999999999999872e+00 -5.3646531907498241e-01 +7.3485469025559622e+00 -2.1393424713251544e-01 -3.5906632225088778e+01 -2.5104179849675788e+03 -2.2161145435591898e+04 +6.3441732265604679e+06 
+8.1999999999999869e+00 -5.3646575597212143e-01 +7.3485558658305052e+00 -2.1344398807305703e-01 -3.5896652775565983e+01 -2.4952498794480957e+03 -2.3562148982330826e+04 +6.2182569405759526e+06 
+8.2999999999999865e+00 -5.3646619345020363e-01 +7.3485660170203237e+00 -2.1329778133119934e-01 -3.5915144621011017e+01 -2.4764912531130353e+03 -2.4807811907124578e+04 +6.0793665582037643e+06 
+8.3999999999999861e+00 -5.3646663223017621e-01 +7.3485772467774186e+00 -2.1344863581867643e-01 -3.5960675040078897e+01 -2.4548159802325777e+03 -2.5899770088513204e+04 +5.9304718760964321e+06 
+8.4999999999999858e+00 -5.3646707303298313e-01 +7.3485894457383356e+00 -2.1384955887928661e-01 -3.6031810920488127e+01 -2.4308979851549007e+03 -2.6839661699325261e+04 +5.7745429681297690e+06 
+8.5999999999999854e+00 -5.3646751657957636e-01 +7.3486025045339112e+00 -2.1445355481850803e-01 -3.6127119064661024e+01 -2.4054112712678175e+03 -2.7629125364919448e+04 +5.6145503264947701e+06 
+8.6999999999999851e+00 -5.3646796359085969e-01 +7.3486163137838423e+00 -2.1521363162908805e-01 -3.6245165994659054e+01 -2.3790297944121862e+03 -2.8269801417525152e+04 +5.4534642608826347e+06 
+8.7999999999999847e+00 -5.3646841478777296e-01 +7.3486307641001805e+00 -2.1608279041392808e-01 -3.6384518095501129e+01 -2.3524276642028585e+03 -2.8763330944838817e+04 +5.2942558573848847e+06 
+8.8999999999999844e+00 -5.3646887089120676e-01 +7.3486457460802637e+00 -2.1701403602291100e-01 -3.6543741391779399e+01 -2.3262789444028185e+03 -2.9111357147912400e+04 +5.1398960355875874e+06 
+8.9999999999999840e+00 -5.3646933262207652e-01 +7.3486611503134096e+00 -2.1796036791230333e-01 -3.6721401746886031e+01 -2.3012578233284794e+03 -2.9315524171197580e+04 +4.9933563492844468e+06 
+9.0999999999999837e+00 -5.3646980070126693e-01 +7.3486768673765770e+00 -2.1887478669976329e-01 -3.6916064741718110e+01 -2.2780384929004481e+03 -2.9377477807991596e+04 +4.8576084195500221e+06 
+9.1999999999999833e+00 -5.3647027584965812e-01 +7.3486927878350166e+00 -2.1971029134203957e-01 -3.7126295701708287e+01 -2.2572952021063948e+03 -2.9298865319431825e+04 +4.7356241911917934e+06 
+9.2999999999999829e+00 -5.3647075878812533e-01 +7.3487088022447882e+00 -2.2041987835719010e-01 -3.7350659757753647e+01 -2.2397022731359421e+03 -2.9081335122970366e+04 +4.6303760089310594e+06 
+9.3999999999999826e+00 -5.3647125023751530e-01 +7.3487248011454493e+00 -2.2095654536480744e-01 -3.7587721652554045e+01 -2.2259340333645346e+03 -2.8726537869758384e+04 +4.5448362939742794e+06 
+9.4999999999999822e+00 -5.3647175091868560e-01 +7.3487406750683677e+00 -2.2127328564073703e-01 -3.7836045977933885e+01 -2.2166649220853383e+03 -2.8236125090096026e+04 +4.4819780591444299e+06 
+9.5999999999999819e+00 -5.3647226155247485e-01 +7.3487563145264874e+00 -2.2132309267634262e-01 -3.8094196874726059e+01 -2.2125693973927305e+03 -2.7611750936510663e+04 +4.4447744486219753e+06 
+9.6999999999999815e+00 -5.3647278285969069e-01 +7.3487716100279075e+00 -2.2105896000551481e-01 -3.8360738440479665e+01 -2.2143219521602573e+03 -2.6855069798274275e+04 +4.4361988463415094e+06 
+9.7999999999999812e+00 -5.3647331556116140e-01 +7.3487864520594490e+00 -2.2043387618312268e-01 -3.8634234240689175e+01 -2.2225971998294262e+03 -2.5967739170401455e+04 +4.4592252599165877e+06 
+9.8999999999999808e+00 -5.3647386037768163e-01 +7.3488007310984020e+00 -2.1940083064238358e-01 -3.8913247672872110e+01 -2.2380697681379183e+03 -2.4951417485825212e+04 +4.5168278250425402e+06 
+9.9999999999999805e+00 -5.3647441803003493e-01 +7.3488143376043373e+00 -2.1791281178401412e-01 -3.9196341644193176e+01 -2.2614143252824924e+03 -2.3807766373361894e+04 +4.6119808865068797e+06 
+1.0099999999999980e+01 -5.3647498900815149e-01 +7.3488271672473333e+00 -2.1593364203453269e-01 -3.9481471127058072e+01 -2.2931123673556936e+03 -2.2544597434471088e+04 +4.7466487946072454e+06 
