# multipoles
# s[mm] polynom_b[n=0][T/m^n] polynom_b[n=1][T/m^n] polynom_b[n=2][T/m^n] polynom_b[n=3][T/m^n] polynom_b[n=4][T/m^n] polynom_b[n=5][T/m^n] polynom_b[n=6][T/m^n] 
+0.0000000000000000e+00 -5.9497799318213207e-01 +8.1224211547975891e+00 -1.7148378939966964e+00 +2.8318249450843417e+01 +2.0677160654328592e+04 -3.4798948095787392e+05 -8.5876705379583150e+07 
-1.0000000000000001e-01 -5.9497812748354850e-01 +8.1224384884371545e+00 -1.7057683766202276e+00 +2.7657263998767636e+01 +2.0496758095794776e+04 -3.4351064798983856e+05 -8.5046063771612898e+07 
-2.0000000000000001e-01 -5.9497826409607113e-01 +8.1224567295636287e+00 -1.6968344904542907e+00 +2.7033685018529471e+01 +2.0315230102369609e+04 -3.3933271672656119e+05 -8.4201834001591504e+07 
-3.0000000000000004e-01 -5.9497840252851286e-01 +8.1224757691063854e+00 -1.6880784859757385e+00 +2.6447546896679086e+01 +2.0133663062032374e+04 -3.3545307356122258e+05 -8.3349619161277041e+07 
-4.0000000000000002e-01 -5.9497854228968383e-01 +8.1224954979934996e+00 -1.6795426146075254e+00 +2.5898884075722744e+01 +1.9953143381236376e+04 -3.3186910529017629e+05 -8.2495022422708824e+07 
-5.0000000000000000e-01 -5.9497868288838018e-01 +8.1225158071570842e+00 -1.6712691307507326e+00 +2.5387730901406648e+01 +1.9774757526532128e+04 -3.2857819823269255e+05 -8.1643647243404612e+07 
-5.9999999999999998e-01 -5.9497882383342815e-01 +8.1225365875316342e+00 -1.6633002855853543e+00 +2.4914121648189180e+01 +1.9599591905214274e+04 -3.2557773830557178e+05 -8.0801096796756774e+07 
-6.9999999999999996e-01 -5.9497896463361655e-01 +8.1225577300539165e+00 -1.6556783355535198e+00 +2.4478090537135028e+01 +1.9428733022925084e+04 -3.2286511117306398e+05 -7.9972974708611950e+07 
-7.9999999999999993e-01 -5.9497910479774641e-01 +8.1225791256588131e+00 -1.6484455362460479e+00 +2.4079671843053113e+01 +1.9263267373184033e+04 -3.2043770282825356e+05 -7.9164884551687270e+07 
-8.9999999999999991e-01 -5.9497924383460921e-01 +8.1226006652910829e+00 -1.6416441449109371e+00 +2.3718899535815400e+01 +1.9104281479685422e+04 -3.1829289744686370e+05 -7.8382430028300524e+07 
-9.9999999999999989e-01 -5.9497938125300431e-01 +8.1226222398925891e+00 -1.6353164177446364e+00 +2.3395807672697888e+01 +1.8952861844954863e+04 -3.1642807974674564e+05 -7.7631214729905456e+07 
-1.0999999999999999e+00 -5.9497951656170789e-01 +8.1226437404081668e+00 -1.6295046148256287e+00 +2.3110430191497951e+01 +1.8810095049340827e+04 -3.1484063364909973e+05 -7.6916842620202944e+07 
-1.2000000000000000e+00 -5.9497964926950397e-01 +8.1226650577887280e+00 -1.6242509945118377e+00 +2.2862800830670420e+01 +1.8677067634028583e+04 -3.1352794187427580e+05 -7.6244917451503396e+07 
-1.3000000000000000e+00 -5.9497977888517251e-01 +8.1226860829806284e+00 -1.6195978166143659e+00 +2.2652953437066891e+01 +1.8554866172758480e+04 -3.1248738769880816e+05 -7.5621043135999233e+07 
-1.4000000000000001e+00 -5.9497990491747477e-01 +8.1227067069412762e+00 -1.6155873430332082e+00 +2.2480921493249802e+01 +1.8444577275731550e+04 -3.1171635216656007e+05 -7.5050823742666557e+07 
-1.5000000000000002e+00 -5.9498002687517948e-01 +8.1227268206243330e+00 -1.6122618345402122e+00 +2.2346738556803267e+01 +1.8347287530886282e+04 -3.1121221665436024e+05 -7.4539863225640431e+07 
-1.6000000000000003e+00 -5.9498014426704404e-01 +8.1227463149889463e+00 -1.6096635530029015e+00 +2.2250437972450452e+01 +1.8264083543183890e+04 -3.1097236115232174e+05 -7.4093765601224363e+07 
-1.7000000000000004e+00 -5.9498025660181186e-01 +8.1227650809956859e+00 -1.6078347620414724e+00 +2.2192052990702862e+01 +1.8196051952155885e+04 -3.1099416494263546e+05 -7.3718135047189936e+07 
-1.8000000000000005e+00 -5.9498036338822680e-01 +8.1227830096089040e+00 -1.6068177246510431e+00 +2.2171616689507768e+01 +1.8144279381087923e+04 -3.1127500611714489e+05 -7.3418575645526186e+07 
-1.9000000000000006e+00 -5.9498046413501360e-01 +8.1227999917957181e+00 -1.6066547059703289e+00 +2.2189162013158999e+01 +1.8109852491583642e+04 -3.1181226183363248e+05 -7.3200691644709811e+07 
-2.0000000000000004e+00 -5.9498055835091013e-01 +8.1228159185260598e+00 -1.6073879688944841e+00 +2.2244721744348176e+01 +1.8093857901341707e+04 -3.1260330806197185e+05 -7.3070087076408297e+07 
-2.1000000000000005e+00 -5.9498064580076138e-01 +8.1228306939500339e+00 -1.6090394708719129e+00 +2.2338003635486050e+01 +1.8096974631874440e+04 -3.1364316362955724e+05 -7.3030451010099605e+07 
-2.2000000000000006e+00 -5.9498072727429296e-01 +8.1228442715479989e+00 -1.6115500615112592e+00 +2.2467557805100601e+01 +1.8118254323117071e+04 -3.1491810002765333e+05 -7.3077837873297423e+07 
-2.3000000000000007e+00 -5.9498080381749574e-01 +8.1228566162841922e+00 -1.6148403468006574e+00 +2.2631680449492556e+01 +1.8156342542540831e+04 -3.1641236997932347e+05 -7.3206399823490933e+07 
-2.4000000000000008e+00 -5.9498087647637887e-01 +8.1228676931257073e+00 -1.6188309290406875e+00 +2.2828667674248432e+01 +1.8209884779775202e+04 -3.1811022562475485e+05 -7.3410288631882727e+07 
-2.5000000000000009e+00 -5.9498094629692533e-01 +8.1228774670334225e+00 -1.6234424139215213e+00 +2.3056815723068354e+01 +1.8277526590959089e+04 -3.1999591975010029e+05 -7.3683656395696074e+07 
-2.6000000000000010e+00 -5.9498101432514305e-01 +8.1228859029605900e+00 -1.6285954021472839e+00 +2.3314421040837679e+01 +1.8357913427639538e+04 -3.2205370621529809e+05 -7.4020654695416182e+07 
-2.7000000000000011e+00 -5.9498108160701879e-01 +8.1228929658581261e+00 -1.6342104970415317e+00 +2.3599780112714289e+01 +1.8449690792633421e+04 -3.2426783898434188e+05 -7.4415435365742698e+07 
-2.8000000000000012e+00 -5.9498114918851552e-01 +8.1228986206748903e+00 -1.6402083030408412e+00 +2.3911189462748609e+01 +1.8551504200061034e+04 -3.2662257215239474e+05 -7.4862150277838036e+07 
-2.9000000000000012e+00 -5.9498121811562499e-01 +8.1229028323495882e+00 -1.6465094206993811e+00 +2.4246945872965739e+01 +1.8661999090965593e+04 -3.2910216115309013e+05 -7.5354950965783611e+07 
-3.0000000000000013e+00 -5.9498128943432615e-01 +8.1229055658111786e+00 -1.6530344503265368e+00 +2.4605346400363441e+01 +1.8779820893297401e+04 -3.3169086294432776e+05 -7.5887988891619384e+07 
-3.1000000000000014e+00 -5.9498136419057612e-01 +8.1229067859910646e+00 -1.6597039941285776e+00 +2.4984688000532469e+01 +1.8903615067256240e+04 -3.3437293374724657e+05 -7.6455415669971243e+07 
-3.2000000000000015e+00 -5.9498144343034043e-01 +8.1229064578043673e+00 -1.6664386518559240e+00 +2.5383268071351310e+01 +1.9032027021282884e+04 -3.3713263221466850e+05 -7.7051382670286953e+07 
-3.3000000000000016e+00 -5.9498152819960348e-01 +8.1229045461635625e+00 -1.6731590200438569e+00 +2.5799384088745047e+01 +1.9163702100202594e+04 -3.3995421738305100e+05 -7.7670040966182187e+07 
-3.4000000000000017e+00 -5.9498161954430917e-01 +8.1229010159671269e+00 -1.6797856976565966e+00 +2.6231333887850319e+01 +1.9297285681175090e+04 -3.4282195018136682e+05 -7.8305541763486698e+07 
-3.5000000000000018e+00 -5.9498171851040516e-01 +8.1228958321058613e+00 -1.6862392826182475e+00 +2.6677415528140109e+01 +1.9431423123747278e+04 -3.4572009277248196e+05 -7.8952036207953647e+07 
-3.6000000000000019e+00 -5.9498182614385964e-01 +8.1228889594655556e+00 -1.6924403688039689e+00 +2.7135927180813997e+01 +1.9564759702243278e+04 -3.4863290780137159e+05 -7.9603675033158138e+07 
-3.7000000000000020e+00 -5.9498194349061684e-01 +8.1228803629138735e+00 -1.6983095509131123e+00 +2.7605167541102460e+01 +1.9695940698746414e+04 -3.5154466087206354e+05 -8.0254609008911714e+07 
-3.8000000000000020e+00 -5.9498207159662531e-01 +8.1228700073131535e+00 -1.7037674214088547e+00 +2.8083435425420038e+01 +1.9823611345288980e+04 -3.5443961811855965e+05 -8.0898988665866733e+07 
-3.9000000000000021e+00 -5.9498221150782382e-01 +8.1228578575104322e+00 -1.7087345728286787e+00 +2.8569030086401405e+01 +1.9946416873339378e+04 -3.5730204810361966e+05 -8.1530964548460945e+07 
-4.0000000000000018e+00 -5.9498236427015683e-01 +8.1228438783414774e+00 -1.7131315942568985e+00 +2.9060251088278442e+01 +2.0063002435597333e+04 -3.6011622105921758e+05 -8.2144686813129023e+07 
-4.1000000000000014e+00 -5.9498253067972595e-01 +8.1228280831227302e+00 -1.7169005153371981e+00 +2.9555168360175770e+01 +2.0172315087282175e+04 -3.6286749457003776e+05 -8.2735439907440901e+07 
-4.2000000000000011e+00 -5.9498271052865925e-01 +8.1228106805149878e+00 -1.7200711065991838e+00 +3.0051023973056019e+01 +2.0274528694844033e+04 -3.6554644204814004e+05 -8.3303078461476088e+07 
-4.3000000000000007e+00 -5.9498290335691240e-01 +8.1227919283685583e+00 -1.7226955773667865e+00 +3.0544878467258986e+01 +2.0370128615780901e+04 -3.6814517861584539e+05 -8.3848607178038970e+07 
-4.4000000000000004e+00 -5.9498310870444526e-01 +8.1227720845469289e+00 -1.7248261375637322e+00 +3.1033792072629140e+01 +2.0459600231278917e+04 -3.7065581789979950e+05 -8.4373030905289918e+07 
-4.5000000000000000e+00 -5.9498332611127613e-01 +8.1227514069203224e+00 -1.7265149917787874e+00 +3.1514824890242934e+01 +2.0543428831632744e+04 -3.7307047310478496e+05 -8.4877354080811903e+07 
-4.5999999999999996e+00 -5.9498355511737933e-01 +8.1227301533690941e+00 -1.7278143524521277e+00 +3.1985036791747927e+01 +2.0622099874793927e+04 -3.7538125640702411e+05 -8.5362581986851573e+07 
-4.6999999999999993e+00 -5.9498379526279699e-01 +8.1227085817802820e+00 -1.7287764254447753e+00 +3.2441487535572726e+01 +2.0696098707674828e+04 -3.7758027970397827e+05 -8.5829719409493357e+07 
-4.7999999999999989e+00 -5.9498404608761046e-01 +8.1226869500595829e+00 -1.7294534138063877e+00 +3.2881236423509975e+01 +2.0765910637917106e+04 -3.7965965262117796e+05 -8.6279770981760740e+07 
-4.8999999999999986e+00 -5.9498430713186223e-01 +8.1226655161196906e+00 -1.7298975283247755e+00 +3.3301342631119795e+01 +2.0832021139357010e+04 -3.8161148443700367e+05 -8.6713742171298683e+07 
-4.9999999999999982e+00 -5.9498457793568338e-01 +8.1226445378847814e+00 -1.7301609710479520e+00 +3.3698865104789313e+01 +2.0894915537940065e+04 -3.8342788355537987e+05 -8.7132637785975620e+07 
-5.0999999999999979e+00 -5.9498485803920020e-01 +8.1226242732964504e+00 -1.7302959471903328e+00 +3.4070862371361073e+01 +2.0955079236986749e+04 -3.8510095636043034e+05 -8.7537463041952282e+07 
-5.1999999999999975e+00 -5.9498514698258242e-01 +8.1226049803061944e+00 -1.7303546594763566e+00 +3.4414392773518372e+01 +2.1012997612605053e+04 -3.8662280864773376e+05 -8.7929223071418062e+07 
-5.2999999999999972e+00 -5.9498544430601663e-01 +8.1225869168821827e+00 -1.7303893117373979e+00 +3.4726514273263824e+01 +2.1069156084075927e+04 -3.8798554448826733e+05 -8.8308923263639197e+07 
-5.3999999999999968e+00 -5.9498574954974592e-01 +8.1225703410092365e+00 -1.7304521040195735e+00 +3.5004284470216916e+01 +2.1124040021334888e+04 -3.8918126638289331e+05 -8.8677568826164901e+07 
-5.4999999999999964e+00 -5.9498606225402040e-01 +8.1225555106839984e+00 -1.7305952381146621e+00 +3.5244760727296210e+01 +2.1178134846502358e+04 -3.9020207597801019e+05 -8.9036165256548837e+07 
-5.5999999999999961e+00 -5.9498638195912834e-01 +8.1225426839245998e+00 -1.7308709150966362e+00 +3.5444999901775773e+01 +2.1231925994164558e+04 -3.9104007253391435e+05 -8.9385718172956452e+07 
-5.6999999999999957e+00 -5.9498670820540289e-01 +8.1225321187631820e+00 -1.7313313336548908e+00 +3.5602058576591787e+01 +2.1285898876516323e+04 -3.9168735431646951e+05 -8.9727233138087869e+07 
-5.7999999999999954e+00 -5.9498704053320361e-01 +8.1225240732527517e+00 -1.7320286929196953e+00 +3.5712992865554533e+01 +2.1340538939802918e+04 -3.9213601749381749e+05 -9.0061715935736954e+07 
-5.8999999999999950e+00 -5.9498737848295369e-01 +8.1225188054610911e+00 -1.7330151882468579e+00 +3.5774858572214875e+01 +2.1396331586435816e+04 -3.9237815700734971e+05 -9.0390172205057025e+07 
-5.9999999999999947e+00 -5.9498772159508684e-01 +8.1225165734805653e+00 -1.7343430173576404e+00 +3.5784710940105988e+01 +2.1453762289658971e+04 -3.9240586520788865e+05 -9.0713607978404641e+07 
-6.0999999999999943e+00 -5.9498806943946403e-01 +8.1225175711439270e+00 -1.7360526515197547e+00 +3.5740536275444249e+01 +2.1513210395778293e+04 -3.9221433740767848e+05 -9.1032835970513567e+07 
-6.1999999999999940e+00 -5.9498842170854238e-01 +8.1225217340536275e+00 -1.7381343203526052e+00 +3.5643693709828938e+01 +2.1574580156720374e+04 -3.9180871340118325e+05 -9.1347710242966011e+07 
-6.2999999999999936e+00 -5.9498877812681950e-01 +8.1225289328720667e+00 -1.7405648328216565e+00 +3.5496295908865605e+01 +2.1637644832759277e+04 -3.9119598166272667e+05 -9.1657802849080011e+07 
-6.3999999999999932e+00 -5.9498913841881973e-01 +8.1225390382547893e+00 -1.7433209942486507e+00 +3.5300455732505903e+01 +2.1702177610203955e+04 -3.9038313175505650e+05 -9.1962685476552457e+07 
-6.4999999999999929e+00 -5.9498950230902903e-01 +8.1225519208475063e+00 -1.7463796134891980e+00 +3.5058286303520873e+01 +2.1767951730379678e+04 -3.8937715463421959e+05 -9.2261930042580619e+07 
-6.5999999999999925e+00 -5.9498986952195465e-01 +8.1225674512959838e+00 -1.7497174959776969e+00 +3.4771900750264933e+01 +2.1834740358779614e+04 -3.8818504125042277e+05 -9.2555108074467048e+07 
-6.6999999999999922e+00 -5.9499023978211063e-01 +8.1225855002350436e+00 -1.7533114450275793e+00 +3.4443412518538146e+01 +2.1902316607411580e+04 -3.8681378432214580e+05 -9.2841790810187101e+07 
-6.7999999999999918e+00 -5.9499061281396604e-01 +8.1226059382925140e+00 -1.7571382688491579e+00 +3.4074935245306946e+01 +2.1970453670695406e+04 -3.8527037756442657e+05 -9.3121549850411847e+07 
-6.8999999999999915e+00 -5.9499098834200681e-01 +8.1226286360907984e+00 -1.7611747719639983e+00 +3.3668582723863274e+01 +2.2038924657336443e+04 -3.8356181552136817e+05 -9.3393956347213164e+07 
-6.9999999999999911e+00 -5.9499136609071857e-01 +8.1226534642393027e+00 -1.7653977581402633e+00 +3.3226469112638782e+01 +2.2107502651142233e+04 -3.8169509473283926e+05 -9.3658581305991575e+07 
-7.0999999999999908e+00 -5.9499174578456460e-01 +8.1226802933511149e+00 -1.7697840322422043e+00 +3.2750708453822192e+01 +2.2175960737391666e+04 -3.7967721094580472e+05 -9.3914995685923547e+07 
-7.1999999999999904e+00 -5.9499212714799932e-01 +8.1227089940190336e+00 -1.7743103992676978e+00 +3.2243415370294890e+01 +2.2244071993039521e+04 -3.7751516316568147e+05 -9.4162770378904000e+07 
-7.2999999999999901e+00 -5.9499250990547103e-01 +8.1227394368332231e+00 -1.7789536626694999e+00 +3.1706704551559120e+01 +2.2311609443879115e+04 -3.7521595065549965e+05 -9.4401475975197822e+07 
-7.3999999999999897e+00 -5.9499289378143860e-01 +8.1227714923706245e+00 -1.7836906245408894e+00 +3.1142691055575710e+01 +2.2378346081137566e+04 -3.7278657466559438e+05 -9.4630682875700474e+07 
-7.4999999999999893e+00 -5.9499327850031969e-01 +8.1228050312008833e+00 -1.7884980894709024e+00 +3.0553490133418816e+01 +2.2444054921510517e+04 -3.7023403741230053e+05 -9.4849961545819983e+07 
-7.5999999999999890e+00 -5.9499366378652629e-01 +8.1228399238865148e+00 -1.7933528611414347e+00 +2.9941217236991264e+01 +2.2508508943138761e+04 -3.6756534214225842e+05 -9.5058882208139434e+07 
-7.6999999999999886e+00 -5.9499404936449241e-01 +8.1228760409757896e+00 -1.7982317395669944e+00 +2.9307988208603209e+01 +2.2571481044557931e+04 -3.6478749418660661e+05 -9.5257014681998819e+07 
-7.7999999999999883e+00 -5.9499443495859727e-01 +8.1229132530043415e+00 -1.8031115290551278e+00 +2.8655919245567016e+01 +2.2632744178729426e+04 -3.6190750078052958e+05 -9.5443928972056255e+07 
-7.8999999999999879e+00 -5.9499482029324502e-01 +8.1229514305038588e+00 -1.8079690294357424e+00 +2.7987126633770369e+01 +2.2692071197636171e+04 -3.5893236948121252e+05 -9.5619194559875518e+07 
-7.9999999999999876e+00 -5.9499520509278969e-01 +8.1229904439886713e+00 -1.8127810445233248e+00 +2.7303727144389935e+01 +2.2749235006565974e+04 -3.5586911050778569e+05 -9.5782381126032159e+07 
-8.0999999999999872e+00 -5.9499558923675755e-01 +8.1230301518261143e+00 -1.8175206605526621e+00 +2.6608200512580822e+01 +2.2803964834063969e+04 -3.5272717004009179e+05 -9.5932913146168381e+07 
-8.1999999999999869e+00 -5.9499597321532771e-01 +8.1230703701430667e+00 -1.8221469038647580e+00 +2.5904406033153148e+01 +2.2855824921381260e+04 -3.4952528936237434e+05 -9.6069648438062832e+07 
-8.2999999999999865e+00 -5.9499635766876213e-01 +8.1231109060441984e+00 -1.8266155166450524e+00 +2.5196532546622151e+01 +2.2904341033585217e+04 -3.4628444582514843e+05 -9.6191308516597793e+07 
-8.3999999999999861e+00 -5.9499674323731400e-01 +8.1231515666196525e+00 -1.8308822414324246e+00 +2.4488769202919343e+01 +2.2949038932402207e+04 -3.4302561796984007e+05 -9.6296614851588219e+07 
-8.4999999999999858e+00 -5.9499713056113146e-01 +8.1231921589398528e+00 -1.8349028315441114e+00 +2.3785305615681871e+01 +2.2989444563734214e+04 -3.3976978643342230e+05 -9.6384289732488468e+07 
-8.5999999999999854e+00 -5.9499752028036723e-01 +8.1232324900610919e+00 -1.8386330390692320e+00 +2.3090331672088752e+01 +2.3025083841869255e+04 -3.3653793277255085e+05 -9.6453055273069516e+07 
-8.6999999999999851e+00 -5.9499791303510596e-01 +8.1232723670159626e+00 -1.8420286222898448e+00 +2.2408037843936967e+01 +2.3055482778279453e+04 -3.3335104133725376e+05 -9.6501633993146211e+07 
-8.7999999999999847e+00 -5.9499830946536902e-01 +8.1233115968205070e+00 -1.8450453461398737e+00 +2.1742614925921369e+01 +2.3080167497184517e+04 -3.3023009760409902e+05 -9.6528748909441799e+07 
-8.8999999999999844e+00 -5.9499871021115591e-01 +8.1233499864712027e+00 -1.8476389763974446e+00 +2.1098254174747993e+01 +2.3098664122246399e+04 -3.2719608912273450e+05 -9.6533122989570543e+07 
-8.9999999999999840e+00 -5.9499911591239196e-01 +8.1233873429438166e+00 -1.8497652863413681e+00 +2.0479147293482434e+01 +2.3110498902954732e+04 -3.2427000525986974e+05 -9.6513479753237784e+07 
-9.0999999999999837e+00 -5.9499952720893790e-01 +8.1234234731918189e+00 -1.8513800556594395e+00 +1.9889486499146436e+01 +2.3115198193221546e+04 -3.2147283766515180e+05 -9.6468543166782096e+07 
-9.1999999999999833e+00 -5.9499994474063034e-01 +8.1234581841500866e+00 -1.8524390651395075e+00 +1.9333464402502333e+01 +2.3112288351089781e+04 -3.1882557951877348e+05 -9.6397037169739574e+07 
-9.2999999999999829e+00 -5.9500036914721177e-01 +8.1234912827290717e+00 -1.8528981055198659e+00 +1.8815274171521537e+01 +2.3101295905743591e+04 -3.1634922646109719e+05 -9.6297686464384466e+07 
-9.3999999999999826e+00 -5.9500080106839015e-01 +8.1235225758217382e+00 -1.8527129698194169e+00 +1.8339109337893131e+01 +2.3081747411319015e+04 -3.1406477547445882e+05 -9.6169215820942551e+07 
-9.4999999999999822e+00 -5.9500124114381403e-01 +8.1235518702902727e+00 -1.8518394568394521e+00 +1.7909164153831508e+01 +2.3053169514044850e+04 -3.1199322687338729e+05 -9.6010350396059588e+07 
-9.5999999999999819e+00 -5.9500169001305159e-01 +8.1235789729830277e+00 -1.8502333728608915e+00 +1.7529633134845223e+01 +2.3015088981018085e+04 -3.1015558173667314e+05 -9.5819815862398967e+07 
-9.6999999999999815e+00 -5.9500214831562359e-01 +8.1236036907151234e+00 -1.8478505282816355e+00 +1.7204711578887245e+01 +2.2967032640187375e+04 -3.0857284478488989e+05 -9.5596338133433059e+07 
-9.7999999999999812e+00 -5.9500261669096943e-01 +8.1236258302876134e+00 -1.8446467418220069e+00 +1.6938595037758706e+01 +2.2908527457810462e+04 -3.0726602138939593e+05 -9.5338643723537654e+07 
-9.8999999999999808e+00 -5.9500309577848576e-01 +8.1236451984690206e+00 -1.8405778350366779e+00 +1.6735479822835959e+01 +2.2839100432440133e+04 -3.0625612040970277e+05 -9.5045459240306452e+07 
-9.9999999999999805e+00 -5.9500358621748906e-01 +8.1236616020061536e+00 -1.8355996373392363e+00 +1.6599562661781057e+01 +2.2758278685819307e+04 -3.0556415216559073e+05 -9.4715511804501176e+07 
-1.0099999999999980e+01 -5.9500408841737140e-01 +8.1236748884170247e+00 -1.8296890178932801e+00 +1.6533869404457093e+01 +2.2665843155799794e+04 -3.0520471910508611e+05 -9.4348324461911589e+07 
