# multipoles
# s[mm] polynom_b[n=0][T/m^n] polynom_b[n=1][T/m^n] polynom_b[n=2][T/m^n] polynom_b[n=3][T/m^n] polynom_b[n=4][T/m^n] polynom_b[n=5][T/m^n] polynom_b[n=6][T/m^n] 
-0.0000000000000000e+00 -5.3709182369491903e-01 +7.3448651599328132e+00 +1.2192496026753577e-01 +1.2003664350166670e+01 -1.6032152560606952e+04 -3.4209515910323820e+05 +6.9340649318976834e+07 
-1.0000000000000001e-01 -5.3709193243310249e-01 +7.3448438809985337e+00 +1.2319925228260976e-01 +1.2489259376690908e+01 -1.6064775776355847e+04 -3.4424308550875471e+05 +6.9507886937833622e+07 
-2.0000000000000001e-01 -5.3709205088867995e-01 +7.3448245755865171e+00 +1.2443733631337570e-01 +1.2926947084082167e+01 -1.6096211033331070e+04 -3.4624161485100904e+05 +6.9669559485133052e+07 
-2.9999999999999999e-01 -5.3709217828790845e-01 +7.3448071374099024e+00 +1.2563138458303985e-01 +1.3319813190350555e+01 -1.6126417941006484e+04 -3.4810349424772552e+05 +6.9825539991171896e+07 
-4.0000000000000002e-01 -5.3709231385720524e-01 +7.3447914601893318e+00 +1.2677357693700356e-01 +1.3670943205136950e+01 -1.6155356245889081e+04 -3.4984146964839159e+05 +6.9975702121691763e+07 
-5.0000000000000000e-01 -5.3709245682290063e-01 +7.3447774376403760e+00 +1.2785609229318470e-01 +1.3983422776433727e+01 -1.6182985671121884e+04 -3.5146828778921231e+05 +7.0119919418052211e+07 
-5.9999999999999998e-01 -5.3709260641135359e-01 +7.3447649634796814e+00 +1.2887110615433645e-01 +1.4260337521661114e+01 -1.6209265870463143e+04 -3.5299669523461559e+05 +7.0258065084248900e+07 
-6.9999999999999996e-01 -5.3709276184890598e-01 +7.3447539314282704e+00 +1.2981079790751576e-01 +1.4504772944615501e+01 -1.6234156564219062e+04 -3.5443943793039856e+05 +7.0390012624559477e+07 
-8.0000000000000004e-01 -5.3709292236190864e-01 +7.3447442352007872e+00 +1.3066734456767093e-01 +1.4719814723089833e+01 -1.6257617422264473e+04 -3.5580926280210796e+05 +7.0515635291473001e+07 
-9.0000000000000002e-01 -5.3709308717672455e-01 +7.3447357685185537e+00 +1.3143292441299825e-01 +1.4908548356777974e+01 -1.6279608135796503e+04 -3.5711891577540903e+05 +7.0634806435036600e+07 
-1.0000000000000000e+00 -5.3709325551972131e-01 +7.3447284250997171e+00 +1.3209971623029751e-01 +1.5074059445933658e+01 -1.6300088402411648e+04 -3.5838114338152047e+05 +7.0747399429807812e+07 
-1.1000000000000001e+00 -5.3709342661729842e-01 +7.3447220986632304e+00 +1.3265989528019889e-01 +1.5219433573655881e+01 -1.6319017847246570e+04 -3.5960869205284194e+05 +7.0853287294947743e+07 
-1.2000000000000000e+00 -5.3709359969574089e-01 +7.3447166829322699e+00 +1.3310563958540089e-01 +1.5347756211827210e+01 -1.6336356148297979e+04 -3.6081430760080367e+05 +7.0952343303507492e+07 
-1.3000000000000000e+00 -5.3709377398143088e-01 +7.3447120716222125e+00 +1.3342912562731624e-01 +1.5462113077683222e+01 -1.6352062951762895e+04 -3.6201073728886060e+05 +7.1044440573004887e+07 
-1.3999999999999999e+00 -5.3709394870076332e-01 +7.3447081584612759e+00 +1.3362253100992641e-01 +1.5565589524067562e+01 -1.6366097921950468e+04 -3.6321072627482837e+05 +7.1129452301819548e+07 
-1.5000000000000000e+00 -5.3709412308005466e-01 +7.3447048371678765e+00 +1.3367803007356049e-01 +1.5661271208078000e+01 -1.6378420660377600e+04 -3.6442702150643291e+05 +7.1207251388812259e+07 
-1.6000000000000001e+00 -5.3709429634565187e-01 +7.3447020014692725e+00 +1.3358779808865345e-01 +1.5752243551064748e+01 -1.6388990790970445e+04 -3.6567236860123591e+05 +7.1277710855185255e+07 
-1.7000000000000000e+00 -5.3709446772391212e-01 +7.3446995450856951e+00 +1.3334401068892188e-01 +1.5841592194962701e+01 -1.6397767938506975e+04 -3.6695951446684595e+05 +7.1340703711232930e+07 
-1.8000000000000000e+00 -5.3709463644119426e-01 +7.3446973617455251e+00 +1.3293884056425839e-01 +1.5932402567136796e+01 -1.6404711675542661e+04 -3.6830120479546709e+05 +7.1396102731269509e+07 
-1.8999999999999999e+00 -5.3709480172380863e-01 +7.3446953451764987e+00 +1.3236446087382697e-01 +1.6027760144183983e+01 -1.6409781584242104e+04 -3.6971018561624101e+05 +7.1443780738362789e+07 
-2.0000000000000000e+00 -5.3709496279811830e-01 +7.3446933891064541e+00 +1.3161304491367093e-01 +1.6130750420924898e+01 -1.6412937253871445e+04 -3.7119920307579910e+05 +7.1483610603240609e+07 
-2.1000000000000001e+00 -5.3709511914642849e-01 +7.3446913899608344e+00 +1.3067520478526862e-01 +1.6243938669824221e+01 -1.6414057786805071e+04 -3.7277734548012837e+05 +7.1515084806023628e+07 
-2.2000000000000002e+00 -5.3709527127749113e-01 +7.3446892598157039e+00 +1.2953558491339776e-01 +1.6367746348806854e+01 -1.6412699684744515e+04 -3.7443892140037316e+05 +7.1536156587456122e+07 
-2.2999999999999998e+00 -5.3709541995713783e-01 +7.3446869158874861e+00 +1.2817740303688080e-01 +1.6502042551221727e+01 -1.6408338573066543e+04 -3.7617450315523660e+05 +7.1544389753716394e+07 
-2.3999999999999999e+00 -5.3709556595121677e-01 +7.3446842753918569e+00 +1.2658387281647995e-01 +1.6646696345962798e+01 -1.6400450005385486e+04 -3.7797466283925367e+05 +7.1537347777266279e+07 
-2.5000000000000000e+00 -5.3709571002554113e-01 +7.3446812555454644e+00 +1.2473821129973388e-01 +1.6801576728549215e+01 -1.6388509605397718e+04 -3.7982997205184004e+05 +7.1512594468878299e+07 
-2.6000000000000001e+00 -5.3709585294591700e-01 +7.3446777735714237e+00 +1.2262363573422538e-01 +1.6966552466185210e+01 -1.6371993011737344e+04 -3.8173100100830547e+05 +7.1467693732494384e+07 
-2.7000000000000002e+00 -5.3709599547824183e-01 +7.3446737466878780e+00 +1.2022336139280343e-01 +1.7141492406653832e+01 -1.6350375823951230e+04 -3.8366832028694486e+05 +7.1400209269106537e+07 
-2.7999999999999998e+00 -5.3709613838827164e-01 +7.3446690921250024e+00 +1.1752060767984134e-01 +1.7326264994909529e+01 -1.6323133734842186e+04 -3.8563249805032770e+05 +7.1307705251726508e+07 
-2.8999999999999999e+00 -5.3709628244188001e-01 +7.3446637271056110e+00 +1.1449859279949998e-01 +1.7520738817045235e+01 -1.6289742418813468e+04 -3.8761410315765912e+05 +7.1187745763527066e+07 
-3.0000000000000000e+00 -5.3709642840484828e-01 +7.3446575688622397e+00 +1.1114053473130159e-01 +1.7724782106320458e+01 -1.6249677557516135e+04 -3.8960370230923797e+05 +7.1037894939478591e+07 
-3.1000000000000001e+00 -5.3709657704300140e-01 +7.3446505346277009e+00 +1.0742965434909035e-01 +1.7938263016643752e+01 -1.6202414893496874e+04 -3.9159186164590030e+05 +7.0855717204561412e+07 
-3.2000000000000002e+00 -5.3709672912217654e-01 +7.3446425416323287e+00 +1.0334917250515795e-01 +1.8161049686391937e+01 -1.6147430182021293e+04 -3.9356914706696261e+05 +7.0638777062996343e+07 
-3.2999999999999998e+00 -5.3709688540812783e-01 +7.3446335071195268e+00 +9.8882310869797541e-02 +1.8393009790523188e+01 -1.6084199203897319e+04 -3.9552612166285649e+05 +7.0384639150423244e+07 
-3.3999999999999999e+00 -5.3709704666673630e-01 +7.3446233483281853e+00 +9.4012291930052297e-02 +1.8634011038313993e+01 -1.6012197766772035e+04 -3.9745334856067976e+05 +7.0090868241222277e+07 
-3.5000000000000000e+00 -5.3709721366374319e-01 +7.3446119825009051e+00 +8.8722341930679127e-02 +1.8883920936743934e+01 -1.5930901760928833e+04 -3.9934138957764284e+05 +6.9755029514785200e+07 
-3.6000000000000001e+00 -5.3709738716498445e-01 +7.3445993268871135e+00 +8.2995684390552410e-02 +1.9142606687332716e+01 -1.5839787039706955e+04 -4.0118080458276585e+05 +6.9374687993061453e+07 
-3.7000000000000002e+00 -5.3709756793621399e-01 +7.3445852987365434e+00 +7.6815543912879744e-02 +1.9409935374537390e+01 -1.5738329487764329e+04 -4.0296215259687015e+05 +6.8947408854333892e+07 
-3.7999999999999998e+00 -5.3709775674325055e-01 +7.3445698153024015e+00 +7.0165151993042352e-02 +1.9685773869532042e+01 -1.5626005137660119e+04 -4.0467599123613897e+05 +6.8470758004437149e+07 
-3.8999999999999999e+00 -5.3709795435186181e-01 +7.3445527938405899e+00 +6.3027735306675117e-02 +1.9969988841327673e+01 -1.5502289941292616e+04 -4.0631287673935021e+05 +6.7942300969446927e+07 
-4.0000000000000000e+00 -5.3709816152786882e-01 +7.3445341516148197e+00 +5.5386526047752689e-02 +2.0262446618877835e+01 -1.5366659973086100e+04 -4.0786336322577856e+05 +6.7359603880762309e+07 
-4.0999999999999996e+00 -5.3709837888466350e-01 +7.3445138672951931e+00 +4.7239838300795312e-02 +2.0562399502652376e+01 -1.5218916689296351e+04 -4.0931779359391669e+05 +6.6721655658498831e+07 
-4.2000000000000002e+00 -5.3709860642301877e-01 +7.3444921508242711e+00 +3.8644232062421020e-02 +2.0866861080407297e+01 -1.5060137726095118e+04 -4.1066612049815553e+05 +6.6033085620391123e+07 
-4.2999999999999998e+00 -5.3709884398969188e-01 +7.3444692663944533e+00 +2.9670337936368068e-02 +2.1172341519335699e+01 -1.4891713924095424e+04 -4.1189833301983221e+05 +6.5299921966913864e+07 
-4.4000000000000004e+00 -5.3709909143158885e-01 +7.3444454781801474e+00 +2.0388790195798485e-02 +2.1475351548355196e+01 -1.4715036185688205e+04 -4.1300442347472010e+05 +6.4528193179427430e+07 
-4.5000000000000000e+00 -5.3709934859555952e-01 +7.3444210503508289e+00 +1.0870224295115685e-02 +2.1772402090863270e+01 -1.4531495425087020e+04 -4.1397438531126303e+05 +6.3723927776049189e+07 
-4.5999999999999996e+00 -5.3709961532849182e-01 +7.3443962470723854e+00 +1.1852762386720178e-03 +2.2060004221884263e+01 -1.4342482562337655e+04 -4.1479821284254536e+05 +6.2893154299013503e+07 
-4.7000000000000002e+00 -5.3709989147735815e-01 +7.3443713324953599e+00 -8.5954135603697017e-03 +2.2334669527260740e+01 -1.4149388583225016e+04 -4.1546590336539177e+05 +6.2041901566097341e+07 
-4.7999999999999998e+00 -5.3710017688908818e-01 +7.3443465707646665e+00 -1.8401204572012910e-02 +2.2592909812413730e+01 -1.3953604471101860e+04 -4.1596745543884969e+05 +6.1176198383136541e+07 
-4.9000000000000004e+00 -5.3710047141068562e-01 +7.3443222260144445e+00 -2.8161452939233493e-02 +2.2831237265216441e+01 -1.3756521255718964e+04 -4.1629286985310877e+05 +6.0302073744286150e+07 
-5.0000000000000000e+00 -5.3710077488917141e-01 +7.3442985623667774e+00 -3.7805514661344658e-02 +2.3046164499536925e+01 -1.3559529958440902e+04 -4.1643214989218174e+05 +5.9425556587736495e+07 
-5.0999999999999996e+00 -5.3710108717163074e-01 +7.3442758439345797e+00 -4.7262743330505119e-02 +2.3234204466538870e+01 -1.3364021631602207e+04 -4.1637530079027236e+05 +5.8552675973697439e+07 
-5.2000000000000002e+00 -5.3710140810515294e-01 +7.3442543348182801e+00 -5.6462487723317183e-02 +2.3391870572997018e+01 -1.3171387406026090e+04 -4.1611233047581266e+05 +5.7689461317032233e+07 
-5.2999999999999998e+00 -5.3710173753686330e-01 +7.3442342991059348e+00 -6.5334098426767351e-02 +2.3515676667362872e+01 -1.2983018360195729e+04 -4.1563324944663694e+05 +5.6841941752177745e+07 
-5.4000000000000004e+00 -5.3710207531397669e-01 +7.3442160008739599e+00 -7.3806920384664812e-02 +2.3602137027032821e+01 -1.2800305666734686e+04 -4.1492807070806954e+05 +5.6016146844367296e+07 
-5.5000000000000000e+00 -5.3710242128366859e-01 +7.3441997041864058e+00 -8.1810296634104607e-02 +2.3647766394914100e+01 -1.2624640514731253e+04 -4.1398681002239598e+05 +5.5218106202707425e+07 
-5.5999999999999996e+00 -5.3710277529327499e-01 +7.3441856730897053e+00 -8.9273569694707539e-02 +2.3649080121620230e+01 -1.2457414086336294e+04 -4.1279948668977758e+05 +5.4453849377707884e+07 
-5.7000000000000002e+00 -5.3710313719003200e-01 +7.3441741716209794e+00 -9.6126077757876280e-02 +2.3602593941503596e+01 -1.2300017625687125e+04 -4.1135612229223177e+05 +5.3729406181021616e+07 
-5.7999999999999998e+00 -5.3710350682133667e-01 +7.3441654637991194e+00 -1.0229715849145779e-01 +2.3504824231089330e+01 -1.2153842371027793e+04 -4.0964674217207875e+05 +5.3050806377122968e+07 
-5.9000000000000004e+00 -5.3710388403455489e-01 +7.3441598136294033e+00 -1.0771614359005122e-01 +2.3352287878909220e+01 -1.2020279650678347e+04 -4.0766137468854664e+05 +5.2424080116399653e+07 
-5.9999999999999902e+00 -5.3710426867721772e-01 +7.3441574851014275e+00 -1.1231236480290539e-01 +2.3141502342362045e+01 -1.1900720770635087e+04 -4.0539005153585545e+05 +5.1855257411335982e+07 
-6.0999999999999899e+00 -5.3710466048804151e-01 +7.3441586531365308e+00 -1.1603805821529804e-01 +2.2870518663675540e+01 -1.1796175692225284e+04 -4.0283007487007923e+05 +5.1348786726771556e+07 
-6.1999999999999904e+00 -5.3710505875827108e-01 +7.3441631488697272e+00 -1.1893533430676542e-01 +2.2543416505492928e+01 -1.1706154091545219e+04 -4.0000795304692152e+05 +5.0902904924493276e+07 
-6.2999999999999901e+00 -5.3710546266382264e-01 +7.3441707204862716e+00 -1.2106839503305193e-01 +2.2165757318115421e+01 -1.1629796019766260e+04 -3.9695753844607994e+05 +5.0514322199252129e+07 
-6.3999999999999897e+00 -5.3710587138056443e-01 +7.3441811161868422e+00 -1.2250144490127189e-01 +2.1743102223736603e+01 -1.1566241474036222e+04 -3.9371268191989989e+05 +5.0179748493684992e+07 
-6.4999999999999902e+00 -5.3710628408423766e-01 +7.3441940841769471e+00 -1.2329869730910967e-01 +2.1281012309420191e+01 -1.1514630276722999e+04 -3.9030723441950249e+05 +4.9895892918246433e+07 
-6.5999999999999899e+00 -5.3710669995068105e-01 +7.3442093726782822e+00 -1.2352436661629594e-01 +2.0785048312669709e+01 -1.1474102230252904e+04 -3.8677504521462007e+05 +4.9659464504059210e+07 
-6.6999999999999904e+00 -5.3710711815555179e-01 +7.3442267299227115e+00 -1.2324267918793744e-01 +2.0260770791177595e+01 -1.1443796903753841e+04 -3.8314996287458111e+05 +4.9467171174243011e+07 
-6.7999999999999901e+00 -5.3710753787452814e-01 +7.3442459041535599e+00 -1.2251786204444061e-01 +1.9713740094150371e+01 -1.1422853848171553e+04 -3.7946583512129035e+05 +4.9315720769257873e+07 
-6.8999999999999897e+00 -5.3710795828320490e-01 +7.3442666436256436e+00 -1.2141415210508988e-01 +1.9149516369132677e+01 -1.1410412422213247e+04 -3.7575650889659999e+05 +4.9201820222555131e+07 
-6.9999999999999902e+00 -5.3710837855716187e-01 +7.3442886966103353e+00 -1.1999579109053682e-01 +1.8573659412283938e+01 -1.1405611889867885e+04 -3.7205582948962372e+05 +4.9122176028075762e+07 
-7.0999999999999899e+00 -5.3710879787185573e-01 +7.3443118113891197e+00 -1.1832702865602099e-01 +1.7991728847949773e+01 -1.1407591359246420e+04 -3.6839764155985578e+05 +4.9073493942500338e+07 
-7.1999999999999904e+00 -5.3710921540273115e-01 +7.3443357362634361e+00 -1.1647211917158862e-01 +1.7409283874478092e+01 -1.1415489843626645e+04 -3.6481578775284771e+05 +4.9052479280030131e+07 
-7.2999999999999901e+00 -5.3710963032515446e-01 +7.3443602195417155e+00 -1.1449532940705805e-01 +1.6831883623424631e+01 -1.1428446116748031e+04 -3.6134411073729262e+05 +4.9055836225044645e+07 
-7.3999999999999897e+00 -5.3711004181438493e-01 +7.3443850095561523e+00 -1.1246092878517447e-01 +1.6265086681620790e+01 -1.1445598896655625e+04 -3.5801645046854980e+05 +4.9080268704051875e+07 
-7.4999999999999902e+00 -5.3711044904572958e-01 +7.3444098546486591e+00 -1.1043319694512575e-01 +1.5714451502056750e+01 -1.1466086703521400e+04 -3.5486664657062333e+05 +4.9122479715392865e+07 
-7.5999999999999899e+00 -5.3711085119427615e-01 +7.3444345031789364e+00 -1.0847642028222368e-01 +1.5185536173350904e+01 -1.1489047922440566e+04 -3.5192853702229972e+05 +4.9179171619317226e+07 
-7.6999999999999904e+00 -5.3711124743511884e-01 +7.3444587035291722e+00 -1.0665489672541044e-01 +1.4683898292731158e+01 -1.1513620717628384e+04 -3.4923595744609722e+05 +4.9247045743294038e+07 
-7.7999999999999901e+00 -5.3711163694332209e-01 +7.3444822040918387e+00 -1.0503292768144531e-01 +1.4215095312809710e+01 -1.1538943178378366e+04 -3.4682274310327519e+05 +4.9322803059477665e+07 
-7.8999999999999897e+00 -5.3711201889377469e-01 +7.3445047532810310e+00 -1.0367482842956430e-01 +1.3784684224528824e+01 -1.1564153129719902e+04 -3.4472272708397300e+05 +4.9403143305364810e+07 
-7.9999999999999902e+00 -5.3711239246136600e-01 +7.3445260995323114e+00 -1.0264492076075318e-01 +1.3398221556750171e+01 -1.1588388264381299e+04 -3.4296974011191051e+05 +4.9484765609478399e+07 
-8.0999999999999908e+00 -5.3711275704518657e-01 +7.3445460590042559e+00 -1.0199529281573445e-01 +1.3059446033846941e+01 -1.1610907454567294e+04 -3.4158543625053071e+05 +4.9564793405260362e+07 
-8.1999999999999904e+00 -5.3711311297861875e-01 +7.3445647253436182e+00 -1.0172758640880683e-01 +1.2764504135800726e+01 -1.1631459299788188e+04 -3.4054140779035568e+05 +4.9641900850834802e+07 
-8.2999999999999901e+00 -5.3711346083780054e-01 +7.3445822634734501e+00 -1.0183047090157110e-01 +1.2507550965166367e+01 -1.1649915072856455e+04 -3.3979626064864785e+05 +4.9715108484624475e+07 
-8.3999999999999897e+00 -5.3711380119893060e-01 +7.3445988383188388e+00 -1.0229261083276371e-01 +1.2282741396752602e+01 -1.1666146139876746e+04 -3.3930859900341631e+05 +4.9783437245877109e+07 
-8.4999999999999893e+00 -5.3711413463830182e-01 +7.3446146148013272e+00 -1.0310266036681381e-01 +1.2084230245337443e+01 -1.1680024080650714e+04 -3.3903702633356670e+05 +4.9845909096254267e+07 
-8.5999999999999908e+00 -5.3711446173221988e-01 +7.3446297578348529e+00 -1.0424926473130637e-01 +1.1906172390900139e+01 -1.1691420649400301e+04 -3.3894014616889833e+05 +4.9901546796015829e+07 
-8.6999999999999904e+00 -5.3711478305709059e-01 +7.3446444323317754e+00 -1.0572105819706708e-01 +1.1742722585583657e+01 -1.1700207825113052e+04 -3.3897656092116388e+05 +4.9949374177622028e+07 
-8.7999999999999794e+00 -5.3711509918935829e-01 +7.3446588032015327e+00 -1.0750666895898413e-01 +1.1588035493032793e+01 -1.1706257710622562e+04 -3.3910487212547008e+05 +4.9988415639228292e+07 
-8.8999999999999808e+00 -5.3711541070557034e-01 +7.3446730353442202e+00 -1.0959471418879332e-01 +1.1436265863525481e+01 -1.1709442631408152e+04 -3.3928368141314213e+05 +5.0017696627651758e+07 
-8.9999999999999805e+00 -5.3711571818230819e-01 +7.3446872936625933e+00 -1.1197379879956963e-01 +1.1281568192265553e+01 -1.1709635157784858e+04 -3.3947158857077657e+05 +5.0036243739513479e+07 
-9.0999999999999801e+00 -5.3711602219621213e-01 +7.3447017430454569e+00 -1.1463252153710780e-01 +1.1118097167120318e+01 -1.1706707993178574e+04 -3.3962719403360429e+05 +5.0043084197603494e+07 
-9.1999999999999797e+00 -5.3711632332402992e-01 +7.3447165483863470e+00 -1.1755946727848257e-01 +1.0940007163033876e+01 -1.1700534111297482e+04 -3.3970909605956747e+05 +5.0037246479262546e+07 
-9.2999999999999794e+00 -5.3711662214260025e-01 +7.3447318745628571e+00 -1.2074321007718646e-01 +1.0741452787002029e+01 -1.1690986712556753e+04 -3.3967589374132949e+05 +5.0017760144559018e+07 
-9.3999999999999808e+00 -5.3711691922877569e-01 +7.3447478864562772e+00 -1.2417231475204996e-01 +1.0516588353164069e+01 -1.1677939181484540e+04 -3.3948618409645604e+05 +4.9983655599820256e+07 
-9.4999999999999805e+00 -5.3711721515952093e-01 +7.3447647489389247e+00 -1.2783533319846993e-01 +1.0259568198543320e+01 -1.1661265165395953e+04 -3.3909856375065283e+05 +4.9933964492524147e+07 
-9.5999999999999801e+00 -5.3711751051189793e-01 +7.3447826268756247e+00 -1.3172080379561316e-01 +9.9645466608497681e+00 -1.1640838582781231e+04 -3.3847162887720118e+05 +4.9867719744159922e+07 
-9.6999999999999797e+00 -5.3711780586303604e-01 +7.3448016851273348e+00 -1.3581725756626062e-01 +9.6256779627270994e+00 -1.1616533508276052e+04 -3.3756397449177870e+05 +4.9783955004429311e+07 
-9.7999999999999794e+00 -5.3711810179014585e-01 +7.3448220885497371e+00 -1.4011320740764041e-01 +9.2371162388928845e+00 -1.1588224374430471e+04 -3.3633419458539761e+05 +4.9681705603829972e+07 
-9.8999999999999808e+00 -5.3711839887051660e-01 +7.3448440019898378e+00 -1.4459715763428704e-01 +8.7930156398336958e+00 -1.1555785793511450e+04 -3.3474088273256674e+05 +4.9560007711808726e+07 
-9.9999999999999805e+00 -5.3711869768156395e-01 +7.3448675902871665e+00 -1.4925759787091714e-01 +8.2875302962323598e+00 -1.1519092674948663e+04 -3.3274263217519620e+05 +4.9417898873286821e+07 
-1.0100000000000000e+01 -5.3711899889648662e-01 +7.3448929609716371e+00 -1.5407894210162262e-01 +7.7164866140919566e+00 -1.1478122056052855e+04 -3.3030896155815321e+05 +4.9254894646656297e+07 
