# multipoles
# s[mm] polynom_b[n=0][T/m^n] polynom_b[n=1][T/m^n] polynom_b[n=2][T/m^n] polynom_b[n=3][T/m^n] polynom_b[n=4][T/m^n] polynom_b[n=5][T/m^n] polynom_b[n=6][T/m^n] 
-0.0000000000000000e+00 -5.3701115681791523e-01 +7.3603500597520179e+00 -4.9553758134283149e-01 -1.8082700573137490e+01 +3.0301625608907834e+03 -1.6036628945167779e+05 -1.6386498396507846e+07 
-1.0000000000000001e-01 -5.3701122134918344e-01 +7.3603835819323775e+00 -4.9282354844407433e-01 -1.8719591634794970e+01 +2.9640821780841907e+03 -1.5740140889352915e+05 -1.6047115449765624e+07 
-2.0000000000000001e-01 -5.3701130160302113e-01 +7.3604181184916069e+00 -4.8943482222009216e-01 -1.9383344413682380e+01 +2.8895107823584644e+03 -1.5431938163476504e+05 -1.5677346254718006e+07 
-2.9999999999999999e-01 -5.3701139644181495e-01 +7.3604534813088103e+00 -4.8543635417432740e-01 -2.0070104976241357e+01 +2.8073916834536581e+03 -1.5113520357749582e+05 -1.5281248984109292e+07 
-4.0000000000000002e-01 -5.3701150472794978e-01 +7.3604894822538558e+00 -4.8089309798276347e-01 -2.0776019140811066e+01 +2.7186682326660980e+03 -1.4786387197548253e+05 -1.4862882007376872e+07 
-5.0000000000000000e-01 -5.3701162532377011e-01 +7.3605259331976676e+00 -4.7587000232696974e-01 -2.1497232769344432e+01 +2.6242836869321532e+03 -1.4452038376640470e+05 -1.4426303246768333e+07 
-5.9999999999999998e-01 -5.3701175709163018e-01 +7.3605626460086588e+00 -4.7043202112640509e-01 -2.2229891672433840e+01 +2.5251814027688338e+03 -1.4111973608789616e+05 -1.3975571099443488e+07 
-6.9999999999999996e-01 -5.3701189889399326e-01 +7.3605994325555058e+00 -4.6464410464447331e-01 -2.2970141671311239e+01 +2.4223046665348011e+03 -1.3767692596375584e+05 -1.3514743627546089e+07 
-8.0000000000000004e-01 -5.3701204959315185e-01 +7.3606361046999194e+00 -4.5857120415939873e-01 -2.3714128401643393e+01 +2.3165967821137651e+03 -1.3420695140683046e+05 -1.3047878972827550e+07 
-9.0000000000000002e-01 -5.3701220805149608e-01 +7.3606724743042600e+00 -4.5227827170890228e-01 -2.4457997511395849e+01 +2.2090010647569270e+03 -1.3072481032036305e+05 -1.2579035324373936e+07 
-1.0000000000000000e+00 -5.3701237313142569e-01 +7.3607083532341226e+00 -4.4583025818942207e-01 -2.5197894752398359e+01 +2.1004608078136594e+03 -1.2724549992849001e+05 -1.2112270768200122e+07 
-1.1000000000000001e+00 -5.3701254369523166e-01 +7.3607435533495744e+00 -4.3929211687248670e-01 -2.5929965711632562e+01 +1.9919193401930927e+03 -1.2378401835785582e+05 -1.1651643535261432e+07 
-1.2000000000000000e+00 -5.3701271860533595e-01 +7.3607778865161801e+00 -4.3272879843573353e-01 -2.6650356127799444e+01 +1.8843199440489336e+03 -1.2035536282011226e+05 -1.1201211644235766e+07 
-1.3000000000000000e+00 -5.3701289672402142e-01 +7.3608111645955443e+00 -4.2620525633238071e-01 -2.7355211621525594e+01 +1.7786059422489589e+03 -1.1697453114659856e+05 -1.0765033276048219e+07 
-1.3999999999999999e+00 -5.3701307691365707e-01 +7.3608431994541474e+00 -4.1978644314018537e-01 -2.8040677938043146e+01 +1.6757206408760819e+03 -1.1365652042245853e+05 -1.0347166536506213e+07 
-1.5000000000000000e+00 -5.3701325803657607e-01 +7.3608738029595768e+00 -4.1353731474948346e-01 -2.8702900844921587e+01 +1.5766073961950940e+03 -1.1041632754906395e+05 -9.9516697367501557e+06 
-1.6000000000000001e+00 -5.3701343895509479e-01 +7.3609027869794872e+00 -4.0752282196944839e-01 -2.9338026089765076e+01 +1.4822094636756256e+03 -1.0726894952883240e+05 -9.5826007023137566e+06 
-1.7000000000000000e+00 -5.3701361853147211e-01 +7.3609299633847005e+00 -4.0180792224179418e-01 -2.9942199495173330e+01 +1.3934702167464113e+03 -1.0422938288359139e+05 -9.2440178004363365e+06 
-1.8000000000000000e+00 -5.3701379562806828e-01 +7.3609551440525571e+00 -3.9645756918455904e-01 -3.0511567048541202e+01 +1.3113329457023735e+03 -1.0131262316094410e+05 -8.9399789796506483e+06 
-1.8999999999999999e+00 -5.3701396910708432e-01 +7.3609781408610768e+00 -3.9153672175403342e-01 -3.1042274729055592e+01 +1.2367410304516322e+03 -9.8533665932354852e+04 -8.6745425873248670e+06 
-2.0000000000000000e+00 -5.3701413783084817e-01 +7.3609987656915443e+00 -3.8711033613020573e-01 -3.1530468571349044e+01 +1.1706377921691565e+03 -9.5907506450785178e+04 -8.4517666789966859e+06 
-2.1000000000000001e+00 -5.3701430099598257e-01 +7.3610168886195062e+00 -3.8322831420749548e-01 -3.1973144925868013e+01 +1.1137512876507274e+03 -9.3446845558574612e+04 -8.2746652588309562e+06 
-2.2000000000000002e+00 -5.3701445907366130e-01 +7.3610326023420303e+00 -3.7988396856603829e-01 -3.2370518501729073e+01 +1.0660009270742050e+03 -9.1156092364267184e+04 -8.1423062381968508e+06 
-2.2999999999999998e+00 -5.3701461283860563e-01 +7.3610460527894963e+00 -3.7705732562556526e-01 -3.2723565112727428e+01 +1.0271163816851765e+03 -8.9037791721311063e+04 -8.0528254886755161e+06 
-2.3999999999999999e+00 -5.3701476306565432e-01 +7.3610573859042718e+00 -3.7472840762609916e-01 -3.3033260940494074e+01 +9.9682724389025714e+02 -8.7094486404284937e+04 -8.0043585012494214e+06 
-2.5000000000000000e+00 -5.3701491052952222e-01 +7.3610667476198923e+00 -3.7287724248934995e-01 -3.3300581947087764e+01 +9.7486321240968994e+02 -8.5328720482793564e+04 -7.9950412612286434e+06 
-2.6000000000000001e+00 -5.3701505600496990e-01 +7.3610742838814813e+00 -3.7148385657295746e-01 -3.3526504468199704e+01 +9.6095395901087818e+02 -8.3743035904975652e+04 -8.0230096243166625e+06 
-2.7000000000000002e+00 -5.3701520026675309e-01 +7.3610801406333781e+00 -3.7052827746634082e-01 -3.3712004862319482e+01 +9.5482918154269248e+02 -8.2339974518738920e+04 -8.0863995693280976e+06 
-2.7999999999999998e+00 -5.3701534408964635e-01 +7.3610844638184272e+00 -3.6999053108349689e-01 -3.3858059493683008e+01 +9.5621854667542232e+02 -8.1122078185846622e+04 -8.1833469181518350e+06 
-2.8999999999999999e+00 -5.3701548824838219e-01 +7.3610873993901507e+00 -3.6985064970356746e-01 -3.3965645073617992e+01 +9.6485184700474144e+02 -8.0091886851641597e+04 -8.3119880936286589e+06 
-3.0000000000000000e+00 -5.3701563351772685e-01 +7.3610890932983981e+00 -3.7008866212288821e-01 -3.4035738282538198e+01 +9.8045881128568521e+02 -7.9251940646971445e+04 -8.4704592100232076e+06 
-3.1000000000000001e+00 -5.3701578067244538e-01 +7.3610896914970771e+00 -3.7068459836276291e-01 -3.4069315962321433e+01 +1.0027691952686296e+03 -7.8604778877920820e+04 -8.6568965065795705e+06 
-3.2000000000000002e+00 -5.3701593048729479e-01 +7.3610893399469122e+00 -3.7161849078156706e-01 -3.4067355220523524e+01 +1.0315128062565730e+03 -7.8152939382189506e+04 -8.8694364738220237e+06 
-3.2999999999999998e+00 -5.3701608373705079e-01 +7.3610881846056841e+00 -3.7287037099279269e-01 -3.4030833150083502e+01 +1.0664194434411154e+03 -7.7898960149752646e+04 -9.1062155646444187e+06 
-3.3999999999999999e+00 -5.3701624119646985e-01 +7.3610863714400061e+00 -3.7442027335168371e-01 -3.3960727166868566e+01 +1.1072189594877750e+03 -7.7845377409294320e+04 -9.3653704755149949e+06 
-3.5000000000000000e+00 -5.3701640364032366e-01 +7.3610840464159102e+00 -3.7624823276267322e-01 -3.3858014746933470e+01 +1.1536412294223662e+03 -7.7994727129084946e+04 -9.6450380240526628e+06 
-3.6000000000000001e+00 -5.3701657184342488e-01 +7.3610813555043446e+00 -3.7833428368690020e-01 -3.3723673593888051e+01 +1.2054161259612260e+03 -7.8349544053099511e+04 -9.9433550159408525e+06 
-3.7000000000000002e+00 -5.3701674658050458e-01 +7.3610784446786361e+00 -3.8065846230226069e-01 -3.3558681557229782e+01 +1.2622735615972992e+03 -7.8912362207799189e+04 -1.0258458447026005e+07 
-3.7999999999999998e+00 -5.3701692862636352e-01 +7.3610754599184309e+00 -3.8320080804964257e-01 -3.3364016767837626e+01 +1.3239435206132721e+03 -7.9685714078729070e+04 -1.0588485661670977e+07 
-3.8999999999999999e+00 -5.3701711875584424e-01 +7.3610725472050422e+00 -3.8594135647813793e-01 -3.3140657480906533e+01 +1.3901559198483903e+03 -8.0672131602451424e+04 -1.0931573681589991e+07 
-4.0000000000000000e+00 -5.3701731774367256e-01 +7.3610698525225136e+00 -3.8886014975374134e-01 -3.2889582169373753e+01 +1.4606408099922191e+03 -8.1874145710755096e+04 -1.1285860185779365e+07 
-4.0999999999999996e+00 -5.3701752615637910e-01 +7.3610674894151291e+00 -3.9193631835955922e-01 -3.2611987491339491e+01 +1.5350569095008964e+03 -8.3290732041185984e+04 -1.1649322709357910e+07 
-4.2000000000000002e+00 -5.3701774380764877e-01 +7.3610654473851627e+00 -3.9514424140900539e-01 -3.2309828163794059e+01 +1.6127963980588906e+03 -8.4907085013805132e+04 -1.2019385331646657e+07 
-4.2999999999999998e+00 -5.3701797034145382e-01 +7.3610636863777001e+00 -3.9845686218561321e-01 -3.1985225949030127e+01 +1.6931888391612883e+03 -8.6705051137434653e+04 -1.2393352482369658e+07 
-4.4000000000000004e+00 -5.3701820540165268e-01 +7.3610621663387494e+00 -4.0184712365244318e-01 -3.1640302568716208e+01 +1.7755637872027289e+03 -8.8666477213007471e+04 -1.2768528555671845e+07 
-4.5000000000000000e+00 -5.3701844863221193e-01 +7.3610608472022019e+00 -4.0528796787708032e-01 -3.1277179317262174e+01 +1.8592507794307442e+03 -9.0773212589032730e+04 -1.3142217880622266e+07 
-4.5999999999999996e+00 -5.3701869967699689e-01 +7.3610596889120519e+00 -4.0875233489879881e-01 -3.0897977697796396e+01 +1.9435793108531091e+03 -9.3007105481270992e+04 -1.3511724593309244e+07 
-4.7000000000000002e+00 -5.3701895817996415e-01 +7.3610586513983201e+00 -4.1221316580186029e-01 -3.0504818725952575e+01 +2.0278788959447227e+03 -9.5350006986334352e+04 -1.3874352941311289e+07 
-4.7999999999999998e+00 -5.3701922378497480e-01 +7.3610576945926951e+00 -4.1564339882104112e-01 -3.0099823374519733e+01 +2.1114789913541613e+03 -9.7783768518075507e+04 -1.4227406907857981e+07 
-4.9000000000000004e+00 -5.3701949613600775e-01 +7.3610567784198908e+00 -4.1901596951262476e-01 -2.9685112311414802e+01 +2.1937090005628911e+03 -1.0029024333326938e+05 -1.4568190239078965e+07 
-5.0000000000000000e+00 -5.3701977487691255e-01 +7.3610558628045055e+00 -4.2230381490589664e-01 -2.9262806094893502e+01 +2.2738983529319207e+03 -1.0285128541039675e+05 -1.4894006822227633e+07 
-5.0999999999999996e+00 -5.3702005965166111e-01 +7.3610549076620373e+00 -4.2547986840728413e-01 -2.8835024915514467e+01 +2.3513764055431120e+03 -1.0544875090713642e+05 -1.5202160216812959e+07 
-5.2000000000000002e+00 -5.3702035010415095e-01 +7.3610538729051713e+00 -4.2851706129593059e-01 -2.8403888762523131e+01 +2.4254724722491887e+03 -1.0806449724376856e+05 -1.5489953794154217e+07 
-5.2999999999999998e+00 -5.3702064587829379e-01 +7.3610527184437435e+00 -4.3138832500066793e-01 -2.7971517415684620e+01 +2.4955158687319276e+03 -1.1068038313314461e+05 -1.5754690959660880e+07 
-5.4000000000000004e+00 -5.3702094661800970e-01 +7.3610514041783688e+00 -4.3406658740172060e-01 -2.7540030273448735e+01 +2.5608358345523284e+03 -1.1327826954255048e+05 -1.5993674761588698e+07 
-5.5000000000000000e+00 -5.3702125196719686e-01 +7.3610498900064876e+00 -4.3652477474430318e-01 -2.7111546488747557e+01 +2.6207615811221458e+03 -1.1584001899505623e+05 -1.6204208152742771e+07 
-5.5999999999999996e+00 -5.3702156156982850e-01 +7.3610481358205124e+00 -4.3873581176283816e-01 -2.6688184936310407e+01 +2.6746222836132360e+03 -1.1834749568631705e+05 -1.6383593923516475e+07 
-5.7000000000000002e+00 -5.3702187506980037e-01 +7.3610461015016115e+00 -4.4067262050217532e-01 -2.6272064025901752e+01 +2.7217470627745738e+03 -1.2078256656934340e+05 -1.6529134630964929e+07 
-5.7999999999999998e+00 -5.3702219211103974e-01 +7.3610437469320145e+00 -4.4230812082372356e-01 -2.5865302039522486e+01 +2.7614649960562356e+03 -1.2312709943825322e+05 -1.6638132653893933e+07 
-5.9000000000000004e+00 -5.3702251233745968e-01 +7.3610410319823192e+00 -4.4361523194122982e-01 -2.5470016757381867e+01 +2.7931051414944577e+03 -1.2536296510351906e+05 -1.6707890294898862e+07 
-5.9999999999999902e+00 -5.3702283539302731e-01 +7.3610379165123749e+00 -4.4456686531852097e-01 -2.5088325389661897e+01 +2.8159964278214898e+03 -1.2747203755609228e+05 -1.6735709296222461e+07 
-6.0999999999999899e+00 -5.3702316094212776e-01 +7.3610343849193773e+00 -4.4514631194149862e-01 -2.4722162324682884e+01 +2.8297109093456893e+03 -1.2943923806491423e+05 -1.6719990535324568e+07 
-6.1999999999999904e+00 -5.3702348871522054e-01 +7.3610305174635258e+00 -4.4537442304694824e-01 -2.4373073535252622e+01 +2.8346717608884092e+03 -1.3125944301134319e+05 -1.6662908051047985e+07 
-6.2999999999999901e+00 -5.3702381845585978e-01 +7.3610264175080324e+00 -4.4528057512448949e-01 -2.4042570184765420e+01 +2.8314892356643586e+03 -1.3292958752647703e+05 -1.6567448182293361e+07 
-6.3999999999999897e+00 -5.3702414990758773e-01 +7.3610221884122353e+00 -4.4489414631284036e-01 -2.3732163326562478e+01 +2.8207736246788618e+03 -1.3444660730976955e+05 -1.6436597456869315e+07 
-6.4999999999999902e+00 -5.3702448281398141e-01 +7.3610179335341188e+00 -4.4424451179642682e-01 -2.3443363975863960e+01 +2.8031351769253752e+03 -1.3580743820940822e+05 -1.6273342231564518e+07 
-6.5999999999999899e+00 -5.3702481691865600e-01 +7.3610137562424445e+00 -4.4336104251853681e-01 -2.3177683462522332e+01 +2.7791840686574897e+03 -1.3700901417936664e+05 -1.6080668528450295e+07 
-6.6999999999999904e+00 -5.3702515196519440e-01 +7.3610097598992965e+00 -4.4227311484956450e-01 -2.2936632928643363e+01 +2.7495305943044041e+03 -1.3804827017749532e+05 -1.5861562961238125e+07 
-6.7999999999999901e+00 -5.3702548769725944e-01 +7.3610060478695445e+00 -4.4101009935809315e-01 -2.2721723600293529e+01 +2.7147849473277206e+03 -1.3892214059274309e+05 -1.5619011676585412e+07 
-6.8999999999999897e+00 -5.3702582385843922e-01 +7.3610027235217315e+00 -4.3960136723284687e-01 -2.2534466808739396e+01 +2.6755573480267349e+03 -1.3962755913955663e+05 -1.5356000978341315e+07 
-6.9999999999999902e+00 -5.3702616019241578e-01 +7.3609998902251288e+00 -4.3807628868405279e-01 -2.2376373928000152e+01 +2.6324580075617991e+03 -1.4016145915372725e+05 -1.5075517139162829e+07 
-7.0999999999999899e+00 -5.3702649644287115e-01 +7.3609976513503481e+00 -4.3646423205230123e-01 -2.2248956372998062e+01 +2.5860971162520873e+03 -1.4052077365605542e+05 -1.4780546358737163e+07 
-7.1999999999999904e+00 -5.3702683235351145e-01 +7.3609961102710120e+00 -4.3479456394483174e-01 -2.2153725649686958e+01 +2.5370848467408641e+03 -1.4070243505128767e+05 -1.4474074780286025e+07 
-7.2999999999999901e+00 -5.3702716766806191e-01 +7.3609953703609481e+00 -4.3309665319428453e-01 -2.2092193290669719e+01 +2.4860314270190170e+03 -1.4070337545901386e+05 -1.4159088831348475e+07 
-7.3999999999999897e+00 -5.3702750213022277e-01 +7.3609955349968805e+00 -4.3139986270564912e-01 -2.2065870920791816e+01 +2.4335469836685570e+03 -1.4052052636906368e+05 -1.3838574471102567e+07 
-7.4999999999999902e+00 -5.3702783548379762e-01 +7.3609967075591483e+00 -4.2973355771082061e-01 -2.2076270281889968e+01 +2.3802417078228591e+03 -1.4015081847647019e+05 -1.3515518005843649e+07 
-7.5999999999999899e+00 -5.3702816747251692e-01 +7.3609989914270377e+00 -4.2812710058206399e-01 -2.2124903104402367e+01 +2.3267257495495710e+03 -1.3959118241461346e+05 -1.3192905565872176e+07 
-7.6999999999999904e+00 -5.3702849784019568e-01 +7.3610024899838589e+00 -4.2660985425321762e-01 -2.2213281250568695e+01 +2.2736092828748024e+03 -1.3883854793007142e+05 -1.2873723413155414e+07 
-7.7999999999999901e+00 -5.3702882633067728e-01 +7.3610073066169974e+00 -4.2521117665872515e-01 -2.2342916713722552e+01 +2.2215024055895474e+03 -1.3788984389062208e+05 -1.2560957480923221e+07 
-7.8999999999999897e+00 -5.3702915268782259e-01 +7.3610135447106293e+00 -4.2396042836088882e-01 -2.2515321416756429e+01 +2.1710152819009681e+03 -1.3674199943530830e+05 -1.2257594044057889e+07 
-7.9999999999999902e+00 -5.3702947665551881e-01 +7.3610213076359265e+00 -4.2288696825538136e-01 -2.2732007116339449e+01 +2.1227580815916217e+03 -1.3539194299741721e+05 -1.1966619373429880e+07 
-8.0999999999999908e+00 -5.3702979814844309e-01 +7.3610306295283019e+00 -4.2201397276837499e-01 -2.2992892820291747e+01 +2.0772690086589560e+03 -1.3384338012567782e+05 -1.1690709150727149e+07 
-8.1999999999999904e+00 -5.3703011764206154e-01 +7.3610413192039479e+00 -4.2134164167280269e-01 -2.3292677257553652e+01 +2.0347881314246551e+03 -1.3212250519818041e+05 -1.1431260682072140e+07 
-8.2999999999999901e+00 -5.3703043572668285e-01 +7.3610531395368470e+00 -4.2086491414772886e-01 -2.3624987152842358e+01 +1.9954815332287237e+03 -1.3026017316027271e+05 -1.1189354832226114e+07 
-8.3999999999999897e+00 -5.3703075299248682e-01 +7.3610658534036357e+00 -4.2057873399478163e-01 -2.3983449451217695e+01 +1.9595153562791877e+03 -1.2828723732813430e+05 -1.0966072652054559e+07 
-8.4999999999999893e+00 -5.3703107002971662e-01 +7.3610792236669136e+00 -4.2047804954773793e-01 -2.4361690832175164e+01 +1.9270558045135135e+03 -1.2623455221549817e+05 -1.0762495403201506e+07 
-8.5999999999999908e+00 -5.3703138742844803e-01 +7.3610930131889054e+00 -4.2055781458156244e-01 -2.4753338099704074e+01 +1.8982691518773431e+03 -1.2413297130189987e+05 -1.0579704574716628e+07 
-8.6999999999999904e+00 -5.3703170577883008e-01 +7.3611069848277824e+00 -4.2081298576663362e-01 -2.5152018099671835e+01 +1.8733216978515347e+03 -1.2201334743186082e+05 -1.0418781679032216e+07 
-8.7999999999999794e+00 -5.3703202567085095e-01 +7.3611209014361894e+00 -4.2123852848213128e-01 -2.5551357663903463e+01 +1.8523798773768926e+03 -1.1990653319136074e+05 -1.0280808774926266e+07 
-8.8999999999999808e+00 -5.3703234769446651e-01 +7.3611345258578709e+00 -4.2182941000194707e-01 -2.5944983531873998e+01 +1.8356101268318885e+03 -1.1784338130100256e+05 -1.0166867817058487e+07 
-8.9999999999999805e+00 -5.3703267243965980e-01 +7.3611476209350588e+00 -4.2258060317947876e-01 -2.6326522556348785e+01 +1.8231789579169890e+03 -1.1585474346221927e+05 -1.0078041015509153e+07 
-9.0999999999999801e+00 -5.3703300049623959e-01 +7.3611599495034241e+00 -4.2348709039958626e-01 -2.6689601569028341e+01 +1.8152530278267732e+03 -1.1397147109219308e+05 -1.0015411158910023e+07 
-9.1999999999999797e+00 -5.3703333245398288e-01 +7.3611712743925812e+00 -4.2454385631998048e-01 -2.7027847400632325e+01 +1.8119990004514143e+03 -1.1222441520831753e+05 -9.9800609488497004e+06 
-9.2999999999999794e+00 -5.3703366890269366e-01 +7.3611813584259487e+00 -4.2574589083682929e-01 -2.7334886874796570e+01 +1.8135836070045057e+03 -1.1064442645782215e+05 -9.9730732997570038e+06 
-9.3999999999999808e+00 -5.3703401043202126e-01 +7.3611899644202641e+00 -4.2708819074811638e-01 -2.7604346801990832e+01 +1.8201736697113884e+03 -1.0926235515044954e+05 -9.9955314318834338e+06 
-9.4999999999999805e+00 -5.3703435763153351e-01 +7.3611968551883420e+00 -4.2856576160062199e-01 -2.7829854071467910e+01 +1.8319361399430884e+03 -1.0810905068132635e+05 -1.0048519056034960e+07 
-9.5999999999999801e+00 -5.3703471109083134e-01 +7.3612017935356562e+00 -4.3017361234430102e-01 -2.8005035539956491e+01 +1.8490379942832424e+03 -1.0721536221869466e+05 -1.0133119877885023e+07 
-9.6999999999999797e+00 -5.3703507139934159e-01 +7.3612045422596477e+00 -4.3190675875650714e-01 -2.8123518029471427e+01 +1.8716463008917301e+03 -1.0661213866952990e+05 -1.0250417913138410e+07 
-9.7999999999999794e+00 -5.3703543914652663e-01 +7.3612048641527581e+00 -4.3376022325843450e-01 -2.8178928421046159e+01 +1.8999282104628994e+03 -1.0633022812495893e+05 -1.0401497427902527e+07 
-9.8999999999999808e+00 -5.3703581492167796e-01 +7.3612025220025021e+00 -4.3572903768228427e-01 -2.8164893645928004e+01 +1.9340510142127971e+03 -1.0640047794018249e+05 -1.0587443233189130e+07 
-9.9999999999999805e+00 -5.3703619931398727e-01 +7.3611972786906215e+00 -4.3780822562200211e-01 -2.8075043475509030e+01 +1.9741816679366632e+03 -1.0685372118328512e+05 -1.0809338268697917e+07 
-1.0100000000000000e+01 -5.3703659275616900e-01 +7.3611890183439854e+00 -4.3998816168823268e-01 -2.7905934141993399e+01 +2.0202635016647851e+03 -1.0770658872655008e+05 -1.1066982077744024e+07 
