# field on trajectory
# s[mm] rx[mm] ry[mm] rz[mm] bx[T] by[T] bz[T]
-0.0000000000000000e+00 +8.1530000000000094e+00 +0.0000000000000000e+00 -0.0000000000000000e+00 -3.1061577908977792e-02 -5.9283002682817199e-01 +5.9106006354188176e-03
-1.0000000000000001e-01 +8.1529997163925092e+00 +0.0000000000000000e+00 -9.9999999999463796e-02 -3.1061382916511882e-02 -5.9283011545815911e-01 +5.9106014121125192e-03
-2.0000000000000001e-01 +8.1529988655711296e+00 +0.0000000000000000e+00 -1.9999999999571000e-01 -3.1061182864575768e-02 -5.9283018759467798e-01 +5.9106009338019605e-03
-2.9999999999999999e-01 +8.1529974475415692e+00 +0.0000000000000000e+00 -2.9999999998552201e-01 -3.1060978695518621e-02 -5.9283024442658216e-01 +5.9105993714039119e-03
-4.0000000000000002e-01 +8.1529954622965306e+00 +0.0000000000000000e+00 -3.9999999996568197e-01 -3.1060771351708850e-02 -5.9283028714283026e-01 +5.9105968958348158e-03
-5.0000000000000000e-01 +8.1529929098396696e+00 +0.0000000000000000e+00 -4.9999999993297300e-01 -3.1060561775521672e-02 -5.9283031693229049e-01 +5.9105936780089411e-03
-5.9999999999999998e-01 +8.1529897901673394e+00 +0.0000000000000000e+00 -5.9999999988417696e-01 -3.1060350909345384e-02 -5.9283033498388948e-01 +5.9105898888400510e-03
-6.9999999999999996e-01 +8.1529861032831796e+00 +0.0000000000000000e+00 -6.9999999981607697e-01 -3.1060139695573103e-02 -5.9283034248649336e-01 +5.9105856992403413e-03
-8.0000000000000004e-01 +8.1529818491871993e+00 +0.0000000000000000e+00 -7.9999999972545699e-01 -3.1059929076605767e-02 -5.9283034062899342e-01 +5.9105812801214892e-03
-9.0000000000000002e-01 +8.1529770278793894e+00 +0.0000000000000000e+00 -8.9999999960909804e-01 -3.1059719994848699e-02 -5.9283033060027956e-01 +5.9105768023944944e-03
-1.0000000000000000e+00 +8.1529716393597500e+00 +0.0000000000000000e+00 -9.9999999946378304e-01 -3.1059513392709855e-02 -5.9283031358923632e-01 +5.9105724369698416e-03
-1.1000000000000001e+00 +8.1529656836210105e+00 +0.0000000000000000e+00 -1.0999999992862901e+00 -3.1059310212601176e-02 -5.9283029078480354e-01 +5.9105683547582364e-03
-1.2000000000000000e+00 +8.1529591606740706e+00 +0.0000000000000000e+00 -1.1999999990734200e+00 -3.1059111396925472e-02 -5.9283026337576727e-01 +5.9105647266686585e-03
-1.3000000000000000e+00 +8.1529520705153100e+00 +0.0000000000000000e+00 -1.2999999988219300e+00 -3.1058917888089187e-02 -5.9283023255102629e-01 +5.9105617236112082e-03
-1.3999999999999999e+00 +8.1529444131410909e+00 +0.0000000000000000e+00 -1.3999999985286200e+00 -3.1058730628494086e-02 -5.9283019949947324e-01 +5.9105595164960509e-03
-1.5000000000000000e+00 +8.1529361885550298e+00 +0.0000000000000000e+00 -1.4999999981902701e+00 -3.1058550560532229e-02 -5.9283016540993372e-01 +5.9105582762329694e-03
-1.6000000000000001e+00 +8.1529273967571498e+00 +0.0000000000000000e+00 -1.5999999978036501e+00 -3.1058378626588983e-02 -5.9283013147125541e-01 +5.9105581737324085e-03
-1.7000000000000000e+00 +8.1529180377474404e+00 +0.0000000000000000e+00 -1.6999999973655600e+00 -3.1058215769039599e-02 -5.9283009887227756e-01 +5.9105593799053278e-03
-1.8000000000000000e+00 +8.1529081115222706e+00 +0.0000000000000000e+00 -1.7999999968727800e+00 -3.1058062930249052e-02 -5.9283006880185940e-01 +5.9105620656636415e-03
-1.8999999999999999e+00 +8.1528976180852606e+00 +0.0000000000000000e+00 -1.8999999963220899e+00 -3.1057921052565315e-02 -5.9283004244879234e-01 +5.9105664019194759e-03
-2.0000000000000000e+00 +8.1528865574327902e+00 +0.0000000000000000e+00 -1.9999999957102601e+00 -3.1057791078324074e-02 -5.9283002100191540e-01 +5.9105725595865058e-03
-2.1000000000000001e+00 +8.1528749295721408e+00 +0.0000000000000000e+00 -2.0999999950340902e+00 -3.1057673618668659e-02 -5.9283000540429631e-01 +5.9105806657540104e-03
-2.2000000000000002e+00 +8.1528627344960096e+00 +0.0000000000000000e+00 -2.1999999942903599e+00 -3.1057567960057330e-02 -5.9282999561642691e-01 +5.9105906722150053e-03
-2.2999999999999998e+00 +8.1528499722080596e+00 +0.0000000000000000e+00 -2.2999999934758399e+00 -3.1057473057775908e-02 -5.9282999135303682e-01 +5.9106024869375606e-03
-2.3999999999999999e+00 +8.1528366427046404e+00 +0.0000000000000000e+00 -2.3999999925873299e+00 -3.1057387867118931e-02 -5.9282999232891509e-01 +5.9106160178908690e-03
-2.5000000000000000e+00 +8.1528227459894005e+00 +0.0000000000000000e+00 -2.4999999916215998e+00 -3.1057311343384197e-02 -5.9282999825879246e-01 +5.9106311730441055e-03
-2.6000000000000001e+00 +8.1528082820659602e+00 +0.0000000000000000e+00 -2.5999999905754398e+00 -3.1057242441877062e-02 -5.9283000885740256e-01 +5.9106478603670855e-03
-2.7000000000000002e+00 +8.1527932509234198e+00 +0.0000000000000000e+00 -2.6999999894456299e+00 -3.1057180117917884e-02 -5.9283002383959815e-01 +5.9106659878314849e-03
-2.7999999999999998e+00 +8.1527776525726896e+00 +0.0000000000000000e+00 -2.7999999882289601e+00 -3.1057123326826853e-02 -5.9283004292005903e-01 +5.9106854634079064e-03
-2.8999999999999999e+00 +8.1527614870065008e+00 +0.0000000000000000e+00 -2.8999999869222002e+00 -3.1057071023942829e-02 -5.9283006581361553e-01 +5.9107061950692194e-03
-3.0000000000000000e+00 +8.1527447542284808e+00 +0.0000000000000000e+00 -2.9999999855221300e+00 -3.1057022164611425e-02 -5.9283009223501459e-01 +5.9107280907882134e-03
-3.1000000000000001e+00 +8.1527274542386294e+00 +0.0000000000000000e+00 -3.0999999840255499e+00 -3.1056975704192441e-02 -5.9283012189903783e-01 +5.9107510585388306e-03
-3.2000000000000002e+00 +8.1527095870333106e+00 +0.0000000000000000e+00 -3.1999999824292300e+00 -3.1056930598060927e-02 -5.9283015452050203e-01 +5.9107750062962301e-03
-3.2999999999999998e+00 +8.1526911526198091e+00 +0.0000000000000000e+00 -3.2999999807299600e+00 -3.1056885801601732e-02 -5.9283018981414159e-01 +5.9107998420356187e-03
-3.3999999999999999e+00 +8.1526721509872004e+00 +0.0000000000000000e+00 -3.3999999789245101e+00 -3.1056840270223398e-02 -5.9283022749484660e-01 +5.9108254737347092e-03
-3.5000000000000000e+00 +8.1526525821464002e+00 +0.0000000000000000e+00 -3.4999999770096801e+00 -3.1056792959341464e-02 -5.9283026727733756e-01 +5.9108518093704630e-03
-3.6000000000000001e+00 +8.1526324460901396e+00 +0.0000000000000000e+00 -3.5999999749822500e+00 -3.1056742824397198e-02 -5.9283030887649124e-01 +5.9108787569224323e-03
-3.7000000000000002e+00 +8.1526117428220495e+00 +0.0000000000000000e+00 -3.6999999728389801e+00 -3.1056688820845738e-02 -5.9283035200710477e-01 +5.9109062243704177e-03
-3.7999999999999998e+00 +8.1525904723421299e+00 +0.0000000000000000e+00 -3.7999999705766800e+00 -3.1056629904163528e-02 -5.9283039638401591e-01 +5.9109341196957070e-03
-3.8999999999999999e+00 +8.1525686346503807e+00 +0.0000000000000000e+00 -3.8999999681921298e+00 -3.1056565029847744e-02 -5.9283044172207211e-01 +5.9109623508808223e-03
-4.0000000000000000e+00 +8.1525462297431694e+00 +0.0000000000000000e+00 -3.9999999656820902e+00 -3.1056493153418900e-02 -5.9283048773616198e-01 +5.9109908259098688e-03
-4.0999999999999996e+00 +8.1525232576241304e+00 +0.0000000000000000e+00 -4.0999999630433699e+00 -3.1056413528511548e-02 -5.9283053423731924e-01 +5.9110194768781585e-03
-4.2000000000000002e+00 +8.1524997182896204e+00 +0.0000000000000000e+00 -4.1999999602727298e+00 -3.1056326601150767e-02 -5.9283058142141387e-01 +5.9110483323238502e-03
-4.2999999999999998e+00 +8.1524756117469206e+00 +0.0000000000000000e+00 -4.2999999573669703e+00 -3.1056233115432073e-02 -5.9283062958043276e-01 +5.9110774448930033e-03
-4.4000000000000004e+00 +8.1524509379887604e+00 +0.0000000000000000e+00 -4.3999999543228601e+00 -3.1056133815431940e-02 -5.9283067900649367e-01 +5.9111068672307032e-03
-4.5000000000000000e+00 +8.1524256970187707e+00 +0.0000000000000000e+00 -4.4999999511372000e+00 -3.1056029445194703e-02 -5.9283072999163999e-01 +5.9111366519788407e-03
-4.5999999999999996e+00 +8.1523998888369498e+00 +0.0000000000000000e+00 -4.5999999478067499e+00 -3.1055920748737191e-02 -5.9283078282795965e-01 +5.9111668517771261e-03
-4.7000000000000002e+00 +8.1523735134396702e+00 +0.0000000000000000e+00 -4.6999999443283098e+00 -3.1055808470046822e-02 -5.9283083780758539e-01 +5.9111975192629564e-03
-4.7999999999999998e+00 +8.1523465708305594e+00 +0.0000000000000000e+00 -4.7999999406986600e+00 -3.1055693353074992e-02 -5.9283089522260735e-01 +5.9112287070703443e-03
-4.9000000000000004e+00 +8.1523190610096208e+00 +0.0000000000000000e+00 -4.8999999369145701e+00 -3.1055576141740076e-02 -5.9283095536516028e-01 +5.9112604678306750e-03
-5.0000000000000000e+00 +8.1522909839768491e+00 +0.0000000000000000e+00 -4.9999999329728402e+00 -3.1055457579923972e-02 -5.9283101852739883e-01 +5.9112928541722428e-03
-5.0999999999999996e+00 +8.1522623397286207e+00 +0.0000000000000000e+00 -5.0999999288702398e+00 -3.1055338411471862e-02 -5.9283108500152293e-01 +5.9113259187203960e-03
-5.2000000000000002e+00 +8.1522331282685592e+00 +0.0000000000000000e+00 -5.1999999246035600e+00 -3.1055219380185600e-02 -5.9283115507969364e-01 +5.9113597140964900e-03
-5.2999999999999998e+00 +8.1522033495966806e+00 +0.0000000000000000e+00 -5.2999999201695802e+00 -3.1055101229826642e-02 -5.9283122905411978e-01 +5.9113942929186212e-03
-5.4000000000000004e+00 +8.1521730037093203e+00 +0.0000000000000000e+00 -5.3999999155650800e+00 -3.1054984704114313e-02 -5.9283130721706045e-01 +5.9114297078014756e-03
-5.5000000000000000e+00 +8.1521420906137791e+00 +0.0000000000000000e+00 -5.4999999107868396e+00 -3.1054870546717378e-02 -5.9283138986070649e-01 +5.9114660113549758e-03
-5.5999999999999996e+00 +8.1521106102991308e+00 +0.0000000000000000e+00 -5.5999999058316599e+00 -3.1054759501265298e-02 -5.9283147727741725e-01 +5.9115032561865271e-03
-5.7000000000000002e+00 +8.1520785627762997e+00 +0.0000000000000000e+00 -5.6999999006963096e+00 -3.1054652311328475e-02 -5.9283156975939777e-01 +5.9115414948975493e-03
-5.7999999999999998e+00 +8.1520459480379905e+00 +0.0000000000000000e+00 -5.7999998953775700e+00 -3.1054549720434300e-02 -5.9283166759902195e-01 +5.9115807800866338e-03
-5.9000000000000004e+00 +8.1520127660915005e+00 +0.0000000000000000e+00 -5.8999998898722197e+00 -3.1054452472050714e-02 -5.9283177108857021e-01 +5.9116211643466835e-03
-5.9999999999999902e+00 +8.1519790169259103e+00 +0.0000000000000000e+00 -5.9999998841770603e+00 -3.1054361309598988e-02 -5.9283188052049318e-01 +5.9116627002674558e-03
-6.0999999999999899e+00 +8.1519447005521197e+00 +0.0000000000000000e+00 -6.0999998782888598e+00 -3.1054276705351387e-02 -5.9283199626392680e-01 +5.9117054282686095e-03
-6.1999999999999904e+00 +8.1519098169665103e+00 +0.0000000000000000e+00 -6.1999998722044003e+00 -3.1054198047222207e-02 -5.9283211899548161e-01 +5.9117493401141851e-03
-6.2999999999999901e+00 +8.1518743661654298e+00 +0.0000000000000000e+00 -6.2999998659204701e+00 -3.1054124452060274e-02 -5.9283224946858326e-01 +5.9117944154060062e-03
-6.3999999999999897e+00 +8.1518383481488907e+00 +0.0000000000000000e+00 -6.3999998594338496e+00 -3.1054055036740399e-02 -5.9283238843659958e-01 +5.9118406337476523e-03
-6.4999999999999902e+00 +8.1518017629241495e+00 +0.0000000000000000e+00 -6.4999998527413201e+00 -3.1053988918163397e-02 -5.9283253665280977e-01 +5.9118879747442881e-03
-6.5999999999999899e+00 +8.1517646104839496e+00 +0.0000000000000000e+00 -6.5999998458396698e+00 -3.1053925213267421e-02 -5.9283269487058010e-01 +5.9119364180045958e-03
-6.6999999999999904e+00 +8.1517268908319203e+00 +0.0000000000000000e+00 -6.6999998387256703e+00 -3.1053863039018182e-02 -5.9283286384315592e-01 +5.9119859431387882e-03
-6.7999999999999901e+00 +8.1516886039680703e+00 +0.0000000000000000e+00 -6.7999998313961196e+00 -3.1053801512417132e-02 -5.9283304432377748e-01 +5.9120365297599484e-03
-6.8999999999999897e+00 +8.1516497498923908e+00 +0.0000000000000000e+00 -6.8999998238477902e+00 -3.1053739750501394e-02 -5.9283323706565050e-01 +5.9120881574838552e-03
-6.9999999999999902e+00 +8.1516103286012402e+00 +0.0000000000000000e+00 -6.9999998160774597e+00 -3.1053676870347019e-02 -5.9283344282197248e-01 +5.9121408059294089e-03
-7.0999999999999899e+00 +8.1515703400982602e+00 +0.0000000000000000e+00 -7.0999998080819298e+00 -3.1053611989065786e-02 -5.9283366234584423e-01 +5.9121944547178536e-03
-7.1999999999999904e+00 +8.1515297843834595e+00 +0.0000000000000000e+00 -7.1999997998579603e+00 -3.1053544223811597e-02 -5.9283389639035544e-01 +5.9122490834738134e-03
-7.2999999999999901e+00 +8.1514886614531896e+00 +0.0000000000000000e+00 -7.2999997914023496e+00 -3.1053472691782168e-02 -5.9283414570858484e-01 +5.9123046718254149e-03
-7.3999999999999897e+00 +8.1514469713147300e+00 +0.0000000000000000e+00 -7.3999997827118804e+00 -3.1053396510214111e-02 -5.9283441105347912e-01 +5.9123611994032193e-03
-7.4999999999999902e+00 +8.1514047139571595e+00 +0.0000000000000000e+00 -7.4999997737833199e+00 -3.1053314796397571e-02 -5.9283469317808923e-01 +5.9124186458427421e-03
-7.5999999999999899e+00 +8.1513618893914099e+00 +0.0000000000000000e+00 -7.5999997646134698e+00 -3.1053226667659958e-02 -5.9283499283524255e-01 +5.9124769907812911e-03
-7.6999999999999904e+00 +8.1513184976138309e+00 +0.0000000000000000e+00 -7.6999997551991104e+00 -3.1053131241383793e-02 -5.9283531077783747e-01 +5.9125362138610906e-03
-7.7999999999999901e+00 +8.1512745386207808e+00 +0.0000000000000000e+00 -7.7999997455370096e+00 -3.1053027635001881e-02 -5.9283564775872499e-01 +5.9125962947282062e-03
-7.8999999999999897e+00 +8.1512300124159101e+00 +0.0000000000000000e+00 -7.8999997356239602e+00 -3.1052914965995590e-02 -5.9283600453064500e-01 +5.9126572130320720e-03
-7.9999999999999902e+00 +8.1511849189955701e+00 +0.0000000000000000e+00 -7.9999997254567399e+00 -3.1052792351903065e-02 -5.9283638184634657e-01 +5.9127189484268258e-03
-8.0999999999999908e+00 +8.1511392583670403e+00 +0.0000000000000000e+00 -8.0999997150321406e+00 -3.1052659147989197e-02 -5.9283678017291619e-01 +5.9127814598717663e-03
-8.1999999999999904e+00 +8.1510930305230396e+00 +0.0000000000000000e+00 -8.1999997043469399e+00 -3.1052515660276406e-02 -5.9283719883543817e-01 +5.9128446235373290e-03
-8.2999999999999901e+00 +8.1510462354672200e+00 +0.0000000000000000e+00 -8.2999996933979094e+00 -3.1052362432465955e-02 -5.9283763687339630e-01 +5.9129082948960639e-03
-8.3999999999999897e+00 +8.1509988731995708e+00 +0.0000000000000000e+00 -8.3999996821818605e+00 -3.1052200008259027e-02 -5.9283809332632154e-01 +5.9129723294221309e-03
-8.4999999999999893e+00 +8.1509509437164507e+00 +0.0000000000000000e+00 -8.4999996706955496e+00 -3.1052028931356453e-02 -5.9283856723379580e-01 +5.9130365825913233e-03
-8.5999999999999908e+00 +8.1509024470215099e+00 +0.0000000000000000e+00 -8.5999996589357703e+00 -3.1051849745453688e-02 -5.9283905763536215e-01 +5.9131009098801895e-03
-8.6999999999999904e+00 +8.1508533831147396e+00 +0.0000000000000000e+00 -8.6999996468993004e+00 -3.1051662994245496e-02 -5.9283956357061462e-01 +5.9131651667669776e-03
-8.7999999999999794e+00 +8.1508037519961398e+00 +0.0000000000000000e+00 -8.7999996345829192e+00 -3.1051469221424054e-02 -5.9284008407916899e-01 +5.9132292087313593e-03
-8.8999999999999808e+00 +8.1507535536620708e+00 +0.0000000000000000e+00 -8.8999996219834205e+00 -3.1051268970680501e-02 -5.9284061820069545e-01 +5.9132928912547554e-03
-8.9999999999999805e+00 +8.1507027881161793e+00 +0.0000000000000000e+00 -8.9999996090975891e+00 -3.1051062785699756e-02 -5.9284116497482742e-01 +5.9133560698194755e-03
-9.0999999999999801e+00 +8.1506514553584601e+00 +0.0000000000000000e+00 -9.0999995959221902e+00 -3.1050851210165261e-02 -5.9284172344125330e-01 +5.9134185999096377e-03
-9.1999999999999797e+00 +8.1505995553889097e+00 +0.0000000000000000e+00 -9.1999995824540193e+00 -3.1050634787757155e-02 -5.9284229263968691e-01 +5.9134803370109101e-03
-9.2999999999999794e+00 +8.1505470882038900e+00 +0.0000000000000000e+00 -9.2999995686898593e+00 -3.1050414062153652e-02 -5.9284287160989824e-01 +5.9135411366108342e-03
-9.3999999999999808e+00 +8.1504940538070496e+00 +0.0000000000000000e+00 -9.3999995546264898e+00 -3.1050189577026051e-02 -5.9284345939162519e-01 +5.9136008541979587e-03
-9.4999999999999805e+00 +8.1504404521983798e+00 +0.0000000000000000e+00 -9.4999995402606903e+00 -3.1049961876043315e-02 -5.9284405502466264e-01 +5.9136593452627593e-03
-9.5999999999999801e+00 +8.1503862833778804e+00 +0.0000000000000000e+00 -9.5999995255892507e+00 -3.1049731502870402e-02 -5.9284465754883586e-01 +5.9137164652973912e-03
-9.6999999999999797e+00 +8.1503315473419207e+00 +0.0000000000000000e+00 -9.6999995106089507e+00 -3.1049499001169493e-02 -5.9284526600402698e-01 +5.9137720697959939e-03
-9.7999999999999794e+00 +8.1502762440941297e+00 +0.0000000000000000e+00 -9.7999994953165697e+00 -3.1049264914595108e-02 -5.9284587943009204e-01 +5.9138260142538469e-03
-9.8999999999999808e+00 +8.1502203736345091e+00 +0.0000000000000000e+00 -9.8999994797088906e+00 -3.1049029786798670e-02 -5.9284649686694546e-01 +5.9138781541682763e-03
-9.9999999999999805e+00 +8.1501639359594300e+00 +0.0000000000000000e+00 -9.9999994637827001e+00 -3.1048794161428337e-02 -5.9284711735456486e-01 +5.9139283450386979e-03
-1.0100000000000000e+01 +8.1501069310761505e+00 +0.0000000000000000e+00 -1.0099999447534801e+01 -3.1048558521751285e-02 -5.9284773989743089e-01 +5.9139764798486405e-03
-1.0199999999999999e+01 +8.1500493589774106e+00 +0.0000000000000000e+00 -1.0199999430961901e+01 -3.1048323109541111e-02 -5.9284836335839808e-01 +5.9140226015187390e-03
-1.0300000000000001e+01 +8.1499912196668394e+00 +0.0000000000000000e+00 -1.0299999414060901e+01 -3.1048088106169720e-02 -5.9284898656478435e-01 +5.9140667904520293e-03
-1.0400000000000000e+01 +8.1499325131444493e+00 +0.0000000000000000e+00 -1.0399999396828500e+01 -3.1047853692984528e-02 -5.9284960834392708e-01 +5.9141091270504299e-03
-1.0500000000000000e+01 +8.1498732394065900e+00 +0.0000000000000000e+00 -1.0499999379261400e+01 -3.1047620051307775e-02 -5.9285022752318284e-01 +5.9141496917146930e-03
-1.0600000000000000e+01 +8.1498133984568994e+00 +0.0000000000000000e+00 -1.0599999361356600e+01 -3.1047387362430998e-02 -5.9285084292983814e-01 +5.9141885648434601e-03
-1.0699999999999999e+01 +8.1497529902953794e+00 +0.0000000000000000e+00 -1.0699999343110701e+01 -3.1047155807619169e-02 -5.9285145339119816e-01 +5.9142258268340981e-03
-1.0800000000000001e+01 +8.1496920149220404e+00 +0.0000000000000000e+00 -1.0799999324520600e+01 -3.1046925568108463e-02 -5.9285205773455707e-01 +5.9142615580823612e-03
-1.0900000000000000e+01 +8.1496304723332305e+00 +0.0000000000000000e+00 -1.0899999305583000e+01 -3.1046696825107151e-02 -5.9285265478722660e-01 +5.9142958389826290e-03
-1.1000000000000000e+01 +8.1495683625325892e+00 +0.0000000000000000e+00 -1.0999999286294800e+01 -3.1046469759790071e-02 -5.9285324337644774e-01 +5.9143287499269616e-03
-1.1100000000000000e+01 +8.1495056855201309e+00 +0.0000000000000000e+00 -1.1099999266652601e+01 -3.1046244553302849e-02 -5.9285382232947992e-01 +5.9143603713059465e-03
-1.1199999999999999e+01 +8.1494424412958306e+00 +0.0000000000000000e+00 -1.1199999246653300e+01 -3.1046021386759552e-02 -5.9285439047356869e-01 +5.9143907835083427e-03
-1.1300000000000001e+01 +8.1493786298560700e+00 +0.0000000000000000e+00 -1.1299999226293700e+01 -3.1045800441243634e-02 -5.9285494663597804e-01 +5.9144200669213332e-03
-1.1400000000000000e+01 +8.1493142512044905e+00 +0.0000000000000000e+00 -1.1399999205570500e+01 -3.1045581897802436e-02 -5.9285548964389900e-01 +5.9144483019295657e-03
-1.1500000000000000e+01 +8.1492493053447106e+00 +0.0000000000000000e+00 -1.1499999184480499e+01 -3.1045365937449752e-02 -5.9285601832450985e-01 +5.9144755689157138e-03
-1.1600000000000000e+01 +8.1491837922658306e+00 +0.0000000000000000e+00 -1.1599999163020600e+01 -3.1045152741171578e-02 -5.9285653150509443e-01 +5.9145019482616107e-03
-1.1699999999999999e+01 +8.1491177119787608e+00 +0.0000000000000000e+00 -1.1699999141187400e+01 -3.1044942489909303e-02 -5.9285702801274465e-01 +5.9145275203452011e-03
