# field on trajectory
# s[mm] rx[mm] ry[mm] rz[mm] bx[T] by[T] bz[T]
0.0000000000000000e+00 +7.9199999999999999e+00 +0.0000000000000000e+00 +0.0000000000000000e+00 -2.8517643080581575e-02 -5.3810055813658864e-01 +5.3497929137419275e-03
-1.0000000000000001e-01 +7.9199997171835594e+00 +0.0000000000000000e+00 -9.9999999999466765e-02 -2.8517531430691346e-02 -5.3810059506911179e-01 +5.3498415922773072e-03
-2.0000000000000001e-01 +7.9199988687342113e+00 +0.0000000000000000e+00 -1.9999999999573415e-01 -2.8517425853239867e-02 -5.3810063039862088e-01 +5.3498898150796592e-03
-3.0000000000000004e-01 +7.9199974546519183e+00 +0.0000000000000000e+00 -2.9999999998560273e-01 -2.8517325950281378e-02 -5.3810066402897927e-01 +5.3499376915740506e-03
-4.0000000000000002e-01 +7.9199954749366457e+00 +0.0000000000000000e+00 -3.9999999996587304e-01 -2.8517231323873973e-02 -5.3810069586404452e-01 +5.3499853311865806e-03
-5.0000000000000000e-01 +7.9199929295883598e+00 +0.0000000000000000e+00 -4.9999999993334576e-01 -2.8517141576079454e-02 -5.3810072580767077e-01 +5.3500328433441959e-03
-5.9999999999999998e-01 +7.9199898186070294e+00 +0.0000000000000000e+00 -5.9999999988482144e-01 -2.8517056308963010e-02 -5.3810075376371069e-01 +5.3500803374745476e-03
-6.9999999999999996e-01 +7.9199861419926254e+00 +0.0000000000000000e+00 -6.9999999981710070e-01 -2.8516975124593065e-02 -5.3810077963601854e-01 +5.3501279230057973e-03
-7.9999999999999993e-01 +7.9199818997451201e+00 +0.0000000000000000e+00 -7.9999999972698410e-01 -2.8516897625040956e-02 -5.3810080332845089e-01 +5.3501757093664462e-03
-8.9999999999999991e-01 +7.9199770918644896e+00 +0.0000000000000000e+00 -8.9999999961127219e-01 -2.8516823412380782e-02 -5.3810082474486987e-01 +5.3502238059851730e-03
-9.9999999999999989e-01 +7.9199717183507108e+00 +0.0000000000000000e+00 -9.9999999946676565e-01 -2.8516752088689142e-02 -5.3810084378914436e-01 +5.3502723222906652e-03
-1.0999999999999999e+00 +7.9199657792037641e+00 +0.0000000000000000e+00 -1.0999999992902649e+00 -2.8516683256044898e-02 -5.3810086036515414e-01 +5.3503213677114402e-03
-1.2000000000000000e+00 +7.9199592744236327e+00 +0.0000000000000000e+00 -1.1999999990785708e+00 -2.8516616516528932e-02 -5.3810087437678966e-01 +5.3503710516756755e-03
-1.3000000000000000e+00 +7.9199522040103014e+00 +0.0000000000000000e+00 -1.2999999988284838e+00 -2.8516551472223928e-02 -5.3810088572795545e-01 +5.3504214836110394e-03
-1.4000000000000001e+00 +7.9199445679637588e+00 +0.0000000000000000e+00 -1.3999999985368046e+00 -2.8516487725214163e-02 -5.3810089432257213e-01 +5.3504727729445176e-03
-1.5000000000000002e+00 +7.9199363662839959e+00 +0.0000000000000000e+00 -1.4999999982003336e+00 -2.8516424877585229e-02 -5.3810090006457889e-01 +5.3505250291022502e-03
-1.6000000000000003e+00 +7.9199275989710074e+00 +0.0000000000000000e+00 -1.5999999978158714e+00 -2.8516362531423822e-02 -5.3810090285793499e-01 +5.3505783615093458e-03
-1.7000000000000004e+00 +7.9199182660247907e+00 +0.0000000000000000e+00 -1.6999999973802187e+00 -2.8516300288817527e-02 -5.3810090260662213e-01 +5.3506328795897258e-03
-1.8000000000000005e+00 +7.9199083674453457e+00 +0.0000000000000000e+00 -1.7999999968901761e+00 -2.8516237751854554e-02 -5.3810089921464743e-01 +5.3506886927659454e-03
-1.9000000000000006e+00 +7.9198979032326768e+00 +0.0000000000000000e+00 -1.8999999963425440e+00 -2.8516174522623530e-02 -5.3810089258604421e-01 +5.3507459104590203e-03
-2.0000000000000004e+00 +7.9198868733867913e+00 +0.0000000000000000e+00 -1.9999999957341232e+00 -2.8516110203213256e-02 -5.3810088262487510e-01 +5.3508046420882600e-03
-2.1000000000000005e+00 +7.9198752779076997e+00 +0.0000000000000000e+00 -2.0999999950617143e+00 -2.8516044440834800e-02 -5.3810086933305379e-01 +5.3508649796327737e-03
-2.2000000000000006e+00 +7.9198631167954172e+00 +0.0000000000000000e+00 -2.1999999943221176e+00 -2.8515977063188657e-02 -5.3810085310379485e-01 +5.3509269453169373e-03
-2.3000000000000007e+00 +7.9198503900499606e+00 +0.0000000000000000e+00 -2.2999999935121340e+00 -2.8515907943098284e-02 -5.3810083442813317e-01 +5.3509905439263778e-03
-2.4000000000000008e+00 +7.9198370976713495e+00 +0.0000000000000000e+00 -2.3999999926285640e+00 -2.8515836953387809e-02 -5.3810081379709973e-01 +5.3510557802464885e-03
-2.5000000000000009e+00 +7.9198232396596060e+00 +0.0000000000000000e+00 -2.4999999916682083e+00 -2.8515763966881907e-02 -5.3810079170172020e-01 +5.3511226590624798e-03
-2.6000000000000010e+00 +7.9198088160147542e+00 +0.0000000000000000e+00 -2.5999999906278672e+00 -2.8515688856405690e-02 -5.3810076863301182e-01 +5.3511911851594051e-03
-2.7000000000000011e+00 +7.9197938267368189e+00 +0.0000000000000000e+00 -2.6999999895043416e+00 -2.8515611494784637e-02 -5.3810074508198180e-01 +5.3512613633222312e-03
-2.8000000000000012e+00 +7.9197782718258249e+00 +0.0000000000000000e+00 -2.7999999882944322e+00 -2.8515531754844520e-02 -5.3810072153962607e-01 +5.3513331983358640e-03
-2.9000000000000012e+00 +7.9197621512817973e+00 +0.0000000000000000e+00 -2.8999999869949393e+00 -2.8515449509411282e-02 -5.3810069849692621e-01 +5.3514066949852061e-03
-3.0000000000000013e+00 +7.9197454651047607e+00 +0.0000000000000000e+00 -2.9999999856026633e+00 -2.8515364631310977e-02 -5.3810067644484860e-01 +5.3514818580551893e-03
-3.1000000000000014e+00 +7.9197282132947393e+00 +0.0000000000000000e+00 -3.0999999841144055e+00 -2.8515276993369604e-02 -5.3810065587434086e-01 +5.3515586923308257e-03
-3.2000000000000015e+00 +7.9197103958517552e+00 +0.0000000000000000e+00 -3.1999999825269656e+00 -2.8515186468413112e-02 -5.3810063727633139e-01 +5.3516372025972526e-03
-3.3000000000000016e+00 +7.9196920127758279e+00 +0.0000000000000000e+00 -3.2999999808371450e+00 -2.8515092929267249e-02 -5.3810062114172674e-01 +5.3517173936397820e-03
-3.4000000000000017e+00 +7.9196730640669752e+00 +0.0000000000000000e+00 -3.3999999790417439e+00 -2.8514996248757481e-02 -5.3810060796140924e-01 +5.3517992702439288e-03
-3.5000000000000018e+00 +7.9196535497252123e+00 +0.0000000000000000e+00 -3.4999999771375627e+00 -2.8514896299708905e-02 -5.3810059822623579e-01 +5.3518828371954801e-03
-3.6000000000000019e+00 +7.9196334697505488e+00 +0.0000000000000000e+00 -3.5999999751214027e+00 -2.8514792954946161e-02 -5.3810059242703545e-01 +5.3519680992805182e-03
-3.7000000000000020e+00 +7.9196128241429919e+00 +0.0000000000000000e+00 -3.6999999729900637e+00 -2.8514686087293309e-02 -5.3810059105460728e-01 +5.3520550612854746e-03
-3.8000000000000020e+00 +7.9195916129025434e+00 +0.0000000000000000e+00 -3.7999999707403469e+00 -2.8514575569573784e-02 -5.3810059459971893e-01 +5.3521437279971749e-03
-3.9000000000000021e+00 +7.9195698360292006e+00 +0.0000000000000000e+00 -3.8999999683690527e+00 -2.8514461274610280e-02 -5.3810060355310374e-01 +5.3522341042028842e-03
-4.0000000000000018e+00 +7.9195474935229546e+00 +0.0000000000000000e+00 -3.9999999658729815e+00 -2.8514343075224640e-02 -5.3810061840545931e-01 +5.3523261946903447e-03
-4.1000000000000014e+00 +7.9195245853837903e+00 +0.0000000000000000e+00 -4.0999999632489343e+00 -2.8514221041615724e-02 -5.3810063958197629e-01 +5.3524200001354031e-03
-4.2000000000000011e+00 +7.9195011116116865e+00 +0.0000000000000000e+00 -4.1999999604937113e+00 -2.8514096033491528e-02 -5.3810066724593730e-01 +5.3525155047644416e-03
-4.3000000000000007e+00 +7.9194770722066146e+00 +0.0000000000000000e+00 -4.2999999576041130e+00 -2.8513969107930852e-02 -5.3810070149515588e-01 +5.3526126886912773e-03
-4.4000000000000004e+00 +7.9194524671685400e+00 +0.0000000000000000e+00 -4.3999999545769404e+00 -2.8513841322003824e-02 -5.3810074242744721e-01 +5.3527115320295164e-03
-4.5000000000000000e+00 +7.9194272964974193e+00 +0.0000000000000000e+00 -4.4999999514089932e+00 -2.8513713732771451e-02 -5.3810079014063139e-01 +5.3528120148925622e-03
-4.5999999999999996e+00 +7.9194015601932044e+00 +0.0000000000000000e+00 -4.5999999480970732e+00 -2.8513587397285101e-02 -5.3810084473253283e-01 +5.3529141173936038e-03
-4.6999999999999993e+00 +7.9193752582558377e+00 +0.0000000000000000e+00 -4.6999999446379803e+00 -2.8513463372585993e-02 -5.3810090630098129e-01 +5.3530178196456221e-03
-4.7999999999999989e+00 +7.9193483906852560e+00 +0.0000000000000000e+00 -4.7999999410285152e+00 -2.8513342715704684e-02 -5.3810097494381215e-01 +5.3531231017613810e-03
-4.8999999999999986e+00 +7.9193209574813874e+00 +0.0000000000000000e+00 -4.8999999372654788e+00 -2.8513226483660576e-02 -5.3810105075886761e-01 +5.3532299438534270e-03
-4.9999999999999982e+00 +7.9192929586441529e+00 +0.0000000000000000e+00 -4.9999999333456708e+00 -2.8513115733461387e-02 -5.3810113384399649e-01 +5.3533383260340748e-03
-5.0999999999999979e+00 +7.9192643941734673e+00 +0.0000000000000000e+00 -5.0999999292658922e+00 -2.8513011522102678e-02 -5.3810122429705554e-01 +5.3534482284154266e-03
-5.1999999999999975e+00 +7.9192352640692354e+00 +0.0000000000000000e+00 -5.1999999250229436e+00 -2.8512914906567283e-02 -5.3810132221590978e-01 +5.3535596311093427e-03
-5.2999999999999972e+00 +7.9192055683313551e+00 +0.0000000000000000e+00 -5.2999999206136259e+00 -2.8512826943824874e-02 -5.3810142769843328e-01 +5.3536725142274595e-03
-5.3999999999999968e+00 +7.9191753069597173e+00 +0.0000000000000000e+00 -5.3999999160347398e+00 -2.8512748690831400e-02 -5.3810154084250972e-01 +5.3537868578811760e-03
-5.4999999999999964e+00 +7.9191444799542028e+00 +0.0000000000000000e+00 -5.4999999112830853e+00 -2.8512681204528590e-02 -5.3810166174603236e-01 +5.3539026421816471e-03
-5.5999999999999961e+00 +7.9191130873146864e+00 +0.0000000000000000e+00 -5.5999999063554631e+00 -2.8512625541843462e-02 -5.3810179050690599e-01 +5.3540198472397963e-03
-5.6999999999999957e+00 +7.9190811290410341e+00 +0.0000000000000000e+00 -5.6999999012486731e+00 -2.8512582759687793e-02 -5.3810192722304651e-01 +5.3541384531662914e-03
-5.7999999999999954e+00 +7.9190486051331019e+00 +0.0000000000000000e+00 -5.7999998959595169e+00 -2.8512553914957595e-02 -5.3810207199238191e-01 +5.3542584400715588e-03
-5.8999999999999950e+00 +7.9190155155907398e+00 +0.0000000000000000e+00 -5.8999998904847946e+00 -2.8512540064532643e-02 -5.3810222491285276e-01 +5.3543797880657718e-03
-5.9999999999999947e+00 +7.9189818604137878e+00 +0.0000000000000000e+00 -5.9999998848213068e+00 -2.8512542265275935e-02 -5.3810238608241256e-01 +5.3545024772588467e-03
-6.0999999999999943e+00 +7.9189476396020773e+00 +0.0000000000000000e+00 -6.0999998789658534e+00 -2.8512561166290480e-02 -5.3810255557670805e-01 +5.3546264674626887e-03
-6.1999999999999940e+00 +7.9189128531554314e+00 +0.0000000000000000e+00 -6.1999998729152352e+00 -2.8512595785698244e-02 -5.3810273338211390e-01 +5.3547516372967844e-03
-6.2999999999999936e+00 +7.9188775010736645e+00 +0.0000000000000000e+00 -6.2999998666662531e+00 -2.8512644733894241e-02 -5.3810291946269950e-01 +5.3548778450800902e-03
-6.3999999999999932e+00 +7.9188415833565822e+00 +0.0000000000000000e+00 -6.3999998602157078e+00 -2.8512706621296468e-02 -5.3810311378255271e-01 +5.3550049491286169e-03
-6.4999999999999929e+00 +7.9188051000039810e+00 +0.0000000000000000e+00 -6.4999998535603991e+00 -2.8512780058346929e-02 -5.3810331630577857e-01 +5.3551328077553256e-03
-6.5999999999999925e+00 +7.9187680510156495e+00 +0.0000000000000000e+00 -6.5999998466971279e+00 -2.8512863655512765e-02 -5.3810352699650088e-01 +5.3552612792700108e-03
-6.6999999999999922e+00 +7.9187304363913666e+00 +0.0000000000000000e+00 -6.6999998396226950e+00 -2.8512956023287378e-02 -5.3810374581886355e-01 +5.3553902219792187e-03
-6.7999999999999918e+00 +7.9186922561309041e+00 +0.0000000000000000e+00 -6.7999998323339002e+00 -2.8513055772191504e-02 -5.3810397273702992e-01 +5.3555194941861126e-03
-6.8999999999999915e+00 +7.9186535102340248e+00 +0.0000000000000000e+00 -6.8999998248275443e+00 -2.8513161512774325e-02 -5.3810420771518475e-01 +5.3556489541903831e-03
-6.9999999999999911e+00 +7.9186141987004834e+00 +0.0000000000000000e+00 -6.9999998171004272e+00 -2.8513271855614614e-02 -5.3810445071753399e-01 +5.3557784602881429e-03
-7.0999999999999908e+00 +7.9185743215300253e+00 +0.0000000000000000e+00 -7.0999998091493497e+00 -2.8513385411321777e-02 -5.3810470170830604e-01 +5.3559078707718132e-03
-7.1999999999999904e+00 +7.9185338787223873e+00 +0.0000000000000000e+00 -7.1999998009711126e+00 -2.8513500790537018e-02 -5.3810496065175173e-01 +5.3560370439300203e-03
-7.2999999999999901e+00 +7.9184928702772996e+00 +0.0000000000000000e+00 -7.2999997925625157e+00 -2.8513616603934415e-02 -5.3810522751214607e-01 +5.3561658380474964e-03
-7.3999999999999897e+00 +7.9184512961944824e+00 +0.0000000000000000e+00 -7.3999997839203600e+00 -2.8513731462222039e-02 -5.3810550225378784e-01 +5.3562941114049635e-03
-7.4999999999999893e+00 +7.9184091564736478e+00 +0.0000000000000000e+00 -7.4999997750414460e+00 -2.8513843976143094e-02 -5.3810578484100147e-01 +5.3564217222790353e-03
-7.5999999999999890e+00 +7.9183664511145011e+00 +0.0000000000000000e+00 -7.5999997659225738e+00 -2.8513952756476963e-02 -5.3810607523813647e-01 +5.3565485289421046e-03
-7.6999999999999886e+00 +7.9183231801167375e+00 +0.0000000000000000e+00 -7.6999997565605440e+00 -2.8514056414040367e-02 -5.3810637340956857e-01 +5.3566743896622448e-03
-7.7999999999999883e+00 +7.9182793434800454e+00 +0.0000000000000000e+00 -7.7999997469521567e+00 -2.8514153559688477e-02 -5.3810667931970124e-01 +5.3567991627031008e-03
-7.8999999999999879e+00 +7.9182349412041049e+00 +0.0000000000000000e+00 -7.8999997370942125e+00 -2.8514242804316015e-02 -5.3810699293296504e-01 +5.3569227063237764e-03
-7.9999999999999876e+00 +7.9181899732885874e+00 +0.0000000000000000e+00 -7.9999997269835115e+00 -2.8514322758858367e-02 -5.3810731421381941e-01 +5.3570448787787469e-03
-8.0999999999999872e+00 +7.9181444397331564e+00 +0.0000000000000000e+00 -8.0999997166168551e+00 -2.8514392339325744e-02 -5.3810764304445735e-01 +5.3571655758308375e-03
-8.1999999999999869e+00 +7.9180983405374681e+00 +0.0000000000000000e+00 -8.1999997059910417e+00 -2.8514451681885319e-02 -5.3810797897790619e-01 +5.3572848432954200e-03
-8.2999999999999865e+00 +7.9180516757011707e+00 +0.0000000000000000e+00 -8.2999996951028727e+00 -2.8514501227708076e-02 -5.3810832148489474e-01 +5.3574027645070512e-03
-8.3999999999999861e+00 +7.9180044452239056e+00 +0.0000000000000000e+00 -8.3999996839491491e+00 -2.8514541417922350e-02 -5.3810867003614582e-01 +5.3575194228069195e-03
-8.4999999999999858e+00 +7.9179566491053084e+00 +0.0000000000000000e+00 -8.4999996725266698e+00 -2.8514572693612423e-02 -5.3810902410237693e-01 +5.3576349015430650e-03
-8.5999999999999854e+00 +7.9179082873450088e+00 +0.0000000000000000e+00 -8.5999996608322373e+00 -2.8514595495816954e-02 -5.3810938315429790e-01 +5.3577492840706335e-03
-8.6999999999999851e+00 +7.9178593599426303e+00 +0.0000000000000000e+00 -8.6999996488626490e+00 -2.8514610265527578e-02 -5.3810974666261302e-01 +5.3578626537521086e-03
-8.7999999999999847e+00 +7.9178098668977928e+00 +0.0000000000000000e+00 -8.7999996366147073e+00 -2.8514617443687364e-02 -5.3811011409801868e-01 +5.3579750939575510e-03
-8.8999999999999844e+00 +7.9177598082101106e+00 +0.0000000000000000e+00 -8.8999996240852131e+00 -2.8514617471189382e-02 -5.3811048493120417e-01 +5.3580866880648297e-03
-8.9999999999999840e+00 +7.9177091838791966e+00 +0.0000000000000000e+00 -8.9999996112709653e+00 -2.8514610788875166e-02 -5.3811085863285013e-01 +5.3581975194598730e-03
-9.0999999999999837e+00 +7.9176579939046601e+00 +0.0000000000000000e+00 -9.0999995981687629e+00 -2.8514597837533264e-02 -5.3811123467362909e-01 +5.3583076715368969e-03
-9.1999999999999833e+00 +7.9176062382861065e+00 +0.0000000000000000e+00 -9.1999995847754086e+00 -2.8514579057897727e-02 -5.3811161252420481e-01 +5.3584172276986506e-03
-9.2999999999999829e+00 +7.9175539170231408e+00 +0.0000000000000000e+00 -9.2999995710877013e+00 -2.8514554890646669e-02 -5.3811199165523171e-01 +5.3585262713566435e-03
-9.3999999999999826e+00 +7.9175010301153659e+00 +0.0000000000000000e+00 -9.3999995571024417e+00 -2.8514525776400731e-02 -5.3811237153735447e-01 +5.3586348859313978e-03
-9.4999999999999822e+00 +7.9174475775623847e+00 +0.0000000000000000e+00 -9.4999995428164308e+00 -2.8514492155721608e-02 -5.3811275164120764e-01 +5.3587431548526776e-03
-9.5999999999999819e+00 +7.9173935593637985e+00 +0.0000000000000000e+00 -9.5999995282264674e+00 -2.8514454469110592e-02 -5.3811313143741557e-01 +5.3588511615597330e-03
-9.6999999999999815e+00 +7.9173389755192112e+00 +0.0000000000000000e+00 -9.6999995133293524e+00 -2.8514413157007024e-02 -5.3811351039659139e-01 +5.3589589895015281e-03
-9.7999999999999812e+00 +7.9172838260282248e+00 +0.0000000000000000e+00 -9.7999994981218865e+00 -2.8514368659786869e-02 -5.3811388798933735e-01 +5.3590667221369986e-03
-9.8999999999999808e+00 +7.9172281108904450e+00 +0.0000000000000000e+00 -9.8999994826008688e+00 -2.8514321417761192e-02 -5.3811426368624338e-01 +5.3591744429352679e-03
-9.9999999999999805e+00 +7.9171718301054783e+00 +0.0000000000000000e+00 -9.9999994667631000e+00 -2.8514271871174664e-02 -5.3811463695788786e-01 +5.3592822353759045e-03
-1.0099999999999980e+01 +7.9171149836729349e+00 +0.0000000000000000e+00 -1.0099999450605381e+01 -2.8514220481169108e-02 -5.3811500737934548e-01 +5.3593901837829909e-03
-1.0199999999999980e+01 +7.9170575715924265e+00 +0.0000000000000000e+00 -1.0199999434124511e+01 -2.8514167792718547e-02 -5.3811537494370121e-01 +5.3594983758222326e-03
-1.0299999999999979e+01 +7.9169995938635696e+00 +0.0000000000000000e+00 -1.0299999417317292e+01 -2.8514114371803515e-02 -5.3811573974847959e-01 +5.3596068999912311e-03
-1.0399999999999979e+01 +7.9169410504859812e+00 +0.0000000000000000e+00 -1.0399999400180521e+01 -2.8514060784456768e-02 -5.3811610189112402e-01 +5.3597158447843407e-03
-1.0499999999999979e+01 +7.9168819414592830e+00 +0.0000000000000000e+00 -1.0499999382711001e+01 -2.8514007596764770e-02 -5.3811646146899583e-01 +5.3598252986925598e-03
-1.0599999999999978e+01 +7.9168222667830994e+00 +0.0000000000000000e+00 -1.0599999364905532e+01 -2.8513955374869119e-02 -5.3811681857937110e-01 +5.3599353502034094e-03
-1.0699999999999978e+01 +7.9167620264570564e+00 +0.0000000000000000e+00 -1.0699999346760913e+01 -2.8513904684968089e-02 -5.3811717331944020e-01 +5.3600460878008320e-03
-1.0799999999999978e+01 +7.9167012204807836e+00 +0.0000000000000000e+00 -1.0799999328273945e+01 -2.8513856093318052e-02 -5.3811752578630390e-01 +5.3601575999650611e-03
-1.0899999999999977e+01 +7.9166398488539116e+00 +0.0000000000000000e+00 -1.0899999309441426e+01 -2.8513810166234992e-02 -5.3811787607697303e-01 +5.3602699751725243e-03
-1.0999999999999977e+01 +7.9165779115760744e+00 +0.0000000000000000e+00 -1.0999999290260160e+01 -2.8513767470095985e-02 -5.3811822428836609e-01 +5.3603833018957200e-03
-1.1099999999999977e+01 +7.9165154086469087e+00 +0.0000000000000000e+00 -1.1099999270726943e+01 -2.8513728571340640e-02 -5.3811857051730627e-01 +5.3604976686031057e-03
-1.1199999999999976e+01 +7.9164523400660514e+00 +0.0000000000000000e+00 -1.1199999250838578e+01 -2.8513694036472619e-02 -5.3811891486052066e-01 +5.3606131637589840e-03
-1.1299999999999976e+01 +7.9163887058331435e+00 +0.0000000000000000e+00 -1.1299999230591865e+01 -2.8513664432061086e-02 -5.3811925741463840e-01 +5.3607298758233850e-03
-1.1399999999999975e+01 +7.9163245059478262e+00 +0.0000000000000000e+00 -1.1399999209983603e+01 -2.8513640324742184e-02 -5.3811959827618738e-01 +5.3608478932519622e-03
-1.1499999999999975e+01 +7.9162597404097443e+00 +0.0000000000000000e+00 -1.1499999189010593e+01 -2.8513622281220546e-02 -5.3811993754159337e-01 +5.3609673044958594e-03
-1.1599999999999975e+01 +7.9161944092185426e+00 +0.0000000000000000e+00 -1.1599999167669635e+01 -2.8513610868270686e-02 -5.3812027530717754e-01 +5.3610881980016185e-03
-1.1699999999999974e+01 +7.9161285123738674e+00 +0.0000000000000000e+00 -1.1699999145957529e+01 -2.8513606652738589e-02 -5.3812061166915515e-01 +5.3612106622110403e-03
