# field on trajectory
# s[mm] rx[mm] ry[mm] rz[mm] bx[T] by[T] bz[T]
0.0000000000000000e+00 +7.9199999999999999e+00 +0.0000000000000000e+00 +0.0000000000000000e+00 -3.0042018471265076e-02 -5.6616817126587204e-01 +5.6409918135290763e-03
-1.0000000000000001e-01 +7.9199997171117715e+00 +0.0000000000000000e+00 -9.9999999999466502e-02 -3.0041954776128733e-02 -5.6616801396133021e-01 +5.6410465470885154e-03
-2.0000000000000001e-01 +7.9199988684471920e+00 +0.0000000000000000e+00 -1.9999999999573198e-01 -3.0041889571522543e-02 -5.6616785812555881e-01 +5.6410995854494356e-03
-3.0000000000000004e-01 +7.9199974540064160e+00 +0.0000000000000000e+00 -2.9999999998559534e-01 -3.0041823138154566e-02 -5.6616770447275666e-01 +5.6411512316326988e-03
-4.0000000000000002e-01 +7.9199954737895979e+00 +0.0000000000000000e+00 -3.9999999996585567e-01 -3.0041755756725980e-02 -5.6616755371712990e-01 +5.6412017886588077e-03
-5.0000000000000000e-01 +7.9199929277968879e+00 +0.0000000000000000e+00 -4.9999999993331190e-01 -3.0041687707930444e-02 -5.6616740657289033e-01 +5.6412515595477648e-03
-5.9999999999999998e-01 +7.9199898160284334e+00 +0.0000000000000000e+00 -5.9999999988476305e-01 -3.0041619272453222e-02 -5.6616726375425608e-01 +5.6413008473189192e-03
-6.9999999999999996e-01 +7.9199861384843766e+00 +0.0000000000000000e+00 -6.9999999981700800e-01 -3.0041550730970517e-02 -5.6616712597544894e-01 +5.6413499549908238e-03
-7.9999999999999993e-01 +7.9199818951648560e+00 +0.0000000000000000e+00 -7.9999999972684577e-01 -3.0041482364148709e-02 -5.6616699395069481e-01 +5.6413991855810827e-03
-8.9999999999999991e-01 +7.9199770860700029e+00 +0.0000000000000000e+00 -8.9999999961107535e-01 -3.0041414452643637e-02 -5.6616686839422348e-01 +5.6414488421062193e-03
-9.9999999999999989e-01 +7.9199717111999428e+00 +0.0000000000000000e+00 -9.9999999946649587e-01 -3.0041347277099850e-02 -5.6616675002026684e-01 +5.6414992275815139e-03
-1.0999999999999999e+00 +7.9199657705547946e+00 +0.0000000000000000e+00 -1.0999999992899061e+00 -3.0041281118149795e-02 -5.6616663954305757e-01 +5.6415506450208583e-03
-1.2000000000000000e+00 +7.9199592641346683e+00 +0.0000000000000000e+00 -1.1999999990781052e+00 -3.0041216256413206e-02 -5.6616653767683045e-01 +5.6416033974366212e-03
-1.3000000000000000e+00 +7.9199521919396663e+00 +0.0000000000000000e+00 -1.2999999988278921e+00 -3.0041152972496266e-02 -5.6616644513581937e-01 +5.6416577878394903e-03
-1.4000000000000001e+00 +7.9199445539698816e+00 +0.0000000000000000e+00 -1.3999999985360658e+00 -3.0041091546990875e-02 -5.6616636263425835e-01 +5.6417141192383266e-03
-1.5000000000000002e+00 +7.9199363502253961e+00 +0.0000000000000000e+00 -1.4999999981994252e+00 -3.0041032260473961e-02 -5.6616629088637949e-01 +5.6417726946400284e-03
-1.6000000000000003e+00 +7.9199275807062826e+00 +0.0000000000000000e+00 -1.5999999978147694e+00 -3.0040975393506676e-02 -5.6616623060641291e-01 +5.6418338170493637e-03
-1.7000000000000004e+00 +7.9199182454126005e+00 +0.0000000000000000e+00 -1.6999999973788975e+00 -3.0040921226633703e-02 -5.6616618250858608e-01 +5.6418977894688504e-03
-1.8000000000000005e+00 +7.9199083443443987e+00 +0.0000000000000000e+00 -1.7999999968886082e+00 -3.0040870040382466e-02 -5.6616614730712245e-01 +5.6419649148985833e-03
-1.9000000000000006e+00 +7.9198978775017128e+00 +0.0000000000000000e+00 -1.8999999963407008e+00 -3.0040822115262440e-02 -5.6616612571624114e-01 +5.6420354963361043e-03
-2.0000000000000004e+00 +7.9198868448845641e+00 +0.0000000000000000e+00 -1.9999999957319743e+00 -3.0040777731764366e-02 -5.6616611845015619e-01 +5.6421098367762509e-03
-2.1000000000000005e+00 +7.9198752464929605e+00 +0.0000000000000000e+00 -2.0999999950592274e+00 -3.0040736992291848e-02 -5.6616612595727456e-01 +5.6421881597789577e-03
-2.2000000000000006e+00 +7.9198630823268950e+00 +0.0000000000000000e+00 -2.1999999943192594e+00 -3.0040699286966767e-02 -5.6616614762279671e-01 +5.6422703711743521e-03
-2.3000000000000007e+00 +7.9198503523863462e+00 +0.0000000000000000e+00 -2.2999999935088691e+00 -3.0040663827849232e-02 -5.6616618256612428e-01 +5.6423562973615133e-03
-2.4000000000000008e+00 +7.9198370566712795e+00 +0.0000000000000000e+00 -2.3999999926248554e+00 -3.0040629827009856e-02 -5.6616622990666166e-01 +5.6424457647412142e-03
-2.5000000000000009e+00 +7.9198231951816478e+00 +0.0000000000000000e+00 -2.4999999916640174e+00 -3.0040596496532325e-02 -5.6616628876381736e-01 +5.6425385997162817e-03
-2.6000000000000010e+00 +7.9198087679173934e+00 +0.0000000000000000e+00 -2.5999999906231541e+00 -3.0040563048515823e-02 -5.6616635825700345e-01 +5.6426346286919463e-03
-2.7000000000000011e+00 +7.9197937748784479e+00 +0.0000000000000000e+00 -2.6999999894990645e+00 -3.0040528695077572e-02 -5.6616643750563700e-01 +5.6427336780761998e-03
-2.8000000000000012e+00 +7.9197782160647314e+00 +0.0000000000000000e+00 -2.7999999882885476e+00 -3.0040492648355215e-02 -5.6616652562913827e-01 +5.6428355742801388e-03
-2.9000000000000012e+00 +7.9197620914761577e+00 +0.0000000000000000e+00 -2.8999999869884023e+00 -3.0040454120509416e-02 -5.6616662174693411e-01 +5.6429401437183271e-03
-3.0000000000000013e+00 +7.9197454011126309e+00 +0.0000000000000000e+00 -2.9999999855954278e+00 -3.0040412323726277e-02 -5.6616672497845622e-01 +5.6430472128091366e-03
-3.1000000000000014e+00 +7.9197281449740480e+00 +0.0000000000000000e+00 -3.0999999841064230e+00 -3.0040366470219817e-02 -5.6616683444314198e-01 +5.6431566079751076e-03
-3.2000000000000015e+00 +7.9197103230603005e+00 +0.0000000000000000e+00 -3.1999999825181864e+00 -3.0040315772234490e-02 -5.6616694926043509e-01 +5.6432681556432985e-03
-3.3000000000000016e+00 +7.9196919353712740e+00 +0.0000000000000000e+00 -3.2999999808275176e+00 -3.0040259442047659e-02 -5.6616706854978593e-01 +5.6433816822456439e-03
-3.4000000000000017e+00 +7.9196729819068503e+00 +0.0000000000000000e+00 -3.3999999790312150e+00 -3.0040196691972047e-02 -5.6616719143065175e-01 +5.6434970142193001e-03
-3.5000000000000018e+00 +7.9196534626669077e+00 +0.0000000000000000e+00 -3.4999999771260777e+00 -3.0040126734358304e-02 -5.6616731702249667e-01 +5.6436139780069979e-03
-3.6000000000000019e+00 +7.9196333776513201e+00 +0.0000000000000000e+00 -3.5999999751089051e+00 -3.0040048781597391e-02 -5.6616744444479339e-01 +5.6437324000573946e-03
-3.7000000000000020e+00 +7.9196127268599623e+00 +0.0000000000000000e+00 -3.6999999729764959e+00 -3.0039962046123140e-02 -5.6616757281702135e-01 +5.6438521068254361e-03
-3.8000000000000020e+00 +7.9195915102927064e+00 +0.0000000000000000e+00 -3.7999999707256489e+00 -3.0039865740414722e-02 -5.6616770125867000e-01 +5.6439729247727017e-03
-3.9000000000000021e+00 +7.9195697279494244e+00 +0.0000000000000000e+00 -3.8999999683531632e+00 -3.0039759076999122e-02 -5.6616782888923634e-01 +5.6440946803677514e-03
-4.0000000000000018e+00 +7.9195473798299894e+00 +0.0000000000000000e+00 -3.9999999658558374e+00 -3.0039641268453626e-02 -5.6616795482822690e-01 +5.6442172000864890e-03
-4.1000000000000014e+00 +7.9195244659342769e+00 +0.0000000000000000e+00 -4.0999999632304709e+00 -3.0039511908150400e-02 -5.6616807838606553e-01 +5.6443403259044634e-03
-4.2000000000000011e+00 +7.9195009862621637e+00 +0.0000000000000000e+00 -4.1999999604738623e+00 -3.0039372112461570e-02 -5.6616819963681053e-01 +5.6444639617702240e-03
-4.3000000000000007e+00 +7.9194769408135297e+00 +0.0000000000000000e+00 -4.2999999575828109e+00 -3.0039223378488702e-02 -5.6616831884542140e-01 +5.6445880271244232e-03
-4.4000000000000004e+00 +7.9194523295882560e+00 +0.0000000000000000e+00 -4.3999999545541151e+00 -3.0039067203311887e-02 -5.6616843627684899e-01 +5.6447124414069428e-03
-4.5000000000000000e+00 +7.9194271525862261e+00 +0.0000000000000000e+00 -4.4999999513845745e+00 -3.0038905083987637e-02 -5.6616855219603390e-01 +5.6448371240567282e-03
-4.5999999999999996e+00 +7.9194014098073255e+00 +0.0000000000000000e+00 -4.5999999480709874e+00 -3.0038738517546876e-02 -5.6616866686790690e-01 +5.6449619945116020e-03
-4.6999999999999993e+00 +7.9193751012514406e+00 +0.0000000000000000e+00 -4.6999999446101537e+00 -3.0038569000992818e-02 -5.6616878055738651e-01 +5.6450869722080915e-03
-4.7999999999999989e+00 +7.9193482269184576e+00 +0.0000000000000000e+00 -4.7999999409988714e+00 -3.0038398031298978e-02 -5.6616889352938149e-01 +5.6452119765812618e-03
-4.8999999999999986e+00 +7.9193207868082656e+00 +0.0000000000000000e+00 -4.8999999372339396e+00 -3.0038227105407041e-02 -5.6616900604878606e-01 +5.6453369270645258e-03
-4.9999999999999982e+00 +7.9192927809207516e+00 +0.0000000000000000e+00 -4.9999999333121572e+00 -3.0038057720224880e-02 -5.6616911838048312e-01 +5.6454617430894763e-03
-5.0999999999999979e+00 +7.9192642092558057e+00 +0.0000000000000000e+00 -5.0999999292303233e+00 -3.0037891372624390e-02 -5.6616923078933956e-01 +5.6455863440857063e-03
-5.1999999999999975e+00 +7.9192350718133158e+00 +0.0000000000000000e+00 -5.1999999249852369e+00 -3.0037729559439504e-02 -5.6616934354020942e-01 +5.6457106494806350e-03
-5.2999999999999972e+00 +7.9192053685931700e+00 +0.0000000000000000e+00 -5.2999999205736970e+00 -3.0037573777464119e-02 -5.6616945689793041e-01 +5.6458345786993365e-03
-5.3999999999999968e+00 +7.9191750995952557e+00 +0.0000000000000000e+00 -5.3999999159925025e+00 -3.0037425523449998e-02 -5.6616957112732469e-01 +5.6459580511643501e-03
-5.4999999999999964e+00 +7.9191442648194599e+00 +0.0000000000000000e+00 -5.4999999112384517e+00 -3.0037286294104747e-02 -5.6616968649319732e-01 +5.6460809862955213e-03
-5.5999999999999961e+00 +7.9191128642656690e+00 +0.0000000000000000e+00 -5.5999999063083443e+00 -3.0037157586089710e-02 -5.6616980326033639e-01 +5.6462033035098117e-03
-5.6999999999999957e+00 +7.9190808979337666e+00 +0.0000000000000000e+00 -5.6999999011989786e+00 -3.0037040896017907e-02 -5.6616992169351110e-01 +5.6463249222211296e-03
-5.7999999999999954e+00 +7.9190483658236355e+00 +0.0000000000000000e+00 -5.7999998959071544e+00 -3.0036937720452014e-02 -5.6617004205747279e-01 +5.6464457618401577e-03
-5.8999999999999950e+00 +7.9190152679351558e+00 +0.0000000000000000e+00 -5.8999998904296698e+00 -3.0036849555902231e-02 -5.6617016461695202e-01 +5.6465657417741682e-03
-5.9999999999999947e+00 +7.9189816042682066e+00 +0.0000000000000000e+00 -5.9999998847633238e+00 -3.0036777898824255e-02 -5.6617028963666027e-01 +5.6466847814268476e-03
-6.0999999999999943e+00 +7.9189473748226646e+00 +0.0000000000000000e+00 -6.0999998789049155e+00 -3.0036723891986132e-02 -5.6617041747950336e-01 +5.6468028375275944e-03
-6.1999999999999940e+00 +7.9189125795984028e+00 +0.0000000000000000e+00 -6.1999998728512438e+00 -3.0036687263599319e-02 -5.6617054890123764e-01 +5.6469200161200382e-03
-6.2999999999999936e+00 +7.9188772185952905e+00 +0.0000000000000000e+00 -6.2999998665991077e+00 -3.0036667388268743e-02 -5.6617068475582744e-01 +5.6470364605729212e-03
-6.3999999999999932e+00 +7.9188412918131927e+00 +0.0000000000000000e+00 -6.3999998601453054e+00 -3.0036663640635678e-02 -5.6617082589723089e-01 +5.6471523142501354e-03
-6.4999999999999929e+00 +7.9188047992519701e+00 +0.0000000000000000e+00 -6.4999998534866368e+00 -3.0036675395379454e-02 -5.6617097317939802e-01 +5.6472677205105168e-03
-6.5999999999999925e+00 +7.9187677409114769e+00 +0.0000000000000000e+00 -6.5999998466198999e+00 -3.0036702027219239e-02 -5.6617112745627174e-01 +5.6473828227076549e-03
-6.6999999999999922e+00 +7.9187301167915596e+00 +0.0000000000000000e+00 -6.6999998395418938e+00 -3.0036742910915834e-02 -5.6617128958178853e-01 +5.6474977641896981e-03
-6.7999999999999918e+00 +7.9186919268920573e+00 +0.0000000000000000e+00 -6.7999998322494184e+00 -3.0036797421273347e-02 -5.6617146040987587e-01 +5.6476126882991414e-03
-6.8999999999999915e+00 +7.9186531712128003e+00 +0.0000000000000000e+00 -6.8999998247392718e+00 -3.0036864933141040e-02 -5.6617164079445526e-01 +5.6477277383726434e-03
-6.9999999999999911e+00 +7.9186138497536094e+00 +0.0000000000000000e+00 -6.9999998170082520e+00 -3.0036944821414988e-02 -5.6617183158943929e-01 +5.6478430577408169e-03
-7.0999999999999908e+00 +7.9185739625142952e+00 +0.0000000000000000e+00 -7.0999998090531591e+00 -3.0037036461039911e-02 -5.6617203364873325e-01 +5.6479587897280380e-03
-7.1999999999999904e+00 +7.9185335094946572e+00 +0.0000000000000000e+00 -7.1999998008707911e+00 -3.0037139227010894e-02 -5.6617224782623454e-01 +5.6480750776522369e-03
-7.2999999999999901e+00 +7.9184924906944829e+00 +0.0000000000000000e+00 -7.2999997924579478e+00 -3.0037252494375156e-02 -5.6617247497583290e-01 +5.6481920648247157e-03
-7.3999999999999897e+00 +7.9184509061135460e+00 +0.0000000000000000e+00 -7.3999997838114275e+00 -3.0037375638233790e-02 -5.6617271595140972e-01 +5.6483098945499339e-03
-7.4999999999999893e+00 +7.9184087557516074e+00 +0.0000000000000000e+00 -7.4999997749280283e+00 -3.0037508033743547e-02 -5.6617297160683799e-01 +5.6484287101253184e-03
-7.5999999999999890e+00 +7.9183660396084123e+00 +0.0000000000000000e+00 -7.5999997658045499e+00 -3.0037649056118557e-02 -5.6617324279598280e-01 +5.6485486548410622e-03
-7.6999999999999886e+00 +7.9183227576836916e+00 +0.0000000000000000e+00 -7.6999997564377907e+00 -3.0037798080632169e-02 -5.6617353037270102e-01 +5.6486698719799252e-03
-7.7999999999999883e+00 +7.9182789099771593e+00 +0.0000000000000000e+00 -7.7999997468245503e+00 -3.0037954482618572e-02 -5.6617383519084041e-01 +5.6487925048170316e-03
-7.8999999999999879e+00 +7.9182344964885116e+00 +0.0000000000000000e+00 -7.8999997369616262e+00 -3.0038117637474684e-02 -5.6617415810424065e-01 +5.6489166966196859e-03
-7.9999999999999876e+00 +7.9181895172174270e+00 +0.0000000000000000e+00 -7.9999997268458181e+00 -3.0038286920661881e-02 -5.6617449996673275e-01 +5.6490425906471544e-03
-8.0999999999999872e+00 +7.9181439721635662e+00 +0.0000000000000000e+00 -8.0999997164739241e+00 -3.0038461639244261e-02 -5.6617486129754602e-01 +5.6491702825470181e-03
-8.1999999999999869e+00 +7.9180978613265687e+00 +0.0000000000000000e+00 -8.1999997058427443e+00 -3.0038640826459215e-02 -5.6617524127754260e-01 +5.6492996775478555e-03
-8.2999999999999865e+00 +7.9180511847060568e+00 +0.0000000000000000e+00 -8.2999996949490757e+00 -3.0038823447041080e-02 -5.6617563875304799e-01 +5.6494306332788040e-03
-8.3999999999999861e+00 +7.9180039423016346e+00 +0.0000000000000000e+00 -8.3999996837897175e+00 -3.0039008465674373e-02 -5.6617605257045756e-01 +5.6495630073752244e-03
-8.4999999999999858e+00 +7.9179561341128908e+00 +0.0000000000000000e+00 -8.4999996723614686e+00 -3.0039194846991954e-02 -5.6617648157623779e-01 +5.6496966574789489e-03
-8.5999999999999854e+00 +7.9179077601393981e+00 +0.0000000000000000e+00 -8.5999996606611280e+00 -3.0039381555573282e-02 -5.6617692461693081e-01 +5.6498314412385285e-03
-8.6999999999999851e+00 +7.9178588203807152e+00 +0.0000000000000000e+00 -8.6999996486854947e+00 -3.0039567555942538e-02 -5.6617738053915412e-01 +5.6499672163094709e-03
-8.7999999999999847e+00 +7.9178093148363882e+00 +0.0000000000000000e+00 -8.7999996364313660e+00 -3.0039751812566826e-02 -5.6617784818960404e-01 +5.6501038403544892e-03
-8.8999999999999844e+00 +7.9177592435059516e+00 +0.0000000000000000e+00 -8.8999996238955408e+00 -3.0039933289854402e-02 -5.6617832641505828e-01 +5.6502411710437567e-03
-8.9999999999999840e+00 +7.9177086063889286e+00 +0.0000000000000000e+00 -8.9999996110748182e+00 -3.0040110952152824e-02 -5.6617881406237691e-01 +5.6503790660551324e-03
-9.0999999999999837e+00 +7.9176574034848342e+00 +0.0000000000000000e+00 -9.0999995979659971e+00 -3.0040283763747191e-02 -5.6617930997850607e-01 +5.6505173830744305e-03
-9.1999999999999833e+00 +7.9176056347931745e+00 +0.0000000000000000e+00 -9.1999995845658749e+00 -3.0040450688858262e-02 -5.6617981301047893e-01 +5.6506559797956483e-03
-9.2999999999999829e+00 +7.9175533003134486e+00 +0.0000000000000000e+00 -9.2999995708712522e+00 -3.0040610691640726e-02 -5.6618032200541879e-01 +5.6507947139212197e-03
-9.3999999999999826e+00 +7.9175004000451494e+00 +0.0000000000000000e+00 -9.3999995568789263e+00 -3.0040762736181330e-02 -5.6618083581054068e-01 +5.6509334431622650e-03
-9.4999999999999822e+00 +7.9174469339877653e+00 +0.0000000000000000e+00 -9.4999995425856962e+00 -3.0040905786497128e-02 -5.6618135327315366e-01 +5.6510720252388258e-03
-9.5999999999999819e+00 +7.9173929021407812e+00 +0.0000000000000000e+00 -9.5999995279883592e+00 -3.0041038806533641e-02 -5.6618187324066371e-01 +5.6512103178801270e-03
-9.6999999999999815e+00 +7.9173383045036791e+00 +0.0000000000000000e+00 -9.6999995130837142e+00 -3.0041160760163034e-02 -5.6618239456057518e-01 +5.6513481788248053e-03
-9.7999999999999812e+00 +7.9172831410759397e+00 +0.0000000000000000e+00 -9.7999994978685603e+00 -3.0041270611182381e-02 -5.6618291608049331e-01 +5.6514854658211711e-03
-9.8999999999999808e+00 +7.9172274118570440e+00 +0.0000000000000000e+00 -9.8999994823396964e+00 -3.0041367323311759e-02 -5.6618343664812676e-01 +5.6516220366274487e-03
-9.9999999999999805e+00 +7.9171711168464736e+00 +0.0000000000000000e+00 -9.9999994664939198e+00 -3.0041449860192533e-02 -5.6618395511128905e-01 +5.6517577490120185e-03
-1.0099999999999980e+01 +7.9171142560437122e+00 +0.0000000000000000e+00 -1.0099999450328031e+01 -3.0041517471289126e-02 -5.6618447049978593e-01 +5.6518924957597166e-03
-1.0199999999999980e+01 +7.9170568294482466e+00 +0.0000000000000000e+00 -1.0199999433838826e+01 -3.0041570549656643e-02 -5.6618498257100558e-01 +5.6520263096881927e-03
-1.0299999999999979e+01 +7.9169988370595679e+00 +0.0000000000000000e+00 -1.0299999417023106e+01 -3.0041609774290889e-02 -5.6618549126412454e-01 +5.6521592586214085e-03
-1.0399999999999979e+01 +7.9169402788771679e+00 +0.0000000000000000e+00 -1.0399999399877666e+01 -3.0041635824226653e-02 -5.6618599651819645e-01 +5.6522914103813672e-03
-1.0499999999999979e+01 +7.9168811549005449e+00 +0.0000000000000000e+00 -1.0499999382399308e+01 -3.0041649378538836e-02 -5.6618649827214729e-01 +5.6524228327880432e-03
-1.0599999999999978e+01 +7.9168214651291988e+00 +0.0000000000000000e+00 -1.0599999364584828e+01 -3.0041651116343653e-02 -5.6618699646477222e-01 +5.6525535936593181e-03
-1.0699999999999978e+01 +7.9167612095626341e+00 +0.0000000000000000e+00 -1.0699999346431026e+01 -3.0041641716799773e-02 -5.6618749103473287e-01 +5.6526837608109077e-03
-1.0799999999999978e+01 +7.9167003882003577e+00 +0.0000000000000000e+00 -1.0799999327934701e+01 -3.0041621859109444e-02 -5.6618798192055320e-01 +5.6528134020562941e-03
-1.0899999999999977e+01 +7.9166390010418821e+00 +0.0000000000000000e+00 -1.0899999309092649e+01 -3.0041592222519689e-02 -5.6618846906061615e-01 +5.6529425852066603e-03
-1.0999999999999977e+01 +7.9165770480867215e+00 +0.0000000000000000e+00 -1.0999999289901671e+01 -3.0041553486323449e-02 -5.6618895239316058e-01 +5.6530713780708185e-03
-1.1099999999999977e+01 +7.9165145293343953e+00 +0.0000000000000000e+00 -1.1099999270358564e+01 -3.0041506329860732e-02 -5.6618943185627757e-01 +5.6531998484551406e-03
-1.1199999999999976e+01 +7.9164514447844265e+00 +0.0000000000000000e+00 -1.1199999250460127e+01 -3.0041451432519770e-02 -5.6618990738790709e-01 +5.6533280641634922e-03
-1.1299999999999976e+01 +7.9163877944363419e+00 +0.0000000000000000e+00 -1.1299999230203158e+01 -3.0041389473738165e-02 -5.6619037892583435e-01 +5.6534560929971615e-03
-1.1399999999999975e+01 +7.9163235782896724e+00 +0.0000000000000000e+00 -1.1399999209584454e+01 -3.0041321133004055e-02 -5.6619084640768658e-01 +5.6535840027547891e-03
-1.1499999999999975e+01 +7.9162587963439526e+00 +0.0000000000000000e+00 -1.1499999188600816e+01 -3.0041247089857247e-02 -5.6619130977092946e-01 +5.6537118612322952e-03
-1.1599999999999975e+01 +7.9161934485987215e+00 +0.0000000000000000e+00 -1.1599999167249042e+01 -3.0041168023890393e-02 -5.6619176895286438e-01 +5.6538397362228248e-03
-1.1699999999999974e+01 +7.9161275350535227e+00 +0.0000000000000000e+00 -1.1699999145525929e+01 -3.0041084614750111e-02 -5.6619222389062351e-01 +5.6539676955166592e-03
