# field on trajectory
# s[mm] rx[mm] ry[mm] rz[mm] bx[T] by[T] bz[T]
0.0000000000000000e+00 +8.1530000000000094e+00 +0.0000000000000000e+00 +0.0000000000000000e+00 -3.1061577908977792e-02 -5.9283002682817199e-01 +5.9106006354188176e-03
1.0000000000000001e-01 +8.1529997159377707e+00 +0.0000000000000000e+00 +1.0008006405070299e-01 -3.1061767243357602e-02 -5.9282992097913834e-01 +5.9105984993189364e-03
2.0000000000000001e-01 +8.1529988637557800e+00 +0.0000000000000000e+00 +2.0016012809818201e-01 -3.1061950792105355e-02 -5.9282979956259663e-01 +5.9105951770635655e-03
2.9999999999999999e-01 +8.1529974434524792e+00 +0.0000000000000000e+00 +3.0024019213920999e-01 -3.1062128781026557e-02 -5.9282966472176668e-01 +5.9105909107032535e-03
4.0000000000000002e-01 +8.1529954550242092e+00 +0.0000000000000000e+00 +4.0032025617056399e-01 -3.1062301435939618e-02 -5.9282951859988453e-01 +5.9105859422872364e-03
5.0000000000000000e-01 +8.1529928984782600e+00 +0.0000000000000000e+00 +5.0040032018901703e-01 -3.1062468982667481e-02 -5.9282936334009351e-01 +5.9105805138624607e-03
5.9999999999999998e-01 +8.1529897738146193e+00 +0.0000000000000000e+00 +6.0048038419134497e-01 -3.1062631647043169e-02 -5.9282920108559256e-01 +5.9105748674752098e-03
6.9999999999999996e-01 +8.1529860810223909e+00 +0.0000000000000000e+00 +7.0056044817432195e-01 -3.1062789654908805e-02 -5.9282903397966491e-01 +5.9105692451714978e-03
8.0000000000000004e-01 +8.1529818201124709e+00 +0.0000000000000000e+00 +8.0064051213472498e-01 -3.1062943232098437e-02 -5.9282886416540925e-01 +5.9105638889944898e-03
9.0000000000000002e-01 +8.1529769910812302e+00 +0.0000000000000000e+00 +9.0072057606932698e-01 -3.1063092604451684e-02 -5.9282869378603509e-01 +5.9105590409876101e-03
1.0000000000000000e+00 +8.1529715939250291e+00 +0.0000000000000000e+00 +1.0008006399749001e+00 -3.1063237997804621e-02 -5.9282852498474281e-01 +5.9105549431934514e-03
1.1000000000000001e+00 +8.1529656286511507e+00 +0.0000000000000000e+00 +1.1008807038482300e+00 -3.1063379637982398e-02 -5.9282835990463423e-01 +5.9105518376529800e-03
1.2000000000000000e+00 +8.1529590952522994e+00 +0.0000000000000000e+00 +1.2009607676860801e+00 -3.1063517750807942e-02 -5.9282820068891806e-01 +5.9105499664077518e-03
1.3000000000000000e+00 +8.1529519937357708e+00 +0.0000000000000000e+00 +1.3010408314852300e+00 -3.1063652562086458e-02 -5.9282804948067136e-01 +5.9105495714976228e-03
1.3999999999999999e+00 +8.1529443240979198e+00 +0.0000000000000000e+00 +1.4011208952424601e+00 -3.1063784297614125e-02 -5.9282790842304611e-01 +5.9105508949629489e-03
1.5000000000000000e+00 +8.1529360863350995e+00 +0.0000000000000000e+00 +1.5012009589545301e+00 -3.1063913183170727e-02 -5.9282777965917965e-01 +5.9105541788438088e-03
1.6000000000000001e+00 +8.1529272804509691e+00 +0.0000000000000000e+00 +1.6012810226182299e+00 -3.1064039444513771e-02 -5.9282766533213260e-01 +5.9105596651795080e-03
1.7000000000000000e+00 +8.1529179064491508e+00 +0.0000000000000000e+00 +1.7013610862303301e+00 -3.1064163307379149e-02 -5.9282756758494892e-01 +5.9105675960092795e-03
1.8000000000000000e+00 +8.1529079643223703e+00 +0.0000000000000000e+00 +1.8014411497875999e+00 -3.1064284997483451e-02 -5.9282748856074130e-01 +5.9105782133733135e-03
1.8999999999999999e+00 +8.1528974540779000e+00 +0.0000000000000000e+00 +1.9015212132868200e+00 -3.1064404740510004e-02 -5.9282743040248409e-01 +5.9105917593107477e-03
2.0000000000000000e+00 +8.1528863757084800e+00 +0.0000000000000000e+00 +2.0016012767247702e+00 -3.1064522762119375e-02 -5.9282739525324601e-01 +5.9106084758619266e-03
2.1000000000000001e+00 +8.1528747292177304e+00 +0.0000000000000000e+00 +2.1016813400982199e+00 -3.1064639318535630e-02 -5.9282738464898477e-01 +5.9106285380859267e-03
2.2000000000000002e+00 +8.1528625146056601e+00 +0.0000000000000000e+00 +2.2017614034039301e+00 -3.1064754782628226e-02 -5.9282739781143323e-01 +5.9106518656728332e-03
2.2999999999999998e+00 +8.1528497318759001e+00 +0.0000000000000000e+00 +2.3018414666387002e+00 -3.1064869555061103e-02 -5.9282743341085931e-01 +5.9106783174641079e-03
2.3999999999999999e+00 +8.1528363810211903e+00 +0.0000000000000000e+00 +2.4019215297993002e+00 -3.1064984036503679e-02 -5.9282749011762992e-01 +5.9107077523041698e-03
2.5000000000000000e+00 +8.1528224620451493e+00 +0.0000000000000000e+00 +2.5020015928824901e+00 -3.1065098627622627e-02 -5.9282756660203695e-01 +5.9107400290388679e-03
2.6000000000000001e+00 +8.1528079749477893e+00 +0.0000000000000000e+00 +2.6020816558850601e+00 -3.1065213729089765e-02 -5.9282766153441735e-01 +5.9107750065169112e-03
2.7000000000000002e+00 +8.1527929197291105e+00 +0.0000000000000000e+00 +2.7021617188037701e+00 -3.1065329741581871e-02 -5.9282777358512662e-01 +5.9108125435898048e-03
2.7999999999999998e+00 +8.1527772963891003e+00 +0.0000000000000000e+00 +2.8022417816354102e+00 -3.1065447065782150e-02 -5.9282790142454056e-01 +5.9108524991121217e-03
2.8999999999999999e+00 +8.1527611049277802e+00 +0.0000000000000000e+00 +2.9023218443767500e+00 -3.1065566102381655e-02 -5.9282804372305831e-01 +5.9108947319417232e-03
3.0000000000000000e+00 +8.1527443453451305e+00 +0.0000000000000000e+00 +3.0024019070245598e+00 -3.1065687252080774e-02 -5.9282819915110496e-01 +5.9109391009400276e-03
3.1000000000000001e+00 +8.1527270176411495e+00 +0.0000000000000000e+00 +3.1024819695756198e+00 -3.1065810915590620e-02 -5.9282836637913294e-01 +5.9109854649722357e-03
3.2000000000000002e+00 +8.1527091218158603e+00 +0.0000000000000000e+00 +3.2025620320267101e+00 -3.1065937493634527e-02 -5.9282854407762631e-01 +5.9110336829075955e-03
3.2999999999999998e+00 +8.1526906578692397e+00 +0.0000000000000000e+00 +3.3026420943745900e+00 -3.1066067386949444e-02 -5.9282873091710109e-01 +5.9110836136196292e-03
3.3999999999999999e+00 +8.1526716258013003e+00 +0.0000000000000000e+00 +3.4027221566160502e+00 -3.1066200996287423e-02 -5.9282892556810973e-01 +5.9111351159864007e-03
3.5000000000000000e+00 +8.1526520256120403e+00 +0.0000000000000000e+00 +3.5028022187478500e+00 -3.1066338722417045e-02 -5.9282912670124233e-01 +5.9111880488907495e-03
3.6000000000000001e+00 +8.1526318572978198e+00 +0.0000000000000000e+00 +3.6028822807667802e+00 -3.1066480966126471e-02 -5.9282933298715923e-01 +5.9112422712208302e-03
3.7000000000000002e+00 +8.1526111208659096e+00 +0.0000000000000000e+00 +3.7029623426696099e+00 -3.1066628128218459e-02 -5.9282954309647495e-01 +5.9112976418691805e-03
3.7999999999999998e+00 +8.1525898163126804e+00 +0.0000000000000000e+00 +3.8030424044531101e+00 -3.1066780609521429e-02 -5.9282975569993790e-01 +5.9113540197347440e-03
3.8999999999999999e+00 +8.1525679436344909e+00 +0.0000000000000000e+00 +3.9031224661140600e+00 -3.1066938810886138e-02 -5.9282996946834465e-01 +5.9114112637222316e-03
4.0000000000000000e+00 +8.1525455028386205e+00 +0.0000000000000000e+00 +4.0032025276492398e+00 -3.1067103133175282e-02 -5.9283018307246260e-01 +5.9114692327419949e-03
4.0999999999999996e+00 +8.1525224939177896e+00 +0.0000000000000000e+00 +4.1032825890554099e+00 -3.1067273743465955e-02 -5.9283039548047545e-01 +5.9115278033479886e-03
4.2000000000000002e+00 +8.1524989168792708e+00 +0.0000000000000000e+00 +4.2033626503293604e+00 -3.1067449959086162e-02 -5.9283060674075183e-01 +5.9115869161909963e-03
4.2999999999999998e+00 +8.1524747717157897e+00 +0.0000000000000000e+00 +4.3034427114678504e+00 -3.1067630904372645e-02 -5.9283081714712260e-01 +5.9116465264777811e-03
4.4000000000000004e+00 +8.1524500584346207e+00 +0.0000000000000000e+00 +4.4035227724676700e+00 -3.1067815703635107e-02 -5.9283102699330836e-01 +5.9117065894118102e-03
4.5000000000000000e+00 +8.1524247770285001e+00 +0.0000000000000000e+00 +4.5036028333255800e+00 -3.1068003481167734e-02 -5.9283123657315384e-01 +5.9117670601953548e-03
4.5999999999999996e+00 +8.1523989275046898e+00 +0.0000000000000000e+00 +4.6036828940383696e+00 -3.1068193361234939e-02 -5.9283144618039274e-01 +5.9118278940268523e-03
4.7000000000000002e+00 +8.1523725098559208e+00 +0.0000000000000000e+00 +4.7037629546028104e+00 -3.1068384468082924e-02 -5.9283165610888267e-01 +5.9118890461030355e-03
4.7999999999999998e+00 +8.1523455240894709e+00 +0.0000000000000000e+00 +4.8038430150156701e+00 -3.1068575925925501e-02 -5.9283186665236920e-01 +5.9119504716162851e-03
4.9000000000000004e+00 +8.1523179701980606e+00 +0.0000000000000000e+00 +4.9039230752737302e+00 -3.1068766858955571e-02 -5.9283207810472027e-01 +5.9120121257567543e-03
5.0000000000000000e+00 +8.1522898481889605e+00 +0.0000000000000000e+00 +5.0040031353737602e+00 -3.1068956391330931e-02 -5.9283229075969113e-01 +5.9120739637097217e-03
5.0999999999999996e+00 +8.1522611580549000e+00 +0.0000000000000000e+00 +5.1040831953125396e+00 -3.1069143647185847e-02 -5.9283250491115846e-01 +5.9121359406577286e-03
5.2000000000000002e+00 +8.1522318997995207e+00 +0.0000000000000000e+00 +5.2041632550868497e+00 -3.1069327750618398e-02 -5.9283272085291516e-01 +5.9121980117782151e-03
5.2999999999999998e+00 +8.1522020734228100e+00 +0.0000000000000000e+00 +5.3042433146934496e+00 -3.1069507825695619e-02 -5.9283293887878641e-01 +5.9122601322444688e-03
5.4000000000000004e+00 +8.1521716789247893e+00 +0.0000000000000000e+00 +5.4043233741291203e+00 -3.1069682996450507e-02 -5.9283315928259939e-01 +5.9123222572250557e-03
5.5000000000000000e+00 +8.1521407163090807e+00 +0.0000000000000000e+00 +5.5044034333906504e+00 -3.1069852386879124e-02 -5.9283338235815553e-01 +5.9123843418832697e-03
5.5999999999999996e+00 +8.1521091855684098e+00 +0.0000000000000000e+00 +5.6044834924747899e+00 -3.1070015120945722e-02 -5.9283360839934562e-01 +5.9124463413780613e-03
5.7000000000000002e+00 +8.1520770867064094e+00 +0.0000000000000000e+00 +5.7045635513783299e+00 -3.1070170322571637e-02 -5.9283383769997344e-01 +5.9125082108619949e-03
5.7999999999999998e+00 +8.1520444197231008e+00 +0.0000000000000000e+00 +5.8046436100980499e+00 -3.1070317115640473e-02 -5.9283407055387327e-01 +5.9125699054821687e-03
5.9000000000000004e+00 +8.1520111846184609e+00 +0.0000000000000000e+00 +5.9047236686307096e+00 -3.1070454623995183e-02 -5.9283430725488018e-01 +5.9126313803796746e-03
5.9999999999999902e+00 +8.1519773813925003e+00 +0.0000000000000000e+00 +6.0048037269731003e+00 -3.1070581971476812e-02 -5.9283454809682945e-01 +5.9126925906926447e-03
6.0999999999999899e+00 +8.1519430100452208e+00 +0.0000000000000000e+00 +6.1048837851219799e+00 -3.1070698699653090e-02 -5.9283479338063161e-01 +5.9127535260461864e-03
6.1999999999999904e+00 +8.1519080705766100e+00 +0.0000000000000000e+00 +6.2049638430741396e+00 -3.1070805797560132e-02 -5.9283504343170024e-01 +5.9128142955745741e-03
6.2999999999999901e+00 +8.1518725629866804e+00 +0.0000000000000000e+00 +6.3050439008263499e+00 -3.1070904567539592e-02 -5.9283529858071249e-01 +5.9128750342794705e-03
6.3999999999999897e+00 +8.1518364872754301e+00 +0.0000000000000000e+00 +6.4051239583753699e+00 -3.1070996311964551e-02 -5.9283555915829877e-01 +5.9129358771643119e-03
6.4999999999999902e+00 +8.1517998434428591e+00 +0.0000000000000000e+00 +6.5052040157180002e+00 -3.1071082333241098e-02 -5.9283582549504021e-01 +5.9129969592344091e-03
6.5999999999999899e+00 +8.1517626314889604e+00 +0.0000000000000000e+00 +6.6052840728510001e+00 -3.1071163933810084e-02 -5.9283609792146708e-01 +5.9130584154970254e-03
6.6999999999999904e+00 +8.1517248514137499e+00 +0.0000000000000000e+00 +6.7053641297711399e+00 -3.1071242416148802e-02 -5.9283637676805589e-01 +5.9131203809614759e-03
6.7999999999999901e+00 +8.1516865032135701e+00 +0.0000000000000000e+00 +6.8054441864752100e+00 -3.1071319082774270e-02 -5.9283666236525745e-01 +5.9131829906395031e-03
6.8999999999999897e+00 +8.1516475868957095e+00 +0.0000000000000000e+00 +6.9055242429599701e+00 -3.1071395236238451e-02 -5.9283695504337475e-01 +5.9132463795441804e-03
6.9999999999999902e+00 +8.1516081024565192e+00 +0.0000000000000000e+00 +7.0056042992222096e+00 -3.1071472179139657e-02 -5.9283725513274099e-01 +5.9133106826917917e-03
7.0999999999999899e+00 +8.1515680498960101e+00 +0.0000000000000000e+00 +7.1056843552586999e+00 -3.1071551214117754e-02 -5.9283756296359691e-01 +5.9133760351007241e-03
7.1999999999999904e+00 +8.1515274292141804e+00 +0.0000000000000000e+00 +7.2057644110662000e+00 -3.1071633643857486e-02 -5.9283787886611861e-01 +5.9134425717918548e-03
7.2999999999999901e+00 +8.1514862404073902e+00 +0.0000000000000000e+00 +7.3058444666415099e+00 -3.1071720771091747e-02 -5.9283820317044511e-01 +5.9135104277889443e-03
7.3999999999999897e+00 +8.1514444834829192e+00 +0.0000000000000000e+00 +7.4059245219813796e+00 -3.1071813898596822e-02 -5.9283853620655846e-01 +5.9135797381175189e-03
7.4999999999999902e+00 +8.1514021584334806e+00 +0.0000000000000000e+00 +7.5060045770826100e+00 -3.1071914329205412e-02 -5.9283887830448689e-01 +5.9136506378070705e-03
7.5999999999999899e+00 +8.1513592652663593e+00 +0.0000000000000000e+00 +7.6060846319419504e+00 -3.1072023365795315e-02 -5.9283922979406878e-01 +5.9137232618887295e-03
7.6999999999999904e+00 +8.1513158039779192e+00 +0.0000000000000000e+00 +7.7061646865561997e+00 -3.1072142311302488e-02 -5.9283959100515438e-01 +5.9137977453974687e-03
7.7999999999999901e+00 +8.1512717745681602e+00 +0.0000000000000000e+00 +7.8062447409221098e+00 -3.1072272468716272e-02 -5.9283996226748736e-01 +5.9138742233709818e-03
7.8999999999999897e+00 +8.1512271770334301e+00 +0.0000000000000000e+00 +7.9063247950364799e+00 -3.1072415141084279e-02 -5.9284034391076090e-01 +5.9139528308503730e-03
7.9999999999999902e+00 +8.1511820113773901e+00 +0.0000000000000000e+00 +8.0064048488960609e+00 -3.1072571631420354e-02 -5.9284073626451173e-01 +5.9140337028709394e-03
8.0999999999999908e+00 +8.1511362776036496e+00 +0.0000000000000000e+00 +8.1064849024976393e+00 -3.1072742834769438e-02 -5.9284113958465900e-01 +5.9141169358048230e-03
8.1999999999999904e+00 +8.1510899757086008e+00 +0.0000000000000000e+00 +8.2065649558379903e+00 -3.1072928298139933e-02 -5.9284155388419257e-01 +5.9142024982770866e-03
8.2999999999999901e+00 +8.1510431056885899e+00 +0.0000000000000000e+00 +8.3066450089139003e+00 -3.1073127290539047e-02 -5.9284197912602177e-01 +5.9142903325666209e-03
8.3999999999999897e+00 +8.1509956675508892e+00 +0.0000000000000000e+00 +8.4067250617221205e+00 -3.1073339080987177e-02 -5.9284241527300030e-01 +5.9143803809514842e-03
8.4999999999999893e+00 +8.1509476612882299e+00 +0.0000000000000000e+00 +8.5068051142594392e+00 -3.1073562938529441e-02 -5.9284286228813321e-01 +5.9144725857109663e-03
8.5999999999999908e+00 +8.1508990869078808e+00 +0.0000000000000000e+00 +8.6068851665226305e+00 -3.1073798132223055e-02 -5.9284332013434360e-01 +5.9145668891231826e-03
8.6999999999999904e+00 +8.1508499444025801e+00 +0.0000000000000000e+00 +8.7069652185084596e+00 -3.1074043931150645e-02 -5.9284378877470933e-01 +5.9146632334674603e-03
8.7999999999999794e+00 +8.1508002337759500e+00 +0.0000000000000000e+00 +8.8070452702137203e+00 -3.1074299604409109e-02 -5.9284426817225822e-01 +5.9147615610222297e-03
8.8999999999999808e+00 +8.1507499550316407e+00 +0.0000000000000000e+00 +8.9071253216351796e+00 -3.1074564421114823e-02 -5.9284475829005701e-01 +5.9148618140659028e-03
8.9999999999999805e+00 +8.1506991081623692e+00 +0.0000000000000000e+00 +9.0072053727696098e+00 -3.1074837650408801e-02 -5.9284525909130337e-01 +5.9149639348777556e-03
9.0999999999999801e+00 +8.1506476931717806e+00 +0.0000000000000000e+00 +9.1072854236137797e+00 -3.1075118561447238e-02 -5.9284577053914800e-01 +5.9150678657361420e-03
9.1999999999999797e+00 +8.1505957100635005e+00 +0.0000000000000000e+00 +9.2073654741644795e+00 -3.1075406423406685e-02 -5.9284629259678645e-01 +5.9151735489193424e-03
9.2999999999999794e+00 +8.1505431588302599e+00 +0.0000000000000000e+00 +9.3074455244184708e+00 -3.1075700505489159e-02 -5.9284682522754806e-01 +5.9152809267064791e-03
9.3999999999999808e+00 +8.1504900394757005e+00 +0.0000000000000000e+00 +9.4075255743725297e+00 -3.1076000076912771e-02 -5.9284736839471985e-01 +5.9153899413756867e-03
9.4999999999999805e+00 +8.1504363520034495e+00 +0.0000000000000000e+00 +9.5076056240234408e+00 -3.1076304406916871e-02 -5.9284792206163828e-01 +5.9155005352050068e-03
9.5999999999999801e+00 +8.1503820964062506e+00 +0.0000000000000000e+00 +9.6076856733679694e+00 -3.1076612764767121e-02 -5.9284848619177777e-01 +5.9156126504732731e-03
9.6999999999999797e+00 +8.1503272726913600e+00 +0.0000000000000000e+00 +9.7077657224029004e+00 -3.1076924419744533e-02 -5.9284906074854493e-01 +5.9157262294579974e-03
9.7999999999999794e+00 +8.1502718808515109e+00 +0.0000000000000000e+00 +9.8078457711250007e+00 -3.1077238641158699e-02 -5.9284964569551823e-01 +5.9158412144377582e-03
9.8999999999999808e+00 +8.1502159208903304e+00 +0.0000000000000000e+00 +9.9079258195310498e+00 -3.1077554698336680e-02 -5.9285024099624151e-01 +5.9159575476900768e-03
9.9999999999999805e+00 +8.1501593928078400e+00 +0.0000000000000000e+00 +1.0008005867617801e+01 -3.1077871860641464e-02 -5.9285084661423781e-01 +5.9160751714955198e-03
1.0100000000000000e+01 +8.1501022966040200e+00 +0.0000000000000000e+00 +1.0108085915382100e+01 -3.1078189426049792e-02 -5.9285146225556296e-01 +5.9161940352588562e-03
1.0199999999999999e+01 +8.1500446322825209e+00 +0.0000000000000000e+00 +1.0208165962820599e+01 -3.1078506782623447e-02 -5.9285208681475676e-01 +5.9163141108315763e-03
1.0300000000000001e+01 +8.1499863998360507e+00 +0.0000000000000000e+00 +1.0308246009930199e+01 -3.1078823336072491e-02 -5.9285271902701353e-01 +5.9164353744686378e-03
1.0400000000000000e+01 +8.1499275992682705e+00 +0.0000000000000000e+00 +1.0408326056707599e+01 -3.1079138492035380e-02 -5.9285335762745284e-01 +5.9165578024146194e-03
1.0500000000000000e+01 +8.1498682305791608e+00 +0.0000000000000000e+00 +1.0508406103149600e+01 -3.1079451656083668e-02 -5.9285400135123978e-01 +5.9166813709046985e-03
1.0600000000000000e+01 +8.1498082937723701e+00 +0.0000000000000000e+00 +1.0608486149253000e+01 -3.1079762233716838e-02 -5.9285464893352602e-01 +5.9168060561638142e-03
1.0699999999999999e+01 +8.1497477888406102e+00 +0.0000000000000000e+00 +1.0708566195014500e+01 -3.1080069630367017e-02 -5.9285529910956747e-01 +5.9169318344076249e-03
1.0800000000000001e+01 +8.1496867157875403e+00 +0.0000000000000000e+00 +1.0808646240430900e+01 -3.1080373251387391e-02 -5.9285595061454810e-01 +5.9170586818404923e-03
1.0900000000000000e+01 +8.1496250746131391e+00 +0.0000000000000000e+00 +1.0908726285499000e+01 -3.1080672502056865e-02 -5.9285660218369873e-01 +5.9171865746564453e-03
1.1000000000000000e+01 +8.1495628653174208e+00 +0.0000000000000000e+00 +1.1008806330215601e+01 -3.1080966787576568e-02 -5.9285725255226651e-01 +5.9173154890386380e-03
1.1100000000000000e+01 +8.1495000879040198e+00 +0.0000000000000000e+00 +1.1108886374577500e+01 -3.1081255513066414e-02 -5.9285790045548781e-01 +5.9174454011588218e-03
1.1199999999999999e+01 +8.1494367423620098e+00 +0.0000000000000000e+00 +1.1208966418581401e+01 -3.1081538083571374e-02 -5.9285854462873366e-01 +5.9175762871786202e-03
1.1300000000000001e+01 +8.1493728287059604e+00 +0.0000000000000000e+00 +1.1309046462224000e+01 -3.1081813904041859e-02 -5.9285918380718861e-01 +5.9177081232459914e-03
1.1400000000000000e+01 +8.1493083469249505e+00 +0.0000000000000000e+00 +1.1409126505502300e+01 -3.1082082379354441e-02 -5.9285981672626020e-01 +5.9178408854991893e-03
1.1500000000000000e+01 +8.1492432970226201e+00 +0.0000000000000000e+00 +1.1509206548412800e+01 -3.1082342914292373e-02 -5.9286044212125921e-01 +5.9179745500632435e-03
1.1600000000000000e+01 +8.1491776789989707e+00 +0.0000000000000000e+00 +1.1609286590952600e+01 -3.1082594913551722e-02 -5.9286105872754358e-01 +5.9181090930512216e-03
1.1699999999999999e+01 +8.1491114928576298e+00 +0.0000000000000000e+00 +1.1709366633118099e+01 -3.1082837781736365e-02 -5.9286166528046225e-01 +5.9182444905633959e-03
1.1800000000000001e+01 +8.1490447385876905e+00 +0.0000000000000000e+00 +1.1809446674906400e+01 -3.1083070923364223e-02 -5.9286226051550273e-01 +5.9183807186885149e-03
