# field on trajectory
# s[mm] rx[mm] ry[mm] rz[mm] bx[T] by[T] bz[T]
-0.0000000000000000e+00 +8.1530000000000094e+00 +0.0000000000000000e+00 -0.0000000000000000e+00 -3.1048260962162885e-02 -5.9234138381438328e-01 +5.9788699008106643e-03
-1.0000000000000001e-01 +8.1529997163925092e+00 +0.0000000000000000e+00 -9.9999999999463796e-02 -3.1048219404150226e-02 -5.9234152790862016e-01 +5.9788675325370220e-03
-2.0000000000000001e-01 +8.1529988655711296e+00 +0.0000000000000000e+00 -1.9999999999571000e-01 -3.1048183583293879e-02 -5.9234166765970986e-01 +5.9788647345408999e-03
-2.9999999999999999e-01 +8.1529974475415692e+00 +0.0000000000000000e+00 -2.9999999998552201e-01 -3.1048152682674489e-02 -5.9234180471914510e-01 +5.9788615204134201e-03
-4.0000000000000002e-01 +8.1529954622965306e+00 +0.0000000000000000e+00 -3.9999999996568197e-01 -3.1048125885375578e-02 -5.9234194073850832e-01 +5.9788579037464637e-03
-5.0000000000000000e-01 +8.1529929098396696e+00 +0.0000000000000000e+00 -4.9999999993297300e-01 -3.1048102374474279e-02 -5.9234207736928168e-01 +5.9788538981307652e-03
-5.9999999999999998e-01 +8.1529897901673394e+00 +0.0000000000000000e+00 -5.9999999988417696e-01 -3.1048081333050457e-02 -5.9234221626299699e-01 +5.9788495171575031e-03
-6.9999999999999996e-01 +8.1529861032831796e+00 +0.0000000000000000e+00 -6.9999999981607697e-01 -3.1048061944181707e-02 -5.9234235907112287e-01 +5.9788447744171785e-03
-8.0000000000000004e-01 +8.1529818491871993e+00 +0.0000000000000000e+00 -7.9999999972545699e-01 -3.1048043390949184e-02 -5.9234250744515604e-01 +5.9788396835006030e-03
-9.0000000000000002e-01 +8.1529770278793894e+00 +0.0000000000000000e+00 -8.9999999960909804e-01 -3.1048024856437283e-02 -5.9234266303659588e-01 +5.9788342579986647e-03
-1.0000000000000000e+00 +8.1529716393597500e+00 +0.0000000000000000e+00 -9.9999999946378304e-01 -3.1048005523734903e-02 -5.9234282749694633e-01 +5.9788285115024318e-03
-1.1000000000000001e+00 +8.1529656836210105e+00 +0.0000000000000000e+00 -1.0999999992862901e+00 -3.1047984575939783e-02 -5.9234300247778193e-01 +5.9788224576038185e-03
-1.2000000000000000e+00 +8.1529591606740706e+00 +0.0000000000000000e+00 -1.1999999990734200e+00 -3.1047961196148614e-02 -5.9234318963054111e-01 +5.9788161098935592e-03
-1.3000000000000000e+00 +8.1529520705153100e+00 +0.0000000000000000e+00 -1.2999999988219300e+00 -3.1047934567472547e-02 -5.9234339060679742e-01 +5.9788094819640059e-03
-1.3999999999999999e+00 +8.1529444131410909e+00 +0.0000000000000000e+00 -1.3999999985286200e+00 -3.1047903873032086e-02 -5.9234360705814537e-01 +5.9788025874080147e-03
-1.5000000000000000e+00 +8.1529361885550298e+00 +0.0000000000000000e+00 -1.4999999981902701e+00 -3.1047868295955093e-02 -5.9234384063614398e-01 +5.9787954398183990e-03
-1.6000000000000001e+00 +8.1529273967571498e+00 +0.0000000000000000e+00 -1.5999999978036501e+00 -3.1047827019382742e-02 -5.9234409299240853e-01 +5.9787880527889361e-03
-1.7000000000000000e+00 +8.1529180377474404e+00 +0.0000000000000000e+00 -1.6999999973655600e+00 -3.1047779226469233e-02 -5.9234436577858707e-01 +5.9787804399141324e-03
-1.8000000000000000e+00 +8.1529081115222706e+00 +0.0000000000000000e+00 -1.7999999968727800e+00 -3.1047724100384547e-02 -5.9234466064639002e-01 +5.9787726147896292e-03
-1.8999999999999999e+00 +8.1528976180852606e+00 +0.0000000000000000e+00 -1.8999999963220899e+00 -3.1047660824310878e-02 -5.9234497924750862e-01 +5.9787645910113485e-03
-2.0000000000000000e+00 +8.1528865574327902e+00 +0.0000000000000000e+00 -1.9999999957102601e+00 -3.1047588581450226e-02 -5.9234532323373401e-01 +5.9787563821768058e-03
-2.1000000000000001e+00 +8.1528749295721408e+00 +0.0000000000000000e+00 -2.0999999950340902e+00 -3.1047506719666700e-02 -5.9234569364638434e-01 +5.9787479982201129e-03
-2.2000000000000002e+00 +8.1528627344960096e+00 +0.0000000000000000e+00 -2.1999999942903599e+00 -3.1047415245438192e-02 -5.9234608908520803e-01 +5.9787394344232962e-03
-2.2999999999999998e+00 +8.1528499722080596e+00 +0.0000000000000000e+00 -2.2999999934758399e+00 -3.1047314329884258e-02 -5.9234650753945017e-01 +5.9787306824043863e-03
-2.3999999999999999e+00 +8.1528366427046404e+00 +0.0000000000000000e+00 -2.3999999925873299e+00 -3.1047204144121675e-02 -5.9234694699842594e-01 +5.9787217337824430e-03
-2.5000000000000000e+00 +8.1528227459894005e+00 +0.0000000000000000e+00 -2.4999999916215998e+00 -3.1047084859256530e-02 -5.9234740545140141e-01 +5.9787125801763052e-03
-2.6000000000000001e+00 +8.1528082820659602e+00 +0.0000000000000000e+00 -2.5999999905754398e+00 -3.1046956646385925e-02 -5.9234788088765322e-01 +5.9787032132052227e-03
-2.7000000000000002e+00 +8.1527932509234198e+00 +0.0000000000000000e+00 -2.6999999894456299e+00 -3.1046819676602732e-02 -5.9234837129658446e-01 +5.9786936244900302e-03
-2.7999999999999998e+00 +8.1527776525726896e+00 +0.0000000000000000e+00 -2.7999999882289601e+00 -3.1046674120978196e-02 -5.9234887466742880e-01 +5.9786838056501172e-03
-2.8999999999999999e+00 +8.1527614870065008e+00 +0.0000000000000000e+00 -2.8999999869222002e+00 -3.1046520150577867e-02 -5.9234938898957457e-01 +5.9786737483067606e-03
-3.0000000000000000e+00 +8.1527447542284808e+00 +0.0000000000000000e+00 -2.9999999855221300e+00 -3.1046357936447444e-02 -5.9234991225232803e-01 +5.9786634440806849e-03
-3.1000000000000001e+00 +8.1527274542386294e+00 +0.0000000000000000e+00 -3.0999999840255499e+00 -3.1046187649617477e-02 -5.9235044244502921e-01 +5.9786528845932729e-03
-3.2000000000000002e+00 +8.1527095870333106e+00 +0.0000000000000000e+00 -3.1999999824292300e+00 -3.1046009461101923e-02 -5.9235097755705335e-01 +5.9786420614665447e-03
-3.2999999999999998e+00 +8.1526911526198091e+00 +0.0000000000000000e+00 -3.2999999807299600e+00 -3.1045823541890206e-02 -5.9235151557768884e-01 +5.9786309663219473e-03
-3.3999999999999999e+00 +8.1526721509872004e+00 +0.0000000000000000e+00 -3.3999999789245101e+00 -3.1045630062958445e-02 -5.9235205449637574e-01 +5.9786195907827700e-03
-3.5000000000000000e+00 +8.1526525821464002e+00 +0.0000000000000000e+00 -3.4999999770096801e+00 -3.1045429195250406e-02 -5.9235259230237725e-01 +5.9786079264707980e-03
-3.6000000000000001e+00 +8.1526324460901396e+00 +0.0000000000000000e+00 -3.5999999749822500e+00 -3.1045221109693450e-02 -5.9235312698510667e-01 +5.9785959650096344e-03
-3.7000000000000002e+00 +8.1526117428220495e+00 +0.0000000000000000e+00 -3.6999999728389801e+00 -3.1045005977184320e-02 -5.9235365653388650e-01 +5.9785836980222815e-03
-3.7999999999999998e+00 +8.1525904723421299e+00 +0.0000000000000000e+00 -3.7999999705766800e+00 -3.1044783968593968e-02 -5.9235417893806963e-01 +5.9785711171323318e-03
-3.8999999999999999e+00 +8.1525686346503807e+00 +0.0000000000000000e+00 -3.8999999681921298e+00 -3.1044555254764350e-02 -5.9235469218700587e-01 +5.9785582139636551e-03
-4.0000000000000000e+00 +8.1525462297431694e+00 +0.0000000000000000e+00 -3.9999999656820902e+00 -3.1044320006508575e-02 -5.9235519427007222e-01 +5.9785449801407009e-03
-4.0999999999999996e+00 +8.1525232576241304e+00 +0.0000000000000000e+00 -4.0999999630433699e+00 -3.1044078447573308e-02 -5.9235568356692159e-01 +5.9785314164372627e-03
-4.2000000000000002e+00 +8.1524997182896204e+00 +0.0000000000000000e+00 -4.1999999602727298e+00 -3.1043831013559193e-02 -5.9235616001860936e-01 +5.9785175602253817e-03
-4.2999999999999998e+00 +8.1524756117469206e+00 +0.0000000000000000e+00 -4.2999999573669703e+00 -3.1043578193022548e-02 -5.9235662395641786e-01 +5.9785034580222898e-03
-4.4000000000000004e+00 +8.1524509379887604e+00 +0.0000000000000000e+00 -4.3999999543228601e+00 -3.1043320474519989e-02 -5.9235707571171814e-01 +5.9784891563422534e-03
-4.5000000000000000e+00 +8.1524256970187707e+00 +0.0000000000000000e+00 -4.4999999511372000e+00 -3.1043058346597548e-02 -5.9235751561576289e-01 +5.9784747016941968e-03
-4.5999999999999996e+00 +8.1523998888369498e+00 +0.0000000000000000e+00 -4.5999999478067499e+00 -3.1042792297797196e-02 -5.9235794399980102e-01 +5.9784601405826572e-03
-4.7000000000000002e+00 +8.1523735134396702e+00 +0.0000000000000000e+00 -4.6999999443283098e+00 -3.1042522816656960e-02 -5.9235836119507712e-01 +5.9784455195075279e-03
-4.7999999999999998e+00 +8.1523465708305594e+00 +0.0000000000000000e+00 -4.7999999406986600e+00 -3.1042250391706404e-02 -5.9235876753273842e-01 +5.9784308849629110e-03
-4.9000000000000004e+00 +8.1523190610096208e+00 +0.0000000000000000e+00 -4.8999999369145701e+00 -3.1041975511471472e-02 -5.9235916334392369e-01 +5.9784162834377475e-03
-5.0000000000000000e+00 +8.1522909839768491e+00 +0.0000000000000000e+00 -4.9999999329728402e+00 -3.1041698664473188e-02 -5.9235954895973042e-01 +5.9784017614152862e-03
-5.0999999999999996e+00 +8.1522623397286207e+00 +0.0000000000000000e+00 -5.0999999288702398e+00 -3.1041420339229301e-02 -5.9235992471124199e-01 +5.9783873653731154e-03
-5.2000000000000002e+00 +8.1522331282685592e+00 +0.0000000000000000e+00 -5.1999999246035600e+00 -3.1041141024249784e-02 -5.9236029092943787e-01 +5.9783731417820075e-03
-5.2999999999999998e+00 +8.1522033495966806e+00 +0.0000000000000000e+00 -5.2999999201695802e+00 -3.1040861208041684e-02 -5.9236064794527898e-01 +5.9783591371065708e-03
-5.4000000000000004e+00 +8.1521730037093203e+00 +0.0000000000000000e+00 -5.3999999155650800e+00 -3.1040581379109384e-02 -5.9236099608970672e-01 +5.9783453978050046e-03
-5.5000000000000000e+00 +8.1521420906137791e+00 +0.0000000000000000e+00 -5.4999999107868396e+00 -3.1040302025948371e-02 -5.9236133569352156e-01 +5.9783319703276177e-03
-5.5999999999999996e+00 +8.1521106102991308e+00 +0.0000000000000000e+00 -5.5999999058316599e+00 -3.1040023637058101e-02 -5.9236166708761828e-01 +5.9783189011190143e-03
-5.7000000000000002e+00 +8.1520785627762997e+00 +0.0000000000000000e+00 -5.6999999006963096e+00 -3.1039746700924749e-02 -5.9236199060265871e-01 +5.9783062366144972e-03
-5.7999999999999998e+00 +8.1520459480379905e+00 +0.0000000000000000e+00 -5.7999998953775700e+00 -3.1039471706038810e-02 -5.9236230656939326e-01 +5.9782940232431525e-03
-5.9000000000000004e+00 +8.1520127660915005e+00 +0.0000000000000000e+00 -5.8999998898722197e+00 -3.1039199140881019e-02 -5.9236261531839463e-01 +5.9782823074248639e-03
-5.9999999999999902e+00 +8.1519790169259103e+00 +0.0000000000000000e+00 -5.9999998841770603e+00 -3.1038929493936791e-02 -5.9236291718032130e-01 +5.9782711355728024e-03
-6.0999999999999899e+00 +8.1519447005521197e+00 +0.0000000000000000e+00 -6.0999998782888598e+00 -3.1038663271881439e-02 -5.9236321262547087e-01 +5.9782605298586249e-03
-6.1999999999999904e+00 +8.1519098169665103e+00 +0.0000000000000000e+00 -6.1999998722044003e+00 -3.1038401054215382e-02 -5.9236350268375748e-01 +5.9782504155265160e-03
-6.2999999999999901e+00 +8.1518743661654298e+00 +0.0000000000000000e+00 -6.2999998659204701e+00 -3.1038143438671013e-02 -5.9236378852500493e-01 +5.9782406935946549e-03
-6.3999999999999897e+00 +8.1518383481488907e+00 +0.0000000000000000e+00 -6.3999998594338496e+00 -3.1037891023012701e-02 -5.9236407131904534e-01 +5.9782312650878949e-03
-6.4999999999999902e+00 +8.1518017629241495e+00 +0.0000000000000000e+00 -6.4999998527413201e+00 -3.1037644405036906e-02 -5.9236435223569084e-01 +5.9782220310378243e-03
-6.5999999999999899e+00 +8.1517646104839496e+00 +0.0000000000000000e+00 -6.5999998458396698e+00 -3.1037404182583158e-02 -5.9236463244491500e-01 +5.9782128924849645e-03
-6.6999999999999904e+00 +8.1517268908319203e+00 +0.0000000000000000e+00 -6.6999998387256703e+00 -3.1037170953524540e-02 -5.9236491311664519e-01 +5.9782037504770005e-03
-6.7999999999999901e+00 +8.1516886039680703e+00 +0.0000000000000000e+00 -6.7999998313961196e+00 -3.1036945315775583e-02 -5.9236519542088462e-01 +5.9781945060703810e-03
-6.8999999999999897e+00 +8.1516497498923908e+00 +0.0000000000000000e+00 -6.8999998238477902e+00 -3.1036727867292238e-02 -5.9236548052768523e-01 +5.9781850603303844e-03
-6.9999999999999902e+00 +8.1516103286012402e+00 +0.0000000000000000e+00 -6.9999998160774597e+00 -3.1036519206075017e-02 -5.9236576960717802e-01 +5.9781753143317807e-03
-7.0999999999999899e+00 +8.1515703400982602e+00 +0.0000000000000000e+00 -7.0999998080819298e+00 -3.1036319930165764e-02 -5.9236606382948631e-01 +5.9781651691582990e-03
-7.1999999999999904e+00 +8.1515297843834595e+00 +0.0000000000000000e+00 -7.1999997998579603e+00 -3.1036130637654029e-02 -5.9236636436481860e-01 +5.9781545259039162e-03
-7.2999999999999901e+00 +8.1514886614531896e+00 +0.0000000000000000e+00 -7.2999997914023496e+00 -3.1035951926678518e-02 -5.9236667238346785e-01 +5.9781432856732082e-03
-7.3999999999999897e+00 +8.1514469713147300e+00 +0.0000000000000000e+00 -7.3999997827118804e+00 -3.1035784395422393e-02 -5.9236698905569707e-01 +5.9781313495805280e-03
-7.4999999999999902e+00 +8.1514047139571595e+00 +0.0000000000000000e+00 -7.4999997737833199e+00 -3.1035628642127434e-02 -5.9236731555197775e-01 +5.9781186187527818e-03
-7.5999999999999899e+00 +8.1513618893914099e+00 +0.0000000000000000e+00 -7.5999997646134698e+00 -3.1035485265078225e-02 -5.9236765304266525e-01 +5.9781049943264785e-03
-7.6999999999999904e+00 +8.1513184976138309e+00 +0.0000000000000000e+00 -7.6999997551991104e+00 -3.1035354862619480e-02 -5.9236800269829903e-01 +5.9780903774511356e-03
-7.7999999999999901e+00 +8.1512745386207808e+00 +0.0000000000000000e+00 -7.7999997455370096e+00 -3.1035238033151308e-02 -5.9236836568948414e-01 +5.9780746692884197e-03
-7.8999999999999897e+00 +8.1512300124159101e+00 +0.0000000000000000e+00 -7.8999997356239602e+00 -3.1035135375127535e-02 -5.9236874318683530e-01 +5.9780577710119185e-03
-7.9999999999999902e+00 +8.1511849189955701e+00 +0.0000000000000000e+00 -7.9999997254567399e+00 -3.1035047487063611e-02 -5.9236913636109678e-01 +5.9780395838087272e-03
-8.0999999999999908e+00 +8.1511392583670403e+00 +0.0000000000000000e+00 -8.0999997150321406e+00 -3.1034974670212673e-02 -5.9236954604937231e-01 +5.9780200423750424e-03
-8.1999999999999904e+00 +8.1510930305230396e+00 +0.0000000000000000e+00 -8.1999997043469399e+00 -3.1034916036583548e-02 -5.9236997175442430e-01 +5.9779992154029666e-03
-8.2999999999999901e+00 +8.1510462354672200e+00 +0.0000000000000000e+00 -8.2999996933979094e+00 -3.1034870400831575e-02 -5.9237041264529566e-01 +5.9779772050755188e-03
-8.3999999999999897e+00 +8.1509988731995708e+00 +0.0000000000000000e+00 -8.3999996821818605e+00 -3.1034836577578294e-02 -5.9237086789105220e-01 +5.9779541135685831e-03
-8.4999999999999893e+00 +8.1509509437164507e+00 +0.0000000000000000e+00 -8.4999996706955496e+00 -3.1034813381409978e-02 -5.9237133666078190e-01 +5.9779300430506284e-03
-8.5999999999999908e+00 +8.1509024470215099e+00 +0.0000000000000000e+00 -8.5999996589357703e+00 -3.1034799626871574e-02 -5.9237181812350603e-01 +5.9779050956815342e-03
-8.6999999999999904e+00 +8.1508533831147396e+00 +0.0000000000000000e+00 -8.6999996468993004e+00 -3.1034794128470045e-02 -5.9237231144826552e-01 +5.9778793736132161e-03
-8.7999999999999794e+00 +8.1508037519961398e+00 +0.0000000000000000e+00 -8.7999996345829192e+00 -3.1034795700671407e-02 -5.9237281580409362e-01 +5.9778529789890726e-03
-8.8999999999999808e+00 +8.1507535536620708e+00 +0.0000000000000000e+00 -8.8999996219834205e+00 -3.1034803157901011e-02 -5.9237333036004358e-01 +5.9778260139439921e-03
-8.9999999999999805e+00 +8.1507027881161793e+00 +0.0000000000000000e+00 -8.9999996090975891e+00 -3.1034815314537348e-02 -5.9237385428509870e-01 +5.9777985806031874e-03
-9.0999999999999801e+00 +8.1506514553584601e+00 +0.0000000000000000e+00 -9.0999995959221902e+00 -3.1034830984915451e-02 -5.9237438674826215e-01 +5.9777707810828298e-03
-9.1999999999999797e+00 +8.1505995553889097e+00 +0.0000000000000000e+00 -9.1999995824540193e+00 -3.1034848983323992e-02 -5.9237492691852722e-01 +5.9777427174894718e-03
-9.2999999999999794e+00 +8.1505470882038900e+00 +0.0000000000000000e+00 -9.2999995686898593e+00 -3.1034868124005421e-02 -5.9237547396490364e-01 +5.9777144919200831e-03
-9.3999999999999808e+00 +8.1504940538070496e+00 +0.0000000000000000e+00 -9.3999995546264898e+00 -3.1034887221149946e-02 -5.9237602705633141e-01 +5.9776862064608591e-03
-9.4999999999999805e+00 +8.1504404521983798e+00 +0.0000000000000000e+00 -9.4999995402606903e+00 -3.1034905088898807e-02 -5.9237658536176763e-01 +5.9776579631878757e-03
-9.5999999999999801e+00 +8.1503862833778804e+00 +0.0000000000000000e+00 -9.5999995255892507e+00 -3.1034920541341479e-02 -5.9237714805015695e-01 +5.9776298641664961e-03
-9.6999999999999797e+00 +8.1503315473419207e+00 +0.0000000000000000e+00 -9.6999995106089507e+00 -3.1034932392515716e-02 -5.9237771429046016e-01 +5.9776020114514113e-03
-9.7999999999999794e+00 +8.1502762440941297e+00 +0.0000000000000000e+00 -9.7999994953165697e+00 -3.1034939456401626e-02 -5.9237828325156594e-01 +5.9775745070854624e-03
-9.8999999999999808e+00 +8.1502203736345091e+00 +0.0000000000000000e+00 -9.8999994797088906e+00 -3.1034940546924933e-02 -5.9237885410237745e-01 +5.9775474531002697e-03
-9.9999999999999805e+00 +8.1501639359594300e+00 +0.0000000000000000e+00 -9.9999994637827001e+00 -3.1034934477955661e-02 -5.9237942601181359e-01 +5.9775209515159624e-03
-1.0100000000000000e+01 +8.1501069310761505e+00 +0.0000000000000000e+00 -1.0099999447534801e+01 -3.1034920332976012e-02 -5.9237999834012656e-01 +5.9774950910189426e-03
-1.0199999999999999e+01 +8.1500493589774106e+00 +0.0000000000000000e+00 -1.0199999430961901e+01 -3.1034898274167558e-02 -5.9238057121341992e-01 +5.9774699070072558e-03
-1.0300000000000001e+01 +8.1499912196668394e+00 +0.0000000000000000e+00 -1.0299999414060901e+01 -3.1034868733423586e-02 -5.9238114494910410e-01 +5.9774454215627930e-03
-1.0400000000000000e+01 +8.1499325131444493e+00 +0.0000000000000000e+00 -1.0399999396828500e+01 -3.1034832142680470e-02 -5.9238171986456623e-01 +5.9774216567755455e-03
-1.0500000000000000e+01 +8.1498732394065900e+00 +0.0000000000000000e+00 -1.0499999379261400e+01 -3.1034788933918853e-02 -5.9238229627717087e-01 +5.9773986347438314e-03
-1.0600000000000000e+01 +8.1498133984568994e+00 +0.0000000000000000e+00 -1.0599999361356600e+01 -3.1034739539159983e-02 -5.9238287450416816e-01 +5.9773763775736038e-03
-1.0699999999999999e+01 +8.1497529902953794e+00 +0.0000000000000000e+00 -1.0699999343110701e+01 -3.1034684390471520e-02 -5.9238345486278166e-01 +5.9773549073795776e-03
-1.0800000000000001e+01 +8.1496920149220404e+00 +0.0000000000000000e+00 -1.0799999324520600e+01 -3.1034623919967069e-02 -5.9238403767017822e-01 +5.9773342462851563e-03
-1.0900000000000000e+01 +8.1496304723332305e+00 +0.0000000000000000e+00 -1.0899999305583000e+01 -3.1034558559808870e-02 -5.9238462324349528e-01 +5.9773144164229517e-03
-1.1000000000000000e+01 +8.1495683625325892e+00 +0.0000000000000000e+00 -1.0999999286294800e+01 -3.1034488742204099e-02 -5.9238521189975135e-01 +5.9772954399341044e-03
-1.1100000000000000e+01 +8.1495056855201309e+00 +0.0000000000000000e+00 -1.1099999266652601e+01 -3.1034414899410757e-02 -5.9238580395593321e-01 +5.9772773389693912e-03
-1.1199999999999999e+01 +8.1494424412958306e+00 +0.0000000000000000e+00 -1.1199999246653300e+01 -3.1034337463737138e-02 -5.9238639972896512e-01 +5.9772601356891724e-03
-1.1300000000000001e+01 +8.1493786298560700e+00 +0.0000000000000000e+00 -1.1299999226293700e+01 -3.1034256867544536e-02 -5.9238699953573692e-01 +5.9772438522639011e-03
-1.1400000000000000e+01 +8.1493142512044905e+00 +0.0000000000000000e+00 -1.1399999205570500e+01 -3.1034173543243507e-02 -5.9238760369301358e-01 +5.9772285108734306e-03
-1.1500000000000000e+01 +8.1492493053447106e+00 +0.0000000000000000e+00 -1.1499999184480499e+01 -3.1034087923298238e-02 -5.9238821251749363e-01 +5.9772141337078562e-03
-1.1600000000000000e+01 +8.1491837922658306e+00 +0.0000000000000000e+00 -1.1599999163020600e+01 -3.1034000440233897e-02 -5.9238882632592693e-01 +5.9772007429689401e-03
-1.1699999999999999e+01 +8.1491177119787608e+00 +0.0000000000000000e+00 -1.1699999141187400e+01 -3.1033911526621875e-02 -5.9238944543481509e-01 +5.9771883608673044e-03
