# trajectory
# s[mm] rx[mm] ry[mm] rz[mm] px[rad] py[rad] pz[rad]
0.0000000000000000e+00 +8.1649999999999991e+00 +0.0000000000000000e+00 +0.0000000000000000e+00 +0.0000000000000000e+00 +0.0000000000000000e+00 +1.0000000000000000e+00
-1.0000000000000001e-01 +8.1649997168903319e+00 +0.0000000000000000e+00 -9.9999999999465669e-02 +5.6621931019329975e-06 +0.0000000000000000e+00 +9.9999999998396982e-01
-2.0000000000000001e-01 +8.1649988675614296e+00 +0.0000000000000000e+00 -1.9999999999572526e-01 +1.1324384700430181e-05 +0.0000000000000000e+00 +9.9999999993587918e-01
-3.0000000000000004e-01 +8.1649974520134396e+00 +0.0000000000000000e+00 -2.9999999998557281e-01 +1.6986574852338511e-05 +0.0000000000000000e+00 +9.9999999985572818e-01
-4.0000000000000002e-01 +8.1649954702465060e+00 +0.0000000000000000e+00 -3.9999999996580221e-01 +2.2648763608015802e-05 +0.0000000000000000e+00 +9.9999999974351683e-01
-5.0000000000000000e-01 +8.1649929222607636e+00 +0.0000000000000000e+00 -4.9999999993320748e-01 +2.8310951011330692e-05 +0.0000000000000000e+00 +9.9999999959924513e-01
-5.9999999999999998e-01 +8.1649898080563474e+00 +0.0000000000000000e+00 -5.9999999988458252e-01 +3.3973137099662638e-05 +0.0000000000000000e+00 +9.9999999942291307e-01
-6.9999999999999996e-01 +8.1649861276333873e+00 +0.0000000000000000e+00 -6.9999999981672134e-01 +3.9635321903901920e-05 +0.0000000000000000e+00 +9.9999999921452076e-01
-7.9999999999999993e-01 +8.1649818809920092e+00 +0.0000000000000000e+00 -7.9999999972641800e-01 +4.5297505448449612e-05 +0.0000000000000000e+00 +9.9999999897406811e-01
-8.9999999999999991e-01 +8.1649770681323393e+00 +0.0000000000000000e+00 -8.9999999961046628e-01 +5.0959687751217594e-05 +0.0000000000000000e+00 +9.9999999870155520e-01
-9.9999999999999989e-01 +8.1649716890545001e+00 +0.0000000000000000e+00 -9.9999999946566032e-01 +5.6621868823628546e-05 +0.0000000000000000e+00 +9.9999999839698206e-01
-1.0999999999999999e+00 +8.1649657437586161e+00 +0.0000000000000000e+00 -1.0999999992887941e+00 +6.2284048670615947e-05 +0.0000000000000000e+00 +9.9999999806034867e-01
-1.2000000000000000e+00 +8.1649592322448079e+00 +0.0000000000000000e+00 -1.1999999990766614e+00 +6.7946227290624069e-05 +0.0000000000000000e+00 +9.9999999769165515e-01
-1.3000000000000000e+00 +8.1649521545132000e+00 +0.0000000000000000e+00 -1.2999999988260564e+00 +7.3608404675608023e-05 +0.0000000000000000e+00 +9.9999999729090139e-01
-1.4000000000000001e+00 +8.1649445105639149e+00 +0.0000000000000000e+00 -1.3999999985337730e+00 +7.9270580811033713e-05 +0.0000000000000000e+00 +9.9999999685808749e-01
-1.5000000000000002e+00 +8.1649363003970805e+00 +0.0000000000000000e+00 -1.4999999981966052e+00 +8.4932755675877876e-05 +0.0000000000000000e+00 +9.9999999639321346e-01
-1.6000000000000003e+00 +8.1649275240128230e+00 +0.0000000000000000e+00 -1.5999999978113471e+00 +9.0594929242628083e-05 +0.0000000000000000e+00 +9.9999999589627930e-01
-1.7000000000000004e+00 +8.1649181814112755e+00 +0.0000000000000000e+00 -1.6999999973747923e+00 +9.6257101477282791e-05 +0.0000000000000000e+00 +9.9999999536728512e-01
-1.8000000000000005e+00 +8.1649082725925730e+00 +0.0000000000000000e+00 -1.7999999968837352e+00 +1.0191927233935130e-04 +0.0000000000000000e+00 +9.9999999480623092e-01
-1.9000000000000006e+00 +8.1648977975568542e+00 +0.0000000000000000e+00 -1.8999999963349699e+00 +1.0758144178185383e-04 +0.0000000000000000e+00 +9.9999999421311669e-01
-2.0000000000000004e+00 +8.1648867563042646e+00 +0.0000000000000000e+00 -1.9999999957252901e+00 +1.1324360975132150e-04 +0.0000000000000000e+00 +9.9999999358794245e-01
-2.1000000000000005e+00 +8.1648751488349554e+00 +0.0000000000000000e+00 -2.0999999950514896e+00 +1.1890577618850431e-04 +0.0000000000000000e+00 +9.9999999293070818e-01
-2.2000000000000006e+00 +8.1648629751490809e+00 +0.0000000000000000e+00 -2.1999999943103630e+00 +1.2456794103615830e-04 +0.0000000000000000e+00 +9.9999999224141400e-01
-2.3000000000000007e+00 +8.1648502352468029e+00 +0.0000000000000000e+00 -2.2999999934987039e+00 +1.3023010424683274e-04 +0.0000000000000000e+00 +9.9999999152005992e-01
-2.4000000000000008e+00 +8.1648369291282865e+00 +0.0000000000000000e+00 -2.3999999926133064e+00 +1.3589226578357815e-04 +0.0000000000000000e+00 +9.9999999076664603e-01
-2.5000000000000009e+00 +8.1648230567937023e+00 +0.0000000000000000e+00 -2.4999999916509643e+00 +1.4155442561994625e-04 +0.0000000000000000e+00 +9.9999998998117223e-01
-2.6000000000000010e+00 +8.1648086182432191e+00 +0.0000000000000000e+00 -2.5999999906084721e+00 +1.4721658373999014e-04 +0.0000000000000000e+00 +9.9999998916363864e-01
-2.7000000000000011e+00 +8.1647936134770109e+00 +0.0000000000000000e+00 -2.6999999894826234e+00 +1.5287874013826427e-04 +0.0000000000000000e+00 +9.9999998831404535e-01
-2.8000000000000012e+00 +8.1647780424952483e+00 +0.0000000000000000e+00 -2.7999999882702125e+00 +1.5854089481982461e-04 +0.0000000000000000e+00 +9.9999998743239227e-01
-2.9000000000000012e+00 +8.1647619052981035e+00 +0.0000000000000000e+00 -2.8999999869680333e+00 +1.6420304780022865e-04 +0.0000000000000000e+00 +9.9999998651867950e-01
-3.0000000000000013e+00 +8.1647452018857436e+00 +0.0000000000000000e+00 -2.9999999855728796e+00 +1.6986519910553545e-04 +0.0000000000000000e+00 +9.9999998557290704e-01
-3.1000000000000014e+00 +8.1647279322583355e+00 +0.0000000000000000e+00 -3.0999999840815460e+00 +1.7552734877230582e-04 +0.0000000000000000e+00 +9.9999998459507489e-01
-3.2000000000000015e+00 +8.1647100964160408e+00 +0.0000000000000000e+00 -3.1999999824908261e+00 +1.8118949684760237e-04 +0.0000000000000000e+00 +9.9999998358518305e-01
-3.3000000000000016e+00 +8.1646916943590160e+00 +0.0000000000000000e+00 -3.2999999807975140e+00 +1.8685164338898955e-04 +0.0000000000000000e+00 +9.9999998254323164e-01
-3.4000000000000017e+00 +8.1646727260874119e+00 +0.0000000000000000e+00 -3.3999999789984039e+00 +1.9251378846453382e-04 +0.0000000000000000e+00 +9.9999998146922053e-01
-3.5000000000000018e+00 +8.1646531916013707e+00 +0.0000000000000000e+00 -3.4999999770902894e+00 +1.9817593215280374e-04 +0.0000000000000000e+00 +9.9999998036314985e-01
-3.6000000000000019e+00 +8.1646330909010256e+00 +0.0000000000000000e+00 -3.5999999750699652e+00 +2.0383807454286997e-04 +0.0000000000000000e+00 +9.9999997922501960e-01
-3.7000000000000020e+00 +8.1646124239865028e+00 +0.0000000000000000e+00 -3.6999999729342248e+00 +2.0950021573430558e-04 +0.0000000000000000e+00 +9.9999997805482965e-01
-3.8000000000000020e+00 +8.1645911908579158e+00 +0.0000000000000000e+00 -3.7999999706798624e+00 +2.1516235583718597e-04 +0.0000000000000000e+00 +9.9999997685258013e-01
-3.9000000000000021e+00 +8.1645693915153679e+00 +0.0000000000000000e+00 -3.8999999683036721e+00 +2.2082449497208914e-04 +0.0000000000000000e+00 +9.9999997561827103e-01
-4.0000000000000018e+00 +8.1645470259589494e+00 +0.0000000000000000e+00 -3.9999999658024481e+00 +2.2648663327009570e-04 +0.0000000000000000e+00 +9.9999997435190224e-01
-4.1000000000000014e+00 +8.1645240941887369e+00 +0.0000000000000000e+00 -4.0999999631729844e+00 +2.3214877087222497e-04 +0.0000000000000000e+00 +9.9999997305347388e-01
-4.2000000000000011e+00 +8.1645005962047925e+00 +0.0000000000000000e+00 -4.1999999604120744e+00 +2.3781090792322966e-04 +0.0000000000000000e+00 +9.9999997172298583e-01
-4.3000000000000007e+00 +8.1644765320071659e+00 +0.0000000000000000e+00 -4.2999999575165129e+00 +2.4347304456539059e-04 +0.0000000000000000e+00 +9.9999997036043808e-01
-4.4000000000000004e+00 +8.1644519015958892e+00 +0.0000000000000000e+00 -4.3999999544830937e+00 +2.4913518093795266e-04 +0.0000000000000000e+00 +9.9999996896583054e-01
-4.5000000000000000e+00 +8.1644267049709836e+00 +0.0000000000000000e+00 -4.4999999513086104e+00 +2.5479731717712481e-04 +0.0000000000000000e+00 +9.9999996753916331e-01
-4.5999999999999996e+00 +8.1644009421324544e+00 +0.0000000000000000e+00 -4.5999999479898577e+00 +2.6045945341608023e-04 +0.0000000000000000e+00 +9.9999996608043629e-01
-4.6999999999999993e+00 +8.1643746130802963e+00 +0.0000000000000000e+00 -4.6999999445236291e+00 +2.6612158978495614e-04 +0.0000000000000000e+00 +9.9999996458964935e-01
-4.7999999999999989e+00 +8.1643477178144899e+00 +0.0000000000000000e+00 -4.7999999409067193e+00 +2.7178372641085405e-04 +0.0000000000000000e+00 +9.9999996306680261e-01
-4.8999999999999986e+00 +8.1643202563350012e+00 +0.0000000000000000e+00 -4.8999999371359211e+00 +2.7744586341783975e-04 +0.0000000000000000e+00 +9.9999996151189596e-01
-4.9999999999999982e+00 +8.1642922286417878e+00 +0.0000000000000000e+00 -4.9999999332080298e+00 +2.8310800092694332e-04 +0.0000000000000000e+00 +9.9999995992492940e-01
-5.0999999999999979e+00 +8.1642636347347946e+00 +0.0000000000000000e+00 -5.0999999291198383e+00 +2.8877013905615915e-04 +0.0000000000000000e+00 +9.9999995830590283e-01
-5.1999999999999975e+00 +8.1642344746139521e+00 +0.0000000000000000e+00 -5.1999999248681412e+00 +2.9443227792044600e-04 +0.0000000000000000e+00 +9.9999995665481622e-01
-5.2999999999999972e+00 +8.1642047482791824e+00 +0.0000000000000000e+00 -5.2999999204497330e+00 +3.0009441763172704e-04 +0.0000000000000000e+00 +9.9999995497166949e-01
-5.3999999999999968e+00 +8.1641744557303948e+00 +0.0000000000000000e+00 -5.3999999158614065e+00 +3.0575655829888994e-04 +0.0000000000000000e+00 +9.9999995325646274e-01
-5.4999999999999964e+00 +8.1641435969674880e+00 +0.0000000000000000e+00 -5.4999999110999562e+00 +3.1141870002778681e-04 +0.0000000000000000e+00 +9.9999995150919574e-01
-5.5999999999999961e+00 +8.1641121719903502e+00 +0.0000000000000000e+00 -5.5999999061621768e+00 +3.1708084292123430e-04 +0.0000000000000000e+00 +9.9999994972986850e-01
-5.6999999999999957e+00 +8.1640801807988606e+00 +0.0000000000000000e+00 -5.6999999010448619e+00 +3.2274298707901363e-04 +0.0000000000000000e+00 +9.9999994791848101e-01
-5.7999999999999954e+00 +8.1640476233928876e+00 +0.0000000000000000e+00 -5.7999998957448051e+00 +3.2840513259787049e-04 +0.0000000000000000e+00 +9.9999994607503317e-01
-5.8999999999999950e+00 +8.1640144997722910e+00 +0.0000000000000000e+00 -5.8999998902588002e+00 +3.3406727957151531e-04 +0.0000000000000000e+00 +9.9999994419952498e-01
-5.9999999999999947e+00 +8.1639808099369215e+00 +0.0000000000000000e+00 -5.9999998845836418e+00 +3.3972942809062305e-04 +0.0000000000000000e+00 +9.9999994229195632e-01
-6.0999999999999943e+00 +8.1639465538866194e+00 +0.0000000000000000e+00 -6.0999998787161234e+00 +3.4539157824251427e-04 +0.0000000000000000e+00 +9.9999994035232720e-01
-6.1999999999999940e+00 +8.1639117316212158e+00 +0.0000000000000000e+00 -6.1999998726530388e+00 +3.5105373010764463e-04 +0.0000000000000000e+00 +9.9999993838063750e-01
-6.2999999999999936e+00 +8.1638763431405383e+00 +0.0000000000000000e+00 -6.2999998663911825e+00 +3.5671588375609404e-04 +0.0000000000000000e+00 +9.9999993637688722e-01
-6.3999999999999932e+00 +8.1638403884444042e+00 +0.0000000000000000e+00 -6.3999998599273482e+00 +3.6237803924724728e-04 +0.0000000000000000e+00 +9.9999993434107626e-01
-6.4999999999999929e+00 +8.1638038675326268e+00 +0.0000000000000000e+00 -6.4999998532583296e+00 +3.6804019662979332e-04 +0.0000000000000000e+00 +9.9999993227320461e-01
-6.5999999999999925e+00 +8.1637667804050142e+00 +0.0000000000000000e+00 -6.5999998463809204e+00 +3.7370235594172510e-04 +0.0000000000000000e+00 +9.9999993017327216e-01
-6.6999999999999922e+00 +8.1637291270613730e+00 +0.0000000000000000e+00 -6.6999998392919151e+00 +3.7936451721033883e-04 +0.0000000000000000e+00 +9.9999992804127902e-01
-6.7999999999999918e+00 +8.1636909075015058e+00 +0.0000000000000000e+00 -6.7999998319881074e+00 +3.8502668045223358e-04 +0.0000000000000000e+00 +9.9999992587722497e-01
-6.8999999999999915e+00 +8.1636521217252156e+00 +0.0000000000000000e+00 -6.8999998244662910e+00 +3.9068884567331061e-04 +0.0000000000000000e+00 +9.9999992368111001e-01
-6.9999999999999911e+00 +8.1636127697323051e+00 +0.0000000000000000e+00 -6.9999998167232604e+00 +3.9635101286877292e-04 +0.0000000000000000e+00 +9.9999992145293426e-01
-7.0999999999999908e+00 +8.1635728515225772e+00 +0.0000000000000000e+00 -7.0999998087558094e+00 +4.0201318202312466e-04 +0.0000000000000000e+00 +9.9999991919269748e-01
-7.1999999999999904e+00 +8.1635323670958364e+00 +0.0000000000000000e+00 -7.1999998005607315e+00 +4.0767535311017047e-04 +0.0000000000000000e+00 +9.9999991690039980e-01
-7.2999999999999901e+00 +8.1634913164518927e+00 +0.0000000000000000e+00 -7.2999997921348205e+00 +4.1333752609301502e-04 +0.0000000000000000e+00 +9.9999991457604109e-01
-7.3999999999999897e+00 +8.1634496995905579e+00 +0.0000000000000000e+00 -7.3999997834748710e+00 +4.1899970092406220e-04 +0.0000000000000000e+00 +9.9999991221962148e-01
-7.4999999999999893e+00 +8.1634075165116489e+00 +0.0000000000000000e+00 -7.4999997745776765e+00 +4.2466187754501447e-04 +0.0000000000000000e+00 +9.9999990983114084e-01
-7.5999999999999890e+00 +8.1633647672149916e+00 +0.0000000000000000e+00 -7.5999997654400309e+00 +4.3032405588687233e-04 +0.0000000000000000e+00 +9.9999990741059919e-01
-7.6999999999999886e+00 +8.1633214517004173e+00 +0.0000000000000000e+00 -7.6999997560587277e+00 +4.3598623586993347e-04 +0.0000000000000000e+00 +9.9999990495799651e-01
-7.7999999999999883e+00 +8.1632775699677662e+00 +0.0000000000000000e+00 -7.7999997464305615e+00 +4.4164841740379219e-04 +0.0000000000000000e+00 +9.9999990247333292e-01
-7.8999999999999879e+00 +8.1632331220168890e+00 +0.0000000000000000e+00 -7.8999997365523260e+00 +4.4731060038733856e-04 +0.0000000000000000e+00 +9.9999989995660832e-01
-7.9999999999999876e+00 +8.1631881078476454e+00 +0.0000000000000000e+00 -7.9999997264208149e+00 +4.5297278470875766e-04 +0.0000000000000000e+00 +9.9999989740782280e-01
-8.0999999999999872e+00 +8.1631425274599074e+00 +0.0000000000000000e+00 -8.0999997160328228e+00 +4.5863497024639373e-04 +0.0000000000000000e+00 +9.9999989482697638e-01
-8.1999999999999869e+00 +8.1630963808535597e+00 +0.0000000000000000e+00 -8.1999997053851423e+00 +4.6429715687826246e-04 +0.0000000000000000e+00 +9.9999989221406915e-01
-8.2999999999999865e+00 +8.1630496680284992e+00 +0.0000000000000000e+00 -8.2999996944745682e+00 +4.6995934449156390e-04 +0.0000000000000000e+00 +9.9999988956910102e-01
-8.3999999999999861e+00 +8.1630023889846317e+00 +0.0000000000000000e+00 -8.3999996832978940e+00 +4.7562153298354778e-04 +0.0000000000000000e+00 +9.9999988689207209e-01
-8.4999999999999858e+00 +8.1629545437218756e+00 +0.0000000000000000e+00 -8.4999996718519135e+00 +4.8128372226151372e-04 +0.0000000000000000e+00 +9.9999988418298247e-01
-8.5999999999999854e+00 +8.1629061322401562e+00 +0.0000000000000000e+00 -8.5999996601334221e+00 +4.8694591224281164e-04 +0.0000000000000000e+00 +9.9999988144183205e-01
-8.6999999999999851e+00 +8.1628571545394060e+00 +0.0000000000000000e+00 -8.6999996481392117e+00 +4.9260810285484211e-04 +0.0000000000000000e+00 +9.9999987866862095e-01
-8.7999999999999847e+00 +8.1628076106195664e+00 +0.0000000000000000e+00 -8.7999996358660777e+00 +4.9827029403505681e-04 +0.0000000000000000e+00 +9.9999987586334915e-01
-8.8999999999999844e+00 +8.1627575004805824e+00 +0.0000000000000000e+00 -8.8999996233108138e+00 +5.0393248573095883e-04 +0.0000000000000000e+00 +9.9999987302601667e-01
-8.9999999999999840e+00 +8.1627068241224041e+00 +0.0000000000000000e+00 -8.9999996104702138e+00 +5.0959467790010317e-04 +0.0000000000000000e+00 +9.9999987015662350e-01
-9.0999999999999837e+00 +8.1626555815449873e+00 +0.0000000000000000e+00 -9.0999995973410712e+00 +5.1525687051009713e-04 +0.0000000000000000e+00 +9.9999986725516965e-01
-9.1999999999999833e+00 +8.1626037727482874e+00 +0.0000000000000000e+00 -9.1999995839201798e+00 +5.2091906353860082e-04 +0.0000000000000000e+00 +9.9999986432165522e-01
-9.2999999999999829e+00 +8.1625513977322655e+00 +0.0000000000000000e+00 -9.2999995702043332e+00 +5.2658125697332742e-04 +0.0000000000000000e+00 +9.9999986135608010e-01
-9.3999999999999826e+00 +8.1624984564968788e+00 +0.0000000000000000e+00 -9.3999995561903269e+00 +5.3224345081204401e-04 +0.0000000000000000e+00 +9.9999985835844429e-01
-9.4999999999999822e+00 +8.1624449490420883e+00 +0.0000000000000000e+00 -9.4999995418749545e+00 +5.3790564506257191e-04 +0.0000000000000000e+00 +9.9999985532874780e-01
-9.5999999999999819e+00 +8.1623908753678514e+00 +0.0000000000000000e+00 -9.5999995272550080e+00 +5.4356783974278693e-04 +0.0000000000000000e+00 +9.9999985226699062e-01
-9.6999999999999815e+00 +8.1623362354741236e+00 +0.0000000000000000e+00 -9.6999995123272829e+00 +5.4923003488062036e-04 +0.0000000000000000e+00 +9.9999984917317275e-01
-9.7999999999999812e+00 +8.1622810293608588e+00 +0.0000000000000000e+00 -9.7999994970885727e+00 +5.5489223051405909e-04 +0.0000000000000000e+00 +9.9999984604729419e-01
-9.8999999999999808e+00 +8.1622252570280036e+00 +0.0000000000000000e+00 -9.8999994815356729e+00 +5.6055442669114661e-04 +0.0000000000000000e+00 +9.9999984288935484e-01
-9.9999999999999805e+00 +8.1621689184755013e+00 +0.0000000000000000e+00 -9.9999994656653755e+00 +5.6621662346998303e-04 +0.0000000000000000e+00 +9.9999983969935458e-01
-1.0099999999999980e+01 +8.1621120137032879e+00 +0.0000000000000000e+00 -1.0099999449474476e+01 +5.7187882091831374e-04 +0.0000000000000000e+00 +9.9999983647729351e-01
-1.0199999999999980e+01 +8.1620545427112923e+00 +0.0000000000000000e+00 -1.0199999432959766e+01 +5.7754101910899140e-04 +0.0000000000000000e+00 +9.9999983322317154e-01
-1.0299999999999979e+01 +8.1619965054994381e+00 +0.0000000000000000e+00 -1.0299999416118041e+01 +5.8320321811543860e-04 +0.0000000000000000e+00 +9.9999982993698855e-01
-1.0399999999999979e+01 +8.1619379020676401e+00 +0.0000000000000000e+00 -1.0399999398946095e+01 +5.8886541801123494e-04 +0.0000000000000000e+00 +9.9999982661874454e-01
-1.0499999999999979e+01 +8.1618787324158042e+00 +0.0000000000000000e+00 -1.0499999381440722e+01 +5.9452761887011745e-04 +0.0000000000000000e+00 +9.9999982326843939e-01
-1.0599999999999978e+01 +8.1618189965438308e+00 +0.0000000000000000e+00 -1.0599999363598714e+01 +6.0018982076598035e-04 +0.0000000000000000e+00 +9.9999981988607312e-01
-1.0699999999999978e+01 +8.1617586944516134e+00 +0.0000000000000000e+00 -1.0699999345416867e+01 +6.0585202377287531e-04 +0.0000000000000000e+00 +9.9999981647164560e-01
-1.0799999999999978e+01 +8.1616978261390365e+00 +0.0000000000000000e+00 -1.0799999326891975e+01 +6.1151422796501109e-04 +0.0000000000000000e+00 +9.9999981302515684e-01
-1.0899999999999977e+01 +8.1616363916059775e+00 +0.0000000000000000e+00 -1.0899999308020830e+01 +6.1717643341675419e-04 +0.0000000000000000e+00 +9.9999980954660672e-01
-1.0999999999999977e+01 +8.1615743908523086e+00 +0.0000000000000000e+00 -1.0999999288800227e+01 +6.2283864020262834e-04 +0.0000000000000000e+00 +9.9999980603599514e-01
-1.1099999999999977e+01 +8.1615118238778912e+00 +0.0000000000000000e+00 -1.1099999269226959e+01 +6.2850084839731490e-04 +0.0000000000000000e+00 +9.9999980249332210e-01
-1.1199999999999976e+01 +8.1614486906825796e+00 +0.0000000000000000e+00 -1.1199999249297822e+01 +6.3416305807565266e-04 +0.0000000000000000e+00 +9.9999979891858748e-01
-1.1299999999999976e+01 +8.1613849912662229e+00 +0.0000000000000000e+00 -1.1299999229009607e+01 +6.3982526931263806e-04 +0.0000000000000000e+00 +9.9999979531179128e-01
-1.1399999999999975e+01 +8.1613207256286628e+00 +0.0000000000000000e+00 -1.1399999208359111e+01 +6.4548748218342517e-04 +0.0000000000000000e+00 +9.9999979167293329e-01
-1.1499999999999975e+01 +8.1612558937697308e+00 +0.0000000000000000e+00 -1.1499999187343125e+01 +6.5114969676332559e-04 +0.0000000000000000e+00 +9.9999978800201350e-01
-1.1599999999999975e+01 +8.1611904956892509e+00 +0.0000000000000000e+00 -1.1599999165958444e+01 +6.5681191312780892e-04 +0.0000000000000000e+00 +9.9999978429903191e-01
-1.1699999999999974e+01 +8.1611245313870420e+00 +0.0000000000000000e+00 -1.1699999144201861e+01 +6.6247413135250225e-04 +0.0000000000000000e+00 +9.9999978056398831e-01
