# multipoles
# s[mm] polynom_b[n=0][T/m^n] polynom_b[n=1][T/m^n] polynom_b[n=2][T/m^n] polynom_b[n=3][T/m^n] polynom_b[n=4][T/m^n] polynom_b[n=5][T/m^n] polynom_b[n=6][T/m^n] 
+0.0000000000000000e+00 -5.3690865340534355e-01 +7.3556333435533032e+00 -6.1727961509954643e-01 +5.9141980773284139e+01 +3.4654958304620363e+03 -4.6234082369110512e+05 -1.7419828913600903e+07 
+1.0000000000000001e-01 -5.3690857589038776e-01 +7.3556448314526843e+00 -6.1924160582438748e-01 +5.8612292032621674e+01 +3.5285065844640412e+03 -4.5879749087395985e+05 -1.7734724137613371e+07 
+2.0000000000000001e-01 -5.3690848896140286e-01 +7.3556598683322099e+00 -6.2164140289739889e-01 +5.8025303806813390e+01 +3.5972095062102703e+03 -4.5495688129973010e+05 -1.8075829019494858e+07 
+3.0000000000000004e-01 -5.3690839363049880e-01 +7.3556781825295596e+00 -6.2444688664466574e-01 +5.7387550002712196e+01 +3.6710951456056368e+03 -4.5085809033226821e+05 -1.8440606882888231e+07 
+4.0000000000000002e-01 -5.3690829090982661e-01 +7.3556995023798901e+00 -6.2762593330487959e-01 +5.6705564637948839e+01 +3.7496539788989030e+03 -4.4654021403689537e+05 -1.8826520711118378e+07 
+5.0000000000000000e-01 -5.3690818181152422e-01 +7.3557235562212924e+00 -6.3114642130723697e-01 +5.5985881653879041e+01 +3.8323765275137598e+03 -4.4204234802659607e+05 -1.9231033712767873e+07 
+5.9999999999999998e-01 -5.3690806734773733e-01 +7.3557500723936089e+00 -6.3497622861512870e-01 +5.5235034974368602e+01 +3.9187533036267855e+03 -4.3740358788077178e+05 -1.9651609048532445e+07 
+6.9999999999999996e-01 -5.3690794853062795e-01 +7.3557787792359797e+00 -6.3908323199374029e-01 +5.4459558554844236e+01 +4.0082748031658743e+03 -4.3266302936507756e+05 -2.0085709818781815e+07 
+7.9999999999999993e-01 -5.3690782637234713e-01 +7.3558094050898912e+00 -6.4343530975251984e-01 +5.3665986301928037e+01 +4.1004315481563517e+03 -4.2785976800510904e+05 -2.0530799233208146e+07 
+8.9999999999999991e-01 -5.3690770188506598e-01 +7.3558416782990799e+00 -6.4800033847313532e-01 +5.2860852070935131e+01 +4.1947140325246046e+03 -4.2303289905479510e+05 -2.0984340377262983e+07 
+9.9999999999999989e-01 -5.3690757608094053e-01 +7.3558753271991479e+00 -6.5274619737180850e-01 +5.2050689961970264e+01 +4.2906128032536462e+03 -4.1822151920713554e+05 -2.1443796590347830e+07 
+1.0999999999999999e+00 -5.3690744997211381e-01 +7.3559100801397719e+00 -6.5764076689367990e-01 +5.1242033676270012e+01 +4.3876184261746894e+03 -4.1346472287626547e+05 -2.1906631283033252e+07 
+1.2000000000000000e+00 -5.3690732457074930e-01 +7.3559456654626860e+00 -6.6265192612422885e-01 +5.0441417154665785e+01 +4.4852214476155541e+03 -4.0880160589604557e+05 -2.2370307781595819e+07 
+1.3000000000000000e+00 -5.3690720088895649e-01 +7.3559818115101647e+00 -6.6774756046072448e-01 +4.9655374320124821e+01 +4.5829125291432119e+03 -4.0427126400992431e+05 -2.2832289939199887e+07 
+1.4000000000000001e+00 -5.3690707993888864e-01 +7.3560182466306854e+00 -6.7289555117833111e-01 +4.8890438925574216e+01 +4.6801822609400033e+03 -3.9991279202309274e+05 -2.3290041277468137e+07 
+1.5000000000000002e+00 -5.3690696273264338e-01 +7.3560546991631091e+00 -6.7806378577802751e-01 +4.8153144990759607e+01 +4.7765213454376144e+03 -3.9576528628120071e+05 -2.3741025825326215e+07 
+1.6000000000000003e+00 -5.3690685028232987e-01 +7.3560908974576114e+00 -6.8322015100458011e-01 +4.7450026213923181e+01 +4.8714204729134672e+03 -3.9186784131898801e+05 -2.4182707546958808e+07 
+1.7000000000000004e+00 -5.3690674360002866e-01 +7.3561265698587741e+00 -6.8833253757627533e-01 +4.6787616444645877e+01 +4.9643704094345667e+03 -3.8825955256216024e+05 -2.4612550753713470e+07 
+1.8000000000000005e+00 -5.3690664369779217e-01 +7.3561614447097705e+00 -6.9336883926552995e-01 +4.6172449562935753e+01 +5.0548619766858083e+03 -3.8497951562956662e+05 -2.5028020002645217e+07 
+1.9000000000000006e+00 -5.3690655158767342e-01 +7.3561952503602503e+00 -6.9829695039925921e-01 +4.5611059255707545e+01 +5.1423860071389472e+03 -3.8206682505923597e+05 -2.5426579885903679e+07 
+2.0000000000000004e+00 -5.3690646828166988e-01 +7.3562277151547733e+00 -7.0308477218332699e-01 +4.5109979336828786e+01 +5.2264334620405234e+03 -3.7956057612580236e+05 -2.5805695586418759e+07 
+2.1000000000000005e+00 -5.3690639457279754e-01 +7.3562586075695933e+00 -7.0770492526880802e-01 +4.4674326806693742e+01 +5.3065768324932578e+03 -3.7749055239223747e+05 -2.6163264583849419e+07 
+2.2000000000000006e+00 -5.3690633038323199e-01 +7.3562878552149789e+00 -7.1214872579914201e-01 +4.4303519360459873e+01 +5.3827193220191521e+03 -3.7584897977437236e+05 -2.6498967768616334e+07 
+2.3000000000000007e+00 -5.3690627541880431e-01 +7.3563154251575495e+00 -7.1641210595227922e-01 +4.3995540819989060e+01 +5.4548477810741515e+03 -3.7461860923308058e+05 -2.6812944716991164e+07 
+2.4000000000000008e+00 -5.3690622938533783e-01 +7.3563412844583462e+00 -7.2049099783405512e-01 +4.3748375174179479e+01 +5.5229490531699512e+03 -3.7378219272553740e+05 -2.7105334957013428e+07 
+2.5000000000000009e+00 -5.3690619198862677e-01 +7.3563654001793406e+00 -7.2438133673369576e-01 +4.3560006374612676e+01 +5.5870100398768682e+03 -3.7332248197395977e+05 -2.7376278286194146e+07 
+2.6000000000000010e+00 -5.3690616293448401e-01 +7.3563877393812698e+00 -7.2807905517548843e-01 +4.3428418420404398e+01 +5.6470175880755896e+03 -3.7322222903143568e+05 -2.7625914237327453e+07 
+2.7000000000000011e+00 -5.3690614192868347e-01 +7.3564082691235440e+00 -7.3158008940962027e-01 +4.3351595343668201e+01 +5.7029586092815107e+03 -3.7346418613384466e+05 -2.7854382636029057e+07 
+2.8000000000000012e+00 -5.3690612867702747e-01 +7.3564269564664118e+00 -7.3488037157127239e-01 +4.3327521155539351e+01 +5.7548199346915735e+03 -3.7403110542099568e+05 -2.8061822923147764e+07 
+2.9000000000000012e+00 -5.3690612288529216e-01 +7.3564437684646009e+00 -7.3797583586044424e-01 +4.3354180024515131e+01 +5.8025884289398573e+03 -3.7490573994909646e+05 -2.8248374686928220e+07 
+3.0000000000000013e+00 -5.3690612425922701e-01 +7.3564586721734750e+00 -7.4086241923699137e-01 +4.3429556104015980e+01 +5.8462510078614832e+03 -3.7607084270562651e+05 -2.8414177761316195e+07 
+3.1000000000000014e+00 -5.3690613250461727e-01 +7.3564716346468657e+00 -7.4353605239526399e-01 +4.3551633595830907e+01 +5.8857944571224689e+03 -3.7750916698221880e+05 -2.8559371336037453e+07 
+3.2000000000000015e+00 -5.3690614732721675e-01 +7.3564826229360518e+00 -7.4599266943783094e-01 +4.3718396763905524e+01 +5.9212056272836617e+03 -3.7920346640908171e+05 -2.8684094916924961e+07 
+3.3000000000000016e+00 -5.3690616843277650e-01 +7.3564916040891548e+00 -7.4822820337630769e-01 +4.3927829979368738e+01 +5.9524713417773855e+03 -3.8113649528707156e+05 -2.8788487871547628e+07 
+3.4000000000000017e+00 -5.3690619552704322e-01 +7.3564985451556817e+00 -7.5023858621264106e-01 +4.4177917561201902e+01 +5.9795783970658349e+03 -3.8329100759313349e+05 -2.8872689426729660e+07 
+3.5000000000000018e+00 -5.3690622831576607e-01 +7.3565034131781859e+00 -7.5201974829153129e-01 +4.4466644038278730e+01 +6.0025135523941653e+03 -3.8564975855214254e+05 -2.8936838625978976e+07 
+3.6000000000000019e+00 -5.3690626650467255e-01 +7.3565061752018117e+00 -7.5356762122047427e-01 +4.4791993860327260e+01 +6.0212635855415410e+03 -3.8819550292715954e+05 -2.8981074597474836e+07 
+3.7000000000000020e+00 -5.3690630979949294e-01 +7.3565067982645198e+00 -7.5487813469502929e-01 +4.5151951686305836e+01 +6.0358152310827181e+03 -3.9091099669867271e+05 -2.9005536256443538e+07 
+3.8000000000000020e+00 -5.3690635790595376e-01 +7.3565052494037282e+00 -7.5594721710878210e-01 +4.5544502191698093e+01 +6.0461551910775052e+03 -3.9377899595858908e+05 -2.9010362354677644e+07 
+3.9000000000000021e+00 -5.3690641052980248e-01 +7.3565014956530277e+00 -7.5677079238356249e-01 +4.5967630158535556e+01 +6.0522700751827470e+03 -3.9678225740310410e+05 -2.8995691198324434e+07 
+4.0000000000000018e+00 -5.3690646737672942e-01 +7.3564955040472810e+00 -7.5734478973680830e-01 +4.6419320342655631e+01 +6.0541465850275063e+03 -3.9990353761604783e+05 -2.8961661521420717e+07 
+4.1000000000000014e+00 -5.3690652817248929e-01 +7.3564872876561358e+00 -7.5766603286136702e-01 +4.6896906460283773e+01 +6.0517822963731378e+03 -4.0312287766581331e+05 -2.8908477637516618e+07 
+4.2000000000000011e+00 -5.3690659272371655e-01 +7.3564770448094770e+00 -7.5773609223236627e-01 +4.7395112916370834e+01 +6.0452342396577278e+03 -4.0640932012516522e+05 -2.8836671693284359e+07 
+4.3000000000000007e+00 -5.3690666085743344e-01 +7.3564650204507940e+00 -7.5755801746734774e-01 +4.7908011053446060e+01 +6.0345782777410586e+03 -4.0972912626536383e+05 -2.8746874297910366e+07 
+4.4000000000000004e+00 -5.3690673240071296e-01 +7.3564514595192172e+00 -7.5713485196567654e-01 +4.8429672329561981e+01 +6.0198901600005474e+03 -4.1304855787288555e+05 -2.8639715550725266e+07 
+4.5000000000000000e+00 -5.3690680718063832e-01 +7.3564366069521387e+00 -7.5646963800994838e-01 +4.8954168263565329e+01 +6.0012456192358577e+03 -4.1633387700148043e+05 -2.8515825502932135e+07 
+4.5999999999999996e+00 -5.3690688502433537e-01 +7.3564207076888879e+00 -7.5556541260668897e-01 +4.9475570322051198e+01 +5.9787202922164588e+03 -4.1955134528448194e+05 -2.8375833778329801e+07 
+4.6999999999999993e+00 -5.3690696575895325e-01 +7.3564040066622995e+00 -7.5442521005623453e-01 +4.9987950162296933e+01 +5.9523897688171855e+03 -4.2266722534301714e+05 -2.8220369808322046e+07 
+4.7999999999999989e+00 -5.3690704921168519e-01 +7.3563867488027084e+00 -7.5305205920101426e-01 +5.0485379515396367e+01 +5.9223295402447357e+03 -4.2564778008466685e+05 -2.8050062589625541e+07 
+4.8999999999999986e+00 -5.3690713520974553e-01 +7.3563691790445578e+00 -7.5144898704683361e-01 +5.0961930004200319e+01 +5.8886150714677260e+03 -4.2845927167848853e+05 -2.7865541037058644e+07 
+4.9999999999999982e+00 -5.3690722358040710e-01 +7.3563515423125336e+00 -7.4961901327147662e-01 +5.1411673533053531e+01 +5.8513216927133217e+03 -4.3106796376998629e+05 -2.7667433459070798e+07 
+5.0999999999999979e+00 -5.3690731415094750e-01 +7.3563340835351472e+00 -7.4756515735020534e-01 +5.1828681901518657e+01 +5.8105247380798619e+03 -4.3344011925271613e+05 -2.7456368226941966e+07 
+5.1999999999999975e+00 -5.3690740674875370e-01 +7.3563170476376998e+00 -7.4529042549328028e-01 +5.2207027010151222e+01 +5.7662992944522921e+03 -4.3554200146633078e+05 -2.7232972569983393e+07 
+5.2999999999999972e+00 -5.3690750120116848e-01 +7.3563006795405004e+00 -7.4279783006798217e-01 +5.2540780898294123e+01 +5.7187205781308803e+03 -4.3733987436134077e+05 -2.6997874393834993e+07 
+5.3999999999999968e+00 -5.3690759733565296e-01 +7.3562852241622005e+00 -7.4009036903094239e-01 +5.2824015671263695e+01 +5.6678635346194569e+03 -4.3880000214511901e+05 -2.6751700346315473e+07 
+5.4999999999999964e+00 -5.3690769497967972e-01 +7.3562709264231971e+00 -7.3717103943083362e-01 +5.3050803380785567e+01 +5.6138031036138118e+03 -4.3988864851386315e+05 -2.6495077106808204e+07 
+5.5999999999999961e+00 -5.3690779396078814e-01 +7.3562580312359183e+00 -7.3404283042292684e-01 +5.3215216317365964e+01 +5.5566140812992653e+03 -4.4057207838362938e+05 -2.6228630715191644e+07 
+5.6999999999999957e+00 -5.3690789410652440e-01 +7.3562467835144325e+00 -7.3070873139223769e-01 +5.3311326731414773e+01 +5.4963712817206961e+03 -4.4081655625285237e+05 -2.5952987361034017e+07 
+5.7999999999999954e+00 -5.3690799524458022e-01 +7.3562374281683001e+00 -7.2717171369762168e-01 +5.3333207001484084e+01 +5.4331491809945937e+03 -4.4058834714979655e+05 -2.5668771666545015e+07 
+5.8999999999999950e+00 -5.3690809720259480e-01 +7.3562302101050507e+00 -7.2343475620742426e-01 +5.3274929580533112e+01 +5.3670224114525972e+03 -4.3985371636628039e+05 -2.5376609064182937e+07 
+5.9999999999999947e+00 -5.3690819980834614e-01 +7.3562253742318546e+00 -7.1950082109873414e-01 +5.3130566934569337e+01 +5.2980652967416590e+03 -4.3857892906567740e+05 -2.5077123571472030e+07 
+6.0999999999999943e+00 -5.3690830296535774e-01 +7.3562231093312587e+00 -7.1537402843705922e-01 +5.2896031195783827e+01 +5.2263615064786309e+03 -4.3674193402680388e+05 -2.4770900592230439e+07 
+6.1999999999999940e+00 -5.3690840686094710e-01 +7.3562233819858056e+00 -7.1106357111805896e-01 +5.2574684980546756e+01 +5.1520116237660359e+03 -4.3436832337029901e+05 -2.4458162130733762e+07 
+6.2999999999999936e+00 -5.3690851174854803e-01 +7.3562261036196226e+00 -7.0658003335047692e-01 +5.2171786063550208e+01 +5.0751152455656120e+03 -4.3149590175169928e+05 -2.4138985404928230e+07 
+6.3999999999999932e+00 -5.3690861788153765e-01 +7.3562311856509632e+00 -7.0193400789668137e-01 +5.1692592417330097e+01 +4.9957721361499252e+03 -4.2816247515177721e+05 -2.3813448407860648e+07 
+6.4999999999999929e+00 -5.3690872551329671e-01 +7.3562385395043082e+00 -6.9713608968428797e-01 +5.1142361862303879e+01 +4.9140821145351401e+03 -4.2440584883887996e+05 -2.3481629396336209e+07 
+6.5999999999999925e+00 -5.3690883489717600e-01 +7.3562480766101226e+00 -6.9219687818854536e-01 +5.0526352073336241e+01 +4.8301450860188552e+03 -4.2026382741036720e+05 -2.3143607002425335e+07 
+6.6999999999999922e+00 -5.3690894628650720e-01 +7.3562597083954273e+00 -6.8712697811285117e-01 +4.9849820844135728e+01 +4.7440610712617290e+03 -4.1577421630565805e+05 -2.2799460414825663e+07 
+6.7999999999999918e+00 -5.3690905993460503e-01 +7.3562733462931620e+00 -6.8193699810949193e-01 +4.9118025830632973e+01 +4.6559301726870954e+03 -4.1097482036473718e+05 -2.2449269191012058e+07 
+6.8999999999999915e+00 -5.3690917609473754e-01 +7.3562889017389947e+00 -6.7663755444865836e-01 +4.8336224631746830e+01 +4.5658526447695567e+03 -4.0590344427543791e+05 -2.2093113592806876e+07 
+6.9999999999999911e+00 -5.3690929502016005e-01 +7.3563062861749282e+00 -6.7123926762411690e-01 +4.7509674700957007e+01 +4.4739288338640408e+03 -4.0059789210190822e+05 -2.1731074307929270e+07 
+7.0999999999999908e+00 -5.3690941696410410e-01 +7.3563254110423939e+00 -6.6575276330004685e-01 +4.6643633523758702e+01 +4.3802591947232659e+03 -3.9509596826733870e+05 -2.1363232525992587e+07 
+7.1999999999999904e+00 -5.3690954217974751e-01 +7.3563461877884251e+00 -6.6018867602985443e-01 +4.5743358464047859e+01 +4.2849443603009704e+03 -3.8943547672598844e+05 -2.0989670265030824e+07 
+7.2999999999999901e+00 -5.3690967092025588e-01 +7.3563685278627631e+00 -6.5455764465633781e-01 +4.4814106835934155e+01 +4.1880850547793116e+03 -3.8365422136831231e+05 -2.0610469955398351e+07 
+7.3999999999999897e+00 -5.3690980343875661e-01 +7.3563923427211435e+00 -6.4887031473349899e-01 +4.3861135806796504e+01 +4.0897821402405307e+03 -3.7779000544317666e+05 -2.0225714666323040e+07 
+7.4999999999999893e+00 -5.3690993998834202e-01 +7.3564175438201733e+00 -6.4313733946531049e-01 +4.2889702555707956e+01 +3.9901366370320343e+03 -3.7188063252573245e+05 -1.9835488203685604e+07 
+7.5999999999999890e+00 -5.3691008082207581e-01 +7.3564440426237825e+00 -6.3736937789969217e-01 +4.1905064086189959e+01 +3.8892496860425563e+03 -3.6596390542388265e+05 -1.9439874922533721e+07 
+7.6999999999999886e+00 -5.3691022619297224e-01 +7.3564717505980166e+00 -6.3157709792693062e-01 +4.0912477363071076e+01 +3.7872226065467398e+03 -3.6007762694481714e+05 -1.9038960001279324e+07 
+7.7999999999999883e+00 -5.3691037635402006e-01 +7.3565005792169860e+00 -6.2577117360726131e-01 +3.9917199166910152e+01 +3.6841568478448876e+03 -3.5425959913171269e+05 -1.8632829217533577e+07 
+7.8999999999999879e+00 -5.3691053155816071e-01 +7.3565304399546152e+00 -6.1996228786323260e-01 +3.8924486306432172e+01 +3.5801540401154903e+03 -3.4854762442539982e+05 -1.8221569187157039e+07 
+7.9999999999999876e+00 -5.3691069205829689e-01 +7.3565612442952988e+00 -6.1416113125157035e-01 +3.7939595322279800e+01 +3.4753159682034698e+03 -3.4297950389602594e+05 -1.7805267220689006e+07 
+8.0999999999999872e+00 -5.3691085804834804e-01 +7.3565928729735086e+00 -6.0838078747175661e-01 +3.6967852911050755e+01 +3.3698177191733339e+03 -3.3759085020851804e+05 -1.7384378392970271e+07 
+8.1999999999999869e+00 -5.3691102949864533e-01 +7.3566250858001201e+00 -6.0264049567426015e-01 +3.6014656631342461e+01 +3.2640895115429148e+03 -3.3240754240968981e+05 -1.6960777647548456e+07 
+8.2999999999999865e+00 -5.3691120632662936e-01 +7.3566576128760088e+00 -5.9696019778600107e-01 +3.5085360314734352e+01 +3.1586167982805518e+03 -3.2745269444859133e+05 -1.6536686921056561e+07 
+8.3999999999999861e+00 -5.3691138844965824e-01 +7.3566901843057266e+00 -5.9135984360998561e-01 +3.4185317557885433e+01 +3.0538851594832086e+03 -3.2274941872665891e+05 -1.6114328692548282e+07 
+8.4999999999999858e+00 -5.3691157578504156e-01 +7.3567225301973966e+00 -5.8585938702848994e-01 +3.3319881758913780e+01 +2.9503802294994057e+03 -3.1832082637465728e+05 -1.5695925635116553e+07 
+8.5999999999999854e+00 -5.3691176825001952e-01 +7.3567543806667413e+00 -5.8047878779279649e-01 +3.2494405992182720e+01 +2.8485877249927744e+03 -3.1419002651603514e+05 -1.5283700732332297e+07 
+8.6999999999999851e+00 -5.3691196576176303e-01 +7.3567854658307148e+00 -5.7523801157059340e-01 +3.1714243175108567e+01 +2.7489934454170943e+03 -3.1038012718503422e+05 -1.4879877280264100e+07 
+8.7999999999999847e+00 -5.3691216823739230e-01 +7.3568155158124409e+00 -5.7015702799401224e-01 +3.0984745954123628e+01 +2.6520832398898287e+03 -3.0691423475269368e+05 -1.4486678740833569e+07 
+8.8999999999999844e+00 -5.3691237559394900e-01 +7.3568442607416555e+00 -5.6525581366875366e-01 +3.0311266658160271e+01 +2.5583430597401325e+03 -3.0381545355819503e+05 -1.4106328979849910e+07 
+8.9999999999999840e+00 -5.3691258774840045e-01 +7.3568714307491598e+00 -5.6055435169209289e-01 +2.9699157469824684e+01 +2.4682589487741811e+03 -3.0110688695199217e+05 -1.3741052217725068e+07 
+9.0999999999999837e+00 -5.3691280461766266e-01 +7.3568967559777265e+00 -5.5607262843204575e-01 +2.9153770113965898e+01 +2.3823169809094566e+03 -2.9881163549041608e+05 -1.3393072731765300e+07 
+9.1999999999999833e+00 -5.3691302611855185e-01 +7.3569199665692420e+00 -5.5183063971915292e-01 +2.8680456206859688e+01 +2.3010033769993647e+03 -2.9695279891193524e+05 -1.3064615408826053e+07 
+9.2999999999999829e+00 -5.3691325216783370e-01 +7.3569407926719457e+00 -5.4784838503784483e-01 +2.8284567053037730e+01 +2.2248043988851150e+03 -2.9555347497186600e+05 -1.2757905253674747e+07 
+9.3999999999999826e+00 -5.3691348268218442e-01 +7.3569589644431472e+00 -5.4414587145199977e-01 +2.7971453570683611e+01 +2.1542064137363500e+03 -2.9463675903195905e+05 -1.2475167667275472e+07 
+9.4999999999999822e+00 -5.3691371757820483e-01 +7.3569742120410710e+00 -5.4074311192182256e-01 +2.7746466516871962e+01 +2.0896958657441428e+03 -2.9422574533737969e+05 -1.2218628323007656e+07 
+9.5999999999999819e+00 -5.3691395677241294e-01 +7.3569862656331457e+00 -5.3766012686728082e-01 +2.7614956242291939e+01 +2.0317593083062154e+03 -2.9434352558527538e+05 -1.1990513325750729e+07 
+9.6999999999999815e+00 -5.3691420018124725e-01 +7.3569948553933546e+00 -5.3491694289060443e-01 +2.7582272773522014e+01 +1.9808833735572452e+03 -2.9501318942200136e+05 -1.1793049051198555e+07 
+9.7999999999999812e+00 -5.3691444772107222e-01 +7.3569997114981973e+00 -5.3253359240479714e-01 +2.7653765912268206e+01 +1.9375547666856501e+03 -2.9625782497126353e+05 -1.1628462121237721e+07 
+9.8999999999999808e+00 -5.3691469930815228e-01 +7.3570005641330489e+00 -5.3053011652873405e-01 +2.7834785069041438e+01 +1.9022603211079054e+03 -2.9810051792477991e+05 -1.1498979670156077e+07 
+9.9999999999999805e+00 -5.3691495485867047e-01 +7.3569971434917747e+00 -5.2892656247568703e-01 +2.8130679221443945e+01 +1.8754869379463153e+03 -3.0056435134631756e+05 -1.1406829036521219e+07 
+1.0099999999999980e+01 -5.3691521423537747e-01 +7.3569892964432295e+00 -5.2773720512846556e-01 +2.8543748481007935e+01 +1.8575169148899963e+03 -3.0365624533190124e+05 -1.1353131188935194e+07 
