# multipoles
# s[mm] polynom_b[n=0][T/m^n] polynom_b[n=1][T/m^n] polynom_b[n=2][T/m^n] polynom_b[n=3][T/m^n] polynom_b[n=4][T/m^n] polynom_b[n=5][T/m^n] polynom_b[n=6][T/m^n] 
-0.0000000000000000e+00 -5.3671246322698518e-01 +7.3568829943976208e+00 -4.9915912699045423e-01 -4.1291754198614861e+01 +6.6502560171401356e+03 -5.9574355438020821e+03 -4.0203325317691311e+07 
-1.0000000000000001e-01 -5.3671230225383892e-01 +7.3568913391698301e+00 -4.9509762123286888e-01 -4.1575560549171307e+01 +6.5867018278156747e+03 -4.4511443853791034e+03 -3.9921200119197868e+07 
-2.0000000000000001e-01 -5.3671215283650564e-01 +7.3568972685671534e+00 -4.9052774335809252e-01 -4.1805357244557932e+01 +6.5127193548487021e+03 -3.2158846746030808e+03 -3.9582661318296589e+07 
-2.9999999999999999e-01 -5.3671201408397573e-01 +7.3569006803740917e+00 -4.8550504661114269e-01 -4.1978122073946508e+01 +6.4293617049534141e+03 -2.2689963293142332e+03 -3.9193111596645959e+07 
-4.0000000000000002e-01 -5.3671188510524914e-01 +7.3569014723767756e+00 -4.8008508460688681e-01 -4.2090832869967215e+01 +6.3376819873989143e+03 -1.6278191042344738e+03 -3.8757953633373328e+07 
-5.0000000000000000e-01 -5.3671176500922135e-01 +7.3568995423638288e+00 -4.7432341349978441e-01 -4.2140467534144776e+01 +6.2387333570111950e+03 -1.3096924312932463e+03 -3.8282590316132888e+07 
-5.9999999999999998e-01 -5.3671165290484357e-01 +7.3568947881189670e+00 -4.6827558903796185e-01 -4.2124003827743515e+01 +6.1335689565255052e+03 -1.3319566000484331e+03 -3.7772424459421456e+07 
-6.9999999999999996e-01 -5.3671154790110154e-01 +7.3568871074315378e+00 -4.6199717179707545e-01 -4.2038419669523037e+01 +6.0232420135062703e+03 -1.7119510511804369e+03 -3.7232859260063760e+07 
-8.0000000000000004e-01 -5.3671144910684665e-01 +7.3568763980866150e+00 -4.5554371937694166e-01 -4.1880692853011183e+01 +5.9088056987166819e+03 -2.4670159753656526e+03 -3.6669297641191937e+07 
-9.0000000000000002e-01 -5.3671135563099026e-01 +7.3568625578750559e+00 -4.4897079419607239e-01 -4.1647801325654520e+01 +5.7913132665146168e+03 -3.6144907318724313e+03 -3.6087142898624592e+07 
-1.0000000000000000e+00 -5.3671126658243862e-01 +7.3568454845867226e+00 -4.4233395971062067e-01 -4.1336723023191887e+01 +5.6718179893380138e+03 -5.1717147007054391e+03 -3.5491798404976770e+07 
-1.1000000000000001e+00 -5.3671118106999938e-01 +7.3568250760089251e+00 -4.3568878067142280e-01 -4.0944435784586723e+01 +5.5513731578214283e+03 -7.1560278804728532e+03 -3.4888667599453107e+07 
-1.2000000000000000e+00 -5.3671109820255958e-01 +7.3568012299352912e+00 -4.2909082554291955e-01 -4.0467917637294796e+01 +5.4310321310402687e+03 -9.5847691358443972e+03 -3.4283154235686533e+07 
-1.3000000000000000e+00 -5.3671101708890046e-01 +7.3567738441595321e+00 -4.2259566148026395e-01 -3.9904146601739612e+01 +5.3118482341698782e+03 -1.2475277368343319e+04 -3.3680661878187276e+07 
-1.3999999999999999e+00 -5.3671093683783411e-01 +7.3567428164746120e+00 -4.1625886218987684e-01 -3.9250100677322180e+01 +5.1948749155891428e+03 -1.5844891553055133e+04 -3.3086594667767636e+07 
-1.5000000000000000e+00 -5.3671085655816575e-01 +7.3567080446782045e+00 -4.1013600141060141e-01 -3.8502757991824410e+01 +5.0811656164683245e+03 -1.9710949882714289e+04 -3.2506356685078420e+07 
-1.6000000000000001e+00 -5.3671077535862000e-01 +7.3566694265652082e+00 -4.0428265602850727e-01 -3.7659096591849725e+01 +4.9717738346914248e+03 -2.4090790952698713e+04 -3.1945352267546020e+07 
-1.7000000000000000e+00 -5.3671069234791458e-01 +7.3566268599362798e+00 -3.9875440369791548e-01 -3.6716094681232818e+01 +4.8677530774676079e+03 -2.9001752390872043e+04 -3.1408985775378235e+07 
-1.8000000000000000e+00 -5.3671060663479497e-01 +7.3565802425928091e+00 -3.9360682760272675e-01 -3.5670730482038493e+01 +4.7701569477908770e+03 -3.4461171628645396e+04 -3.0902661994109750e+07 
-1.8999999999999999e+00 -5.3671051732789909e-01 +7.3565294723378667e+00 -3.8889551141400464e-01 -3.4519982259131254e+01 +4.6800390586062858e+03 -4.0486385757685857e+04 -3.0431785752399012e+07 
-2.0000000000000000e+00 -5.3671042353592846e-01 +7.3564744469772938e+00 -3.8467604313804404e-01 -3.3260828359389571e+01 +4.5984530926077241e+03 -4.7094731270198856e+04 -3.0001762168491229e+07 
-2.1000000000000001e+00 -5.3671032457367762e-01 +7.3564151641714215e+00 -3.8099524286695136e-01 -3.1892980095059123e+01 +4.5262912570125218e+03 -5.4288481665914063e+04 -2.9617138772614893e+07 
-2.2000000000000002e+00 -5.3671022054948503e-01 +7.3563520020834465e+00 -3.7786673603374749e-01 -3.0426505828890917e+01 +4.4638439654371296e+03 -6.2013031332352628e+04 -2.9279281529043052e+07 
-2.2999999999999998e+00 -5.3671011176247108e-01 +7.3562854295113658e+00 -3.7529630248803247e-01 -2.8873927552335033e+01 +4.4112616635988461e+03 -7.0200348366608159e+04 -2.8988819735933665e+07 
-2.3999999999999999e+00 -5.3670999851185364e-01 +7.3562159152574935e+00 -3.7328972028339846e-01 -2.7247767385242273e+01 +4.3686947685980731e+03 -7.8782400086481241e+04 -2.8746382575911421e+07 
-2.5000000000000000e+00 -5.3670988109681073e-01 +7.3561439281239087e+00 -3.7185276216289559e-01 -2.5560547476398682e+01 +4.3362935995211774e+03 -8.7691153525041882e+04 -2.8552598781132892e+07 
-2.6000000000000001e+00 -5.3670975981654756e-01 +7.3560699369195950e+00 -3.7099120148659426e-01 -2.3824790167231644e+01 +4.3142084955496584e+03 -9.6858574600204331e+04 -2.8408097210322712e+07 
-2.7000000000000002e+00 -5.3670963497028501e-01 +7.3559944104545343e+00 -3.7071080979897086e-01 -2.2053017851628592e+01 +4.3025897675436836e+03 -1.0621662883998295e+05 -2.8313506613667183e+07 
-2.7999999999999998e+00 -5.3670950685733687e-01 +7.3559178175371098e+00 -3.7101734764971950e-01 -2.0257752900186198e+01 +4.3015875267587808e+03 -1.1569728183217687e+05 -2.8269454827127859e+07 
-2.8999999999999999e+00 -5.3670937577698619e-01 +7.3558406269831478e+00 -3.7191657981705661e-01 -1.8451517915494179e+01 +4.3113519744224077e+03 -1.2523249776186362e+05 -2.8276570153464586e+07 
-3.0000000000000000e+00 -5.3670924202860526e-01 +7.3557633076096582e+00 -3.7341426024299085e-01 -1.6646835553877494e+01 +4.3320331135808801e+03 -1.3475424043607988e+05 -2.8335479985350035e+07 
-3.1000000000000001e+00 -5.3670910591156440e-01 +7.3556863282348024e+00 -3.7551614408583311e-01 -1.4856228533233983e+01 +4.3637809850004169e+03 -1.4419447322142162e+05 -2.8446811949303381e+07 
-3.2000000000000002e+00 -5.3670896772531507e-01 +7.3556101576822179e+00 -3.7822797643617390e-01 -1.3092219751422572e+01 +4.4067454471450146e+03 -1.5348515837478047e+05 -2.8611192843932446e+07 
-3.2999999999999998e+00 -5.3670882776934126e-01 +7.3555352647756109e+00 -3.8155549977406106e-01 -1.1367332135607366e+01 +4.4610763246588294e+03 -1.6255825790685837e+05 -2.8829249364630397e+07 
-3.3999999999999999e+00 -5.3670868634319169e-01 +7.3554621183433371e+00 -3.8550444853356902e-01 -9.6940887776143967e+00 +4.5269233020602269e+03 -1.7134573278661151e+05 -2.9101607594080187e+07 
-3.5000000000000000e+00 -5.3670854374647947e-01 +7.3553911872143880e+00 -3.9008055030317290e-01 -8.0850128145986186e+00 +4.6044359491825171e+03 -1.7977954364750005e+05 -2.9428893127812844e+07 
-3.6000000000000001e+00 -5.3670840027889244e-01 +7.3553229402256450e+00 -3.9528952731891565e-01 -6.5526276470816347e+00 +4.6937637490542656e+03 -1.8779164950654263e+05 -2.9811731208894059e+07 
-3.7000000000000002e+00 -5.3670825624011398e-01 +7.3552578462132070e+00 -4.0113709348977761e-01 -5.1094566784615827e+00 +4.7950560452041327e+03 -1.9531400929232128e+05 -3.0250746488021653e+07 
-3.7999999999999998e+00 -5.3670811192995072e-01 +7.3551963740163311e+00 -4.0762895789733050e-01 -3.7680234465679883e+00 +4.9084621050144751e+03 -2.0227858104972326e+05 -3.0746563317882452e+07 
-3.8999999999999999e+00 -5.3670796764832596e-01 +7.3551389924792927e+00 -4.1477081661322801e-01 -2.5408516672886652e+00 +5.0341309698749274e+03 -2.0861732170588139e+05 -3.1299805055540096e+07 
-4.0000000000000000e+00 -5.3670782369513881e-01 +7.3550861704479455e+00 -4.2256835983930990e-01 -1.4404651366161907e+00 +5.1722115916497660e+03 -2.1426218765937933e+05 -3.1911094718225654e+07 
-4.0999999999999996e+00 -5.3670768042818562e-01 +7.3550382822618223e+00 -4.3101683405490537e-01 -4.7678867540697373e-01 +5.3226323753431634e+03 -2.1915970789563903e+05 -3.2579972501115222e+07 
-4.2000000000000002e+00 -5.3670753840206975e-01 +7.3549953529694436e+00 -4.4007303513185608e-01 +3.4987827168724589e-01 +5.4844929952350230e+03 -2.2331037146437261e+05 -3.3301865914365780e+07 
-4.2999999999999998e+00 -5.3670739821325197e-01 +7.3549573268560211e+00 -4.4968490196959671e-01 +1.0414673411211210e+00 +5.6566983875866226e+03 -2.2672717580677365e+05 -3.4071226243964352e+07 
-4.4000000000000004e+00 -5.3670726045816397e-01 +7.3549241482177887e+00 -4.5980036393941098e-01 +1.5999098729774266e+00 +5.8381533148663875e+03 -2.2942311683754768e+05 -3.4882503971022800e+07 
-4.5000000000000000e+00 -5.3670712573330981e-01 +7.3548957613409458e+00 -4.7036735553374287e-01 +2.0271375343090772e+00 +6.0277626448328137e+03 -2.3141119259728325e+05 -3.5730150097703196e+07 
-4.5999999999999996e+00 -5.3670699463512861e-01 +7.3548721105161263e+00 -4.8133380631392370e-01 +2.3250819070757882e+00 +6.2244311582315431e+03 -2.3270440089985868e+05 -3.6608615230162941e+07 
-4.7000000000000002e+00 -5.3670686776015009e-01 +7.3548531400336428e+00 -4.9264764835897829e-01 +2.4956746099732676e+00 +6.4270636912992204e+03 -2.3331573999133866e+05 -3.7512350258452356e+07 
-4.7999999999999998e+00 -5.3670674570482346e-01 +7.3548387941804050e+00 -5.0425681124087540e-01 +2.5408474064000437e+00 +6.6345650415908785e+03 -2.3325820924921331e+05 -3.8435805911361724e+07 
-4.9000000000000004e+00 -5.3670662906571065e-01 +7.3548290172444561e+00 -5.1610922398506542e-01 +2.4625320700505631e+00 +6.8458400011919957e+03 -2.3254480839101816e+05 -3.9373432903429560e+07 
-5.0000000000000000e+00 -5.3670651843929218e-01 +7.3548237535118410e+00 -5.2815281335630371e-01 +2.2626604725270956e+00 +7.0597933305570177e+03 -2.3118853798594233e+05 -4.0319681826485187e+07 
-5.0999999999999996e+00 -5.3670641442214695e-01 +7.3548229472672526e+00 -5.4033550733265201e-01 +1.9431645880745678e+00 +7.2753298173477360e+03 -2.2920239955772174e+05 -4.1269003411060117e+07 
-5.2000000000000002e+00 -5.3670631761077392e-01 +7.3548265427930488e+00 -5.5260523489983582e-01 +1.5059764897362566e+00 +7.4913542794520199e+03 -2.2659939547867587e+05 -4.2215848558039278e+07 
-5.2999999999999998e+00 -5.3670622860173911e-01 +7.3548344843740621e+00 -5.6490992017489794e-01 +9.5302824852679180e-01 +7.7067714483694517e+03 -2.2339252849919250e+05 -4.3154667770459831e+07 
-5.4000000000000004e+00 -5.3670614799158411e-01 +7.3548467162886704e+00 -5.7719749092430217e-01 +2.8625217277731269e-01 +7.9204861315861235e+03 -2.1959480309231151e+05 -4.4079911926037438e+07 
-5.5000000000000000e+00 -5.3670607637684220e-01 +7.3548631828137605e+00 -5.8941587348893365e-01 -4.9241933280186184e-01 +8.1314031198646808e+03 -2.1521922464760512e+05 -4.4986031847692072e+07 
-5.5999999999999996e+00 -5.3670601435413157e-01 +7.3548838282277442e+00 -6.0151299417237758e-01 -1.3810538379927488e+00 +8.3384272109629565e+03 -2.1027879911943662e+05 -4.5867478406689495e+07 
-5.7000000000000002e+00 -5.3670596252001201e-01 +7.3549085968067738e+00 -6.1343677699127319e-01 -2.3777187898355692e+00 +8.5404631663230721e+03 -2.0478653356200873e+05 -4.6718702316008173e+07 
-5.7999999999999998e+00 -5.3670592147103791e-01 +7.3549374328193151e+00 -6.2513515083785032e-01 -3.4804813397967820e+00 +8.7364158490724094e+03 -1.9875543718467627e+05 -4.7534154789959840e+07 
-5.9000000000000004e+00 -5.3670589180381256e-01 +7.3549702805383861e+00 -6.3655603889130197e-01 -4.6874087068231134e+00 +8.9251900207862327e+03 -1.9219851922529383e+05 -4.8308286574093059e+07 
-5.9999999999999902e+00 -5.3670587411490311e-01 +7.3550070842171875e+00 -6.4764736968995262e-01 -5.9965672640565240e+00 +9.1056905855891218e+03 -1.8512879445077476e+05 -4.9035549185973614e+07 
-6.0999999999999899e+00 -5.3670586888441085e-01 +7.3550477303807948e+00 -6.5835986036609040e-01 -7.4042637303524224e+00 +9.2769521230995215e+03 -1.7756830375802761e+05 -4.9711311222173080e+07 
-6.1999999999999904e+00 -5.3670587618066790e-01 +7.3550919096118488e+00 -6.6865305314263968e-01 -8.9011150461210118e+00 +9.4384226223193527e+03 -1.6956726565383209e+05 -5.0333935899745040e+07 
-6.2999999999999901e+00 -5.3670589598117147e-01 +7.3551392708602412e+00 -6.7848821218775779e-01 -1.0476591673269922e+01 +9.5896322408834712e+03 -1.6118133362619302e+05 -5.0902399481870763e+07 
-6.3999999999999897e+00 -5.3670592826336727e-01 +7.3551894630631063e+00 -6.8782660694113551e-01 -1.2120163683914985e+01 +9.7301112112867850e+03 -1.5246616317819606e+05 -5.1415678497804351e+07 
-6.4999999999999902e+00 -5.3670597300463763e-01 +7.3552421351371056e+00 -6.9662951541909135e-01 -1.3821300540999948e+01 +9.8593899134246458e+03 -1.4347741307154828e+05 -5.1872750111899309e+07 
-6.5999999999999899e+00 -5.3670603018232055e-01 +7.3552969359824232e+00 -7.0485822037977253e-01 -1.5569471207106632e+01 +9.9769987923296594e+03 -1.3427074470326255e+05 -5.2272591706586219e+07 
-6.6999999999999904e+00 -5.3670609977367401e-01 +7.3553535144848468e+00 -7.1247401455583181e-01 -1.7354144197920132e+01 +1.0082468463430703e+04 -1.2490182179970448e+05 -5.2614181398895197e+07 
-6.7999999999999901e+00 -5.3670618175593288e-01 +7.3554115195074745e+00 -7.1943819625571592e-01 -1.9164787364476325e+01 +1.0175329619733500e+04 -1.1542631159569530e+05 -5.2896497570654802e+07 
-6.8999999999999897e+00 -5.3670627610616450e-01 +7.3554705998957486e+00 -7.2571207446508756e-01 -2.0990868016246491e+01 +1.0255113135766358e+04 -1.0589988418441643e+05 -5.3118519383930475e+07 
-6.9999999999999902e+00 -5.3670638280145699e-01 +7.3555304044755960e+00 -7.3125696515076966e-01 -2.2821852877239873e+01 +1.0321349991289895e+04 -9.6378212711795262e+04 -5.3279226397972137e+07 
-7.0999999999999899e+00 -5.3670650181878821e-01 +7.3555905820526855e+00 -7.3603419446142238e-01 -2.4647208064141211e+01 +1.0373571334933304e+04 -8.6916973502307563e+04 -5.3377598880541354e+07 
-7.1999999999999904e+00 -5.3670663313507561e-01 +7.3556507814083387e+00 -7.4000509516867252e-01 -2.6456398962770908e+01 +1.0411308408621539e+04 -7.7571846770101532e+04 -5.3412617424753755e+07 
-7.2999999999999901e+00 -5.3670677672717382e-01 +7.3557106513098107e+00 -7.4313101154989314e-01 -2.8238890533227448e+01 +1.0434092651134977e+04 -6.8398514815750401e+04 -5.3383263470426321e+07 
-7.3999999999999897e+00 -5.3670693257177327e-01 +7.3557698404918996e+00 -7.4537329700259425e-01 -2.9984146773059191e+01 +1.0441455638208628e+04 -5.9452665133423499e+04 -5.3288518979467377e+07 
-7.4999999999999902e+00 -5.3670710064558236e-01 +7.3558279976783636e+00 -7.4669331598976507e-01 -3.1681631328511401e+01 +1.0432929126891007e+04 -5.0789986882242694e+04 -5.3127366663301788e+07 
-7.5999999999999899e+00 -5.3670728092512388e-01 +7.3558847715545408e+00 -7.4705244244723412e-01 -3.3320806719684001e+01 +1.0408045026013890e+04 -4.2466175309830141e+04 -5.2898789847013570e+07 
-7.6999999999999904e+00 -5.3670747338691871e-01 +7.3559398107963752e+00 -7.4641205916476716e-01 -3.4891135172001206e+01 +1.0366335371821593e+04 -3.4536926944289960e+04 -5.2601772315350309e+07 
-7.7999999999999901e+00 -5.3670767800733421e-01 +7.3559927640433065e+00 -7.4473356508987709e-01 -3.6382077817985497e+01 +1.0307332481796117e+04 -2.7057944239660526e+04 -5.2235299086496763e+07 
-7.8999999999999897e+00 -5.3670789476270253e-01 +7.3560432799160216e+00 -7.4197836593012678e-01 -3.7783095239989969e+01 +1.0230568762518586e+04 -2.0084932346040656e+04 -5.1798355457097962e+07 
-7.9999999999999902e+00 -5.3670812362908282e-01 +7.3560910070305754e+00 -7.3810788938159921e-01 -3.9083648574889608e+01 +1.0135576886628485e+04 -1.3673591097695344e+04 -5.1289927501589730e+07 
-8.0999999999999908e+00 -5.3670836428245183e-01 +7.3561356718880395e+00 -7.3311316986364783e-01 -4.0276077667589831e+01 +1.0022297149304737e+04 -7.8630243183491721e+03 -5.0710368709733903e+07 
-8.1999999999999904e+00 -5.3670861543133785e-01 +7.3561772620554819e+00 -7.2708315298270187e-01 -4.1361943012792487e+01 +9.8920735947891681e+03 -2.6408214187887675e+03 -5.0064923162958696e+07 
-8.2999999999999901e+00 -5.3670887558919322e-01 +7.3562158200530314e+00 -7.2012708845442974e-01 -4.2344660604505982e+01 +9.7465526925768008e+03 +2.0154323831454740e+03 -4.9359921626531862e+07 
-8.3999999999999897e+00 -5.3670914326942576e-01 +7.3562513884259983e+00 -7.1235421925508213e-01 -4.3227647141756805e+01 +9.5873807765975198e+03 +6.1281556278438293e+03 -4.8601694222399637e+07 
-8.4999999999999893e+00 -5.3670941698552854e-01 +7.3562840097523301e+00 -7.0387378985467752e-01 -4.4014320236550837e+01 +9.4162042088337021e+03 +9.7197717939899212e+03 -4.7796571227831587e+07 
-8.5999999999999908e+00 -5.3670969525089396e-01 +7.3563137266410079e+00 -6.9479504167128192e-01 -4.4708098367889605e+01 +9.2346692865031273e+03 +1.2812709011529407e+04 -4.6950882618347198e+07 
-8.6999999999999904e+00 -5.3670997657905739e-01 +7.3563405817375287e+00 -6.8522721042709112e-01 -4.5312401043070565e+01 +9.0444221962761167e+03 +1.5429401006208478e+04 -4.6070957858797081e+07 
-8.7999999999999794e+00 -5.3671025948347040e-01 +7.3563646177181230e+00 -6.7527953007191610e-01 -4.5830648633376128e+01 +8.8471090872747263e+03 +1.7592286134114351e+04 -4.5163126252366684e+07 
-8.8999999999999808e+00 -5.3671054247758554e-01 +7.3563858772982451e+00 -6.6506123244125093e-01 -4.6266262611112737e+01 +8.6443760617552816e+03 +1.9323808729742654e+04 -4.4233716886082679e+07 
-8.9999999999999805e+00 -5.3671082407493786e-01 +7.3564044032239835e+00 -6.5468154719341010e-01 -4.6622665305242371e+01 +8.4378691792284026e+03 +2.0646417684842952e+04 -4.3289058667816415e+07 
-9.0999999999999801e+00 -5.3671110278903589e-01 +7.3564202382848940e+00 -6.4424969529790621e-01 -4.6903280269111697e+01 +8.2292343295574810e+03 +2.1582568558951938e+04 -4.2335479713427968e+07 
-9.1999999999999797e+00 -5.3671137713333450e-01 +7.3564334253071069e+00 -6.3387490241277999e-01 -4.7111532089483973e+01 +8.0201174873581622e+03 +2.2154722489753640e+04 -4.1379308558572449e+07 
-9.2999999999999794e+00 -5.3671164562144758e-01 +7.3564440071557735e+00 -6.2366638209923619e-01 -4.7250846448980866e+01 +7.8121643938528423e+03 +2.2385346521732772e+04 -4.0426872649059445e+07 
-9.3999999999999808e+00 -5.3671190676686886e-01 +7.3564520267362186e+00 -6.1373335075867419e-01 -4.7324650158414819e+01 +7.6070208403073184e+03 +2.2296913774863446e+04 -3.9484499689006090e+07 
-9.4999999999999805e+00 -5.3671215908315240e-01 +7.3564575269969970e+00 -6.0418501504423550e-01 -4.7336371253733894e+01 +7.4063324288949843e+03 +2.1911904022395283e+04 -3.8558516503524385e+07 
-9.5999999999999801e+00 -5.3671240108389562e-01 +7.3564605509298984e+00 -5.9513058372528926e-01 -4.7289438983541963e+01 +7.2117447962359638e+03 +2.1252803575914120e+04 -3.7655250097642720e+07 
-9.6999999999999797e+00 -5.3671263128264901e-01 +7.3564611415714918e+00 -5.8667925621234474e-01 -4.7187283858381427e+01 +7.0249034029257455e+03 +2.0342105566969964e+04 -3.6781026679089427e+07 
-9.7999999999999794e+00 -5.3671284819305864e-01 +7.3564593419999929e+00 -5.7894023038475428e-01 -4.7033337572208033e+01 +6.8474536701686366e+03 +1.9202309521869796e+04 -3.5942172272341527e+07 
-9.8999999999999808e+00 -5.3671305032872008e-01 +7.3564551953440631e+00 -5.7202269832593633e-01 -4.6831033230752311e+01 +6.6810409084405837e+03 +1.7855922595104508e+04 -3.5145012408999130e+07 
-9.9999999999999805e+00 -5.3671323620359801e-01 +7.3564487447579126e+00 -5.6603582838943112e-01 -4.6583803920934493e+01 +6.5273101365601633e+03 +1.6325447691719488e+04 -3.4395871863318399e+07 
-1.0100000000000000e+01 -5.3671340505163434e-01 +7.3564400558488812e+00 -5.6105410057286587e-01 -4.6294907247339303e+01 +6.3874771242729084e+03 +1.4629875713004090e+04 -3.3699640463822886e+07 
