# field on trajectory
# s[mm] rx[mm] ry[mm] rz[mm] bx[T] by[T] bz[T]
0.0000000000000000e+00 +8.1530000000000094e+00 +0.0000000000000000e+00 +0.0000000000000000e+00 -2.8119905757750124e-02 -5.3668029700889164e-01 +5.2752902614284069e-03
1.0000000000000001e-01 +8.1529997159377707e+00 +0.0000000000000000e+00 +1.0008006405070299e-01 -2.8120003518048386e-02 -5.3668024416467242e-01 +5.2753290975938293e-03
2.0000000000000001e-01 +8.1529988637557800e+00 +0.0000000000000000e+00 +2.0016012809818201e-01 -2.8120118006005498e-02 -5.3668019762232422e-01 +5.2753704254726022e-03
2.9999999999999999e-01 +8.1529974434524792e+00 +0.0000000000000000e+00 +3.0024019213920999e-01 -2.8120247633453169e-02 -5.3668015725540585e-01 +5.2754142117266171e-03
4.0000000000000002e-01 +8.1529954550242092e+00 +0.0000000000000000e+00 +4.0032025617056399e-01 -2.8120390812228446e-02 -5.3668012293750955e-01 +5.2754604230187529e-03
5.0000000000000000e-01 +8.1529928984782600e+00 +0.0000000000000000e+00 +5.0040032018901703e-01 -2.8120545954167235e-02 -5.3668009454216115e-01 +5.2755090260116220e-03
5.9999999999999998e-01 +8.1529897738146193e+00 +0.0000000000000000e+00 +6.0048038419134497e-01 -2.8120711471110119e-02 -5.3668007194295286e-01 +5.2755599873686989e-03
6.9999999999999996e-01 +8.1529860810223909e+00 +0.0000000000000000e+00 +7.0056044817432195e-01 -2.8120885774902481e-02 -5.3668005501356764e-01 +5.2756132737543354e-03
8.0000000000000004e-01 +8.1529818201124709e+00 +0.0000000000000000e+00 +8.0064051213472498e-01 -2.8121067277380413e-02 -5.3668004362753652e-01 +5.2756688518310483e-03
9.0000000000000002e-01 +8.1529769910812302e+00 +0.0000000000000000e+00 +9.0072057606932698e-01 -2.8121254390383585e-02 -5.3668003765850214e-01 +5.2757266882619922e-03
1.0000000000000000e+00 +8.1529715939250291e+00 +0.0000000000000000e+00 +1.0008006399749001e+00 -2.8121445525748256e-02 -5.3668003698011169e-01 +5.2757867497096192e-03
1.1000000000000001e+00 +8.1529656286511507e+00 +0.0000000000000000e+00 +1.1008807038482300e+00 -2.8121639095301756e-02 -5.3668004146593296e-01 +5.2758490028346067e-03
1.2000000000000000e+00 +8.1529590952522994e+00 +0.0000000000000000e+00 +1.2009607676860801e+00 -2.8121833510871042e-02 -5.3668005098963967e-01 +5.2759134142975079e-03
1.3000000000000000e+00 +8.1529519937357708e+00 +0.0000000000000000e+00 +1.3010408314852300e+00 -2.8122027184270069e-02 -5.3668006542479507e-01 +5.2759799507563158e-03
1.3999999999999999e+00 +8.1529443240979198e+00 +0.0000000000000000e+00 +1.4011208952424601e+00 -2.8122218527308371e-02 -5.3668008464503703e-01 +5.2760485788681246e-03
1.5000000000000000e+00 +8.1529360863350995e+00 +0.0000000000000000e+00 +1.5012009589545301e+00 -2.8122405951785601e-02 -5.3668010852399595e-01 +5.2761192652880555e-03
1.6000000000000001e+00 +8.1529272804509691e+00 +0.0000000000000000e+00 +1.6012810226182299e+00 -2.8122587869487268e-02 -5.3668013693523764e-01 +5.2761919766684548e-03
1.7000000000000000e+00 +8.1529179064491508e+00 +0.0000000000000000e+00 +1.7013610862303301e+00 -2.8122762692186321e-02 -5.3668016975231658e-01 +5.2762666796591804e-03
1.8000000000000000e+00 +8.1529079643223703e+00 +0.0000000000000000e+00 +1.8014411497875999e+00 -2.8122928831646053e-02 -5.3668020684885154e-01 +5.2763433409081777e-03
1.8999999999999999e+00 +8.1528974540779000e+00 +0.0000000000000000e+00 +1.9015212132868200e+00 -2.8123084699608933e-02 -5.3668024809833803e-01 +5.2764219270593120e-03
2.0000000000000000e+00 +8.1528863757084800e+00 +0.0000000000000000e+00 +2.0016012767247702e+00 -2.8123228707808309e-02 -5.3668029337435863e-01 +5.2765024047543201e-03
2.1000000000000001e+00 +8.1528747292177304e+00 +0.0000000000000000e+00 +2.1016813400982199e+00 -2.8123359705119460e-02 -5.3668034246133078e-01 +5.2765847474737218e-03
2.2000000000000002e+00 +8.1528625146056601e+00 +0.0000000000000000e+00 +2.2017614034039301e+00 -2.8123478207134549e-02 -5.3668039480411733e-01 +5.2766689547858563e-03
2.2999999999999998e+00 +8.1528497318759001e+00 +0.0000000000000000e+00 +2.3018414666387002e+00 -2.8123585126593992e-02 -5.3668044976663476e-01 +5.2767550324754105e-03
2.3999999999999999e+00 +8.1528363810211903e+00 +0.0000000000000000e+00 +2.4019215297993002e+00 -2.8123681376243749e-02 -5.3668050671287137e-01 +5.2768429863282347e-03
2.5000000000000000e+00 +8.1528224620451493e+00 +0.0000000000000000e+00 +2.5020015928824901e+00 -2.8123767868827816e-02 -5.3668056500672645e-01 +5.2769328221299308e-03
2.6000000000000001e+00 +8.1528079749477893e+00 +0.0000000000000000e+00 +2.6020816558850601e+00 -2.8123845517094920e-02 -5.3668062401211902e-01 +5.2770245456671330e-03
2.7000000000000002e+00 +8.1527929197291105e+00 +0.0000000000000000e+00 +2.7021617188037701e+00 -2.8123915233798022e-02 -5.3668068309295913e-01 +5.2771181627274556e-03
2.7999999999999998e+00 +8.1527772963891003e+00 +0.0000000000000000e+00 +2.8022417816354102e+00 -2.8123977931695347e-02 -5.3668074161314727e-01 +5.2772136790996951e-03
2.8999999999999999e+00 +8.1527611049277802e+00 +0.0000000000000000e+00 +2.9023218443767500e+00 -2.8124034523551399e-02 -5.3668079893657572e-01 +5.2773111005740402e-03
3.0000000000000000e+00 +8.1527443453451305e+00 +0.0000000000000000e+00 +3.0024019070245598e+00 -2.8124085922137915e-02 -5.3668085442712699e-01 +5.2774104329422634e-03
3.1000000000000001e+00 +8.1527270176411495e+00 +0.0000000000000000e+00 +3.1024819695756198e+00 -2.8124133040234867e-02 -5.3668090744867492e-01 +5.2775116819979541e-03
3.2000000000000002e+00 +8.1527091218158603e+00 +0.0000000000000000e+00 +3.2025620320267101e+00 -2.8124176790631453e-02 -5.3668095736508270e-01 +5.2776148535367065e-03
3.2999999999999998e+00 +8.1526906578692397e+00 +0.0000000000000000e+00 +3.3026420943745900e+00 -2.8124218086127101e-02 -5.3668100354020376e-01 +5.2777199533563281e-03
3.3999999999999999e+00 +8.1526716258013003e+00 +0.0000000000000000e+00 +3.4027221566160502e+00 -2.8124257839532461e-02 -5.3668104533788175e-01 +5.2778269872570567e-03
3.5000000000000000e+00 +8.1526520256120403e+00 +0.0000000000000000e+00 +3.5028022187478500e+00 -2.8124296963670362e-02 -5.3668108212195020e-01 +5.2779359610417549e-03
3.6000000000000001e+00 +8.1526318572978198e+00 +0.0000000000000000e+00 +3.6028822807667802e+00 -2.8124336371378265e-02 -5.3668111325625811e-01 +5.2780468805164009e-03
3.7000000000000002e+00 +8.1526111208659096e+00 +0.0000000000000000e+00 +3.7029623426696099e+00 -2.8124376975503573e-02 -5.3668113810456353e-01 +5.2781597514891965e-03
3.7999999999999998e+00 +8.1525898163126804e+00 +0.0000000000000000e+00 +3.8030424044531101e+00 -2.8124419688913091e-02 -5.3668115603069388e-01 +5.2782745797724084e-03
3.8999999999999999e+00 +8.1525679436344909e+00 +0.0000000000000000e+00 +3.9031224661140600e+00 -2.8124465424489788e-02 -5.3668116639846519e-01 +5.2783913711817714e-03
4.0000000000000000e+00 +8.1525455028386205e+00 +0.0000000000000000e+00 +4.0032025276492398e+00 -2.8124515095122472e-02 -5.3668116857160875e-01 +5.2785101315350087e-03
4.0999999999999996e+00 +8.1525224939177896e+00 +0.0000000000000000e+00 +4.1032825890554099e+00 -2.8124569375018487e-02 -5.3668116213900618e-01 +5.2786308380968041e-03
4.2000000000000002e+00 +8.1524989168792708e+00 +0.0000000000000000e+00 +4.2033626503293604e+00 -2.8124628070879207e-02 -5.3668114750734064e-01 +5.2787533643466923e-03
4.2999999999999998e+00 +8.1524747717157897e+00 +0.0000000000000000e+00 +4.3034427114678504e+00 -2.8124690792409864e-02 -5.3668112526916467e-01 +5.2788775601967635e-03
4.4000000000000004e+00 +8.1524500584346207e+00 +0.0000000000000000e+00 +4.4035227724676700e+00 -2.8124757149324470e-02 -5.3668109601693958e-01 +5.2790032755598128e-03
4.5000000000000000e+00 +8.1524247770285001e+00 +0.0000000000000000e+00 +4.5036028333255800e+00 -2.8124826751357808e-02 -5.3668106034325058e-01 +5.2791303603515506e-03
4.5999999999999996e+00 +8.1523989275046898e+00 +0.0000000000000000e+00 +4.6036828940383696e+00 -2.8124899208254613e-02 -5.3668101884059372e-01 +5.2792586644884992e-03
4.7000000000000002e+00 +8.1523725098559208e+00 +0.0000000000000000e+00 +4.7037629546028104e+00 -2.8124974129781658e-02 -5.3668097210159149e-01 +5.2793880378902191e-03
4.7999999999999998e+00 +8.1523455240894709e+00 +0.0000000000000000e+00 +4.8038430150156701e+00 -2.8125051125716945e-02 -5.3668092071878115e-01 +5.2795183304771868e-03
4.9000000000000004e+00 +8.1523179701980606e+00 +0.0000000000000000e+00 +4.9039230752737302e+00 -2.8125129805861699e-02 -5.3668086528482828e-01 +5.2796493921730423e-03
5.0000000000000000e+00 +8.1522898481889605e+00 +0.0000000000000000e+00 +5.0040031353737602e+00 -2.8125209780029633e-02 -5.3668080639231497e-01 +5.2797810729024435e-03
5.0999999999999996e+00 +8.1522611580549000e+00 +0.0000000000000000e+00 +5.1040831953125396e+00 -2.8125290658058931e-02 -5.3668074463395554e-01 +5.2799132225933290e-03
5.2000000000000002e+00 +8.1522318997995207e+00 +0.0000000000000000e+00 +5.2041632550868497e+00 -2.8125372049802946e-02 -5.3668068060240981e-01 +5.2800456911750501e-03
5.2999999999999998e+00 +8.1522020734228100e+00 +0.0000000000000000e+00 +5.3042433146934496e+00 -2.8125453565136460e-02 -5.3668061489039220e-01 +5.2801783285795229e-03
5.4000000000000004e+00 +8.1521716789247893e+00 +0.0000000000000000e+00 +5.4043233741291203e+00 -2.8125534813954908e-02 -5.3668054809064536e-01 +5.2803109847410134e-03
5.5000000000000000e+00 +8.1521407163090807e+00 +0.0000000000000000e+00 +5.5044034333906504e+00 -2.8125615406173577e-02 -5.3668048079591568e-01 +5.2804435095959220e-03
5.5999999999999996e+00 +8.1521091855684098e+00 +0.0000000000000000e+00 +5.6044834924747899e+00 -2.8125694951733917e-02 -5.3668041359906193e-01 +5.2805757530839329e-03
5.7000000000000002e+00 +8.1520770867064094e+00 +0.0000000000000000e+00 +5.7045635513783299e+00 -2.8125773060595615e-02 -5.3668034709289381e-01 +5.2807075651464365e-03
5.7999999999999998e+00 +8.1520444197231008e+00 +0.0000000000000000e+00 +5.8046436100980499e+00 -2.8125849342742919e-02 -5.3668028187028305e-01 +5.2808387957276621e-03
5.9000000000000004e+00 +8.1520111846184609e+00 +0.0000000000000000e+00 +5.9047236686307096e+00 -2.8125923408183838e-02 -5.3668021852413672e-01 +5.2809692947744877e-03
5.9999999999999902e+00 +8.1519773813925003e+00 +0.0000000000000000e+00 +6.0048037269731003e+00 -2.8125994866969473e-02 -5.3668015764739885e-01 +5.2810989122399543e-03
6.0999999999999899e+00 +8.1519430100452208e+00 +0.0000000000000000e+00 +6.1048837851219799e+00 -2.8126063524067272e-02 -5.3668009983825216e-01 +5.2812275341861774e-03
6.1999999999999904e+00 +8.1519080705766100e+00 +0.0000000000000000e+00 +6.2049638430741396e+00 -2.8126129859704134e-02 -5.3668004571293004e-01 +5.2813551717761087e-03
6.2999999999999901e+00 +8.1518725629866804e+00 +0.0000000000000000e+00 +6.3050439008263499e+00 -2.8126194500216199e-02 -5.3667999589158477e-01 +5.2814818632436009e-03
6.3999999999999897e+00 +8.1518364872754301e+00 +0.0000000000000000e+00 +6.4051239583753699e+00 -2.8126258071895168e-02 -5.3667995099438626e-01 +5.2816076468168230e-03
6.4999999999999902e+00 +8.1517998434428591e+00 +0.0000000000000000e+00 +6.5052040157180002e+00 -2.8126321200986119e-02 -5.3667991164152151e-01 +5.2817325607179815e-03
6.5999999999999899e+00 +8.1517626314889604e+00 +0.0000000000000000e+00 +6.6052840728510001e+00 -2.8126384513685421e-02 -5.3667987845319642e-01 +5.2818566431630598e-03
6.6999999999999904e+00 +8.1517248514137499e+00 +0.0000000000000000e+00 +6.7053641297711399e+00 -2.8126448636138626e-02 -5.3667985204963586e-01 +5.2819799323615248e-03
6.7999999999999901e+00 +8.1516865032135701e+00 +0.0000000000000000e+00 +6.8054441864752100e+00 -2.8126514194439706e-02 -5.3667983305111011e-01 +5.2821024665163424e-03
6.8999999999999897e+00 +8.1516475868957095e+00 +0.0000000000000000e+00 +6.9055242429599701e+00 -2.8126581814623318e-02 -5.3667982207782838e-01 +5.2822242838225968e-03
6.9999999999999902e+00 +8.1516081024565192e+00 +0.0000000000000000e+00 +7.0056042992222096e+00 -2.8126652122671160e-02 -5.3667981975010071e-01 +5.2823454224688732e-03
7.0999999999999899e+00 +8.1515680498960101e+00 +0.0000000000000000e+00 +7.1056843552586999e+00 -2.8126725744504179e-02 -5.3667982668822956e-01 +5.2824659206358680e-03
7.1999999999999904e+00 +8.1515274292141804e+00 +0.0000000000000000e+00 +7.2057644110662000e+00 -2.8126803305981843e-02 -5.3667984351253895e-01 +5.2825858164964072e-03
7.2999999999999901e+00 +8.1514862404073902e+00 +0.0000000000000000e+00 +7.3058444666415099e+00 -2.8126885432901476e-02 -5.3667987084339974e-01 +5.2827051482154299e-03
7.3999999999999897e+00 +8.1514444834829192e+00 +0.0000000000000000e+00 +7.4059245219813796e+00 -2.8126972750990416e-02 -5.3667990930112497e-01 +5.2828239539486265e-03
7.4999999999999902e+00 +8.1514021584334806e+00 +0.0000000000000000e+00 +7.5060045770826100e+00 -2.8127065885913863e-02 -5.3667995950615532e-01 +5.2829422718440894e-03
7.5999999999999899e+00 +8.1513592652663593e+00 +0.0000000000000000e+00 +7.6060846319419504e+00 -2.8127165463261366e-02 -5.3668002207884691e-01 +5.2830601400398244e-03
7.6999999999999904e+00 +8.1513158039779192e+00 +0.0000000000000000e+00 +7.7061646865561997e+00 -2.8127272108554598e-02 -5.3668009763965852e-01 +5.2831775966654133e-03
7.7999999999999901e+00 +8.1512717745681602e+00 +0.0000000000000000e+00 +7.8062447409221098e+00 -2.8127386447239673e-02 -5.3668018680904594e-01 +5.2832946798406369e-03
7.8999999999999897e+00 +8.1512271770334301e+00 +0.0000000000000000e+00 +7.9063247950364799e+00 -2.8127509104687712e-02 -5.3668029020751318e-01 +5.2834114276757395e-03
7.9999999999999902e+00 +8.1511820113773901e+00 +0.0000000000000000e+00 +8.0064048488960609e+00 -2.8127640706103588e-02 -5.3668040845547116e-01 +5.2835278782718117e-03
8.0999999999999908e+00 +8.1511362776036496e+00 +0.0000000000000000e+00 +8.1064849024976393e+00 -2.8127781486451588e-02 -5.3668054187681158e-01 +5.2836440764380101e-03
8.1999999999999904e+00 +8.1510899757086008e+00 +0.0000000000000000e+00 +8.2065649558379903e+00 -2.8127930391613265e-02 -5.3668068981571670e-01 +5.2837600891755829e-03
8.2999999999999901e+00 +8.1510431056885899e+00 +0.0000000000000000e+00 +8.3066450089139003e+00 -2.8128086101654560e-02 -5.3668085141423438e-01 +5.2838759880660642e-03
8.3999999999999897e+00 +8.1509956675508892e+00 +0.0000000000000000e+00 +8.4067250617221205e+00 -2.8128247296677768e-02 -5.3668102581424726e-01 +5.2839918446937941e-03
8.4999999999999893e+00 +8.1509476612882299e+00 +0.0000000000000000e+00 +8.5068051142594392e+00 -2.8128412656833073e-02 -5.3668121215765519e-01 +5.2841077306479854e-03
8.5999999999999908e+00 +8.1508990869078808e+00 +0.0000000000000000e+00 +8.6068851665226305e+00 -2.8128580862308846e-02 -5.3668140958615906e-01 +5.2842237175206950e-03
8.6999999999999904e+00 +8.1508499444025801e+00 +0.0000000000000000e+00 +8.7069652185084596e+00 -2.8128750593344652e-02 -5.3668161724147267e-01 +5.2843398769091780e-03
8.7999999999999794e+00 +8.1508002337759500e+00 +0.0000000000000000e+00 +8.8070452702137203e+00 -2.8128920530222930e-02 -5.3668183426513127e-01 +5.2844562804141293e-03
8.8999999999999808e+00 +8.1507499550316407e+00 +0.0000000000000000e+00 +8.9071253216351796e+00 -2.8129089353274885e-02 -5.3668205979856953e-01 +5.2845729996406554e-03
8.9999999999999805e+00 +8.1506991081623692e+00 +0.0000000000000000e+00 +9.0072053727696098e+00 -2.8129255742886460e-02 -5.3668229298319936e-01 +5.2846901061992819e-03
9.0999999999999801e+00 +8.1506476931717806e+00 +0.0000000000000000e+00 +9.1072854236137797e+00 -2.8129418379491348e-02 -5.3668253296024537e-01 +5.2848076717044411e-03
9.1999999999999797e+00 +8.1505957100635005e+00 +0.0000000000000000e+00 +9.2073654741644795e+00 -2.8129575943577012e-02 -5.3668277887082394e-01 +5.2849257677754667e-03
9.2999999999999794e+00 +8.1505431588302599e+00 +0.0000000000000000e+00 +9.3074455244184708e+00 -2.8129727115690499e-02 -5.3668302985601912e-01 +5.2850444660375914e-03
9.3999999999999808e+00 +8.1504900394757005e+00 +0.0000000000000000e+00 +9.4075255743725297e+00 -2.8129870576431570e-02 -5.3668328505671892e-01 +5.2851638381204236e-03
9.4999999999999805e+00 +8.1504363520034495e+00 +0.0000000000000000e+00 +9.5076056240234408e+00 -2.8130005006458715e-02 -5.3668354361369464e-01 +5.2852839556589721e-03
9.5999999999999801e+00 +8.1503820964062506e+00 +0.0000000000000000e+00 +9.6076856733679694e+00 -2.8130129086494933e-02 -5.3668380466767684e-01 +5.2854048902946033e-03
9.6999999999999797e+00 +8.1503272726913600e+00 +0.0000000000000000e+00 +9.7077657224029004e+00 -2.8130241497319471e-02 -5.3668406735916430e-01 +5.2855267136732885e-03
9.7999999999999794e+00 +8.1502718808515109e+00 +0.0000000000000000e+00 +9.8078457711250007e+00 -2.8130340919780915e-02 -5.3668433082863765e-01 +5.2856494974479603e-03
9.8999999999999808e+00 +8.1502159208903304e+00 +0.0000000000000000e+00 +9.9079258195310498e+00 -2.8130426034788790e-02 -5.3668459421636727e-01 +5.2857733132767471e-03
9.9999999999999805e+00 +8.1501593928078400e+00 +0.0000000000000000e+00 +1.0008005867617801e+01 -2.8130495523586683e-02 -5.3668485666268151e-01 +5.2858982328120091e-03
1.0100000000000000e+01 +8.1501022966040200e+00 +0.0000000000000000e+00 +1.0108085915382100e+01 -2.8130548720293108e-02 -5.3668511771146088e-01 +5.2860242976765686e-03
1.0199999999999999e+01 +8.1500446322825209e+00 +0.0000000000000000e+00 +1.0208165962820599e+01 -2.8130587016224496e-02 -5.3668537817861395e-01 +5.2861514548489790e-03
1.0300000000000001e+01 +8.1499863998360507e+00 +0.0000000000000000e+00 +1.0308246009930199e+01 -2.8130612206925972e-02 -5.3668563913014855e-01 +5.2862796327171656e-03
1.0400000000000000e+01 +8.1499275992682705e+00 +0.0000000000000000e+00 +1.0408326056707599e+01 -2.8130626087959111e-02 -5.3668590163207641e-01 +5.2864087596742829e-03
1.0500000000000000e+01 +8.1498682305791608e+00 +0.0000000000000000e+00 +1.0508406103149600e+01 -2.8130630454907990e-02 -5.3668616675052150e-01 +5.2865387641199959e-03
1.0600000000000000e+01 +8.1498082937723701e+00 +0.0000000000000000e+00 +1.0608486149253000e+01 -2.8130627103376701e-02 -5.3668643555167050e-01 +5.2866695744600402e-03
1.0699999999999999e+01 +8.1497477888406102e+00 +0.0000000000000000e+00 +1.0708566195014500e+01 -2.8130617828995362e-02 -5.3668670910188043e-01 +5.2868011191074859e-03
1.0800000000000001e+01 +8.1496867157875403e+00 +0.0000000000000000e+00 +1.0808646240430900e+01 -2.8130604427411984e-02 -5.3668698846752283e-01 +5.2869333264812194e-03
1.0900000000000000e+01 +8.1496250746131391e+00 +0.0000000000000000e+00 +1.0908726285499000e+01 -2.8130588694298502e-02 -5.3668727471509170e-01 +5.2870661250071973e-03
1.1000000000000000e+01 +8.1495628653174208e+00 +0.0000000000000000e+00 +1.1008806330215601e+01 -2.8130572425349686e-02 -5.3668756891117986e-01 +5.2871994431183018e-03
1.1100000000000000e+01 +8.1495000879040198e+00 +0.0000000000000000e+00 +1.1108886374577500e+01 -2.8130557416282072e-02 -5.3668787212245472e-01 +5.2873332092542224e-03
1.1199999999999999e+01 +8.1494367423620098e+00 +0.0000000000000000e+00 +1.1208966418581401e+01 -2.8130545462841400e-02 -5.3668818541579488e-01 +5.2874673518629621e-03
1.1300000000000001e+01 +8.1493728287059604e+00 +0.0000000000000000e+00 +1.1309046462224000e+01 -2.8130538360787397e-02 -5.3668850985799721e-01 +5.2876017993979700e-03
1.1400000000000000e+01 +8.1493083469249505e+00 +0.0000000000000000e+00 +1.1409126505502300e+01 -2.8130537905913904e-02 -5.3668884651615534e-01 +5.2877364803221140e-03
1.1500000000000000e+01 +8.1492432970226201e+00 +0.0000000000000000e+00 +1.1509206548412800e+01 -2.8130545894033680e-02 -5.3668919645736668e-01 +5.2878713231048272e-03
1.1600000000000000e+01 +8.1491776789989707e+00 +0.0000000000000000e+00 +1.1609286590952600e+01 -2.8130564120985805e-02 -5.3668956074886986e-01 +5.2880062562235992e-03
1.1699999999999999e+01 +8.1491114928576298e+00 +0.0000000000000000e+00 +1.1709366633118099e+01 -2.8130594382633191e-02 -5.3668994045799301e-01 +5.2881412081635902e-03
1.1800000000000001e+01 +8.1490447385876905e+00 +0.0000000000000000e+00 +1.1809446674906400e+01 -2.8130638474870042e-02 -5.3669033665229005e-01 +5.2882761074191462e-03
