# field on trajectory
# s[mm] rx[mm] ry[mm] rz[mm] bx[T] by[T] bz[T]
-0.0000000000000000e+00 +8.1530000000000094e+00 +0.0000000000000000e+00 -0.0000000000000000e+00 -3.1891989432530167e-02 -5.9270661173871297e-01 +5.9182438357119841e-03
-1.0000000000000001e-01 +8.1529997159377707e+00 +0.0000000000000000e+00 -1.0008006405070299e-01 -3.1892051730419438e-02 -5.9270670033932793e-01 +5.9182107368997592e-03
-2.0000000000000001e-01 +8.1529988637557800e+00 +0.0000000000000000e+00 -2.0016012809818201e-01 -3.1892119628813574e-02 -5.9270679348177813e-01 +5.9181791438471772e-03
-2.9999999999999999e-01 +8.1529974434524792e+00 +0.0000000000000000e+00 -3.0024019213920999e-01 -3.1892192351353398e-02 -5.9270689120549180e-01 +5.9181490393203770e-03
-4.0000000000000002e-01 +8.1529954550242092e+00 +0.0000000000000000e+00 -4.0032025617056399e-01 -3.1892269121683879e-02 -5.9270699354990874e-01 +5.9181204060877899e-03
-5.0000000000000000e-01 +8.1529928984782600e+00 +0.0000000000000000e+00 -5.0040032018901703e-01 -3.1892349163448547e-02 -5.9270710055437636e-01 +5.9180932269183159e-03
-5.9999999999999998e-01 +8.1529897738146193e+00 +0.0000000000000000e+00 -6.0048038419134497e-01 -3.1892431700297492e-02 -5.9270721225829581e-01 +5.9180674845821235e-03
-6.9999999999999996e-01 +8.1529860810223909e+00 +0.0000000000000000e+00 -7.0056044817432195e-01 -3.1892515955888850e-02 -5.9270732870115528e-01 +5.9180431618502333e-03
-8.0000000000000004e-01 +8.1529818201124709e+00 +0.0000000000000000e+00 -8.0064051213472498e-01 -3.1892601153874905e-02 -5.9270744992226099e-01 +5.9180202414910428e-03
-9.0000000000000002e-01 +8.1529769910812302e+00 +0.0000000000000000e+00 -9.0072057606932698e-01 -3.1892686517917664e-02 -5.9270757596103629e-01 +5.9179987062726504e-03
-1.0000000000000000e+00 +8.1529715939250291e+00 +0.0000000000000000e+00 -1.0008006399749001e+00 -3.1892771271682767e-02 -5.9270770685690133e-01 +5.9179785389609097e-03
-1.1000000000000001e+00 +8.1529656286511507e+00 +0.0000000000000000e+00 -1.1008807038482300e+00 -3.1892854638834740e-02 -5.9270784264918686e-01 +5.9179597223177893e-03
-1.2000000000000000e+00 +8.1529590952522994e+00 +0.0000000000000000e+00 -1.2009607676860801e+00 -3.1892935843048087e-02 -5.9270798337734099e-01 +5.9179422391027713e-03
-1.3000000000000000e+00 +8.1529519937357708e+00 +0.0000000000000000e+00 -1.3010408314852300e+00 -3.1893014107994749e-02 -5.9270812908069237e-01 +5.9179260720697057e-03
-1.3999999999999999e+00 +8.1529443240979198e+00 +0.0000000000000000e+00 -1.4011208952424601e+00 -3.1893088657355212e-02 -5.9270827979865903e-01 +5.9179112039681866e-03
-1.5000000000000000e+00 +8.1529360863350995e+00 +0.0000000000000000e+00 -1.5012009589545301e+00 -3.1893158714813775e-02 -5.9270843557065955e-01 +5.9178976175419474e-03
-1.6000000000000001e+00 +8.1529272804509691e+00 +0.0000000000000000e+00 -1.6012810226182299e+00 -3.1893223504055504e-02 -5.9270859643605400e-01 +5.9178852955274995e-03
-1.7000000000000000e+00 +8.1529179064491508e+00 +0.0000000000000000e+00 -1.7013610862303301e+00 -3.1893282248769438e-02 -5.9270876243420412e-01 +5.9178742206540185e-03
-1.8000000000000000e+00 +8.1529079643223703e+00 +0.0000000000000000e+00 -1.8014411497875999e+00 -3.1893334172653290e-02 -5.9270893360456212e-01 +5.9178643756435398e-03
-1.8999999999999999e+00 +8.1528974540779000e+00 +0.0000000000000000e+00 -1.9015212132868200e+00 -3.1893378499402610e-02 -5.9270910998646487e-01 +5.9178557432080945e-03
-2.0000000000000000e+00 +8.1528863757084800e+00 +0.0000000000000000e+00 -2.0016012767247702e+00 -3.1893414452724041e-02 -5.9270929161937114e-01 +5.9178483060514523e-03
-2.1000000000000001e+00 +8.1528747292177304e+00 +0.0000000000000000e+00 -2.1016813400982199e+00 -3.1893441444229877e-02 -5.9270947862559420e-01 +5.9178420553273568e-03
-2.2000000000000002e+00 +8.1528625146056601e+00 +0.0000000000000000e+00 -2.2017614034039301e+00 -3.1893459601947928e-02 -5.9270967144370434e-01 +5.9178370144416957e-03
-2.2999999999999998e+00 +8.1528497318759001e+00 +0.0000000000000000e+00 -2.3018414666387002e+00 -3.1893469224616743e-02 -5.9270987058760682e-01 +5.9178332144864138e-03
-2.3999999999999999e+00 +8.1528363810211903e+00 +0.0000000000000000e+00 -2.4019215297993002e+00 -3.1893470610984832e-02 -5.9271007657131258e-01 +5.9178306865555457e-03
-2.5000000000000000e+00 +8.1528224620451493e+00 +0.0000000000000000e+00 -2.5020015928824901e+00 -3.1893464059801327e-02 -5.9271028990876440e-01 +5.9178294617440123e-03
-2.6000000000000001e+00 +8.1528079749477893e+00 +0.0000000000000000e+00 -2.6020816558850601e+00 -3.1893449869822468e-02 -5.9271051111395601e-01 +5.9178295711494683e-03
-2.7000000000000002e+00 +8.1527929197291105e+00 +0.0000000000000000e+00 -2.7021617188037701e+00 -3.1893428339810084e-02 -5.9271074070090324e-01 +5.9178310458726357e-03
-2.7999999999999998e+00 +8.1527772963891003e+00 +0.0000000000000000e+00 -2.8022417816354102e+00 -3.1893399768531845e-02 -5.9271097918364790e-01 +5.9178339170179312e-03
-2.8999999999999999e+00 +8.1527611049277802e+00 +0.0000000000000000e+00 -2.9023218443767500e+00 -3.1893364454761319e-02 -5.9271122707625812e-01 +5.9178382156940944e-03
-3.0000000000000000e+00 +8.1527443453451305e+00 +0.0000000000000000e+00 -3.0024019070245598e+00 -3.1893322697278181e-02 -5.9271148489283088e-01 +5.9178439730148292e-03
-3.1000000000000001e+00 +8.1527270176411495e+00 +0.0000000000000000e+00 -3.1024819695756198e+00 -3.1893274794868275e-02 -5.9271175314749258e-01 +5.9178512200994161e-03
-3.2000000000000002e+00 +8.1527091218158603e+00 +0.0000000000000000e+00 -3.2025620320267101e+00 -3.1893221046323812e-02 -5.9271203235440251e-01 +5.9178599880733620e-03
-3.2999999999999998e+00 +8.1526906578692397e+00 +0.0000000000000000e+00 -3.3026420943745900e+00 -3.1893161750443530e-02 -5.9271232302775345e-01 +5.9178703080690238e-03
-3.3999999999999999e+00 +8.1526716258013003e+00 +0.0000000000000000e+00 -3.4027221566160502e+00 -3.1893097206032756e-02 -5.9271262568177341e-01 +5.9178822112262294e-03
-3.5000000000000000e+00 +8.1526520256120403e+00 +0.0000000000000000e+00 -3.5028022187478500e+00 -3.1893027711903672e-02 -5.9271294083072879e-01 +5.9178957286929327e-03
-3.6000000000000001e+00 +8.1526318572978198e+00 +0.0000000000000000e+00 -3.6028822807667802e+00 -3.1892953566876860e-02 -5.9271326898895371e-01 +5.9179108916261247e-03
-3.7000000000000002e+00 +8.1526111208659096e+00 +0.0000000000000000e+00 -3.7029623426696099e+00 -3.1892875069775332e-02 -5.9271361067073536e-01 +5.9179277311912611e-03
-3.7999999999999998e+00 +8.1525898163126804e+00 +0.0000000000000000e+00 -3.8030424044531101e+00 -3.1892792519433957e-02 -5.9271396639049068e-01 +5.9179462785647072e-03
-3.8999999999999999e+00 +8.1525679436344909e+00 +0.0000000000000000e+00 -3.9031224661140600e+00 -3.1892706214695005e-02 -5.9271433666268358e-01 +5.9179665649334735e-03
-4.0000000000000000e+00 +8.1525455028386205e+00 +0.0000000000000000e+00 -4.0032025276492398e+00 -3.1892616454404131e-02 -5.9271472200173014e-01 +5.9179886214940627e-03
-4.0999999999999996e+00 +8.1525224939177896e+00 +0.0000000000000000e+00 -4.1032825890554099e+00 -3.1892523560139226e-02 -5.9271512280980188e-01 +5.9180124505765642e-03
-4.2000000000000002e+00 +8.1524989168792708e+00 +0.0000000000000000e+00 -4.2033626503293604e+00 -3.1892427936038290e-02 -5.9271553908043717e-01 +5.9180379495622449e-03
-4.2999999999999998e+00 +8.1524747717157897e+00 +0.0000000000000000e+00 -4.3034427114678504e+00 -3.1892330004989269e-02 -5.9271597071448423e-01 +5.9180649919989602e-03
-4.4000000000000004e+00 +8.1524500584346207e+00 +0.0000000000000000e+00 -4.4035227724676700e+00 -3.1892230189864965e-02 -5.9271641761263483e-01 +5.9180934514334810e-03
-4.5000000000000000e+00 +8.1524247770285001e+00 +0.0000000000000000e+00 -4.5036028333255800e+00 -3.1892128913534767e-02 -5.9271687967565700e-01 +5.9181232014138092e-03
-4.5999999999999996e+00 +8.1523989275046898e+00 +0.0000000000000000e+00 -4.6036828940383696e+00 -3.1892026598851424e-02 -5.9271735680415549e-01 +5.9181541154865935e-03
-4.7000000000000002e+00 +8.1523725098559208e+00 +0.0000000000000000e+00 -4.7037629546028104e+00 -3.1891923668662593e-02 -5.9271784889880441e-01 +5.9181860671994593e-03
-4.7999999999999998e+00 +8.1523455240894709e+00 +0.0000000000000000e+00 -4.8038430150156701e+00 -3.1891820545797693e-02 -5.9271835586010879e-01 +5.9182189300984369e-03
-4.9000000000000004e+00 +8.1523179701980606e+00 +0.0000000000000000e+00 -4.9039230752737302e+00 -3.1891717653079556e-02 -5.9271887758863639e-01 +5.9182525777302679e-03
-5.0000000000000000e+00 +8.1522898481889605e+00 +0.0000000000000000e+00 -5.0040031353737602e+00 -3.1891615413311064e-02 -5.9271941398477823e-01 +5.9182868836398471e-03
-5.0999999999999996e+00 +8.1522611580549000e+00 +0.0000000000000000e+00 -5.1040831953125396e+00 -3.1891514249286983e-02 -5.9271996494898216e-01 +5.9183217213725397e-03
-5.2000000000000002e+00 +8.1522318997995207e+00 +0.0000000000000000e+00 -5.2041632550868497e+00 -3.1891414583782120e-02 -5.9272053038154160e-01 +5.9183569644719004e-03
-5.2999999999999998e+00 +8.1522020734228100e+00 +0.0000000000000000e+00 -5.3042433146934496e+00 -3.1891316839556830e-02 -5.9272111018271278e-01 +5.9183924864807886e-03
-5.4000000000000004e+00 +8.1521716789247893e+00 +0.0000000000000000e+00 -5.4043233741291203e+00 -3.1891221439354606e-02 -5.9272170425267912e-01 +5.9184281609409176e-03
-5.5000000000000000e+00 +8.1521407163090807e+00 +0.0000000000000000e+00 -5.5044034333906504e+00 -3.1891128805899817e-02 -5.9272231249151930e-01 +5.9184638613924440e-03
-5.5999999999999996e+00 +8.1521091855684098e+00 +0.0000000000000000e+00 -5.6044834924747899e+00 -3.1891039361903073e-02 -5.9272293479932336e-01 +5.9184994613750413e-03
-5.7000000000000002e+00 +8.1520770867064094e+00 +0.0000000000000000e+00 -5.7045635513783299e+00 -3.1890953530051086e-02 -5.9272357107601070e-01 +5.9185348344259533e-03
-5.7999999999999998e+00 +8.1520444197231008e+00 +0.0000000000000000e+00 -5.8046436100980499e+00 -3.1890871733012111e-02 -5.9272422122144486e-01 +5.9185698540810865e-03
-5.9000000000000004e+00 +8.1520111846184609e+00 +0.0000000000000000e+00 -5.9047236686307096e+00 -3.1890794393433612e-02 -5.9272488513540211e-01 +5.9186043938745771e-03
-5.9999999999999902e+00 +8.1519773813925003e+00 +0.0000000000000000e+00 -6.0048037269731003e+00 -3.1890721933927398e-02 -5.9272556271754706e-01 +5.9186383273421702e-03
-6.0999999999999899e+00 +8.1519430100452208e+00 +0.0000000000000000e+00 -6.1048837851219799e+00 -3.1890654630747903e-02 -5.9272625366521758e-01 +5.9186715644732792e-03
-6.1999999999999904e+00 +8.1519080705766100e+00 +0.0000000000000000e+00 -6.2049638430741396e+00 -3.1890592253109439e-02 -5.9272695697501310e-01 +5.9187041415659650e-03
-6.2999999999999901e+00 +8.1518725629866804e+00 +0.0000000000000000e+00 -6.3050439008263499e+00 -3.1890534460475906e-02 -5.9272767149191297e-01 +5.9187361222521077e-03
-6.3999999999999897e+00 +8.1518364872754301e+00 +0.0000000000000000e+00 -6.4051239583753699e+00 -3.1890480912296106e-02 -5.9272839606094052e-01 +5.9187675701593973e-03
-6.4999999999999902e+00 +8.1517998434428591e+00 +0.0000000000000000e+00 -6.5052040157180002e+00 -3.1890431268003235e-02 -5.9272912952716628e-01 +5.9187985489111061e-03
-6.5999999999999899e+00 +8.1517626314889604e+00 +0.0000000000000000e+00 -6.6052840728510001e+00 -3.1890385187014418e-02 -5.9272987073570926e-01 +5.9188291221259149e-03
-6.6999999999999904e+00 +8.1517248514137499e+00 +0.0000000000000000e+00 -6.7053641297711399e+00 -3.1890342328730420e-02 -5.9273061853174025e-01 +5.9188593534177051e-03
-6.7999999999999901e+00 +8.1516865032135701e+00 +0.0000000000000000e+00 -6.8054441864752100e+00 -3.1890302352536683e-02 -5.9273137176051383e-01 +5.9188893063956832e-03
-6.8999999999999897e+00 +8.1516475868957095e+00 +0.0000000000000000e+00 -6.9055242429599701e+00 -3.1890264917796569e-02 -5.9273212926725116e-01 +5.9189190446629399e-03
-6.9999999999999902e+00 +8.1516081024565192e+00 +0.0000000000000000e+00 -7.0056042992222096e+00 -3.1890229683860537e-02 -5.9273288989732165e-01 +5.9189486318181007e-03
-7.0999999999999899e+00 +8.1515680498960101e+00 +0.0000000000000000e+00 -7.1056843552586999e+00 -3.1890196310059231e-02 -5.9273365249612575e-01 +5.9189781314539147e-03
-7.1999999999999904e+00 +8.1515274292141804e+00 +0.0000000000000000e+00 -7.2057644110662000e+00 -3.1890164455704771e-02 -5.9273441590912734e-01 +5.9190076071573483e-03
-7.2999999999999901e+00 +8.1514862404073902e+00 +0.0000000000000000e+00 -7.3058444666415099e+00 -3.1890133780091839e-02 -5.9273517898188621e-01 +5.9190371225097040e-03
-7.3999999999999897e+00 +8.1514444834829192e+00 +0.0000000000000000e+00 -7.4059245219813796e+00 -3.1890103942490970e-02 -5.9273594055994150e-01 +5.9190667410851982e-03
-7.4999999999999902e+00 +8.1514021584334806e+00 +0.0000000000000000e+00 -7.5060045770826100e+00 -3.1890074602159126e-02 -5.9273669948902119e-01 +5.9190965264529069e-03
-7.5999999999999899e+00 +8.1513592652663593e+00 +0.0000000000000000e+00 -7.6060846319419504e+00 -3.1890045418326692e-02 -5.9273745461480865e-01 +5.9191265421741253e-03
-7.6999999999999904e+00 +8.1513158039779192e+00 +0.0000000000000000e+00 -7.7061646865561997e+00 -3.1890016050208095e-02 -5.9273820478315042e-01 +5.9191568518043051e-03
-7.7999999999999901e+00 +8.1512717745681602e+00 +0.0000000000000000e+00 -7.8062447409221098e+00 -3.1889986156995009e-02 -5.9273894883994271e-01 +5.9191875188916434e-03
-7.8999999999999897e+00 +8.1512271770334301e+00 +0.0000000000000000e+00 -7.9063247950364799e+00 -3.1889955397859139e-02 -5.9273968563119039e-01 +5.9192186069774886e-03
-7.9999999999999902e+00 +8.1511820113773901e+00 +0.0000000000000000e+00 -8.0064048488960609e+00 -3.1889923431976774e-02 -5.9274041400298549e-01 +5.9192501795904892e-03
-8.0999999999999908e+00 +8.1511362776036496e+00 +0.0000000000000000e+00 -8.1064849024976393e+00 -3.1889890054829347e-02 -5.9274113308805787e-01 +5.9192822784045317e-03
-8.1999999999999904e+00 +8.1510899757086008e+00 +0.0000000000000000e+00 -8.2065649558379903e+00 -3.1889855512309211e-02 -5.9274184296598509e-01 +5.9193148729099702e-03
-8.2999999999999901e+00 +8.1510431056885899e+00 +0.0000000000000000e+00 -8.3066450089139003e+00 -3.1889820143223870e-02 -5.9274254391157188e-01 +5.9193479177144679e-03
-8.3999999999999897e+00 +8.1509956675508892e+00 +0.0000000000000000e+00 -8.4067250617221205e+00 -3.1889784286405383e-02 -5.9274323619950431e-01 +5.9193813674292863e-03
-8.4999999999999893e+00 +8.1509476612882299e+00 +0.0000000000000000e+00 -8.5068051142594392e+00 -3.1889748280722233e-02 -5.9274392010455179e-01 +5.9194151766715775e-03
-8.5999999999999908e+00 +8.1508990869078808e+00 +0.0000000000000000e+00 -8.6068851665226305e+00 -3.1889712465068061e-02 -5.9274459590133266e-01 +5.9194493000621264e-03
-8.6999999999999904e+00 +8.1508499444025801e+00 +0.0000000000000000e+00 -8.7069652185084596e+00 -3.1889677178375271e-02 -5.9274526386454662e-01 +5.9194836922279734e-03
-8.7999999999999794e+00 +8.1508002337759500e+00 +0.0000000000000000e+00 -8.8070452702137203e+00 -3.1889642759605194e-02 -5.9274592426876904e-01 +5.9195183078004417e-03
-8.8999999999999808e+00 +8.1507499550316407e+00 +0.0000000000000000e+00 -8.9071253216351796e+00 -3.1889609547753855e-02 -5.9274657738853631e-01 +5.9195531014162245e-03
-8.9999999999999805e+00 +8.1506991081623692e+00 +0.0000000000000000e+00 -9.0072053727696098e+00 -3.1889577881857888e-02 -5.9274722349843501e-01 +5.9195880277184950e-03
-9.0999999999999801e+00 +8.1506476931717806e+00 +0.0000000000000000e+00 -9.1072854236137797e+00 -3.1889548100986168e-02 -5.9274786287292169e-01 +5.9196230413552202e-03
-9.1999999999999797e+00 +8.1505957100635005e+00 +0.0000000000000000e+00 -9.2073654741644795e+00 -3.1889520544245674e-02 -5.9274849578641231e-01 +5.9196580969802766e-03
-9.2999999999999794e+00 +8.1505431588302599e+00 +0.0000000000000000e+00 -9.3074455244184708e+00 -3.1889495550787281e-02 -5.9274912251336742e-01 +5.9196931492545299e-03
-9.3999999999999808e+00 +8.1504900394757005e+00 +0.0000000000000000e+00 -9.4075255743725297e+00 -3.1889473459797486e-02 -5.9274974332811459e-01 +5.9197281528441696e-03
-9.4999999999999805e+00 +8.1504363520034495e+00 +0.0000000000000000e+00 -9.5076056240234408e+00 -3.1889454610504249e-02 -5.9275035850493729e-01 +5.9197630624218157e-03
-9.5999999999999801e+00 +8.1503820964062506e+00 +0.0000000000000000e+00 -9.6076856733679694e+00 -3.1889439342182781e-02 -5.9275096831815921e-01 +5.9197978326675947e-03
-9.6999999999999797e+00 +8.1503272726913600e+00 +0.0000000000000000e+00 -9.7077657224029004e+00 -3.1889427994145632e-02 -5.9275157304193937e-01 +5.9198324182671829e-03
-9.7999999999999794e+00 +8.1502718808515109e+00 +0.0000000000000000e+00 -9.8078457711250007e+00 -3.1889420905756499e-02 -5.9275217295050442e-01 +5.9198667739144223e-03
-9.8999999999999808e+00 +8.1502159208903304e+00 +0.0000000000000000e+00 -9.9079258195310498e+00 -3.1889418416420207e-02 -5.9275276831794288e-01 +5.9199008543093555e-03
-9.9999999999999805e+00 +8.1501593928078400e+00 +0.0000000000000000e+00 -1.0008005867617801e+01 -3.1889420865545644e-02 -5.9275335941834462e-01 +5.9199346141656168e-03
-1.0100000000000000e+01 +8.1501022966040200e+00 +0.0000000000000000e+00 -1.0108085915382100e+01 -3.1889428483141392e-02 -5.9275394658413183e-01 +5.9199680229451608e-03
-1.0199999999999999e+01 +8.1500446322825209e+00 +0.0000000000000000e+00 -1.0208165962820599e+01 -3.1889441154349940e-02 -5.9275453033164160e-01 +5.9200010965658467e-03
-1.0300000000000001e+01 +8.1499863998360507e+00 +0.0000000000000000e+00 -1.0308246009930199e+01 -3.1889458696562012e-02 -5.9275511121343405e-01 +5.9200338600730752e-03
-1.0400000000000000e+01 +8.1499275992682705e+00 +0.0000000000000000e+00 -1.0408326056707599e+01 -3.1889480927172031e-02 -5.9275568978196325e-01 +5.9200663385101902e-03
-1.0500000000000000e+01 +8.1498682305791608e+00 +0.0000000000000000e+00 -1.0508406103149600e+01 -3.1889507663584692e-02 -5.9275626658969938e-01 +5.9200985569196653e-03
-1.0600000000000000e+01 +8.1498082937723701e+00 +0.0000000000000000e+00 -1.0608486149253000e+01 -3.1889538723211847e-02 -5.9275684218906610e-01 +5.9201305403424461e-03
-1.0699999999999999e+01 +8.1497477888406102e+00 +0.0000000000000000e+00 -1.0708566195014500e+01 -3.1889573923478888e-02 -5.9275741713256003e-01 +5.9201623138191353e-03
-1.0800000000000001e+01 +8.1496867157875403e+00 +0.0000000000000000e+00 -1.0808646240430900e+01 -3.1889613081815510e-02 -5.9275799197257251e-01 +5.9201939023881232e-03
-1.0900000000000000e+01 +8.1496250746131391e+00 +0.0000000000000000e+00 -1.0908726285499000e+01 -3.1889656015662037e-02 -5.9275856726150888e-01 +5.9202253310867660e-03
-1.1000000000000000e+01 +8.1495628653174208e+00 +0.0000000000000000e+00 -1.1008806330215601e+01 -3.1889702542468014e-02 -5.9275914355175663e-01 +5.9202566249510298e-03
-1.1100000000000000e+01 +8.1495000879040198e+00 +0.0000000000000000e+00 -1.1108886374577500e+01 -3.1889752479690746e-02 -5.9275972139565691e-01 +5.9202878090151637e-03
-1.1199999999999999e+01 +8.1494367423620098e+00 +0.0000000000000000e+00 -1.1208966418581401e+01 -3.1889805644803239e-02 -5.9276030134565205e-01 +5.9203189083131720e-03
-1.1300000000000001e+01 +8.1493728287059604e+00 +0.0000000000000000e+00 -1.1309046462224000e+01 -3.1889861855277098e-02 -5.9276088395395987e-01 +5.9203499478754180e-03
-1.1400000000000000e+01 +8.1493083469249505e+00 +0.0000000000000000e+00 -1.1409126505502300e+01 -3.1889920928604598e-02 -5.9276146977298683e-01 +5.9203809527328660e-03
-1.1500000000000000e+01 +8.1492432970226201e+00 +0.0000000000000000e+00 -1.1509206548412800e+01 -3.1889982682281548e-02 -5.9276205935500348e-01 +5.9204119479136725e-03
-1.1600000000000000e+01 +8.1491776789989707e+00 +0.0000000000000000e+00 -1.1609286590952600e+01 -3.1890046933815211e-02 -5.9276265325229116e-01 +5.9204429584446749e-03
-1.1699999999999999e+01 +8.1491114928576298e+00 +0.0000000000000000e+00 -1.1709366633118099e+01 -3.1890113500721420e-02 -5.9276325201708424e-01 +5.9204740093507504e-03
