# multipoles
# s[mm] polynom_b[n=0][T/m^n] polynom_b[n=1][T/m^n] polynom_b[n=2][T/m^n] polynom_b[n=3][T/m^n] polynom_b[n=4][T/m^n] polynom_b[n=5][T/m^n] polynom_b[n=6][T/m^n] 
-0.0000000000000000e+00 -5.9271014165075286e-01 +8.1175017099700426e+00 -7.5591742971844966e-01 -5.5600680544762412e+01 +7.8126330329504171e+03 +1.6825411664725027e+04 -3.6621135836626910e+07 
-1.0000000000000001e-01 -5.9271026236832702e-01 +8.1174912615531554e+00 -7.6455245432840757e-01 -5.5242689725646812e+01 +7.9185991851691251e+03 +1.4829778409518818e+04 -3.7001721769954585e+07 
-2.0000000000000001e-01 -5.9271038752594174e-01 +8.1174791001163289e+00 -7.7323579785488583e-01 -5.4846982388116103e+01 +8.0229874082576234e+03 +1.2688737432843645e+04 -3.7372416267681293e+07 
-2.9999999999999999e-01 -5.9271051713884171e-01 +8.1174653401309982e+00 -7.8194640485976108e-01 -5.4415507798381789e+01 +8.1257846707491399e+03 +1.0407213961987320e+04 -3.7733661628338017e+07 
-4.0000000000000002e-01 -5.9271065122231226e-01 +8.1174500960646512e+00 -7.9066321648759730e-01 -5.3950215095280974e+01 +8.2269778701330561e+03 +7.9901324697125792e+03 -3.8085899795907244e+07 
-5.0000000000000000e-01 -5.9271078979153358e-01 +8.1174334823857421e+00 -7.9936517609045854e-01 -5.3453053422390752e+01 +8.3265539443308917e+03 +5.4424173871016465e+03 -3.8429572902563415e+07 
-5.9999999999999998e-01 -5.9271093286172372e-01 +8.1174156135647078e+00 -8.0803122917749082e-01 -5.2925971973117747e+01 +8.4244998682448131e+03 +2.7689934264758404e+03 -3.8765123246558011e+07 
-6.9999999999999996e-01 -5.9271108044820786e-01 +8.1173966040635435e+00 -8.1664031877328835e-01 -5.2370919708655876e+01 +8.5208025666939229e+03 -2.5216006435477034e+01 -3.9092992879557349e+07 
-8.0000000000000004e-01 -5.9271123256612057e-01 +8.1173765683555192e+00 -8.2517138995141925e-01 -5.1789845913573714e+01 +8.6154490035068884e+03 -2.9352856343752023e+03 -3.9413624037286565e+07 
-9.0000000000000002e-01 -5.9271138923072453e-01 +8.1173556209015612e+00 -8.3360338626021957e-01 -5.1184699530670173e+01 +8.7084261138207403e+03 -5.9562921118776385e+03 -3.9727458820593290e+07 
-1.0000000000000000e+00 -5.9271155045726087e-01 +8.1173338761678497e+00 -8.4191525409806145e-01 -5.0557429666325000e+01 +8.7997208853661923e+03 -9.0833111165584596e+03 -4.0034939574190296e+07 
-1.1000000000000001e+00 -5.9271171626089092e-01 +8.1173114486181088e+00 -8.5008593877995875e-01 -4.9909985404020283e+01 +8.8893202850427551e+03 -1.2311418315632238e+04 -4.0336508541012757e+07 
-1.2000000000000000e+00 -5.9271188665688890e-01 +8.1172884527114082e+00 -8.5809438660429671e-01 -4.9244315701109940e+01 +8.9772113003989634e+03 -1.5635690090434222e+04 -4.0632608065568075e+07 
-1.3000000000000000e+00 -5.9271206166042112e-01 +8.1172650029106155e+00 -8.6591954275630312e-01 -4.8562369683232269e+01 +9.0633809006377578e+03 -1.9051201673818028e+04 -4.0923680411181219e+07 
-1.3999999999999999e+00 -5.9271224128673883e-01 +8.1172412136703329e+00 -8.7354035351845682e-01 -4.7866096281504589e+01 +9.1478160788789337e+03 -2.2553029313436833e+04 -4.1210167959016994e+07 
-1.5000000000000000e+00 -5.9271242555108572e-01 +8.1172171994468467e+00 -8.8093576571850973e-01 -4.7157444519079462e+01 +9.2305038387758759e+03 -2.6136248596660691e+04 -4.1492513140338361e+07 
-1.6000000000000001e+00 -5.9271261446863599e-01 +8.1171930746896788e+00 -8.8808472826929441e-01 -4.6438363300142662e+01 +9.3114312281009115e+03 -2.9795935599303204e+04 -4.1771158602679394e+07 
-1.7000000000000000e+00 -5.9271280805460425e-01 +8.1171689538515839e+00 -8.9496618615705459e-01 -4.5710801679950059e+01 +9.3905852294569650e+03 -3.3527165354763114e+04 -4.2046546706700645e+07 
-1.8000000000000000e+00 -5.9271300632426815e-01 +8.1171449513778953e+00 -9.0155908727626644e-01 -4.4976708574343228e+01 +9.4679528802604382e+03 -3.7325013511101999e+04 -4.2319120067500576e+07 
-1.8999999999999999e+00 -5.9271320929277083e-01 +8.1171211817114024e+00 -9.0784238225967229e-01 -4.4238032916617236e+01 +9.5435212764445096e+03 -4.1184555357790676e+04 -4.2589321593001962e+07 
-2.0000000000000000e+00 -5.9271341697541158e-01 +8.1170977592920615e+00 -9.1379501774505578e-01 -4.3496723643348176e+01 +9.6172774449769931e+03 -4.5100865979525275e+04 -4.2857593878761023e+07 
-2.1000000000000001e+00 -5.9271362943683292e-01 +8.1170748085717150e+00 -9.1939718433817785e-01 -4.2755376280952675e+01 +9.6891109446775135e+03 -4.9064037423984650e+04 -4.3123791028855257e+07 
-2.2000000000000002e+00 -5.9271384693405382e-01 +8.1170524908130623e+00 -9.2463338564815856e-01 -4.2018913577887751e+01 +9.7585365337715539e+03 -5.3045717173703684e+04 -4.3385530907901727e+07 
-2.2999999999999998e+00 -5.9271406977088514e-01 +8.1170309757284258e+00 -9.2948904386557674e-01 -4.1292780357310583e+01 +9.8249787036231919e+03 -5.7013285403946218e+04 -4.3639899492286116e+07 
-2.3999999999999999e+00 -5.9271429825125210e-01 +8.1170104330288364e+00 -9.3394957766771092e-01 -4.0582421370740498e+01 +9.8878618786690204e+03 -6.0934122768726673e+04 -4.3883982444659531e+07 
-2.5000000000000000e+00 -5.9271453267900887e-01 +8.1169910324210761e+00 -9.3800040414828079e-01 -3.9893281232538008e+01 +9.9466104599655264e+03 -6.4775610708424509e+04 -4.4114865339257866e+07 
-2.6000000000000001e+00 -5.9271477335804357e-01 +8.1169729436132094e+00 -9.4162693965444522e-01 -3.9230804558648330e+01 +1.0000648837332787e+04 -6.8505130704651427e+04 -4.4329633712536074e+07 
-2.7000000000000002e+00 -5.9271502059228676e-01 +8.1169563363047779e+00 -9.4481459553737401e-01 -3.8600435669220168e+01 +1.0049401310146048e+04 -7.2090066041690967e+04 -4.4525372689323217e+07 
-2.7999999999999998e+00 -5.9271527468568141e-01 +8.1169413801970194e+00 -9.4754878169820234e-01 -3.8007618902874192e+01 +1.0092292153608209e+04 -7.5497799922967752e+04 -4.4699167295789264e+07 
-2.8999999999999999e+00 -5.9271553594219550e-01 +8.1169282449891043e+00 -9.4981490510171696e-01 -3.7457798469948131e+01 +1.0128745593723508e+04 -7.8695716428477172e+04 -4.4848102351418592e+07 
-3.0000000000000000e+00 -5.9271580466580653e-01 +8.1169171003745273e+00 -9.5159837176187401e-01 -3.6956418361197997e+01 +1.0158185842723873e+04 -8.1651200995801351e+04 -4.4969262630392656e+07 
-3.1000000000000001e+00 -5.9271608116055130e-01 +8.1169081160449661e+00 -9.5288458007759591e-01 -3.6508922448833218e+01 +1.0180036970149344e+04 -8.4331639868347731e+04 -4.5059732243413426e+07 
-3.2000000000000002e+00 -5.9271636573047248e-01 +8.1169014616913895e+00 -9.5365892809903652e-01 -3.6120754516017087e+01 +1.0193723047946409e+04 -8.6704419925838869e+04 -4.5116595348792143e+07 
-3.2999999999999998e+00 -5.9271665867964884e-01 +8.1168973070003627e+00 -9.5390680963651431e-01 -3.5797358125983671e+01 +1.0198668071898415e+04 -8.8736929498269732e+04 -4.5136935764878221e+07 
-3.3999999999999999e+00 -5.9271696031219701e-01 +8.1168958216536105e+00 -9.5361361331592243e-01 -3.5544176623284727e+01 +1.0194295941365282e+04 -9.0396558325499471e+04 -4.5117836870140135e+07 
-3.5000000000000000e+00 -5.9271727093227222e-01 +8.1168971753359660e+00 -9.5276472342579210e-01 -3.5366653347652935e+01 +1.0180030482170694e+04 -9.1650696349843594e+04 -4.5056381729347192e+07 
-3.6000000000000001e+00 -5.9271759084406583e-01 +8.1169015377237930e+00 -9.5134552343854084e-01 -3.5270231286551294e+01 +1.0155295508042660e+04 -9.2466735771331936e+04 -4.4949653372918449e+07 
-3.7000000000000002e+00 -5.9271792035175241e-01 +8.1169090784948548e+00 -9.4934138767977905e-01 -3.5260353376390022e+01 +1.0119514665026983e+04 -9.2812069242861355e+04 -4.4794734065657973e+07 
-3.7999999999999998e+00 -5.9271825975963366e-01 +8.1169199673183119e+00 -9.4673768620681531e-01 -3.5342462170525515e+01 +1.0072111525833454e+04 -9.2654091911669835e+04 -4.4588705758281089e+07 
-3.8999999999999999e+00 -5.9271860937201437e-01 +8.1169343738668012e+00 -9.4351978805803616e-01 -3.5522000215480276e+01 +1.0012509646754341e+04 -9.1960199166694074e+04 -4.4328650348989688e+07 
-4.0000000000000000e+00 -5.9271896949319980e-01 +8.1169524678006351e+00 -9.3967305251332722e-01 -3.5804409526985580e+01 +9.9401324192820957e+03 -9.0697789560627352e+04 -4.4011649002372921e+07 
-4.0999999999999996e+00 -5.9271934041210461e-01 +8.1169743189941332e+00 -9.3518948482782738e-01 -3.6192111785859872e+01 +9.8546386888583911e+03 -8.8851498271259625e+04 -4.3635959805163868e+07 
-4.2000000000000002e+00 -5.9271972234469172e-01 +8.1169996417140453e+00 -9.3008514753304095e-01 -3.6676844343850910e+01 +9.7565169865323896e+03 -8.6467534563544017e+04 -4.3203931511739634e+07 
-4.2999999999999998e+00 -5.9272011548666270e-01 +8.1170280709858904e+00 -9.2438156505952707e-01 -3.7247980770802194e+01 +9.6464389382245918e+03 -8.3605874434389625e+04 -4.2718801680212572e+07 
-4.4000000000000004e+00 -5.9272052003354270e-01 +8.1170592418252028e+00 -9.1810026912731535e-01 -3.7894894442466750e+01 +9.5250763037210363e+03 -8.0326494815027705e+04 -4.2183808479096167e+07 
-4.5000000000000000e+00 -5.9272093618096144e-01 +8.1170927892549685e+00 -9.1126279250576903e-01 -3.8606959016574095e+01 +9.3931008515055564e+03 -7.6689370911538266e+04 -4.1602190070340276e+07 
-4.5999999999999996e+00 -5.9272136412438947e-01 +8.1171283482926349e+00 -9.0389067377693388e-01 -3.9373548078328483e+01 +9.2511844565385709e+03 -7.2754478198554338e+04 -4.0977185093025900e+07 
-4.7000000000000002e+00 -5.9272180405935482e-01 +8.1171655539528569e+00 -8.9600545803536202e-01 -4.0184035237793125e+01 +9.0999991041496160e+03 -6.8581791810205701e+04 -4.0312032657058023e+07 
-4.7999999999999998e+00 -5.9272225618120866e-01 +8.1172040412516466e+00 -8.8762869793435550e-01 -4.1027794235656948e+01 +8.9402169136073335e+03 -6.4231285980827866e+04 -3.9609972461443789e+07 
-4.9000000000000004e+00 -5.9272272068540655e-01 +8.1172434452038829e+00 -8.7878194755880790e-01 -4.1894198891942047e+01 +8.7725100240725205e+03 -5.9762934286878772e+04 -3.8874244260322645e+07 
-5.0000000000000000e+00 -5.9272319776717419e-01 +8.1172834008211030e+00 -8.6948677479829750e-01 -4.2772623032905528e+01 +8.5975508228984254e+03 -5.5236710102771220e+04 -3.8108088924804181e+07 
-5.0999999999999996e+00 -5.9272368762185579e-01 +8.1173235431159920e+00 -8.5976474688094062e-01 -4.3652440652551057e+01 +8.4160116732941024e+03 -5.0712585591489609e+04 -3.7314747158126622e+07 
-5.2000000000000002e+00 -5.9272419044461566e-01 +8.1173635071008725e+00 -8.4963744219266601e-01 -4.4523025847010693e+01 +8.2285651374100507e+03 -4.6250532141508680e+04 -3.6497460548152409e+07 
-5.2999999999999998e+00 -5.9272470643056319e-01 +8.1174029277864328e+00 -8.3912644981671147e-01 -4.5373752792717767e+01 +8.0358839700922890e+03 -4.1910520465896880e+04 -3.5659471544181190e+07 
-5.4000000000000004e+00 -5.9272523577478597e-01 +8.1174414401804160e+00 -8.2825336095074331e-01 -4.6193995732211974e+01 +7.8386409509461055e+03 -3.7752520624906014e+04 -3.4804022643877976e+07 
-5.5000000000000000e+00 -5.9272577867222243e-01 +8.1174786792921427e+00 -8.1703978089428042e-01 -4.6973129084878039e+01 +7.6375091102519054e+03 -3.3836501446568414e+04 -3.3934357462193772e+07 
-5.5999999999999996e+00 -5.9272633531787366e-01 +8.1175142801326299e+00 -8.0550731899844841e-01 -4.7700527470052421e+01 +7.4331615479815046e+03 -3.0222430344082284e+04 -3.3053719895460475e+07 
-5.7000000000000002e+00 -5.9272690590653576e-01 +8.1175478777043644e+00 -7.9367759731755494e-01 -4.8365565418927197e+01 +7.2262715791680357e+03 -2.6970274972166349e+04 -3.2165354760319836e+07 
-5.7999999999999998e+00 -5.9272749063297758e-01 +8.1175791070195586e+00 -7.8157224577907969e-01 -4.8957617905396191e+01 +7.0175126608420615e+03 -2.4140000151428274e+04 -3.1272507495682199e+07 
-5.9000000000000004e+00 -5.9272808969186164e-01 +8.1176076030833570e+00 -7.6921290653515395e-01 -4.9466059855381360e+01 +6.8075584606335533e+03 -2.1791570729313291e+04 -3.0378424450126532e+07 
-5.9999999999999902e+00 -5.9272870327775928e-01 +8.1176330009249362e+00 -7.5662122732648018e-01 -4.9880267179774002e+01 +6.5970826893308476e+03 -1.9984945948164783e+04 -2.9486352028951116e+07 
-6.0999999999999899e+00 -5.9272933131092898e-01 +8.1176550566327030e+00 -7.4382148978980445e-01 -5.0193498681612901e+01 +6.3866694695700990e+03 -1.8757707490953529e+04 -2.8598972483869147e+07 
-6.1999999999999904e+00 -5.9272997279047623e-01 +8.1176739315692128e+00 -7.3084712523154072e-01 -5.0412087290673817e+01 +6.1766427816535397e+03 -1.8071297312831510e+04 -2.7717376073843807e+07 
-6.2999999999999901e+00 -5.9273062652250097e-01 +8.1176898719710788e+00 -7.1773352841357607e-01 -5.0545124746295642e+01 +5.9672807010083516e+03 -1.7870905784005321e+04 -2.6842385984836776e+07 
-6.3999999999999897e+00 -5.9273129131313362e-01 +8.1177031240884379e+00 -7.0451608885527839e-01 -5.0601703074972406e+01 +5.7588612076971094e+03 -1.8101721783473949e+04 -2.5974824995554760e+07 
-6.4999999999999902e+00 -5.9273196596855482e-01 +8.1177139341778126e+00 -6.9123018860046170e-01 -5.0590914383402186e+01 +5.5516621431096655e+03 -1.8708933884083643e+04 -2.5115515268915638e+07 
-6.5999999999999899e+00 -5.9273264929498704e-01 +8.1177225485053679e+00 -6.7791120383294001e-01 -5.0521850943314966e+01 +5.3459612487293507e+03 -1.9637729879004321e+04 -2.4265278560406744e+07 
-6.6999999999999904e+00 -5.9273334009870482e-01 +8.1177292133506267e+00 -6.6459450264080744e-01 -5.0403605311487723e+01 +5.1420361151019824e+03 -2.0833296048033666e+04 -2.3424935954286873e+07 
-6.7999999999999901e+00 -5.9273403718608098e-01 +8.1177341749962846e+00 -6.5131544403567643e-01 -5.0245270007878915e+01 +4.9401641710382410e+03 -2.2240819090943984e+04 -2.2595307833202351e+07 
-6.8999999999999897e+00 -5.9273473936343157e-01 +8.1177376797442111e+00 -6.3810938129175920e-01 -5.0055937976643435e+01 +4.7406227412659664e+03 -2.3805483460840307e+04 -2.1777214140968148e+07 
-6.9999999999999902e+00 -5.9273544543724865e-01 +8.1177399739019993e+00 -6.2501165592007601e-01 -4.9844702205934752e+01 +4.5436889383103226e+03 -2.5472473527062910e+04 -2.0971473886199545e+07 
-7.0999999999999899e+00 -5.9273615421402537e-01 +8.1177413037906359e+00 -6.1205760417167709e-01 -4.9620655931101759e+01 +4.3496397796493211e+03 -2.7186972445758445e+04 -2.0178905681842793e+07 
-7.1999999999999904e+00 -5.9273686450033480e-01 +8.1177419157402788e+00 -5.9928255138423714e-01 -4.9392892517574261e+01 +4.1587520882333638e+03 -2.8894162824590960e+04 -1.9400327297935892e+07 
-7.2999999999999901e+00 -5.9273757510284308e-01 +8.1177420560986988e+00 -5.8672181304832605e-01 -4.9170505685356325e+01 +3.9713025056126921e+03 -3.0539225464060735e+04 -1.8636555705618102e+07 
-7.3999999999999897e+00 -5.9273828482817770e-01 +8.1177419712230794e+00 -5.7441069733851502e-01 -4.8962589274596709e+01 +3.7875675444513081e+03 -3.2067340705623617e+04 -1.7888407339010708e+07 
-7.4999999999999902e+00 -5.9273899248318851e-01 +8.1177419074832162e+00 -5.6238449869649443e-01 -4.8778237341441745e+01 +3.6078234712522353e+03 -3.3423687853116957e+04 -1.7156697552696675e+07 
-7.5999999999999899e+00 -5.9273969687465222e-01 +8.1177421112641319e+00 -5.5067850335586643e-01 -4.8626544216762795e+01 +3.4323463998034235e+03 -3.4553444889425824e+04 -1.6442241037313500e+07 
-7.6999999999999904e+00 -5.9274039680951163e-01 +8.1177428289661684e+00 -5.3932798707020368e-01 -4.8516604505627910e+01 +3.2614122587793468e+03 -3.5401788462739809e+04 -1.5745851694926258e+07 
-7.7999999999999901e+00 -5.9274109109477602e-01 +8.1177443070000876e+00 -5.2836821219482955e-01 -4.8457512938148518e+01 +3.0952967348619286e+03 -3.5913894779086069e+04 -1.5068342366348278e+07 
-7.8999999999999897e+00 -5.9274177853752885e-01 +8.1177467917904433e+00 -5.1783443360751313e-01 -4.8458364466665941e+01 +2.9342753809560409e+03 -3.6034939028372442e+04 -1.4410525336809700e+07 
-7.9999999999999902e+00 -5.9274245794501756e-01 +8.1177505297464485e+00 -5.0776188784516119e-01 -4.8528253057323766e+01 +2.7786235215433449e+03 -3.5710101920898145e+04 -1.3773212084694149e+07 
-8.0999999999999908e+00 -5.9274312844340393e-01 +8.1177556945315246e+00 -4.9817812383286364e-01 -4.8673132596324756e+01 +2.6285846130570822e+03 -3.4903532686378654e+04 -1.3157199388465051e+07 
-8.1999999999999904e+00 -5.9274379018214751e-01 +8.1177622324147318e+00 -4.8908648013715589e-01 -4.8888856266348284e+01 +2.4842470327270180e+03 -3.3641134951500411e+04 -1.2562833418188777e+07 
-8.2999999999999901e+00 -5.9274444351540823e-01 +8.1177700451419348e+00 -4.8048557330934510e-01 -4.9169231732586660e+01 +2.3456570613302160e+03 -3.1961478155908506e+04 -1.1990283314987969e+07 
-8.3999999999999897e+00 -5.9274508879723531e-01 +8.1177790344542196e+00 -4.7237402441736848e-01 -4.9508066554488678e+01 +2.2128610551339711e+03 -2.9903132429760888e+04 -1.1439718512415886e+07 
-8.4999999999999893e+00 -5.9274572638175238e-01 +8.1177891021008932e+00 -4.6475046220738458e-01 -4.9899168526121777e+01 +2.0859055101235381e+03 -2.7504666710735910e+04 -1.0911309052779600e+07 
-8.5999999999999908e+00 -5.9274635662296427e-01 +8.1178001498240970e+00 -4.5761351762732616e-01 -5.0336345249299519e+01 +1.9648369557766553e+03 -2.4804651188624066e+04 -1.0405225074729770e+07 
-8.6999999999999904e+00 -5.9274697987492031e-01 +8.1178120793760531e+00 -4.5096183305631671e-01 -5.0813404640902860e+01 +1.8497021302877249e+03 -2.1841654334866598e+04 -9.9216376443830505e+06 
-8.7999999999999794e+00 -5.9274759649157349e-01 +8.1178247925062497e+00 -4.4479405364100477e-01 -5.1324154548049869e+01 +1.7405478131337716e+03 -1.8654245183619587e+04 -9.4607179506931324e+06 
-8.8999999999999808e+00 -5.9274820682682605e-01 +8.1178381909602884e+00 -4.3910883387368305e-01 -5.1862402726067025e+01 +1.6374209568990743e+03 -1.5280993433140387e+04 -9.0226379484873842e+06 
-8.9999999999999805e+00 -5.9274881123463941e-01 +8.1178521764910432e+00 -4.3390483382547557e-01 -5.2421957156934660e+01 +1.5403686076565514e+03 -1.1760467616888916e+04 -8.6075699576476701e+06 
-9.0999999999999801e+00 -5.9274941006884985e-01 +8.1178666508512922e+00 -4.2918072093465537e-01 -5.2996625843711882e+01 +1.4494379439888689e+03 -8.1312362828793875e+03 -8.2156868598337043e+06 
-9.1999999999999797e+00 -5.9275000368324982e-01 +8.1178815157890476e+00 -4.2493517054791435e-01 -5.3580216665181538e+01 +1.3646762848617595e+03 -4.4318688695169640e+03 -7.8471621291564191e+06 
-9.2999999999999794e+00 -5.9275059243168582e-01 +8.1178966730627202e+00 -4.2116686468341125e-01 -5.4166537832007783e+01 +1.2861310638164441e+03 -7.0093301176003183e+02 -7.5021697005622983e+06 
-9.3999999999999808e+00 -5.9275117666786159e-01 +8.1179120244235019e+00 -4.1787449519215480e-01 -5.4749397360103757e+01 +1.2138498936863448e+03 +3.0230023389039998e+03 -7.1808842894755648e+06 
-9.4999999999999805e+00 -5.9275175674546510e-01 +8.1179274716248191e+00 -4.1505675869906539e-01 -5.5322603358232804e+01 +1.1478804678244810e+03 +6.7013686276645130e+03 -6.8834809133403627e+06 
-9.5999999999999801e+00 -5.9275233301818364e-01 +8.1179429164221766e+00 -4.1271236535557876e-01 -5.5879964019969982e+01 +1.0882707231878137e+03 +1.0295597631710008e+04 -6.6101356570297293e+06 
-9.6999999999999797e+00 -5.9275290583957740e-01 +8.1179582605714273e+00 -4.1084002961292077e-01 -5.6415287573068362e+01 +1.0350686690692014e+03 +1.3767121153449838e+04 -6.3610248684647642e+06 
-9.7999999999999794e+00 -5.9275347556328295e-01 +8.1179734058286392e+00 -4.0943847420497320e-01 -5.6922382280023641e+01 +9.8832246101672297e+02 +1.7077371033475894e+04 -6.1363255018605990e+06 
-9.8999999999999808e+00 -5.9275404254275654e-01 +8.1179882539501662e+00 -4.0850643641775608e-01 -5.7395056436378333e+01 +9.4808052121919900e+02 +2.0187779128087070e+04 -5.9362156955459500e+06 
-9.9999999999999805e+00 -5.9275460713148831e-01 +8.1180027067038179e+00 -4.0804265511034749e-01 -5.7827119412937343e+01 +9.1439119214799950e+02 +2.3059782888400870e+04 -5.7608729883819018e+06 
-1.0100000000000000e+01 -5.9275516972419096e-01 +8.1180166750974241e+00 -4.0804095789919681e-01 -5.8213886298983454e+01 +8.8723044902336915e+02 +2.5664420931622954e+04 -5.6102200559652140e+06 
