# multipoles
# s[mm] polynom_b[n=0][T/m^n] polynom_b[n=1][T/m^n] polynom_b[n=2][T/m^n] polynom_b[n=3][T/m^n] polynom_b[n=4][T/m^n] polynom_b[n=5][T/m^n] polynom_b[n=6][T/m^n] 
+0.0000000000000000e+00 -5.6654210635731572e-01 +7.7464195595743961e+00 -7.9903693043920210e-01 -3.7003554383819612e+01 +1.1632028003142164e+04 -6.7172607759606472e+04 -5.5050931416465662e+07 
+1.0000000000000001e-01 -5.6654176679339951e-01 +7.7463936607910275e+00 -8.0616623998970294e-01 -3.6721054314789910e+01 +1.1696781775652682e+04 -6.7590010109678507e+04 -5.5234426370581374e+07 
+2.0000000000000001e-01 -5.6654143133283530e-01 +7.7463668195869761e+00 -8.1303770424859023e-01 -3.6430152418825180e+01 +1.1757634279212201e+04 -6.8027175991148033e+04 -5.5406928445093840e+07 
+3.0000000000000004e-01 -5.6654110098319310e-01 +7.7463393190760961e+00 -8.1963467307298177e-01 -3.6135425972567354e+01 +1.1814407129757055e+04 -6.8466188043844304e+04 -5.5567282022789635e+07 
+4.0000000000000002e-01 -5.6654077675204950e-01 +7.7463114423616997e+00 -8.2594049562478322e-01 -3.5841451923024444e+01 +1.1866921931353199e+04 -6.8889130833533680e+04 -5.5714331432588466e+07 
+5.0000000000000000e-01 -5.6654045964697863e-01 +7.7462834725553806e+00 -8.3193852135495983e-01 -3.5552807473843707e+01 +1.1915000292760573e+04 -6.9278087359375917e+04 -5.5846921021914028e+07 
+5.9999999999999998e-01 -5.6654015067555352e-01 +7.7462556927576243e+00 -8.3761209941610026e-01 -3.5274069499154578e+01 +1.1958463816150401e+04 -6.9615142515570755e+04 -5.5963895104084164e+07 
+6.9999999999999996e-01 -5.6653985084536995e-01 +7.7462283860727510e+00 -8.4294457682396318e-01 -3.5009814993588485e+01 +1.1997134066588411e+04 -6.9882380470261051e+04 -5.6064097821983382e+07 
+7.9999999999999993e-01 -5.6653956116401438e-01 +7.7462018355973994e+00 -8.4791930169389229e-01 -3.4764620746516051e+01 +1.2030832632589932e+04 -7.0061886521361987e+04 -5.6146373437607281e+07 
+8.9999999999999991e-01 -5.6653928263907183e-01 +7.7461763244322261e+00 -8.5251962303834716e-01 -3.4543063674804017e+01 +1.2059381122947101e+04 -7.0135745214173658e+04 -5.6209566314182416e+07 
+9.9999999999999989e-01 -5.6653901627816639e-01 +7.7461521356687060e+00 -8.5672888522813473e-01 -3.4349720449853017e+01 +1.2082601063154891e+04 -7.0086042481555589e+04 -5.6252520430794924e+07 
+1.0999999999999999e+00 -5.6653876308891804e-01 +7.7461295524028522e+00 -8.6053043390659512e-01 -3.4189167898561394e+01 +1.2100314007327202e+04 -6.9894863321621102e+04 -5.6274079911802024e+07 
+1.2000000000000000e+00 -5.6653852407894545e-01 +7.7461088577225672e+00 -8.6390761552589590e-01 -3.4065982644389386e+01 +1.2112341532737901e+04 -6.9544293874500101e+04 -5.6273089012056507e+07 
+1.3000000000000000e+00 -5.6653830025590712e-01 +7.7460903347218881e+00 -8.6684377301495485e-01 -3.3984741512368466e+01 +1.2118505158474934e+04 -6.9016419103553533e+04 -5.6248391727669284e+07 
+1.4000000000000001e+00 -5.6653809262745902e-01 +7.7460742664810409e+00 -8.6932224994567753e-01 -3.3950020966002569e+01 +1.2118626421851355e+04 -6.8293326035501741e+04 -5.6198832157498404e+07 
+1.5000000000000002e+00 -5.6653790220128541e-01 +7.7460609360903598e+00 -8.7132638792289974e-01 -3.3966397803639936e+01 +1.2112526834435221e+04 -6.7357099722025509e+04 -5.6123254305658035e+07 
+1.6000000000000003e+00 -5.6653772998510887e-01 +7.7460506266317779e+00 -8.7283952511798557e-01 -3.4038448619103903e+01 +1.2100027851980967e+04 -6.6189826388843154e+04 -5.6020501931326270e+07 
+1.7000000000000004e+00 -5.6653757698662299e-01 +7.7460436211827348e+00 -8.7384500421444111e-01 -3.4170749929025447e+01 +1.2080951027800658e+04 -6.4773592675083288e+04 -5.5889419289723516e+07 
+1.8000000000000005e+00 -5.6653744421358965e-01 +7.7460402028248101e+00 -8.7432616170794120e-01 -3.4367878420850865e+01 +1.2055117810703572e+04 -6.3090484203815497e+04 -5.5728850166812107e+07 
+1.9000000000000006e+00 -5.6653733267377904e-01 +7.7460406546349549e+00 -8.7426633420366706e-01 -3.4634410696314681e+01 +1.2022349665660127e+04 -6.1122587101363395e+04 -5.5537638462795861e+07 
+2.0000000000000004e+00 -5.6653724337496347e-01 +7.7460452596887475e+00 -8.7364885961601979e-01 -3.4974923383452271e+01 +1.1982468093668107e+04 -5.8851987301584224e+04 -5.5314628273923978e+07 
+2.1000000000000005e+00 -5.6653717695226891e-01 +7.7460542125916261e+00 -8.7247043417100656e-01 -3.5392340261137498e+01 +1.1935500518847946e+04 -5.6267774930470550e+04 -5.5059699970285319e+07 
+2.2000000000000006e+00 -5.6653713254894389e-01 +7.7460673526932551e+00 -8.7078015362732075e-01 -3.5883018208316344e+01 +1.1882279036452645e+04 -5.3386487760024203e+04 -5.4776801209487759e+07 
+2.3000000000000007e+00 -5.6653710893504783e-01 +7.7460844301741476e+00 -8.6863994215451512e-01 -3.6441683606249121e+01 +1.1823831975841991e+04 -5.0231381021909721e+04 -5.4470876500867978e+07 
+2.4000000000000008e+00 -5.6653710488063447e-01 +7.7461051952067379e+00 -8.6611172551018178e-01 -3.7063062608992425e+01 +1.1761187700117180e+04 -4.6825711207562374e+04 -5.4146870521271683e+07 
+2.5000000000000009e+00 -5.6653711915577076e-01 +7.7461293979726511e+00 -8.6325742756472568e-01 -3.7741881665099591e+01 +1.1695374534006471e+04 -4.3192732974437429e+04 -5.3809727759212099e+07 
+2.6000000000000010e+00 -5.6653715053050024e-01 +7.7461567886503424e+00 -8.6013897580637999e-01 -3.8472867137317984e+01 +1.1627420874306375e+04 -3.9355701405421969e+04 -5.3464393055125557e+07 
+2.7000000000000011e+00 -5.6653719777485334e-01 +7.7461871174217016e+00 -8.5681829914727692e-01 -3.9250745502295892e+01 +1.1558355140578557e+04 -3.5337870813718560e+04 -5.3115811346727230e+07 
+2.8000000000000012e+00 -5.6653725965890200e-01 +7.7462201344715709e+00 -8.5335732150939136e-01 -4.0070243337728762e+01 +1.1489205656429927e+04 -3.1162494802848159e+04 -5.2768927112128615e+07 
+2.9000000000000012e+00 -5.6653733495264624e-01 +7.7462555899844263e+00 -8.4981797531794856e-01 -4.0926087223189008e+01 +1.1421000903436157e+04 -2.6852826836755354e+04 -5.2428685573984727e+07 
+3.0000000000000013e+00 -5.6653742242611527e-01 +7.7462932341495181e+00 -8.4626218991272961e-01 -4.1813003875390450e+01 +1.1354769303146395e+04 -2.2432119494603154e+04 -5.2100031665170908e+07 
+3.1000000000000014e+00 -5.6653752084932818e-01 +7.7463328171585371e+00 -8.4275189544438089e-01 -4.2725720092166561e+01 +1.1291539287845066e+04 -1.7923624736625305e+04 -5.1787910358815208e+07 
+3.2000000000000015e+00 -5.6653762899225302e-01 +7.7463740892087980e+00 -8.3934902777971077e-01 -4.3658962842549727e+01 +1.1232339388943261e+04 -1.3350593387607087e+04 -5.1497267075797215e+07 
+3.3000000000000016e+00 -5.6653774562489523e-01 +7.7464168004971210e+00 -8.3611551847798726e-01 -4.4607459079344721e+01 +1.1178198056425417e+04 -8.7362762357521933e+03 -5.1233046852586143e+07 
+3.4000000000000017e+00 -5.6653786951720109e-01 +7.7464607012252209e+00 -8.3311330547176154e-01 -4.5565935901901184e+01 +1.1130143851055549e+04 -4.1039230649076389e+03 -5.1000195228258103e+07 
+3.5000000000000018e+00 -5.6653799943910743e-01 +7.7465055416038462e+00 -8.3040432775535200e-01 -4.6529120669065250e+01 +1.1089205347171208e+04 +5.2321799918373370e+02 -5.0803657789035596e+07 
+3.6000000000000019e+00 -5.6653813416052923e-01 +7.7465510718409325e+00 -8.2805052616261732e-01 -4.7491740656245646e+01 +1.1056411145052611e+04 +5.1218985044728634e+03 -5.0648380224945761e+07 
+3.7000000000000020e+00 -5.6653827245137811e-01 +7.7465970421533976e+00 -8.2611384185237413e-01 -4.8448523394586474e+01 +1.1032789844465897e+04 +9.6688716506082528e+03 -5.0539308206820689e+07 
+3.8000000000000020e+00 -5.6653841308152242e-01 +7.7466432027618959e+00 -8.2465622016672779e-01 -4.9394196522370734e+01 +1.1019370113079589e+04 +1.4140891442157837e+04 -5.0481387701397300e+07 
+3.9000000000000021e+00 -5.6653855482079873e-01 +7.7466893038927847e+00 -8.2373960991051964e-01 -5.0323487825317457e+01 +1.1017180674995963e+04 +1.8514712884979814e+04 -5.0479564922312260e+07 
+4.0000000000000018e+00 -5.6653869643904353e-01 +7.7467350957824275e+00 -8.2342595903848748e-01 -5.1231125384878275e+01 +1.1027250226323245e+04 +2.2767092924935529e+04 -5.0538785920991942e+07 
+4.1000000000000014e+00 -5.6653883688542261e-01 +7.7467803669621063e+00 -8.2376246181174162e-01 -5.2113058319057131e+01 +1.1050341783777965e+04 +2.6880981051474835e+04 -5.0662723321514919e+07 
+4.2000000000000011e+00 -5.6653897583261725e-01 +7.7468250549923887e+00 -8.2473745273071730e-01 -5.2969969087120695e+01 +1.1086170734902413e+04 +3.0863059802401491e+04 -5.0850033961381599e+07 
+4.3000000000000007e+00 -5.6653911313565930e-01 +7.7468691336809066e+00 -8.2632459117520773e-01 -5.3803687025400244e+01 +1.1134194219130855e+04 +3.4725688039848079e+04 -5.1098139094038844e+07 
+4.4000000000000004e+00 -5.6653924864962402e-01 +7.7469125768339229e+00 -8.2849752967788948e-01 -5.4616041427873398e+01 +1.1193869239743473e+04 +3.8481224396437043e+04 -5.1404459310357690e+07 
+4.5000000000000000e+00 -5.6653938222953226e-01 +7.7469553582553790e+00 -8.3122992636066206e-01 -5.5408861476273124e+01 +1.1264652903281063e+04 +4.2142026747277305e+04 -5.1766415689177409e+07 
+4.5999999999999996e+00 -5.6653951373044875e-01 +7.7469974517490607e+00 -8.3449543295070550e-01 -5.6183976334512394e+01 +1.1346002192354614e+04 +4.5720452854557057e+04 -5.2181428716660857e+07 
+4.6999999999999993e+00 -5.6653964300741400e-01 +7.7470388311161580e+00 -8.3826770208147916e-01 -5.6943215053568075e+01 +1.1437374099300296e+04 +4.9228859744709145e+04 -5.2646918909966350e+07 
+4.7999999999999989e+00 -5.6653976991548705e-01 +7.7470794701568799e+00 -8.4252038344353186e-01 -5.7688406623610582e+01 +1.1538225560147383e+04 +5.2679604018971258e+04 -5.3160306521072015e+07 
+4.8999999999999986e+00 -5.6653989430972229e-01 +7.7471193426655303e+00 -8.4722712530666644e-01 -5.8421379832077967e+01 +1.1648013476565608e+04 +5.6085041032791116e+04 -5.3719011623030178e+07 
+4.9999999999999982e+00 -5.6654001604515425e-01 +7.7471584224382157e+00 -8.5236157686411940e-01 -5.9143963481092527e+01 +1.1766194763888017e+04 +5.9457526140162074e+04 -5.4320454349139385e+07 
+5.0999999999999979e+00 -5.6654013497686229e-01 +7.7471966832667665e+00 -8.5789738036479246e-01 -5.9857986212882643e+01 +1.1892226201303472e+04 +6.2809413687566281e+04 -5.4962054177144304e+07 
+5.1999999999999975e+00 -5.6654025095990179e-01 +7.7472340989392583e+00 -8.6380817908367136e-01 -6.0565276516092752e+01 +1.2025564582527966e+04 +6.6153057013075275e+04 -5.5641230646794699e+07 
+5.2999999999999972e+00 -5.6654036384933604e-01 +7.7472706432379450e+00 -8.7006761348169548e-01 -6.1267662669810342e+01 +1.2165666641347527e+04 +6.9500808141595946e+04 -5.6355403000353530e+07 
+5.3999999999999968e+00 -5.6654047350021519e-01 +7.7473062899498739e+00 -8.7664932380951233e-01 -6.1966973048594284e+01 +1.2311989102566751e+04 +7.2865019540812922e+04 -5.7101990429034941e+07 
+5.4999999999999964e+00 -5.6654057976761762e-01 +7.7473410128525222e+00 -8.8352694487471561e-01 -6.2665035697552554e+01 +1.2463988582152051e+04 +7.6258041629637417e+04 -5.7878411597590372e+07 
+5.5999999999999961e+00 -5.6654068250660905e-01 +7.7473747857215765e+00 -8.9067411118552242e-01 -6.3363678566926012e+01 +1.2621121686524360e+04 +7.9692224167519904e+04 -5.8682085121150710e+07 
+5.6999999999999957e+00 -5.6654078157227383e-01 +7.7474075823274138e+00 -8.9806445268044388e-01 -6.4064729399710558e+01 +1.2782844926264228e+04 +8.3179915564457740e+04 -5.9510429139391109e+07 
+5.7999999999999954e+00 -5.6654087681967702e-01 +7.7474393764417906e+00 -9.0567159949389198e-01 -6.4770015922319672e+01 +1.2948614811784915e+04 +8.6733463983611713e+04 -6.0360861788897179e+07 
+5.8999999999999950e+00 -5.6654096810391086e-01 +7.7474701418245955e+00 -9.1346917654238802e-01 -6.5481365461967712e+01 +1.3117887748879775e+04 +9.0365215118170294e+04 -6.1230800698186733e+07 
+5.9999999999999947e+00 -5.6654105528004983e-01 +7.7474998522387768e+00 -9.2143080794020615e-01 -6.6200605380805300e+01 +1.3290120118119936e+04 +9.4087514750999704e+04 -6.2117663354138188e+07 
+6.0999999999999943e+00 -5.6654113841969400e-01 +7.7475284930504627e+00 -9.2952480120284264e-01 -6.6928651607801555e+01 +1.3464667963024054e+04 +9.7906049554623387e+04 -6.3018296285684973e+07 
+6.1999999999999940e+00 -5.6654121844347460e-01 +7.7475560986065117e+00 -9.3770111042998394e-01 -6.7662599820265754e+01 +1.3640497077949305e+04 +1.0179830021038541e+05 -6.3927225807672665e+07 
+6.2999999999999936e+00 -5.6654129647993123e-01 +7.7475827160634427e+00 -9.4590584749278228e-01 -6.8398537626766384e+01 +1.3816478227042566e+04 +1.0573424927811653e+05 -6.4838386068873771e+07 
+6.3999999999999932e+00 -5.6654137365760415e-01 +7.7476083925747021e+00 -9.5408512857665795e-01 -6.9132552508403450e+01 +1.3991482270024189e+04 +1.0968387817746765e+05 -6.5745711678681597e+07 
+6.4999999999999929e+00 -5.6654145110497911e-01 +7.7476331752947107e+00 -9.6218507869433978e-01 -6.9860731935410584e+01 +1.4164380235682283e+04 +1.1361716778435979e+05 -6.6643138022078313e+07 
+6.5999999999999925e+00 -5.6654152995056217e-01 +7.7476571113779551e+00 -9.7015182433684921e-01 -7.0579163351955287e+01 +1.4334043192976709e+04 +1.1750409836415800e+05 -6.7524600672424793e+07 
+6.6999999999999922e+00 -5.6654161132283565e-01 +7.7476802479754996e+00 -9.7793149828912318e-01 -7.1283934060814616e+01 +1.4499342338697166e+04 +1.2131464885161447e+05 -6.8384035797756076e+07 
+6.7999999999999918e+00 -5.6654169635025164e-01 +7.7477026322419951e+00 -9.8547024043500353e-01 -7.1971131440583463e+01 +1.4659149012069145e+04 +1.2501879812571994e+05 -6.9215380227412686e+07 
+6.8999999999999915e+00 -5.6654178616126238e-01 +7.7477243113300718e+00 -9.9271419463193500e-01 -7.2636842774456596e+01 +1.4812334637276104e+04 +1.2858652398908220e+05 -7.0012571180539593e+07 
+6.9999999999999911e+00 -5.6654188188430898e-01 +7.7477453323896111e+00 -9.9960951032609746e-01 -7.3277155228733406e+01 +1.4957770757799626e+04 +1.3198780301998666e+05 -7.0769546439965814e+07 
+7.0999999999999908e+00 -5.6654198464778893e-01 +7.7477657425743685e+00 -1.0061023456546829e+00 -7.3888156043966774e+01 +1.5094329086789190e+04 +1.3519261166737080e+05 -7.1480244567125723e+07 
+7.1999999999999904e+00 -5.6654209558010282e-01 +7.7477855890340006e+00 -1.0121388630974033e+00 -7.4465932303369001e+01 +1.5220881434395067e+04 +1.3817092488548331e+05 -7.2138604581041634e+07 
+7.2999999999999901e+00 -5.6654221580962816e-01 +7.7478049189192468e+00 -1.0176652324935438e+00 -7.5006571088676722e+01 +1.5336299762361470e+04 +1.4089271704649332e+05 -7.2738566210015759e+07 
+7.3999999999999897e+00 -5.6654234646472068e-01 +7.7478237793825189e+00 -1.0226276304317645e+00 -7.5506159481617743e+01 +1.5439456168421753e+04 +1.4332796188477089e+05 -7.3274069804311708e+07 
+7.4999999999999893e+00 -5.6654248867372237e-01 +7.7478422175698265e+00 -1.0269722401729411e+00 -7.5960784344026962e+01 +1.5529222892076565e+04 +1.4544663124764056e+05 -7.3739056383256555e+07 
+7.5999999999999890e+00 -5.6654264356493944e-01 +7.7478602806331471e+00 -1.0306452540659294e+00 -7.6366532669230821e+01 +1.5604472356455104e+04 +1.4721869709982848e+05 -7.4127467821855381e+07 
+7.6999999999999886e+00 -5.6654281226669001e-01 +7.7478780157213532e+00 -1.0335928678527768e+00 -7.6719491316466403e+01 +1.5664077060723261e+04 +1.4861412996085297e+05 -7.4433246337640449e+07 
+7.7999999999999883e+00 -5.6654299590724300e-01 +7.7478954699804969e+00 -1.0357612886847074e+00 -7.7015747020178466e+01 +1.5706909735631827e+04 +1.4960289894449999e+05 -7.4650335240126535e+07 
+7.8999999999999879e+00 -5.6654319561485400e-01 +7.7479126905640729e+00 -1.0370967304591212e+00 -7.7251386688865011e+01 +1.5731843252473351e+04 +1.5015497348094883e+05 -7.4772678488723472e+07 
+7.9999999999999876e+00 -5.6654341251776430e-01 +7.7479297246136838e+00 -1.0375454141887297e+00 -7.7422496842969167e+01 +1.5737750630870574e+04 +1.5024031996294632e+05 -7.4794220737679765e+07 
+8.0999999999999872e+00 -5.6654364740457286e-01 +7.7479465745310945e+00 -1.0370724799878135e+00 -7.7525817408003448e+01 +1.5723893009732601e+04 +1.4983591914901786e+05 -7.4710960633770764e+07 
+8.1999999999999869e+00 -5.6654389973301122e-01 +7.7479630749908903e+00 -1.0357124445796848e+00 -7.7561513768142007e+01 +1.5691045148252981e+04 +1.4895271087209208e+05 -7.4527139173100829e+07 
+8.2999999999999865e+00 -5.6654416863520041e-01 +7.7479790217022098e+00 -1.0335156041348701e+00 -7.7530835171778534e+01 +1.5640352755741416e+04 +1.4761176553147580e+05 -7.4249082165053219e+07 
+8.3999999999999861e+00 -5.6654445324321456e-01 +7.7479942103711661e+00 -1.0305322556019896e+00 -7.7435030907673308e+01 +1.5572961543734240e+04 +1.4583415447966426e+05 -7.3883115453394964e+07 
+8.4999999999999858e+00 -5.6654475268912285e-01 +7.7480084367021194e+00 -1.0268126902876480e+00 -7.7275350268964544e+01 +1.5490017087890648e+04 +1.4364094970380561e+05 -7.3435564217701092e+07 
+8.5999999999999854e+00 -5.6654506610498123e-01 +7.7480214963988532e+00 -1.0224071948420757e+00 -7.7053042592605735e+01 +1.5392664846536247e+04 +1.4105322408465491e+05 -7.2912753063599393e+07 
+8.6999999999999851e+00 -5.6654539262279358e-01 +7.7480331851590920e+00 -1.0173660565862532e+00 -7.6769357117385951e+01 +1.5282050265721522e+04 +1.3809205064768964e+05 -7.2321006534046054e+07 
+8.7999999999999847e+00 -5.6654573137453035e-01 +7.7480432986839762e+00 -1.0117395596146741e+00 -7.6425543232151327e+01 +1.5159318696333923e+04 +1.3477850392925573e+05 -7.1666648694145754e+07 
+8.8999999999999844e+00 -5.6654608149215924e-01 +7.7480516326688740e+00 -1.0055779823533963e+00 -7.6022850240143555e+01 +1.5025615354594098e+04 +1.3113365872955599e+05 -7.0956002962674320e+07 
+8.9999999999999840e+00 -5.6654644210760208e-01 +7.7480579828039389e+00 -9.9893160151673166e-01 -7.5562527351252157e+01 +1.4882085391293356e+04 +1.2717859000524310e+05 -7.0195392428755626e+07 
+9.0999999999999837e+00 -5.6654681235276472e-01 +7.7480621447838738e+00 -9.9185068865592507e-01 -7.5045823994094008e+01 +1.4729873826468158e+04 +1.2293437478733720e+05 -6.9391139542919442e+07 
+9.1999999999999833e+00 -5.6654719135950249e-01 +7.7480639142952228e+00 -9.8438551435378630e-01 -7.4473989432634269e+01 +1.4570125630516359e+04 +1.1842208992644884e+05 -6.8549566509757444e+07 
+9.2999999999999829e+00 -5.6654757825966173e-01 +7.7480630870257912e+00 -9.7658634308576497e-01 -7.3848273040779290e+01 +1.4403985625607198e+04 +1.1366281370478780e+05 -6.7676994817221567e+07 
+9.3999999999999826e+00 -5.6654797218504371e-01 +7.7480594586556313e+00 -9.6850343632918134e-01 -7.3169924051128774e+01 +1.4232598538413844e+04 +1.0867762443575966e+05 -6.6779745474875391e+07 
+9.4999999999999822e+00 -5.6654837226741339e-01 +7.7480528248670444e+00 -9.6018705269409343e-01 -7.2440191844522758e+01 +1.4057109007809095e+04 +1.0348760214660609e+05 -6.5864139062735170e+07 
+9.5999999999999819e+00 -5.6654877763852263e-01 +7.7480429813389859e+00 -9.5168744395028992e-01 -7.1660325794773783e+01 +1.3878661505968315e+04 +9.8113827721859241e+04 -6.4936495352544479e+07 
+9.6999999999999815e+00 -5.6654918743007843e-01 +7.7480297237462814e+00 -9.4305485956572799e-01 -7.0831575229675295e+01 +1.3698400427674816e+04 +9.2577382642855897e+04 -6.4003133741234951e+07 
+9.7999999999999812e+00 -5.6654960077375016e-01 +7.7480128477616255e+00 -9.3433954437710143e-01 -6.9955189519483582e+01 +1.3517470035894594e+04 +8.6899349611094571e+04 -6.3070372966496825e+07 
+9.8999999999999808e+00 -5.6655001680118600e-01 +7.7479921490535277e+00 -9.2559173744448864e-01 -6.9032417996709128e+01 +1.3337014450150658e+04 +8.1100812034945964e+04 -6.2144531082440197e+07 
+9.9999999999999805e+00 -5.6655043464399135e-01 +7.7479674232899658e+00 -9.1686167420706710e-01 -6.8064510054211411e+01 +1.3158177681523250e+04 +7.5202854742074531e+04 -6.1231925598796643e+07 
+1.0099999999999980e+01 -5.6655085347092204e-01 +7.7479385540412542e+00 -9.0819348924471788e-01 -6.7053571013407520e+01 +1.2981942958442860e+04 +6.9228351428420821e+04 -6.0337925273482822e+07 
