# field on trajectory
# s[mm] rx[mm] ry[mm] rz[mm] bx[T] by[T] bz[T]
0.0000000000000000e+00 +8.1530000000000005e+00 +0.0000000000000000e+00 +0.0000000000000000e+00 -2.9328965408874284e-02 -5.3675061247036326e-01 +5.2953832085065036e-03
1.0000000000000001e-01 +8.1529997163961507e+00 +0.0000000000000000e+00 +9.9999999999463796e-02 -2.9329117806378875e-02 -5.3675066894663115e-01 +5.2954676312690005e-03
2.0000000000000001e-01 +8.1529988655856904e+00 +0.0000000000000000e+00 +1.9999999999571000e-01 -2.9329263339470443e-02 -5.3675073503937731e-01 +5.2955540269608893e-03
2.9999999999999999e-01 +8.1529974475670297e+00 +0.0000000000000000e+00 +2.9999999998552201e-01 -2.9329402604371408e-02 -5.3675081034115790e-01 +5.2956423616113196e-03
4.0000000000000002e-01 +8.1529954623438208e+00 +0.0000000000000000e+00 +3.9999999996568297e-01 -2.9329536197297803e-02 -5.3675089444449164e-01 +5.2957326012497514e-03
5.0000000000000000e-01 +8.1529929099124292e+00 +0.0000000000000000e+00 +4.9999999993297400e-01 -2.9329664714464802e-02 -5.3675098694195145e-01 +5.2958247119068427e-03
5.9999999999999998e-01 +8.1529897902728408e+00 +0.0000000000000000e+00 +5.9999999988417896e-01 -2.9329788752082968e-02 -5.3675108742608468e-01 +5.2959186596135592e-03
6.9999999999999996e-01 +8.1529861034287006e+00 +0.0000000000000000e+00 +6.9999999981608096e-01 -2.9329908906358695e-02 -5.3675119548941341e-01 +5.2960144104011253e-03
8.0000000000000004e-01 +8.1529818493763706e+00 +0.0000000000000000e+00 +7.9999999972546199e-01 -2.9330025773499153e-02 -5.3675131072451554e-01 +5.2961119303017888e-03
9.0000000000000002e-01 +8.1529770281158598e+00 +0.0000000000000000e+00 +8.9999999960910604e-01 -2.9330139949708421e-02 -5.3675143272394288e-01 +5.2962111853479344e-03
1.0000000000000000e+00 +8.1529716396507901e+00 +0.0000000000000000e+00 +9.9999999946379403e-01 -2.9330252031188053e-02 -5.3675156108022348e-01 +5.2963121415720276e-03
1.1000000000000001e+00 +8.1529656839775306e+00 +0.0000000000000000e+00 +1.0999999992863101e+00 -2.9330362614141969e-02 -5.3675169538594181e-01 +5.2964147650073823e-03
1.2000000000000000e+00 +8.1529591610960797e+00 +0.0000000000000000e+00 +1.1999999990734400e+00 -2.9330472294772626e-02 -5.3675183523365733e-01 +5.2965190216872756e-03
1.3000000000000000e+00 +8.1529520710100805e+00 +0.0000000000000000e+00 +1.2999999988219599e+00 -2.9330581669281496e-02 -5.3675198021590664e-01 +5.2966248776448897e-03
1.3999999999999999e+00 +8.1529444137122500e+00 +0.0000000000000000e+00 +1.3999999985286500e+00 -2.9330691333875513e-02 -5.3675212992530874e-01 +5.2967322989143535e-03
1.5000000000000000e+00 +8.1529361892135093e+00 +0.0000000000000000e+00 +1.4999999981903001e+00 -2.9330801884755914e-02 -5.3675228395435381e-01 +5.2968412515284891e-03
1.6000000000000001e+00 +8.1529273975065699e+00 +0.0000000000000000e+00 +1.5999999978037001e+00 -2.9330913918133302e-02 -5.3675244189566840e-01 +5.2969517015214983e-03
1.7000000000000000e+00 +8.1529180385914497e+00 +0.0000000000000000e+00 +1.6999999973656199e+00 -2.9331028030218007e-02 -5.3675260334183006e-01 +5.2970636149269777e-03
1.8000000000000000e+00 +8.1529081124681397e+00 +0.0000000000000000e+00 +1.7999999968728499e+00 -2.9331144817223567e-02 -5.3675276788542048e-01 +5.2971769577784180e-03
1.8999999999999999e+00 +8.1528976191402798e+00 +0.0000000000000000e+00 +1.8999999963221601e+00 -2.9331264875365786e-02 -5.3675293511899969e-01 +5.2972916961088667e-03
2.0000000000000000e+00 +8.1528865586042194e+00 +0.0000000000000000e+00 +1.9999999957103500e+00 -2.9331388800867594e-02 -5.3675310463518522e-01 +5.2974077959516957e-03
2.1000000000000001e+00 +8.1528749308599799e+00 +0.0000000000000000e+00 +2.0999999950341901e+00 -2.9331517010483640e-02 -5.3675327615750090e-01 +5.2975252531523151e-03
2.2000000000000002e+00 +8.1528627359111905e+00 +0.0000000000000000e+00 +2.1999999942904802e+00 -2.9331649203080436e-02 -5.3675344993315488e-01 +5.2976441828062352e-03
2.2999999999999998e+00 +8.1528499737542006e+00 +0.0000000000000000e+00 +2.2999999934759798e+00 -2.9331784898045544e-02 -5.3675362634032708e-01 +5.2977647298225400e-03
2.3999999999999999e+00 +8.1528366443890299e+00 +0.0000000000000000e+00 +2.3999999925874800e+00 -2.9331923614752217e-02 -5.3675380575716047e-01 +5.2978870391105519e-03
2.5000000000000000e+00 +8.1528227478193003e+00 +0.0000000000000000e+00 +2.4999999916217801e+00 -2.9332064872557982e-02 -5.3675398856175871e-01 +5.2980112555798767e-03
2.6000000000000001e+00 +8.1528082840413791e+00 +0.0000000000000000e+00 +2.5999999905756401e+00 -2.9332208190807660e-02 -5.3675417513226509e-01 +5.2981375241412708e-03
2.7000000000000002e+00 +8.1527932530552807e+00 +0.0000000000000000e+00 +2.6999999894458502e+00 -2.9332353088827555e-02 -5.3675436584678016e-01 +5.2982659897058406e-03
2.7999999999999998e+00 +8.1527776548646198e+00 +0.0000000000000000e+00 +2.7999999882291999e+00 -2.9332499085924082e-02 -5.3675456108336150e-01 +5.2983967971851004e-03
2.8999999999999999e+00 +8.1527614894657692e+00 +0.0000000000000000e+00 +2.8999999869224702e+00 -2.9332645701386769e-02 -5.3675476122010257e-01 +5.2985300914918246e-03
3.0000000000000000e+00 +8.1527447568587394e+00 +0.0000000000000000e+00 +2.9999999855224302e+00 -2.9332792454482455e-02 -5.3675496663504962e-01 +5.2986660175392657e-03
3.1000000000000001e+00 +8.1527274570471508e+00 +0.0000000000000000e+00 +3.0999999840258798e+00 -2.9332938864453945e-02 -5.3675517770620162e-01 +5.2988047202411981e-03
3.2000000000000002e+00 +8.1527095900273707e+00 +0.0000000000000000e+00 +3.1999999824295902e+00 -2.9333084450522962e-02 -5.3675539481158818e-01 +5.2989463445127748e-03
3.2999999999999998e+00 +8.1526911557994008e+00 +0.0000000000000000e+00 +3.2999999807303602e+00 -2.9333228731884348e-02 -5.3675561832918905e-01 +5.2990910352697452e-03
3.3999999999999999e+00 +8.1526721543668792e+00 +0.0000000000000000e+00 +3.3999999789249502e+00 -2.9333371227704789e-02 -5.3675584863693115e-01 +5.2992389374284963e-03
3.5000000000000000e+00 +8.1526525857261696e+00 +0.0000000000000000e+00 +3.4999999770101602e+00 -2.9333511457125653e-02 -5.3675608611276837e-01 +5.2993901959069124e-03
3.6000000000000001e+00 +8.1526324498772702e+00 +0.0000000000000000e+00 +3.5999999749827598e+00 -2.9333648939257346e-02 -5.3675633113460008e-01 +5.2995449556235957e-03
3.7000000000000002e+00 +8.1526117468238208e+00 +0.0000000000000000e+00 +3.6999999728395401e+00 -2.9333783193177858e-02 -5.3675658408026927e-01 +5.2997033614979030e-03
3.7999999999999998e+00 +8.1525904765621799e+00 +0.0000000000000000e+00 +3.7999999705772902e+00 -2.9333913737935733e-02 -5.3675684532764056e-01 +5.2998655584508021e-03
3.8999999999999999e+00 +8.1525686390959908e+00 +0.0000000000000000e+00 +3.8999999681927799e+00 -2.9334040092542930e-02 -5.3675711525449354e-01 +5.3000316914038215e-03
4.0000000000000000e+00 +8.1525462344179704e+00 +0.0000000000000000e+00 +3.9999999656827998e+00 -2.9334161775980611e-02 -5.3675739423865410e-01 +5.3002019052804652e-03
4.0999999999999996e+00 +8.1525232625354001e+00 +0.0000000000000000e+00 +4.0999999630441302e+00 -2.9334278408877465e-02 -5.3675768234149623e-01 +5.3003762818169629e-03
4.2000000000000002e+00 +8.1524997234482708e+00 +0.0000000000000000e+00 +4.1999999602735496e+00 -2.9334390018616721e-02 -5.3675797835918881e-01 +5.3005546500004032e-03
4.2999999999999998e+00 +8.1524756171529607e+00 +0.0000000000000000e+00 +4.2999999573678496e+00 -2.9334496734318146e-02 -5.3675828077162646e-01 +5.3007367756284160e-03
4.4000000000000004e+00 +8.1524509436494608e+00 +0.0000000000000000e+00 +4.3999999543238104e+00 -2.9334598685156324e-02 -5.3675858805869170e-01 +5.3009224244956110e-03
4.5000000000000000e+00 +8.1524257029377605e+00 +0.0000000000000000e+00 +4.4999999511382098e+00 -2.9334696000366086e-02 -5.3675889870028193e-01 +5.3011113623936896e-03
4.5999999999999996e+00 +8.1523998950215208e+00 +0.0000000000000000e+00 +4.5999999478078299e+00 -2.9334788809245026e-02 -5.3675921117628567e-01 +5.3013033551109522e-03
4.7000000000000002e+00 +8.1523735198970808e+00 +0.0000000000000000e+00 +4.6999999443294600e+00 -2.9334877241161895e-02 -5.3675952396666382e-01 +5.3014981684329802e-03
4.7999999999999998e+00 +8.1523465775644599e+00 +0.0000000000000000e+00 +4.7999999406998803e+00 -2.9334961425556201e-02 -5.3675983555137086e-01 +5.3016955681415880e-03
4.9000000000000004e+00 +8.1523190680272801e+00 +0.0000000000000000e+00 +4.8999999369158704e+00 -2.9335041491942212e-02 -5.3676014441035647e-01 +5.3018953200146554e-03
5.0000000000000000e+00 +8.1522909912819195e+00 +0.0000000000000000e+00 +4.9999999329742204e+00 -2.9335117569917316e-02 -5.3676044902364817e-01 +5.3020971898267702e-03
5.0999999999999996e+00 +8.1522623473319999e+00 +0.0000000000000000e+00 +5.0999999288717000e+00 -2.9335189789160172e-02 -5.3676074787124428e-01 +5.3023009433479304e-03
5.2000000000000002e+00 +8.1522331361738907e+00 +0.0000000000000000e+00 +5.1999999246051098e+00 -2.9335258279440540e-02 -5.3676103943322340e-01 +5.3025063463444733e-03
5.2999999999999998e+00 +8.1522033578075899e+00 +0.0000000000000000e+00 +5.2999999201712198e+00 -2.9335323170618897e-02 -5.3676132218966655e-01 +5.3027131645780592e-03
5.4000000000000004e+00 +8.1521730122331100e+00 +0.0000000000000000e+00 +5.3999999155668199e+00 -2.9335384592651871e-02 -5.3676159462068340e-01 +5.3029211638057523e-03
5.5000000000000000e+00 +8.1521420994540694e+00 +0.0000000000000000e+00 +5.4999999107886799e+00 -2.9335442675594854e-02 -5.3676185520638975e-01 +5.3031301097795844e-03
5.5999999999999996e+00 +8.1521106194668391e+00 +0.0000000000000000e+00 +5.5999999058335996e+00 -2.9335497549610217e-02 -5.3676210242698641e-01 +5.3033397682471671e-03
5.7000000000000002e+00 +8.1520785722750606e+00 +0.0000000000000000e+00 +5.6999999006983604e+00 -2.9335549344965576e-02 -5.3676233476265589e-01 +5.3035499049504196e-03
5.7999999999999998e+00 +8.1520459578750906e+00 +0.0000000000000000e+00 +5.7999998953797300e+00 -2.9335598192043611e-02 -5.3676255069367118e-01 +5.3037602856265001e-03
5.9000000000000004e+00 +8.1520127762669308e+00 +0.0000000000000000e+00 +5.8999998898744996e+00 -2.9335644221341602e-02 -5.3676274870031493e-01 +5.3039706760067600e-03
5.9999999999999902e+00 +8.1519790274505795e+00 +0.0000000000000000e+00 +5.9999998841794504e+00 -2.9335687563476966e-02 -5.3676292726291019e-01 +5.3041808418168657e-03
6.0999999999999899e+00 +8.1519447114296799e+00 +0.0000000000000000e+00 +6.0999998782913698e+00 -2.9335728368746008e-02 -5.3676308543363582e-01 +5.3043905975947107e-03
6.1999999999999904e+00 +8.1519098282005906e+00 +0.0000000000000000e+00 +6.1999998722070400e+00 -2.9335766865735628e-02 -5.3676322455213565e-01 +5.3045999531498951e-03
6.2999999999999901e+00 +8.1518743777669407e+00 +0.0000000000000000e+00 +6.2999998659232403e+00 -2.9335803302533856e-02 -5.3676334652985780e-01 +5.3048089671122846e-03
6.3999999999999897e+00 +8.1518383601214701e+00 +0.0000000000000000e+00 +6.3999998594367504e+00 -2.9335837927160654e-02 -5.3676345327834030e-01 +5.3050176981155597e-03
6.4999999999999902e+00 +8.1518017752750893e+00 +0.0000000000000000e+00 +6.4999998527443603e+00 -2.9335870987552366e-02 -5.3676354670899584e-01 +5.3052262047951857e-03
6.5999999999999899e+00 +8.1517646232205205e+00 +0.0000000000000000e+00 +6.5999998458428504e+00 -2.9335902731572067e-02 -5.3676362873338046e-01 +5.3054345457913534e-03
6.6999999999999904e+00 +8.1517269039541098e+00 +0.0000000000000000e+00 +6.6999998387290001e+00 -2.9335933406996941e-02 -5.3676370126303496e-01 +5.3056427797475011e-03
6.7999999999999901e+00 +8.1516886174867995e+00 +0.0000000000000000e+00 +6.7999998313996004e+00 -2.9335963261509900e-02 -5.3676376620939958e-01 +5.3058509653096551e-03
6.8999999999999897e+00 +8.1516497638112906e+00 +0.0000000000000000e+00 +6.8999998238514202e+00 -2.9335992542708546e-02 -5.3676382548406043e-01 +5.3060591611290980e-03
6.9999999999999902e+00 +8.1516103429239593e+00 +0.0000000000000000e+00 +6.9999998160812602e+00 -2.9336021498092512e-02 -5.3676388099858641e-01 +5.3062674258608925e-03
7.0999999999999899e+00 +8.1515703548320708e+00 +0.0000000000000000e+00 +7.0999998080858804e+00 -2.9336050375056533e-02 -5.3676393466447592e-01 +5.3064758181634950e-03
7.1999999999999904e+00 +8.1515297995356395e+00 +0.0000000000000000e+00 +7.1999997998620904e+00 -2.9336079420893665e-02 -5.3676398839329187e-01 +5.3066843967003235e-03
7.2999999999999901e+00 +8.1514886770310095e+00 +0.0000000000000000e+00 +7.2999997914066501e+00 -2.9336108882789785e-02 -5.3676404409663347e-01 +5.3068932201396583e-03
7.3999999999999897e+00 +8.1514469873182005e+00 +0.0000000000000000e+00 +7.3999997827163604e+00 -2.9336139007816758e-02 -5.3676410368608463e-01 +5.3071023471542491e-03
7.4999999999999902e+00 +8.1514047304008308e+00 +0.0000000000000000e+00 +7.4999997737879900e+00 -2.9336170042928350e-02 -5.3676416907321323e-01 +5.3073118364215244e-03
7.5999999999999899e+00 +8.1513619062752696e+00 +0.0000000000000000e+00 +7.5999997646183202e+00 -2.9336202234960525e-02 -5.3676424216965113e-01 +5.3075217466245659e-03
7.6999999999999904e+00 +8.1513185149451601e+00 +0.0000000000000000e+00 +7.6999997552041499e+00 -2.9336235830621737e-02 -5.3676432488698822e-01 +5.3077321364511957e-03
7.7999999999999901e+00 +8.1512745564032194e+00 +0.0000000000000000e+00 +7.7999997455422498e+00 -2.9336271076496064e-02 -5.3676441913690531e-01 +5.3079430645955319e-03
7.8999999999999897e+00 +8.1512300306567305e+00 +0.0000000000000000e+00 +7.8999997356294100e+00 -2.9336308219029113e-02 -5.3676452683098808e-01 +5.3081545897562289e-03
7.9999999999999902e+00 +8.1511849377056897e+00 +0.0000000000000000e+00 +7.9999997254624002e+00 -2.9336347504532630e-02 -5.3676464988088723e-01 +5.3083667706383163e-03
8.0999999999999908e+00 +8.1511392775464593e+00 +0.0000000000000000e+00 +8.0999997150380096e+00 -2.9336389109116994e-02 -5.3676478985735143e-01 +5.3085796404340607e-03
8.1999999999999904e+00 +8.1510930501790408e+00 +0.0000000000000000e+00 +8.1999997043530293e+00 -2.9336432928549032e-02 -5.3676494696734689e-01 +5.3087931302632811e-03
8.2999999999999901e+00 +8.1510462556034309e+00 +0.0000000000000000e+00 +8.2999996934042404e+00 -2.9336478788532596e-02 -5.3676512107691055e-01 +5.3090071457287625e-03
8.3999999999999897e+00 +8.1509988938232691e+00 +0.0000000000000000e+00 +8.3999996821884100e+00 -2.9336526514784363e-02 -5.3676531205207179e-01 +5.3092215924351585e-03
8.4999999999999893e+00 +8.1509509648349194e+00 +0.0000000000000000e+00 +8.4999996707023406e+00 -2.9336575933039063e-02 -5.3676551975893105e-01 +5.3094363759898606e-03
8.5999999999999908e+00 +8.1509024686420197e+00 +0.0000000000000000e+00 +8.5999996589427994e+00 -2.9336626869044667e-02 -5.3676574406355504e-01 +5.3096514020019442e-03
8.6999999999999904e+00 +8.1508534052409196e+00 +0.0000000000000000e+00 +8.6999996469065692e+00 -2.9336679148568880e-02 -5.3676598483208238e-01 +5.3098665760833164e-03
8.7999999999999794e+00 +8.1508037746316404e+00 +0.0000000000000000e+00 +8.7999996345904599e+00 -2.9336732597395884e-02 -5.3676624193064448e-01 +5.3100818038479478e-03
8.8999999999999808e+00 +8.1507535768178094e+00 +0.0000000000000000e+00 +8.8999996219912205e+00 -2.9336787041327105e-02 -5.3676651522536667e-01 +5.3102969909119063e-03
8.9999999999999805e+00 +8.1507028117957798e+00 +0.0000000000000000e+00 +8.9999996091056396e+00 -2.9336842306186533e-02 -5.3676680458244641e-01 +5.3105120428942523e-03
9.0999999999999801e+00 +8.1506514795655693e+00 +0.0000000000000000e+00 +9.0999995959305195e+00 -2.9336898217817146e-02 -5.3676710986807608e-01 +5.3107268654162482e-03
9.1999999999999797e+00 +8.1505995801308000e+00 +0.0000000000000000e+00 +9.1999995824626293e+00 -2.9336954602081942e-02 -5.3676743094844226e-01 +5.3109413641014144e-03
9.2999999999999794e+00 +8.1505471134878498e+00 +0.0000000000000000e+00 +9.2999995686987500e+00 -2.9337011284869069e-02 -5.3676776768980472e-01 +5.3111554445763962e-03
9.3999999999999808e+00 +8.1504940796366991e+00 +0.0000000000000000e+00 +9.3999995546356701e+00 -2.9337068092088428e-02 -5.3676811995842000e-01 +5.3113690124702000e-03
9.4999999999999805e+00 +8.1504404785773694e+00 +0.0000000000000000e+00 +9.4999995402701707e+00 -2.9337124849673941e-02 -5.3676848762056428e-01 +5.3115819734145106e-03
9.5999999999999801e+00 +8.1503863103171206e+00 +0.0000000000000000e+00 +9.5999995255990296e+00 -2.9337181383581643e-02 -5.3676887054248379e-01 +5.3117942330431879e-03
9.6999999999999797e+00 +8.1503315748450404e+00 +0.0000000000000000e+00 +9.6999995106190298e+00 -2.9337237519800618e-02 -5.3676926859058050e-01 +5.3120056969942512e-03
9.7999999999999794e+00 +8.1502762721684103e+00 +0.0000000000000000e+00 +9.7999994953269702e+00 -2.9337293084339459e-02 -5.3676968163114547e-01 +5.3122162709071776e-03
9.8999999999999808e+00 +8.1502204022835905e+00 +0.0000000000000000e+00 +9.8999994797196091e+00 -2.9337347903238713e-02 -5.3677010953057314e-01 +5.3124258604251408e-03
9.9999999999999805e+00 +8.1501639651905897e+00 +0.0000000000000000e+00 +9.9999994637937508e+00 -2.9337401802565995e-02 -5.3677055215525404e-01 +5.3126343711939784e-03
1.0100000000000000e+01 +8.1501069608966592e+00 +0.0000000000000000e+00 +1.0099999447546200e+01 -2.9337454651986158e-02 -5.3677100913302633e-01 +5.3128417411630402e-03
1.0199999999999999e+01 +8.1500493893909205e+00 +0.0000000000000000e+00 +1.0199999430973600e+01 -2.9337506495485378e-02 -5.3677147913772849e-01 +5.3130480374902868e-03
1.0300000000000001e+01 +8.1499912506769796e+00 +0.0000000000000000e+00 +1.0299999414073000e+01 -2.9337557420641935e-02 -5.3677196060445287e-01 +5.3132533596315906e-03
1.0400000000000000e+01 +8.1499325447584905e+00 +0.0000000000000000e+00 +1.0399999396840901e+01 -2.9337607515060066e-02 -5.3677245196817025e-01 +5.3134578070390161e-03
1.0500000000000000e+01 +8.1498732716317992e+00 +0.0000000000000000e+00 +1.0499999379274200e+01 -2.9337656866373667e-02 -5.3677295166377892e-01 +5.3136614791612800e-03
1.0600000000000000e+01 +8.1498134313005703e+00 +0.0000000000000000e+00 +1.0599999361369800e+01 -2.9337705562241221e-02 -5.3677345812599619e-01 +5.3138644754425202e-03
1.0699999999999999e+01 +8.1497530237611500e+00 +0.0000000000000000e+00 +1.0699999343124301e+01 -2.9337753690352311e-02 -5.3677396978945990e-01 +5.3140668953232740e-03
1.0800000000000001e+01 +8.1496920490171796e+00 +0.0000000000000000e+00 +1.0799999324534600e+01 -2.9337801338422620e-02 -5.3677448508862058e-01 +5.3142688382392727e-03
1.0900000000000000e+01 +8.1496305070650106e+00 +0.0000000000000000e+00 +1.0899999305597399e+01 -2.9337848594200439e-02 -5.3677500245784382e-01 +5.3144704036224219e-03
1.1000000000000000e+01 +8.1495683979046607e+00 +0.0000000000000000e+00 +1.0999999286309500e+01 -2.9337895545463042e-02 -5.3677552033132758e-01 +5.3146716908998356e-03
1.1100000000000000e+01 +8.1495057215361193e+00 +0.0000000000000000e+00 +1.1099999266667700e+01 -2.9337942280018944e-02 -5.3677603714312572e-01 +5.3148727994940352e-03
1.1199999999999999e+01 +8.1494424779630208e+00 +0.0000000000000000e+00 +1.1199999246668799e+01 -2.9337988885707152e-02 -5.3677655132711721e-01 +5.3150738288225063e-03
1.1300000000000001e+01 +8.1493786671817396e+00 +0.0000000000000000e+00 +1.1299999226309600e+01 -2.9338035450402245e-02 -5.3677706131708447e-01 +5.3152748782984583e-03
1.1400000000000000e+01 +8.1493142891922599e+00 +0.0000000000000000e+00 +1.1399999205586900e+01 -2.9338082062010818e-02 -5.3677756554662981e-01 +5.3154760473298375e-03
1.1500000000000000e+01 +8.1492493440018698e+00 +0.0000000000000000e+00 +1.1499999184497300e+01 -2.9338128808470736e-02 -5.3677806244914406e-01 +5.3156774353189540e-03
1.1600000000000000e+01 +8.1491838315996592e+00 +0.0000000000000000e+00 +1.1599999163037801e+01 -2.9338175777762033e-02 -5.3677855045799339e-01 +5.3158791416642905e-03
1.1699999999999999e+01 +8.1491177519928897e+00 +0.0000000000000000e+00 +1.1699999141205099e+01 -2.9338223057893173e-02 -5.3677902800624555e-01 +5.3160812657576176e-03
1.1800000000000001e+01 +8.1490511051779304e+00 +0.0000000000000000e+00 +1.1799999118996000e+01 -2.9338270736913381e-02 -5.3677949352688337e-01 +5.3162839069860980e-03
