# field on trajectory
# s[mm] rx[mm] ry[mm] rz[mm] bx[T] by[T] bz[T]
0.0000000000000000e+00 +8.1530000000000094e+00 +0.0000000000000000e+00 +0.0000000000000000e+00 -2.9328965408874277e-02 -5.3675061247036315e-01 +5.2953832085065036e-03
1.0000000000000001e-01 +8.1529997159377707e+00 +0.0000000000000000e+00 +1.0008006405070299e-01 -2.9329117925566389e-02 -5.3675066899578561e-01 +5.2954676996565591e-03
2.0000000000000001e-01 +8.1529988637557800e+00 +0.0000000000000000e+00 +2.0016012809818201e-01 -2.9329263567329136e-02 -5.3675073515279748e-01 +5.2955541668695833e-03
2.9999999999999999e-01 +8.1529974434524792e+00 +0.0000000000000000e+00 +3.0024019213920999e-01 -2.9329402931818141e-02 -5.3675081053297558e-01 +5.2956425760930653e-03
4.0000000000000002e-01 +8.1529954550242092e+00 +0.0000000000000000e+00 +4.0032025617056399e-01 -2.9329536616685564e-02 -5.3675089472791271e-01 +5.2957328932753539e-03
5.0000000000000000e-01 +8.1529928984782600e+00 +0.0000000000000000e+00 +5.0040032018901703e-01 -2.9329665219575446e-02 -5.3675098732912196e-01 +5.2958250843646304e-03
5.9999999999999998e-01 +8.1529897738146193e+00 +0.0000000000000000e+00 +6.0048038419134497e-01 -2.9329789338131511e-02 -5.3675108792817172e-01 +5.2959191153102055e-03
6.9999999999999996e-01 +8.1529860810223909e+00 +0.0000000000000000e+00 +7.0056044817432195e-01 -2.9329909569999119e-02 -5.3675119611671129e-01 +5.2960149520627497e-03
8.0000000000000004e-01 +8.1529818201124709e+00 +0.0000000000000000e+00 +8.0064051213472498e-01 -2.9330026512812846e-02 -5.3675131148623190e-01 +5.2961125605717604e-03
9.0000000000000002e-01 +8.1529769910812302e+00 +0.0000000000000000e+00 +9.0072057606932698e-01 -2.9330140764211379e-02 -5.3675143362833277e-01 +5.2962119067882481e-03
1.0000000000000000e+00 +8.1529715939250291e+00 +0.0000000000000000e+00 +1.0008006399749001e+00 -2.9330252921832362e-02 -5.3675156213461717e-01 +5.2963129566635731e-03
1.1000000000000001e+00 +8.1529656286511507e+00 +0.0000000000000000e+00 +1.1008807038482300e+00 -2.9330363583308528e-02 -5.3675169659660793e-01 +5.2964156761485812e-03
1.2000000000000000e+00 +8.1529590952522994e+00 +0.0000000000000000e+00 +1.2009607676860801e+00 -2.9330473346278398e-02 -5.3675183660594017e-01 +5.2965200311954480e-03
1.3000000000000000e+00 +8.1529519937357708e+00 +0.0000000000000000e+00 +1.3010408314852300e+00 -2.9330582808375232e-02 -5.3675198175414340e-01 +5.2966259877554331e-03
1.3999999999999999e+00 +8.1529443240979198e+00 +0.0000000000000000e+00 +1.4011208952424601e+00 -2.9330692567237665e-02 -5.3675213163283109e-01 +5.2967335117807398e-03
1.5000000000000000e+00 +8.1529360863350995e+00 +0.0000000000000000e+00 +1.5012009589545301e+00 -2.9330803220505939e-02 -5.3675228583362100e-01 +5.2968425692236391e-03
1.6000000000000001e+00 +8.1529272804509691e+00 +0.0000000000000000e+00 +1.6012810226182299e+00 -2.9330915365819540e-02 -5.3675244394807975e-01 +5.2969531260358641e-03
1.7000000000000000e+00 +8.1529179064491508e+00 +0.0000000000000000e+00 +1.7013610862303301e+00 -2.9331029600820600e-02 -5.3675260556777915e-01 +5.2970651481690821e-03
1.8000000000000000e+00 +8.1529079643223703e+00 +0.0000000000000000e+00 +1.8014411497875999e+00 -2.9331146523158786e-02 -5.3675277028437496e-01 +5.2971786015756821e-03
1.8999999999999999e+00 +8.1528974540779000e+00 +0.0000000000000000e+00 +1.9015212132868200e+00 -2.9331266730481715e-02 -5.3675293768942123e-01 +5.2972934522067831e-03
2.0000000000000000e+00 +8.1528863757084800e+00 +0.0000000000000000e+00 +2.0016012767247702e+00 -2.9331390820446342e-02 -5.3675310737458315e-01 +5.2974096660144956e-03
2.1000000000000001e+00 +8.1528747292177304e+00 +0.0000000000000000e+00 +2.1016813400982199e+00 -2.9331519202035691e-02 -5.3675327906909309e-01 +5.2975272402911236e-03
2.2000000000000002e+00 +8.1528625146056601e+00 +0.0000000000000000e+00 +2.2017614034039301e+00 -2.9331651564895835e-02 -5.3675345302697908e-01 +5.2976462918207399e-03
2.2999999999999998e+00 +8.1528497318759001e+00 +0.0000000000000000e+00 +2.3018414666387002e+00 -2.9331787427255909e-02 -5.3675362962727724e-01 +5.2977669658602275e-03
2.3999999999999999e+00 +8.1528363810211903e+00 +0.0000000000000000e+00 +2.4019215297993002e+00 -2.9331926307336453e-02 -5.3675380924909200e-01 +5.2978894076678067e-03
2.5000000000000000e+00 +8.1528224620451493e+00 +0.0000000000000000e+00 +2.5020015928824901e+00 -2.9332067723339340e-02 -5.3675399227143572e-01 +5.2980137625014368e-03
2.6000000000000001e+00 +8.1528079749477893e+00 +0.0000000000000000e+00 +2.6020816558850601e+00 -2.9332211193452168e-02 -5.3675417907333389e-01 +5.2981401756199489e-03
2.7000000000000002e+00 +8.1527929197291105e+00 +0.0000000000000000e+00 +2.7021617188037701e+00 -2.9332356235845423e-02 -5.3675437003379567e-01 +5.2982687922828132e-03
2.7999999999999998e+00 +8.1527772963891003e+00 +0.0000000000000000e+00 +2.8022417816354102e+00 -2.9332502368671073e-02 -5.3675456553181411e-01 +5.2983997577501756e-03
2.8999999999999999e+00 +8.1527611049277802e+00 +0.0000000000000000e+00 +2.9023218443767500e+00 -2.9332649110061153e-02 -5.3675476594636362e-01 +5.2985332172829011e-03
3.0000000000000000e+00 +8.1527443453451305e+00 +0.0000000000000000e+00 +3.0024019070245598e+00 -2.9332795978126429e-02 -5.3675497165639940e-01 +5.2986693161426127e-03
3.1000000000000001e+00 +8.1527270176411495e+00 +0.0000000000000000e+00 +3.1024819695756198e+00 -2.9332942490954909e-02 -5.3675518304085479e-01 +5.2988081995917237e-03
3.2000000000000002e+00 +8.1527091218158603e+00 +0.0000000000000000e+00 +3.2025620320267101e+00 -2.9333088166610535e-02 -5.3675540047864156e-01 +5.2989500128934885e-03
3.2999999999999998e+00 +8.1526906578692397e+00 +0.0000000000000000e+00 +3.3026420943745900e+00 -2.9333232523131733e-02 -5.3675562434864610e-01 +5.2990949013120361e-03
3.3999999999999999e+00 +8.1526716258013003e+00 +0.0000000000000000e+00 +3.4027221566160502e+00 -2.9333375078530049e-02 -5.3675585502973122e-01 +5.2992430101124069e-03
3.5000000000000000e+00 +8.1526520256120403e+00 +0.0000000000000000e+00 +3.5028022187478500e+00 -2.9333515350788725e-02 -5.3675609290073156e-01 +5.2993944845605998e-03
3.6000000000000001e+00 +8.1526318572978198e+00 +0.0000000000000000e+00 +3.6028822807667802e+00 -2.9333652857862769e-02 -5.3675633834048053e-01 +5.2995494699238791e-03
3.7000000000000002e+00 +8.1526111208659096e+00 +0.0000000000000000e+00 +3.7029623426696099e+00 -2.9333787117671786e-02 -5.3675659172770185e-01 +5.2997081114697217e-03
3.7999999999999998e+00 +8.1525898163126804e+00 +0.0000000000000000e+00 +3.8030424044531101e+00 -2.9333917648107201e-02 -5.3675685344116741e-01 +5.2998705544674935e-03
3.8999999999999999e+00 +8.1525679436344909e+00 +0.0000000000000000e+00 +3.9031224661140600e+00 -2.9334043967026577e-02 -5.3675712385961771e-01 +5.3000369441876831e-03
4.0000000000000000e+00 +8.1525455028386205e+00 +0.0000000000000000e+00 +4.0032025276492398e+00 -2.9334165592251264e-02 -5.3675740336166844e-01 +5.3002074258990169e-03
4.0999999999999996e+00 +8.1525224939177896e+00 +0.0000000000000000e+00 +4.1032825890554099e+00 -2.9334282153594873e-02 -5.3675769197755474e-01 +5.3003820752643505e-03
4.2000000000000002e+00 +8.1524989168792708e+00 +0.0000000000000000e+00 +4.2033626503293604e+00 -2.9334393687980364e-02 -5.3675798847102352e-01 +5.3005607149710149e-03
4.2999999999999998e+00 +8.1524747717157897e+00 +0.0000000000000000e+00 +4.3034427114678504e+00 -2.9334500324841101e-02 -5.3675829131834230e-01 +5.3007431102538296e-03
4.4000000000000004e+00 +8.1524500584346207e+00 +0.0000000000000000e+00 +4.4035227724676700e+00 -2.9334602193661307e-02 -5.3675859899568612e-01 +5.3009290263437703e-03
4.5000000000000000e+00 +8.1524247770285001e+00 +0.0000000000000000e+00 +4.5036028333255800e+00 -2.9334699423991532e-02 -5.3675890997935272e-01 +5.3011182284699787e-03
4.5999999999999996e+00 +8.1523989275046898e+00 +0.0000000000000000e+00 +4.6036828940383696e+00 -2.9334792145441119e-02 -5.3675922274555055e-01 +5.3013104818573674e-03
4.7000000000000002e+00 +8.1523725098559208e+00 +0.0000000000000000e+00 +4.7037629546028104e+00 -2.9334880487693817e-02 -5.3675953577061364e-01 +5.3015055517286408e-03
4.7999999999999998e+00 +8.1523455240894709e+00 +0.0000000000000000e+00 +4.8038430150156701e+00 -2.9334964580500153e-02 -5.3675984753078998e-01 +5.3017032033019105e-03
4.9000000000000004e+00 +8.1523179701980606e+00 +0.0000000000000000e+00 +4.9039230752737302e+00 -2.9335044553693089e-02 -5.3676015650245712e-01 +5.3019032017927121e-03
5.0000000000000000e+00 +8.1522898481889605e+00 +0.0000000000000000e+00 +5.0040031353737602e+00 -2.9335120537180376e-02 -5.3676046116190801e-01 +5.3021053124115980e-03
5.0999999999999996e+00 +8.1522611580549000e+00 +0.0000000000000000e+00 +5.1040831953125396e+00 -2.9335192660960206e-02 -5.3676075998556949e-01 +5.3023093003661884e-03
5.2000000000000002e+00 +8.1522318997995207e+00 +0.0000000000000000e+00 +5.2041632550868497e+00 -2.9335261055115025e-02 -5.3676105144981401e-01 +5.3025149308590282e-03
5.2999999999999998e+00 +8.1522020734228100e+00 +0.0000000000000000e+00 +5.3042433146934496e+00 -2.9335325849821414e-02 -5.3676133403106985e-01 +5.3027219690885150e-03
5.4000000000000004e+00 +8.1521716789247893e+00 +0.0000000000000000e+00 +5.4043233741291203e+00 -2.9335387175352532e-02 -5.3676160620579461e-01 +5.3029301802484385e-03
5.5000000000000000e+00 +8.1521407163090807e+00 +0.0000000000000000e+00 +5.5044034333906504e+00 -2.9335445162080788e-02 -5.3676186645045132e-01 +5.3031393295275182e-03
5.5999999999999996e+00 +8.1521091855684098e+00 +0.0000000000000000e+00 +5.6044834924747899e+00 -2.9335499940487564e-02 -5.3676211324161682e-01 +5.3033491821103179e-03
5.7000000000000002e+00 +8.1520770867064094e+00 +0.0000000000000000e+00 +5.7045635513783299e+00 -2.9335551641158558e-02 -5.3676234505582121e-01 +5.3035595031754095e-03
5.7999999999999998e+00 +8.1520444197231008e+00 +0.0000000000000000e+00 +5.8046436100980499e+00 -2.9335600394793573e-02 -5.3676256036965864e-01 +5.3037700578962808e-03
5.9000000000000004e+00 +8.1520111846184609e+00 +0.0000000000000000e+00 +5.9047236686307096e+00 -2.9335646332209087e-02 -5.3676275765976134e-01 +5.3039806114408925e-03
5.9999999999999902e+00 +8.1519773813925003e+00 +0.0000000000000000e+00 +6.0048037269731003e+00 -2.9335689584344415e-02 -5.3676293540286357e-01 +5.3041909289768844e-03
6.0999999999999899e+00 +8.1519430100452208e+00 +0.0000000000000000e+00 +6.1048837851219799e+00 -2.9335730304818217e-02 -5.3676309273527423e-01 +5.3044008319705158e-03
6.1999999999999904e+00 +8.1519080705766100e+00 +0.0000000000000000e+00 +6.2049638430741396e+00 -2.9335768725454292e-02 -5.3676323107847612e-01 +5.3046103369686678e-03
6.2999999999999901e+00 +8.1518725629866804e+00 +0.0000000000000000e+00 +6.3050439008263499e+00 -2.9335805094934986e-02 -5.3676335234853934e-01 +5.3048195027425582e-03
6.3999999999999897e+00 +8.1518364872754301e+00 +0.0000000000000000e+00 +6.4051239583753699e+00 -2.9335839661869867e-02 -5.3676345846154372e-01 +5.3050283880664165e-03
6.4999999999999902e+00 +8.1517998434428591e+00 +0.0000000000000000e+00 +6.5052040157180002e+00 -2.9335872674791583e-02 -5.3676355133357800e-01 +5.3052370517176579e-03
6.5999999999999899e+00 +8.1517626314889604e+00 +0.0000000000000000e+00 +6.6052840728510001e+00 -2.9335904382151883e-02 -5.3676363288074036e-01 +5.3054455524770587e-03
6.6999999999999904e+00 +8.1517248514137499e+00 +0.0000000000000000e+00 +6.7053641297711399e+00 -2.9335935032317573e-02 -5.3676370501913906e-01 +5.3056539491289348e-03
6.7999999999999901e+00 +8.1516865032135701e+00 +0.0000000000000000e+00 +6.8054441864752100e+00 -2.9335964873567877e-02 -5.3676376966491846e-01 +5.3058623004616058e-03
6.8999999999999897e+00 +8.1516475868957095e+00 +0.0000000000000000e+00 +6.9055242429599701e+00 -2.9335994154084697e-02 -5.3676382873415229e-01 +5.3060706652664482e-03
6.9999999999999902e+00 +8.1516081024565192e+00 +0.0000000000000000e+00 +7.0056042992222096e+00 -2.9336023121957162e-02 -5.3676388414300524e-01 +5.3062791023397492e-03
7.0999999999999899e+00 +8.1515680498960101e+00 +0.0000000000000000e+00 +7.1056843552586999e+00 -2.9336052025171880e-02 -5.3676393780762488e-01 +5.3064876704817686e-03
7.1999999999999904e+00 +8.1515274292141804e+00 +0.0000000000000000e+00 +7.2057644110662000e+00 -2.9336081111610315e-02 -5.3676399164416988e-01 +5.3066964284971957e-03
7.2999999999999901e+00 +8.1514862404073902e+00 +0.0000000000000000e+00 +7.3058444666415099e+00 -2.9336110629046189e-02 -5.3676404756883533e-01 +5.3069054351956016e-03
7.3999999999999897e+00 +8.1514444834829192e+00 +0.0000000000000000e+00 +7.4059245219813796e+00 -2.9336140825135693e-02 -5.3676410749774728e-01 +5.3071147493905201e-03
7.4999999999999902e+00 +8.1514021584334806e+00 +0.0000000000000000e+00 +7.5060045770826100e+00 -2.9336171947423533e-02 -5.3676417334714954e-01 +5.3073244299015488e-03
7.5999999999999899e+00 +8.1513592652663593e+00 +0.0000000000000000e+00 +7.6060846319419504e+00 -2.9336204243327384e-02 -5.3676424703318981e-01 +5.3075345355523213e-03
7.6999999999999904e+00 +8.1513158039779192e+00 +0.0000000000000000e+00 +7.7061646865561997e+00 -2.9336237960143920e-02 -5.3676433047210681e-01 +5.3077451251726110e-03
7.7999999999999901e+00 +8.1512717745681602e+00 +0.0000000000000000e+00 +7.8062447409221098e+00 -2.9336273345039042e-02 -5.3676442558012472e-01 +5.3079562575974208e-03
7.8999999999999897e+00 +8.1512271770334301e+00 +0.0000000000000000e+00 +7.9063247950364799e+00 -2.9336310645046670e-02 -5.3676453427350512e-01 +5.3081679916676897e-03
7.9999999999999902e+00 +8.1511820113773901e+00 +0.0000000000000000e+00 +8.0064048488960609e+00 -2.9336350107042077e-02 -5.3676465846837784e-01 +5.3083803862229613e-03
8.0999999999999908e+00 +8.1511362776036496e+00 +0.0000000000000000e+00 +8.1064849024976393e+00 -2.9336391893236977e-02 -5.3676479966957702e-01 +5.3085934693227520e-03
8.1999999999999904e+00 +8.1510899757086008e+00 +0.0000000000000000e+00 +8.2065649558379903e+00 -2.9336435886507372e-02 -5.3676495802308488e-01 +5.3088071673178987e-03
8.2999999999999901e+00 +8.1510431056885899e+00 +0.0000000000000000e+00 +8.3066450089139003e+00 -2.9336481912140455e-02 -5.3676513339464471e-01 +5.3090213855846906e-03
8.3999999999999897e+00 +8.1509956675508892e+00 +0.0000000000000000e+00 +8.4067250617221205e+00 -2.9336529795433511e-02 -5.3676532564993817e-01 +5.3092360295007458e-03
8.4999999999999893e+00 +8.1509476612882299e+00 +0.0000000000000000e+00 +8.5068051142594392e+00 -2.9336579361704865e-02 -5.3676553465477173e-01 +5.3094510044469669e-03
8.5999999999999908e+00 +8.1508990869078808e+00 +0.0000000000000000e+00 +8.6068851665226305e+00 -2.9336630436283234e-02 -5.3676576027486467e-01 +5.3096662158054085e-03
8.6999999999999904e+00 +8.1508499444025801e+00 +0.0000000000000000e+00 +8.7069652185084596e+00 -2.9336682844520189e-02 -5.3676600237606209e-01 +5.3098815689615201e-03
8.7999999999999794e+00 +8.1508002337759500e+00 +0.0000000000000000e+00 +8.8070452702137203e+00 -2.9336736411780924e-02 -5.3676626082414836e-01 +5.3100969693022663e-03
8.8999999999999808e+00 +8.1507499550316407e+00 +0.0000000000000000e+00 +8.9071253216351796e+00 -2.9336790963449478e-02 -5.3676653548492759e-01 +5.3103123222170059e-03
8.9999999999999805e+00 +8.1506991081623692e+00 +0.0000000000000000e+00 +9.0072053727696098e+00 -2.9336846324934000e-02 -5.3676682622430483e-01 +5.3105275330983717e-03
9.0999999999999801e+00 +8.1506476931717806e+00 +0.0000000000000000e+00 +9.1072854236137797e+00 -2.9336902321658902e-02 -5.3676713290812517e-01 +5.3107425073406567e-03
9.1999999999999797e+00 +8.1505957100635005e+00 +0.0000000000000000e+00 +9.2073654741644795e+00 -2.9336958779070180e-02 -5.3676745540225457e-01 +5.3109571503407041e-03
9.2999999999999794e+00 +8.1505431588302599e+00 +0.0000000000000000e+00 +9.3074455244184708e+00 -2.9337015522640543e-02 -5.3676779357266058e-01 +5.3111713674987675e-03
9.3999999999999808e+00 +8.1504900394757005e+00 +0.0000000000000000e+00 +9.4075255743725297e+00 -2.9337072377861702e-02 -5.3676814728525191e-01 +5.3113850642169209e-03
9.4999999999999805e+00 +8.1504363520034495e+00 +0.0000000000000000e+00 +9.5076056240234408e+00 -2.9337129170249582e-02 -5.3676851640595935e-01 +5.3115981458999317e-03
9.5999999999999801e+00 +8.1503820964062506e+00 +0.0000000000000000e+00 +9.6076856733679694e+00 -2.9337185725349543e-02 -5.3676890080081541e-01 +5.3118105179561339e-03
9.6999999999999797e+00 +8.1503272726913600e+00 +0.0000000000000000e+00 +9.7077657224029004e+00 -2.9337241868727153e-02 -5.3676930033576975e-01 +5.3120220857955482e-03
9.7999999999999794e+00 +8.1502718808515109e+00 +0.0000000000000000e+00 +9.8078457711250007e+00 -2.9337297425980659e-02 -5.3676971487689995e-01 +5.3122327548321508e-03
9.8999999999999808e+00 +8.1502159208903304e+00 +0.0000000000000000e+00 +9.9079258195310498e+00 -2.9337352222731750e-02 -5.3677014429022807e-01 +5.3124424304819718e-03
9.9999999999999805e+00 +8.1501593928078400e+00 +0.0000000000000000e+00 +1.0008005867617801e+01 -2.9337406084654551e-02 -5.3677058844170300e-01 +5.3126510181808438e-03
1.0100000000000000e+01 +8.1501022966040200e+00 +0.0000000000000000e+00 +1.0108085915382100e+01 -2.9337458892381953e-02 -5.3677104689659372e-01 +5.3128584640891978e-03
1.0199999999999999e+01 +8.1500446322825209e+00 +0.0000000000000000e+00 +1.0208165962820599e+01 -2.9337510699668359e-02 -5.3677151827251990e-01 +5.3130648426911687e-03
1.0300000000000001e+01 +8.1499863998360507e+00 +0.0000000000000000e+00 +1.0308246009930199e+01 -2.9337561594308982e-02 -5.3677200100088351e-01 +5.3132702536822255e-03
1.0400000000000000e+01 +8.1499275992682705e+00 +0.0000000000000000e+00 +1.0408326056707599e+01 -2.9337611664120859e-02 -5.3677249351288214e-01 +5.3134747967531898e-03
1.0500000000000000e+01 +8.1498682305791608e+00 +0.0000000000000000e+00 +1.0508406103149600e+01 -2.9337660996949341e-02 -5.3677299423961544e-01 +5.3136785715912288e-03
1.0600000000000000e+01 +8.1498082937723701e+00 +0.0000000000000000e+00 +1.0608486149253000e+01 -2.9337709680665968e-02 -5.3677350161202653e-01 +5.3138816778791828e-03
1.0699999999999999e+01 +8.1497477888406102e+00 +0.0000000000000000e+00 +1.0708566195014500e+01 -2.9337757803174984e-02 -5.3677401406100600e-01 +5.3140842152965551e-03
1.0800000000000001e+01 +8.1496867157875403e+00 +0.0000000000000000e+00 +1.0808646240430900e+01 -2.9337805452405441e-02 -5.3677453001722908e-01 +5.3142862835177272e-03
1.0900000000000000e+01 +8.1496250746131391e+00 +0.0000000000000000e+00 +1.0908726285499000e+01 -2.9337852716317715e-02 -5.3677504791125952e-01 +5.3144879822129669e-03
1.1000000000000000e+01 +8.1495628653174208e+00 +0.0000000000000000e+00 +1.1008806330215601e+01 -2.9337899682902784e-02 -5.3677556617351829e-01 +5.3146894110479986e-03
1.1100000000000000e+01 +8.1495000879040198e+00 +0.0000000000000000e+00 +1.1108886374577500e+01 -2.9337946440181568e-02 -5.3677608323425519e-01 +5.3148906696836480e-03
1.1199999999999999e+01 +8.1494367423620098e+00 +0.0000000000000000e+00 +1.1208966418581401e+01 -2.9337993076212900e-02 -5.3677659752367923e-01 +5.3150918577770769e-03
1.1300000000000001e+01 +8.1493728287059604e+00 +0.0000000000000000e+00 +1.1309046462224000e+01 -2.9338039679078314e-02 -5.3677710747165952e-01 +5.3152930749786323e-03
1.1400000000000000e+01 +8.1493083469249505e+00 +0.0000000000000000e+00 +1.1409126505502300e+01 -2.9338086336903126e-02 -5.3677761150809955e-01 +5.3154944209356019e-03
1.1500000000000000e+01 +8.1492432970226201e+00 +0.0000000000000000e+00 +1.1509206548412800e+01 -2.9338133137841199e-02 -5.3677810806263715e-01 +5.3156959952890513e-03
1.1600000000000000e+01 +8.1491776789989707e+00 +0.0000000000000000e+00 +1.1609286590952600e+01 -2.9338180170082957e-02 -5.3677859556477625e-01 +5.3158978976750827e-03
1.1699999999999999e+01 +8.1491114928576298e+00 +0.0000000000000000e+00 +1.1709366633118099e+01 -2.9338227521853222e-02 -5.3677907244383016e-01 +5.3161002277241727e-03
1.1800000000000001e+01 +8.1490447385876905e+00 +0.0000000000000000e+00 +1.1809446674906400e+01 -2.9338275281419225e-02 -5.3677953712905258e-01 +5.3163030850624238e-03
