# multipoles
# s[mm] polynom_b[n=0][T/m^n] polynom_b[n=1][T/m^n] polynom_b[n=2][T/m^n] polynom_b[n=3][T/m^n] polynom_b[n=4][T/m^n] polynom_b[n=5][T/m^n] polynom_b[n=6][T/m^n] 
+0.0000000000000000e+00 -5.6444066437140483e-01 +7.7313435326923381e+00 -7.7515177706380933e-01 -2.4873700273120214e+01 +9.0110487132567450e+03 -3.1436151451404323e+04 -4.9034508956861988e+07 
+1.0000000000000001e-01 -5.6444076719481862e-01 +7.7313559014718347e+00 -7.6496652365337292e-01 -2.4755274944158046e+01 +8.8545238927030841e+03 -3.2267190779270375e+04 -4.8406814253826708e+07 
+2.0000000000000001e-01 -5.6444086755999068e-01 +7.7313626536688123e+00 -7.5576219002996847e-01 -2.4501381109631307e+01 +8.7103117771651687e+03 -3.3885083725493387e+04 -4.7819045478562489e+07 
+3.0000000000000004e-01 -5.6444096561343371e-01 +7.7313640272486808e+00 -7.4749188975511249e-01 -2.4121083162934990e+01 +8.5779254719688179e+03 -3.6232700876708288e+04 -4.7269837475781649e+07 
+4.0000000000000002e-01 -5.6444106150162354e-01 +7.7313602601894038e+00 -7.4010873976847191e-01 -2.3623445846319029e+01 +8.4568781416289839e+03 -3.9252910922620940e+04 -4.6757825354909040e+07 
+5.0000000000000000e-01 -5.6444115537098793e-01 +7.7313515904643078e+00 -7.3356586288405268e-01 -2.3017533753620707e+01 +8.3466830613585971e+03 -4.2888583522546629e+04 -4.6281644744536467e+07 
+5.9999999999999998e-01 -5.6444124736800694e-01 +7.7313382560590771e+00 -7.2781637486642570e-01 -2.2312411822275095e+01 +8.2468533719575553e+03 -4.7082586449061069e+04 -4.5839930630592026e+07 
+6.9999999999999996e-01 -5.6444133763905169e-01 +7.7313204949596610e+00 -7.2281340387719595e-01 -2.1517144989126106e+01 +8.1569024439129007e+03 -5.1777787563607832e+04 -4.5431319075629413e+07 
+7.9999999999999993e-01 -5.6444142633054717e-01 +7.7312985451593059e+00 -7.1851007128517874e-01 -2.0640798405489779e+01 +8.0763435197974995e+03 -5.6917053529769350e+04 -4.5054445537088439e+07 
+8.9999999999999991e-01 -5.6444151358886552e-01 +7.7312726446502396e+00 -7.1485950380971519e-01 -1.9692437196663235e+01 +8.0046899409273183e+03 -6.2443251197116391e+04 -4.4707945938797556e+07 
+9.9999999999999989e-01 -5.6444159956038475e-01 +7.7312430314316671e+00 -7.1181482677843066e-01 -1.8681126689565517e+01 +7.9414550191343224e+03 -6.8299246293760341e+04 -4.4390456059463345e+07 
+1.0999999999999999e+00 -5.6444168439149012e-01 +7.7312099435041723e+00 -7.0932916399224877e-01 -1.7615932268941240e+01 +7.8861520393459732e+03 -7.4427904195796873e+04 -4.4100611562557213e+07 
+1.2000000000000000e+00 -5.6444176822852177e-01 +7.7311736188665492e+00 -7.0735564336021384e-01 -1.6505919284617395e+01 +7.8382943569155659e+03 -8.0772090467408430e+04 -4.3837048433950476e+07 
+1.3000000000000000e+00 -5.6444185121785317e-01 +7.7311342955236491e+00 -7.0584738823191195e-01 -1.5360153280309728e+01 +7.7973952453783322e+03 -8.7274669517210248e+04 -4.3598402293810740e+07 
+1.4000000000000001e+00 -5.6444193350584027e-01 +7.7310922114801759e+00 -7.0475752298470618e-01 -1.4187699818679130e+01 +7.7629679921590987e+03 -9.3878505598578806e+04 -4.3383308822945185e+07 
+1.5000000000000002e+00 -5.6444201523884285e-01 +7.7310476047370491e+00 -7.0403917018780093e-01 -1.2997624392013485e+01 +7.7345258502135666e+03 -1.0052646327811720e+05 -4.3190403553273335e+07 
+1.6000000000000003e+00 -5.6444209656322253e-01 +7.7310007132988146e+00 -7.0364545118121946e-01 -1.1798992621299114e+01 +7.7115820470977196e+03 -1.0716140630689867e+05 -4.3018321904153153e+07 
+1.7000000000000004e+00 -5.6444217762537030e-01 +7.7309517751707535e+00 -7.0352948248917402e-01 -1.0600870196765586e+01 +7.6936497194346148e+03 -1.1372619790874636e+05 -4.2865698881448559e+07 
+1.8000000000000005e+00 -5.6444225857164754e-01 +7.7309010283523545e+00 -7.0364438315028444e-01 -9.4123226822128636e+00 +7.6802420493186382e+03 -1.2016370191325824e+05 -4.2731169719092146e+07 
+1.9000000000000006e+00 -5.6444233954846645e-01 +7.7308487108426061e+00 -7.0394326446935496e-01 -8.2424156737860983e+00 +7.6708720705433152e+03 -1.2641678182341851e+05 -4.2613368961524673e+07 
+2.0000000000000004e+00 -5.6444242070222372e-01 +7.7307950606415217e+00 -7.0437923817580517e-01 -7.1002148535538065e+00 +7.6650528245935093e+03 -1.3242830046234600e+05 -4.2510931212556526e+07 
+2.1000000000000005e+00 -5.6444250214885883e-01 +7.7307403042417260e+00 -7.0491312975360354e-01 -5.9932245944764775e+00 +7.6623745815988232e+03 -1.3815199967252582e+05 -4.2422746245476805e+07 
+2.2000000000000006e+00 -5.6444258387595614e-01 +7.7306846226119692e+00 -7.0553738989105241e-01 -4.9226531096138384e+00 +7.6627339553125939e+03 -1.4358537100435578e+05 -4.2348668878353909e+07 
+2.3000000000000007e+00 -5.6444266583742764e-01 +7.7306281854349734e+00 -7.0625256239908518e-01 -3.8881200692886830e+00 +7.6661033411518720e+03 -1.4873691286779012e+05 -4.2288780531851403e+07 
+2.4000000000000008e+00 -5.6444274798719063e-01 +7.7305711623893920e+00 -7.0705919073957935e-01 -2.8892450313098497e+00 +7.6724551303853823e+03 -1.5361512427885088e+05 -4.2243162614842705e+07 
+2.5000000000000009e+00 -5.6444283027915154e-01 +7.7305137231554166e+00 -7.0795782025295939e-01 -1.9256476020121394e+00 +7.6817617509309848e+03 -1.5822850392461536e+05 -4.2211896711571619e+07 
+2.6000000000000010e+00 -5.6444291266727753e-01 +7.7304560374180449e+00 -7.0894898936688788e-01 -9.9694752794933261e-01 +7.6939955038841026e+03 -1.6258554962842737e+05 -4.2195063814597741e+07 
+2.7000000000000011e+00 -5.6444299510548301e-01 +7.7303982748530586e+00 -7.1003324358527431e-01 -1.0276429290927863e-01 +7.7091288225643611e+03 -1.6669476067864313e+05 -4.2192745534640610e+07 
+2.8000000000000012e+00 -5.6444307754773815e-01 +7.7303406051422705e+00 -7.1121112231660399e-01 +7.5728245670719219e-01 +7.7271340296723911e+03 -1.7056463540422753e+05 -4.2205022967879735e+07 
+2.9000000000000012e+00 -5.6444315994799932e-01 +7.7302831979639786e+00 -7.1248316819594126e-01 +1.5835731737618328e+00 +7.7479835134407194e+03 -1.7420367264283766e+05 -4.2231977526518404e+07 
+3.0000000000000013e+00 -5.6444324226026332e-01 +7.7302262229944656e+00 -7.1384991920634699e-01 +2.3764883811957964e+00 +7.7716495723142452e+03 -1.7762037160448957e+05 -4.2273690185905114e+07 
+3.1000000000000014e+00 -5.6444332443850187e-01 +7.7301698499127776e+00 -7.1531191825351692e-01 +3.1364085236832930e+00 +7.7981046057474196e+03 -1.8082323098816056e+05 -4.2330242415454574e+07 
+3.2000000000000015e+00 -5.6444340643673740e-01 +7.7301142483950187e+00 -7.1686970339296496e-01 +3.8637141474588486e+00 +7.8273209256810396e+03 -1.8382075004724695e+05 -4.2401715271145098e+07 
+3.3000000000000016e+00 -5.6444348820897938e-01 +7.7300595881133907e+00 -7.1852381516454722e-01 +4.5587859256145578e+00 +7.8592708892227065e+03 -1.8662142873780202e+05 -4.2488190008740962e+07 
+3.4000000000000017e+00 -5.6444356970927023e-01 +7.7300060387438378e+00 -7.2027479238484549e-01 +5.2220044387891740e+00 +7.8939268303375356e+03 -1.8923376643304140e+05 -4.2589747788743079e+07 
+3.5000000000000018e+00 -5.6444365089166026e-01 +7.7299537699555811e+00 -7.2212317432905970e-01 +5.8537504683168180e+00 +7.9312610941290059e+03 -1.9166626360400714e+05 -4.2706469819047228e+07 
+3.6000000000000019e+00 -5.6444373171023066e-01 +7.7299029514239690e+00 -7.2406949868479487e-01 +6.4544046502127648e+00 +7.9712460017868179e+03 -1.9392741987260894e+05 -4.2838437197632961e+07 
+3.7000000000000020e+00 -5.6444381211904593e-01 +7.7298537528150337e+00 -7.2611430661408571e-01 +7.0243479104529296e+00 +8.0138539415294299e+03 -1.9602573649876498e+05 -4.2985731328890003e+07 
+3.8000000000000020e+00 -5.6444389207223056e-01 +7.7298063437959739e+00 -7.2825813490778746e-01 +7.5639611506178186e+00 +8.0590572299899950e+03 -1.9796971452547261e+05 -4.3148433293602712e+07 
+3.9000000000000021e+00 -5.6444397152391801e-01 +7.7297608940344826e+00 -7.3050152098320653e-01 +8.0736252964544644e+00 +8.1068281966187960e+03 -1.9976785513445601e+05 -4.3326624218089625e+07 
+4.0000000000000018e+00 -5.6444405042824308e-01 +7.7297175731929331e+00 -7.3284500481026160e-01 +8.5537214531835009e+00 +8.1571392273594374e+03 -2.0142866051301456e+05 -4.3520385501984023e+07 
+4.1000000000000014e+00 -5.6444412868646721e-01 +7.7296765247411860e+00 -7.3528985670398372e-01 +9.0043138848808795e+00 +8.2099319172786709e+03 -2.0295751300152636e+05 -4.3729529240058422e+07 
+4.2000000000000011e+00 -5.6444420599163059e-01 +7.7296377840463277e+00 -7.3783907051245334e-01 +9.4243310025168974e+00 +8.2650231912125055e+03 -2.0434819567332917e+05 -4.3952824176148877e+07 
+4.3000000000000007e+00 -5.6444428198553342e-01 +7.7296013586438654e+00 -7.4049576942309403e-01 +9.8124470967941573e+00 +8.3221983009896958e+03 -2.0559179520771120e+05 -4.4188785689661600e+07 
+4.4000000000000004e+00 -5.6444435631001744e-01 +7.7295672560645707e+00 -7.4326307093244781e-01 +1.0167336671549721e+01 +8.3812423881030281e+03 -2.0667939972636456e+05 -4.4435928634153649e+07 
+4.5000000000000000e+00 -5.6444442860689115e-01 +7.7295354838483510e+00 -7.4614409710739626e-01 +1.0487674050346403e+01 +8.4419406846533129e+03 -2.0760209652699745e+05 -4.4692768309159815e+07 
+4.5999999999999996e+00 -5.6444449851802780e-01 +7.7295060495374655e+00 -7.4914196211250872e-01 +1.0772133568066668e+01 +8.5040782763552052e+03 -2.0835097317677169e+05 -4.4957819334464416e+07 
+4.6999999999999993e+00 -5.6444456568527357e-01 +7.7294789606716021e+00 -7.5225978321360243e-01 +1.1019389738970535e+01 +8.5674403071435936e+03 -2.0891711856618439e+05 -4.5229596611488380e+07 
+4.7999999999999989e+00 -5.6444462975051224e-01 +7.7294542248025593e+00 -7.5550067339197813e-01 +1.1228116803373020e+01 +8.6318118449978756e+03 -2.0929162019800677e+05 -4.5506614701229647e+07 
+4.8999999999999986e+00 -5.6444469035563793e-01 +7.7294318494776864e+00 -7.5886774388125511e-01 +1.1396989249417118e+01 +8.6969779235414826e+03 -2.0946556733444447e+05 -4.5787388006042719e+07 
+4.9999999999999982e+00 -5.6444474714252868e-01 +7.7294118422515217e+00 -7.6236410822358458e-01 +1.1524681439567589e+01 +8.7627236253750416e+03 -2.0943004872918400e+05 -4.6070431182316549e+07 
+5.0999999999999979e+00 -5.6444479975312656e-01 +7.7293942106808053e+00 -7.6599287178701347e-01 +1.1609867803550493e+01 +8.8288338784254720e+03 -2.0917615389055258e+05 -4.6354258160399467e+07 
+5.1999999999999975e+00 -5.6444484782936299e-01 +7.7293789623290277e+00 -7.6975714088975844e-01 +1.1651222671554255e+01 +8.8950936296279615e+03 -2.0869497200243667e+05 -4.6637382972424783e+07 
+5.2999999999999972e+00 -5.6444489101316675e-01 +7.7293661047581805e+00 -7.7366002282491142e-01 +1.1647420546341628e+01 +8.9612878513949545e+03 -2.0797759361339916e+05 -4.6918319798522055e+07 
+5.3999999999999968e+00 -5.6444492894652798e-01 +7.7293556455407550e+00 -7.7770461618848852e-01 +1.1597135736404734e+01 +9.0272013475531112e+03 -2.0701510844411419e+05 -4.7195582017723948e+07 
+5.4999999999999964e+00 -5.6444496127138677e-01 +7.7293475922488861e+00 -7.8189402615601866e-01 +1.1499042697791625e+01 +9.0926190519678039e+03 -2.0579860745457438e+05 -4.7467683650454298e+07 
+5.5999999999999961e+00 -5.6444498762975637e-01 +7.7293419524629776e+00 -7.8623134880888801e-01 +1.1351815773375980e+01 +9.1573257305294028e+03 -2.0431918130350503e+05 -4.7733137940712310e+07 
+5.6999999999999957e+00 -5.6444500766364458e-01 +7.7293387337626056e+00 -7.9071967993605097e-01 +1.1154129458280522e+01 +9.2211061403085205e+03 -2.0256792188618184e+05 -4.7990458093613707e+07 
+5.7999999999999954e+00 -5.6444502101506300e-01 +7.7293379437381748e+00 -7.9536211519816546e-01 +1.0904658086673139e+01 +9.2837450421690337e+03 -2.0053592059772919e+05 -4.8238157358212560e+07 
+5.8999999999999950e+00 -5.6444502732605861e-01 +7.7293395899806088e+00 -8.0016174514343363e-01 +1.0602076108598231e+01 +9.3450270988150260e+03 -1.9821426987184532e+05 -4.8474748525599077e+07 
+5.9999999999999947e+00 -5.6444502623867865e-01 +7.7293436800883351e+00 -8.0512166069929736e-01 +1.0245057915267013e+01 +9.4047369898477409e+03 -1.9559406222585784e+05 -4.8698744503768288e+07 
+6.0999999999999943e+00 -5.6444501757229060e-01 +7.7293501867864682e+00 -8.1024175086770234e-01 +9.8333942369355416e+00 +9.4627186698200221e+03 -1.9267311200643232e+05 -4.8909133675475419e+07 
+6.1999999999999940e+00 -5.6444500184471857e-01 +7.7293589554110902e+00 -8.1550927518639060e-01 +9.3709097334652700e+00 +9.5190410702277204e+03 -1.8947397717695733e+05 -4.9106697558142714e+07 
+6.2999999999999936e+00 -5.6444497974574170e-01 +7.7293698023934070e+00 -8.2090840408256738e-01 +8.8623340146406981e+00 +9.5738272739546064e+03 -1.8602489817875245e+05 -4.9292643385654412e+07 
+6.3999999999999932e+00 -5.6444495196512512e-01 +7.7293825441530410e+00 -8.2642330962043575e-01 +8.3123969037555963e+00 +9.6272003941841194e+03 -1.8235411637713196e+05 -4.9468178516856179e+07 
+6.4999999999999929e+00 -5.6444491919256434e-01 +7.7293969971125156e+00 -8.3203817186438267e-01 +7.7258280092195450e+00 +9.6792836906451212e+03 -1.7848987152071262e+05 -4.9634510976957932e+07 
+6.5999999999999925e+00 -5.6444488211775568e-01 +7.7294129776756986e+00 -8.3773717120376867e-01 +7.1073573362752640e+00 +9.7302004317208048e+03 -1.7446040524907564e+05 -4.9792848823611788e+07 
+6.6999999999999922e+00 -5.6444484143033513e-01 +7.7294303022517976e+00 -8.4350449472823796e-01 +6.4617145855767157e+00 +9.7800740073766628e+03 -1.7029395701365318e+05 -4.9944400661028758e+07 
+6.7999999999999918e+00 -5.6444479781991763e-01 +7.7294487872360600e+00 -8.4932433245513161e-01 +5.7936297136972330e+00 +9.8290278642223911e+03 -1.6601876733126672e+05 -5.0090375347780630e+07 
+6.8999999999999915e+00 -5.6444475197608412e-01 +7.7294682490199280e+00 -8.5518087794375008e-01 +5.1078326177283460e+00 +9.8771855108404361e+03 -1.6166307589107324e+05 -5.0231982005385630e+07 
+6.9999999999999911e+00 -5.6444470458836593e-01 +7.7294885039866541e+00 -8.6105833098366735e-01 +4.4090532710165480e+00 +9.9246705751481604e+03 -1.5725512237414494e+05 -5.0370430307569228e+07 
+7.0999999999999908e+00 -5.6444465634624608e-01 +7.7295093685120539e+00 -8.6694089678031361e-01 +3.7020216889010062e+00 +9.9716067808541484e+03 -1.5282314621692037e+05 -5.0506930344311729e+07 
+7.1999999999999904e+00 -5.6444460793918749e-01 +7.7295306589648547e+00 -8.7281278344431645e-01 +2.9914678980102996e+00 +1.0018117910541901e+04 -1.4839538637877651e+05 -5.0642692475639865e+07 
+7.2999999999999901e+00 -5.6444456005659349e-01 +7.7295521917042711e+00 -8.7865820495896996e-01 +2.2821220262907569e+00 +1.0064327847321692e+04 -1.4400008191385629e+05 -5.0778927490880124e+07 
+7.3999999999999897e+00 -5.6444451338782176e-01 +7.7295737830808156e+00 -8.8446138214895154e-01 +1.5787142515739414e+00 +1.0110360610561691e+04 -1.3966547160594398e+05 -5.0916846821799122e+07 
+7.4999999999999893e+00 -5.6444446862217701e-01 +7.7295952494368922e+00 -8.9020654076901817e-01 +8.8597478274798680e-01 +1.0156340302044480e+04 -1.3541979384412570e+05 -5.1057662241051480e+07 
+7.5999999999999890e+00 -5.6444442644894410e-01 +7.7296164071103908e+00 -8.9587790955822044e-01 +2.0863375113183330e-01 +1.0202391080925978e+04 -1.3129128598841041e+05 -5.1202585771668427e+07 
+7.6999999999999886e+00 -5.6444438755731918e-01 +7.7296370724214327e+00 -9.0145972764393179e-01 -4.4857840666550280e-01 +1.0248637301042605e+04 -1.2730818658904100e+05 -5.1352830334371351e+07 
+7.7999999999999883e+00 -5.6444435263646764e-01 +7.7296570616855984e+00 -9.0693623737258600e-01 -1.0809313612091360e+00 +1.0295203371695812e+04 -1.2349873290116477e+05 -5.1509609073896013e+07 
+7.8999999999999879e+00 -5.6444432237550379e-01 +7.7296761912112792e+00 -9.1229168738144051e-01 -1.6836947901945458e+00 +1.0342213817869608e+04 -1.1989116155028762e+05 -5.1674135648912817e+07 
+7.9999999999999876e+00 -5.6444429746347602e-01 +7.7296942772919390e+00 -9.1751033394768544e-01 -2.2521381959337297e+00 +1.0389793306177387e+04 -1.1651370950651029e+05 -5.1847624361751452e+07 
+8.0999999999999872e+00 -5.6444427860953639e-01 +7.7297111441206701e+00 -9.2257450115971718e-01 -2.7819185268117717e+00 +1.0437956797185376e+04 -1.1339172636760409e+05 -5.2030642506675877e+07 
+8.1999999999999869e+00 -5.6444426661074210e-01 +7.7297266394195265e+00 -9.2745810047035293e-01 -3.2697907279678504e+00 +1.0486276949837220e+04 -1.1054137875677964e+05 -5.2221204048139125e+07 
+8.2999999999999865e+00 -5.6444426228792555e-01 +7.7297406148262136e+00 -9.3213275064953305e-01 -3.7126752090517630e+00 +1.0534213640293216e+04 -1.0797708963204325e+05 -5.2416686268877134e+07 
+8.3999999999999861e+00 -5.6444426646183210e-01 +7.7297529219602419e+00 -9.3657007966363504e-01 -4.1074918520993311e+00 +1.0581226903233575e+04 -1.0571328500688644e+05 -5.2614467168886490e+07 
+8.4999999999999858e+00 -5.6444427995320023e-01 +7.7297634124438321e+00 -9.4074171486955915e-01 -4.4511606150614975e+00 +1.0626776748734621e+04 -1.0376439058130815e+05 -5.2811924593848936e+07 
+8.5999999999999854e+00 -5.6444430358273912e-01 +7.7297719378847010e+00 -9.4461928613829005e-01 -4.7406010504929590e+00 +1.0670323224150230e+04 -1.0214483447708194e+05 -5.3006436536517613e+07 
+8.6999999999999851e+00 -5.6444433817104978e-01 +7.7297783498886510e+00 -9.4817443552422187e-01 -4.9727326472857216e+00 +1.0711326595049179e+04 -1.0086904533266812e+05 -5.3195381989434727e+07 
+8.7999999999999847e+00 -5.6444438453874335e-01 +7.7297825000530853e+00 -9.5137880194554236e-01 -5.1444746593557626e+00 +1.0749247051563885e+04 -9.9951453246020348e+04 -5.3376139541729435e+07 
+8.8999999999999844e+00 -5.6444444350635437e-01 +7.7297842399720977e+00 -9.5420403270306076e-01 -5.2527462396158286e+00 +1.0783544931908902e+04 -9.9406489047283816e+04 -5.3546088455633551e+07 
+8.9999999999999840e+00 -5.6444451589438593e-01 +7.7297834212229892e+00 -9.5662177769226486e-01 -5.2944660550115996e+00 +1.0813680609926474e+04 -9.9248586512340393e+04 -5.3702608122735254e+07 
+9.0999999999999837e+00 -5.6444460252327100e-01 +7.7297798953859802e+00 -9.5860369385810362e-01 -5.2665528606492851e+00 +1.0839114579297659e+04 -9.9492179034026383e+04 -5.3843078466532663e+07 
+9.1999999999999833e+00 -5.6444470421339976e-01 +7.7297735140280226e+00 -9.6012144150776468e-01 -5.1659250228614599e+00 +1.0859307378486486e+04 -1.0015170240975717e+05 -5.3964879569022499e+07 
+9.2999999999999829e+00 -5.6444482178510746e-01 +7.7297641287085153e+00 -9.6114668665509051e-01 -4.9895006862291833e+00 +1.0873719643678285e+04 -1.0124159387497431e+05 -5.4065391947672062e+07 
+9.3999999999999826e+00 -5.6444495605869915e-01 +7.7297515909835495e+00 -9.6165109714239694e-01 -4.7341978946151855e+00 +1.0881812028701934e+04 -1.0277629140723494e+05 -5.4141996155803002e+07 
+9.4999999999999822e+00 -5.6444510785438173e-01 +7.7297357523949408e+00 -9.6160635121943450e-01 -4.3969342750655969e+00 +1.0883045368177429e+04 -1.0477023556470092e+05 -5.4192073560314685e+07 
+9.5999999999999819e+00 -5.6444527799234390e-01 +7.7297164644808376e+00 -9.6098412826458890e-01 -3.9746273465942865e+00 +1.0876880505071649e+04 -1.0723786769098030e+05 -5.4213005529150642e+07 
+9.6999999999999815e+00 -5.6444546729268130e-01 +7.7296935787717187e+00 -9.5975611668468230e-01 -3.4641943946691462e+00 +1.0862778434277108e+04 -1.1019363067160152e+05 -5.4202174102580048e+07 
+9.7999999999999812e+00 -5.6444567657547806e-01 +7.7296669467854207e+00 -9.5789400501306854e-01 -2.8625523370016936e+00 +1.0840200136722788e+04 -1.1365196969030119e+05 -5.4156961205062144e+07 
+9.8999999999999808e+00 -5.6444590666072214e-01 +7.7296364200368499e+00 -9.5536949175703834e-01 -2.1666179962903387e+00 +1.0808606766843079e+04 -1.1762733068068024e+05 -5.4074749545217320e+07 
+9.9999999999999805e+00 -5.6444615836836065e-01 +7.7296018500257677e+00 -9.5215427837486000e-01 -1.3733077489878878e+00 +1.0767459516955452e+04 -1.2213416227305245e+05 -5.3952921955305234e+07 
+1.0099999999999980e+01 -5.6444643221139312e-01 +7.7295631648510668e+00 -9.4823232172448513e-01 -4.8151124622623620e-01 +1.0716410136960336e+04 -1.2717604127980417e+05 -5.3789695774235331e+07 
