# trajectory
# s[mm] rx[mm] ry[mm] rz[mm] px[rad] py[rad] pz[rad]
0.0000000000000000e+00 +8.1529999999999987e+00 +0.0000000000000000e+00 +0.0000000000000000e+00 +0.0000000000000000e+00 +0.0000000000000000e+00 +1.0000000000000000e+00
1.0000000000000001e-01 +8.1529997170933068e+00 +0.0000000000000000e+00 +9.9999999999466446e-02 -5.6581340483118148e-06 +0.0000000000000000e+00 +9.9999999998399280e-01
2.0000000000000001e-01 +8.1529988683731478e+00 +0.0000000000000000e+00 +1.9999999999573143e-01 -1.1316269350633416e-05 +0.0000000000000000e+00 +9.9999999993597111e-01
3.0000000000000004e-01 +8.1529974538393972e+00 +0.0000000000000000e+00 +2.9999999998559351e-01 -1.6974405877160393e-05 +0.0000000000000000e+00 +9.9999999985593491e-01
4.0000000000000002e-01 +8.1529954734919325e+00 +0.0000000000000000e+00 +3.9999999996585123e-01 -2.2632543600226017e-05 +0.0000000000000000e+00 +9.9999999974388409e-01
5.0000000000000000e-01 +8.1529929273306383e+00 +0.0000000000000000e+00 +4.9999999993330313e-01 -2.8290682494300992e-05 +0.0000000000000000e+00 +9.9999999959981878e-01
5.9999999999999998e-01 +8.1529898153553955e+00 +0.0000000000000000e+00 +5.9999999988474784e-01 -3.3948822535993236e-05 +0.0000000000000000e+00 +9.9999999942373885e-01
6.9999999999999996e-01 +8.1529861375660921e+00 +0.0000000000000000e+00 +6.9999999981698380e-01 -3.9606963704047674e-05 +0.0000000000000000e+00 +9.9999999921564431e-01
7.9999999999999993e-01 +8.1529818939626164e+00 +0.0000000000000000e+00 +7.9999999972680957e-01 -4.5265105979346102e-05 +0.0000000000000000e+00 +9.9999999897553515e-01
8.9999999999999991e-01 +8.1529770845448599e+00 +0.0000000000000000e+00 +8.9999999961102373e-01 -5.0923249344907000e-05 +0.0000000000000000e+00 +9.9999999870341139e-01
9.9999999999999989e-01 +8.1529717093127125e+00 +0.0000000000000000e+00 +9.9999999946642470e-01 -5.6581393785885450e-05 +0.0000000000000000e+00 +9.9999999839927300e-01
1.0999999999999999e+00 +8.1529657682660677e+00 +0.0000000000000000e+00 +1.0999999992898111e+00 -6.2239539289573025e-05 +0.0000000000000000e+00 +9.9999999806311990e-01
1.2000000000000000e+00 +8.1529592614048205e+00 +0.0000000000000000e+00 +1.1999999990779815e+00 -6.7897685845397731e-05 +0.0000000000000000e+00 +9.9999999769495218e-01
1.3000000000000000e+00 +8.1529521887288645e+00 +0.0000000000000000e+00 +1.2999999988277344e+00 -7.3555833444923966e-05 +0.0000000000000000e+00 +9.9999999729476974e-01
1.4000000000000001e+00 +8.1529445502380966e+00 +0.0000000000000000e+00 +1.3999999985358684e+00 -7.9213982081852502e-05 +0.0000000000000000e+00 +9.9999999686257257e-01
1.5000000000000002e+00 +8.1529363459324138e+00 +0.0000000000000000e+00 +1.4999999981991818e+00 -8.4872131752020518e-05 +0.0000000000000000e+00 +9.9999999639836068e-01
1.6000000000000003e+00 +8.1529275758117112e+00 +0.0000000000000000e+00 +1.5999999978144734e+00 -9.0530282453401599e-05 +0.0000000000000000e+00 +9.9999999590213406e-01
1.7000000000000004e+00 +8.1529182398758877e+00 +0.0000000000000000e+00 +1.6999999973785416e+00 -9.6188434186105819e-05 +0.0000000000000000e+00 +9.9999999537389261e-01
1.8000000000000005e+00 +8.1529083381248402e+00 +0.0000000000000000e+00 +1.7999999968881848e+00 -1.0184658695237986e-04 +0.0000000000000000e+00 +9.9999999481363644e-01
1.9000000000000006e+00 +8.1528978705584638e+00 +0.0000000000000000e+00 +1.8999999963402017e+00 -1.0750474075660707e-04 +0.0000000000000000e+00 +9.9999999422136543e-01
2.0000000000000004e+00 +8.1528868371766539e+00 +0.0000000000000000e+00 +1.9999999957313908e+00 -1.1316289560530767e-04 +0.0000000000000000e+00 +9.9999999359707958e-01
2.1000000000000005e+00 +8.1528752379793072e+00 +0.0000000000000000e+00 +2.0999999950585506e+00 -1.1882105150696106e-04 +0.0000000000000000e+00 +9.9999999294077890e-01
2.2000000000000006e+00 +8.1528630729663174e+00 +0.0000000000000000e+00 +2.1999999943184796e+00 -1.2447920847005032e-04 +0.0000000000000000e+00 +9.9999999225246339e-01
2.3000000000000007e+00 +8.1528503421375778e+00 +0.0000000000000000e+00 +2.2999999935079760e+00 -1.3013736650110657e-04 +0.0000000000000000e+00 +9.9999999153213293e-01
2.4000000000000008e+00 +8.1528370454929817e+00 +0.0000000000000000e+00 +2.3999999926238389e+00 -1.3579552560453125e-04 +0.0000000000000000e+00 +9.9999999077978763e-01
2.5000000000000009e+00 +8.1528231830324209e+00 +0.0000000000000000e+00 +2.4999999916628663e+00 -1.4145368578259623e-04 +0.0000000000000000e+00 +9.9999998999542739e-01
2.6000000000000010e+00 +8.1528087547557888e+00 +0.0000000000000000e+00 +2.5999999906218569e+00 -1.4711184703544383e-04 +0.0000000000000000e+00 +9.9999998917905220e-01
2.7000000000000011e+00 +8.1527937606629788e+00 +0.0000000000000000e+00 +2.6999999894976097e+00 -1.5277000936108693e-04 +0.0000000000000000e+00 +9.9999998833066206e-01
2.8000000000000012e+00 +8.1527782007538825e+00 +0.0000000000000000e+00 +2.7999999882869222e+00 -1.5842817275540908e-04 +0.0000000000000000e+00 +9.9999998745025698e-01
2.9000000000000012e+00 +8.1527620750283933e+00 +0.0000000000000000e+00 +2.8999999869865936e+00 -1.6408633721216461e-04 +0.0000000000000000e+00 +9.9999998653783695e-01
3.0000000000000013e+00 +8.1527453834864048e+00 +0.0000000000000000e+00 +2.9999999855934223e+00 -1.6974450272297869e-04 +0.0000000000000000e+00 +9.9999998559340186e-01
3.1000000000000014e+00 +8.1527281261278137e+00 +0.0000000000000000e+00 +3.0999999841042070e+00 -1.7540266927734745e-04 +0.0000000000000000e+00 +9.9999998461695172e-01
3.2000000000000015e+00 +8.1527103029525154e+00 +0.0000000000000000e+00 +3.1999999825157457e+00 -1.8106083686263817e-04 +0.0000000000000000e+00 +9.9999998360848663e-01
3.3000000000000016e+00 +8.1526919139604068e+00 +0.0000000000000000e+00 +3.2999999808248370e+00 -1.8671900546408932e-04 +0.0000000000000000e+00 +9.9999998256800648e-01
3.4000000000000017e+00 +8.1526729591513885e+00 +0.0000000000000000e+00 +3.3999999790282796e+00 -1.9237717506481074e-04 +0.0000000000000000e+00 +9.9999998149551117e-01
3.5000000000000018e+00 +8.1526534385253608e+00 +0.0000000000000000e+00 +3.4999999771228718e+00 -1.9803534564578377e-04 +0.0000000000000000e+00 +9.9999998039100080e-01
3.6000000000000019e+00 +8.1526333520822263e+00 +0.0000000000000000e+00 +3.5999999751054124e+00 -2.0369351718586146e-04 +0.0000000000000000e+00 +9.9999997925447537e-01
3.7000000000000020e+00 +8.1526126998218924e+00 +0.0000000000000000e+00 +3.6999999729726998e+00 -2.0935168966176859e-04 +0.0000000000000000e+00 +9.9999997808593488e-01
3.8000000000000020e+00 +8.1525914817442651e+00 +0.0000000000000000e+00 +3.7999999707215322e+00 -2.1500986304810198e-04 +0.0000000000000000e+00 +9.9999997688537923e-01
3.9000000000000021e+00 +8.1525696978492537e+00 +0.0000000000000000e+00 +3.8999999683487085e+00 -2.2066803731733055e-04 +0.0000000000000000e+00 +9.9999997565280840e-01
4.0000000000000018e+00 +8.1525473481367730e+00 +0.0000000000000000e+00 +3.9999999658510270e+00 -2.2632621243979557e-04 +0.0000000000000000e+00 +9.9999997438822252e-01
4.1000000000000014e+00 +8.1525244326067376e+00 +0.0000000000000000e+00 +4.0999999632252857e+00 -2.3198438838373017e-04 +0.0000000000000000e+00 +9.9999997309162147e-01
4.2000000000000011e+00 +8.1525009512590696e+00 +0.0000000000000000e+00 +4.1999999604682836e+00 -2.3764256511547263e-04 +0.0000000000000000e+00 +9.9999997176300526e-01
4.3000000000000007e+00 +8.1524769040936906e+00 +0.0000000000000000e+00 +4.2999999575768193e+00 -2.4330074259967953e-04 +0.0000000000000000e+00 +9.9999997040237387e-01
4.4000000000000004e+00 +8.1524522911105262e+00 +0.0000000000000000e+00 +4.3999999545476909e+00 -2.4895892079934538e-04 +0.0000000000000000e+00 +9.9999996900972743e-01
4.5000000000000000e+00 +8.1524271123095087e+00 +0.0000000000000000e+00 +4.4999999513776974e+00 -2.5461709967580261e-04 +0.0000000000000000e+00 +9.9999996758506582e-01
4.5999999999999996e+00 +8.1524013676905707e+00 +0.0000000000000000e+00 +4.5999999480636369e+00 -2.6027527918872186e-04 +0.0000000000000000e+00 +9.9999996612838904e-01
4.6999999999999993e+00 +8.1523750572536517e+00 +0.0000000000000000e+00 +4.6999999446023075e+00 -2.6593345929611198e-04 +0.0000000000000000e+00 +9.9999996463969709e-01
4.7999999999999989e+00 +8.1523481809986933e+00 +0.0000000000000000e+00 +4.7999999409905083e+00 -2.7159163995432039e-04 +0.0000000000000000e+00 +9.9999996311898998e-01
4.8999999999999986e+00 +8.1523207389256438e+00 +0.0000000000000000e+00 +4.8999999372250382e+00 -2.7724982111803297e-04 +0.0000000000000000e+00 +9.9999996156626769e-01
4.9999999999999982e+00 +8.1522927310344553e+00 +0.0000000000000000e+00 +4.9999999333026945e+00 -2.8290800274027443e-04 +0.0000000000000000e+00 +9.9999995998153024e-01
5.0999999999999979e+00 +8.1522641573250834e+00 +0.0000000000000000e+00 +5.0999999292202771e+00 -2.8856618477240839e-04 +0.0000000000000000e+00 +9.9999995836477773e-01
5.1999999999999975e+00 +8.1522350177974889e+00 +0.0000000000000000e+00 +5.1999999249745832e+00 -2.9422436716413757e-04 +0.0000000000000000e+00 +9.9999995671601005e-01
5.2999999999999972e+00 +8.1522053124516400e+00 +0.0000000000000000e+00 +5.2999999205624118e+00 -2.9988254986350392e-04 +0.0000000000000000e+00 +9.9999995503522721e-01
5.3999999999999968e+00 +8.1521750412875083e+00 +0.0000000000000000e+00 +5.3999999159805618e+00 -3.0554073281688880e-04 +0.0000000000000000e+00 +9.9999995332242930e-01
5.4999999999999964e+00 +8.1521442043050705e+00 +0.0000000000000000e+00 +5.4999999112258307e+00 -3.1119891596901315e-04 +0.0000000000000000e+00 +9.9999995157761623e-01
5.5999999999999961e+00 +8.1521128015043089e+00 +0.0000000000000000e+00 +5.5999999062950181e+00 -3.1685709926293769e-04 +0.0000000000000000e+00 +9.9999994980078810e-01
5.6999999999999957e+00 +8.1520808328852148e+00 +0.0000000000000000e+00 +5.6999999011849214e+00 -3.2251528264006315e-04 +0.0000000000000000e+00 +9.9999994799194492e-01
5.7999999999999954e+00 +8.1520482984477809e+00 +0.0000000000000000e+00 +5.7999998958923396e+00 -3.2817346604013028e-04 +0.0000000000000000e+00 +9.9999994615108667e-01
5.8999999999999950e+00 +8.1520151981920090e+00 +0.0000000000000000e+00 +5.8999998904140716e+00 -3.3383164940122028e-04 +0.0000000000000000e+00 +9.9999994427821337e-01
5.9999999999999947e+00 +8.1519815321179045e+00 +0.0000000000000000e+00 +5.9999998847469156e+00 -3.3948983265975473e-04 +0.0000000000000000e+00 +9.9999994237332512e-01
6.0999999999999943e+00 +8.1519473002254816e+00 +0.0000000000000000e+00 +6.0999998788876697e+00 -3.4514801575078716e-04 +0.0000000000000000e+00 +9.9999994043642182e-01
6.1999999999999940e+00 +8.1519125025147616e+00 +0.0000000000000000e+00 +6.1999998728331329e+00 -3.5080619861120588e-04 +0.0000000000000000e+00 +9.9999993846750357e-01
6.2999999999999936e+00 +8.1518771389857694e+00 +0.0000000000000000e+00 +6.2999998665801034e+00 -3.5646438118293669e-04 +0.0000000000000000e+00 +9.9999993646657037e-01
6.3999999999999932e+00 +8.1518412096385369e+00 +0.0000000000000000e+00 +6.3999998601253800e+00 -3.6212256341323364e-04 +0.0000000000000000e+00 +9.9999993443362234e-01
6.4999999999999929e+00 +8.1518047144730996e+00 +0.0000000000000000e+00 +6.4999998534657610e+00 -3.6778074525467883e-04 +0.0000000000000000e+00 +9.9999993236865936e-01
6.5999999999999925e+00 +8.1517676534895003e+00 +0.0000000000000000e+00 +6.5999998465980445e+00 -3.7343892666518195e-04 +0.0000000000000000e+00 +9.9999993027168155e-01
6.6999999999999922e+00 +8.1517300266877832e+00 +0.0000000000000000e+00 +6.6999998395190294e+00 -3.7909710760797999e-04 +0.0000000000000000e+00 +9.9999992814268890e-01
6.7999999999999918e+00 +8.1516918340679965e+00 +0.0000000000000000e+00 +6.7999998322255149e+00 -3.8475528805163682e-04 +0.0000000000000000e+00 +9.9999992598168141e-01
6.8999999999999915e+00 +8.1516530756301915e+00 +0.0000000000000000e+00 +6.8999998247142988e+00 -3.9041346797004286e-04 +0.0000000000000000e+00 +9.9999992378865910e-01
6.9999999999999911e+00 +8.1516137513744216e+00 +0.0000000000000000e+00 +6.9999998169821795e+00 -3.9607164734241449e-04 +0.0000000000000000e+00 +9.9999992156362194e-01
7.0999999999999908e+00 +8.1515738613007418e+00 +0.0000000000000000e+00 +7.0999998090259560e+00 -4.0172982615329386e-04 +0.0000000000000000e+00 +9.9999991930657006e-01
7.1999999999999904e+00 +8.1515334054092090e+00 +0.0000000000000000e+00 +7.1999998008424262e+00 -4.0738800439254824e-04 +0.0000000000000000e+00 +9.9999991701750346e-01
7.2999999999999901e+00 +8.1514923836998818e+00 +0.0000000000000000e+00 +7.2999997924283893e+00 -4.1304618205536962e-04 +0.0000000000000000e+00 +9.9999991469642202e-01
7.3999999999999897e+00 +8.1514507961728171e+00 +0.0000000000000000e+00 +7.3999997837806433e+00 -4.1870435914227418e-04 +0.0000000000000000e+00 +9.9999991234332586e-01
7.4999999999999893e+00 +8.1514086428280716e+00 +0.0000000000000000e+00 +7.4999997748959872e+00 -4.2436253565910200e-04 +0.0000000000000000e+00 +9.9999990995821497e-01
7.5999999999999890e+00 +8.1513659236657041e+00 +0.0000000000000000e+00 +7.5999997657712193e+00 -4.3002071161701621e-04 +0.0000000000000000e+00 +9.9999990754108936e-01
7.6999999999999886e+00 +8.1513226386857678e+00 +0.0000000000000000e+00 +7.6999997564031384e+00 -4.3567888703250273e-04 +0.0000000000000000e+00 +9.9999990509194903e-01
7.7999999999999883e+00 +8.1512787878883159e+00 +0.0000000000000000e+00 +7.7999997467885427e+00 -4.4133706192736957e-04 +0.0000000000000000e+00 +9.9999990261079397e-01
7.8999999999999879e+00 +8.1512343712733983e+00 +0.0000000000000000e+00 +7.8999997369242303e+00 -4.4699523632874628e-04 +0.0000000000000000e+00 +9.9999990009762418e-01
7.9999999999999876e+00 +8.1511893888410647e+00 +0.0000000000000000e+00 +7.9999997268070002e+00 -4.5265341026908343e-04 +0.0000000000000000e+00 +9.9999989755243968e-01
8.0999999999999872e+00 +8.1511438405913594e+00 +0.0000000000000000e+00 +8.0999997164336506e+00 -4.5831158378638158e-04 +0.0000000000000000e+00 +9.9999989497524044e-01
8.1999999999999869e+00 +8.1510977265243216e+00 +0.0000000000000000e+00 +8.1999997058009804e+00 -4.6396975692671732e-04 +0.0000000000000000e+00 +9.9999989236602638e-01
8.2999999999999865e+00 +8.1510510466399850e+00 +0.0000000000000000e+00 +8.2999996949057877e+00 -4.6962792974676940e-04 +0.0000000000000000e+00 +9.9999988972479759e-01
8.3999999999999861e+00 +8.1510038009383798e+00 +0.0000000000000000e+00 +8.3999996837448716e+00 -4.7528610231404797e-04 +0.0000000000000000e+00 +9.9999988705155396e-01
8.4999999999999858e+00 +8.1509559894195274e+00 +0.0000000000000000e+00 +8.4999996723150311e+00 -4.8094427470689414e-04 +0.0000000000000000e+00 +9.9999988434629550e-01
8.5999999999999854e+00 +8.1509076120834418e+00 +0.0000000000000000e+00 +8.5999996606130633e+00 -4.8660244701447973e-04 +0.0000000000000000e+00 +9.9999988160902209e-01
8.6999999999999851e+00 +8.1508586689301250e+00 +0.0000000000000000e+00 +8.6999996486357674e+00 -4.9226061933680667e-04 +0.0000000000000000e+00 +9.9999987883973385e-01
8.7999999999999847e+00 +8.1508091599595698e+00 +0.0000000000000000e+00 +8.7999996363799422e+00 -4.9791879178470678e-04 +0.0000000000000000e+00 +9.9999987603843055e-01
8.8999999999999844e+00 +8.1507590851717584e+00 +0.0000000000000000e+00 +8.8999996238423869e+00 -5.0357696447984120e-04 +0.0000000000000000e+00 +9.9999987320511219e-01
8.9999999999999840e+00 +8.1507084445666607e+00 +0.0000000000000000e+00 +8.9999996110198985e+00 -5.0923513755470008e-04 +0.0000000000000000e+00 +9.9999987033977877e-01
9.0999999999999837e+00 +8.1506572381442304e+00 +0.0000000000000000e+00 +9.0999995979092763e+00 -5.1489331115260194e-04 +0.0000000000000000e+00 +9.9999986744243008e-01
9.1999999999999833e+00 +8.1506054659044072e+00 +0.0000000000000000e+00 +9.1999995845073173e+00 -5.2055148542769344e-04 +0.0000000000000000e+00 +9.9999986451306611e-01
9.2999999999999829e+00 +8.1505531278471164e+00 +0.0000000000000000e+00 +9.2999995708108223e+00 -5.2620966054494874e-04 +0.0000000000000000e+00 +9.9999986155168674e-01
9.3999999999999826e+00 +8.1505002239722639e+00 +0.0000000000000000e+00 +9.3999995568165886e+00 -5.3186783668016915e-04 +0.0000000000000000e+00 +9.9999985855829188e-01
9.4999999999999822e+00 +8.1504467542797396e+00 +0.0000000000000000e+00 +9.4999995425214134e+00 -5.3752601401998263e-04 +0.0000000000000000e+00 +9.9999985553288140e-01
9.5999999999999819e+00 +8.1503927187694138e+00 +0.0000000000000000e+00 +9.5999995279220975e+00 -5.4318419276184321e-04 +0.0000000000000000e+00 +9.9999985247545520e-01
9.6999999999999815e+00 +8.1503381174411338e+00 +0.0000000000000000e+00 +9.6999995130154382e+00 -5.4884237311403057e-04 +0.0000000000000000e+00 +9.9999984938601316e-01
9.7999999999999812e+00 +8.1502829502947289e+00 +0.0000000000000000e+00 +9.7999994977982325e+00 -5.5450055529564961e-04 +0.0000000000000000e+00 +9.9999984626455507e-01
9.8999999999999808e+00 +8.1502272173300057e+00 +0.0000000000000000e+00 +9.8999994822672814e+00 -5.6015873953662969e-04 +0.0000000000000000e+00 +9.9999984311108070e-01
9.9999999999999805e+00 +8.1501709185467455e+00 +0.0000000000000000e+00 +9.9999994664193821e+00 -5.6581692607772440e-04 +0.0000000000000000e+00 +9.9999983992559005e-01
1.0099999999999980e+01 +8.1501140539447050e+00 +0.0000000000000000e+00 +1.0099999450251332e+01 -5.7147511516954523e-04 +0.0000000000000000e+00 +9.9999983670808279e-01
1.0199999999999980e+01 +8.1500566235236178e+00 +0.0000000000000000e+00 +1.0199999433759931e+01 -5.7713330706194159e-04 +0.0000000000000000e+00 +9.9999983345855881e-01
1.0299999999999979e+01 +8.1499986272831908e+00 +0.0000000000000000e+00 +1.0299999416941978e+01 -5.8279150199338028e-04 +0.0000000000000000e+00 +9.9999983017701788e-01
1.0399999999999979e+01 +8.1499400652231095e+00 +0.0000000000000000e+00 +1.0399999399794268e+01 -5.8844970018998141e-04 +0.0000000000000000e+00 +9.9999982686345990e-01
1.0499999999999979e+01 +8.1498809373430365e+00 +0.0000000000000000e+00 +1.0499999382313602e+01 -5.9410790186551897e-04 +0.0000000000000000e+00 +9.9999982351788463e-01
1.0599999999999978e+01 +8.1498212436426130e+00 +0.0000000000000000e+00 +1.0599999364496778e+01 -5.9976610722142212e-04 +0.0000000000000000e+00 +9.9999982014029187e-01
1.0699999999999978e+01 +8.1497609841214622e+00 +0.0000000000000000e+00 +1.0699999346340594e+01 -6.0542431644677603e-04 +0.0000000000000000e+00 +9.9999981673068150e-01
1.0799999999999978e+01 +8.1497001587791882e+00 +0.0000000000000000e+00 +1.0799999327841848e+01 -6.1108252971832280e-04 +0.0000000000000000e+00 +9.9999981328905330e-01
1.0899999999999977e+01 +8.1496387676153788e+00 +0.0000000000000000e+00 +1.0899999308997337e+01 -6.1674074720046248e-04 +0.0000000000000000e+00 +9.9999980981540704e-01
1.0999999999999977e+01 +8.1495768106296040e+00 +0.0000000000000000e+00 +1.0999999289803862e+01 -6.2239896904525455e-04 +0.0000000000000000e+00 +9.9999980630974261e-01
1.1099999999999977e+01 +8.1495142878214200e+00 +0.0000000000000000e+00 +1.1099999270258218e+01 -6.2805719539241840e-04 +0.0000000000000000e+00 +9.9999980277205991e-01
1.1199999999999976e+01 +8.1494511991903718e+00 +0.0000000000000000e+00 +1.1199999250357205e+01 -6.3371542636933488e-04 +0.0000000000000000e+00 +9.9999979920235871e-01
1.1299999999999976e+01 +8.1493875447359887e+00 +0.0000000000000000e+00 +1.1299999230097622e+01 -6.3937366209104729e-04 +0.0000000000000000e+00 +9.9999979560063890e-01
1.1399999999999975e+01 +8.1493233244577912e+00 +0.0000000000000000e+00 +1.1399999209476267e+01 -6.4503190266026263e-04 +0.0000000000000000e+00 +9.9999979196690036e-01
1.1499999999999975e+01 +8.1492585383552907e+00 +0.0000000000000000e+00 +1.1499999188489936e+01 -6.5069014816735284e-04 +0.0000000000000000e+00 +9.9999978830114289e-01
1.1599999999999975e+01 +8.1491931864279898e+00 +0.0000000000000000e+00 +1.1599999167135428e+01 -6.5634839869035575e-04 +0.0000000000000000e+00 +9.9999978460336636e-01
1.1699999999999974e+01 +8.1491272686753824e+00 +0.0000000000000000e+00 +1.1699999145409542e+01 -6.6200665429497663e-04 +0.0000000000000000e+00 +9.9999978087357067e-01
1.1799999999999974e+01 +8.1490607850969585e+00 +0.0000000000000000e+00 +1.1799999123309075e+01 -6.6766491503458944e-04 +0.0000000000000000e+00 +9.9999977711175558e-01
