# field on trajectory
# s[mm] rx[mm] ry[mm] rz[mm] bx[T] by[T] bz[T]
0.0000000000000000e+00 +7.9199999999999999e+00 +0.0000000000000000e+00 +0.0000000000000000e+00 -2.9004839822375436e-02 -5.3867223209028925e-01 +5.3529110641227940e-03
-1.0000000000000001e-01 +7.9199997168830238e+00 +0.0000000000000000e+00 -9.9999999999465641e-02 -2.9004658351187599e-02 -5.3867268764756771e-01 +5.3529202476023515e-03
-2.0000000000000001e-01 +7.9199988675317758e+00 +0.0000000000000000e+00 -1.9999999999572504e-01 -2.9004468501433352e-02 -5.3867313742399414e-01 +5.3529304744648273e-03
-3.0000000000000004e-01 +7.9199974519457843e+00 +0.0000000000000000e+00 -2.9999999998557203e-01 -2.9004271014649488e-02 -5.3867358179500413e-01 +5.3529418038068630e-03
-4.0000000000000002e-01 +7.9199954701245820e+00 +0.0000000000000000e+00 -3.9999999996580038e-01 -2.9004066632365454e-02 -5.3867402113604068e-01 +5.3529542947270232e-03
-5.0000000000000000e-01 +7.9199929220677063e+00 +0.0000000000000000e+00 -4.9999999993320382e-01 -2.9003856096104202e-02 -5.3867445582254936e-01 +5.3529680063255170e-03
-5.9999999999999998e-01 +7.9199898077747015e+00 +0.0000000000000000e+00 -5.9999999988457609e-01 -2.9003640147383151e-02 -5.3867488622997328e-01 +5.3529829977039169e-03
-6.9999999999999996e-01 +7.9199861272451146e+00 +0.0000000000000000e+00 -6.9999999981671102e-01 -2.9003419527715110e-02 -5.3867531273374858e-01 +5.3529993279648894e-03
-7.9999999999999993e-01 +7.9199818804784972e+00 +0.0000000000000000e+00 -7.9999999972640223e-01 -2.9003194978609176e-02 -5.3867573570929983e-01 +5.3530170562119126e-03
-8.9999999999999991e-01 +7.9199770674744050e+00 +0.0000000000000000e+00 -8.9999999961044352e-01 -2.9002967241571687e-02 -5.3867615553203518e-01 +5.3530362415490050e-03
-9.9999999999999989e-01 +7.9199716882323967e+00 +0.0000000000000000e+00 -9.9999999946562868e-01 -2.9002737058107100e-02 -5.3867657257734092e-01 +5.3530569430804403e-03
-1.0999999999999999e+00 +7.9199657427520345e+00 +0.0000000000000000e+00 -1.0999999992887515e+00 -2.9002505169718966e-02 -5.3867698722057700e-01 +5.3530792199104754e-03
-1.2000000000000000e+00 +7.9199592310328821e+00 +0.0000000000000000e+00 -1.1999999990766055e+00 -2.9002272317910801e-02 -5.3867739983707330e-01 +5.3531031311430718e-03
-1.3000000000000000e+00 +7.9199521530745063e+00 +0.0000000000000000e+00 -1.2999999988259843e+00 -2.9002039244187049e-02 -5.3867781080212296e-01 +5.3531287358816243e-03
-1.4000000000000001e+00 +7.9199445088764753e+00 +0.0000000000000000e+00 -1.3999999985336817e+00 -2.9001806690053946e-02 -5.3867822049097935e-01 +5.3531560932286700e-03
-1.5000000000000002e+00 +7.9199362984383583e+00 +0.0000000000000000e+00 -1.4999999981964915e+00 -2.9001575397020536e-02 -5.3867862927885013e-01 +5.3531852622856332e-03
-1.6000000000000003e+00 +7.9199275217597265e+00 +0.0000000000000000e+00 -1.5999999978112074e+00 -2.9001346106599473e-02 -5.3867903754089297e-01 +5.3532163021525209e-03
-1.7000000000000004e+00 +7.9199181788401507e+00 +0.0000000000000000e+00 -1.6999999973746229e+00 -2.9001119560308056e-02 -5.3867944565221093e-01 +5.3532492719276740e-03
-1.8000000000000005e+00 +7.9199082696792020e+00 +0.0000000000000000e+00 -1.7999999968835318e+00 -2.9000896499669047e-02 -5.3867985398784624e-01 +5.3532842307074625e-03
-1.9000000000000006e+00 +7.9198977942764515e+00 +0.0000000000000000e+00 -1.8999999963347278e+00 -2.9000677666211682e-02 -5.3868026292277860e-01 +5.3533212375860345e-03
-2.0000000000000004e+00 +7.9198867526314691e+00 +0.0000000000000000e+00 -1.9999999957250045e+00 -2.9000463801472514e-02 -5.3868067283191667e-01 +5.3533603516550217e-03
-2.1000000000000005e+00 +7.9198751447438251e+00 +0.0000000000000000e+00 -2.0999999950511556e+00 -2.9000255498723544e-02 -5.3868108404085835e-01 +5.3534015899247122e-03
-2.2000000000000006e+00 +7.9198629706130879e+00 +0.0000000000000000e+00 -2.1999999943099748e+00 -2.9000052758151970e-02 -5.3868149667819920e-01 +5.3534448010892060e-03
-2.3000000000000007e+00 +7.9198502302388230e+00 +0.0000000000000000e+00 -2.2999999934982553e+00 -2.8999855431674958e-02 -5.3868191082329386e-01 +5.3534897917639568e-03
-2.4000000000000008e+00 +7.9198369236205961e+00 +0.0000000000000000e+00 -2.3999999926127913e+00 -2.8999663371211969e-02 -5.3868232655550452e-01 +5.3535363685647021e-03
-2.5000000000000009e+00 +7.9198230507579703e+00 +0.0000000000000000e+00 -2.4999999916503759e+00 -2.8999476428684844e-02 -5.3868274395420646e-01 +5.3535843381075825e-03
-2.6000000000000010e+00 +7.9198086116505078e+00 +0.0000000000000000e+00 -2.5999999906078033e+00 -2.8999294456017826e-02 -5.3868316309879194e-01 +5.3536335070092480e-03
-2.7000000000000011e+00 +7.9197936062977687e+00 +0.0000000000000000e+00 -2.6999999894818667e+00 -2.8999117305137607e-02 -5.3868358406867589e-01 +5.3536836818869902e-03
-2.8000000000000012e+00 +7.9197780346993101e+00 +0.0000000000000000e+00 -2.7999999882693598e+00 -2.8998944827973418e-02 -5.3868400694330043e-01 +5.3537346693588337e-03
-2.9000000000000012e+00 +7.9197618968546886e+00 +0.0000000000000000e+00 -2.8999999869670758e+00 -2.8998776876457005e-02 -5.3868443180213965e-01 +5.3537862760436638e-03
-3.0000000000000013e+00 +7.9197451927634575e+00 +0.0000000000000000e+00 -2.9999999855718089e+00 -2.8998613302522732e-02 -5.3868485872470429e-01 +5.3538383085613359e-03
-3.1000000000000014e+00 +7.9197279224251691e+00 +0.0000000000000000e+00 -3.0999999840803523e+00 -2.8998453958107615e-02 -5.3868528779054714e-01 +5.3538905735327907e-03
-3.2000000000000015e+00 +7.9197100858393723e+00 +0.0000000000000000e+00 -3.1999999824894996e+00 -2.8998298695151373e-02 -5.3868571907926710e-01 +5.3539428775801669e-03
-3.3000000000000016e+00 +7.9196916830056150e+00 +0.0000000000000000e+00 -3.2999999807960445e+00 -2.8998147365596465e-02 -5.3868615267051478e-01 +5.3539950273269136e-03
-3.4000000000000017e+00 +7.9196727139234415e+00 +0.0000000000000000e+00 -3.3999999789967803e+00 -2.8997999821388117e-02 -5.3868658864399654e-01 +5.3540468293979066e-03
-3.5000000000000018e+00 +7.9196531785923945e+00 +0.0000000000000000e+00 -3.4999999770885011e+00 -2.8997855914474437e-02 -5.3868702707948035e-01 +5.3540980904195658e-03
-3.6000000000000019e+00 +7.9196330770120138e+00 +0.0000000000000000e+00 -3.5999999750679996e+00 -2.8997715496806395e-02 -5.3868746805679935e-01 +5.3541486170199555e-03
-3.7000000000000020e+00 +7.9196124091818367e+00 +0.0000000000000000e+00 -3.6999999729320701e+00 -2.8997578420337886e-02 -5.3868791165585805e-01 +5.3541982158289191e-03
-3.8000000000000020e+00 +7.9195911751013970e+00 +0.0000000000000000e+00 -3.7999999706775056e+00 -2.8997444537025841e-02 -5.3868835795663594e-01 +5.3542466934781725e-03
-3.9000000000000021e+00 +7.9195693747702265e+00 +0.0000000000000000e+00 -3.8999999683011000e+00 -2.8997313698830147e-02 -5.3868880703919308e-01 +5.3542938566014360e-03
-4.0000000000000018e+00 +7.9195470081878536e+00 +0.0000000000000000e+00 -3.9999999657996463e+00 -2.8997185757713814e-02 -5.3868925898367459e-01 +5.3543395118345284e-03
-4.1000000000000014e+00 +7.9195240753538041e+00 +0.0000000000000000e+00 -4.0999999631699380e+00 -2.8997060544520458e-02 -5.3868971384306208e-01 +5.3543835367954777e-03
-4.2000000000000011e+00 +7.9195005762676010e+00 +0.0000000000000000e+00 -4.1999999604087694e+00 -2.8996937805608088e-02 -5.3869017156139742e-01 +5.3544260930228687e-03
-4.3000000000000007e+00 +7.9194765109287628e+00 +0.0000000000000000e+00 -4.2999999575129335e+00 -2.8996817266219235e-02 -5.3869063205551759e-01 +5.3544674130323556e-03
-4.4000000000000004e+00 +7.9194518793368074e+00 +0.0000000000000000e+00 -4.3999999544792230e+00 -2.8996698651604147e-02 -5.3869109524230474e-01 +5.3545077293358318e-03
-4.5000000000000000e+00 +7.9194266814912480e+00 +0.0000000000000000e+00 -4.4999999513044324e+00 -2.8996581687021083e-02 -5.3869156103868843e-01 +5.3545472744411932e-03
-4.5999999999999996e+00 +7.9194009173915960e+00 +0.0000000000000000e+00 -4.5999999479853546e+00 -2.8996466097736564e-02 -5.3869202936164695e-01 +5.3545862808520982e-03
-4.6999999999999993e+00 +7.9193745870373604e+00 +0.0000000000000000e+00 -4.6999999445187832e+00 -2.8996351609025740e-02 -5.3869250012820880e-01 +5.3546249810677328e-03
-4.7999999999999989e+00 +7.9193476904280464e+00 +0.0000000000000000e+00 -4.7999999409015119e+00 -2.8996237946172621e-02 -5.3869297325545396e-01 +5.3546636075825710e-03
-4.8999999999999986e+00 +7.9193202275631585e+00 +0.0000000000000000e+00 -4.8999999371303335e+00 -2.8996124834470449e-02 -5.3869344866051661e-01 +5.3547023928861414e-03
-4.9999999999999982e+00 +7.9192921984421973e+00 +0.0000000000000000e+00 -4.9999999332020417e+00 -2.8996011999221905e-02 -5.3869392626058510e-01 +5.3547415694627830e-03
-5.0999999999999979e+00 +7.9192636030646613e+00 +0.0000000000000000e+00 -5.0999999291134301e+00 -2.8995899165739483e-02 -5.3869440597290463e-01 +5.3547813697914105e-03
-5.1999999999999975e+00 +7.9192344414300475e+00 +0.0000000000000000e+00 -5.1999999248612916e+00 -2.8995786059345732e-02 -5.3869488771477858e-01 +5.3548220263452805e-03
-5.2999999999999972e+00 +7.9192047135378507e+00 +0.0000000000000000e+00 -5.2999999204424197e+00 -2.8995672405373617e-02 -5.3869537140356960e-01 +5.3548637715917407e-03
-5.3999999999999968e+00 +7.9191744193875628e+00 +0.0000000000000000e+00 -5.3999999158536083e+00 -2.8995557929166742e-02 -5.3869585695670208e-01 +5.3549068379920113e-03
-5.4999999999999964e+00 +7.9191435589786749e+00 +0.0000000000000000e+00 -5.4999999110916500e+00 -2.8995442356079707e-02 -5.3869634429166247e-01 +5.3549514580009299e-03
-5.5999999999999961e+00 +7.9191121323106763e+00 +0.0000000000000000e+00 -5.5999999061533394e+00 -2.8995325411478381e-02 -5.3869683332600216e-01 +5.3549978640667203e-03
-5.6999999999999957e+00 +7.9190801393830528e+00 +0.0000000000000000e+00 -5.6999999010354685e+00 -2.8995206820740204e-02 -5.3869732397733761e-01 +5.3550462886307560e-03
-5.7999999999999954e+00 +7.9190475801952900e+00 +0.0000000000000000e+00 -5.7999998957348309e+00 -2.8995086309254504e-02 -5.3869781616335333e-01 +5.3550969641273233e-03
-5.8999999999999950e+00 +7.9190144547468719e+00 +0.0000000000000000e+00 -5.8999998902482202e+00 -2.8994963602422784e-02 -5.3869830980180278e-01 +5.3551501229833756e-03
-5.9999999999999947e+00 +7.9189807630372808e+00 +0.0000000000000000e+00 -5.9999998845724303e+00 -2.8994838425659020e-02 -5.3869880481050991e-01 +5.3552059976183040e-03
-6.0999999999999943e+00 +7.9189465050659971e+00 +0.0000000000000000e+00 -6.0999998787042538e+00 -2.8994710624190945e-02 -5.3869930123039089e-01 +5.3552647418493218e-03
-6.1999999999999940e+00 +7.9189116808325002e+00 +0.0000000000000000e+00 -6.1999998726404835e+00 -2.8994580522454075e-02 -5.3869979959446856e-01 +5.3553261951130877e-03
-6.2999999999999936e+00 +7.9188762903362671e+00 +0.0000000000000000e+00 -6.2999998663779140e+00 -2.8994448564668440e-02 -5.3870030055871654e-01 +5.3553901182600257e-03
-6.3999999999999932e+00 +7.9188403335767719e+00 +0.0000000000000000e+00 -6.3999998599133372e+00 -2.8994315195033055e-02 -5.3870080477902060e-01 +5.3554562721512301e-03
-6.4999999999999929e+00 +7.9188038105534861e+00 +0.0000000000000000e+00 -6.4999998532435477e+00 -2.8994180857724861e-02 -5.3870131291117263e-01 +5.3555244176589538e-03
-6.5999999999999925e+00 +7.9187667212658770e+00 +0.0000000000000000e+00 -6.5999998463653373e+00 -2.8994045996897706e-02 -5.3870182561086732e-01 +5.3555943156671088e-03
-6.6999999999999922e+00 +7.9187290657134071e+00 +0.0000000000000000e+00 -6.6999998392755007e+00 -2.8993911056681341e-02 -5.3870234353369695e-01 +5.3556657270717786e-03
-6.7999999999999918e+00 +7.9186908438955319e+00 +0.0000000000000000e+00 -6.7999998319708297e+00 -2.8993776481180303e-02 -5.3870286733514650e-01 +5.3557384127816982e-03
-6.8999999999999915e+00 +7.9186520558117026e+00 +0.0000000000000000e+00 -6.8999998244481189e+00 -2.8993642714472953e-02 -5.3870339767058872e-01 +5.3558121337187702e-03
-6.9999999999999911e+00 +7.9186127014613632e+00 +0.0000000000000000e+00 -6.9999998167041602e+00 -2.8993510200610376e-02 -5.3870393519527959e-01 +5.3558866508185542e-03
-7.0999999999999908e+00 +7.9185727808439497e+00 +0.0000000000000000e+00 -7.0999998087357481e+00 -2.8993379383615379e-02 -5.3870448056435316e-01 +5.3559617250307735e-03
-7.1999999999999904e+00 +7.9185322939588900e+00 +0.0000000000000000e+00 -7.1999998005396746e+00 -2.8993250707481440e-02 -5.3870503443281781e-01 +5.3560371173198137e-03
-7.2999999999999901e+00 +7.9184912408056025e+00 +0.0000000000000000e+00 -7.2999997921127333e+00 -2.8993124616171664e-02 -5.3870559745555013e-01 +5.3561125886652161e-03
-7.3999999999999897e+00 +7.9184496213834974e+00 +0.0000000000000000e+00 -7.3999997834517179e+00 -2.8993001553617764e-02 -5.3870617028729151e-01 +5.3561879000621881e-03
-7.4999999999999893e+00 +7.9184074356919742e+00 +0.0000000000000000e+00 -7.4999997745534213e+00 -2.8992881963718988e-02 -5.3870675358264164e-01 +5.3562628125220927e-03
-7.5999999999999890e+00 +7.9183646837304202e+00 +0.0000000000000000e+00 -7.5999997654146361e+00 -2.8992766290341077e-02 -5.3870734799605524e-01 +5.3563370870729488e-03
-7.6999999999999886e+00 +7.9183213654982119e+00 +0.0000000000000000e+00 -7.6999997560321560e+00 -2.8992654977315291e-02 -5.3870795418183703e-01 +5.3564104847599473e-03
-7.7999999999999883e+00 +7.9182774809947141e+00 +0.0000000000000000e+00 -7.7999997464027739e+00 -2.8992548468437278e-02 -5.3870857279413675e-01 +5.3564827666459282e-03
-7.8999999999999879e+00 +7.9182330302192776e+00 +0.0000000000000000e+00 -7.8999997365232826e+00 -2.8992447207466063e-02 -5.3870920448694404e-01 +5.3565536938118890e-03
-7.9999999999999876e+00 +7.9181880131712399e+00 +0.0000000000000000e+00 -7.9999997263904756e+00 -2.8992351638123057e-02 -5.3870984991408388e-01 +5.3566230273574909e-03
-8.0999999999999872e+00 +7.9181424298499232e+00 +0.0000000000000000e+00 -8.0999997160011450e+00 -2.8992262086683290e-02 -5.3871050944595900e-01 +5.3566905932865031e-03
-8.1999999999999869e+00 +7.9180962802546366e+00 +0.0000000000000000e+00 -8.1999997053520843e+00 -2.8992178409764129e-02 -5.3871118231980109e-01 +5.3567564771549803e-03
-8.2999999999999865e+00 +7.9180495643846740e+00 +0.0000000000000000e+00 -8.2999996944400873e+00 -2.8992100346578953e-02 -5.3871186748947841e-01 +5.3568208293991977e-03
-8.3999999999999861e+00 +7.9180022822393168e+00 +0.0000000000000000e+00 -8.3999996832619459e+00 -2.8992027636351302e-02 -5.3871256390875721e-01 +5.3568838004469845e-03
-8.4999999999999858e+00 +7.9179544338178340e+00 +0.0000000000000000e+00 -8.4999996718144537e+00 -2.8991960018315326e-02 -5.3871327053129936e-01 +5.3569455407173824e-03
-8.5999999999999854e+00 +7.9179060191194859e+00 +0.0000000000000000e+00 -8.5999996600944044e+00 -2.8991897231716274e-02 -5.3871398631066036e-01 +5.3570062006202731e-03
-8.6999999999999851e+00 +7.9178570381435200e+00 +0.0000000000000000e+00 -8.6999996480985899e+00 -2.8991839015811073e-02 -5.3871471020028716e-01 +5.3570659305560413e-03
-8.7999999999999847e+00 +7.9178074908891780e+00 +0.0000000000000000e+00 -8.7999996358238040e+00 -2.8991785109868700e-02 -5.3871544115351477e-01 +5.3571248809152015e-03
-8.8999999999999844e+00 +7.9177573773556933e+00 +0.0000000000000000e+00 -8.8999996232668384e+00 -2.8991735253170777e-02 -5.3871617812356520e-01 +5.3571832020780571e-03
-8.9999999999999840e+00 +7.9177066975422932e+00 +0.0000000000000000e+00 -8.9999996104244868e+00 -2.8991689185011958e-02 -5.3871692006354410e-01 +5.3572410444143303e-03
-9.0999999999999837e+00 +7.9176554514481987e+00 +0.0000000000000000e+00 -9.0999995972935412e+00 -2.8991646644700515e-02 -5.3871766592643844e-01 +5.3572985582828201e-03
-9.1999999999999833e+00 +7.9176036390726274e+00 +0.0000000000000000e+00 -9.1999995838707953e+00 -2.8991607371558772e-02 -5.3871841466511483e-01 +5.3573558940310378e-03
-9.2999999999999829e+00 +7.9175512604147951e+00 +0.0000000000000000e+00 -9.2999995701530427e+00 -2.8991571104923602e-02 -5.3871916523231644e-01 +5.3574132019948532e-03
-9.3999999999999826e+00 +7.9174983154739138e+00 +0.0000000000000000e+00 -9.3999995561370735e+00 -2.8991537584146947e-02 -5.3871991658066098e-01 +5.3574706324981420e-03
-9.4999999999999822e+00 +7.9174448042491958e+00 +0.0000000000000000e+00 -9.4999995418196832e+00 -2.8991506548596266e-02 -5.3872066766263838e-01 +5.3575283358524260e-03
-9.5999999999999819e+00 +7.9173907267398533e+00 +0.0000000000000000e+00 -9.5999995271976637e+00 -2.8991477737655057e-02 -5.3872141743060775e-01 +5.3575864623565160e-03
-9.6999999999999815e+00 +7.9173360829450994e+00 +0.0000000000000000e+00 -9.6999995122678069e+00 -2.8991450890723344e-02 -5.3872216483679602e-01 +5.3576451622961707e-03
-9.7999999999999812e+00 +7.9172808728641515e+00 +0.0000000000000000e+00 -9.7999994970269064e+00 -2.8991425747218157e-02 -5.3872290883329499e-01 +5.3577045859437194e-03
-9.8999999999999808e+00 +7.9172250964962281e+00 +0.0000000000000000e+00 -9.8999994814717560e+00 -2.8991402046574015e-02 -5.3872364837205855e-01 +5.3577648835577201e-03
-9.9999999999999805e+00 +7.9171687538405546e+00 +0.0000000000000000e+00 -9.9999994655991475e+00 -2.8991379528243461e-02 -5.3872438240490128e-01 +5.3578262053826054e-03
-1.0099999999999980e+01 +7.9171118448963611e+00 +0.0000000000000000e+00 -1.0099999449405873e+01 -2.8991357926666728e-02 -5.3872511016658509e-01 +5.3578886752938572e-03
-1.0199999999999980e+01 +7.9170543696628846e+00 +0.0000000000000000e+00 -1.0199999432888726e+01 -2.8991336956175302e-02 -5.3872583202422974e-01 +5.3579523117367918e-03
-1.0299999999999979e+01 +7.9169963281393674e+00 +0.0000000000000000e+00 -1.0299999416044498e+01 -2.8991316326077286e-02 -5.3872654862825387e-01 +5.3580171067978922e-03
-1.0399999999999979e+01 +7.9169377203250590e+00 +0.0000000000000000e+00 -1.0399999398869983e+01 -2.8991295745687443e-02 -5.3872726062931320e-01 +5.3580830525611087e-03
-1.0499999999999979e+01 +7.9168785462192117e+00 +0.0000000000000000e+00 -1.0499999381361974e+01 -2.8991274924327411e-02 -5.3872796867830719e-01 +5.3581501411078085e-03
-1.0599999999999978e+01 +7.9168188058210838e+00 +0.0000000000000000e+00 -1.0599999363517263e+01 -2.8991253571325783e-02 -5.3872867342638575e-01 +5.3582183645167290e-03
-1.0699999999999978e+01 +7.9167584991299362e+00 +0.0000000000000000e+00 -1.0699999345332643e+01 -2.8991231396018387e-02 -5.3872937552495725e-01 +5.3582877148639360e-03
-1.0799999999999978e+01 +7.9166976261450328e+00 +0.0000000000000000e+00 -1.0799999326804906e+01 -2.8991208107748401e-02 -5.3873007562569342e-01 +5.3583581842227808e-03
-1.0899999999999977e+01 +7.9166361868656399e+00 +0.0000000000000000e+00 -1.0899999307930846e+01 -2.8991183415866539e-02 -5.3873077438053785e-01 +5.3584297646638432e-03
-1.0999999999999977e+01 +7.9165741812910237e+00 +0.0000000000000000e+00 -1.0999999288707254e+01 -2.8991157029731238e-02 -5.3873147244171171e-01 +5.3585024482548978e-03
-1.1099999999999977e+01 +7.9165116094204535e+00 +0.0000000000000000e+00 -1.1099999269130924e+01 -2.8991128658708811e-02 -5.3873217046172095e-01 +5.3585762270608626e-03
-1.1199999999999976e+01 +7.9164484712531973e+00 +0.0000000000000000e+00 -1.1199999249198648e+01 -2.8991098012173644e-02 -5.3873286909336382e-01 +5.3586510931437617e-03
-1.1299999999999976e+01 +7.9163847667885223e+00 +0.0000000000000000e+00 -1.1299999228907218e+01 -2.8991064799508359e-02 -5.3873356898973634e-01 +5.3587270385626676e-03
-1.1399999999999975e+01 +7.9163204960256950e+00 +0.0000000000000000e+00 -1.1399999208253428e+01 -2.8991028730103976e-02 -5.3873427080423986e-01 +5.3588040553736579e-03
-1.1499999999999975e+01 +7.9162556589639799e+00 +0.0000000000000000e+00 -1.1499999187234069e+01 -2.8990989513360124e-02 -5.3873497519058811e-01 +5.3588821356297849e-03
-1.1599999999999975e+01 +7.9161902556026389e+00 +0.0000000000000000e+00 -1.1599999165845935e+01 -2.8990946858685186e-02 -5.3873568280281325e-01 +5.3589612713810103e-03
-1.1699999999999974e+01 +7.9161242859409295e+00 +0.0000000000000000e+00 -1.1699999144085817e+01 -2.8990900475496462e-02 -5.3873639429527354e-01 +5.3590414546741795e-03
