# field on trajectory
# s[mm] rx[mm] ry[mm] rz[mm] bx[T] by[T] bz[T]
0.0000000000000000e+00 +8.1530000000000005e+00 +0.0000000000000000e+00 +0.0000000000000000e+00 -3.1330630415669039e-02 -5.6446260925228176e-01 +5.5902975368167900e-03
1.0000000000000001e-01 +8.1529997163961507e+00 +0.0000000000000000e+00 +9.9999999999463796e-02 -3.1330779902020107e-02 -5.6446259747641425e-01 +5.5903299048733271e-03
2.0000000000000001e-01 +8.1529988655856904e+00 +0.0000000000000000e+00 +1.9999999999571000e-01 -3.1330929192857696e-02 -5.6446259353340533e-01 +5.5903643171382172e-03
2.9999999999999999e-01 +8.1529974475670297e+00 +0.0000000000000000e+00 +2.9999999998552201e-01 -3.1331078430472108e-02 -5.6446259714487956e-01 +5.5904008198618127e-03
4.0000000000000002e-01 +8.1529954623438208e+00 +0.0000000000000000e+00 +3.9999999996568297e-01 -3.1331227757154030e-02 -5.6446260803242476e-01 +5.5904394592949319e-03
5.0000000000000000e-01 +8.1529929099124292e+00 +0.0000000000000000e+00 +4.9999999993297400e-01 -3.1331377315199319e-02 -5.6446262591768814e-01 +5.5904802816898165e-03
5.9999999999999998e-01 +8.1529897902728408e+00 +0.0000000000000000e+00 +5.9999999988417896e-01 -3.1331527246904918e-02 -5.6446265052229094e-01 +5.5905233332992875e-03
6.9999999999999996e-01 +8.1529861034287006e+00 +0.0000000000000000e+00 +6.9999999981608096e-01 -3.1331677694568988e-02 -5.6446268156782697e-01 +5.5905686603767019e-03
8.0000000000000004e-01 +8.1529818493763706e+00 +0.0000000000000000e+00 +7.9999999972546199e-01 -3.1331828800495072e-02 -5.6446271877594689e-01 +5.5906163091768392e-03
9.0000000000000002e-01 +8.1529770281158598e+00 +0.0000000000000000e+00 +8.9999999960910604e-01 -3.1331980706988026e-02 -5.6446276186827227e-01 +5.5906663259550002e-03
1.0000000000000000e+00 +8.1529716396507901e+00 +0.0000000000000000e+00 +9.9999999946379403e-01 -3.1332133556354079e-02 -5.6446281056639513e-01 +5.5907187569670226e-03
1.1000000000000001e+00 +8.1529656839775306e+00 +0.0000000000000000e+00 +1.0999999992863101e+00 -3.1332287490905074e-02 -5.6446286459196071e-01 +5.5907736484701147e-03
1.2000000000000000e+00 +8.1529591610960797e+00 +0.0000000000000000e+00 +1.1999999990734400e+00 -3.1332442652954352e-02 -5.6446292366658335e-01 +5.5908310467219875e-03
1.3000000000000000e+00 +8.1529520710100805e+00 +0.0000000000000000e+00 +1.2999999988219599e+00 -3.1332599184816859e-02 -5.6446298751184443e-01 +5.5908909979808510e-03
1.3999999999999999e+00 +8.1529444137122500e+00 +0.0000000000000000e+00 +1.3999999985286500e+00 -3.1332757228814762e-02 -5.6446305584940470e-01 +5.5909535485065501e-03
1.5000000000000000e+00 +8.1529361892135093e+00 +0.0000000000000000e+00 +1.4999999981903001e+00 -3.1332916927266384e-02 -5.6446312840077817e-01 +5.5910187445582646e-03
1.6000000000000001e+00 +8.1529273975065699e+00 +0.0000000000000000e+00 +1.5999999978037001e+00 -3.1333078422500181e-02 -5.6446320488761259e-01 +5.5910866323973492e-03
1.7000000000000000e+00 +8.1529180385914497e+00 +0.0000000000000000e+00 +1.6999999973656199e+00 -3.1333241856845044e-02 -5.6446328503149146e-01 +5.5911572582853395e-03
1.8000000000000000e+00 +8.1529081124681397e+00 +0.0000000000000000e+00 +1.7999999968728499e+00 -3.1333407372633244e-02 -5.6446336855398860e-01 +5.5912306684844969e-03
1.8999999999999999e+00 +8.1528976191402798e+00 +0.0000000000000000e+00 +1.8999999963221601e+00 -3.1333575112199037e-02 -5.6446345517664176e-01 +5.5913069092575337e-03
2.0000000000000000e+00 +8.1528865586042194e+00 +0.0000000000000000e+00 +1.9999999957103500e+00 -3.1333745217882909e-02 -5.6446354462103299e-01 +5.5913860268684357e-03
2.1000000000000001e+00 +8.1528749308599799e+00 +0.0000000000000000e+00 +2.0999999950341901e+00 -3.1333917711627753e-02 -5.6446363661683474e-01 +5.5914680356315121e-03
2.2000000000000002e+00 +8.1528627359111905e+00 +0.0000000000000000e+00 +2.1999999942904802e+00 -3.1334092133775499e-02 -5.6446373092620450e-01 +5.5915528220611150e-03
2.2999999999999998e+00 +8.1528499737542006e+00 +0.0000000000000000e+00 +2.2999999934759798e+00 -3.1334267904262025e-02 -5.6446382731949019e-01 +5.5916402407229721e-03
2.3999999999999999e+00 +8.1528366443890299e+00 +0.0000000000000000e+00 +2.3999999925874800e+00 -3.1334444443010520e-02 -5.6446392556701752e-01 +5.5917301461834868e-03
2.5000000000000000e+00 +8.1528227478193003e+00 +0.0000000000000000e+00 +2.4999999916217801e+00 -3.1334621169929779e-02 -5.6446402543909224e-01 +5.5918223930097538e-03
2.6000000000000001e+00 +8.1528082840413791e+00 +0.0000000000000000e+00 +2.5999999905756401e+00 -3.1334797504917168e-02 -5.6446412670608459e-01 +5.5919168357704318e-03
2.7000000000000002e+00 +8.1527932530552807e+00 +0.0000000000000000e+00 +2.6999999894458502e+00 -3.1334972867852771e-02 -5.6446422913834715e-01 +5.5920133290349085e-03
2.7999999999999998e+00 +8.1527776548646198e+00 +0.0000000000000000e+00 +2.7999999882291999e+00 -3.1335146678598158e-02 -5.6446433250621553e-01 +5.5921117273733199e-03
2.8999999999999999e+00 +8.1527614894657692e+00 +0.0000000000000000e+00 +2.8999999869224702e+00 -3.1335318356998980e-02 -5.6446443658009393e-01 +5.5922118853574190e-03
3.0000000000000000e+00 +8.1527447568587394e+00 +0.0000000000000000e+00 +2.9999999855224302e+00 -3.1335487322879337e-02 -5.6446454113037214e-01 +5.5923136575597469e-03
3.1000000000000001e+00 +8.1527274570471508e+00 +0.0000000000000000e+00 +3.0999999840258798e+00 -3.1335652996040429e-02 -5.6446464592742562e-01 +5.5924168985536475e-03
3.2000000000000002e+00 +8.1527095900273707e+00 +0.0000000000000000e+00 +3.1999999824295902e+00 -3.1335814796263226e-02 -5.6446475074170332e-01 +5.5925214629141433e-03
3.2999999999999998e+00 +8.1526911557994008e+00 +0.0000000000000000e+00 +3.2999999807303602e+00 -3.1335972143302838e-02 -5.6446485534364188e-01 +5.5926272052170892e-03
3.3999999999999999e+00 +8.1526721543668792e+00 +0.0000000000000000e+00 +3.3999999789249502e+00 -3.1336124456887084e-02 -5.6446495950366904e-01 +5.5927339800392111e-03
3.5000000000000000e+00 +8.1526525857261696e+00 +0.0000000000000000e+00 +3.4999999770101602e+00 -3.1336271156719199e-02 -5.6446506299228749e-01 +5.5928416419589568e-03
3.6000000000000001e+00 +8.1526324498772702e+00 +0.0000000000000000e+00 +3.5999999749827598e+00 -3.1336411662472308e-02 -5.6446516557999227e-01 +5.5929500455556783e-03
3.7000000000000002e+00 +8.1526117468238208e+00 +0.0000000000000000e+00 +3.6999999728395401e+00 -3.1336545393787794e-02 -5.6446526703727318e-01 +5.5930590454096440e-03
3.7999999999999998e+00 +8.1525904765621799e+00 +0.0000000000000000e+00 +3.7999999705772902e+00 -3.1336671770278227e-02 -5.6446536713469775e-01 +5.5931684961029087e-03
3.8999999999999999e+00 +8.1525686390959908e+00 +0.0000000000000000e+00 +3.8999999681927799e+00 -3.1336790211520228e-02 -5.6446546564280176e-01 +5.5932782522181909e-03
4.0000000000000000e+00 +8.1525462344179704e+00 +0.0000000000000000e+00 +3.9999999656827998e+00 -3.1336900137060024e-02 -5.6446556233223089e-01 +5.5933881683403403e-03
4.0999999999999996e+00 +8.1525232625354001e+00 +0.0000000000000000e+00 +4.0999999630441302e+00 -3.1337001192187144e-02 -5.6446565721536834e-01 +5.5934981210867610e-03
4.2000000000000002e+00 +8.1524997234482708e+00 +0.0000000000000000e+00 +4.1999999602735496e+00 -3.1337093925311865e-02 -5.6446575127196530e-01 +5.5936080752048830e-03
4.2999999999999998e+00 +8.1524756171529607e+00 +0.0000000000000000e+00 +4.2999999573678496e+00 -3.1337179110634418e-02 -5.6446584572362912e-01 +5.5937180174714472e-03
4.4000000000000004e+00 +8.1524509436494608e+00 +0.0000000000000000e+00 +4.3999999543238104e+00 -3.1337257522361626e-02 -5.6446594179193799e-01 +5.5938279346587601e-03
4.5000000000000000e+00 +8.1524257029377605e+00 +0.0000000000000000e+00 +4.4999999511382098e+00 -3.1337329934709585e-02 -5.6446604069847139e-01 +5.5939378135346825e-03
4.5999999999999996e+00 +8.1523998950215208e+00 +0.0000000000000000e+00 +4.5999999478078299e+00 -3.1337397121903442e-02 -5.6446614366477921e-01 +5.5940476408620652e-03
4.7000000000000002e+00 +8.1523735198970808e+00 +0.0000000000000000e+00 +4.6999999443294600e+00 -3.1337459858182926e-02 -5.6446625191246713e-01 +5.5941574033993267e-03
4.7999999999999998e+00 +8.1523465775644599e+00 +0.0000000000000000e+00 +4.7999999406998803e+00 -3.1337518917799227e-02 -5.6446636666311012e-01 +5.5942670878992955e-03
4.9000000000000004e+00 +8.1523190680272801e+00 +0.0000000000000000e+00 +4.8999999369158704e+00 -3.1337575075016437e-02 -5.6446648913825437e-01 +5.5943766811089339e-03
5.0000000000000000e+00 +8.1522909912819195e+00 +0.0000000000000000e+00 +4.9999999329742204e+00 -3.1337629104116846e-02 -5.6446662055949914e-01 +5.5944861697699039e-03
5.0999999999999996e+00 +8.1522623473319999e+00 +0.0000000000000000e+00 +5.0999999288717000e+00 -3.1337681779396595e-02 -5.6446676214838432e-01 +5.5945955406171413e-03
5.2000000000000002e+00 +8.1522331361738907e+00 +0.0000000000000000e+00 +5.1999999246051098e+00 -3.1337733875172559e-02 -5.6446691512650327e-01 +5.5947047803797034e-03
5.2999999999999998e+00 +8.1522033578075899e+00 +0.0000000000000000e+00 +5.2999999201712198e+00 -3.1337786165779327e-02 -5.6446708071541674e-01 +5.5948138757796438e-03
5.4000000000000004e+00 +8.1521730122331100e+00 +0.0000000000000000e+00 +5.3999999155668199e+00 -3.1337839425571903e-02 -5.6446726013668125e-01 +5.5949228135319896e-03
5.5000000000000000e+00 +8.1521420994540694e+00 +0.0000000000000000e+00 +5.4999999107886799e+00 -3.1337894428925518e-02 -5.6446745461182046e-01 +5.5950315803441810e-03
5.5999999999999996e+00 +8.1521106194668391e+00 +0.0000000000000000e+00 +5.5999999058335996e+00 -3.1337951950241000e-02 -5.6446766536240922e-01 +5.5951401629166439e-03
5.7000000000000002e+00 +8.1520785722750606e+00 +0.0000000000000000e+00 +5.6999999006983604e+00 -3.1338012763940479e-02 -5.6446789360996008e-01 +5.5952485479413509e-03
5.7999999999999998e+00 +8.1520459578750906e+00 +0.0000000000000000e+00 +5.7999998953797300e+00 -3.1338077644474258e-02 -5.6446814057603523e-01 +5.5953567221026842e-03
5.9000000000000004e+00 +8.1520127762669308e+00 +0.0000000000000000e+00 +5.8999998898744996e+00 -3.1338147366317737e-02 -5.6446840748216298e-01 +5.5954646720762953e-03
5.9999999999999902e+00 +8.1519790274505795e+00 +0.0000000000000000e+00 +5.9999998841794504e+00 -3.1338222703974100e-02 -5.6446869554986345e-01 +5.5955723845290822e-03
6.0999999999999899e+00 +8.1519447114296799e+00 +0.0000000000000000e+00 +6.0999998782913698e+00 -3.1338304325719976e-02 -5.6446900548915557e-01 +5.5956798679577978e-03
6.1999999999999904e+00 +8.1519098282005906e+00 +0.0000000000000000e+00 +6.1999998722070400e+00 -3.1338392474840576e-02 -5.6446933596423354e-01 +5.5957872182123228e-03
6.2999999999999901e+00 +8.1518743777669407e+00 +0.0000000000000000e+00 +6.2999998659232403e+00 -3.1338487288377133e-02 -5.6446968512774642e-01 +5.5958945529856717e-03
6.3999999999999897e+00 +8.1518383601214701e+00 +0.0000000000000000e+00 +6.3999998594367504e+00 -3.1338588903387719e-02 -5.6447005113240878e-01 +5.5960019899776456e-03
6.4999999999999902e+00 +8.1518017752750893e+00 +0.0000000000000000e+00 +6.4999998527443603e+00 -3.1338697456936668e-02 -5.6447043213077264e-01 +5.5961096468928901e-03
6.5999999999999899e+00 +8.1517646232205205e+00 +0.0000000000000000e+00 +6.5999998458428504e+00 -3.1338813086108835e-02 -5.6447082627550871e-01 +5.5962176414440599e-03
6.6999999999999904e+00 +8.1517269039541098e+00 +0.0000000000000000e+00 +6.6999998387290001e+00 -3.1338935928001833e-02 -5.6447123171923774e-01 +5.5963260913504407e-03
6.7999999999999901e+00 +8.1516886174867995e+00 +0.0000000000000000e+00 +6.7999998313996004e+00 -3.1339066119722203e-02 -5.6447164661444305e-01 +5.5964351143373853e-03
6.8999999999999897e+00 +8.1516497638112906e+00 +0.0000000000000000e+00 +6.8999998238514202e+00 -3.1339203798398566e-02 -5.6447206911372450e-01 +5.5965448281392457e-03
6.9999999999999902e+00 +8.1516103429239593e+00 +0.0000000000000000e+00 +6.9999998160812602e+00 -3.1339349101173544e-02 -5.6447249736962835e-01 +5.5966553504979604e-03
7.0999999999999899e+00 +8.1515703548320708e+00 +0.0000000000000000e+00 +7.0999998080858804e+00 -3.1339502165201621e-02 -5.6447292953459016e-01 +5.5967667991628006e-03
7.1999999999999904e+00 +8.1515297995356395e+00 +0.0000000000000000e+00 +7.1999997998620904e+00 -3.1339663127656472e-02 -5.6447336376107404e-01 +5.5968792918921336e-03
7.2999999999999901e+00 +8.1514886770310095e+00 +0.0000000000000000e+00 +7.2999997914066501e+00 -3.1339832125730063e-02 -5.6447379820154475e-01 +5.5969929464534558e-03
7.3999999999999897e+00 +8.1514469873182005e+00 +0.0000000000000000e+00 +7.3999997827163604e+00 -3.1340009296630326e-02 -5.6447423100840899e-01 +5.5971078806231374e-03
7.4999999999999902e+00 +8.1514047304008308e+00 +0.0000000000000000e+00 +7.4999997737879900e+00 -3.1340194777581702e-02 -5.6447466033401617e-01 +5.5972242121867634e-03
7.5999999999999899e+00 +8.1513619062752696e+00 +0.0000000000000000e+00 +7.5999997646183202e+00 -3.1340388705829635e-02 -5.6447508433074023e-01 +5.5973420589402840e-03
7.6999999999999904e+00 +8.1513185149451601e+00 +0.0000000000000000e+00 +7.6999997552041499e+00 -3.1340591218635631e-02 -5.6447550115086809e-01 +5.5974615386892215e-03
7.7999999999999901e+00 +8.1512745564032194e+00 +0.0000000000000000e+00 +7.7999997455422498e+00 -3.1340802453284591e-02 -5.6447590894673760e-01 +5.5975827692504119e-03
7.8999999999999897e+00 +8.1512300306567305e+00 +0.0000000000000000e+00 +7.8999997356294100e+00 -3.1341022547075548e-02 -5.6447630587054087e-01 +5.5977058684503174e-03
7.9999999999999902e+00 +8.1511849377056897e+00 +0.0000000000000000e+00 +7.9999997254624002e+00 -3.1341251637330557e-02 -5.6447669007449197e-01 +5.5978309541270784e-03
8.0999999999999908e+00 +8.1511392775464593e+00 +0.0000000000000000e+00 +8.0999997150380096e+00 -3.1341489649602067e-02 -5.6447706013188781e-01 +5.5979581108137931e-03
8.1999999999999904e+00 +8.1510930501790408e+00 +0.0000000000000000e+00 +8.1999997043530293e+00 -3.1341735662277333e-02 -5.6447741630034498e-01 +5.5980872897801754e-03
8.2999999999999901e+00 +8.1510462556034309e+00 +0.0000000000000000e+00 +8.2999996934042404e+00 -3.1341988541937357e-02 -5.6447775925856503e-01 +5.5982184089719183e-03
8.3999999999999897e+00 +8.1509988938232691e+00 +0.0000000000000000e+00 +8.3999996821884100e+00 -3.1342247155147183e-02 -5.6447808968521207e-01 +5.5983513863257749e-03
8.4999999999999893e+00 +8.1509509648349194e+00 +0.0000000000000000e+00 +8.4999996707023406e+00 -3.1342510368459399e-02 -5.6447840825899531e-01 +5.5984861397701024e-03
8.5999999999999908e+00 +8.1509024686420197e+00 +0.0000000000000000e+00 +8.5999996589427994e+00 -3.1342777048407995e-02 -5.6447871565855889e-01 +5.5986225872234419e-03
8.6999999999999904e+00 +8.1508534052409196e+00 +0.0000000000000000e+00 +8.6999996469065692e+00 -3.1343046061513342e-02 -5.6447901256259203e-01 +5.5987606465953419e-03
8.7999999999999794e+00 +8.1508037746316404e+00 +0.0000000000000000e+00 +8.7999996345904599e+00 -3.1343316274277340e-02 -5.6447929964974597e-01 +5.5989002357852312e-03
8.8999999999999808e+00 +8.1507535768178094e+00 +0.0000000000000000e+00 +8.8999996219912205e+00 -3.1343586553182937e-02 -5.6447957759863365e-01 +5.5990412726820938e-03
8.9999999999999805e+00 +8.1507028117957798e+00 +0.0000000000000000e+00 +8.9999996091056396e+00 -3.1343855764697573e-02 -5.6447984708791410e-01 +5.5991836751650651e-03
9.0999999999999801e+00 +8.1506514795655693e+00 +0.0000000000000000e+00 +9.0999995959305195e+00 -3.1344122775268476e-02 -5.6448010879620725e-01 +5.5993273611022474e-03
9.1999999999999797e+00 +8.1505995801308000e+00 +0.0000000000000000e+00 +9.1999995824626293e+00 -3.1344386451322051e-02 -5.6448036340209495e-01 +5.5994722483504317e-03
9.2999999999999794e+00 +8.1505471134878498e+00 +0.0000000000000000e+00 +9.2999995686987500e+00 -3.1344645659267450e-02 -5.6448061158420393e-01 +5.5996182547556434e-03
9.3999999999999808e+00 +8.1504940796366991e+00 +0.0000000000000000e+00 +9.3999995546356701e+00 -3.1344899265491777e-02 -5.6448085402112380e-01 +5.5997652981520174e-03
9.4999999999999805e+00 +8.1504404785773694e+00 +0.0000000000000000e+00 +9.4999995402701707e+00 -3.1345146136360899e-02 -5.6448109139143110e-01 +5.5999132963617569e-03
9.5999999999999801e+00 +8.1503863103171206e+00 +0.0000000000000000e+00 +9.5999995255990296e+00 -3.1345385138216053e-02 -5.6448132437363785e-01 +5.6000621671942821e-03
9.6999999999999797e+00 +8.1503315748450404e+00 +0.0000000000000000e+00 +9.6999995106190298e+00 -3.1345615137382987e-02 -5.6448155364638364e-01 +5.6002118284479352e-03
9.7999999999999794e+00 +8.1502762721684103e+00 +0.0000000000000000e+00 +9.7999994953269702e+00 -3.1345835000157481e-02 -5.6448177988815884e-01 +5.6003621979068257e-03
9.8999999999999808e+00 +8.1502204022835905e+00 +0.0000000000000000e+00 +9.8999994797196091e+00 -3.1346043592815814e-02 -5.6448200377752511e-01 +5.6005131933428163e-03
9.9999999999999805e+00 +8.1501639651905897e+00 +0.0000000000000000e+00 +9.9999994637937508e+00 -3.1346239781608623e-02 -5.6448222599300601e-01 +5.6006647325140884e-03
1.0100000000000000e+01 +8.1501069608966592e+00 +0.0000000000000000e+00 +1.0099999447546200e+01 -3.1346422734418310e-02 -5.6448244730494124e-01 +5.6008167286796121e-03
1.0199999999999999e+01 +8.1500493893909205e+00 +0.0000000000000000e+00 +1.0199999430973600e+01 -3.1346592825785169e-02 -5.6448266885134379e-01 +5.6009690771554044e-03
1.0300000000000001e+01 +8.1499912506769796e+00 +0.0000000000000000e+00 +1.0299999414073000e+01 -3.1346750731941812e-02 -5.6448289186201184e-01 +5.6011216687839932e-03
1.0400000000000000e+01 +8.1499325447584905e+00 +0.0000000000000000e+00 +1.0399999396840901e+01 -3.1346897129155296e-02 -5.6448311756675529e-01 +5.6012743944234599e-03
1.0500000000000000e+01 +8.1498732716317992e+00 +0.0000000000000000e+00 +1.0499999379274200e+01 -3.1347032693730813e-02 -5.6448334719545390e-01 +5.6014271449484447e-03
1.0600000000000000e+01 +8.1498134313005703e+00 +0.0000000000000000e+00 +1.0599999361369800e+01 -3.1347158102006951e-02 -5.6448358197794501e-01 +5.6015798112494146e-03
1.0699999999999999e+01 +8.1497530237611500e+00 +0.0000000000000000e+00 +1.0699999343124301e+01 -3.1347274030362089e-02 -5.6448382314413559e-01 +5.6017322842342272e-03
1.0800000000000001e+01 +8.1496920490171796e+00 +0.0000000000000000e+00 +1.0799999324534600e+01 -3.1347381155209700e-02 -5.6448407192389227e-01 +5.6018844548274107e-03
1.0900000000000000e+01 +8.1496305070650106e+00 +0.0000000000000000e+00 +1.0899999305597399e+01 -3.1347480153004745e-02 -5.6448432954715233e-01 +5.6020362139717356e-03
1.1000000000000000e+01 +8.1495683979046607e+00 +0.0000000000000000e+00 +1.0999999286309500e+01 -3.1347571700240322e-02 -5.6448459724384048e-01 +5.6021874526277554e-03
1.1100000000000000e+01 +8.1495057215361193e+00 +0.0000000000000000e+00 +1.1099999266667700e+01 -3.1347656473449934e-02 -5.6448487624389776e-01 +5.6023380617745361e-03
1.1199999999999999e+01 +8.1494424779630208e+00 +0.0000000000000000e+00 +1.1199999246668799e+01 -3.1347735149206926e-02 -5.6448516777725355e-01 +5.6024879324097837e-03
1.1300000000000001e+01 +8.1493786671817396e+00 +0.0000000000000000e+00 +1.1299999226309600e+01 -3.1347808404129471e-02 -5.6448547307391039e-01 +5.6026369555511090e-03
1.1400000000000000e+01 +8.1493142891922599e+00 +0.0000000000000000e+00 +1.1399999205586900e+01 -3.1347876914877282e-02 -5.6448579336386107e-01 +5.6027850222356134e-03
1.1500000000000000e+01 +8.1492493440018698e+00 +0.0000000000000000e+00 +1.1499999184497300e+01 -3.1347941358151062e-02 -5.6448612987705882e-01 +5.6029320235200016e-03
1.1600000000000000e+01 +8.1491838315996592e+00 +0.0000000000000000e+00 +1.1599999163037801e+01 -3.1348002410702992e-02 -5.6448648384361710e-01 +5.6030778504830188e-03
1.1699999999999999e+01 +8.1491177519928897e+00 +0.0000000000000000e+00 +1.1699999141205099e+01 -3.1348060749323808e-02 -5.6448685649352726e-01 +5.6032223942230029e-03
1.1800000000000001e+01 +8.1490511051779304e+00 +0.0000000000000000e+00 +1.1799999118996000e+01 -3.1348117050854628e-02 -5.6448724905688452e-01 +5.6033655458605910e-03
