# field on trajectory
# s[mm] rx[mm] ry[mm] rz[mm] bx[T] by[T] bz[T]
0.0000000000000000e+00 +8.1530000000000094e+00 +0.0000000000000000e+00 +0.0000000000000000e+00 -3.1330630415669032e-02 -5.6446260925228164e-01 +5.5902975368167891e-03
1.0000000000000001e-01 +8.1529997163925092e+00 +0.0000000000000000e+00 +9.9999999999463796e-02 -3.1330779902021502e-02 -5.6446259747644234e-01 +5.5903299048736133e-03
2.0000000000000001e-01 +8.1529988655711296e+00 +0.0000000000000000e+00 +1.9999999999571000e-01 -3.1330929192863267e-02 -5.6446259353351780e-01 +5.5903643171393543e-03
2.9999999999999999e-01 +8.1529974475415692e+00 +0.0000000000000000e+00 +2.9999999998552201e-01 -3.1331078430481843e-02 -5.6446259714507629e-01 +5.5904008198638033e-03
4.0000000000000002e-01 +8.1529954622965306e+00 +0.0000000000000000e+00 +3.9999999996568197e-01 -3.1331227757172099e-02 -5.6446260803279003e-01 +5.5904394592986260e-03
5.0000000000000000e-01 +8.1529929098396696e+00 +0.0000000000000000e+00 +4.9999999993297300e-01 -3.1331377315227109e-02 -5.6446262591825003e-01 +5.5904802816955021e-03
5.9999999999999998e-01 +8.1529897901673394e+00 +0.0000000000000000e+00 +5.9999999988417696e-01 -3.1331527246945233e-02 -5.6446265052310529e-01 +5.5905233333075292e-03
6.9999999999999996e-01 +8.1529861032831796e+00 +0.0000000000000000e+00 +6.9999999981607697e-01 -3.1331677694624589e-02 -5.6446268156895074e-01 +5.5905686603880730e-03
8.0000000000000004e-01 +8.1529818491871993e+00 +0.0000000000000000e+00 +7.9999999972545699e-01 -3.1331828800567361e-02 -5.6446271877740795e-01 +5.5906163091916225e-03
9.0000000000000002e-01 +8.1529770278793894e+00 +0.0000000000000000e+00 +8.9999999960909804e-01 -3.1331980707078412e-02 -5.6446276187009869e-01 +5.5906663259734793e-03
1.0000000000000000e+00 +8.1529716393597500e+00 +0.0000000000000000e+00 +9.9999999946378304e-01 -3.1332133556465309e-02 -5.6446281056864278e-01 +5.5907187569897692e-03
1.1000000000000001e+00 +8.1529656836210105e+00 +0.0000000000000000e+00 +1.0999999992862901e+00 -3.1332287491041326e-02 -5.6446286459471418e-01 +5.5907736484979761e-03
1.2000000000000000e+00 +8.1529591606740706e+00 +0.0000000000000000e+00 +1.1999999990734200e+00 -3.1332442653115640e-02 -5.6446292366984263e-01 +5.5908310467549654e-03
1.3000000000000000e+00 +8.1529520705153100e+00 +0.0000000000000000e+00 +1.2999999988219300e+00 -3.1332599185005978e-02 -5.6446298751566559e-01 +5.5908909980195180e-03
1.3999999999999999e+00 +8.1529444131410909e+00 +0.0000000000000000e+00 +1.3999999985286200e+00 -3.1332757229033115e-02 -5.6446305585381584e-01 +5.5909535485511889e-03
1.5000000000000000e+00 +8.1529361885550298e+00 +0.0000000000000000e+00 +1.4999999981902701e+00 -3.1332916927518134e-02 -5.6446312840586388e-01 +5.5910187446097286e-03
1.6000000000000001e+00 +8.1529273967571498e+00 +0.0000000000000000e+00 +1.5999999978036501e+00 -3.1333078422786709e-02 -5.6446320489340052e-01 +5.5910866324559230e-03
1.7000000000000000e+00 +8.1529180377474404e+00 +0.0000000000000000e+00 +1.6999999973655600e+00 -3.1333241857167765e-02 -5.6446328503800980e-01 +5.5911572583513067e-03
1.8000000000000000e+00 +8.1529081115222706e+00 +0.0000000000000000e+00 +1.7999999968727800e+00 -3.1333407372994941e-02 -5.6446336856129375e-01 +5.5912306685584274e-03
1.8999999999999999e+00 +8.1528976180852606e+00 +0.0000000000000000e+00 +1.8999999963220899e+00 -3.1333575112602499e-02 -5.6446345518478980e-01 +5.5913069093399999e-03
2.0000000000000000e+00 +8.1528865574327902e+00 +0.0000000000000000e+00 +1.9999999957102601e+00 -3.1333745218330926e-02 -5.6446354463008019e-01 +5.5913860269600092e-03
2.1000000000000001e+00 +8.1528749295721408e+00 +0.0000000000000000e+00 +2.0999999950340902e+00 -3.1333917712120338e-02 -5.6446363662678101e-01 +5.5914680357321877e-03
2.2000000000000002e+00 +8.1528627344960096e+00 +0.0000000000000000e+00 +2.1999999942903599e+00 -3.1334092134316802e-02 -5.6446373093713431e-01 +5.5915528221717496e-03
2.2999999999999998e+00 +8.1528499722080596e+00 +0.0000000000000000e+00 +2.2999999934758399e+00 -3.1334267904853497e-02 -5.6446382733143152e-01 +5.5916402408438537e-03
2.3999999999999999e+00 +8.1528366427046404e+00 +0.0000000000000000e+00 +2.3999999925873299e+00 -3.1334444443654921e-02 -5.6446392558002678e-01 +5.5917301463151844e-03
2.5000000000000000e+00 +8.1528227459894005e+00 +0.0000000000000000e+00 +2.4999999916215998e+00 -3.1334621170629920e-02 -5.6446402545322483e-01 +5.5918223931528356e-03
2.6000000000000001e+00 +8.1528082820659602e+00 +0.0000000000000000e+00 +2.5999999905754398e+00 -3.1334797505673029e-02 -5.6446412672134127e-01 +5.5919168359249011e-03
2.7000000000000002e+00 +8.1527932509234198e+00 +0.0000000000000000e+00 +2.6999999894456299e+00 -3.1334972868668577e-02 -5.6446422915481220e-01 +5.5920133292016224e-03
2.7999999999999998e+00 +8.1527776525726896e+00 +0.0000000000000000e+00 +2.7999999882289601e+00 -3.1335146679475290e-02 -5.6446433252391726e-01 +5.5921117275525654e-03
2.8999999999999999e+00 +8.1527614870065008e+00 +0.0000000000000000e+00 +2.8999999869222002e+00 -3.1335318357940206e-02 -5.6446443659908796e-01 +5.5922118855497643e-03
3.0000000000000000e+00 +8.1527447542284808e+00 +0.0000000000000000e+00 +2.9999999855221300e+00 -3.1335487323886073e-02 -5.6446454115068645e-01 +5.5923136577654816e-03
3.1000000000000001e+00 +8.1527274542386294e+00 +0.0000000000000000e+00 +3.0999999840255499e+00 -3.1335652997115479e-02 -5.6446464594911694e-01 +5.5924168987733424e-03
3.2000000000000002e+00 +8.1527095870333106e+00 +0.0000000000000000e+00 +3.1999999824292300e+00 -3.1335814797409371e-02 -5.6446475076482761e-01 +5.5925214631483700e-03
3.2999999999999998e+00 +8.1526911526198091e+00 +0.0000000000000000e+00 +3.2999999807299600e+00 -3.1335972144520080e-02 -5.6446485536819924e-01 +5.5926272054658520e-03
3.3999999999999999e+00 +8.1526721509872004e+00 +0.0000000000000000e+00 +3.3999999789245101e+00 -3.1336124458180986e-02 -5.6446495952977183e-01 +5.5927339803036498e-03
3.5000000000000000e+00 +8.1526525821464002e+00 +0.0000000000000000e+00 +3.4999999770096801e+00 -3.1336271158089776e-02 -5.6446506301993582e-01 +5.5928416422390782e-03
3.6000000000000001e+00 +8.1526324460901396e+00 +0.0000000000000000e+00 +3.5999999749822500e+00 -3.1336411663922314e-02 -5.6446516560924231e-01 +5.5929500458520576e-03
3.7000000000000002e+00 +8.1526117428220495e+00 +0.0000000000000000e+00 +3.6999999728389801e+00 -3.1336545395320034e-02 -5.6446526706818090e-01 +5.5930590457228500e-03
3.7999999999999998e+00 +8.1525904723421299e+00 +0.0000000000000000e+00 +3.7999999705766800e+00 -3.1336671771894045e-02 -5.6446536716729123e-01 +5.5931684964332304e-03
3.8999999999999999e+00 +8.1525686346503807e+00 +0.0000000000000000e+00 +3.8999999681921298e+00 -3.1336790213222422e-02 -5.6446546567713740e-01 +5.5932782525662111e-03
4.0000000000000000e+00 +8.1525462297431694e+00 +0.0000000000000000e+00 +3.9999999656820902e+00 -3.1336900138849967e-02 -5.6446556236833700e-01 +5.5933881687063392e-03
4.0999999999999996e+00 +8.1525232576241304e+00 +0.0000000000000000e+00 +4.0999999630433699e+00 -3.1337001194067619e-02 -5.6446565725330078e-01 +5.5934981214713162e-03
4.2000000000000002e+00 +8.1524997182896204e+00 +0.0000000000000000e+00 +4.1999999602727298e+00 -3.1337093927287007e-02 -5.6446575131180865e-01 +5.5936080756088550e-03
4.2999999999999998e+00 +8.1524756117469206e+00 +0.0000000000000000e+00 +4.2999999573669703e+00 -3.1337179112704200e-02 -5.6446584576538328e-01 +5.5937180178948446e-03
4.4000000000000004e+00 +8.1524509379887604e+00 +0.0000000000000000e+00 +4.3999999543228601e+00 -3.1337257524528823e-02 -5.6446594183565946e-01 +5.5938279351021572e-03
4.5000000000000000e+00 +8.1524256970187707e+00 +0.0000000000000000e+00 +4.4999999511372000e+00 -3.1337329936975536e-02 -5.6446604074418805e-01 +5.5939378139983655e-03
4.5999999999999996e+00 +8.1523998888369498e+00 +0.0000000000000000e+00 +4.5999999478067499e+00 -3.1337397124270944e-02 -5.6446614371254744e-01 +5.5940476413466151e-03
4.7000000000000002e+00 +8.1523735134396702e+00 +0.0000000000000000e+00 +4.6999999443283098e+00 -3.1337459860654684e-02 -5.6446625196234279e-01 +5.5941574039053161e-03
4.7999999999999998e+00 +8.1523465708305594e+00 +0.0000000000000000e+00 +4.7999999406986600e+00 -3.1337518920376659e-02 -5.6446636671512185e-01 +5.5942670884270140e-03
4.9000000000000004e+00 +8.1523190610096208e+00 +0.0000000000000000e+00 +4.8999999369145701e+00 -3.1337575077702268e-02 -5.6446648919245823e-01 +5.5943766816589548e-03
5.0000000000000000e+00 +8.1522909839768491e+00 +0.0000000000000000e+00 +4.9999999329728402e+00 -3.1337629106912422e-02 -5.6446662061592312e-01 +5.5944861703425205e-03
5.0999999999999996e+00 +8.1522623397286207e+00 +0.0000000000000000e+00 +5.0999999288702398e+00 -3.1337681782306066e-02 -5.6446676220711278e-01 +5.5945955412132070e-03
5.2000000000000002e+00 +8.1522331282685592e+00 +0.0000000000000000e+00 +5.1999999246035600e+00 -3.1337733878197278e-02 -5.6446691518756431e-01 +5.5947047809995131e-03
5.2999999999999998e+00 +8.1522033495966806e+00 +0.0000000000000000e+00 +5.2999999201695802e+00 -3.1337786168920655e-02 -5.6446708077883834e-01 +5.5948138764234804e-03
5.4000000000000004e+00 +8.1521730037093203e+00 +0.0000000000000000e+00 +5.3999999155650800e+00 -3.1337839428832594e-02 -5.6446726020252003e-01 +5.5949228142004280e-03
5.5000000000000000e+00 +8.1521420906137791e+00 +0.0000000000000000e+00 +5.4999999107868396e+00 -3.1337894432306911e-02 -5.6446745468010451e-01 +5.5950315810375083e-03
5.5999999999999996e+00 +8.1521106102991308e+00 +0.0000000000000000e+00 +5.5999999058316599e+00 -3.1337951953747230e-02 -5.6446766543322280e-01 +5.5951401636357171e-03
5.7000000000000002e+00 +8.1520785627762997e+00 +0.0000000000000000e+00 +5.6999999006963096e+00 -3.1338012767572955e-02 -5.6446789368333139e-01 +5.5952485486864545e-03
5.7999999999999998e+00 +8.1520459480379905e+00 +0.0000000000000000e+00 +5.7999998953775700e+00 -3.1338077648235693e-02 -5.6446814065202078e-01 +5.5953567228743907e-03
5.9000000000000004e+00 +8.1520127660915005e+00 +0.0000000000000000e+00 +5.8999998898722197e+00 -3.1338147370208069e-02 -5.6446840756076211e-01 +5.5954646728745960e-03
5.9999999999999902e+00 +8.1519790169259103e+00 +0.0000000000000000e+00 +5.9999998841770603e+00 -3.1338222707997500e-02 -5.6446869563116131e-01 +5.5955723853548375e-03
6.0999999999999899e+00 +8.1519447005521197e+00 +0.0000000000000000e+00 +6.0999998782888598e+00 -3.1338304329877831e-02 -5.6446900557317981e-01 +5.5956798688112843e-03
6.1999999999999904e+00 +8.1519098169665103e+00 +0.0000000000000000e+00 +6.1999998722044003e+00 -3.1338392479134218e-02 -5.6446933605101235e-01 +5.5957872190938226e-03
6.2999999999999901e+00 +8.1518743661654298e+00 +0.0000000000000000e+00 +6.2999998659204701e+00 -3.1338487292810711e-02 -5.6446968521736451e-01 +5.5958945538960346e-03
6.3999999999999897e+00 +8.1518383481488907e+00 +0.0000000000000000e+00 +6.3999998594338496e+00 -3.1338588907962595e-02 -5.6447005122489402e-01 +5.5960019909171588e-03
6.4999999999999902e+00 +8.1518017629241495e+00 +0.0000000000000000e+00 +6.4999998527413201e+00 -3.1338697461655601e-02 -5.6447043222618121e-01 +5.5961096478621148e-03
6.5999999999999899e+00 +8.1517646104839496e+00 +0.0000000000000000e+00 +6.5999998458396698e+00 -3.1338813090974582e-02 -5.6447082637389723e-01 +5.5962176424435685e-03
6.6999999999999904e+00 +8.1517268908319203e+00 +0.0000000000000000e+00 +6.6999998387256703e+00 -3.1338935933014359e-02 -5.6447123182060577e-01 +5.5963260923802220e-03
6.7999999999999901e+00 +8.1516886039680703e+00 +0.0000000000000000e+00 +6.7999998313961196e+00 -3.1339066124885677e-02 -5.6447164671887484e-01 +5.5964351153982971e-03
6.8999999999999897e+00 +8.1516497498923908e+00 +0.0000000000000000e+00 +6.8999998238477902e+00 -3.1339203803714334e-02 -5.6447206922124871e-01 +5.5965448292315681e-03
6.9999999999999902e+00 +8.1516103286012402e+00 +0.0000000000000000e+00 +6.9999998160774597e+00 -3.1339349106642989e-02 -5.6447249748027306e-01 +5.5966553516219788e-03
7.0999999999999899e+00 +8.1515703400982602e+00 +0.0000000000000000e+00 +7.0999998080819298e+00 -3.1339502170827496e-02 -5.6447292964841145e-01 +5.5967668003190823e-03
7.1999999999999904e+00 +8.1515297843834595e+00 +0.0000000000000000e+00 +7.1999997998579603e+00 -3.1339663133441539e-02 -5.6447336387812852e-01 +5.5968792930812493e-03
7.2999999999999901e+00 +8.1514886614531896e+00 +0.0000000000000000e+00 +7.2999997914023496e+00 -3.1339832131677098e-02 -5.6447379832188815e-01 +5.5969929476759736e-03
7.3999999999999897e+00 +8.1514469713147300e+00 +0.0000000000000000e+00 +7.3999997827118804e+00 -3.1340009302739329e-02 -5.6447423113204176e-01 +5.5971078818790633e-03
7.4999999999999902e+00 +8.1514047139571595e+00 +0.0000000000000000e+00 +7.4999997737833199e+00 -3.1340194783858202e-02 -5.6447466046105044e-01 +5.5972242134772355e-03
7.5999999999999899e+00 +8.1513618893914099e+00 +0.0000000000000000e+00 +7.5999997646134698e+00 -3.1340388712273633e-02 -5.6447508446117622e-01 +5.5973420602653083e-03
7.6999999999999904e+00 +8.1513184976138309e+00 +0.0000000000000000e+00 +7.6999997551991104e+00 -3.1340591225249903e-02 -5.6447550128476187e-01 +5.5974615400493696e-03
7.7999999999999901e+00 +8.1512745386207808e+00 +0.0000000000000000e+00 +7.7999997455370096e+00 -3.1340802460070517e-02 -5.6447590908411749e-01 +5.5975827706459752e-03
7.8999999999999897e+00 +8.1512300124159101e+00 +0.0000000000000000e+00 +7.8999997356239602e+00 -3.1341022554035931e-02 -5.6447630601146292e-01 +5.5977058698818711e-03
7.9999999999999902e+00 +8.1511849189955701e+00 +0.0000000000000000e+00 +7.9999997254567399e+00 -3.1341251644469541e-02 -5.6447669021904034e-01 +5.5978309555954888e-03
8.0999999999999908e+00 +8.1511392583670403e+00 +0.0000000000000000e+00 +8.0999997150321406e+00 -3.1341489656919692e-02 -5.6447706028006273e-01 +5.5979581123190673e-03
8.1999999999999904e+00 +8.1510930305230396e+00 +0.0000000000000000e+00 +8.1999997043469399e+00 -3.1341735669776355e-02 -5.6447741645220295e-01 +5.5980872913228971e-03
8.2999999999999901e+00 +8.1510462354672200e+00 +0.0000000000000000e+00 +8.2999996933979094e+00 -3.1341988549619212e-02 -5.6447775941413392e-01 +5.5982184105523806e-03
8.3999999999999897e+00 +8.1509988731995708e+00 +0.0000000000000000e+00 +8.3999996821818605e+00 -3.1342247163014633e-02 -5.6447808984454806e-01 +5.5983513879445546e-03
8.4999999999999893e+00 +8.1509509437164507e+00 +0.0000000000000000e+00 +8.4999996706955496e+00 -3.1342510376515233e-02 -5.6447840842215458e-01 +5.5984861414277790e-03
8.5999999999999908e+00 +8.1509024470215099e+00 +0.0000000000000000e+00 +8.5999996589357703e+00 -3.1342777056654995e-02 -5.6447871582559761e-01 +5.5986225889205913e-03
8.6999999999999904e+00 +8.1508533831147396e+00 +0.0000000000000000e+00 +8.6999996468993004e+00 -3.1343046069952911e-02 -5.6447901273353818e-01 +5.5987606483322589e-03
8.7999999999999794e+00 +8.1508037519961398e+00 +0.0000000000000000e+00 +8.7999996345829192e+00 -3.1343316282910878e-02 -5.6447929982462808e-01 +5.5989002375621986e-03
8.8999999999999808e+00 +8.1507535536620708e+00 +0.0000000000000000e+00 +8.8999996219834205e+00 -3.1343586562014629e-02 -5.6447957777753577e-01 +5.5990412744999808e-03
8.9999999999999805e+00 +8.1507027881161793e+00 +0.0000000000000000e+00 +8.9999996090975891e+00 -3.1343855773728793e-02 -5.6447984727086420e-01 +5.5991836770241553e-03
9.0999999999999801e+00 +8.1506514553584601e+00 +0.0000000000000000e+00 +9.0999995959221902e+00 -3.1344122784500612e-02 -5.6448010898323353e-01 +5.5993273630028260e-03
9.1999999999999797e+00 +8.1505995553889097e+00 +0.0000000000000000e+00 +9.1999995824540193e+00 -3.1344386460757920e-02 -5.6448036359325326e-01 +5.5994722502930670e-03
9.2999999999999794e+00 +8.1505470882038900e+00 +0.0000000000000000e+00 +9.2999995686898593e+00 -3.1344645668909793e-02 -5.6448061177955100e-01 +5.5996182567409139e-03
9.3999999999999808e+00 +8.1504940538070496e+00 +0.0000000000000000e+00 +9.3999995546264898e+00 -3.1344899275342002e-02 -5.6448085422068706e-01 +5.5997653001801980e-03
9.4999999999999805e+00 +8.1504404521983798e+00 +0.0000000000000000e+00 +9.4999995402606903e+00 -3.1345146146420366e-02 -5.6448109159523929e-01 +5.5999132984331243e-03
9.5999999999999801e+00 +8.1503862833778804e+00 +0.0000000000000000e+00 +9.5999995255892507e+00 -3.1345385148488954e-02 -5.6448132458177491e-01 +5.6000621693096933e-03
9.6999999999999797e+00 +8.1503315473419207e+00 +0.0000000000000000e+00 +9.6999995106089507e+00 -3.1345615147870695e-02 -5.6448155385887788e-01 +5.6002118306076624e-03
9.7999999999999794e+00 +8.1502762440941297e+00 +0.0000000000000000e+00 +9.7999994953165697e+00 -3.1345835010862737e-02 -5.6448178010506589e-01 +5.6003622001114303e-03
9.8999999999999808e+00 +8.1502203736345091e+00 +0.0000000000000000e+00 +9.8999994797088906e+00 -3.1346043603739999e-02 -5.6448200399887360e-01 +5.6005131955925713e-03
9.9999999999999805e+00 +8.1501639359594300e+00 +0.0000000000000000e+00 +9.9999994637827001e+00 -3.1346239792754499e-02 -5.6448222621885202e-01 +5.6006647348095474e-03
1.0100000000000000e+01 +8.1501069310761505e+00 +0.0000000000000000e+00 +1.0099999447534801e+01 -3.1346422745788652e-02 -5.6448244753534060e-01 +5.6008167310213283e-03
1.0199999999999999e+01 +8.1500493589774106e+00 +0.0000000000000000e+00 +1.0199999430961901e+01 -3.1346592837381324e-02 -5.6448266908632450e-01 +5.6009690795436450e-03
1.0300000000000001e+01 +8.1499912196668394e+00 +0.0000000000000000e+00 +1.0299999414060901e+01 -3.1346750743765153e-02 -5.6448289210160207e-01 +5.6011216712190262e-03
1.0400000000000000e+01 +8.1499325131444493e+00 +0.0000000000000000e+00 +1.0399999396828500e+01 -3.1346897141208592e-02 -5.6448311781101079e-01 +5.6012743969058431e-03
1.0500000000000000e+01 +8.1498732394065900e+00 +0.0000000000000000e+00 +1.0499999379261400e+01 -3.1347032706016839e-02 -5.6448334744443140e-01 +5.6014271474787375e-03
1.0600000000000000e+01 +8.1498133984568994e+00 +0.0000000000000000e+00 +1.0599999361356600e+01 -3.1347158114528477e-02 -5.6448358223170048e-01 +5.6015798138281765e-03
1.0699999999999999e+01 +8.1497529902953794e+00 +0.0000000000000000e+00 +1.0699999343110701e+01 -3.1347274043120529e-02 -5.6448382340269732e-01 +5.6017322868617330e-03
1.0800000000000001e+01 +8.1496920149220404e+00 +0.0000000000000000e+00 +1.0799999324520600e+01 -3.1347381168207830e-02 -5.6448407218731611e-01 +5.6018844575042286e-03
1.0900000000000000e+01 +8.1496304723332305e+00 +0.0000000000000000e+00 +1.0899999305583000e+01 -3.1347480166245362e-02 -5.6448432981549435e-01 +5.6020362166984269e-03
1.1000000000000000e+01 +8.1495683625325892e+00 +0.0000000000000000e+00 +1.0999999286294800e+01 -3.1347571713724827e-02 -5.6448459751712865e-01 +5.6021874554046027e-03
1.1100000000000000e+01 +8.1495056855201309e+00 +0.0000000000000000e+00 +1.1099999266652601e+01 -3.1347656487179756e-02 -5.6448487652216039e-01 +5.6023380646018283e-03
1.1199999999999999e+01 +8.1494424412958306e+00 +0.0000000000000000e+00 +1.1199999246653300e+01 -3.1347735163184877e-02 -5.6448516806054638e-01 +5.6024879352880924e-03
1.1300000000000001e+01 +8.1493786298560700e+00 +0.0000000000000000e+00 +1.1299999226293700e+01 -3.1347808418358381e-02 -5.6448547336229027e-01 +5.6026369584810162e-03
1.1400000000000000e+01 +8.1493142512044905e+00 +0.0000000000000000e+00 +1.1399999205570500e+01 -3.1347876929358594e-02 -5.6448579365735518e-01 +5.6027850252174088e-03
1.1500000000000000e+01 +8.1492493053447106e+00 +0.0000000000000000e+00 +1.1499999184480499e+01 -3.1347941372887614e-02 -5.6448613017572369e-01 +5.6029320265542715e-03
1.1600000000000000e+01 +8.1491837922658306e+00 +0.0000000000000000e+00 +1.1599999163020600e+01 -3.1348002425697657e-02 -5.6448648414750902e-01 +5.6030778535703530e-03
1.1699999999999999e+01 +8.1491177119787608e+00 +0.0000000000000000e+00 +1.1699999141187400e+01 -3.1348060764578044e-02 -5.6448685680267430e-01 +5.6032223973637059e-03
1.1800000000000001e+01 +8.1490510644762306e+00 +0.0000000000000000e+00 +1.1799999118977800e+01 -3.1348117066371306e-02 -5.6448724937134243e-01 +5.6033655490552612e-03
