# field on trajectory
# s[mm] rx[mm] ry[mm] rz[mm] bx[T] by[T] bz[T]
0.0000000000000000e+00 +8.1530000000000094e+00 +0.0000000000000000e+00 +0.0000000000000000e+00 -3.1365521198657209e-02 -5.9323054406689557e-01 +6.0609007226562562e-03
1.0000000000000001e-01 +8.1529997159377707e+00 +0.0000000000000000e+00 +1.0008006405070299e-01 -3.1365278190834636e-02 -5.9322998393502202e-01 +6.0610070328065173e-03
2.0000000000000001e-01 +8.1529988637557800e+00 +0.0000000000000000e+00 +2.0016012809818201e-01 -3.1365028956545818e-02 -5.9322944343912476e-01 +6.0611080157287282e-03
2.9999999999999999e-01 +8.1529974434524792e+00 +0.0000000000000000e+00 +3.0024019213920999e-01 -3.1364774325606234e-02 -5.9322892041126829e-01 +6.0612037502262902e-03
4.0000000000000002e-01 +8.1529954550242092e+00 +0.0000000000000000e+00 +4.0032025617056399e-01 -3.1364515127823234e-02 -5.9322841268353455e-01 +6.0612943151016193e-03
5.0000000000000000e-01 +8.1529928984782600e+00 +0.0000000000000000e+00 +5.0040032018901703e-01 -3.1364252192991417e-02 -5.9322791808791431e-01 +6.0613797891548591e-03
5.9999999999999998e-01 +8.1529897738146193e+00 +0.0000000000000000e+00 +6.0048038419134497e-01 -3.1363986350901464e-02 -5.9322743445645520e-01 +6.0614602511853107e-03
6.9999999999999996e-01 +8.1529860810223909e+00 +0.0000000000000000e+00 +7.0056044817432195e-01 -3.1363718431342856e-02 -5.9322695962129146e-01 +6.0615357799915859e-03
8.0000000000000004e-01 +8.1529818201124709e+00 +0.0000000000000000e+00 +8.0064051213472498e-01 -3.1363449264090223e-02 -5.9322649141437500e-01 +6.0616064543686414e-03
9.0000000000000002e-01 +8.1529769910812302e+00 +0.0000000000000000e+00 +9.0072057606932698e-01 -3.1363179678920466e-02 -5.9322602766777066e-01 +6.0616723531107513e-03
1.0000000000000000e+00 +8.1529715939250291e+00 +0.0000000000000000e+00 +1.0008006399749001e+00 -3.1362910505607251e-02 -5.9322556621353850e-01 +6.0617335550101183e-03
1.1000000000000001e+00 +8.1529656286511507e+00 +0.0000000000000000e+00 +1.1008807038482300e+00 -3.1362642573917132e-02 -5.9322510488364144e-01 +6.0617901388557612e-03
1.2000000000000000e+00 +8.1529590952522994e+00 +0.0000000000000000e+00 +1.2009607676860801e+00 -3.1362376713621722e-02 -5.9322464151015342e-01 +6.0618421834355823e-03
1.3000000000000000e+00 +8.1529519937357708e+00 +0.0000000000000000e+00 +1.3010408314852300e+00 -3.1362113754485874e-02 -5.9322417392502047e-01 +6.0618897675336772e-03
1.3999999999999999e+00 +8.1529443240979198e+00 +0.0000000000000000e+00 +1.4011208952424601e+00 -3.1361854526279827e-02 -5.9322369996026847e-01 +6.0619329699324095e-03
1.5000000000000000e+00 +8.1529360863350995e+00 +0.0000000000000000e+00 +1.5012009589545301e+00 -3.1361599858775353e-02 -5.9322321744791107e-01 +6.0619718694112932e-03
1.6000000000000001e+00 +8.1529272804509691e+00 +0.0000000000000000e+00 +1.6012810226182299e+00 -3.1361350581743448e-02 -5.9322272421989219e-01 +6.0620065447462316e-03
1.7000000000000000e+00 +8.1529179064491508e+00 +0.0000000000000000e+00 +1.7013610862303301e+00 -3.1361107524958604e-02 -5.9322221810814180e-01 +6.0620370747099797e-03
1.8000000000000000e+00 +8.1529079643223703e+00 +0.0000000000000000e+00 +1.8014411497875999e+00 -3.1360871518204506e-02 -5.9322169694466509e-01 +6.0620635380729451e-03
1.8999999999999999e+00 +8.1528974540779000e+00 +0.0000000000000000e+00 +1.9015212132868200e+00 -3.1360643391263689e-02 -5.9322115856133506e-01 +6.0620860136008300e-03
2.0000000000000000e+00 +8.1528863757084800e+00 +0.0000000000000000e+00 +2.0016012767247702e+00 -3.1360423973930240e-02 -5.9322060079012884e-01 +6.0621045800570037e-03
2.1000000000000001e+00 +8.1528747292177304e+00 +0.0000000000000000e+00 +2.1016813400982199e+00 -3.1360213778960630e-02 -5.9322002217194358e-01 +6.0621193168992928e-03
2.2000000000000002e+00 +8.1528625146056601e+00 +0.0000000000000000e+00 +2.2017614034039301e+00 -3.1360012110375590e-02 -5.9321942395091776e-01 +6.0621303062489548e-03
2.2999999999999998e+00 +8.1528497318759001e+00 +0.0000000000000000e+00 +2.3018414666387002e+00 -3.1359817984177495e-02 -5.9321880801528992e-01 +6.0621376308620193e-03
2.3999999999999999e+00 +8.1528363810211903e+00 +0.0000000000000000e+00 +2.4019215297993002e+00 -3.1359630416378535e-02 -5.9321817625338547e-01 +6.0621413734960388e-03
2.5000000000000000e+00 +8.1528224620451493e+00 +0.0000000000000000e+00 +2.5020015928824901e+00 -3.1359448422991480e-02 -5.9321753055344684e-01 +6.0621416169085200e-03
2.6000000000000001e+00 +8.1528079749477893e+00 +0.0000000000000000e+00 +2.6020816558850601e+00 -3.1359271020036661e-02 -5.9321687280374913e-01 +6.0621384438584907e-03
2.7000000000000002e+00 +8.1527929197291105e+00 +0.0000000000000000e+00 +2.7021617188037701e+00 -3.1359097223540723e-02 -5.9321620489257154e-01 +6.0621319371065348e-03
2.7999999999999998e+00 +8.1527772963891003e+00 +0.0000000000000000e+00 +2.8022417816354102e+00 -3.1358926049537071e-02 -5.9321552870820005e-01 +6.0621221794151040e-03
2.8999999999999999e+00 +8.1527611049277802e+00 +0.0000000000000000e+00 +2.9023218443767500e+00 -3.1358756514066312e-02 -5.9321484613892828e-01 +6.0621092535488412e-03
3.0000000000000000e+00 +8.1527443453451305e+00 +0.0000000000000000e+00 +3.0024019070245598e+00 -3.1358587633176782e-02 -5.9321415907305819e-01 +6.0620932422749112e-03
3.1000000000000001e+00 +8.1527270176411495e+00 +0.0000000000000000e+00 +3.1024819695756198e+00 -3.1358418422924882e-02 -5.9321346939890096e-01 +6.0620742283633254e-03
3.2000000000000002e+00 +8.1527091218158603e+00 +0.0000000000000000e+00 +3.2025620320267101e+00 -3.1358247899375580e-02 -5.9321277900477865e-01 +6.0620522945872592e-03
3.2999999999999998e+00 +8.1526906578692397e+00 +0.0000000000000000e+00 +3.3026420943745900e+00 -3.1358075078602839e-02 -5.9321208977902540e-01 +6.0620275237233904e-03
3.3999999999999999e+00 +8.1526716258013003e+00 +0.0000000000000000e+00 +3.4027221566160502e+00 -3.1357898976690057e-02 -5.9321140360998825e-01 +6.0619999985522151e-03
3.5000000000000000e+00 +8.1526520256120403e+00 +0.0000000000000000e+00 +3.5028022187478500e+00 -3.1357718609730578e-02 -5.9321072238602901e-01 +6.0619698018583744e-03
3.6000000000000001e+00 +8.1526318572978198e+00 +0.0000000000000000e+00 +3.6028822807667802e+00 -3.1357532993829630e-02 -5.9321004799555355e-01 +6.0619370164312902e-03
3.7000000000000002e+00 +8.1526111208659096e+00 +0.0000000000000000e+00 +3.7029623426696099e+00 -3.1357341145098451e-02 -5.9320938232689635e-01 +6.0619017250642480e-03
3.7999999999999998e+00 +8.1525898163126804e+00 +0.0000000000000000e+00 +3.8030424044531101e+00 -3.1357142079664280e-02 -5.9320872726849783e-01 +6.0618640105565835e-03
3.8999999999999999e+00 +8.1525679436344909e+00 +0.0000000000000000e+00 +3.9031224661140600e+00 -3.1356934813666075e-02 -5.9320808470881670e-01 +6.0618239557130816e-03
4.0000000000000000e+00 +8.1525455028386205e+00 +0.0000000000000000e+00 +4.0032025276492398e+00 -3.1356718363259192e-02 -5.9320745653623708e-01 +6.0617816433425602e-03
4.0999999999999996e+00 +8.1525224939177896e+00 +0.0000000000000000e+00 +4.1032825890554099e+00 -3.1356492048921797e-02 -5.9320684438363280e-01 +6.0617371292706890e-03
4.2000000000000002e+00 +8.1524989168792708e+00 +0.0000000000000000e+00 +4.2033626503293604e+00 -3.1356256297054033e-02 -5.9320624895469443e-01 +6.0616903712355698e-03
4.2999999999999998e+00 +8.1524747717157897e+00 +0.0000000000000000e+00 +4.3034427114678504e+00 -3.1356011785221100e-02 -5.9320567074225627e-01 +6.0616413047004736e-03
4.4000000000000004e+00 +8.1524500584346207e+00 +0.0000000000000000e+00 +4.4035227724676700e+00 -3.1355759190981075e-02 -5.9320511023906219e-01 +6.0615898651275001e-03
4.5000000000000000e+00 +8.1524247770285001e+00 +0.0000000000000000e+00 +4.5036028333255800e+00 -3.1355499191897347e-02 -5.9320456793800169e-01 +6.0615359879800006e-03
4.5999999999999996e+00 +8.1523989275046898e+00 +0.0000000000000000e+00 +4.6036828940383696e+00 -3.1355232465525386e-02 -5.9320404433187635e-01 +6.0614796087200143e-03
4.7000000000000002e+00 +8.1523725098559208e+00 +0.0000000000000000e+00 +4.7037629546028104e+00 -3.1354959689425192e-02 -5.9320353991363750e-01 +6.0614206628107183e-03
4.7999999999999998e+00 +8.1523455240894709e+00 +0.0000000000000000e+00 +4.8038430150156701e+00 -3.1354681541148247e-02 -5.9320305517614869e-01 +6.0613590857138471e-03
4.9000000000000004e+00 +8.1523179701980606e+00 +0.0000000000000000e+00 +4.9039230752737302e+00 -3.1354398698249762e-02 -5.9320259061242742e-01 +6.0612948128921469e-03
5.0000000000000000e+00 +8.1522898481889605e+00 +0.0000000000000000e+00 +5.0040031353737602e+00 -3.1354111838275640e-02 -5.9320214671540605e-01 +6.0612277798067953e-03
5.0999999999999996e+00 +8.1522611580549000e+00 +0.0000000000000000e+00 +5.1040831953125396e+00 -3.1353821638774856e-02 -5.9320172397817250e-01 +6.0611579219198505e-03
5.2000000000000002e+00 +8.1522318997995207e+00 +0.0000000000000000e+00 +5.2041632550868497e+00 -3.1353528777287892e-02 -5.9320132289376226e-01 +6.0610851746919926e-03
5.2999999999999998e+00 +8.1522020734228100e+00 +0.0000000000000000e+00 +5.3042433146934496e+00 -3.1353233931352788e-02 -5.9320094395527989e-01 +6.0610094735837183e-03
5.4000000000000004e+00 +8.1521716789247893e+00 +0.0000000000000000e+00 +5.4043233741291203e+00 -3.1352937778503114e-02 -5.9320058765586958e-01 +6.0609307540549513e-03
5.5000000000000000e+00 +8.1521407163090807e+00 +0.0000000000000000e+00 +5.5044034333906504e+00 -3.1352640996266105e-02 -5.9320025448868763e-01 +6.0608489515646836e-03
5.5999999999999996e+00 +8.1521091855684098e+00 +0.0000000000000000e+00 +5.6044834924747899e+00 -3.1352344262168624e-02 -5.9319994494702111e-01 +6.0607640015721579e-03
5.7000000000000002e+00 +8.1520770867064094e+00 +0.0000000000000000e+00 +5.7045635513783299e+00 -3.1352048253727158e-02 -5.9319965952411213e-01 +6.0606758395349153e-03
5.7999999999999998e+00 +8.1520444197231008e+00 +0.0000000000000000e+00 +5.8046436100980499e+00 -3.1351753648453912e-02 -5.9319939871327754e-01 +6.0605844009099952e-03
5.9000000000000004e+00 +8.1520111846184609e+00 +0.0000000000000000e+00 +5.9047236686307096e+00 -3.1351461123854847e-02 -5.9319916300788122e-01 +6.0604896211535631e-03
5.9999999999999902e+00 +8.1519773813925003e+00 +0.0000000000000000e+00 +6.0048037269731003e+00 -3.1351171357420667e-02 -5.9319895290128111e-01 +6.0603914357241851e-03
6.0999999999999899e+00 +8.1519430100452208e+00 +0.0000000000000000e+00 +6.1048837851219799e+00 -3.1350884937225709e-02 -5.9319876833849938e-01 +6.0602898149088530e-03
6.1999999999999904e+00 +8.1519080705766100e+00 +0.0000000000000000e+00 +6.2049638430741396e+00 -3.1350602141552122e-02 -5.9319860736453189e-01 +6.0601848496697197e-03
6.2999999999999901e+00 +8.1518725629866804e+00 +0.0000000000000000e+00 +6.3050439008263499e+00 -3.1350323181626519e-02 -5.9319846761310935e-01 +6.0600766570846161e-03
6.3999999999999897e+00 +8.1518364872754301e+00 +0.0000000000000000e+00 +6.4051239583753699e+00 -3.1350048268666768e-02 -5.9319834671791594e-01 +6.0599653542286322e-03
6.4999999999999902e+00 +8.1517998434428591e+00 +0.0000000000000000e+00 +6.5052040157180002e+00 -3.1349777613881448e-02 -5.9319824231258556e-01 +6.0598510581739741e-03
6.5999999999999899e+00 +8.1517626314889604e+00 +0.0000000000000000e+00 +6.6052840728510001e+00 -3.1349511428469583e-02 -5.9319815203070103e-01 +6.0597338859898599e-03
6.6999999999999904e+00 +8.1517248514137499e+00 +0.0000000000000000e+00 +6.7053641297711399e+00 -3.1349249923620127e-02 -5.9319807350579057e-01 +6.0596139547423886e-03
6.7999999999999901e+00 +8.1516865032135701e+00 +0.0000000000000000e+00 +6.8054441864752100e+00 -3.1348993310513260e-02 -5.9319800437135561e-01 +6.0594913814947344e-03
6.8999999999999897e+00 +8.1516475868957095e+00 +0.0000000000000000e+00 +6.9055242429599701e+00 -3.1348741800313495e-02 -5.9319794226074829e-01 +6.0593662833057556e-03
6.9999999999999902e+00 +8.1516081024565192e+00 +0.0000000000000000e+00 +7.0056042992222096e+00 -3.1348495604178961e-02 -5.9319788480734903e-01 +6.0592387772317735e-03
7.0999999999999899e+00 +8.1515680498960101e+00 +0.0000000000000000e+00 +7.1056843552586999e+00 -3.1348254933254577e-02 -5.9319782964444279e-01 +6.0591089803251827e-03
7.1999999999999904e+00 +8.1515274292141804e+00 +0.0000000000000000e+00 +7.2057644110662000e+00 -3.1348019998673225e-02 -5.9319777440524890e-01 +6.0589770096346404e-03
7.2999999999999901e+00 +8.1514862404073902e+00 +0.0000000000000000e+00 +7.3058444666415099e+00 -3.1347791011556977e-02 -5.9319771672294541e-01 +6.0588429822052581e-03
7.3999999999999897e+00 +8.1514444834829192e+00 +0.0000000000000000e+00 +7.4059245219813796e+00 -3.1347568183010315e-02 -5.9319765423055082e-01 +6.0587070150772363e-03
7.4999999999999902e+00 +8.1514021584334806e+00 +0.0000000000000000e+00 +7.5060045770826100e+00 -3.1347351724130869e-02 -5.9319758456112648e-01 +6.0585692252879157e-03
7.5999999999999899e+00 +8.1513592652663593e+00 +0.0000000000000000e+00 +7.6060846319419504e+00 -3.1347141845996268e-02 -5.9319750534753923e-01 +6.0584297298691648e-03
7.6999999999999904e+00 +8.1513158039779192e+00 +0.0000000000000000e+00 +7.7061646865561997e+00 -3.1346938759674904e-02 -5.9319741422266425e-01 +6.0582886458494332e-03
7.7999999999999901e+00 +8.1512717745681602e+00 +0.0000000000000000e+00 +7.8062447409221098e+00 -3.1346742676219189e-02 -5.9319730881926558e-01 +6.0581460902523910e-03
7.8999999999999897e+00 +8.1512271770334301e+00 +0.0000000000000000e+00 +7.9063247950364799e+00 -3.1346553806668252e-02 -5.9319718677005207e-01 +6.0580021800974186e-03
7.9999999999999902e+00 +8.1511820113773901e+00 +0.0000000000000000e+00 +8.0064048488960609e+00 -3.1346372362022173e-02 -5.9319704570779686e-01 +6.0578570323932476e-03
8.0999999999999908e+00 +8.1511362776036496e+00 +0.0000000000000000e+00 +8.1064849024976393e+00 -3.1346198458347428e-02 -5.9319688423290406e-01 +6.0577107397451046e-03
8.1999999999999904e+00 +8.1510899757086008e+00 +0.0000000000000000e+00 +8.2065649558379903e+00 -3.1346031898103956e-02 -5.9319670414303149e-01 +6.0575633141475120e-03
8.2999999999999901e+00 +8.1510431056885899e+00 +0.0000000000000000e+00 +8.3066450089139003e+00 -3.1345872419073613e-02 -5.9319650789522815e-01 +6.0574147509760536e-03
8.3999999999999897e+00 +8.1509956675508892e+00 +0.0000000000000000e+00 +8.4067250617221205e+00 -3.1345719759031561e-02 -5.9319629794647266e-01 +6.0572650456121573e-03
8.4999999999999893e+00 +8.1509476612882299e+00 +0.0000000000000000e+00 +8.5068051142594392e+00 -3.1345573655757332e-02 -5.9319607675387753e-01 +6.0571141934454877e-03
8.5999999999999908e+00 +8.1508990869078808e+00 +0.0000000000000000e+00 +8.6068851665226305e+00 -3.1345433847022125e-02 -5.9319584677445747e-01 +6.0569621898716973e-03
8.6999999999999904e+00 +8.1508499444025801e+00 +0.0000000000000000e+00 +8.7069652185084596e+00 -3.1345300070601691e-02 -5.9319561046536362e-01 +6.0568090302951421e-03
8.7999999999999794e+00 +8.1508002337759500e+00 +0.0000000000000000e+00 +8.8070452702137203e+00 -3.1345172064265063e-02 -5.9319537028367852e-01 +6.0566547101269241e-03
8.8999999999999808e+00 +8.1507499550316407e+00 +0.0000000000000000e+00 +8.9071253216351796e+00 -3.1345049565779499e-02 -5.9319512868650570e-01 +6.0564992247860525e-03
8.9999999999999805e+00 +8.1506991081623692e+00 +0.0000000000000000e+00 +9.0072053727696098e+00 -3.1344932312915283e-02 -5.9319488813105914e-01 +6.0563425697006340e-03
9.0999999999999801e+00 +8.1506476931717806e+00 +0.0000000000000000e+00 +9.1072854236137797e+00 -3.1344820043436125e-02 -5.9319465107448655e-01 +6.0561847403061949e-03
9.1999999999999797e+00 +8.1505957100635005e+00 +0.0000000000000000e+00 +9.2073654741644795e+00 -3.1344712495104086e-02 -5.9319441997395872e-01 +6.0560257320468646e-03
9.2999999999999794e+00 +8.1505431588302599e+00 +0.0000000000000000e+00 +9.3074455244184708e+00 -3.1344609405684322e-02 -5.9319419728675959e-01 +6.0558655403765427e-03
9.3999999999999808e+00 +8.1504900394757005e+00 +0.0000000000000000e+00 +9.4075255743725297e+00 -3.1344510512935589e-02 -5.9319398547010904e-01 +6.0557041607572377e-03
9.4999999999999805e+00 +8.1504363520034495e+00 +0.0000000000000000e+00 +9.5076056240234408e+00 -3.1344415554615063e-02 -5.9319378698125214e-01 +6.0555415886602649e-03
9.5999999999999801e+00 +8.1503820964062506e+00 +0.0000000000000000e+00 +9.6076856733679694e+00 -3.1344324268483166e-02 -5.9319360427754986e-01 +6.0553778195673669e-03
9.6999999999999797e+00 +8.1503272726913600e+00 +0.0000000000000000e+00 +9.7077657224029004e+00 -3.1344236392292418e-02 -5.9319343981627182e-01 +6.0552128489687945e-03
9.7999999999999794e+00 +8.1502718808515109e+00 +0.0000000000000000e+00 +9.8078457711250007e+00 -3.1344151663800279e-02 -5.9319329605483351e-01 +6.0550466723660219e-03
9.8999999999999808e+00 +8.1502159208903304e+00 +0.0000000000000000e+00 +9.9079258195310498e+00 -3.1344069820757971e-02 -5.9319317545059114e-01 +6.0548792852697739e-03
9.9999999999999805e+00 +8.1501593928078400e+00 +0.0000000000000000e+00 +1.0008005867617801e+01 -3.1343990600907333e-02 -5.9319308046066288e-01 +6.0547106832149668e-03
1.0100000000000000e+01 +8.1501022966040200e+00 +0.0000000000000000e+00 +1.0108085915382100e+01 -3.1343913718336482e-02 -5.9319301281333925e-01 +6.0545408947717773e-03
1.0199999999999999e+01 +8.1500446322825209e+00 +0.0000000000000000e+00 +1.0208165962820599e+01 -3.1343838812608209e-02 -5.9319297194010268e-01 +6.0543700525828191e-03
1.0300000000000001e+01 +8.1499863998360507e+00 +0.0000000000000000e+00 +1.0308246009930199e+01 -3.1343765508673904e-02 -5.9319295682126472e-01 +6.0541983097343521e-03
1.0400000000000000e+01 +8.1499275992682705e+00 +0.0000000000000000e+00 +1.0408326056707599e+01 -3.1343693431511659e-02 -5.9319296643707520e-01 +6.0540258193051066e-03
1.0500000000000000e+01 +8.1498682305791608e+00 +0.0000000000000000e+00 +1.0508406103149600e+01 -3.1343622206133487e-02 -5.9319299976784479e-01 +6.0538527343673484e-03
1.0600000000000000e+01 +8.1498082937723701e+00 +0.0000000000000000e+00 +1.0608486149253000e+01 -3.1343551457582990e-02 -5.9319305579388504e-01 +6.0536792079860539e-03
1.0699999999999999e+01 +8.1497477888406102e+00 +0.0000000000000000e+00 +1.0708566195014500e+01 -3.1343480810942556e-02 -5.9319313349562797e-01 +6.0535053932199391e-03
1.0800000000000001e+01 +8.1496867157875403e+00 +0.0000000000000000e+00 +1.0808646240430900e+01 -3.1343409891324593e-02 -5.9319323185344808e-01 +6.0533314431194321e-03
1.0900000000000000e+01 +8.1496250746131391e+00 +0.0000000000000000e+00 +1.0908726285499000e+01 -3.1343338323878742e-02 -5.9319334984778427e-01 +6.0531575107276858e-03
1.1000000000000000e+01 +8.1495628653174208e+00 +0.0000000000000000e+00 +1.1008806330215601e+01 -3.1343265733791099e-02 -5.9319348645910708e-01 +6.0529837490800814e-03
1.1100000000000000e+01 +8.1495000879040198e+00 +0.0000000000000000e+00 +1.1108886374577500e+01 -3.1343191746283451e-02 -5.9319364066789293e-01 +6.0528103112037204e-03
1.1199999999999999e+01 +8.1494367423620098e+00 +0.0000000000000000e+00 +1.1208966418581401e+01 -3.1343115986622094e-02 -5.9319381145477157e-01 +6.0526373501187808e-03
1.1300000000000001e+01 +8.1493728287059604e+00 +0.0000000000000000e+00 +1.1309046462224000e+01 -3.1343038080101061e-02 -5.9319399780020154e-01 +6.0524650188349006e-03
1.1400000000000000e+01 +8.1493083469249505e+00 +0.0000000000000000e+00 +1.1409126505502300e+01 -3.1342957652065344e-02 -5.9319419868488454e-01 +6.0522934703553175e-03
1.1500000000000000e+01 +8.1492432970226201e+00 +0.0000000000000000e+00 +1.1509206548412800e+01 -3.1342874327894128e-02 -5.9319441308944243e-01 +6.0521228576732788e-03
1.1600000000000000e+01 +8.1491776789989707e+00 +0.0000000000000000e+00 +1.1609286590952600e+01 -3.1342787733009574e-02 -5.9319463999456301e-01 +6.0519533337733697e-03
1.1699999999999999e+01 +8.1491114928576298e+00 +0.0000000000000000e+00 +1.1709366633118099e+01 -3.1342697492874549e-02 -5.9319487838094487e-01 +6.0517850516307115e-03
1.1800000000000001e+01 +8.1490447385876905e+00 +0.0000000000000000e+00 +1.1809446674906400e+01 -3.1342603233001302e-02 -5.9319512722944367e-01 +6.0516181642123112e-03
