# field on trajectory
# s[mm] rx[mm] ry[mm] rz[mm] bx[T] by[T] bz[T]
0.0000000000000000e+00 +8.1530000000000094e+00 +0.0000000000000000e+00 +0.0000000000000000e+00 -2.9138874324642551e-02 -5.6517688363931784e-01 +5.7567306291140983e-03
1.0000000000000001e-01 +8.1529997159377707e+00 +0.0000000000000000e+00 +1.0008006405070299e-01 -2.9138785505917780e-02 -5.6517694014169917e-01 +5.7567155874325799e-03
2.0000000000000001e-01 +8.1529988637557800e+00 +0.0000000000000000e+00 +2.0016012809818201e-01 -2.9138708476288938e-02 -5.6517701415306398e-01 +5.7567023739226305e-03
2.9999999999999999e-01 +8.1529974434524792e+00 +0.0000000000000000e+00 +3.0024019213920999e-01 -2.9138642605704659e-02 -5.6517710497456830e-01 +5.7566909003589810e-03
4.0000000000000002e-01 +8.1529954550242092e+00 +0.0000000000000000e+00 +4.0032025617056399e-01 -2.9138587264127241e-02 -5.6517721190739367e-01 +5.7566810785176902e-03
5.0000000000000000e-01 +8.1529928984782600e+00 +0.0000000000000000e+00 +5.0040032018901703e-01 -2.9138541821524984e-02 -5.6517733425264616e-01 +5.7566728201747571e-03
5.9999999999999998e-01 +8.1529897738146193e+00 +0.0000000000000000e+00 +6.0048038419134497e-01 -2.9138505647877923e-02 -5.6517747131149965e-01 +5.7566660371072388e-03
6.9999999999999996e-01 +8.1529860810223909e+00 +0.0000000000000000e+00 +7.0056044817432195e-01 -2.9138478113177338e-02 -5.6517762238522484e-01 +5.7566606410932144e-03
8.0000000000000004e-01 +8.1529818201124709e+00 +0.0000000000000000e+00 +8.0064051213472498e-01 -2.9138458587409714e-02 -5.6517778677493680e-01 +5.7566565439087702e-03
9.0000000000000002e-01 +8.1529769910812302e+00 +0.0000000000000000e+00 +9.0072057606932698e-01 -2.9138446440570245e-02 -5.6517796378187712e-01 +5.7566536573306184e-03
1.0000000000000000e+00 +8.1529715939250291e+00 +0.0000000000000000e+00 +1.0008006399749001e+00 -2.9138441042654541e-02 -5.6517815270730443e-01 +5.7566518931345644e-03
1.1000000000000001e+00 +8.1529656286511507e+00 +0.0000000000000000e+00 +1.1008807038482300e+00 -2.9138441763651934e-02 -5.6517835285240881e-01 +5.7566511630942792e-03
1.2000000000000000e+00 +8.1529590952522994e+00 +0.0000000000000000e+00 +1.2009607676860801e+00 -2.9138447973554294e-02 -5.6517856351851170e-01 +5.7566513789830175e-03
1.3000000000000000e+00 +8.1529519937357708e+00 +0.0000000000000000e+00 +1.3010408314852300e+00 -2.9138459042341552e-02 -5.6517878400684096e-01 +5.7566524525709184e-03
1.3999999999999999e+00 +8.1529443240979198e+00 +0.0000000000000000e+00 +1.4011208952424601e+00 -2.9138474339990506e-02 -5.6517901361872980e-01 +5.7566542956267149e-03
1.5000000000000000e+00 +8.1529360863350995e+00 +0.0000000000000000e+00 +1.5012009589545301e+00 -2.9138493236468124e-02 -5.6517925165553284e-01 +5.7566568199165198e-03
1.6000000000000001e+00 +8.1529272804509691e+00 +0.0000000000000000e+00 +1.6012810226182299e+00 -2.9138515101726430e-02 -5.6517949741857199e-01 +5.7566599372028742e-03
1.7000000000000000e+00 +8.1529179064491508e+00 +0.0000000000000000e+00 +1.7013610862303301e+00 -2.9138539305703468e-02 -5.6517975020919264e-01 +5.7566635592450066e-03
1.8000000000000000e+00 +8.1529079643223703e+00 +0.0000000000000000e+00 +1.8014411497875999e+00 -2.9138565218325946e-02 -5.6518000932884971e-01 +5.7566675977993604e-03
1.8999999999999999e+00 +8.1528974540779000e+00 +0.0000000000000000e+00 +1.9015212132868200e+00 -2.9138592209496373e-02 -5.6518027407891325e-01 +5.7566719646171939e-03
2.0000000000000000e+00 +8.1528863757084800e+00 +0.0000000000000000e+00 +2.0016012767247702e+00 -2.9138619649103647e-02 -5.6518054376089266e-01 +5.7566765714467125e-03
2.1000000000000001e+00 +8.1528747292177304e+00 +0.0000000000000000e+00 +2.1016813400982199e+00 -2.9138646984355986e-02 -5.6518081772536966e-01 +5.7566813589424995e-03
2.2000000000000002e+00 +8.1528625146056601e+00 +0.0000000000000000e+00 +2.2017614034039301e+00 -2.9138673957341470e-02 -5.6518109551027296e-01 +5.7566863779854177e-03
2.2999999999999998e+00 +8.1528497318759001e+00 +0.0000000000000000e+00 +2.3018414666387002e+00 -2.9138700380424803e-02 -5.6518137669812341e-01 +5.7566917057204452e-03
2.3999999999999999e+00 +8.1528363810211903e+00 +0.0000000000000000e+00 +2.4019215297993002e+00 -2.9138726065992129e-02 -5.6518166087150956e-01 +5.7566974192926603e-03
2.5000000000000000e+00 +8.1528224620451493e+00 +0.0000000000000000e+00 +2.5020015928824901e+00 -2.9138750826444220e-02 -5.6518194761291474e-01 +5.7567035958456013e-03
2.6000000000000001e+00 +8.1528079749477893e+00 +0.0000000000000000e+00 +2.6020816558850601e+00 -2.9138774474205095e-02 -5.6518223650482624e-01 +5.7567103125225980e-03
2.7000000000000002e+00 +8.1527929197291105e+00 +0.0000000000000000e+00 +2.7021617188037701e+00 -2.9138796821722948e-02 -5.6518252712970307e-01 +5.7567176464666256e-03
2.7999999999999998e+00 +8.1527772963891003e+00 +0.0000000000000000e+00 +2.8022417816354102e+00 -2.9138817681472595e-02 -5.6518281906997314e-01 +5.7567256748204511e-03
2.8999999999999999e+00 +8.1527611049277802e+00 +0.0000000000000000e+00 +2.9023218443767500e+00 -2.9138836865957890e-02 -5.6518311190802772e-01 +5.7567344747267791e-03
3.0000000000000000e+00 +8.1527443453451305e+00 +0.0000000000000000e+00 +3.0024019070245598e+00 -2.9138854187714263e-02 -5.6518340522621902e-01 +5.7567441233284111e-03
3.1000000000000001e+00 +8.1527270176411495e+00 +0.0000000000000000e+00 +3.1024819695756198e+00 -2.9138869459311129e-02 -5.6518369860685669e-01 +5.7567546977683780e-03
3.2000000000000002e+00 +8.1527091218158603e+00 +0.0000000000000000e+00 +3.2025620320267101e+00 -2.9138882493354282e-02 -5.6518399163220312e-01 +5.7567662751900920e-03
3.2999999999999998e+00 +8.1526906578692397e+00 +0.0000000000000000e+00 +3.3026420943745900e+00 -2.9138893102488475e-02 -5.6518428388447051e-01 +5.7567789327375059e-03
3.3999999999999999e+00 +8.1526716258013003e+00 +0.0000000000000000e+00 +3.4027221566160502e+00 -2.9138901099399785e-02 -5.6518457494581609e-01 +5.7567927475552462e-03
3.5000000000000000e+00 +8.1526520256120403e+00 +0.0000000000000000e+00 +3.5028022187478500e+00 -2.9138906296818111e-02 -5.6518486439833959e-01 +5.7568077967887704e-03
3.6000000000000001e+00 +8.1526318572978198e+00 +0.0000000000000000e+00 +3.6028822807667802e+00 -2.9138908507521152e-02 -5.6518515182410745e-01 +5.7568241575848044e-03
3.7000000000000002e+00 +8.1526111208659096e+00 +0.0000000000000000e+00 +3.7029623426696099e+00 -2.9138907544330718e-02 -5.6518543680503519e-01 +5.7568419070903199e-03
3.7999999999999998e+00 +8.1525898163126804e+00 +0.0000000000000000e+00 +3.8030424044531101e+00 -2.9138903220124381e-02 -5.6518571892305447e-01 +5.7568611224544271e-03
3.8999999999999999e+00 +8.1525679436344909e+00 +0.0000000000000000e+00 +3.9031224661140600e+00 -2.9138895347833413e-02 -5.6518599776002332e-01 +5.7568818808276705e-03
4.0000000000000000e+00 +8.1525455028386205e+00 +0.0000000000000000e+00 +4.0032025276492398e+00 -2.9138883740443742e-02 -5.6518627289764378e-01 +5.7569042593598654e-03
4.0999999999999996e+00 +8.1525224939177896e+00 +0.0000000000000000e+00 +4.1032825890554099e+00 -2.9138868319323778e-02 -5.6518654408272029e-01 +5.7569282879365779e-03
4.2000000000000002e+00 +8.1524989168792708e+00 +0.0000000000000000e+00 +4.2033626503293604e+00 -2.9138849399512518e-02 -5.6518681166180207e-01 +5.7569538246626441e-03
4.2999999999999998e+00 +8.1524747717157897e+00 +0.0000000000000000e+00 +4.3034427114678504e+00 -2.9138827385411799e-02 -5.6518707611779284e-01 +5.7569806886332061e-03
4.4000000000000004e+00 +8.1524500584346207e+00 +0.0000000000000000e+00 +4.4035227724676700e+00 -2.9138802681361119e-02 -5.6518733793349529e-01 +5.7570086989434926e-03
4.5000000000000000e+00 +8.1524247770285001e+00 +0.0000000000000000e+00 +4.5036028333255800e+00 -2.9138775691645691e-02 -5.6518759759183657e-01 +5.7570376746912469e-03
4.5999999999999996e+00 +8.1523989275046898e+00 +0.0000000000000000e+00 +4.6036828940383696e+00 -2.9138746820479688e-02 -5.6518785557564544e-01 +5.7570674349744777e-03
4.7000000000000002e+00 +8.1523725098559208e+00 +0.0000000000000000e+00 +4.7037629546028104e+00 -2.9138716472014364e-02 -5.6518811236787914e-01 +5.7570977988939164e-03
4.7999999999999998e+00 +8.1523455240894709e+00 +0.0000000000000000e+00 +4.8038430150156701e+00 -2.9138685050321286e-02 -5.6518836845140086e-01 +5.7571285855507488e-03
4.9000000000000004e+00 +8.1523179701980606e+00 +0.0000000000000000e+00 +4.9039230752737302e+00 -2.9138652959400477e-02 -5.6518862430920691e-01 +5.7571596140490759e-03
5.0000000000000000e+00 +8.1522898481889605e+00 +0.0000000000000000e+00 +5.0040031353737602e+00 -2.9138620603163613e-02 -5.6518888042420168e-01 +5.7571907034936493e-03
5.0999999999999996e+00 +8.1522611580549000e+00 +0.0000000000000000e+00 +5.1040831953125396e+00 -2.9138588385442161e-02 -5.6518913727942710e-01 +5.7572216729923353e-03
5.2000000000000002e+00 +8.1522318997995207e+00 +0.0000000000000000e+00 +5.2041632550868497e+00 -2.9138556709972188e-02 -5.6518939535786583e-01 +5.7572523416541347e-03
5.2999999999999998e+00 +8.1522020734228100e+00 +0.0000000000000000e+00 +5.3042433146934496e+00 -2.9138525980396235e-02 -5.6518965514255703e-01 +5.7572825285904785e-03
5.4000000000000004e+00 +8.1521716789247893e+00 +0.0000000000000000e+00 +5.4043233741291203e+00 -2.9138496600257423e-02 -5.6518991711656896e-01 +5.7573120529150036e-03
5.5000000000000000e+00 +8.1521407163090807e+00 +0.0000000000000000e+00 +5.5044034333906504e+00 -2.9138468972993624e-02 -5.6519018176297331e-01 +5.7573407337433886e-03
5.5999999999999996e+00 +8.1521091855684098e+00 +0.0000000000000000e+00 +5.6044834924747899e+00 -2.9138443501939299e-02 -5.6519044956496056e-01 +5.7573683901946046e-03
5.7000000000000002e+00 +8.1520770867064094e+00 +0.0000000000000000e+00 +5.7045635513783299e+00 -2.9138420590311902e-02 -5.6519072100567125e-01 +5.7573948413892542e-03
5.7999999999999998e+00 +8.1520444197231008e+00 +0.0000000000000000e+00 +5.8046436100980499e+00 -2.9138400641213685e-02 -5.6519099656831140e-01 +5.7574199064508429e-03
5.9000000000000004e+00 +8.1520111846184609e+00 +0.0000000000000000e+00 +5.9047236686307096e+00 -2.9138384057625935e-02 -5.6519127673612690e-01 +5.7574434045055932e-03
5.9999999999999902e+00 +8.1519773813925003e+00 +0.0000000000000000e+00 +6.0048037269731003e+00 -2.9138371242395007e-02 -5.6519156199240317e-01 +5.7574651546869558e-03
6.0999999999999899e+00 +8.1519430100452208e+00 +0.0000000000000000e+00 +6.1048837851219799e+00 -2.9138362498708281e-02 -5.6519185280005202e-01 +5.7574850222070501e-03
6.1999999999999904e+00 +8.1519080705766100e+00 +0.0000000000000000e+00 +6.2049638430741396e+00 -2.9138357784839544e-02 -5.6519214955130070e-01 +5.7575030319235018e-03
6.2999999999999901e+00 +8.1518725629866804e+00 +0.0000000000000000e+00 +6.3050439008263499e+00 -2.9138356984469538e-02 -5.6519245262312090e-01 +5.7575192432476295e-03
6.3999999999999897e+00 +8.1518364872754301e+00 +0.0000000000000000e+00 +6.4051239583753699e+00 -2.9138359981338811e-02 -5.6519276239254201e-01 +5.7575337155927036e-03
6.4999999999999902e+00 +8.1517998434428591e+00 +0.0000000000000000e+00 +6.5052040157180002e+00 -2.9138366659251125e-02 -5.6519307923665307e-01 +5.7575465083739997e-03
6.5999999999999899e+00 +8.1517626314889604e+00 +0.0000000000000000e+00 +6.6052840728510001e+00 -2.9138376902076941e-02 -5.6519340353260528e-01 +5.7575576810088439e-03
6.6999999999999904e+00 +8.1517248514137499e+00 +0.0000000000000000e+00 +6.7053641297711399e+00 -2.9138390593756863e-02 -5.6519373565761410e-01 +5.7575672929166804e-03
6.7999999999999901e+00 +8.1516865032135701e+00 +0.0000000000000000e+00 +6.8054441864752100e+00 -2.9138407618306647e-02 -5.6519407598898963e-01 +5.7575754035193950e-03
6.8999999999999897e+00 +8.1516475868957095e+00 +0.0000000000000000e+00 +6.9055242429599701e+00 -2.9138427859814381e-02 -5.6519442490402549e-01 +5.7575820722401997e-03
6.9999999999999902e+00 +8.1516081024565192e+00 +0.0000000000000000e+00 +7.0056042992222096e+00 -2.9138451202453401e-02 -5.6519478278017210e-01 +5.7575873585054517e-03
7.0999999999999899e+00 +8.1515680498960101e+00 +0.0000000000000000e+00 +7.1056843552586999e+00 -2.9138477530479375e-02 -5.6519514999492360e-01 +5.7575913217435236e-03
7.1999999999999904e+00 +8.1515274292141804e+00 +0.0000000000000000e+00 +7.2057644110662000e+00 -2.9138506728235418e-02 -5.6519552692585118e-01 +5.7575940213851476e-03
7.2999999999999901e+00 +8.1514862404073902e+00 +0.0000000000000000e+00 +7.3058444666415099e+00 -2.9138538680157051e-02 -5.6519591395062985e-01 +5.7575955168637626e-03
7.3999999999999897e+00 +8.1514444834829192e+00 +0.0000000000000000e+00 +7.4059245219813796e+00 -2.9138573270769436e-02 -5.6519631144693172e-01 +5.7575958676143917e-03
7.4999999999999902e+00 +8.1514021584334806e+00 +0.0000000000000000e+00 +7.5060045770826100e+00 -2.9138610384701748e-02 -5.6519671979262365e-01 +5.7575951330757517e-03
7.5999999999999899e+00 +8.1513592652663593e+00 +0.0000000000000000e+00 +7.6060846319419504e+00 -2.9138649906678159e-02 -5.6519713936554372e-01 +5.7575933726879457e-03
7.6999999999999904e+00 +8.1513158039779192e+00 +0.0000000000000000e+00 +7.7061646865561997e+00 -2.9138691721532169e-02 -5.6519757054370157e-01 +5.7575906458945756e-03
7.7999999999999901e+00 +8.1512717745681602e+00 +0.0000000000000000e+00 +7.8062447409221098e+00 -2.9138735714203893e-02 -5.6519801370516765e-01 +5.7575870121416347e-03
7.8999999999999897e+00 +8.1512271770334301e+00 +0.0000000000000000e+00 +7.9063247950364799e+00 -2.9138781769746516e-02 -5.6519846922813177e-01 +5.7575825308781121e-03
7.9999999999999902e+00 +8.1511820113773901e+00 +0.0000000000000000e+00 +8.0064048488960609e+00 -2.9138829773326075e-02 -5.6519893749075667e-01 +5.7575772615596991e-03
8.0999999999999908e+00 +8.1511362776036496e+00 +0.0000000000000000e+00 +8.1064849024976393e+00 -2.9138879613970069e-02 -5.6519941857540013e-01 +5.7575712842807894e-03
8.1999999999999904e+00 +8.1510899757086008e+00 +0.0000000000000000e+00 +8.2065649558379903e+00 -2.9138931193152712e-02 -5.6519991158688110e-01 +5.7575647473145190e-03
8.2999999999999901e+00 +8.1510431056885899e+00 +0.0000000000000000e+00 +8.3066450089139003e+00 -2.9138984414907795e-02 -5.6520041542831956e-01 +5.7575578129886468e-03
8.3999999999999897e+00 +8.1509956675508892e+00 +0.0000000000000000e+00 +8.4067250617221205e+00 -2.9139039183265079e-02 -5.6520092900265673e-01 +5.7575506436229398e-03
8.4999999999999893e+00 +8.1509476612882299e+00 +0.0000000000000000e+00 +8.5068051142594392e+00 -2.9139095402260798e-02 -5.6520145121284737e-01 +5.7575434015309894e-03
8.5999999999999908e+00 +8.1508990869078808e+00 +0.0000000000000000e+00 +8.6068851665226305e+00 -2.9139152975924964e-02 -5.6520198096163166e-01 +5.7575362490175988e-03
8.6999999999999904e+00 +8.1508499444025801e+00 +0.0000000000000000e+00 +8.7069652185084596e+00 -2.9139211808293507e-02 -5.6520251715175696e-01 +5.7575293483809109e-03
8.7999999999999794e+00 +8.1508002337759500e+00 +0.0000000000000000e+00 +8.8070452702137203e+00 -2.9139271803397052e-02 -5.6520305868577736e-01 +5.7575228619100695e-03
8.8999999999999808e+00 +8.1507499550316407e+00 +0.0000000000000000e+00 +8.9071253216351796e+00 -2.9139332865265266e-02 -5.6520360446613283e-01 +5.7575169518858755e-03
8.9999999999999805e+00 +8.1506991081623692e+00 +0.0000000000000000e+00 +9.0072053727696098e+00 -2.9139394897931277e-02 -5.6520415339523378e-01 +5.7575117805814145e-03
9.0999999999999801e+00 +8.1506476931717806e+00 +0.0000000000000000e+00 +9.1072854236137797e+00 -2.9139457805421966e-02 -5.6520470437528481e-01 +5.7575075102600411e-03
9.1999999999999797e+00 +8.1505957100635005e+00 +0.0000000000000000e+00 +9.2073654741644795e+00 -2.9139521491762386e-02 -5.6520525630836749e-01 +5.7575043031760156e-03
9.2999999999999794e+00 +8.1505431588302599e+00 +0.0000000000000000e+00 +9.3074455244184708e+00 -2.9139585860980095e-02 -5.6520580809652188e-01 +5.7575023215751331e-03
9.3999999999999808e+00 +8.1504900394757005e+00 +0.0000000000000000e+00 +9.4075255743725297e+00 -2.9139650817095474e-02 -5.6520635864157176e-01 +5.7575017276927142e-03
9.4999999999999805e+00 +8.1504363520034495e+00 +0.0000000000000000e+00 +9.5076056240234408e+00 -2.9139716264126227e-02 -5.6520690684520836e-01 +5.7575026837542332e-03
9.5999999999999801e+00 +8.1503820964062506e+00 +0.0000000000000000e+00 +9.6076856733679694e+00 -2.9139782106091555e-02 -5.6520745160906927e-01 +5.7575053519759523e-03
9.6999999999999797e+00 +8.1503272726913600e+00 +0.0000000000000000e+00 +9.7077657224029004e+00 -2.9139848247001127e-02 -5.6520799183453818e-01 +5.7575098945626098e-03
9.7999999999999794e+00 +8.1502718808515109e+00 +0.0000000000000000e+00 +9.8078457711250007e+00 -2.9139914590867122e-02 -5.6520852642296771e-01 +5.7575164737095350e-03
9.8999999999999808e+00 +8.1502159208903304e+00 +0.0000000000000000e+00 +9.9079258195310498e+00 -2.9139981041693085e-02 -5.6520905427547752e-01 +5.7575252516003147e-03
9.9999999999999805e+00 +8.1501593928078400e+00 +0.0000000000000000e+00 +1.0008005867617801e+01 -2.9140047503444507e-02 -5.6520957429323782e-01 +5.7575363903812531e-03
1.0100000000000000e+01 +8.1501022966040200e+00 +0.0000000000000000e+00 +1.0108085915382100e+01 -2.9140113793306725e-02 -5.6521008580657228e-01 +5.7575499871047840e-03
1.0199999999999999e+01 +8.1500446322825209e+00 +0.0000000000000000e+00 +1.0208165962820599e+01 -2.9140179454997320e-02 -5.6521058949854008e-01 +5.7575659337284549e-03
1.0300000000000001e+01 +8.1499863998360507e+00 +0.0000000000000000e+00 +1.0308246009930199e+01 -2.9140243978477084e-02 -5.6521108631812877e-01 +5.7575840819205637e-03
1.0400000000000000e+01 +8.1499275992682705e+00 +0.0000000000000000e+00 +1.0408326056707599e+01 -2.9140306853667006e-02 -5.6521157721428050e-01 +5.7576042833573215e-03
1.0500000000000000e+01 +8.1498682305791608e+00 +0.0000000000000000e+00 +1.0508406103149600e+01 -2.9140367570453535e-02 -5.6521206313600969e-01 +5.7576263897243102e-03
1.0600000000000000e+01 +8.1498082937723701e+00 +0.0000000000000000e+00 +1.0608486149253000e+01 -2.9140425618684383e-02 -5.6521254503234519e-01 +5.7576502527161132e-03
1.0699999999999999e+01 +8.1497477888406102e+00 +0.0000000000000000e+00 +1.0708566195014500e+01 -2.9140480488173748e-02 -5.6521302385244543e-01 +5.7576757240377684e-03
1.0800000000000001e+01 +8.1496867157875403e+00 +0.0000000000000000e+00 +1.0808646240430900e+01 -2.9140531668691998e-02 -5.6521350054543129e-01 +5.7577026554032464e-03
1.0900000000000000e+01 +8.1496250746131391e+00 +0.0000000000000000e+00 +1.0908726285499000e+01 -2.9140578649970855e-02 -5.6521397606049883e-01 +5.7577308985368777e-03
1.1000000000000000e+01 +8.1495628653174208e+00 +0.0000000000000000e+00 +1.1008806330215601e+01 -2.9140620921700777e-02 -5.6521445134689330e-01 +5.7577603051733092e-03
1.1100000000000000e+01 +8.1495000879040198e+00 +0.0000000000000000e+00 +1.1108886374577500e+01 -2.9140657973528467e-02 -5.6521492735388279e-01 +5.7577907270574659e-03
1.1199999999999999e+01 +8.1494367423620098e+00 +0.0000000000000000e+00 +1.1208966418581401e+01 -2.9140689295063547e-02 -5.6521540503089884e-01 +5.7578220159462731e-03
1.1300000000000001e+01 +8.1493728287059604e+00 +0.0000000000000000e+00 +1.1309046462224000e+01 -2.9140714375860501e-02 -5.6521588532723022e-01 +5.7578540236056684e-03
1.1400000000000000e+01 +8.1493083469249505e+00 +0.0000000000000000e+00 +1.1409126505502300e+01 -2.9140732705439359e-02 -5.6521636919241580e-01 +5.7578866018149748e-03
1.1500000000000000e+01 +8.1492432970226201e+00 +0.0000000000000000e+00 +1.1509206548412800e+01 -2.9140743773267631e-02 -5.6521685757593942e-01 +5.7579196023639272e-03
1.1600000000000000e+01 +8.1491776789989707e+00 +0.0000000000000000e+00 +1.1609286590952600e+01 -2.9140747068767021e-02 -5.6521735142736862e-01 +5.7579528770543712e-03
1.1699999999999999e+01 +8.1491114928576298e+00 +0.0000000000000000e+00 +1.1709366633118099e+01 -2.9140742081309338e-02 -5.6521785169630245e-01 +5.7579862776999495e-03
1.1800000000000001e+01 +8.1490447385876905e+00 +0.0000000000000000e+00 +1.1809446674906400e+01 -2.9140728300223181e-02 -5.6521835933251197e-01 +5.7580196561278227e-03
