# field on trajectory
# s[mm] rx[mm] ry[mm] rz[mm] bx[T] by[T] bz[T]
0.0000000000000000e+00 +7.9199999999999999e+00 +0.0000000000000000e+00 +0.0000000000000000e+00 -3.1275082517700170e-02 -5.9502052691310459e-01 +5.9790218825212516e-03
1.0000000000000001e-01 +7.9199997166730514e+00 +0.0000000000000000e+00 +9.9999999999464836e-02 -3.1275309278743217e-02 -5.9502028283720054e-01 +5.9789928209656451e-03
2.0000000000000001e-01 +7.9199988666923620e+00 +0.0000000000000000e+00 +1.9999999999571871e-01 -3.1275544830008932e-02 -5.9502003072459331e-01 +5.9789644712790061e-03
3.0000000000000004e-01 +7.9199974500581716e+00 +0.0000000000000000e+00 +2.9999999998555066e-01 -3.1275787368301937e-02 -5.9501977096774439e-01 +5.9789369061306694e-03
4.0000000000000002e-01 +7.9199954667707280e+00 +0.0000000000000000e+00 +3.9999999996574970e-01 -3.1276035090438102e-02 -5.9501950395910463e-01 +5.9789101981879873e-03
5.0000000000000000e-01 +7.9199929168302852e+00 +0.0000000000000000e+00 +4.9999999993310495e-01 -3.1276286193242339e-02 -5.9501923009111468e-01 +5.9788844201166709e-03
5.9999999999999998e-01 +7.9199898002371043e+00 +0.0000000000000000e+00 +5.9999999988440544e-01 -3.1276538873546450e-02 -5.9501894975620440e-01 +5.9788596445811398e-03
6.9999999999999996e-01 +7.9199861169914518e+00 +0.0000000000000000e+00 +6.9999999981644012e-01 -3.1276791328186879e-02 -5.9501866334679221e-01 +5.9788359442448542e-03
7.9999999999999993e-01 +7.9199818670936013e+00 +0.0000000000000000e+00 +7.9999999972599822e-01 -3.1277041754002588e-02 -5.9501837125528501e-01 +5.9788133917706753e-03
8.9999999999999991e-01 +7.9199770505438298e+00 +0.0000000000000000e+00 +8.9999999960986865e-01 -3.1277288347832735e-02 -5.9501807387407746e-01 +5.9787920598211863e-03
9.9999999999999989e-01 +7.9199716673424216e+00 +0.0000000000000000e+00 +9.9999999946484053e-01 -3.1277529306514645e-02 -5.9501777159555114e-01 +5.9787720210590584e-03
1.0999999999999999e+00 +7.9199657174896654e+00 +0.0000000000000000e+00 +1.0999999992877030e+00 -3.1277762826881481e-02 -5.9501746481207463e-01 +5.9787533481473780e-03
1.2000000000000000e+00 +7.9199592009858524e+00 +0.0000000000000000e+00 +1.1999999990752450e+00 -3.1277987105760123e-02 -5.9501715391600363e-01 +5.9787361137499991e-03
1.3000000000000000e+00 +7.9199521178312793e+00 +0.0000000000000000e+00 +1.2999999988242559e+00 -3.1278200339968920e-02 -5.9501683929967875e-01 +5.9787203905318871e-03
1.4000000000000001e+00 +7.9199444680262454e+00 +0.0000000000000000e+00 +1.3999999985315246e+00 -3.1278400726315533e-02 -5.9501652135542649e-01 +5.9787062511594494e-03
1.5000000000000002e+00 +7.9199362515710545e+00 +0.0000000000000000e+00 +1.4999999981938401e+00 -3.1278586461594746e-02 -5.9501620047555870e-01 +5.9786937683008953e-03
1.6000000000000003e+00 +7.9199274684660121e+00 +0.0000000000000000e+00 +1.5999999978079917e+00 -3.1278755742586227e-02 -5.9501587705237147e-01 +5.9786830146265771e-03
1.7000000000000004e+00 +7.9199181187114256e+00 +0.0000000000000000e+00 +1.6999999973707685e+00 -3.1278906766052370e-02 -5.9501555147814456e-01 +5.9786740628093174e-03
1.8000000000000005e+00 +7.9199082023076066e+00 +0.0000000000000000e+00 +1.7999999968789593e+00 -3.1279037728736109e-02 -5.9501522414514230e-01 +5.9786669855247752e-03
1.9000000000000006e+00 +7.9198977192548661e+00 +0.0000000000000000e+00 +1.8999999963293535e+00 -3.1279146827358661e-02 -5.9501489544561148e-01 +5.9786618554517690e-03
2.0000000000000004e+00 +7.9198866695535184e+00 +0.0000000000000000e+00 +1.9999999957187402e+00 -3.1279232258617402e-02 -5.9501456577178213e-01 +5.9786587452726392e-03
2.1000000000000005e+00 +7.9198750532038771e+00 +0.0000000000000000e+00 +2.0999999950439086e+00 -3.1279292847507509e-02 -5.9501423547686472e-01 +5.9786577016544820e-03
2.2000000000000006e+00 +7.9198628702062575e+00 +0.0000000000000000e+00 +2.1999999943016477e+00 -3.1279329932302334e-02 -5.9501390475806004e-01 +5.9786586671910780e-03
2.3000000000000007e+00 +7.9198501205609748e+00 +0.0000000000000000e+00 +2.2999999934887465e+00 -3.1279345479599936e-02 -5.9501357377358488e-01 +5.9786615584583062e-03
2.4000000000000008e+00 +7.9198368042683445e+00 +0.0000000000000000e+00 +2.3999999926019946e+00 -3.1279341456003050e-02 -5.9501324268168154e-01 +5.9786662920329036e-03
2.5000000000000009e+00 +7.9198229213286826e+00 +0.0000000000000000e+00 +2.4999999916381808e+00 -3.1279319828120628e-02 -5.9501291164062109e-01 +5.9786727844924172e-03
2.6000000000000010e+00 +7.9198084717423045e+00 +0.0000000000000000e+00 +2.5999999905940943e+00 -3.1279282562569434e-02 -5.9501258080870678e-01 +5.9786809524151451e-03
2.7000000000000011e+00 +7.9197934555095255e+00 +0.0000000000000000e+00 +2.6999999894665243e+00 -3.1279231625975477e-02 -5.9501225034427907e-01 +5.9786907123800656e-03
2.8000000000000012e+00 +7.9197778726306609e+00 +0.0000000000000000e+00 +2.7999999882522602e+00 -3.1279168984975673e-02 -5.9501192040571937e-01 +5.9787019809667942e-03
2.9000000000000012e+00 +7.9197617231060260e+00 +0.0000000000000000e+00 +2.8999999869480906e+00 -3.1279096606219289e-02 -5.9501159115145297e-01 +5.9787146747555192e-03
3.0000000000000013e+00 +7.9197450069359343e+00 +0.0000000000000000e+00 +2.9999999855508053e+00 -3.1279016456369539e-02 -5.9501126273995431e-01 +5.9787287103269370e-03
3.1000000000000014e+00 +7.9197277241206994e+00 +0.0000000000000000e+00 +3.0999999840571930e+00 -3.1278930502105055e-02 -5.9501093532974936e-01 +5.9787440042621993e-03
3.2000000000000015e+00 +7.9197098746606329e+00 +0.0000000000000000e+00 +3.1999999824640430e+00 -3.1278840710121533e-02 -5.9501060907942183e-01 +5.9787604731428570e-03
3.3000000000000016e+00 +7.9196914585560467e+00 +0.0000000000000000e+00 +3.2999999807681446e+00 -3.1278749047133174e-02 -5.9501028414761470e-01 +5.9787780335507938e-03
3.4000000000000017e+00 +7.9196724758072508e+00 +0.0000000000000000e+00 +3.3999999789662869e+00 -3.1278657479874274e-02 -5.9500996069303580e-01 +5.9787966020681755e-03
3.5000000000000018e+00 +7.9196529264145541e+00 +0.0000000000000000e+00 +3.4999999770552592e+00 -3.1278567975100750e-02 -5.9500963887446101e-01 +5.9788160952773863e-03
3.6000000000000019e+00 +7.9196328103782632e+00 +0.0000000000000000e+00 +3.5999999750318508e+00 -3.1278482499591635e-02 -5.9500931885073782e-01 +5.9788364297609694e-03
3.7000000000000020e+00 +7.9196121276986835e+00 +0.0000000000000000e+00 +3.6999999728928508e+00 -3.1278403020150732e-02 -5.9500900078079144e-01 +5.9788575221015753e-03
3.8000000000000020e+00 +7.9195908783761189e+00 +0.0000000000000000e+00 +3.7999999706350485e+00 -3.1278331503608002e-02 -5.9500868482362479e-01 +5.9788792888818918e-03
3.9000000000000021e+00 +7.9195690624108703e+00 +0.0000000000000000e+00 +3.8999999682552331e+00 -3.1278269916821234e-02 -5.9500837113832672e-01 +5.9789016466845982e-03
4.0000000000000018e+00 +7.9195466798032381e+00 +0.0000000000000000e+00 +3.9999999657501939e+00 -3.1278220226677499e-02 -5.9500805988407290e-01 +5.9789245120923035e-03
4.1000000000000014e+00 +7.9195237305535189e+00 +0.0000000000000000e+00 +4.0999999631167201e+00 -3.1278183980356367e-02 -5.9500775127445282e-01 +5.9789478285306842e-03
4.2000000000000011e+00 +7.9195002146620075e+00 +0.0000000000000000e+00 +4.1999999603516009e+00 -3.1278161046096570e-02 -5.9500744574039754e-01 +5.9789716467973913e-03
4.3000000000000007e+00 +7.9194761321289953e+00 +0.0000000000000000e+00 +4.2999999574516252e+00 -3.1278150872380291e-02 -5.9500714376714348e-01 +5.9789960445307726e-03
4.4000000000000004e+00 +7.9194514829547700e+00 +0.0000000000000000e+00 +4.3999999544135822e+00 -3.1278152907666140e-02 -5.9500684583989760e-01 +5.9790210993661934e-03
4.5000000000000000e+00 +7.9194262671396167e+00 +0.0000000000000000e+00 +4.4999999512342619e+00 -3.1278166600387562e-02 -5.9500655244383371e-01 +5.9790468889358407e-03
4.5999999999999996e+00 +7.9194004846838162e+00 +0.0000000000000000e+00 +4.5999999479104527e+00 -3.1278191398951057e-02 -5.9500626406408907e-01 +5.9790734908685078e-03
4.6999999999999993e+00 +7.9193741355876437e+00 +0.0000000000000000e+00 +4.6999999444389449e+00 -3.1278226751734355e-02 -5.9500598118576165e-01 +5.9791009827893952e-03
4.7999999999999989e+00 +7.9193472198513684e+00 +0.0000000000000000e+00 +4.7999999408165266e+00 -3.1278272107084809e-02 -5.9500570429390542e-01 +5.9791294423199026e-03
4.8999999999999986e+00 +7.9193197374752557e+00 +0.0000000000000000e+00 +4.8999999370399880e+00 -3.1278326913317611e-02 -5.9500543387352811e-01 +5.9791589470774105e-03
4.9999999999999982e+00 +7.9192916884595634e+00 +0.0000000000000000e+00 +4.9999999331061176e+00 -3.1278390618714007e-02 -5.9500517040958645e-01 +5.9791895746750907e-03
5.0999999999999979e+00 +7.9192630728045437e+00 +0.0000000000000000e+00 +5.0999999290117053e+00 -3.1278462671519625e-02 -5.9500491438698411e-01 +5.9792214027216796e-03
5.1999999999999975e+00 +7.9192338905104416e+00 +0.0000000000000000e+00 +5.1999999247535396e+00 -3.1278542519942727e-02 -5.9500466629056703e-01 +5.9792545088212896e-03
5.2999999999999972e+00 +7.9192041415774943e+00 +0.0000000000000000e+00 +5.2999999203284105e+00 -3.1278629612152449e-02 -5.9500442660512098e-01 +5.9792889705731949e-03
5.3999999999999968e+00 +7.9191738260059301e+00 +0.0000000000000000e+00 +5.3999999157331073e+00 -3.1278723396277082e-02 -5.9500419581536734e-01 +5.9793248655716121e-03
5.4999999999999964e+00 +7.9191429437959702e+00 +0.0000000000000000e+00 +5.4999999109644193e+00 -3.1278823320402355e-02 -5.9500397440596031e-01 +5.9793622714055181e-03
5.5999999999999961e+00 +7.9191114949478267e+00 +0.0000000000000000e+00 +5.5999999060191348e+00 -3.1278928832569650e-02 -5.9500376286148215e-01 +5.9794012656584220e-03
5.6999999999999957e+00 +7.9190794794617014e+00 +0.0000000000000000e+00 +5.6999999008940438e+00 -3.1279039380774330e-02 -5.9500356166644175e-01 +5.9794419259081594e-03
5.7999999999999954e+00 +7.9190468973377870e+00 +0.0000000000000000e+00 +5.7999998955859358e+00 -3.1279154412963951e-02 -5.9500337130526915e-01 +5.9794843297267019e-03
5.8999999999999950e+00 +7.9190137485762664e+00 +0.0000000000000000e+00 +5.8999998900915998e+00 -3.1279273377036551e-02 -5.9500319226231357e-01 +5.9795285546799318e-03
5.9999999999999947e+00 +7.9189800331773110e+00 +0.0000000000000000e+00 +5.9999998844078251e+00 -3.1279395720838911e-02 -5.9500302502183899e-01 +5.9795746783274390e-03
6.0999999999999943e+00 +7.9189457511410808e+00 +0.0000000000000000e+00 +6.0999998785314009e+00 -3.1279520996260600e-02 -5.9500286993324369e-01 +5.9796227549391420e-03
6.1999999999999940e+00 +7.9189109024677249e+00 +0.0000000000000000e+00 +6.1999998724591165e+00 -3.1279649171548365e-02 -5.9500272680675315e-01 +5.9796727456488397e-03
6.2999999999999936e+00 +7.9188754871573801e+00 +0.0000000000000000e+00 +6.2999998661877612e+00 -3.1279780319065677e-02 -5.9500259531780875e-01 +5.9797245883101962e-03
6.3999999999999932e+00 +7.9188395052101734e+00 +0.0000000000000000e+00 +6.3999998597141250e+00 -3.1279914511204585e-02 -5.9500247514185511e-01 +5.9797782207812204e-03
6.4999999999999929e+00 +7.9188029566262204e+00 +0.0000000000000000e+00 +6.4999998530349963e+00 -3.1280051820387213e-02 -5.9500236595433986e-01 +5.9798335809244756e-03
6.5999999999999925e+00 +7.9187658414056257e+00 +0.0000000000000000e+00 +6.5999998461471643e+00 -3.1280192319067514e-02 -5.9500226743071549e-01 +5.9798906066073354e-03
6.6999999999999922e+00 +7.9187281595484844e+00 +0.0000000000000000e+00 +6.6999998390474182e+00 -3.1280336079732643e-02 -5.9500217924643739e-01 +5.9799492357021896e-03
6.7999999999999918e+00 +7.9186899110548827e+00 +0.0000000000000000e+00 +6.7999998317325483e+00 -3.1280483174904783e-02 -5.9500210107696727e-01 +5.9800094060867117e-03
6.8999999999999915e+00 +7.9186510959248952e+00 +0.0000000000000000e+00 +6.8999998241993428e+00 -3.1280633677142580e-02 -5.9500203259777062e-01 +5.9800710556440597e-03
6.9999999999999911e+00 +7.9186117141585894e+00 +0.0000000000000000e+00 +6.9999998164445909e+00 -3.1280787659042804e-02 -5.9500197348431960e-01 +5.9801341222631326e-03
7.0999999999999908e+00 +7.9185717657560222e+00 +0.0000000000000000e+00 +7.0999998084650828e+00 -3.1280945193241948e-02 -5.9500192341209190e-01 +5.9801985438387925e-03
7.1999999999999904e+00 +7.9185312507172423e+00 +0.0000000000000000e+00 +7.1999998002576069e+00 -3.1281106352417772e-02 -5.9500188205657223e-01 +5.9802642582721076e-03
7.2999999999999901e+00 +7.9184901690422915e+00 +0.0000000000000000e+00 +7.2999997918189523e+00 -3.1281271209290959e-02 -5.9500184909325171e-01 +5.9803312034705713e-03
7.3999999999999897e+00 +7.9184485207312019e+00 +0.0000000000000000e+00 +7.3999997831459092e+00 -3.1281439836626693e-02 -5.9500182419763015e-01 +5.9803993173483568e-03
7.4999999999999893e+00 +7.9184063057839982e+00 +0.0000000000000000e+00 +7.4999997742352660e+00 -3.1281612307236202e-02 -5.9500180704521344e-01 +5.9804685378265308e-03
7.5999999999999890e+00 +7.9183635242006982e+00 +0.0000000000000000e+00 +7.5999997650838127e+00 -3.1281788693978421e-02 -5.9500179731151759e-01 +5.9805388028332986e-03
7.6999999999999886e+00 +7.9183201759813135e+00 +0.0000000000000000e+00 +7.6999997556883377e+00 -3.1281969069761550e-02 -5.9500179467206626e-01 +5.9806100503042381e-03
7.7999999999999883e+00 +7.9182762611258468e+00 +0.0000000000000000e+00 +7.7999997460456312e+00 -3.1282153507544631e-02 -5.9500179880239290e-01 +5.9806822181825313e-03
7.8999999999999879e+00 +7.9182317796342963e+00 +0.0000000000000000e+00 +7.8999997361524814e+00 -3.1282342080339171e-02 -5.9500180937804048e-01 +5.9807552444191940e-03
7.9999999999999876e+00 +7.9181867315066539e+00 +0.0000000000000000e+00 +7.9999997260056777e+00 -3.1282534861210728e-02 -5.9500182607456231e-01 +5.9808290669733201e-03
8.0999999999999872e+00 +7.9181411167429046e+00 +0.0000000000000000e+00 +8.0999997156020100e+00 -3.1282731760889075e-02 -5.9500184858312255e-01 +5.9809036160598222e-03
8.1999999999999869e+00 +7.9180949353430279e+00 +0.0000000000000000e+00 +8.1999997049382678e+00 -3.1282932040571532e-02 -5.9500187665729654e-01 +5.9809787908892071e-03
8.2999999999999865e+00 +7.9180481873069990e+00 +0.0000000000000000e+00 +8.2999996940112393e+00 -3.1283134799067816e-02 -5.9500191006626368e-01 +5.9810544829204445e-03
8.3999999999999861e+00 +7.9180008726347877e+00 +0.0000000000000000e+00 +8.3999996828177146e+00 -3.1283339135189353e-02 -5.9500194857920696e-01 +5.9811305836128849e-03
8.4999999999999858e+00 +7.9179529913263593e+00 +0.0000000000000000e+00 +8.4999996713544821e+00 -3.1283544147749233e-02 -5.9500199196531256e-01 +5.9812069844262386e-03
8.5999999999999854e+00 +7.9179045433816730e+00 +0.0000000000000000e+00 +8.5999996596183301e+00 -3.1283748935561996e-02 -5.9500203999377044e-01 +5.9812835768205570e-03
8.6999999999999851e+00 +7.9178555288006853e+00 +0.0000000000000000e+00 +8.6999996476060506e+00 -3.1283952597443543e-02 -5.9500209243377422e-01 +5.9813602522562096e-03
8.7999999999999847e+00 +7.9178059475833482e+00 +0.0000000000000000e+00 +8.7999996353144301e+00 -3.1284154232211071e-02 -5.9500214905452142e-01 +5.9814369021938757e-03
8.8999999999999844e+00 +7.9177557997296084e+00 +0.0000000000000000e+00 +8.8999996227402587e+00 -3.1284352938682841e-02 -5.9500220962521388e-01 +5.9815134180945051e-03
8.9999999999999840e+00 +7.9177050852394109e+00 +0.0000000000000000e+00 +8.9999996098803265e+00 -3.1284547815678139e-02 -5.9500227391505811e-01 +5.9815896914193157e-03
9.0999999999999837e+00 +7.9176538041126951e+00 +0.0000000000000000e+00 +9.0999995967314220e+00 -3.1284737962017119e-02 -5.9500234169326438e-01 +5.9816656136297691e-03
9.1999999999999833e+00 +7.9176019563493991e+00 +0.0000000000000000e+00 +9.1999995832903352e+00 -3.1284922476520698e-02 -5.9500241272904864e-01 +5.9817410761875455e-03
9.2999999999999829e+00 +7.9175495419494561e+00 +0.0000000000000000e+00 +9.2999995695538544e+00 -3.1285100458010424e-02 -5.9500248679163092e-01 +5.9818159705545366e-03
9.3999999999999826e+00 +7.9174965609127979e+00 +0.0000000000000000e+00 +9.3999995555187681e+00 -3.1285271005308354e-02 -5.9500256365023696e-01 +5.9818901881928087e-03
9.4999999999999822e+00 +7.9174430132393523e+00 +0.0000000000000000e+00 +9.4999995411818663e+00 -3.1285433217236931e-02 -5.9500264307409745e-01 +5.9819636205645970e-03
9.5999999999999819e+00 +7.9173888989290457e+00 +0.0000000000000000e+00 +9.5999995265399392e+00 -3.1285586192618911e-02 -5.9500272483244909e-01 +5.9820361591322868e-03
9.6999999999999815e+00 +7.9173342179818027e+00 +0.0000000000000000e+00 +9.6999995115897750e+00 -3.1285729030277154e-02 -5.9500280869453370e-01 +5.9821076953583815e-03
9.7999999999999812e+00 +7.9172789703975441e+00 +0.0000000000000000e+00 +9.7999994963281623e+00 -3.1285860829034576e-02 -5.9500289442959942e-01 +5.9821781207054989e-03
9.8999999999999808e+00 +7.9172231561761910e+00 +0.0000000000000000e+00 +9.8999994807518910e+00 -3.1285980687714023e-02 -5.9500298180690014e-01 +5.9822473266363373e-03
9.9999999999999805e+00 +7.9171667753176616e+00 +0.0000000000000000e+00 +9.9999994648577495e+00 -3.1286087705138133e-02 -5.9500307059569624e-01 +5.9823152046136700e-03
1.0099999999999980e+01 +7.9171098278218732e+00 +0.0000000000000000e+00 +1.0099999448642528e+01 -3.1286181284469791e-02 -5.9500316059075753e-01 +5.9823816794941616e-03
1.0199999999999980e+01 +7.9170523136887416e+00 +0.0000000000000000e+00 +1.0199999432103015e+01 -3.1286262046245676e-02 -5.9500325168888002e-01 +5.9824468097097348e-03
1.0299999999999979e+01 +7.9169942329181824e+00 +0.0000000000000000e+00 +1.0299999415236000e+01 -3.1286330915331367e-02 -5.9500334381238740e-01 +5.9825106870808305e-03
1.0399999999999979e+01 +7.9169355855101093e+00 +0.0000000000000000e+00 +1.0399999398038272e+01 -3.1286388816568395e-02 -5.9500343688362733e-01 +5.9825734034207167e-03
1.0499999999999979e+01 +7.9168763714644363e+00 +0.0000000000000000e+00 +1.0499999380506621e+01 -3.1286436674773599e-02 -5.9500353082497481e-01 +5.9826350505353199e-03
1.0599999999999978e+01 +7.9168165907810755e+00 +0.0000000000000000e+00 +1.0599999362637835e+01 -3.1286475414738446e-02 -5.9500362555883024e-01 +5.9826957202230094e-03
1.0699999999999978e+01 +7.9167562434599379e+00 +0.0000000000000000e+00 +1.0699999344428704e+01 -3.1286505961228318e-02 -5.9500372100762133e-01 +5.9827555042744123e-03
1.0799999999999978e+01 +7.9166953295009348e+00 +0.0000000000000000e+00 +1.0799999325876017e+01 -3.1286529238981869e-02 -5.9500381709380445e-01 +5.9828144944722352e-03
1.0899999999999977e+01 +7.9166338489039774e+00 +0.0000000000000000e+00 +1.0899999306976563e+01 -3.1286546172710317e-02 -5.9500391373986328e-01 +5.9828727825910529e-03
1.0999999999999977e+01 +7.9165718016689750e+00 +0.0000000000000000e+00 +1.0999999287727130e+01 -3.1286557687096733e-02 -5.9500401086831101e-01 +5.9829304603971224e-03
1.1099999999999977e+01 +7.9165091877958371e+00 +0.0000000000000000e+00 +1.1099999268124508e+01 -3.1286564706795389e-02 -5.9500410840169049e-01 +5.9829876196481951e-03
1.1199999999999976e+01 +7.9164460072844731e+00 +0.0000000000000000e+00 +1.1199999248165486e+01 -3.1286568156431084e-02 -5.9500420626257478e-01 +5.9830443520933162e-03
1.1299999999999976e+01 +7.9163822601347915e+00 +0.0000000000000000e+00 +1.1299999227846856e+01 -3.1286568960598400e-02 -5.9500430437356777e-01 +5.9831007494726375e-03
1.1399999999999975e+01 +7.9163179463467017e+00 +0.0000000000000000e+00 +1.1399999207165402e+01 -3.1286568043861103e-02 -5.9500440265730581e-01 +5.9831569035172227e-03
1.1499999999999975e+01 +7.9162530659201114e+00 +0.0000000000000000e+00 +1.1499999186117918e+01 -3.1286566330751338e-02 -5.9500450103645630e-01 +5.9832129059488532e-03
1.1599999999999975e+01 +7.9161876188549289e+00 +0.0000000000000000e+00 +1.1599999164701190e+01 -3.1286564745769074e-02 -5.9500459943371975e-01 +5.9832688484798332e-03
1.1699999999999974e+01 +7.9161216051510639e+00 +0.0000000000000000e+00 +1.1699999142912008e+01 -3.1286564213381308e-02 -5.9500469777183063e-01 +5.9833248228128022e-03
1.1799999999999974e+01 +7.9160550248084238e+00 +0.0000000000000000e+00 +1.1799999120747161e+01 -3.1286565658021452e-02 -5.9500479597355727e-01 +5.9833809206405334e-03
