# field on trajectory
# s[mm] rx[mm] ry[mm] rz[mm] bx[T] by[T] bz[T]
0.0000000000000000e+00 +8.1529999999999987e+00 +0.0000000000000000e+00 +0.0000000000000000e+00 -3.1948300843140494e-02 -5.9243497778407295e-01 +5.8971001531206591e-03
1.0000000000000001e-01 +8.1529997169893651e+00 +0.0000000000000000e+00 +9.9999999999466030e-02 -3.1948380130946481e-02 -5.9243506275328250e-01 +5.8971552055680420e-03
2.0000000000000001e-01 +8.1529988679574110e+00 +0.0000000000000000e+00 +1.9999999999572826e-01 -3.1948454858764998e-02 -5.9243515518179868e-01 +5.8972111268114531e-03
3.0000000000000004e-01 +8.1529974529040476e+00 +0.0000000000000000e+00 +2.9999999998558291e-01 -3.1948525022354443e-02 -5.9243525366135119e-01 +5.8972680078422171e-03
4.0000000000000002e-01 +8.1529954718291826e+00 +0.0000000000000000e+00 +3.9999999996582614e-01 -3.1948590617476930e-02 -5.9243535678365122e-01 +5.8973259396525833e-03
5.0000000000000000e-01 +8.1529929247327146e+00 +0.0000000000000000e+00 +4.9999999993325417e-01 -3.1948651639899656e-02 -5.9243546314039575e-01 +5.8973850132356632e-03
5.9999999999999998e-01 +8.1529898116145443e+00 +0.0000000000000000e+00 +5.9999999988466313e-01 -3.1948708085396141e-02 -5.9243557132327229e-01 +5.8974453195853871e-03
6.9999999999999996e-01 +8.1529861324745685e+00 +0.0000000000000000e+00 +6.9999999981684924e-01 -3.1948759949747579e-02 -5.9243567992395996e-01 +5.8975069496964207e-03
7.9999999999999993e-01 +8.1529818873126825e+00 +0.0000000000000000e+00 +7.9999999972660873e-01 -3.1948807228744235e-02 -5.9243578753413617e-01 +5.8975699945641360e-03
8.9999999999999991e-01 +8.1529770761287850e+00 +0.0000000000000000e+00 +8.9999999961073773e-01 -3.1948849918186618e-02 -5.9243589274547703e-01 +5.8976345451845404e-03
9.9999999999999989e-01 +8.1529716989227747e+00 +0.0000000000000000e+00 +9.9999999946603246e-01 -3.1948888013886970e-02 -5.9243599414966419e-01 +5.8977006925542254e-03
1.0999999999999999e+00 +8.1529657556945558e+00 +0.0000000000000000e+00 +1.0999999992892890e+00 -3.1948921511670510e-02 -5.9243609033838618e-01 +5.8977685276703044e-03
1.2000000000000000e+00 +8.1529592464440377e+00 +0.0000000000000000e+00 +1.1999999990773038e+00 -3.1948950407376678e-02 -5.9243617990334263e-01 +5.8978381415303567e-03
1.3000000000000000e+00 +8.1529521711711332e+00 +0.0000000000000000e+00 +1.2999999988268729e+00 -3.1948974696860651e-02 -5.9243626143624850e-01 +5.8979096251323814e-03
1.4000000000000001e+00 +8.1529445298757661e+00 +0.0000000000000000e+00 +1.3999999985347924e+00 -3.1948994375994459e-02 -5.9243633352883773e-01 +5.8979830694747271e-03
1.5000000000000002e+00 +8.1529363225578670e+00 +0.0000000000000000e+00 +1.4999999981978585e+00 -3.1949009440668426e-02 -5.9243639477286503e-01 +5.8980585655560389e-03
1.6000000000000003e+00 +8.1529275492173774e+00 +0.0000000000000000e+00 +1.5999999978128674e+00 -3.1949019886792517e-02 -5.9243644376011240e-01 +5.8981362043752077e-03
1.7000000000000004e+00 +8.1529182098542510e+00 +0.0000000000000000e+00 +1.6999999973766153e+00 -3.1949025710297604e-02 -5.9243647908239117e-01 +5.8982160769313133e-03
1.8000000000000005e+00 +8.1529083044684558e+00 +0.0000000000000000e+00 +1.7999999968858984e+00 -3.1949026907136691e-02 -5.9243649933154474e-01 +5.8982982742235551e-03
1.9000000000000006e+00 +8.1528978330599724e+00 +0.0000000000000000e+00 +1.8999999963375129e+00 -3.1949023473286535e-02 -5.9243650309945428e-01 +5.8983828872512063e-03
2.0000000000000004e+00 +8.1528867956287971e+00 +0.0000000000000000e+00 +1.9999999957282550e+00 -3.1949015404748628e-02 -5.9243648897804080e-01 +5.8984700070135601e-03
2.1000000000000005e+00 +8.1528751921749425e+00 +0.0000000000000000e+00 +2.0999999950549206e+00 -3.1949002787774287e-02 -5.9243645607541773e-01 +5.8985597237683294e-03
2.2000000000000006e+00 +8.1528630226984422e+00 +0.0000000000000000e+00 +2.1999999943143065e+00 -3.1948986069526078e-02 -5.9243640556431587e-01 +5.8986521248073449e-03
2.3000000000000007e+00 +8.1528502871993442e+00 +0.0000000000000000e+00 +2.2999999935032083e+00 -3.1948965787389323e-02 -5.9243633913361515e-01 +5.8987472966818503e-03
2.4000000000000008e+00 +8.1528369856777125e+00 +0.0000000000000000e+00 +2.3999999926184223e+00 -3.1948942478743705e-02 -5.9243625847218762e-01 +5.8988453259441707e-03
2.5000000000000009e+00 +8.1528231181336253e+00 +0.0000000000000000e+00 +2.4999999916567450e+00 -3.1948916680961101e-02 -5.9243616526889575e-01 +5.8989462991478059e-03
2.6000000000000010e+00 +8.1528086845671695e+00 +0.0000000000000000e+00 +2.5999999906149722e+00 -3.1948888931403303e-02 -5.9243606121259051e-01 +5.8990503028474896e-03
2.7000000000000011e+00 +8.1527936849784464e+00 +0.0000000000000000e+00 +2.6999999894899003e+00 -3.1948859767419797e-02 -5.9243594799210819e-01 +5.8991574235992810e-03
2.8000000000000012e+00 +8.1527781193675644e+00 +0.0000000000000000e+00 +2.7999999882783255e+00 -3.1948829726345544e-02 -5.9243582729626754e-01 +5.8992677479606202e-03
2.9000000000000012e+00 +8.1527619877346389e+00 +0.0000000000000000e+00 +2.8999999869770443e+00 -3.1948799345498657e-02 -5.9243570081386854e-01 +5.8993813624904192e-03
3.0000000000000013e+00 +8.1527452900797925e+00 +0.0000000000000000e+00 +2.9999999855828525e+00 -3.1948769162178141e-02 -5.9243557023368842e-01 +5.8994983537491233e-03
3.1000000000000014e+00 +8.1527280264031496e+00 +0.0000000000000000e+00 +3.0999999840925465e+00 -3.1948739713661752e-02 -5.9243543724448022e-01 +5.8996188082987852e-03
3.2000000000000015e+00 +8.1527101967048363e+00 +0.0000000000000000e+00 +3.1999999825029222e+00 -3.1948711537203647e-02 -5.9243530353496865e-01 +5.8997428127031534e-03
3.3000000000000016e+00 +8.1526918009849823e+00 +0.0000000000000000e+00 +3.2999999808107763e+00 -3.1948685170032166e-02 -5.9243517079385033e-01 +5.8998704535277273e-03
3.4000000000000017e+00 +8.1526728392437136e+00 +0.0000000000000000e+00 +3.3999999790129047e+00 -3.1948661149347586e-02 -5.9243504070978903e-01 +5.9000018173398470e-03
3.5000000000000018e+00 +8.1526533114811564e+00 +0.0000000000000000e+00 +3.4999999771061034e+00 -3.1948640012319868e-02 -5.9243491497141321e-01 +5.9001369907087540e-03
3.6000000000000019e+00 +8.1526332176974314e+00 +0.0000000000000000e+00 +3.5999999750871692e+00 -3.1948622296086367e-02 -5.9243479526731435e-01 +5.9002760602056767e-03
3.7000000000000020e+00 +8.1526125578926525e+00 +0.0000000000000000e+00 +3.6999999729528978e+00 -3.1948608537749688e-02 -5.9243468328604387e-01 +5.9004191124038948e-03
3.8000000000000020e+00 +8.1525913320669279e+00 +0.0000000000000000e+00 +3.7999999707000858e+00 -3.1948599274375315e-02 -5.9243458071611166e-01 +5.9005662338788203e-03
3.9000000000000021e+00 +8.1525695402203553e+00 +0.0000000000000000e+00 +3.8999999683255293e+00 -3.1948595042989449e-02 -5.9243448924598141e-01 +5.9007175112080713e-03
4.0000000000000018e+00 +8.1525471823530236e+00 +0.0000000000000000e+00 +3.9999999658260248e+00 -3.1948596380576691e-02 -5.9243441056407031e-01 +5.9008730309715327e-03
4.1000000000000014e+00 +8.1525242584650073e+00 +0.0000000000000000e+00 +4.0999999631983677e+00 -3.1948603802571668e-02 -5.9243434604758827e-01 +5.9010328312234161e-03
4.2000000000000011e+00 +8.1525007685563704e+00 +0.0000000000000000e+00 +4.1999999604393548e+00 -3.1948617738355896e-02 -5.9243429582908580e-01 +5.9011967559064260e-03
4.3000000000000007e+00 +8.1524767126271591e+00 +0.0000000000000000e+00 +4.2999999575457828e+00 -3.1948638595806593e-02 -5.9243425972995811e-01 +5.9013646004332093e-03
4.4000000000000004e+00 +8.1524520906774107e+00 +0.0000000000000000e+00 +4.3999999545144473e+00 -3.1948666782808027e-02 -5.9243423757160951e-01 +5.9015361602138992e-03
4.5000000000000000e+00 +8.1524269027071465e+00 +0.0000000000000000e+00 +4.4999999513421445e+00 -3.1948702707252592e-02 -5.9243422917545396e-01 +5.9017112306559106e-03
4.5999999999999996e+00 +8.1524011487163772e+00 +0.0000000000000000e+00 +4.5999999480256708e+00 -3.1948746777041653e-02 -5.9243423436291642e-01 +5.9018896071637381e-03
4.6999999999999993e+00 +8.1523748287050957e+00 +0.0000000000000000e+00 +4.6999999445618226e+00 -3.1948799400086554e-02 -5.9243425295543517e-01 +5.9020710851387390e-03
4.7999999999999989e+00 +8.1523479426732877e+00 +0.0000000000000000e+00 +4.7999999409473952e+00 -3.1948860984309546e-02 -5.9243428477445981e-01 +5.9022554599789242e-03
4.8999999999999986e+00 +8.1523204906209212e+00 +0.0000000000000000e+00 +4.8999999371791860e+00 -3.1948931937644767e-02 -5.9243432964145604e-01 +5.9024425270787556e-03
4.9999999999999982e+00 +8.1522924725479573e+00 +0.0000000000000000e+00 +4.9999999332539904e+00 -3.1949012668039165e-02 -5.9243438737790466e-01 +5.9026320818289365e-03
5.0999999999999979e+00 +8.1522638884543390e+00 +0.0000000000000000e+00 +5.0999999291686047e+00 -3.1949103583453452e-02 -5.9243445780530335e-01 +5.9028239196162067e-03
5.1999999999999975e+00 +8.1522347383400007e+00 +0.0000000000000000e+00 +5.1999999249198252e+00 -3.1949205091863025e-02 -5.9243454074516744e-01 +5.9030178358231164e-03
5.2999999999999972e+00 +8.1522050222048641e+00 +0.0000000000000000e+00 +5.2999999205044483e+00 -3.1949317601259047e-02 -5.9243463601903112e-01 +5.9032136258278505e-03
5.3999999999999968e+00 +8.1521747400488405e+00 +0.0000000000000000e+00 +5.3999999159192695e+00 -3.1949441519649194e-02 -5.9243474344844926e-01 +5.9034110850039829e-03
5.4999999999999964e+00 +8.1521438918718268e+00 +0.0000000000000000e+00 +5.4999999111610860e+00 -3.1949577255058773e-02 -5.9243486285499802e-01 +5.9036100087203015e-03
5.5999999999999961e+00 +8.1521124776737093e+00 +0.0000000000000000e+00 +5.5999999062266932e+00 -3.1949725215531591e-02 -5.9243499406027544e-01 +5.9038101923405799e-03
5.6999999999999957e+00 +8.1520804974543655e+00 +0.0000000000000000e+00 +5.6999999011128875e+00 -3.1949885809130905e-02 -5.9243513688590344e-01 +5.9040114312233702e-03
5.7999999999999954e+00 +8.1520479512136585e+00 +0.0000000000000000e+00 +5.7999998958164651e+00 -3.1950059443940415e-02 -5.9243529115352911e-01 +5.9042135207218113e-03
5.8999999999999950e+00 +8.1520148389514429e+00 +0.0000000000000000e+00 +5.8999998903342217e+00 -3.1950246528065177e-02 -5.9243545668482467e-01 +5.9044162561833983e-03
5.9999999999999947e+00 +8.1519811606675621e+00 +0.0000000000000000e+00 +5.9999998846629543e+00 -3.1950447469632569e-02 -5.9243563330148985e-01 +5.9046194329497922e-03
6.0999999999999943e+00 +8.1519469163618474e+00 +0.0000000000000000e+00 +6.0999998787994585e+00 -3.1950662331089702e-02 -5.9243582083307444e-01 +5.9048228636526100e-03
6.1999999999999940e+00 +8.1519121060341213e+00 +0.0000000000000000e+00 +6.1999998727405305e+00 -3.1950889792083367e-02 -5.9243601914043909e-01 +5.9050264301033868e-03
6.2999999999999936e+00 +8.1518767296841936e+00 +0.0000000000000000e+00 +6.2999998664829659e+00 -3.1951128186563454e-02 -5.9243622809228391e-01 +5.9052300314087610e-03
6.3999999999999932e+00 +8.1518407873118690e+00 +0.0000000000000000e+00 +6.3999998600235619e+00 -3.1951375848487638e-02 -5.9243644755732405e-01 +5.9054335666748259e-03
6.4999999999999929e+00 +8.1518042789169360e+00 +0.0000000000000000e+00 +6.4999998533591139e+00 -3.1951631111821747e-02 -5.9243667740429229e-01 +5.9056369350071651e-03
6.5999999999999925e+00 +8.1517672044991780e+00 +0.0000000000000000e+00 +6.5999998464864182e+00 -3.1951892310539874e-02 -5.9243691750193694e-01 +5.9058400355108997e-03
6.6999999999999922e+00 +8.1517295640583658e+00 +0.0000000000000000e+00 +6.6999998394022704e+00 -3.1952157778624757e-02 -5.9243716771902522e-01 +5.9060427672906904e-03
6.7999999999999918e+00 +8.1516913575942631e+00 +0.0000000000000000e+00 +6.7999998321034667e+00 -3.1952425850067905e-02 -5.9243742792434206e-01 +5.9062450294507718e-03
6.8999999999999915e+00 +8.1516525851066213e+00 +0.0000000000000000e+00 +6.8999998245868044e+00 -3.1952694858869958e-02 -5.9243769798669010e-01 +5.9064467210949885e-03
6.9999999999999911e+00 +8.1516132465951827e+00 +0.0000000000000000e+00 +6.9999998168490780e+00 -3.1952963139040932e-02 -5.9243797777489304e-01 +5.9066477413268247e-03
7.0999999999999908e+00 +8.1515733420596828e+00 +0.0000000000000000e+00 +7.0999998088870848e+00 -3.1953229024600377e-02 -5.9243826715779280e-01 +5.9068479892494200e-03
7.1999999999999904e+00 +8.1515328714998461e+00 +0.0000000000000000e+00 +7.1999998006976202e+00 -3.1953490849577763e-02 -5.9243856600425260e-01 +5.9070473639656028e-03
7.2999999999999901e+00 +8.1514918349153884e+00 +0.0000000000000000e+00 +7.2999997922774797e+00 -3.1953746948012680e-02 -5.9243887418315555e-01 +5.9072457645779229e-03
7.3999999999999897e+00 +8.1514502323060167e+00 +0.0000000000000000e+00 +7.3999997836234606e+00 -3.1953995653955028e-02 -5.9243919156340730e-01 +5.9074430901886760e-03
7.4999999999999893e+00 +8.1514080636714290e+00 +0.0000000000000000e+00 +7.4999997747323581e+00 -3.1954235301465399e-02 -5.9243951801393469e-01 +5.9076392398999351e-03
7.5999999999999890e+00 +8.1513653290113144e+00 +0.0000000000000000e+00 +7.5999997656009679e+00 -3.1954464224615259e-02 -5.9243985340368743e-01 +5.9078341128135647e-03
7.6999999999999886e+00 +8.1513220283253549e+00 +0.0000000000000000e+00 +7.6999997562260871e+00 -3.1954680757487225e-02 -5.9244019760163791e-01 +5.9080276080312718e-03
7.7999999999999883e+00 +8.1512781616132219e+00 +0.0000000000000000e+00 +7.7999997466045112e+00 -3.1954883234175314e-02 -5.9244055047678279e-01 +5.9082196246546155e-03
7.8999999999999879e+00 +8.1512337288745798e+00 +0.0000000000000000e+00 +7.8999997367330357e+00 -3.1955069988785230e-02 -5.9244091189814241e-01 +5.9084100617850469e-03
7.9999999999999876e+00 +8.1511887301090855e+00 +0.0000000000000000e+00 +7.9999997266084568e+00 -3.1955239355434588e-02 -5.9244128173476174e-01 +5.9085988185239250e-03
8.0999999999999872e+00 +8.1511431653163857e+00 +0.0000000000000000e+00 +8.0999997162275719e+00 -3.1955390029451011e-02 -5.9244165984719710e-01 +5.9087858448769494e-03
8.1999999999999869e+00 +8.1510970344961216e+00 +0.0000000000000000e+00 +8.1999997055871745e+00 -3.1955522150965865e-02 -5.9244204606196149e-01 +5.9089712944709804e-03
8.2999999999999865e+00 +8.1510503376479253e+00 +0.0000000000000000e+00 +8.2999996946840628e+00 -3.1955636221294305e-02 -5.9244244019704984e-01 +5.9091553718435214e-03
8.3999999999999861e+00 +8.1510030747714222e+00 +0.0000000000000000e+00 +8.3999996835150306e+00 -3.1955732741727715e-02 -5.9244284207045206e-01 +5.9093382815381852e-03
8.4999999999999858e+00 +8.1509552458662302e+00 +0.0000000000000000e+00 +8.4999996720768749e+00 -3.1955812213532990e-02 -5.9244325150015131e-01 +5.9095202281049010e-03
8.5999999999999854e+00 +8.1509068509319587e+00 +0.0000000000000000e+00 +8.5999996603663931e+00 -3.1955875137951700e-02 -5.9244366830412543e-01 +5.9097014161001125e-03
8.6999999999999851e+00 +8.1508578899682114e+00 +0.0000000000000000e+00 +8.6999996483803788e+00 -3.1955922016199192e-02 -5.9244409230034412e-01 +5.9098820500869953e-03
8.7999999999999847e+00 +8.1508083629745851e+00 +0.0000000000000000e+00 +8.7999996361156292e+00 -3.1955953349463807e-02 -5.9244452330677011e-01 +5.9100623346356445e-03
8.8999999999999844e+00 +8.1507582699506695e+00 +0.0000000000000000e+00 +8.8999996235689398e+00 -3.1955969638906075e-02 -5.9244496114135836e-01 +5.9102424743233050e-03
8.9999999999999840e+00 +8.1507076108960472e+00 +0.0000000000000000e+00 +8.9999996107371061e+00 -3.1955971385657818e-02 -5.9244540562205639e-01 +5.9104226737345562e-03
9.0999999999999837e+00 +8.1506563858102954e+00 +0.0000000000000000e+00 +9.0999995976169252e+00 -3.1955959090821370e-02 -5.9244585656680182e-01 +5.9106031374615313e-03
9.1999999999999833e+00 +8.1506045946929859e+00 +0.0000000000000000e+00 +9.1999995842051909e+00 -3.1955933255468721e-02 -5.9244631379352419e-01 +5.9107840701041140e-03
9.2999999999999829e+00 +8.1505522375436836e+00 +0.0000000000000000e+00 +9.2999995704987004e+00 -3.1955894380640712e-02 -5.9244677712014271e-01 +5.9109656762701543e-03
9.3999999999999826e+00 +8.1504993143619462e+00 +0.0000000000000000e+00 +9.3999995564942509e+00 -3.1955842967346174e-02 -5.9244724636456747e-01 +5.9111481605756645e-03
9.4999999999999822e+00 +8.1504458251473277e+00 +0.0000000000000000e+00 +9.4999995421886361e+00 -3.1955779516561096e-02 -5.9244772134469836e-01 +5.9113317276450290e-03
9.5999999999999819e+00 +8.1503917698993753e+00 +0.0000000000000000e+00 +9.5999995275786532e+00 -3.1955704529227837e-02 -5.9244820187842384e-01 +5.9115165821112181e-03
9.6999999999999815e+00 +8.1503371486176324e+00 +0.0000000000000000e+00 +9.6999995126610958e+00 -3.1955618506254203e-02 -5.9244868778362170e-01 +5.9117029286159702e-03
9.7999999999999812e+00 +8.1502819613016371e+00 +0.0000000000000000e+00 +9.7999994974327613e+00 -3.1955521948512734e-02 -5.9244917887815751e-01 +5.9118909718100278e-03
9.8999999999999808e+00 +8.1502262079509222e+00 +0.0000000000000000e+00 +9.8999994818904469e+00 -3.1955415356839753e-02 -5.9244967497988554e-01 +5.9120809163533171e-03
9.9999999999999805e+00 +8.1501698885650136e+00 +0.0000000000000000e+00 +9.9999994660309461e+00 -3.1955299232034634e-02 -5.9245017590664772e-01 +5.9122729669151726e-03
1.0099999999999980e+01 +8.1501130031434368e+00 +0.0000000000000000e+00 +1.0099999449851055e+01 -3.1955174215491017e-02 -5.9245068159178671e-01 +5.9124672752921071e-03
1.0199999999999980e+01 +8.1500555516857087e+00 +0.0000000000000000e+00 +1.0199999433347569e+01 -3.1955041511116090e-02 -5.9245119243069222e-01 +5.9126637817544661e-03
1.0299999999999979e+01 +8.1499975341913444e+00 +0.0000000000000000e+00 +1.0299999416517286e+01 -3.1954902463454546e-02 -5.9245170893423615e-01 +5.9128623736904723e-03
1.0399999999999979e+01 +8.1499389506598501e+00 +0.0000000000000000e+00 +1.0399999399357000e+01 -3.1954758417055786e-02 -5.9245223161325511e-01 +5.9130629384896074e-03
1.0499999999999979e+01 +8.1498798010907301e+00 +0.0000000000000000e+00 +1.0499999381863507e+01 -3.1954610716474201e-02 -5.9245276097854593e-01 +5.9132653635426222e-03
1.0599999999999978e+01 +8.1498200854834799e+00 +0.0000000000000000e+00 +1.0599999364033604e+01 -3.1954460706269346e-02 -5.9245329754086695e-01 +5.9134695362415167e-03
1.0699999999999978e+01 +8.1497598038375898e+00 +0.0000000000000000e+00 +1.0699999345864084e+01 -3.1954309731006207e-02 -5.9245384181093586e-01 +5.9136753439795421e-03
1.0799999999999978e+01 +8.1496989561525393e+00 +0.0000000000000000e+00 +1.0799999327351745e+01 -3.1954159135255490e-02 -5.9245439429942970e-01 +5.9138826741511963e-03
1.0899999999999977e+01 +8.1496375424278042e+00 +0.0000000000000000e+00 +1.0899999308493383e+01 -3.1954010263593791e-02 -5.9245495551698324e-01 +5.9140914141522114e-03
1.0999999999999977e+01 +8.1495755626628501e+00 +0.0000000000000000e+00 +1.0999999289285791e+01 -3.1953864460603901e-02 -5.9245552597418782e-01 +5.9143014513795486e-03
1.1099999999999977e+01 +8.1495130168571333e+00 +0.0000000000000000e+00 +1.1099999269725766e+01 -3.1953723070875045e-02 -5.9245610618159128e-01 +5.9145126732314006e-03
1.1199999999999976e+01 +8.1494499050101030e+00 +0.0000000000000000e+00 +1.1199999249810103e+01 -3.1953587439003034e-02 -5.9245669664969547e-01 +5.9147249671071753e-03
1.1299999999999976e+01 +8.1493862271211963e+00 +0.0000000000000000e+00 +1.1299999229535601e+01 -3.1953458909590698e-02 -5.9245729788895729e-01 +5.9149382204075011e-03
1.1399999999999975e+01 +8.1493219831898394e+00 +0.0000000000000000e+00 +1.1399999208899052e+01 -3.1953338827247921e-02 -5.9245791040978568e-01 +5.9151523205342024e-03
1.1499999999999975e+01 +8.1492571732154495e+00 +0.0000000000000000e+00 +1.1499999187897252e+01 -3.1953228536592070e-02 -5.9245853472254228e-01 +5.9153671548903162e-03
1.1599999999999975e+01 +8.1491917971974335e+00 +0.0000000000000000e+00 +1.1599999166526997e+01 -3.1953129382248091e-02 -5.9245917133753900e-01 +5.9155826108800730e-03
1.1699999999999974e+01 +8.1491258551351837e+00 +0.0000000000000000e+00 +1.1699999144785084e+01 -3.1953042708848821e-02 -5.9245982076503878e-01 +5.9157985759088951e-03
1.1799999999999974e+01 +8.1490593470280839e+00 +0.0000000000000000e+00 +1.1799999122668305e+01 -3.1952969861035234e-02 -5.9246048351525182e-01 +5.9160149373833886e-03
