# field on trajectory
# s[mm] rx[mm] ry[mm] rz[mm] bx[T] by[T] bz[T]
0.0000000000000000e+00 +8.1529999999999987e+00 +0.0000000000000000e+00 +0.0000000000000000e+00 -3.2918146770876275e-02 -5.9234707646601126e-01 +5.8750484986072327e-03
1.0000000000000001e-01 +8.1529997170313955e+00 +0.0000000000000000e+00 +9.9999999999466210e-02 -3.2918301234741883e-02 -5.9234691720986166e-01 +5.8750998425167568e-03
2.0000000000000001e-01 +8.1529988681256871e+00 +0.0000000000000000e+00 +1.9999999999572954e-01 -3.2918463052331669e-02 -5.9234676939307240e-01 +5.8751515651006289e-03
3.0000000000000004e-01 +8.1529974532830138e+00 +0.0000000000000000e+00 +2.9999999998558718e-01 -3.2918632138145505e-02 -5.9234663361479978e-01 +5.8752037238469597e-03
4.0000000000000002e-01 +8.1529954725035072e+00 +0.0000000000000000e+00 +3.9999999996583629e-01 -3.2918808406677540e-02 -5.9234651047419906e-01 +5.8752563762448674e-03
5.0000000000000000e-01 +8.1529929257872826e+00 +0.0000000000000000e+00 +4.9999999993327404e-01 -3.2918991772418138e-02 -5.9234640057042098e-01 +5.8753095797844657e-03
5.9999999999999998e-01 +8.1529898131344467e+00 +0.0000000000000000e+00 +5.9999999988469754e-01 -3.2919182149856147e-02 -5.9234630450261283e-01 +5.8753633919568582e-03
6.9999999999999996e-01 +8.1529861345450900e+00 +0.0000000000000000e+00 +6.9999999981690397e-01 -3.2919379453480883e-02 -5.9234622286991334e-01 +5.8754178702541187e-03
7.9999999999999993e-01 +8.1529818900192907e+00 +0.0000000000000000e+00 +7.9999999972669056e-01 -3.2919583597784213e-02 -5.9234615627145415e-01 +5.8754730721692931e-03
8.9999999999999991e-01 +8.1529770795571128e+00 +0.0000000000000000e+00 +8.9999999961085442e-01 -3.2919794497262664e-02 -5.9234610530635556e-01 +5.8755290551963631e-03
9.9999999999999989e-01 +8.1529717031586060e+00 +0.0000000000000000e+00 +9.9999999946619267e-01 -3.2920012066419507e-02 -5.9234607057372735e-01 +5.8755858768302664e-03
1.0999999999999999e+00 +8.1529657608238022e+00 +0.0000000000000000e+00 +1.0999999992895024e+00 -3.2920236219766821e-02 -5.9234605267266494e-01 +5.8756435945668600e-03
1.2000000000000000e+00 +8.1529592525527192e+00 +0.0000000000000000e+00 +1.1999999990775809e+00 -3.2920466871827585e-02 -5.9234605220224990e-01 +5.8757022659029177e-03
1.3000000000000000e+00 +8.1529521783453589e+00 +0.0000000000000000e+00 +1.2999999988272255e+00 -3.2920703937137766e-02 -5.9234606976154547e-01 +5.8757619483361242e-03
1.4000000000000001e+00 +8.1529445382017034e+00 +0.0000000000000000e+00 +1.3999999985352332e+00 -3.2920947330248432e-02 -5.9234610594959780e-01 +5.8758226993650495e-03
1.5000000000000002e+00 +8.1529363321217190e+00 +0.0000000000000000e+00 +1.4999999981984009e+00 -3.2921196965727761e-02 -5.9234616136543261e-01 +5.8758845764891503e-03
1.6000000000000003e+00 +8.1529275601053524e+00 +0.0000000000000000e+00 +1.5999999978135260e+00 -3.2921452758163196e-02 -5.9234623660805419e-01 +5.8759476372087574e-03
1.7000000000000004e+00 +8.1529182221525307e+00 +0.0000000000000000e+00 +1.6999999973774056e+00 -3.2921714622163478e-02 -5.9234633227644262e-01 +5.8760119390250552e-03
1.8000000000000005e+00 +8.1529083182631652e+00 +0.0000000000000000e+00 +1.7999999968868370e+00 -3.2921982472360785e-02 -5.9234644896955413e-01 +5.8760775394400781e-03
1.9000000000000006e+00 +8.1528978484371422e+00 +0.0000000000000000e+00 +1.8999999963386172e+00 -3.2922256223412757e-02 -5.9234658728631762e-01 +5.8761444959566922e-03
2.0000000000000004e+00 +8.1528868126743319e+00 +0.0000000000000000e+00 +1.9999999957295433e+00 -3.2922535790004606e-02 -5.9234674782563401e-01 +5.8762128660785921e-03
2.1000000000000005e+00 +8.1528752109745799e+00 +0.0000000000000000e+00 +2.0999999950564128e+00 -3.2922820894268782e-02 -5.9234693085567947e-01 +5.8762827144128640e-03
2.2000000000000006e+00 +8.1528630433377138e+00 +0.0000000000000000e+00 +2.1999999943160224e+00 -3.2923110488027173e-02 -5.9234713532183159e-01 +5.8763541339770858e-03
2.3000000000000007e+00 +8.1528503097635365e+00 +0.0000000000000000e+00 +2.2999999935051694e+00 -3.2923403330517444e-02 -5.9234735983877040e-01 +5.8764272248903911e-03
2.4000000000000008e+00 +8.1528370102518348e+00 +0.0000000000000000e+00 +2.3999999926206508e+00 -3.2923698180970393e-02 -5.9234760302117817e-01 +5.8765020872705090e-03
2.5000000000000009e+00 +8.1528231448023778e+00 +0.0000000000000000e+00 +2.4999999916592639e+00 -3.2923993798607838e-02 -5.9234786348374024e-01 +5.8765788212335459e-03
2.6000000000000010e+00 +8.1528087134149150e+00 +0.0000000000000000e+00 +2.5999999906178055e+00 -3.2924288942640413e-02 -5.9234813984114976e-01 +5.8766575268937391e-03
2.7000000000000011e+00 +8.1527937160891852e+00 +0.0000000000000000e+00 +2.6999999894930733e+00 -3.2924582372265324e-02 -5.9234843070810594e-01 +5.8767383043632415e-03
2.8000000000000012e+00 +8.1527781528249097e+00 +0.0000000000000000e+00 +2.7999999882818640e+00 -3.2924872846664226e-02 -5.9234873469931870e-01 +5.8768212537518780e-03
2.9000000000000012e+00 +8.1527620236217988e+00 +0.0000000000000000e+00 +2.8999999869809745e+00 -3.2925159125001012e-02 -5.9234905042951014e-01 +5.8769064751669356e-03
3.0000000000000013e+00 +8.1527453284795524e+00 +0.0000000000000000e+00 +2.9999999855872019e+00 -3.2925439966419653e-02 -5.9234937651341601e-01 +5.8769940687129121e-03
3.1000000000000014e+00 +8.1527280673978595e+00 +0.0000000000000000e+00 +3.0999999840973436e+00 -3.2925714130041916e-02 -5.9234971156578820e-01 +5.8770841344912960e-03
3.2000000000000015e+00 +8.1527102403764005e+00 +0.0000000000000000e+00 +3.1999999825081966e+00 -3.2925980374965309e-02 -5.9235005420139653e-01 +5.8771767726003461e-03
3.3000000000000016e+00 +8.1526918474148484e+00 +0.0000000000000000e+00 +3.2999999808165579e+00 -3.2926237460260785e-02 -5.9235040303503117e-01 +5.8772720831348447e-03
3.4000000000000017e+00 +8.1526728885128694e+00 +0.0000000000000000e+00 +3.3999999790192246e+00 -3.2926484144970597e-02 -5.9235075668150416e-01 +5.8773701661858722e-03
3.5000000000000018e+00 +8.1526533636701277e+00 +0.0000000000000000e+00 +3.4999999771129935e+00 -3.2926719188106128e-02 -5.9235111375565175e-01 +5.8774711218405919e-03
3.6000000000000019e+00 +8.1526332728862823e+00 +0.0000000000000000e+00 +3.5999999750946619e+00 -3.2926941348645690e-02 -5.9235147287233580e-01 +5.8775750501820004e-03
3.7000000000000020e+00 +8.1526126161609920e+00 +0.0000000000000000e+00 +3.6999999729610269e+00 -3.2927149385532310e-02 -5.9235183264644697e-01 +5.8776820512887037e-03
3.8000000000000020e+00 +8.1525913934939140e+00 +0.0000000000000000e+00 +3.7999999707088854e+00 -3.2927342057671567e-02 -5.9235219169290554e-01 +5.8777922252347013e-03
3.9000000000000021e+00 +8.1525696048847038e+00 +0.0000000000000000e+00 +3.8999999683350346e+00 -3.2927518123929453e-02 -5.9235254862666387e-01 +5.8779056720891327e-03
4.0000000000000018e+00 +8.1525472503330239e+00 +0.0000000000000000e+00 +3.9999999658362713e+00 -3.2927676343130076e-02 -5.9235290206270885e-01 +5.8780224919160635e-03
4.1000000000000014e+00 +8.1525243298385348e+00 +0.0000000000000000e+00 +4.0999999632093926e+00 -3.2927815920159996e-02 -5.9235325084706791e-01 +5.8781427223000273e-03
4.2000000000000011e+00 +8.1525008434009063e+00 +0.0000000000000000e+00 +4.1999999604511951e+00 -3.2927937844307503e-02 -5.9235359474980487e-01 +5.8782661509257719e-03
4.3000000000000007e+00 +8.1524767910198097e+00 +0.0000000000000000e+00 +4.2999999575584766e+00 -3.2928043550977538e-02 -5.9235393377197532e-01 +5.8783925030061511e-03
4.4000000000000004e+00 +8.1524521726949217e+00 +0.0000000000000000e+00 +4.3999999545280337e+00 -3.2928134475590808e-02 -5.9235426791461687e-01 +5.8785215037574917e-03
4.5000000000000000e+00 +8.1524269884259244e+00 +0.0000000000000000e+00 +4.4999999513566635e+00 -3.2928212053585183e-02 -5.9235459717874583e-01 +5.8786528783998605e-03
4.5999999999999996e+00 +8.1524012382125033e+00 +0.0000000000000000e+00 +4.5999999480411624e+00 -3.2928277720417246e-02 -5.9235492156535741e-01 +5.8787863521573870e-03
4.6999999999999993e+00 +8.1523749220543493e+00 +0.0000000000000000e+00 +4.6999999445783276e+00 -3.2928332911563794e-02 -5.9235524107542292e-01 +5.8789216502585550e-03
4.7999999999999989e+00 +8.1523480399511570e+00 +0.0000000000000000e+00 +4.7999999409649563e+00 -3.2928379062523321e-02 -5.9235555570989074e-01 +5.8790584979364858e-03
4.8999999999999986e+00 +8.1523205919026278e+00 +0.0000000000000000e+00 +4.8999999371978458e+00 -3.2928417608817470e-02 -5.9235586546968244e-01 +5.8791966204292398e-03
4.9999999999999982e+00 +8.1522925779084670e+00 +0.0000000000000000e+00 +4.9999999332737932e+00 -3.2928449985992619e-02 -5.9235617035569299e-01 +5.8793357429801256e-03
5.0999999999999979e+00 +8.1522639979683849e+00 +0.0000000000000000e+00 +5.0999999291895950e+00 -3.2928477629621256e-02 -5.9235647036878802e-01 +5.8794755908379718e-03
5.1999999999999975e+00 +8.1522348520820938e+00 +0.0000000000000000e+00 +5.1999999249420483e+00 -3.2928501975303510e-02 -5.9235676550980487e-01 +5.8796158892574476e-03
5.2999999999999972e+00 +8.1522051402493148e+00 +0.0000000000000000e+00 +5.2999999205279495e+00 -3.2928524458668729e-02 -5.9235705577954767e-01 +5.8797563634993399e-03
5.3999999999999968e+00 +8.1521748624697690e+00 +0.0000000000000000e+00 +5.3999999159440959e+00 -3.2928546515376800e-02 -5.9235734117879013e-01 +5.8798967388308636e-03
5.4999999999999964e+00 +8.1521440187431864e+00 +0.0000000000000000e+00 +5.4999999111872846e+00 -3.2928569581119810e-02 -5.9235762170827000e-01 +5.8800367405259461e-03
5.5999999999999961e+00 +8.1521126090693006e+00 +0.0000000000000000e+00 +5.5999999062543129e+00 -3.2928595091623394e-02 -5.9235789736869071e-01 +5.8801760938655360e-03
5.6999999999999957e+00 +8.1520806334478468e+00 +0.0000000000000000e+00 +5.6999999011419771e+00 -3.2928624482648279e-02 -5.9235816816071907e-01 +5.8803145241378852e-03
5.7999999999999954e+00 +8.1520480918785694e+00 +0.0000000000000000e+00 +5.7999998958470744e+00 -3.2928659189991834e-02 -5.9235843408498401e-01 +5.8804517566388645e-03
5.8999999999999950e+00 +8.1520149843612142e+00 +0.0000000000000000e+00 +5.8999998903664022e+00 -3.2928700649489419e-02 -5.9235869514207418e-01 +5.8805875166722324e-03
5.9999999999999947e+00 +8.1519813108955343e+00 +0.0000000000000000e+00 +5.9999998846967575e+00 -3.2928750297016002e-02 -5.9235895133253802e-01 +5.8807215295499614e-03
6.0999999999999943e+00 +8.1519470714812847e+00 +0.0000000000000000e+00 +6.0999998788349368e+00 -3.2928809274697463e-02 -5.9235920266865005e-01 +5.8808535871936445e-03
6.1999999999999940e+00 +8.1519122661182273e+00 +0.0000000000000000e+00 +6.1999998727777363e+00 -3.2928877549522201e-02 -5.9235944920973482e-01 +5.8809837479343631e-03
6.2999999999999936e+00 +8.1518768948061275e+00 +0.0000000000000000e+00 +6.2999998665219543e+00 -3.2928954794686521e-02 -5.9235969102689601e-01 +5.8811121367005770e-03
6.3999999999999932e+00 +8.1518409575447546e+00 +0.0000000000000000e+00 +6.3999998600643870e+00 -3.2929040683382545e-02 -5.9235992819125516e-01 +5.8812388784151206e-03
6.4999999999999929e+00 +8.1518044543338828e+00 +0.0000000000000000e+00 +6.4999998534018317e+00 -3.2929134888797722e-02 -5.9236016077395270e-01 +5.8813640979948865e-03
6.5999999999999925e+00 +8.1517673851732919e+00 +0.0000000000000000e+00 +6.5999998465310847e+00 -3.2929237084114465e-02 -5.9236038884614783e-01 +5.8814879203505730e-03
6.6999999999999922e+00 +8.1517297500627652e+00 +0.0000000000000000e+00 +6.6999998394489433e+00 -3.2929346942509749e-02 -5.9236061247902094e-01 +5.8816104703863885e-03
6.7999999999999918e+00 +8.1516915490020896e+00 +0.0000000000000000e+00 +6.7999998321522046e+00 -3.2929464137154571e-02 -5.9236083174377430e-01 +5.8817318729997674e-03
6.8999999999999915e+00 +8.1516527819910571e+00 +0.0000000000000000e+00 +6.8999998246376650e+00 -3.2929588341213734e-02 -5.9236104671163270e-01 +5.8818522530811046e-03
6.9999999999999911e+00 +8.1516134490294654e+00 +0.0000000000000000e+00 +6.9999998169021218e+00 -3.2929719227845267e-02 -5.9236125745384482e-01 +5.8819717355134537e-03
7.0999999999999908e+00 +8.1515735501171118e+00 +0.0000000000000000e+00 +7.0999998089423721e+00 -3.2929856470200081e-02 -5.9236146404168433e-01 +5.8820904451722554e-03
7.1999999999999904e+00 +8.1515330852538010e+00 +0.0000000000000000e+00 +7.1999998007552124e+00 -3.2929999741421558e-02 -5.9236166654645162e-01 +5.8822085069250617e-03
7.2999999999999901e+00 +8.1514920544393412e+00 +0.0000000000000000e+00 +7.2999997923374398e+00 -3.2930148714645106e-02 -5.9236186503947352e-01 +5.8823260456312412e-03
7.3999999999999897e+00 +8.1514504576735440e+00 +0.0000000000000000e+00 +7.3999997836858515e+00 -3.2930303062997789e-02 -5.9236205959210519e-01 +5.8824431861417108e-03
7.4999999999999893e+00 +8.1514082949562248e+00 +0.0000000000000000e+00 +7.4999997747972440e+00 -3.2930462459597840e-02 -5.9236225027573097e-01 +5.8825600532986435e-03
7.5999999999999890e+00 +8.1513655662872022e+00 +0.0000000000000000e+00 +7.5999997656684144e+00 -3.2930626577554321e-02 -5.9236243716176595e-01 +5.8826767719351927e-03
7.6999999999999886e+00 +8.1513222716663005e+00 +0.0000000000000000e+00 +7.6999997562961591e+00 -3.2930795089966741e-02 -5.9236262032165643e-01 +5.8827934668752128e-03
7.7999999999999883e+00 +8.1512784110933438e+00 +0.0000000000000000e+00 +7.7999997466772761e+00 -3.2930967669924538e-02 -5.9236279982688145e-01 +5.8829102629329643e-03
7.8999999999999879e+00 +8.1512339845681634e+00 +0.0000000000000000e+00 +7.8999997368085610e+00 -3.2931143990506714e-02 -5.9236297574895336e-01 +5.8830272849128536e-03
7.9999999999999876e+00 +8.1511889920905940e+00 +0.0000000000000000e+00 +7.9999997266868119e+00 -3.2931323724781456e-02 -5.9236314815941904e-01 +5.8831446576091328e-03
8.0999999999999872e+00 +8.1511434336604704e+00 +0.0000000000000000e+00 +8.0999997163088260e+00 -3.2931506535425273e-02 -5.9236331741161719e-01 +5.8832624802730342e-03
8.1999999999999869e+00 +8.1510973092776329e+00 +0.0000000000000000e+00 +8.1999997056713987e+00 -3.2931692043578091e-02 -5.9236348498595892e-01 +5.8833807500200510e-03
8.2999999999999865e+00 +8.1510506189419214e+00 +0.0000000000000000e+00 +8.2999996947713282e+00 -3.2931879859979953e-02 -5.9236365264465740e-01 +5.8834994384390051e-03
8.3999999999999861e+00 +8.1510033626531779e+00 +0.0000000000000000e+00 +8.3999996836054098e+00 -3.2932069595350125e-02 -5.9236382214996897e-01 +5.8836185171268910e-03
8.4999999999999858e+00 +8.1509555404112426e+00 +0.0000000000000000e+00 +8.4999996721704409e+00 -3.2932260860386663e-02 -5.9236399526419703e-01 +5.8837379576891597e-03
8.5999999999999854e+00 +8.1509071522159520e+00 +0.0000000000000000e+00 +8.5999996604632187e+00 -3.2932453265765597e-02 -5.9236417374968908e-01 +5.8838577317400047e-03
8.6999999999999851e+00 +8.1508581980671355e+00 +0.0000000000000000e+00 +8.6999996484805404e+00 -3.2932646422140367e-02 -5.9236435936884124e-01 +5.8839778109026596e-03
8.7999999999999847e+00 +8.1508086779646174e+00 +0.0000000000000000e+00 +8.7999996362192032e+00 -3.2932839940141137e-02 -5.9236455388409737e-01 +5.8840981668096806e-03
8.8999999999999844e+00 +8.1507585919082128e+00 +0.0000000000000000e+00 +8.8999996236760044e+00 -3.2933033430374126e-02 -5.9236475905795316e-01 +5.8842187711032438e-03
8.9999999999999840e+00 +8.1507079398977282e+00 +0.0000000000000000e+00 +8.9999996108477394e+00 -3.2933226503420961e-02 -5.9236497665295285e-01 +5.8843395954354290e-03
9.0999999999999837e+00 +8.1506567219329575e+00 +0.0000000000000000e+00 +9.0999995977312054e+00 -3.2933418769838040e-02 -5.9236520843169471e-01 +5.8844606114685219e-03
9.1999999999999833e+00 +8.1506049380136805e+00 +0.0000000000000000e+00 +9.1999995843231996e+00 -3.2933609840155850e-02 -5.9236545615683067e-01 +5.8845817908752878e-03
9.2999999999999829e+00 +8.1505525881396608e+00 +0.0000000000000000e+00 +9.2999995706205194e+00 -3.2933799324878325e-02 -5.9236572159106693e-01 +5.8847031053392710e-03
9.3999999999999826e+00 +8.1504996723106480e+00 +0.0000000000000000e+00 +9.3999995566199601e+00 -3.2933986834482197e-02 -5.9236600649716598e-01 +5.8848245265550880e-03
9.4999999999999822e+00 +8.1504461905263703e+00 +0.0000000000000000e+00 +9.4999995423183190e+00 -3.2934171979416282e-02 -5.9236631263794715e-01 +5.8849460262287096e-03
9.5999999999999819e+00 +8.1503921427865365e+00 +0.0000000000000000e+00 +9.5999995277123933e+00 -3.2934354370100977e-02 -5.9236664177628895e-01 +5.8850675760777574e-03
9.6999999999999815e+00 +8.1503375290908355e+00 +0.0000000000000000e+00 +9.6999995127989802e+00 -3.2934533616927365e-02 -5.9236699567512918e-01 +5.8851891478317883e-03
9.7999999999999812e+00 +8.1502823494389283e+00 +0.0000000000000000e+00 +9.7999994975748752e+00 -3.2934709330256801e-02 -5.9236737609746681e-01 +5.8853107132325983e-03
9.8999999999999808e+00 +8.1502266038304558e+00 +0.0000000000000000e+00 +9.8999994820368755e+00 -3.2934881120420097e-02 -5.9236778480636287e-01 +5.8854322440344857e-03
9.9999999999999805e+00 +8.1501702922650274e+00 +0.0000000000000000e+00 +9.9999994661817784e+00 -3.2935048597716919e-02 -5.9236822356494168e-01 +5.8855537120045716e-03
1.0099999999999980e+01 +8.1501134147422256e+00 +0.0000000000000000e+00 +1.0099999450006381e+01 -3.2935211453593030e-02 -5.9236869349892451e-01 +5.8856751026330981e-03
1.0199999999999980e+01 +8.1500559712616045e+00 +0.0000000000000000e+00 +1.0199999433507479e+01 -3.2935369704201307e-02 -5.9236919318413284e-01 +5.8857964562559510e-03
1.0299999999999979e+01 +8.1499979618226863e+00 +0.0000000000000000e+00 +1.0299999416681869e+01 -3.2935523446905951e-02 -5.9236972055882797e-01 +5.8859178269089112e-03
1.0399999999999979e+01 +8.1499393864249718e+00 +0.0000000000000000e+00 +1.0399999399526347e+01 -3.2935672779108631e-02 -5.9237027356118110e-01 +5.8860392686146843e-03
1.0499999999999979e+01 +8.1498802450679335e+00 +0.0000000000000000e+00 +1.0499999382037712e+01 -3.2935817798249549e-02 -5.9237085012927460e-01 +5.8861608353825501e-03
1.0599999999999978e+01 +8.1498205377510224e+00 +0.0000000000000000e+00 +1.0599999364212758e+01 -3.2935958601808445e-02 -5.9237144820109655e-01 +5.8862825812079902e-03
1.0699999999999978e+01 +8.1497602644736702e+00 +0.0000000000000000e+00 +1.0699999346048283e+01 -3.2936095287305706e-02 -5.9237206571453993e-01 +5.8864045600723561e-03
1.0799999999999978e+01 +8.1496994252352888e+00 +0.0000000000000000e+00 +1.0799999327541084e+01 -3.2936227952303311e-02 -5.9237270060739977e-01 +5.8865268259424945e-03
1.0899999999999977e+01 +8.1496380200352725e+00 +0.0000000000000000e+00 +1.0899999308687956e+01 -3.2936356694405963e-02 -5.9237335081736986e-01 +5.8866494327703932e-03
1.0999999999999977e+01 +8.1495760488730031e+00 +0.0000000000000000e+00 +1.0999999289485697e+01 -3.2936481611262024e-02 -5.9237401428204173e-01 +5.8867724344928308e-03
1.1099999999999977e+01 +8.1495135117478483e+00 +0.0000000000000000e+00 +1.1099999269931102e+01 -3.2936602800564638e-02 -5.9237468893889988e-01 +5.8868958850310125e-03
1.1199999999999976e+01 +8.1494504086591668e+00 +0.0000000000000000e+00 +1.1199999250020968e+01 -3.2936720360052699e-02 -5.9237537272532204e-01 +5.8870198382902188e-03
1.1299999999999976e+01 +8.1493867396063067e+00 +0.0000000000000000e+00 +1.1299999229752091e+01 -3.2936834387511944e-02 -5.9237606357857464e-01 +5.8871443481594418e-03
1.1399999999999975e+01 +8.1493225045886106e+00 +0.0000000000000000e+00 +1.1399999209121267e+01 -3.2936944980775928e-02 -5.9237675943581070e-01 +5.8872694685110317e-03
1.1499999999999975e+01 +8.1492577036054161e+00 +0.0000000000000000e+00 +1.1499999188125294e+01 -3.2937052237727138e-02 -5.9237745823406840e-01 +5.8873952532003436e-03
1.1599999999999975e+01 +8.1491923366560570e+00 +0.0000000000000000e+00 +1.1599999166760968e+01 -3.2937156256297929e-02 -5.9237815791026671e-01 +5.8875217560653646e-03
1.1699999999999974e+01 +8.1491264037398672e+00 +0.0000000000000000e+00 +1.1699999145025085e+01 -3.2937257134471626e-02 -5.9237885640120436e-01 +5.8876490309263752e-03
1.1799999999999974e+01 +8.1490599048561823e+00 +0.0000000000000000e+00 +1.1799999122914441e+01 -3.2937354970283578e-02 -5.9237955164355693e-01 +5.8877771315855795e-03
