# field on trajectory
# s[mm] rx[mm] ry[mm] rz[mm] bx[T] by[T] bz[T]
-0.0000000000000000e+00 +8.1530000000000094e+00 +0.0000000000000000e+00 -0.0000000000000000e+00 -3.1136661514875038e-02 -5.9270291295342681e-01 +5.8420791616548302e-03
-1.0000000000000001e-01 +8.1529997159377707e+00 +0.0000000000000000e+00 -1.0008006405070299e-01 -3.1136597958107051e-02 -5.9270303724965834e-01 +5.8420226517255361e-03
-2.0000000000000001e-01 +8.1529988637557800e+00 +0.0000000000000000e+00 -2.0016012809818201e-01 -3.1136540212068055e-02 -5.9270318574898095e-01 +5.8419661457247887e-03
-2.9999999999999999e-01 +8.1529974434524792e+00 +0.0000000000000000e+00 -3.0024019213920999e-01 -3.1136487838795680e-02 -5.9270335725013301e-01 +5.8419098797201190e-03
-4.0000000000000002e-01 +8.1529954550242092e+00 +0.0000000000000000e+00 -4.0032025617056399e-01 -3.1136440400324272e-02 -5.9270355055186952e-01 +5.8418540897790597e-03
-5.0000000000000000e-01 +8.1529928984782600e+00 +0.0000000000000000e+00 -5.0040032018901703e-01 -3.1136397458680364e-02 -5.9270376445285766e-01 +5.8417990119681322e-03
-5.9999999999999998e-01 +8.1529897738146193e+00 +0.0000000000000000e+00 -6.0048038419134497e-01 -3.1136358575891823e-02 -5.9270399775182514e-01 +5.8417448823543565e-03
-6.9999999999999996e-01 +8.1529860810223909e+00 +0.0000000000000000e+00 -7.0056044817432195e-01 -3.1136323313990546e-02 -5.9270424924759113e-01 +5.8416919370056089e-03
-8.0000000000000004e-01 +8.1529818201124709e+00 +0.0000000000000000e+00 -8.0064051213472498e-01 -3.1136291234999430e-02 -5.9270451773880140e-01 +5.8416404119879337e-03
-9.0000000000000002e-01 +8.1529769910812302e+00 +0.0000000000000000e+00 -9.0072057606932698e-01 -3.1136261900949366e-02 -5.9270480202422304e-01 +5.8415905433685895e-03
-1.0000000000000000e+00 +8.1529715939250291e+00 +0.0000000000000000e+00 -1.0008006399749001e+00 -3.1136234873874000e-02 -5.9270510090262973e-01 +5.8415425672148844e-03
-1.1000000000000001e+00 +8.1529656286511507e+00 +0.0000000000000000e+00 -1.1008807038482300e+00 -3.1136209715806332e-02 -5.9270541317271108e-01 +5.8414967195933015e-03
-1.2000000000000000e+00 +8.1529590952522994e+00 +0.0000000000000000e+00 -1.2009607676860801e+00 -3.1136185988790765e-02 -5.9270573763328305e-01 +5.8414532365716372e-03
-1.3000000000000000e+00 +8.1529519937357708e+00 +0.0000000000000000e+00 -1.3010408314852300e+00 -3.1136163254871774e-02 -5.9270607308305012e-01 +5.8414123542166315e-03
-1.3999999999999999e+00 +8.1529443240979198e+00 +0.0000000000000000e+00 -1.4011208952424601e+00 -3.1136141076105992e-02 -5.9270641832081383e-01 +5.8413743085961077e-03
-1.5000000000000000e+00 +8.1529360863350995e+00 +0.0000000000000000e+00 -1.5012009589545301e+00 -3.1136119014558813e-02 -5.9270677214538592e-01 +5.8413393357781033e-03
-1.6000000000000001e+00 +8.1529272804509691e+00 +0.0000000000000000e+00 -1.6012810226182299e+00 -3.1136096632302285e-02 -5.9270713335552860e-01 +5.8413076718303054e-03
-1.7000000000000000e+00 +8.1529179064491508e+00 +0.0000000000000000e+00 -1.7013610862303301e+00 -3.1136073491419492e-02 -5.9270750075001533e-01 +5.8412795528206699e-03
-1.8000000000000000e+00 +8.1529079643223703e+00 +0.0000000000000000e+00 -1.8014411497875999e+00 -3.1136049154010390e-02 -5.9270787312772033e-01 +5.8412552148183828e-03
-1.8999999999999999e+00 +8.1528974540779000e+00 +0.0000000000000000e+00 -1.9015212132868200e+00 -3.1136023182182056e-02 -5.9270824928741217e-01 +5.8412348938917721e-03
-2.0000000000000000e+00 +8.1528863757084800e+00 +0.0000000000000000e+00 -2.0016012767247702e+00 -3.1135995138062419e-02 -5.9270862802799196e-01 +5.8412188261105485e-03
-2.1000000000000001e+00 +8.1528747292177304e+00 +0.0000000000000000e+00 -2.1016813400982199e+00 -3.1135964601944895e-02 -5.9270900828110484e-01 +5.8412071976791623e-03
-2.2000000000000002e+00 +8.1528625146056601e+00 +0.0000000000000000e+00 -2.2017614034039301e+00 -3.1135931223351433e-02 -5.9270938948481933e-01 +5.8412000046886205e-03
-2.2999999999999998e+00 +8.1528497318759001e+00 +0.0000000000000000e+00 -2.3018414666387002e+00 -3.1135894668297269e-02 -5.9270977119783841e-01 +5.8411971979289799e-03
-2.3999999999999999e+00 +8.1528363810211903e+00 +0.0000000000000000e+00 -2.4019215297993002e+00 -3.1135854602802427e-02 -5.9271015297895147e-01 +5.8411987281912145e-03
-2.5000000000000000e+00 +8.1528224620451493e+00 +0.0000000000000000e+00 -2.5020015928824901e+00 -3.1135810692881613e-02 -5.9271053438685872e-01 +5.8412045462653828e-03
-2.6000000000000001e+00 +8.1528079749477893e+00 +0.0000000000000000e+00 -2.6020816558850601e+00 -3.1135762604549692e-02 -5.9271091498028694e-01 +5.8412146029418336e-03
-2.7000000000000002e+00 +8.1527929197291105e+00 +0.0000000000000000e+00 -2.7021617188037701e+00 -3.1135710003819393e-02 -5.9271129431795933e-01 +5.8412288490108663e-03
-2.7999999999999998e+00 +8.1527772963891003e+00 +0.0000000000000000e+00 -2.8022417816354102e+00 -3.1135652556700623e-02 -5.9271167195859453e-01 +5.8412472352627320e-03
-2.8999999999999999e+00 +8.1527611049277802e+00 +0.0000000000000000e+00 -2.9023218443767500e+00 -3.1135589929199656e-02 -5.9271204746090655e-01 +5.8412697124876050e-03
-3.0000000000000000e+00 +8.1527443453451305e+00 +0.0000000000000000e+00 -3.0024019070245598e+00 -3.1135521787318425e-02 -5.9271242038360183e-01 +5.8412962314755689e-03
-3.1000000000000001e+00 +8.1527270176411495e+00 +0.0000000000000000e+00 -3.1024819695756198e+00 -3.1135447797053812e-02 -5.9271279028538071e-01 +5.8413267430166014e-03
-3.2000000000000002e+00 +8.1527091218158603e+00 +0.0000000000000000e+00 -3.2025620320267101e+00 -3.1135367624396840e-02 -5.9271315672493463e-01 +5.8413611979005534e-03
-3.2999999999999998e+00 +8.1526906578692397e+00 +0.0000000000000000e+00 -3.3026420943745900e+00 -3.1135280935332025e-02 -5.9271351926094640e-01 +5.8413995469171389e-03
-3.3999999999999999e+00 +8.1526716258013003e+00 +0.0000000000000000e+00 -3.4027221566160502e+00 -3.1135187395836560e-02 -5.9271387745208870e-01 +5.8414417408559072e-03
-3.5000000000000000e+00 +8.1526520256120403e+00 +0.0000000000000000e+00 -3.5028022187478500e+00 -3.1135086671879635e-02 -5.9271423085702324e-01 +5.8414877305062391e-03
-3.6000000000000001e+00 +8.1526318572978198e+00 +0.0000000000000000e+00 -3.6028822807667802e+00 -3.1134978429423213e-02 -5.9271457903442937e-01 +5.8415374666576118e-03
-3.7000000000000002e+00 +8.1526111208659096e+00 +0.0000000000000000e+00 -3.7029623426696099e+00 -3.1134862334415085e-02 -5.9271492154288563e-01 +5.8415909000984010e-03
-3.7999999999999998e+00 +8.1525898163126804e+00 +0.0000000000000000e+00 -3.8030424044531101e+00 -3.1134738052797477e-02 -5.9271525794104418e-01 +5.8416479816176450e-03
-3.8999999999999999e+00 +8.1525679436344909e+00 +0.0000000000000000e+00 -3.9031224661140600e+00 -3.1134605250501643e-02 -5.9271558778754374e-01 +5.8417086620041452e-03
-4.0000000000000000e+00 +8.1525455028386205e+00 +0.0000000000000000e+00 -4.0032025276492398e+00 -3.1134463593448163e-02 -5.9271591064092444e-01 +5.8417728920447812e-03
-4.0999999999999996e+00 +8.1525224939177896e+00 +0.0000000000000000e+00 -4.1032825890554099e+00 -3.1134312938764144e-02 -5.9271622625678344e-01 +5.8418405974227892e-03
-4.2000000000000002e+00 +8.1524989168792708e+00 +0.0000000000000000e+00 -4.2033626503293604e+00 -3.1134153838480050e-02 -5.9271653510637734e-01 +5.8419116125833321e-03
-4.2999999999999998e+00 +8.1524747717157897e+00 +0.0000000000000000e+00 -4.3034427114678504e+00 -3.1133987002451395e-02 -5.9271683782364082e-01 +5.8419857512524423e-03
-4.4000000000000004e+00 +8.1524500584346207e+00 +0.0000000000000000e+00 -4.4035227724676700e+00 -3.1133813140529498e-02 -5.9271713504239409e-01 +5.8420628271547512e-03
-4.5000000000000000e+00 +8.1524247770285001e+00 +0.0000000000000000e+00 -4.5036028333255800e+00 -3.1133632962574286e-02 -5.9271742739658018e-01 +5.8421426540158777e-03
-4.5999999999999996e+00 +8.1523989275046898e+00 +0.0000000000000000e+00 -4.6036828940383696e+00 -3.1133447178441871e-02 -5.9271771552002828e-01 +5.8422250455600049e-03
-4.7000000000000002e+00 +8.1523725098559208e+00 +0.0000000000000000e+00 -4.7037629546028104e+00 -3.1133256497997298e-02 -5.9271800004669040e-01 +5.8423098155122970e-03
-4.7999999999999998e+00 +8.1523455240894709e+00 +0.0000000000000000e+00 -4.8038430150156701e+00 -3.1133061631102223e-02 -5.9271828161040629e-01 +5.8423967775964643e-03
-4.9000000000000004e+00 +8.1523179701980606e+00 +0.0000000000000000e+00 -4.9039230752737302e+00 -3.1132863287627655e-02 -5.9271856084513996e-01 +5.8424857455371794e-03
-5.0000000000000000e+00 +8.1522898481889605e+00 +0.0000000000000000e+00 -5.0040031353737602e+00 -3.1132662177441494e-02 -5.9271883838474193e-01 +5.8425765330576383e-03
-5.0999999999999996e+00 +8.1522611580549000e+00 +0.0000000000000000e+00 -5.1040831953125396e+00 -3.1132459010421415e-02 -5.9271911486318862e-01 +5.8426689538819731e-03
-5.2000000000000002e+00 +8.1522318997995207e+00 +0.0000000000000000e+00 -5.2041632550868497e+00 -3.1132254496443957e-02 -5.9271939091437409e-01 +5.8427628217331317e-03
-5.2999999999999998e+00 +8.1522020734228100e+00 +0.0000000000000000e+00 -5.3042433146934496e+00 -3.1132049345391051e-02 -5.9271966717222901e-01 +5.8428579503340770e-03
-5.4000000000000004e+00 +8.1521716789247893e+00 +0.0000000000000000e+00 -5.4043233741291203e+00 -3.1131844267148594e-02 -5.9271994427069141e-01 +5.8429541534074725e-03
-5.5000000000000000e+00 +8.1521407163090807e+00 +0.0000000000000000e+00 -5.5044034333906504e+00 -3.1131639971605132e-02 -5.9272022284367820e-01 +5.8430512446753652e-03
-5.5999999999999996e+00 +8.1521091855684098e+00 +0.0000000000000000e+00 -5.6044834924747899e+00 -3.1131437168658255e-02 -5.9272050352520245e-01 +5.8431490378604012e-03
-5.7000000000000002e+00 +8.1520770867064094e+00 +0.0000000000000000e+00 -5.7045635513783299e+00 -3.1131236568205396e-02 -5.9272078694919772e-01 +5.8432473466839838e-03
-5.7999999999999998e+00 +8.1520444197231008e+00 +0.0000000000000000e+00 -5.8046436100980499e+00 -3.1131038880150268e-02 -5.9272107374963512e-01 +5.8433459848674877e-03
-5.9000000000000004e+00 +8.1520111846184609e+00 +0.0000000000000000e+00 -5.9047236686307096e+00 -3.1130844814401544e-02 -5.9272136456049607e-01 +5.8434447661319501e-03
-5.9999999999999902e+00 +8.1519773813925003e+00 +0.0000000000000000e+00 -6.0048037269731003e+00 -3.1130655080857529e-02 -5.9272166001576509e-01 +5.8435435042018587e-03
-6.0999999999999899e+00 +8.1519430100452208e+00 +0.0000000000000000e+00 -6.1048837851219799e+00 -3.1130470228731340e-02 -5.9272196068629457e-01 +5.8436420524622520e-03
-6.1999999999999904e+00 +8.1519080705766100e+00 +0.0000000000000000e+00 -6.2049638430741396e+00 -3.1130290250474778e-02 -5.9272226692416785e-01 +5.8437404017143927e-03
-6.2999999999999901e+00 +8.1518725629866804e+00 +0.0000000000000000e+00 -6.3050439008263499e+00 -3.1130115018024443e-02 -5.9272257903410452e-01 +5.8438385724998484e-03
-6.3999999999999897e+00 +8.1518364872754301e+00 +0.0000000000000000e+00 -6.4051239583753699e+00 -3.1129944403299626e-02 -5.9272289732081185e-01 +5.8439365853591657e-03
-6.4999999999999902e+00 +8.1517998434428591e+00 +0.0000000000000000e+00 -6.5052040157180002e+00 -3.1129778278201507e-02 -5.9272322208897976e-01 +5.8440344608318038e-03
-6.5999999999999899e+00 +8.1517626314889604e+00 +0.0000000000000000e+00 -6.6052840728510001e+00 -3.1129616514612508e-02 -5.9272355364328333e-01 +5.8441322194561227e-03
-6.6999999999999904e+00 +8.1517248514137499e+00 +0.0000000000000000e+00 -6.7053641297711399e+00 -3.1129458984395567e-02 -5.9272389228838085e-01 +5.8442298817693384e-03
-6.7999999999999901e+00 +8.1516865032135701e+00 +0.0000000000000000e+00 -6.8054441864752100e+00 -3.1129305559395030e-02 -5.9272423832894250e-01 +5.8443274683077960e-03
-6.8999999999999897e+00 +8.1516475868957095e+00 +0.0000000000000000e+00 -6.9055242429599701e+00 -3.1129156111429607e-02 -5.9272459206953187e-01 +5.8444249996057228e-03
-6.9999999999999902e+00 +8.1516081024565192e+00 +0.0000000000000000e+00 -7.0056042992222096e+00 -3.1129010512301183e-02 -5.9272495381478385e-01 +5.8445224961970067e-03
-7.0999999999999899e+00 +8.1515680498960101e+00 +0.0000000000000000e+00 -7.1056843552586999e+00 -3.1128868633787762e-02 -5.9272532386928323e-01 +5.8446199786139586e-03
-7.1999999999999904e+00 +8.1515274292141804e+00 +0.0000000000000000e+00 -7.2057644110662000e+00 -3.1128730347644379e-02 -5.9272570253759582e-01 +5.8447174673875750e-03
-7.2999999999999901e+00 +8.1514862404073902e+00 +0.0000000000000000e+00 -7.3058444666415099e+00 -3.1128595525603941e-02 -5.9272609012429600e-01 +5.8448149830478023e-03
-7.3999999999999897e+00 +8.1514444834829192e+00 +0.0000000000000000e+00 -7.4059245219813796e+00 -3.1128464039370255e-02 -5.9272648693384877e-01 +5.8449125461223078e-03
-7.4999999999999902e+00 +8.1514021584334806e+00 +0.0000000000000000e+00 -7.5060045770826100e+00 -3.1128335760628355e-02 -5.9272689327081673e-01 +5.8450101771385446e-03
-7.5999999999999899e+00 +8.1513592652663593e+00 +0.0000000000000000e+00 -7.6060846319419504e+00 -3.1128210561031162e-02 -5.9272730943961993e-01 +5.8451078966213115e-03
-7.6999999999999904e+00 +8.1513158039779192e+00 +0.0000000000000000e+00 -7.7061646865561997e+00 -3.1128088312209833e-02 -5.9272773574474547e-01 +5.8452057250948236e-03
-7.7999999999999901e+00 +8.1512717745681602e+00 +0.0000000000000000e+00 -7.8062447409221098e+00 -3.1127968885766810e-02 -5.9272817249062748e-01 +5.8453036830814799e-03
-7.8999999999999897e+00 +8.1512271770334301e+00 +0.0000000000000000e+00 -7.9063247950364799e+00 -3.1127852153278155e-02 -5.9272861998170434e-01 +5.8454017911024232e-03
-7.9999999999999902e+00 +8.1511820113773901e+00 +0.0000000000000000e+00 -8.0064048488960609e+00 -3.1127737986275626e-02 -5.9272907852230594e-01 +5.8455000696799641e-03
-8.0999999999999908e+00 +8.1511362776036496e+00 +0.0000000000000000e+00 -8.1064849024976393e+00 -3.1127626198326756e-02 -5.9272954829634805e-01 +5.8455985547464454e-03
-8.1999999999999904e+00 +8.1510899757086008e+00 +0.0000000000000000e+00 -8.2065649558379903e+00 -3.1127516411580680e-02 -5.9273002909005323e-01 +5.8456973331538209e-03
-8.2999999999999901e+00 +8.1510431056885899e+00 +0.0000000000000000e+00 -8.3066450089139003e+00 -3.1127408208730466e-02 -5.9273052060763709e-01 +5.8457965022591938e-03
-8.3999999999999897e+00 +8.1509956675508892e+00 +0.0000000000000000e+00 -8.4067250617221205e+00 -3.1127301172488471e-02 -5.9273102255325461e-01 +5.8458961594233068e-03
-8.4999999999999893e+00 +8.1509476612882299e+00 +0.0000000000000000e+00 -8.5068051142594392e+00 -3.1127194885598217e-02 -5.9273153463120642e-01 +5.8459964020127972e-03
-8.5999999999999908e+00 +8.1508990869078808e+00 +0.0000000000000000e+00 -8.6068851665226305e+00 -3.1127088930822826e-02 -5.9273205654570482e-01 +5.8460973273979427e-03
-8.6999999999999904e+00 +8.1508499444025801e+00 +0.0000000000000000e+00 -8.7069652185084596e+00 -3.1126982890958471e-02 -5.9273258800111117e-01 +5.8461990329552148e-03
-8.7999999999999794e+00 +8.1508002337759500e+00 +0.0000000000000000e+00 -8.8070452702137203e+00 -3.1126876348824325e-02 -5.9273312870172823e-01 +5.8463016160653124e-03
-8.8999999999999808e+00 +8.1507499550316407e+00 +0.0000000000000000e+00 -8.9071253216351796e+00 -3.1126768887268185e-02 -5.9273367835189117e-01 +5.8464051741142324e-03
-8.9999999999999805e+00 +8.1506991081623692e+00 +0.0000000000000000e+00 -9.0072053727696098e+00 -3.1126660089172170e-02 -5.9273423665605829e-01 +5.8465098044943112e-03
-9.0999999999999801e+00 +8.1506476931717806e+00 +0.0000000000000000e+00 -9.1072854236137797e+00 -3.1126549537444165e-02 -5.9273480331863215e-01 +5.8466156046025602e-03
-9.1999999999999797e+00 +8.1505957100635005e+00 +0.0000000000000000e+00 -9.2073654741644795e+00 -3.1126436815023518e-02 -5.9273537804405074e-01 +5.8467226718417380e-03
-9.2999999999999794e+00 +8.1505431588302599e+00 +0.0000000000000000e+00 -9.3074455244184708e+00 -3.1126321504886662e-02 -5.9273596053687749e-01 +5.8468311036213843e-03
-9.3999999999999808e+00 +8.1504900394757005e+00 +0.0000000000000000e+00 -9.4075255743725297e+00 -3.1126203190038601e-02 -5.9273655050162299e-01 +5.8469409973561648e-03
-9.4999999999999805e+00 +8.1504363520034495e+00 +0.0000000000000000e+00 -9.5076056240234408e+00 -3.1126081453518608e-02 -5.9273714764283736e-01 +5.8470524504669365e-03
-9.5999999999999801e+00 +8.1503820964062506e+00 +0.0000000000000000e+00 -9.6076856733679694e+00 -3.1125955878405845e-02 -5.9273775166519749e-01 +5.8471655603817858e-03
-9.6999999999999797e+00 +8.1503272726913600e+00 +0.0000000000000000e+00 -9.7077657224029004e+00 -3.1125826047809273e-02 -5.9273836227330234e-01 +5.8472804245340735e-03
-9.7999999999999794e+00 +8.1502718808515109e+00 +0.0000000000000000e+00 -9.8078457711250007e+00 -3.1125691544881224e-02 -5.9273897917191010e-01 +5.8473971403649955e-03
-9.8999999999999808e+00 +8.1502159208903304e+00 +0.0000000000000000e+00 -9.9079258195310498e+00 -3.1125551952807268e-02 -5.9273960206573229e-01 +5.8475158053216169e-03
-9.9999999999999805e+00 +8.1501593928078400e+00 +0.0000000000000000e+00 -1.0008005867617801e+01 -3.1125406854975706e-02 -5.9274023065951165e-01 +5.8476365168486774e-03
-1.0100000000000000e+01 +8.1501022966040200e+00 +0.0000000000000000e+00 -1.0108085915382100e+01 -3.1125256233386047e-02 -5.9274086455669450e-01 +5.8477593489120946e-03
-1.0199999999999999e+01 +8.1500446322825209e+00 +0.0000000000000000e+00 -1.0208165962820599e+01 -3.1125101326060351e-02 -5.9274150304136464e-01 +5.8478843014726787e-03
-1.0300000000000001e+01 +8.1499863998360507e+00 +0.0000000000000000e+00 -1.0308246009930199e+01 -3.1124943617827701e-02 -5.9274214533492553e-01 +5.8480113599516130e-03
-1.0400000000000000e+01 +8.1499275992682705e+00 +0.0000000000000000e+00 -1.0408326056707599e+01 -3.1124784593528285e-02 -5.9274279065866209e-01 +5.8481405097700620e-03
-1.0500000000000000e+01 +8.1498682305791608e+00 +0.0000000000000000e+00 -1.0508406103149600e+01 -3.1124625738020002e-02 -5.9274343823385989e-01 +5.8482717363503873e-03
-1.0600000000000000e+01 +8.1498082937723701e+00 +0.0000000000000000e+00 -1.0608486149253000e+01 -3.1124468536175551e-02 -5.9274408728174455e-01 +5.8484050251155313e-03
-1.0699999999999999e+01 +8.1497477888406102e+00 +0.0000000000000000e+00 -1.0708566195014500e+01 -3.1124314472888964e-02 -5.9274473702359920e-01 +5.8485403614902060e-03
-1.0800000000000001e+01 +8.1496867157875403e+00 +0.0000000000000000e+00 -1.0808646240430900e+01 -3.1124165033066482e-02 -5.9274538668058652e-01 +5.8486777308990800e-03
-1.0900000000000000e+01 +8.1496250746131391e+00 +0.0000000000000000e+00 -1.0908726285499000e+01 -3.1124021701633090e-02 -5.9274603547386606e-01 +5.8488171187679851e-03
-1.1000000000000000e+01 +8.1495628653174208e+00 +0.0000000000000000e+00 -1.1008806330215601e+01 -3.1123885963531137e-02 -5.9274668262456387e-01 +5.8489585105235917e-03
-1.1100000000000000e+01 +8.1495000879040198e+00 +0.0000000000000000e+00 -1.1108886374577500e+01 -3.1123759303719103e-02 -5.9274732735374236e-01 +5.8491018915931038e-03
-1.1199999999999999e+01 +8.1494367423620098e+00 +0.0000000000000000e+00 -1.1208966418581401e+01 -3.1123643207179679e-02 -5.9274796888254710e-01 +5.8492472474057627e-03
-1.1300000000000001e+01 +8.1493728287059604e+00 +0.0000000000000000e+00 -1.1309046462224000e+01 -3.1123539158902713e-02 -5.9274860643188054e-01 +5.8493945633895121e-03
-1.1400000000000000e+01 +8.1493083469249505e+00 +0.0000000000000000e+00 -1.1409126505502300e+01 -3.1123448643907498e-02 -5.9274923922281531e-01 +5.8495438249752145e-03
-1.1500000000000000e+01 +8.1492432970226201e+00 +0.0000000000000000e+00 -1.1509206548412800e+01 -3.1123373147225693e-02 -5.9274986647626859e-01 +5.8496950175933272e-03
-1.1600000000000000e+01 +8.1491776789989707e+00 +0.0000000000000000e+00 -1.1609286590952600e+01 -3.1123314153909454e-02 -5.9275048741314884e-01 +5.8498481266753980e-03
-1.1699999999999999e+01 +8.1491114928576298e+00 +0.0000000000000000e+00 -1.1709366633118099e+01 -3.1123273149028505e-02 -5.9275110125429564e-01 +5.8500031376534558e-03
