# field on trajectory
# s[mm] rx[mm] ry[mm] rz[mm] bx[T] by[T] bz[T]
0.0000000000000000e+00 +8.1530000000000094e+00 +0.0000000000000000e+00 +0.0000000000000000e+00 -2.9331742828576569e-02 -5.6471201590658382e-01 +5.6374007459795358e-03
1.0000000000000001e-01 +8.1529997163925092e+00 +0.0000000000000000e+00 +9.9999999999463796e-02 -2.9332002701858435e-02 -5.6471205055775198e-01 +5.6374117458210605e-03
2.0000000000000001e-01 +8.1529988655711296e+00 +0.0000000000000000e+00 +1.9999999999571000e-01 -2.9332260808358292e-02 -5.6471209918213372e-01 +5.6374250430561799e-03
2.9999999999999999e-01 +8.1529974475415692e+00 +0.0000000000000000e+00 +2.9999999998552201e-01 -2.9332516708099547e-02 -5.6471216051600504e-01 +5.6374407636083463e-03
4.0000000000000002e-01 +8.1529954622965306e+00 +0.0000000000000000e+00 +3.9999999996568197e-01 -2.9332769961114360e-02 -5.6471223329572195e-01 +5.6374590334019757e-03
5.0000000000000000e-01 +8.1529929098396696e+00 +0.0000000000000000e+00 +4.9999999993297300e-01 -2.9333020127432777e-02 -5.6471231625753926e-01 +5.6374799783606624e-03
5.9999999999999998e-01 +8.1529897901673394e+00 +0.0000000000000000e+00 +5.9999999988417696e-01 -2.9333266767089711e-02 -5.6471240813775425e-01 +5.6375037244087208e-03
6.9999999999999996e-01 +8.1529861032831796e+00 +0.0000000000000000e+00 +6.9999999981607697e-01 -2.9333509440118158e-02 -5.6471250767260195e-01 +5.6375303974701488e-03
8.0000000000000004e-01 +8.1529818491871993e+00 +0.0000000000000000e+00 +7.9999999972545699e-01 -2.9333747706552969e-02 -5.6471261359834013e-01 +5.6375601234695842e-03
9.0000000000000002e-01 +8.1529770278793894e+00 +0.0000000000000000e+00 +8.9999999960909804e-01 -2.9333981126428679e-02 -5.6471272465122746e-01 +5.6375930283321185e-03
1.0000000000000000e+00 +8.1529716393597500e+00 +0.0000000000000000e+00 +9.9999999946378304e-01 -2.9334209259778782e-02 -5.6471283956752860e-01 +5.6376292379834107e-03
1.1000000000000001e+00 +8.1529656836210105e+00 +0.0000000000000000e+00 +1.0999999992862901e+00 -2.9334431666638065e-02 -5.6471295708357250e-01 +5.6376688783503544e-03
1.2000000000000000e+00 +8.1529591606740706e+00 +0.0000000000000000e+00 +1.1999999990734200e+00 -2.9334647907031209e-02 -5.6471307593556186e-01 +5.6377120753592002e-03
1.3000000000000000e+00 +8.1529520705153100e+00 +0.0000000000000000e+00 +1.2999999988219300e+00 -2.9334857540985804e-02 -5.6471319485982963e-01 +5.6377589549381933e-03
1.3999999999999999e+00 +8.1529444131410909e+00 +0.0000000000000000e+00 +1.3999999985286200e+00 -2.9335060128525537e-02 -5.6471331259273105e-01 +5.6378096430165807e-03
1.5000000000000000e+00 +8.1529361885550298e+00 +0.0000000000000000e+00 +1.4999999981902701e+00 -2.9335255229666443e-02 -5.6471342787059176e-01 +5.6378642655241125e-03
1.6000000000000001e+00 +8.1529273967571498e+00 +0.0000000000000000e+00 +1.5999999978036501e+00 -2.9335442404420726e-02 -5.6471353942979696e-01 +5.6379229483920108e-03
1.7000000000000000e+00 +8.1529180377474404e+00 +0.0000000000000000e+00 +1.6999999973655600e+00 -2.9335621212794576e-02 -5.6471364600676632e-01 +5.6379858175527953e-03
1.8000000000000000e+00 +8.1529081115222706e+00 +0.0000000000000000e+00 +1.7999999968727800e+00 -2.9335791214788964e-02 -5.6471374633798832e-01 +5.6380529989406630e-03
1.8999999999999999e+00 +8.1528976180852606e+00 +0.0000000000000000e+00 +1.8999999963220899e+00 -2.9335951970394306e-02 -5.6471383915993889e-01 +5.6381246184907495e-03
2.0000000000000000e+00 +8.1528865574327902e+00 +0.0000000000000000e+00 +1.9999999957102601e+00 -2.9336103039595919e-02 -5.6471392320919878e-01 +5.6382008021403510e-03
2.1000000000000001e+00 +8.1528749295721408e+00 +0.0000000000000000e+00 +2.0999999950340902e+00 -2.9336244203122454e-02 -5.6471399763802899e-01 +5.6382816126625797e-03
2.2000000000000002e+00 +8.1528627344960096e+00 +0.0000000000000000e+00 +2.1999999942903599e+00 -2.9336376124728215e-02 -5.6471406326169127e-01 +5.6383668601732578e-03
2.2999999999999998e+00 +8.1528499722080596e+00 +0.0000000000000000e+00 +2.2999999934758399e+00 -2.9336499688914261e-02 -5.6471412131107379e-01 +5.6384562916242473e-03
2.3999999999999999e+00 +8.1528366427046404e+00 +0.0000000000000000e+00 +2.3999999925873299e+00 -2.9336615780179473e-02 -5.6471417301711235e-01 +5.6385496539700496e-03
2.5000000000000000e+00 +8.1528227459894005e+00 +0.0000000000000000e+00 +2.4999999916215998e+00 -2.9336725283014231e-02 -5.6471421961067347e-01 +5.6386466941667889e-03
2.6000000000000001e+00 +8.1528082820659602e+00 +0.0000000000000000e+00 +2.5999999905754398e+00 -2.9336829081903413e-02 -5.6471426232260979e-01 +5.6387471591728766e-03
2.7000000000000002e+00 +8.1527932509234198e+00 +0.0000000000000000e+00 +2.6999999894456299e+00 -2.9336928061332285e-02 -5.6471430238386611e-01 +5.6388507959502614e-03
2.7999999999999998e+00 +8.1527776525726896e+00 +0.0000000000000000e+00 +2.7999999882289601e+00 -2.9337023105771177e-02 -5.6471434102519824e-01 +5.6389573514617044e-03
2.8999999999999999e+00 +8.1527614870065008e+00 +0.0000000000000000e+00 +2.8999999869222002e+00 -2.9337115099692033e-02 -5.6471437947747638e-01 +5.6390665726739984e-03
3.0000000000000000e+00 +8.1527447542284808e+00 +0.0000000000000000e+00 +2.9999999855221300e+00 -2.9337204927556176e-02 -5.6471441897145991e-01 +5.6391782065558210e-03
3.1000000000000001e+00 +8.1527274542386294e+00 +0.0000000000000000e+00 +3.0999999840255499e+00 -2.9337293473820230e-02 -5.6471446073790410e-01 +5.6392920000789774e-03
3.2000000000000002e+00 +8.1527095870333106e+00 +0.0000000000000000e+00 +3.1999999824292300e+00 -2.9337381622935938e-02 -5.6471450600755835e-01 +5.6394077002184951e-03
3.2999999999999998e+00 +8.1526911526198091e+00 +0.0000000000000000e+00 +3.2999999807299600e+00 -2.9337470259343988e-02 -5.6471455601105036e-01 +5.6395250539516151e-03
3.3999999999999999e+00 +8.1526721509872004e+00 +0.0000000000000000e+00 +3.3999999789245101e+00 -2.9337560267486056e-02 -5.6471461197910777e-01 +5.6396438082601625e-03
3.5000000000000000e+00 +8.1526525821464002e+00 +0.0000000000000000e+00 +3.4999999770096801e+00 -2.9337652531787859e-02 -5.6471467514224549e-01 +5.6397637101275409e-03
3.6000000000000001e+00 +8.1526324460901396e+00 +0.0000000000000000e+00 +3.5999999749822500e+00 -2.9337747936675856e-02 -5.6471474673107314e-01 +5.6398845065419537e-03
3.7000000000000002e+00 +8.1526117428220495e+00 +0.0000000000000000e+00 +3.6999999728389801e+00 -2.9337847366564838e-02 -5.6471482797606487e-01 +5.6400059444942528e-03
3.7999999999999998e+00 +8.1525904723421299e+00 +0.0000000000000000e+00 +3.7999999705766800e+00 -2.9337951705863976e-02 -5.6471492010767033e-01 +5.6401277709791798e-03
3.8999999999999999e+00 +8.1525686346503807e+00 +0.0000000000000000e+00 +3.8999999681921298e+00 -2.9338061838975062e-02 -5.6471502435628274e-01 +5.6402497329951879e-03
4.0000000000000000e+00 +8.1525462297431694e+00 +0.0000000000000000e+00 +3.9999999656820902e+00 -2.9338178650293978e-02 -5.6471514195226413e-01 +5.6403715775448435e-03
4.0999999999999996e+00 +8.1525232576241304e+00 +0.0000000000000000e+00 +4.0999999630433699e+00 -2.9338302861283794e-02 -5.6471527383104470e-01 +5.6404930906760456e-03
4.2000000000000002e+00 +8.1524997182896204e+00 +0.0000000000000000e+00 +4.1999999602727298e+00 -2.9338434541725699e-02 -5.6471541974881534e-01 +5.6406142146055594e-03
4.2999999999999998e+00 +8.1524756117469206e+00 +0.0000000000000000e+00 +4.2999999573669703e+00 -2.9338573598499944e-02 -5.6471557916686366e-01 +5.6407349305847669e-03
4.4000000000000004e+00 +8.1524509379887604e+00 +0.0000000000000000e+00 +4.3999999543228601e+00 -2.9338719938523841e-02 -5.6471575154659093e-01 +5.6408552198580980e-03
4.5000000000000000e+00 +8.1524256970187707e+00 +0.0000000000000000e+00 +4.4999999511372000e+00 -2.9338873468743153e-02 -5.6471593634931594e-01 +5.6409750636604869e-03
4.5999999999999996e+00 +8.1523998888369498e+00 +0.0000000000000000e+00 +4.5999999478067499e+00 -2.9339034096140255e-02 -5.6471613303638868e-01 +5.6410944432179243e-03
4.7000000000000002e+00 +8.1523735134396702e+00 +0.0000000000000000e+00 +4.6999999443283098e+00 -2.9339201727736113e-02 -5.6471634106919133e-01 +5.6412133397468738e-03
4.7999999999999998e+00 +8.1523465708305594e+00 +0.0000000000000000e+00 +4.7999999406986600e+00 -2.9339376270587750e-02 -5.6471655990905434e-01 +5.6413317344528591e-03
4.9000000000000004e+00 +8.1523190610096208e+00 +0.0000000000000000e+00 +4.8999999369145701e+00 -2.9339557631794844e-02 -5.6471678901734135e-01 +5.6414496085307230e-03
5.0000000000000000e+00 +8.1522909839768491e+00 +0.0000000000000000e+00 +4.9999999329728402e+00 -2.9339745718500294e-02 -5.6471702785542388e-01 +5.6415669431637864e-03
5.0999999999999996e+00 +8.1522623397286207e+00 +0.0000000000000000e+00 +5.0999999288702398e+00 -2.9339940437893636e-02 -5.6471727588470788e-01 +5.6416837195235395e-03
5.2000000000000002e+00 +8.1522331282685592e+00 +0.0000000000000000e+00 +5.1999999246035600e+00 -2.9340141697208683e-02 -5.6471753256655188e-01 +5.6417999187682285e-03
5.2999999999999998e+00 +8.1522033495966806e+00 +0.0000000000000000e+00 +5.2999999201695802e+00 -2.9340349403729933e-02 -5.6471779736235195e-01 +5.6419155220431188e-03
5.4000000000000004e+00 +8.1521730037093203e+00 +0.0000000000000000e+00 +5.3999999155650800e+00 -2.9340563464794772e-02 -5.6471806973354299e-01 +5.6420305104799293e-03
5.5000000000000000e+00 +8.1521420906137791e+00 +0.0000000000000000e+00 +5.4999999107868396e+00 -2.9340783787789253e-02 -5.6471834914148566e-01 +5.6421448651951178e-03
5.5999999999999996e+00 +8.1521106102991308e+00 +0.0000000000000000e+00 +5.5999999058316599e+00 -2.9341010280162453e-02 -5.6471863504769393e-01 +5.6422585672915816e-03
5.7000000000000002e+00 +8.1520785627762997e+00 +0.0000000000000000e+00 +5.6999999006963096e+00 -2.9341242849411614e-02 -5.6471892691352599e-01 +5.6423715978549428e-03
5.7999999999999998e+00 +8.1520459480379905e+00 +0.0000000000000000e+00 +5.7999998953775700e+00 -2.9341481403101041e-02 -5.6471922420049447e-01 +5.6424839379561166e-03
5.9000000000000004e+00 +8.1520127660915005e+00 +0.0000000000000000e+00 +5.8999998898722197e+00 -2.9341725848850302e-02 -5.6471952637001421e-01 +5.6425955686481627e-03
5.9999999999999902e+00 +8.1519790169259103e+00 +0.0000000000000000e+00 +5.9999998841770603e+00 -2.9341976094350124e-02 -5.6471983288365646e-01 +5.6427064709682964e-03
6.0999999999999899e+00 +8.1519447005521197e+00 +0.0000000000000000e+00 +6.0999998782888598e+00 -2.9342231892708487e-02 -5.6472014331726050e-01 +5.6428166670540285e-03
6.1999999999999904e+00 +8.1519098169665103e+00 +0.0000000000000000e+00 +6.1999998722044003e+00 -2.9342492378513444e-02 -5.6472045770448398e-01 +5.6429263435161126e-03
6.2999999999999901e+00 +8.1518743661654298e+00 +0.0000000000000000e+00 +6.2999998659204701e+00 -2.9342756531683310e-02 -5.6472077619344252e-01 +5.6430357280955077e-03
6.3999999999999897e+00 +8.1518383481488907e+00 +0.0000000000000000e+00 +6.3999998594338496e+00 -2.9343023332094240e-02 -5.6472109893226397e-01 +5.6431450485461398e-03
6.4999999999999902e+00 +8.1518017629241495e+00 +0.0000000000000000e+00 +6.4999998527413201e+00 -2.9343291759576489e-02 -5.6472142606906317e-01 +5.6432545326352990e-03
6.5999999999999899e+00 +8.1517646104839496e+00 +0.0000000000000000e+00 +6.5999998458396698e+00 -2.9343560793921215e-02 -5.6472175775211164e-01 +5.6433644081460375e-03
6.6999999999999904e+00 +8.1517268908319203e+00 +0.0000000000000000e+00 +6.6999998387256703e+00 -2.9343829414867607e-02 -5.6472209412964181e-01 +5.6434749028758599e-03
6.7999999999999901e+00 +8.1516886039680703e+00 +0.0000000000000000e+00 +6.7999998313961196e+00 -2.9344096602106608e-02 -5.6472243534996280e-01 +5.6435862446385507e-03
6.8999999999999897e+00 +8.1516497498923908e+00 +0.0000000000000000e+00 +6.8999998238477902e+00 -2.9344361335277180e-02 -5.6472278156143274e-01 +5.6436986612645778e-03
6.9999999999999902e+00 +8.1516103286012402e+00 +0.0000000000000000e+00 +6.9999998160774597e+00 -2.9344622593965555e-02 -5.6472313291248943e-01 +5.6438123806020566e-03
7.0999999999999899e+00 +8.1515703400982602e+00 +0.0000000000000000e+00 +7.0999998080819298e+00 -2.9344879357698306e-02 -5.6472348955156693e-01 +5.6439276305165842e-03
7.1999999999999904e+00 +8.1515297843834595e+00 +0.0000000000000000e+00 +7.1999997998579603e+00 -2.9345130605944722e-02 -5.6472385162718231e-01 +5.6440446388927885e-03
7.2999999999999901e+00 +8.1514886614531896e+00 +0.0000000000000000e+00 +7.2999997914023496e+00 -2.9345375318114517e-02 -5.6472421928793715e-01 +5.6441636336350002e-03
7.3999999999999897e+00 +8.1514469713147300e+00 +0.0000000000000000e+00 +7.3999997827118804e+00 -2.9345612473549408e-02 -5.6472459268240704e-01 +5.6442848426668133e-03
7.4999999999999902e+00 +8.1514047139571595e+00 +0.0000000000000000e+00 +7.4999997737833199e+00 -2.9345841051533074e-02 -5.6472497195936766e-01 +5.6444084939340300e-03
7.5999999999999899e+00 +8.1513618893914099e+00 +0.0000000000000000e+00 +7.5999997646134698e+00 -2.9346060031272114e-02 -5.6472535726748774e-01 +5.6445348154022393e-03
7.6999999999999904e+00 +8.1513184976138309e+00 +0.0000000000000000e+00 +7.6999997551991104e+00 -2.9346268391908979e-02 -5.6472574875561166e-01 +5.6446640350603268e-03
7.7999999999999901e+00 +8.1512745386207808e+00 +0.0000000000000000e+00 +7.7999997455370096e+00 -2.9346465112513678e-02 -5.6472614657264963e-01 +5.6447963809200400e-03
7.8999999999999897e+00 +8.1512300124159101e+00 +0.0000000000000000e+00 +7.8999997356239602e+00 -2.9346649172078333e-02 -5.6472655086752099e-01 +5.6449320810160837e-03
7.9999999999999902e+00 +8.1511849189955701e+00 +0.0000000000000000e+00 +7.9999997254567399e+00 -2.9346819549521109e-02 -5.6472696178927129e-01 +5.6450713634079667e-03
8.0999999999999908e+00 +8.1511392583670403e+00 +0.0000000000000000e+00 +8.0999997150321406e+00 -2.9346975573111656e-02 -5.6472737950933161e-01 +5.6452143892752873e-03
8.1999999999999904e+00 +8.1510930305230396e+00 +0.0000000000000000e+00 +8.1999997043469399e+00 -2.9347117968821255e-02 -5.6472780428888392e-01 +5.6453610521951195e-03
8.2999999999999901e+00 +8.1510462354672200e+00 +0.0000000000000000e+00 +8.2999996933979094e+00 -2.9347247812041188e-02 -5.6472823641140257e-01 +5.6455111788334756e-03
8.3999999999999897e+00 +8.1509988731995708e+00 +0.0000000000000000e+00 +8.3999996821818605e+00 -2.9347366178153561e-02 -5.6472867616035405e-01 +5.6456645958484148e-03
8.4999999999999893e+00 +8.1509509437164507e+00 +0.0000000000000000e+00 +8.4999996706955496e+00 -2.9347474142531218e-02 -5.6472912381919649e-01 +5.6458211298896907e-03
8.5999999999999908e+00 +8.1509024470215099e+00 +0.0000000000000000e+00 +8.5999996589357703e+00 -2.9347572780533140e-02 -5.6472957967129445e-01 +5.6459806075975410e-03
8.6999999999999904e+00 +8.1508533831147396e+00 +0.0000000000000000e+00 +8.6999996468993004e+00 -2.9347663167508895e-02 -5.6473004400000015e-01 +5.6461428556032062e-03
8.7999999999999794e+00 +8.1508037519961398e+00 +0.0000000000000000e+00 +8.7999996345829192e+00 -2.9347746378797102e-02 -5.6473051708862498e-01 +5.6463077005282809e-03
8.8999999999999808e+00 +8.1507535536620708e+00 +0.0000000000000000e+00 +8.8999996219834205e+00 -2.9347823489726855e-02 -5.6473099922046621e-01 +5.6464749689846697e-03
8.9999999999999805e+00 +8.1507027881161793e+00 +0.0000000000000000e+00 +8.9999996090975891e+00 -2.9347895575613101e-02 -5.6473149067872008e-01 +5.6466444875733655e-03
9.0999999999999801e+00 +8.1506514553584601e+00 +0.0000000000000000e+00 +9.0999995959221902e+00 -2.9347963711761130e-02 -5.6473199174656563e-01 +5.6468160828849635e-03
9.1999999999999797e+00 +8.1505995553889097e+00 +0.0000000000000000e+00 +9.1999995824540193e+00 -2.9348028973464991e-02 -5.6473250270713538e-01 +5.6469895814990467e-03
9.2999999999999794e+00 +8.1505470882038900e+00 +0.0000000000000000e+00 +9.2999995686898593e+00 -2.9348092436008957e-02 -5.6473302384354007e-01 +5.6471648099840873e-03
9.3999999999999808e+00 +8.1504940538070496e+00 +0.0000000000000000e+00 +9.3999995546264898e+00 -2.9348155174662844e-02 -5.6473355543878534e-01 +5.6473415948962800e-03
9.4999999999999805e+00 +8.1504404521983798e+00 +0.0000000000000000e+00 +9.4999995402606903e+00 -2.9348218264686577e-02 -5.6473409777585193e-01 +5.6475197627800190e-03
9.5999999999999801e+00 +8.1503862833778804e+00 +0.0000000000000000e+00 +9.5999995255892507e+00 -2.9348282781328547e-02 -5.6473465113766896e-01 +5.6476991401672909e-03
9.6999999999999797e+00 +8.1503315473419207e+00 +0.0000000000000000e+00 +9.6999995106089507e+00 -2.9348349799827079e-02 -5.6473521580713748e-01 +5.6478795535776002e-03
9.7999999999999794e+00 +8.1502762440941297e+00 +0.0000000000000000e+00 +9.7999994953165697e+00 -2.9348420395405798e-02 -5.6473579206704771e-01 +5.6480608295167616e-03
9.8999999999999808e+00 +8.1502203736345091e+00 +0.0000000000000000e+00 +9.8999994797088906e+00 -2.9348495643278117e-02 -5.6473638020015904e-01 +5.6482427944774235e-03
9.9999999999999805e+00 +8.1501639359594300e+00 +0.0000000000000000e+00 +9.9999994637827001e+00 -2.9348576618647162e-02 -5.6473698048919996e-01 +5.6484252749387093e-03
1.0100000000000000e+01 +8.1501069310761505e+00 +0.0000000000000000e+00 +1.0099999447534801e+01 -2.9348664196059512e-02 -5.6473759289431014e-01 +5.6486081207104567e-03
1.0199999999999999e+01 +8.1500493589774106e+00 +0.0000000000000000e+00 +1.0199999430961901e+01 -2.9348758447493285e-02 -5.6473821608589370e-01 +5.6487912749790831e-03
1.0300000000000001e+01 +8.1499912196668394e+00 +0.0000000000000000e+00 +1.0299999414060901e+01 -2.9348859244293438e-02 -5.6473884841179733e-01 +5.6489747042771212e-03
1.0400000000000000e+01 +8.1499325131444493e+00 +0.0000000000000000e+00 +1.0399999396828500e+01 -2.9348966457827853e-02 -5.6473948821988129e-01 +5.6491583751393142e-03
1.0500000000000000e+01 +8.1498732394065900e+00 +0.0000000000000000e+00 +1.0499999379261400e+01 -2.9349079959488069e-02 -5.6474013385801902e-01 +5.6493422541026633e-03
1.0600000000000000e+01 +8.1498133984568994e+00 +0.0000000000000000e+00 +1.0599999361356600e+01 -2.9349199620685437e-02 -5.6474078367401204e-01 +5.6495263077056311e-03
1.0699999999999999e+01 +8.1497529902953794e+00 +0.0000000000000000e+00 +1.0699999343110701e+01 -2.9349325312856393e-02 -5.6474143601567406e-01 +5.6497105024890639e-03
1.0800000000000001e+01 +8.1496920149220404e+00 +0.0000000000000000e+00 +1.0799999324520600e+01 -2.9349456907461720e-02 -5.6474208923080316e-01 +5.6498948049959535e-03
1.0900000000000000e+01 +8.1496304723332305e+00 +0.0000000000000000e+00 +1.0899999305583000e+01 -2.9349594275988770e-02 -5.6474274166720939e-01 +5.6500791817717883e-03
1.1000000000000000e+01 +8.1495683625325892e+00 +0.0000000000000000e+00 +1.0999999286294800e+01 -2.9349737289947605e-02 -5.6474339167262999e-01 +5.6502635993637496e-03
1.1100000000000000e+01 +8.1495056855201309e+00 +0.0000000000000000e+00 +1.1099999266652601e+01 -2.9349885820876370e-02 -5.6474403759481384e-01 +5.6504480243216339e-03
1.1199999999999999e+01 +8.1494424412958306e+00 +0.0000000000000000e+00 +1.1199999246653300e+01 -2.9350039740340401e-02 -5.6474467778149151e-01 +5.6506324231976133e-03
1.1300000000000001e+01 +8.1493786298560700e+00 +0.0000000000000000e+00 +1.1299999226293700e+01 -2.9350198919934622e-02 -5.6474531058040578e-01 +5.6508167625465905e-03
1.1400000000000000e+01 +8.1493142512044905e+00 +0.0000000000000000e+00 +1.1399999205570500e+01 -2.9350363231279486e-02 -5.6474593433922438e-01 +5.6510010089253918e-03
1.1500000000000000e+01 +8.1492493053447106e+00 +0.0000000000000000e+00 +1.1499999184480499e+01 -2.9350532546025009e-02 -5.6474654740559782e-01 +5.6511851288934007e-03
1.1600000000000000e+01 +8.1491837922658306e+00 +0.0000000000000000e+00 +1.1599999163020600e+01 -2.9350706735857404e-02 -5.6474714812727012e-01 +5.6513690890137563e-03
1.1699999999999999e+01 +8.1491177119787608e+00 +0.0000000000000000e+00 +1.1699999141187400e+01 -2.9350885672484679e-02 -5.6474773485179852e-01 +5.6515528558505543e-03
1.1800000000000001e+01 +8.1490510644762306e+00 +0.0000000000000000e+00 +1.1799999118977800e+01 -2.9351069227654063e-02 -5.6474830592686154e-01 +5.6517363959720469e-03
