# multipoles
# s[mm] polynom_b[n=0][T/m^n] polynom_b[n=1][T/m^n] polynom_b[n=2][T/m^n] polynom_b[n=3][T/m^n] polynom_b[n=4][T/m^n] polynom_b[n=5][T/m^n] polynom_b[n=6][T/m^n] 
+0.0000000000000000e+00 -5.3839984006877772e-01 +7.3488081240282686e+00 -2.9228037094851678e-01 -2.1504428516569686e+01 -6.4693043654489838e+02 +5.0980531719532468e+04 -3.4116505532857305e+06 
+1.0000000000000001e-01 -5.3839971959424660e-01 +7.3488160891811614e+00 -2.8860974221919028e-01 -2.1577004921450484e+01 -7.3852195070761809e+02 +5.1603822406739666e+04 -2.9591783439597115e+06 
+2.0000000000000001e-01 -5.3839961492191069e-01 +7.3488231864036493e+00 -2.8380129867045706e-01 -2.1604563323279883e+01 -8.4751695720445571e+02 +5.1875272034907190e+04 -2.4434154851906048e+06 
+3.0000000000000004e-01 -5.3839952531427193e-01 +7.3488296134119810e+00 -2.7795119397081214e-01 -2.1593496548221701e+01 -9.7220655859963040e+02 +5.1831957549423321e+04 -1.8712373699184454e+06 
+4.0000000000000002e-01 -5.3839945003382639e-01 +7.3488355679232837e+00 -2.7115558360778308e-01 -2.1550197452264591e+01 -1.1108818141997958e+03 +5.1510956177331027e+04 -1.2495196112421099e+06 
+5.0000000000000000e-01 -5.3839938834308987e-01 +7.3488412476485392e+00 -2.6351062063506947e-01 -2.1481058710198742e+01 -1.2618338304316956e+03 +5.0949344169885720e+04 -5.8513758547777543e+05 
+5.9999999999999998e-01 -5.3839933950454311e-01 +7.3488468502885942e+00 -2.5511246296093548e-01 -2.1392472708201701e+01 -1.4233536153587695e+03 +5.0184196181886102e+04 +1.1503285320326687e+05 
+6.9999999999999996e-01 -5.3839930278070358e-01 +7.3488525735461376e+00 -2.4605726422456339e-01 -2.1290831903234768e+01 -1.5937322554670050e+03 +4.9252587376657131e+04 +8.4411622314985702e+05 
+7.9999999999999993e-01 -5.3839927743405991e-01 +7.3488586151203599e+00 -2.3644118191436786e-01 -2.1182528665603883e+01 -1.7712607604029988e+03 +4.8191592489055460e+04 +1.5952366733003047e+06 
+8.9999999999999991e-01 -5.3839926272712246e-01 +7.3488651727076721e+00 -2.2636037136440151e-01 -2.1073955307468822e+01 -1.9542301744743218e+03 +4.7038285996909297e+04 +2.3615185045187245e+06 
+9.9999999999999989e-01 -5.3839925792239762e-01 +7.3488724440030229e+00 -2.1591098857981245e-01 -2.0971504126770768e+01 -2.1409315256114492e+03 +4.5829742374911955e+04 +3.1360859341513515e+06 
+1.0999999999999999e+00 -5.3839926228240143e-01 +7.3488806267066824e+00 -2.0518918900628330e-01 -2.0881567614037145e+01 -2.3296558435774209e+03 +4.4603037301036318e+04 +3.9120631658252324e+06 
+1.2000000000000000e+00 -5.3839927506965757e-01 +7.3488899185110803e+00 -1.9429112699712947e-01 -2.0810538063425046e+01 -2.5186941780743864e+03 +4.3395245374792452e+04 +4.6825744986716891e+06 
+1.3000000000000000e+00 -5.3839929554670407e-01 +7.3489005171191639e+00 -1.8331295595041872e-01 -2.0764808122334770e+01 -2.7063375867264913e+03 +4.2243443326361514e+04 +5.4407442418657253e+06 
+1.4000000000000001e+00 -5.3839932297607562e-01 +7.3489126202314772e+00 -1.7235082951218336e-01 -2.0750770423763889e+01 -2.8908771169796851e+03 +4.1184707893855215e+04 +6.1796966388819795e+06 
+1.5000000000000002e+00 -5.3839935662033755e-01 +7.3489264255572850e+00 -1.6150089853620186e-01 -2.0774817892719287e+01 -3.0706038602718700e+03 +4.0256117535746613e+04 +6.8925561187324924e+06 
+1.6000000000000003e+00 -5.3839939574208140e-01 +7.3489421308049554e+00 -1.5085931029815033e-01 -2.0843343503974758e+01 -3.2438089713595477e+03 +3.9494751112666643e+04 +7.5724473950718017e+06 
+1.7000000000000004e+00 -5.3839943960385994e-01 +7.3489599336928064e+00 -1.4052221752980965e-01 -2.0962740577490813e+01 -3.4087834911168461e+03 +3.8937689537887702e+04 +8.2124946077494966e+06 
+1.8000000000000005e+00 -5.3839948746832245e-01 +7.3489800319449126e+00 -1.3058576134744329e-01 -2.1139402671059447e+01 -3.5638186724575503e+03 +3.8622015163897981e+04 +8.8058228779114913e+06 
+1.9000000000000006e+00 -5.3839953859806855e-01 +7.3490026232919963e+00 -1.2114608910439725e-01 -2.1379723609440077e+01 -3.7072056428309043e+03 +3.8584811957644990e+04 +9.3455567046521399e+06 
+2.0000000000000004e+00 -5.3839959225577771e-01 +7.3490279054741556e+00 -1.1229933861546208e-01 -2.1690097581140680e+01 -3.8372357007982582e+03 +3.8863166086333244e+04 +9.8248213660178296e+06 
+2.1000000000000005e+00 -5.3839964779640981e-01 +7.3490559799241844e+00 -1.0412211402590908e-01 -2.2074678583018368e+01 -3.9526247972037286e+03 +3.9483736646990939e+04 +1.0238623796771264e+07 
+2.2000000000000006e+00 -5.3839970494140121e-01 +7.3490865572423587e+00 -9.6611941241878288e-02 -2.2528511189213798e+01 -4.0538106133491433e+03 +4.0431118083271125e+04 +1.0589602395782340e+07 
+2.3000000000000007e+00 -5.3839976350309871e-01 +7.3491192489167112e+00 -8.9746341764937801e-02 -2.3044325494842301e+01 -4.1416670597435232e+03 +4.1679301783246716e+04 +1.0882329411912357e+07 
+2.4000000000000008e+00 -5.3839982329381419e-01 +7.3491536664335992e+00 -8.3502840549342761e-02 -2.3614851516437309e+01 -4.2170679887606457e+03 +4.3202278574368371e+04 +1.1121376827844350e+07 
+2.5000000000000009e+00 -5.3839988412589945e-01 +7.3491894212871642e+00 -7.7858956171279345e-02 -2.4232819427447762e+01 -4.2808873842330422e+03 +4.4974039978484121e+04 +1.1311317268879905e+07 
+2.6000000000000010e+00 -5.3839994581164963e-01 +7.3492261249700652e+00 -7.2792212586844221e-02 -2.4890959310020421e+01 -4.3339991419272055e+03 +4.6968576829296944e+04 +1.1456722968526563e+07 
+2.7000000000000011e+00 -5.3840000816335842e-01 +7.3492633889810470e+00 -6.8280132415674738e-02 -2.5582001352480393e+01 -4.3772771975111946e+03 +4.9159880363392258e+04 +1.1562166378904779e+07 
+2.8000000000000012e+00 -5.3840007099329734e-01 +7.3493008248206850e+00 -6.4300239295357386e-02 -2.6298675713493616e+01 -4.4115954807215048e+03 +5.1521941399516880e+04 +1.1632219945174400e+07 
+2.9000000000000012e+00 -5.3840013411371179e-01 +7.3493380439933365e+00 -6.0830058135556780e-02 -2.7033712572542612e+01 -4.4378279170782653e+03 +5.4028750620562154e+04 +1.1671456135574313e+07 
+3.0000000000000013e+00 -5.3840019733683464e-01 +7.3493746580097667e+00 -5.7847113288102436e-02 -2.7779842201639102e+01 -4.4568484599527128e+03 +5.6654298977552549e+04 +1.1684447580980225e+07 
+3.1000000000000014e+00 -5.3840026047486478e-01 +7.3494102783806543e+00 -5.5328931345955443e-02 -2.8529794762383524e+01 -4.4695310399584923e+03 +5.9372576474373964e+04 +1.1675766843199307e+07 
+3.2000000000000015e+00 -5.3840032333998022e-01 +7.3494445166198785e+00 -5.3253038996208854e-02 -2.9276300395316756e+01 -4.4767496090357436e+03 +6.2157572679347839e+04 +1.1649986632437274e+07 
+3.3000000000000016e+00 -5.3840038574431903e-01 +7.3494769842463832e+00 -5.1596965343370813e-02 -3.0012089253875612e+01 -4.4793780978776431e+03 +6.4983276862984821e+04 +1.1611679607523339e+07 
+3.4000000000000017e+00 -5.3840044749998917e-01 +7.3495072927823788e+00 -5.0338240448299945e-02 -3.0729891465004634e+01 -4.4782904429972477e+03 +6.7823677811897753e+04 +1.1565418501399908e+07 
+3.5000000000000018e+00 -5.3840050841908282e-01 +7.3495350537558872e+00 -4.9454393657945309e-02 -3.1422437176571471e+01 -4.4743606219471076e+03 +7.0652764033414962e+04 +1.1515776298068430e+07 
+3.6000000000000019e+00 -5.3840056831362937e-01 +7.3495598786927179e+00 -4.8922959396866202e-02 -3.2082456315506597e+01 -4.4684625426306293e+03 +7.3444522333228990e+04 +1.1467325703897255e+07 
+3.7000000000000020e+00 -5.3840062699563374e-01 +7.3495813791248850e+00 -4.8721471598667701e-02 -3.2702678833243240e+01 -4.4614701551982289e+03 +7.6172939238815627e+04 +1.1424639694630599e+07 
+3.8000000000000020e+00 -5.3840068427705201e-01 +7.3495991665923954e+00 -4.8827467124049680e-02 -3.3275834739851852e+01 -4.4542573845982743e+03 +7.8812001158932166e+04 +1.1392291186718116e+07 
+3.9000000000000021e+00 -5.3840073996979254e-01 +7.3496128526340287e+00 -4.9218485551916956e-02 -3.3794653832112495e+01 -4.4476981375800378e+03 +8.1335692795200273e+04 +1.1374853079488732e+07 
+4.0000000000000018e+00 -5.3840079388573947e-01 +7.3496220487924147e+00 -4.9872065677645259e-02 -3.4251865816738949e+01 -4.4426663698337416e+03 +8.3717997803642007e+04 +1.1376898573615247e+07 
+4.1000000000000014e+00 -5.3840084589759629e-01 +7.3496264865333218e+00 -5.0767202231461112e-02 -3.4641940577067452e+01 -4.4398281874506374e+03 +8.5937304076252316e+04 +1.1401747919103026e+07 
+4.2000000000000011e+00 -5.3840089611741315e-01 +7.3496263878105967e+00 -5.1892583429926240e-02 -3.4966813784881495e+01 -4.4389574724307904e+03 +8.7992055923884836e+04 +1.1447522700492127e+07 
+4.3000000000000007e+00 -5.3840094471599598e-01 +7.3496220999743480e+00 -5.3240317396389444e-02 -3.5230412354593945e+01 -4.4395888137700795e+03 +8.9886293844231303e+04 +1.1510993258172924e+07 
+4.4000000000000004e+00 -5.3840099186420798e-01 +7.3496139703768879e+00 -5.4802507354827473e-02 -3.5436663385685648e+01 -4.4412568765179703e+03 +9.1624059732582071e+04 +1.1588930270066490e+07 
+4.5000000000000000e+00 -5.3840103773290215e-01 +7.3496023463591946e+00 -5.6571260809575537e-02 -3.5589493770261498e+01 -4.4434962227919841e+03 +9.3209394649366921e+04 +1.1678103886263443e+07 
+4.5999999999999996e+00 -5.3840108249295493e-01 +7.3495875752650699e+00 -5.8538684567989108e-02 -3.5692830619991803e+01 -4.4458414092419234e+03 +9.4646341334554105e+04 +1.1775284200679405e+07 
+4.6999999999999993e+00 -5.3840112631525128e-01 +7.3495700044303227e+00 -6.0696886831594660e-02 -3.5750600961644693e+01 -4.4478269472909060e+03 +9.5938942481066450e+04 +1.1877241064483052e+07 
+4.7999999999999989e+00 -5.3840116937070825e-01 +7.3495499811876890e+00 -6.3037975647613292e-02 -3.5766731889716489e+01 -4.4489873222347269e+03 +9.7091241643649759e+04 +1.1980744150887093e+07 
+4.8999999999999986e+00 -5.3840121183024736e-01 +7.3495278528620114e+00 -6.5554061176251704e-02 -3.5745150440036717e+01 -4.4488569582702175e+03 +9.8107282548028161e+04 +1.2082562811466970e+07 
+4.9999999999999982e+00 -5.3840125386482895e-01 +7.3495039667758224e+00 -6.8237252395159390e-02 -3.5689783756261853e+01 -4.4469702734190878e+03 +9.8991110071200455e+04 +1.2179466318555532e+07 
+5.0999999999999979e+00 -5.3840129564542094e-01 +7.3494786702450439e+00 -7.1079660968077579e-02 -3.5604558975989171e+01 -4.4428616062599713e+03 +9.9746769613271783e+04 +1.2268223519026622e+07 
+5.1999999999999975e+00 -5.3840133734300843e-01 +7.3494523105763188e+00 -7.4073400293735617e-02 -3.5493403167525877e+01 -4.4360652324882358e+03 +1.0037830677301655e+05 +1.2345602910471963e+07 
+5.2999999999999972e+00 -5.3840137912863584e-01 +7.3494252350747882e+00 -7.7210580250102454e-02 -3.5360243557384123e+01 -4.4261154648393403e+03 +1.0088976867668783e+05 +1.2408373119483143e+07 
+5.3999999999999968e+00 -5.3840142117334311e-01 +7.3493977910325849e+00 -8.0483315841030148e-02 -3.5209007215263540e+01 -4.4125464825495083e+03 +1.0128520220435344e+05 +1.2453302072552104e+07 
+5.4999999999999964e+00 -5.3840146364821373e-01 +7.3493703257395193e+00 -8.3883720840681367e-02 -3.5043621366492538e+01 -4.3948924542402701e+03 +1.0156865580672001e+05 +1.2477157590147860e+07 
+5.5999999999999961e+00 -5.3840150672435294e-01 +7.3493431864756724e+00 -8.7403911104131912e-02 -3.4868013196040621e+01 -4.3726874736737218e+03 +1.0174417843428942e+05 +1.2476707078542084e+07 
+5.6999999999999957e+00 -5.3840155057290262e-01 +7.3493167205110685e+00 -9.1036003172660834e-02 -3.4686109834216317e+01 -4.3454655797690457e+03 +1.0181581943466565e+05 +1.2448717609200310e+07 
+5.7999999999999954e+00 -5.3840159536504473e-01 +7.3492912751123036e+00 -9.4772112829310112e-02 -3.4501838577198541e+01 -4.3127607912001877e+03 +1.0178762991431607e+05 +1.2389956103218446e+07 
+5.8999999999999950e+00 -5.3840164127199053e-01 +7.3492671975300592e+00 -9.8604358339517334e-02 -3.4319126524544380e+01 -4.2741070328629621e+03 +1.0166366064128334e+05 +1.2297188952441860e+07 
+5.9999999999999947e+00 -5.3840168846497760e-01 +7.3492448350120956e+00 -1.0252485966402894e-01 -3.4141900977665252e+01 -4.2290381609452825e+03 +1.0144796436563550e+05 +1.2167182164955806e+07 
+6.0999999999999943e+00 -5.3840173721969720e-01 +7.3492244743506907e+00 -1.0652140011862618e-01 -3.3973602281133374e+01 -4.1773122121199394e+03 +1.0114562718819492e+05 +1.1997998212645171e+07 
+6.1999999999999940e+00 -5.3840178824002050e-01 +7.3492061507348927e+00 -1.1056040964920098e-01 -3.3815060907473132e+01 -4.1196376764683828e+03 +1.0076249343268783e+05 +1.1793011989643518e+07 
+6.2999999999999936e+00 -5.3840184233956545e-01 +7.3491898339262258e+00 -1.1460194303498673e-01 -3.3666293556847656e+01 -4.0569758934210963e+03 +1.0030380962570324e+05 +1.1556967069167752e+07 
+6.3999999999999932e+00 -5.3840190033195012e-01 +7.3491754936789677e+00 -1.1860605468247085e-01 -3.3527316649441950e+01 -3.9902882175999675e+03 +9.9774820594579141e+04 +1.1294607105963329e+07 
+6.4999999999999929e+00 -5.3840196303082200e-01 +7.3491630997416113e+00 -1.2253279538216763e-01 -3.3398146359635199e+01 -3.9205360768225896e+03 +9.9180769525430092e+04 +1.1010676111387966e+07 
+6.5999999999999925e+00 -5.3840203124981900e-01 +7.3491526218606014e+00 -1.2634221695792061e-01 -3.3278798721758854e+01 -3.8486808862722419e+03 +9.8526898571646248e+04 +1.0709918052300844e+07 
+6.6999999999999922e+00 -5.3840210580257331e-01 +7.3491440297780439e+00 -1.2999437190109106e-01 -3.3169289547361686e+01 -3.7756840521588424e+03 +9.7818448328450322e+04 +1.0397076857627599e+07 
+6.7999999999999918e+00 -5.3840218750276303e-01 +7.3491372932237011e+00 -1.3344930666248059e-01 -3.3069634212050055e+01 -3.7025071061542640e+03 +9.7060656649887285e+04 +1.0076897078800308e+07 
+6.8999999999999915e+00 -5.3840227716403544e-01 +7.3491323819274417e+00 -1.3666707151014953e-01 -3.2979847976961224e+01 -3.6301115114331369e+03 +9.6258760400226660e+04 +9.7541229460687786e+06 
+6.9999999999999911e+00 -5.3840237560006710e-01 +7.3491292656163214e+00 -1.3960771231772734e-01 -3.2899945932294521e+01 -3.5594588260755031e+03 +9.5417995206054125e+04 +9.4334991662319116e+06 
+7.0999999999999908e+00 -5.3840248362453924e-01 +7.3491279140047681e+00 -1.4223127467197536e-01 -3.2829942690153899e+01 -3.4915106182362970e+03 +9.4543593613780977e+04 +9.1197705011125822e+06 
+7.1999999999999904e+00 -5.3840260205112789e-01 +7.3491282968051568e+00 -1.4449780382258498e-01 -3.2769852685919361e+01 -3.4272284759825689e+03 +9.3640786823921197e+04 +8.8176818374455459e+06 
+7.2999999999999901e+00 -5.3840273169354869e-01 +7.3491303837218114e+00 -1.4636734019918254e-01 -3.2719690007084715e+01 -3.3675740837616868e+03 +9.2714803694114322e+04 +8.5319785257565565e+06 
+7.3999999999999897e+00 -5.3840287336548875e-01 +7.3491341444564968e+00 -1.4779992737591013e-01 -3.2679468539549866e+01 -3.3135090770293450e+03 +9.1770871572978329e+04 +8.2674057060605912e+06 
+7.4999999999999893e+00 -5.3840302788067251e-01 +7.3491395487016034e+00 -1.4875560324695017e-01 -3.2649201771164080e+01 -3.2659952127664692e+03 +9.0814215138491258e+04 +8.0287091248188289e+06 
+7.5999999999999890e+00 -5.3840319605281450e-01 +7.3491465661442277e+00 -1.4919440707840445e-01 -3.2628902897525201e+01 -3.2259942284918620e+03 +8.9850057000383633e+04 +7.8206344462869335e+06 
+7.6999999999999886e+00 -5.3840337869565214e-01 +7.3491551664606503e+00 -1.4907637411055918e-01 -3.2618584672051107e+01 -3.1944679527761550e+03 +8.8883616841568248e+04 +7.6479277974750455e+06 
+7.7999999999999883e+00 -5.3840357662292437e-01 +7.3491653193283781e+00 -1.4836153971550375e-01 -3.2618259731707269e+01 -3.1723782197477040e+03 +8.7920113247271249e+04 +7.5153353463881528e+06 
+7.8999999999999879e+00 -5.3840379064837696e-01 +7.3491769944131722e+00 -1.4700993677029206e-01 -3.2627940220511704e+01 -3.1606869271490773e+03 +8.6964761524876856e+04 +7.4276035960477581e+06 
+7.9999999999999876e+00 -5.3840402158577982e-01 +7.3491901613727233e+00 -1.4498159503275748e-01 -3.2647637902441474e+01 -3.1603560420929953e+03 +8.6022774380177609e+04 +7.3894793987202263e+06 
+8.0999999999999872e+00 -5.3840426996265023e-01 +7.3492047703449455e+00 -1.4225618952452951e-01 -3.2677341624450932e+01 -3.1719836382849094e+03 +8.5099661789155609e+04 +7.4040342781582028e+06 
+8.1999999999999869e+00 -5.3840453516280196e-01 +7.3492207019517970e+00 -1.3889079054226236e-01 -3.2717355807824063e+01 -3.1947143418951291e+03 +8.4204160262387988e+04 +7.4676263822248019e+06 
+8.2999999999999865e+00 -5.3840481628432946e-01 +7.3492378216032055e+00 -1.3496156335625314e-01 -3.2768170536919996e+01 -3.2273282989911531e+03 +8.3346339489563907e+04 +7.5749243133594710e+06 
+8.3999999999999861e+00 -5.3840511242528122e-01 +7.3492559947267937e+00 -1.3054467566776304e-01 -3.2830276360413592e+01 -3.2686056195193210e+03 +8.2536271581673078e+04 +7.7205965086831897e+06 
+8.4999999999999858e+00 -5.3840542268372460e-01 +7.3492750867607199e+00 -1.2571628872626844e-01 -3.2904164055118251e+01 -3.3173265516786255e+03 +8.1784029772134018e+04 +7.8993120711260550e+06 
+8.5999999999999854e+00 -5.3840574615771153e-01 +7.3492949631583588e+00 -1.2055256227569183e-01 -3.2990324769362864e+01 -3.3722713877157962e+03 +8.1099689263674620e+04 +8.1057403235685276e+06 
+8.6999999999999851e+00 -5.3840608194528095e-01 +7.3493154893882329e+00 -1.1512965326614620e-01 -3.3089250015093128e+01 -3.4322204874610984e+03 +8.0493327175096550e+04 +8.3345509117746064e+06 
+8.7999999999999847e+00 -5.3840642914444981e-01 +7.3493365309334902e+00 -1.0952371779977915e-01 -3.3201431652598501e+01 -3.4959542424796887e+03 +7.9975022437456326e+04 +8.5804136406443249e+06 
+8.8999999999999844e+00 -5.3840678685324317e-01 +7.3493579532923512e+00 -1.0381090627004315e-01 -3.3327361899684696e+01 -3.5622531717137517e+03 +7.9554855851853630e+04 +8.8379989349711575e+06 
+8.9999999999999840e+00 -5.3840715416964824e-01 +7.3493796219779348e+00 -9.8067369613596675e-02 -3.3467533324867119e+01 -3.6298977986533810e+03 +7.9242910035408757e+04 +9.1019772431193311e+06 
+9.0999999999999837e+00 -5.3840753019166088e-01 +7.3494014025227488e+00 -9.2369253242662111e-02 -3.3622438976606254e+01 -3.6976687703563848e+03 +7.9049270173839512e+04 +9.3670196121919323e+06 
+9.1999999999999833e+00 -5.3840791401726751e-01 +7.3494231604737026e+00 -8.6792699132581502e-02 -3.3792572241382118e+01 -3.7643468175607923e+03 +7.8984023200869633e+04 +9.6277974989989791e+06 
+9.2999999999999829e+00 -5.3840830474441148e-01 +7.3494447613921130e+00 -8.1413849872766356e-02 -3.3978426828242874e+01 -3.8287126764807786e+03 +7.9057257672668886e+04 +9.8789823890049141e+06 
+9.3999999999999826e+00 -5.3840870147104447e-01 +7.3494660708663035e+00 -7.6308842247088782e-02 -3.4180497148829403e+01 -3.8895472133134490e+03 +7.9279066004389751e+04 +1.0115246399780689e+07 
+9.4999999999999822e+00 -5.3840910329510538e-01 +7.3494869544912707e+00 -7.1553809644180941e-02 -3.4399277713047034e+01 -3.9456313778467047e+03 +7.9659540931076466e+04 +1.0331262053054804e+07 
+9.5999999999999819e+00 -5.3840950931449094e-01 +7.3495072778875103e+00 -6.7224885389267616e-02 -3.4635263677752469e+01 -3.9957461417855166e+03 +8.0208778693165295e+04 +1.0521701987496592e+07 
+9.6999999999999815e+00 -5.3840991862713483e-01 +7.3495269066976929e+00 -6.3398193560858671e-02 -3.4888950751240301e+01 -4.0386726705678097e+03 +8.0936878488043294e+04 +1.0681239767907359e+07 
+9.7999999999999812e+00 -5.3841033033089092e-01 +7.3495457065737142e+00 -6.0149862088376707e-02 -3.5160834816890542e+01 -4.0731920809342300e+03 +8.1853940284931421e+04 +1.0804548745951980e+07 
+9.8999999999999808e+00 -5.3841074352365004e-01 +7.3495635431953668e+00 -5.7556009608317062e-02 -3.5451412455679730e+01 -4.0980856830017110e+03 +8.2970067799608732e+04 +1.0886303192844300e+07 
+9.9999999999999805e+00 -5.3841115730324629e-01 +7.3495802822613010e+00 -5.5692755626833769e-02 -3.5761180646724597e+01 -4.1121347866950045e+03 +8.4295366910006487e+04 +1.0921177388495324e+07 
+1.0099999999999980e+01 -5.3841157091395786e-01 +7.3495958039275795e+00 -5.4613678822179428e-02 -3.6089785968096642e+01 -4.1144507158369479e+03 +8.5833208810941040e+04 +1.0905199238996701e+07 
