# trajectory
# s[mm] rx[mm] ry[mm] rz[mm] px[rad] py[rad] pz[rad]
0.0000000000000000e+00 +7.9199999999999999e+00 +0.0000000000000000e+00 +0.0000000000000000e+00 +0.0000000000000000e+00 +0.0000000000000000e+00 +1.0000000000000000e+00
1.0000000000000001e-01 +7.9199997170274425e+00 +0.0000000000000000e+00 +9.9999999999466169e-02 -5.6594510120884738e-06 +0.0000000000000000e+00 +9.9999999998398525e-01
2.0000000000000001e-01 +7.9199988681098219e+00 +0.0000000000000000e+00 +1.9999999999572940e-01 -1.1318901286963115e-05 +0.0000000000000000e+00 +9.9999999993594113e-01
3.0000000000000004e-01 +7.9199974532472037e+00 +0.0000000000000000e+00 +2.9999999998558674e-01 -1.6978350987158472e-05 +0.0000000000000000e+00 +9.9999999985586774e-01
4.0000000000000002e-01 +7.9199954724396386e+00 +0.0000000000000000e+00 +3.9999999996583530e-01 -2.2637800265152689e-05 +0.0000000000000000e+00 +9.9999999974376497e-01
5.0000000000000000e-01 +7.9199929256871604e+00 +0.0000000000000000e+00 +4.9999999993327210e-01 -2.8297249263367444e-05 +0.0000000000000000e+00 +9.9999999959963282e-01
5.9999999999999998e-01 +7.9199898129897912e+00 +0.0000000000000000e+00 +5.9999999988469421e-01 -3.3956698114167933e-05 +0.0000000000000000e+00 +9.9999999942347129e-01
6.9999999999999996e-01 +7.9199861343475391e+00 +0.0000000000000000e+00 +6.9999999981689875e-01 -3.9616146939862867e-05 +0.0000000000000000e+00 +9.9999999921528038e-01
7.9999999999999993e-01 +7.9199818897604004e+00 +0.0000000000000000e+00 +7.9999999972668268e-01 -4.5275595852704467e-05 +0.0000000000000000e+00 +9.9999999897506009e-01
8.9999999999999991e-01 +7.9199770792283619e+00 +0.0000000000000000e+00 +8.9999999961084309e-01 -5.0935044954888512e-05 +0.0000000000000000e+00 +9.9999999870281042e-01
9.9999999999999989e-01 +7.9199717027513996e+00 +0.0000000000000000e+00 +9.9999999946617713e-01 -5.6594494338554365e-05 +0.0000000000000000e+00 +9.9999999839853138e-01
1.0999999999999999e+00 +7.9199657603294815e+00 +0.0000000000000000e+00 +1.0999999992894818e+00 -6.2253944085785068e-05 +0.0000000000000000e+00 +9.9999999806222295e-01
1.2000000000000000e+00 +7.9199592519625677e+00 +0.0000000000000000e+00 +1.1999999990775541e+00 -6.7913394268607398e-05 +0.0000000000000000e+00 +9.9999999769388515e-01
1.3000000000000000e+00 +7.9199521776506110e+00 +0.0000000000000000e+00 +1.2999999988271911e+00 -7.3572844948991979e-05 +0.0000000000000000e+00 +9.9999999729351796e-01
1.4000000000000001e+00 +7.9199445373935591e+00 +0.0000000000000000e+00 +1.3999999985351899e+00 -7.9232296178853419e-05 +0.0000000000000000e+00 +9.9999999686112129e-01
1.5000000000000002e+00 +7.9199363311913551e+00 +0.0000000000000000e+00 +1.4999999981983476e+00 -8.4891748000050446e-05 +0.0000000000000000e+00 +9.9999999639669523e-01
1.6000000000000003e+00 +7.9199275590439377e+00 +0.0000000000000000e+00 +1.5999999978134614e+00 -9.0551200444386045e-05 +0.0000000000000000e+00 +9.9999999590023969e-01
1.7000000000000004e+00 +7.9199182209512440e+00 +0.0000000000000000e+00 +1.6999999973773279e+00 -9.6210653533607672e-05 +0.0000000000000000e+00 +9.9999999537175466e-01
1.8000000000000005e+00 +7.9199083169132090e+00 +0.0000000000000000e+00 +1.7999999968867446e+00 -1.0187010727940742e-04 +0.0000000000000000e+00 +9.9999999481124024e-01
1.9000000000000006e+00 +7.9198978469297661e+00 +0.0000000000000000e+00 +1.8999999963385084e+00 -1.0752956168342222e-04 +0.0000000000000000e+00 +9.9999999421869634e-01
2.0000000000000004e+00 +7.9198868110008505e+00 +0.0000000000000000e+00 +1.9999999957294161e+00 -1.1318901673723413e-04 +0.0000000000000000e+00 +9.9999999359412295e-01
2.1000000000000005e+00 +7.9198752091263973e+00 +0.0000000000000000e+00 +2.0999999950562653e+00 -1.1884847242288319e-04 +0.0000000000000000e+00 +9.9999999293751995e-01
2.2000000000000006e+00 +7.9198630413063453e+00 +0.0000000000000000e+00 +2.1999999943158528e+00 -1.2450792871850628e-04 +0.0000000000000000e+00 +9.9999999224888747e-01
2.3000000000000007e+00 +7.9198503075406341e+00 +0.0000000000000000e+00 +2.2999999935049753e+00 -1.3016738560397604e-04 +0.0000000000000000e+00 +9.9999999152822550e-01
2.4000000000000008e+00 +7.9198370078292060e+00 +0.0000000000000000e+00 +2.3999999926204301e+00 -1.3582684306141327e-04 +0.0000000000000000e+00 +9.9999999077553403e-01
2.5000000000000009e+00 +7.9198231421720040e+00 +0.0000000000000000e+00 +2.4999999916590143e+00 -1.4148630107518688e-04 +0.0000000000000000e+00 +9.9999998999081297e-01
2.6000000000000010e+00 +7.9198087105689732e+00 +0.0000000000000000e+00 +2.5999999906175248e+00 -1.4714575963191369e-04 +0.0000000000000000e+00 +9.9999998917406241e-01
2.7000000000000011e+00 +7.9197937130200602e+00 +0.0000000000000000e+00 +2.6999999894927589e+00 -1.5280521872045827e-04 +0.0000000000000000e+00 +9.9999998832528225e-01
2.8000000000000012e+00 +7.9197781495252118e+00 +0.0000000000000000e+00 +2.7999999882815136e+00 -1.5846467833193276e-04 +0.0000000000000000e+00 +9.9999998744447249e-01
2.9000000000000012e+00 +7.9197620200843764e+00 +0.0000000000000000e+00 +2.8999999869805859e+00 -1.6412413845969662e-04 +0.0000000000000000e+00 +9.9999998653163324e-01
3.0000000000000013e+00 +7.9197453246975025e+00 +0.0000000000000000e+00 +2.9999999855867725e+00 -1.6978359909935643e-04 +0.0000000000000000e+00 +9.9999998558676439e-01
3.1000000000000014e+00 +7.9197280633645395e+00 +0.0000000000000000e+00 +3.0999999840968711e+00 -1.7544306024876557e-04 +0.0000000000000000e+00 +9.9999998460986594e-01
3.2000000000000015e+00 +7.9197102360854359e+00 +0.0000000000000000e+00 +3.1999999825076784e+00 -1.8110252190802398e-04 +0.0000000000000000e+00 +9.9999998360093789e-01
3.3000000000000016e+00 +7.9196918428601411e+00 +0.0000000000000000e+00 +3.2999999808159912e+00 -1.8676198407947776e-04 +0.0000000000000000e+00 +9.9999998255998024e-01
3.4000000000000017e+00 +7.9196728836886034e+00 +0.0000000000000000e+00 +3.3999999790186068e+00 -1.9242144676771890e-04 +0.0000000000000000e+00 +9.9999998148699298e-01
3.5000000000000018e+00 +7.9196533585707707e+00 +0.0000000000000000e+00 +3.4999999771123220e+00 -1.9808090997958488e-04 +0.0000000000000000e+00 +9.9999998038197613e-01
3.6000000000000019e+00 +7.9196332675065904e+00 +0.0000000000000000e+00 +3.5999999750939344e+00 -2.0374037372415828e-04 +0.0000000000000000e+00 +9.9999997924492956e-01
3.7000000000000020e+00 +7.9196126104960083e+00 +0.0000000000000000e+00 +3.6999999729602404e+00 -2.0939983801276639e-04 +0.0000000000000000e+00 +9.9999997807585339e-01
3.8000000000000020e+00 +7.9195913875389694e+00 +0.0000000000000000e+00 +3.7999999707080372e+00 -2.1505930285898073e-04 +0.0000000000000000e+00 +9.9999997687474762e-01
3.9000000000000021e+00 +7.9195695986354178e+00 +0.0000000000000000e+00 +3.8999999683341220e+00 -2.2071876827861663e-04 +0.0000000000000000e+00 +9.9999997564161214e-01
4.0000000000000018e+00 +7.9195472437852947e+00 +0.0000000000000000e+00 +3.9999999658352920e+00 -2.2637823428973264e-04 +0.0000000000000000e+00 +9.9999997437644694e-01
4.1000000000000014e+00 +7.9195243229885399e+00 +0.0000000000000000e+00 +4.0999999632083437e+00 -2.3203770091243743e-04 +0.0000000000000000e+00 +9.9999997307925204e-01
4.2000000000000011e+00 +7.9195008362450912e+00 +0.0000000000000000e+00 +4.1999999604500742e+00 -2.3769716816676861e-04 +0.0000000000000000e+00 +9.9999997175002742e-01
4.3000000000000007e+00 +7.9194767835548845e+00 +0.0000000000000000e+00 +4.2999999575572811e+00 -2.4335663607057221e-04 +0.0000000000000000e+00 +9.9999997038877309e-01
4.4000000000000004e+00 +7.9194521649178542e+00 +0.0000000000000000e+00 +4.3999999545267610e+00 -2.4901610463930998e-04 +0.0000000000000000e+00 +9.9999996899548904e-01
4.5000000000000000e+00 +7.9194269803339337e+00 +0.0000000000000000e+00 +4.4999999513553108e+00 -2.5467557388605966e-04 +0.0000000000000000e+00 +9.9999996757017517e-01
4.5999999999999996e+00 +7.9194012298030545e+00 +0.0000000000000000e+00 +4.5999999480397280e+00 -2.6033504382151493e-04 +0.0000000000000000e+00 +9.9999996611283160e-01
4.6999999999999993e+00 +7.9193749133251465e+00 +0.0000000000000000e+00 +4.6999999445768097e+00 -2.6599451445398584e-04 +0.0000000000000000e+00 +9.9999996462345819e-01
4.7999999999999989e+00 +7.9193480309001405e+00 +0.0000000000000000e+00 +4.7999999409633523e+00 -2.7165398578939885e-04 +0.0000000000000000e+00 +9.9999996310205497e-01
4.8999999999999986e+00 +7.9193205825279653e+00 +0.0000000000000000e+00 +4.8999999371961529e+00 -2.7731345783129702e-04 +0.0000000000000000e+00 +9.9999996154862192e-01
4.9999999999999982e+00 +7.9192925682085509e+00 +0.0000000000000000e+00 +4.9999999332720089e+00 -2.8297293058084045e-04 +0.0000000000000000e+00 +9.9999995996315905e-01
5.0999999999999979e+00 +7.9192639879418261e+00 +0.0000000000000000e+00 +5.0999999291877174e+00 -2.8863240403680627e-04 +0.0000000000000000e+00 +9.9999995834566635e-01
5.1999999999999975e+00 +7.9192348417277199e+00 +0.0000000000000000e+00 +5.1999999249400748e+00 -2.9429187819558918e-04 +0.0000000000000000e+00 +9.9999995669614383e-01
5.2999999999999972e+00 +7.9192051295661630e+00 +0.0000000000000000e+00 +5.2999999205258783e+00 -2.9995135305120146e-04 +0.0000000000000000e+00 +9.9999995501459149e-01
5.3999999999999968e+00 +7.9191748514570861e+00 +0.0000000000000000e+00 +5.3999999159419252e+00 -3.0561082859527355e-04 +0.0000000000000000e+00 +9.9999995330100921e-01
5.4999999999999964e+00 +7.9191440074004209e+00 +0.0000000000000000e+00 +5.4999999111850126e+00 -3.1127030481705413e-04 +0.0000000000000000e+00 +9.9999995155539712e-01
5.5999999999999961e+00 +7.9191125973961007e+00 +0.0000000000000000e+00 +5.5999999062519370e+00 -3.1692978170341058e-04 +0.0000000000000000e+00 +9.9999994977775508e-01
5.6999999999999957e+00 +7.9190806214440590e+00 +0.0000000000000000e+00 +5.6999999011394955e+00 -3.2258925923882938e-04 +0.0000000000000000e+00 +9.9999994796808311e-01
5.7999999999999954e+00 +7.9190480795442317e+00 +0.0000000000000000e+00 +5.7999998958444854e+00 -3.2824873740541630e-04 +0.0000000000000000e+00 +9.9999994612638132e-01
5.8999999999999950e+00 +7.9190149716965577e+00 +0.0000000000000000e+00 +5.8999998903637039e+00 -3.3390821618289705e-04 +0.0000000000000000e+00 +9.9999994425264960e-01
5.9999999999999947e+00 +7.9189812979009755e+00 +0.0000000000000000e+00 +5.9999998846939473e+00 -3.3956769554861744e-04 +0.0000000000000000e+00 +9.9999994234688794e-01
6.0999999999999943e+00 +7.9189470581574284e+00 +0.0000000000000000e+00 +6.0999998788320138e+00 -3.4522717547819380e-04 +0.0000000000000000e+00 +9.9999994040909645e-01
6.1999999999999940e+00 +7.9189122524658613e+00 +0.0000000000000000e+00 +6.1999998727746997e+00 -3.5088665595266205e-04 +0.0000000000000000e+00 +9.9999993843927504e-01
6.2999999999999936e+00 +7.9188768808262200e+00 +0.0000000000000000e+00 +6.2999998665188013e+00 -3.5654613696562668e-04 +0.0000000000000000e+00 +9.9999993643742369e-01
6.3999999999999932e+00 +7.9188409432384503e+00 +0.0000000000000000e+00 +6.3999998600611168e+00 -3.6220561852391052e-04 +0.0000000000000000e+00 +9.9999993440354240e-01
6.4999999999999929e+00 +7.9188044397024964e+00 +0.0000000000000000e+00 +6.4999998533984424e+00 -3.6786510064755500e-04 +0.0000000000000000e+00 +9.9999993233763118e-01
6.5999999999999925e+00 +7.9187673702183003e+00 +0.0000000000000000e+00 +6.5999998465275755e+00 -3.7352458336981998e-04 +0.0000000000000000e+00 +9.9999993023969003e-01
6.6999999999999922e+00 +7.9187297347858010e+00 +0.0000000000000000e+00 +6.6999998394453133e+00 -3.7918406673718394e-04 +0.0000000000000000e+00 +9.9999992810971883e-01
6.7999999999999918e+00 +7.9186915334049299e+00 +0.0000000000000000e+00 +6.7999998321484521e+00 -3.8484355080934399e-04 +0.0000000000000000e+00 +9.9999992594771758e-01
6.8999999999999915e+00 +7.9186527660756134e+00 +0.0000000000000000e+00 +6.8999998246337890e+00 -3.9050303565921587e-04 +0.0000000000000000e+00 +9.9999992375368629e-01
6.9999999999999911e+00 +7.9186134327977697e+00 +0.0000000000000000e+00 +6.9999998168981215e+00 -3.9616252137293401e-04 +0.0000000000000000e+00 +9.9999992152762485e-01
7.0999999999999908e+00 +7.9185735335713074e+00 +0.0000000000000000e+00 +7.0999998089382466e+00 -4.0182200804985161e-04 +0.0000000000000000e+00 +9.9999991926953324e-01
7.1999999999999904e+00 +7.9185330683961244e+00 +0.0000000000000000e+00 +7.1999998007509607e+00 -4.0748149580254069e-04 +0.0000000000000000e+00 +9.9999991697941137e-01
7.2999999999999901e+00 +7.9184920372721068e+00 +0.0000000000000000e+00 +7.2999997923330611e+00 -4.1314098475679200e-04 +0.0000000000000000e+00 +9.9999991465725924e-01
7.3999999999999897e+00 +7.9184504401991278e+00 +0.0000000000000000e+00 +7.3999997836813449e+00 -4.1880047505161528e-04 +0.0000000000000000e+00 +9.9999991230307672e-01
7.4999999999999893e+00 +7.9184082771770461e+00 +0.0000000000000000e+00 +7.4999997747926086e+00 -4.2445996683923912e-04 +0.0000000000000000e+00 +9.9999990991686372e-01
7.5999999999999890e+00 +7.9183655482057045e+00 +0.0000000000000000e+00 +7.5999997656636493e+00 -4.3011946028511110e-04 +0.0000000000000000e+00 +9.9999990749862011e-01
7.6999999999999886e+00 +7.9183222532849280e+00 +0.0000000000000000e+00 +7.6999997562912643e+00 -4.3577895556789776e-04 +0.0000000000000000e+00 +9.9999990504834591e-01
7.7999999999999883e+00 +7.9182783924145230e+00 +0.0000000000000000e+00 +7.7999997466722508e+00 -4.4143845287948478e-04 +0.0000000000000000e+00 +9.9999990256604088e-01
7.8999999999999879e+00 +7.9182339655942773e+00 +0.0000000000000000e+00 +7.8999997368034052e+00 -4.4709795242497686e-04 +0.0000000000000000e+00 +9.9999990005170492e-01
7.9999999999999876e+00 +7.9181889728239563e+00 +0.0000000000000000e+00 +7.9999997266815246e+00 -4.5275745442269791e-04 +0.0000000000000000e+00 +9.9999989750533791e-01
8.0999999999999872e+00 +7.9181434141033034e+00 +0.0000000000000000e+00 +8.0999997163034045e+00 -4.5841695910298975e-04 +0.0000000000000000e+00 +9.9999989492693975e-01
8.1999999999999869e+00 +7.9180972894320387e+00 +0.0000000000000000e+00 +8.1999997056658440e+00 -4.6407646669499928e-04 +0.0000000000000000e+00 +9.9999989231651021e-01
8.2999999999999865e+00 +7.9180505988098604e+00 +0.0000000000000000e+00 +8.2999996947656385e+00 -4.6973597741346509e-04 +0.0000000000000000e+00 +9.9999988967404918e-01
8.3999999999999861e+00 +7.9180033422364451e+00 +0.0000000000000000e+00 +8.3999996835995852e+00 -4.7539549145751643e-04 +0.0000000000000000e+00 +9.9999988699955644e-01
8.4999999999999858e+00 +7.9179555197114517e+00 +0.0000000000000000e+00 +8.4999996721644813e+00 -4.8105500901067305e-04 +0.0000000000000000e+00 +9.9999988429303188e-01
8.5999999999999854e+00 +7.9179071312345206e+00 +0.0000000000000000e+00 +8.5999996604571241e+00 -4.8671453024084517e-04 +0.0000000000000000e+00 +9.9999988155447539e-01
8.6999999999999851e+00 +7.9178581768052760e+00 +0.0000000000000000e+00 +8.6999996484743090e+00 -4.9237405530033350e-04 +0.0000000000000000e+00 +9.9999987878388685e-01
8.7999999999999847e+00 +7.9178086564233281e+00 +0.0000000000000000e+00 +8.7999996362128332e+00 -4.9803358432582909e-04 +0.0000000000000000e+00 +9.9999987598126616e-01
8.8999999999999844e+00 +7.9177585700882744e+00 +0.0000000000000000e+00 +8.8999996236694940e+00 -5.0369311743841342e-04 +0.0000000000000000e+00 +9.9999987314661309e-01
8.9999999999999840e+00 +7.9177079177997003e+00 +0.0000000000000000e+00 +8.9999996108410887e+00 -5.0935265474355822e-04 +0.0000000000000000e+00 +9.9999987027992754e-01
9.0999999999999837e+00 +7.9176566995571829e+00 +0.0000000000000000e+00 +9.0999995977244126e+00 -5.1501219633112542e-04 +0.0000000000000000e+00 +9.9999986738120938e-01
9.1999999999999833e+00 +7.9176049153602888e+00 +0.0000000000000000e+00 +9.1999995843162630e+00 -5.2067174227536726e-04 +0.0000000000000000e+00 +9.9999986445045852e-01
9.2999999999999829e+00 +7.9175525652085801e+00 +0.0000000000000000e+00 +9.2999995706134371e+00 -5.2633129263492606e-04 +0.0000000000000000e+00 +9.9999986148767495e-01
9.3999999999999826e+00 +7.9174996491016127e+00 +0.0000000000000000e+00 +9.3999995566127303e+00 -5.3199084745283412e-04 +0.0000000000000000e+00 +9.9999985849285844e-01
9.4999999999999822e+00 +7.9174461670389400e+00 +0.0000000000000000e+00 +9.4999995423109400e+00 -5.3765040675651397e-04 +0.0000000000000000e+00 +9.9999985546600900e-01
9.5999999999999819e+00 +7.9173921190201115e+00 +0.0000000000000000e+00 +9.5999995277048633e+00 -5.4330997055777788e-04 +0.0000000000000000e+00 +9.9999985240712641e-01
9.6999999999999815e+00 +7.9173375050446788e+00 +0.0000000000000000e+00 +9.6999995127912975e+00 -5.4896953885282820e-04 +0.0000000000000000e+00 +9.9999984931621066e-01
9.7999999999999812e+00 +7.9172823251121924e+00 +0.0000000000000000e+00 +9.7999994975670379e+00 -5.5462911162225696e-04 +0.0000000000000000e+00 +9.9999984619326177e-01
9.8999999999999808e+00 +7.9172265792222065e+00 +0.0000000000000000e+00 +9.8999994820288819e+00 -5.6028868883104595e-04 +0.0000000000000000e+00 +9.9999984303827960e-01
9.9999999999999805e+00 +7.9171702673742796e+00 +0.0000000000000000e+00 +9.9999994661736267e+00 -5.6594827042856673e-04 +0.0000000000000000e+00 +9.9999983985126406e-01
1.0099999999999980e+01 +7.9171133895679766e+00 +0.0000000000000000e+00 +1.0099999449998068e+01 -5.7160785634934714e-04 +0.0000000000000000e+00 +9.9999983663221526e-01
1.0199999999999980e+01 +7.9170559458028684e+00 +0.0000000000000000e+00 +1.0199999433499002e+01 -5.7726744652150631e-04 +0.0000000000000000e+00 +9.9999983338113307e-01
1.0299999999999979e+01 +7.9169979360785332e+00 +0.0000000000000000e+00 +1.0299999416673227e+01 -5.8292704087518964e-04 +0.0000000000000000e+00 +9.9999983009801741e-01
1.0399999999999979e+01 +7.9169393603945561e+00 +0.0000000000000000e+00 +1.0399999399517538e+01 -5.8858663934333488e-04 +0.0000000000000000e+00 +9.9999982678286836e-01
1.0499999999999979e+01 +7.9168802187505296e+00 +0.0000000000000000e+00 +1.0499999382028733e+01 -5.9424624186167185e-04 +0.0000000000000000e+00 +9.9999982343568583e-01
1.0599999999999978e+01 +7.9168205111460512e+00 +0.0000000000000000e+00 +1.0599999364203608e+01 -5.9990584836872171e-04 +0.0000000000000000e+00 +9.9999982005646981e-01
1.0699999999999978e+01 +7.9167602375807249e+00 +0.0000000000000000e+00 +1.0699999346038959e+01 -6.0556545880579671e-04 +0.0000000000000000e+00 +9.9999981664522020e-01
1.0799999999999978e+01 +7.9166993980541607e+00 +0.0000000000000000e+00 +1.0799999327531584e+01 -6.1122507311699940e-04 +0.0000000000000000e+00 +9.9999981320193698e-01
1.0899999999999977e+01 +7.9166379925659740e+00 +0.0000000000000000e+00 +1.0899999308678279e+01 -6.1688469124922241e-04 +0.0000000000000000e+00 +9.9999980972662017e-01
1.0999999999999977e+01 +7.9165760211157847e+00 +0.0000000000000000e+00 +1.0999999289475840e+01 -6.2254431315214771e-04 +0.0000000000000000e+00 +9.9999980621926976e-01
1.1099999999999977e+01 +7.9165134837032189e+00 +0.0000000000000000e+00 +1.1099999269921064e+01 -6.2820393877824603e-04 +0.0000000000000000e+00 +9.9999980267988564e-01
1.1199999999999976e+01 +7.9164503803279063e+00 +0.0000000000000000e+00 +1.1199999250010748e+01 -6.3386356808277627e-04 +0.0000000000000000e+00 +9.9999979910846781e-01
1.1299999999999976e+01 +7.9163867109894808e+00 +0.0000000000000000e+00 +1.1299999229741688e+01 -6.3952320102378510e-04 +0.0000000000000000e+00 +9.9999979550501628e-01
1.1399999999999975e+01 +7.9163224756875810e+00 +0.0000000000000000e+00 +1.1399999209110682e+01 -6.4518283756210626e-04 +0.0000000000000000e+00 +9.9999979186953092e-01
1.1499999999999975e+01 +7.9162576744218489e+00 +0.0000000000000000e+00 +1.1499999188114526e+01 -6.5084247766135979e-04 +0.0000000000000000e+00 +9.9999978820201174e-01
1.1599999999999975e+01 +7.9161923071919311e+00 +0.0000000000000000e+00 +1.1599999166750017e+01 -6.5650212128795168e-04 +0.0000000000000000e+00 +9.9999978450245863e-01
1.1699999999999974e+01 +7.9161263739974750e+00 +0.0000000000000000e+00 +1.1699999145013951e+01 -6.6216176841107314e-04 +0.0000000000000000e+00 +9.9999978077087170e-01
1.1799999999999974e+01 +7.9160598748381332e+00 +0.0000000000000000e+00 +1.1799999122903124e+01 -6.6782141900269992e-04 +0.0000000000000000e+00 +9.9999977700725085e-01
