# trajectory
# s[mm] rx[mm] ry[mm] rz[mm] px[rad] py[rad] pz[rad]
0.0000000000000000e+00 +8.1529999999999987e+00 +0.0000000000000000e+00 +0.0000000000000000e+00 +0.0000000000000000e+00 +0.0000000000000000e+00 +1.0000000000000000e+00
-1.0000000000000001e-01 +8.1529997169678712e+00 +0.0000000000000000e+00 -9.9999999999465961e-02 +5.6606430262703133e-06 +0.0000000000000000e+00 +9.9999999998397859e-01
-2.0000000000000001e-01 +8.1529988678712932e+00 +0.0000000000000000e+00 -1.9999999999572765e-01 +1.1321289015251861e-05 +0.0000000000000000e+00 +9.9999999993591426e-01
-3.0000000000000004e-01 +8.1529974527099682e+00 +0.0000000000000000e+00 -2.9999999998558075e-01 +1.6981937999354512e-05 +0.0000000000000000e+00 +9.9999999985580690e-01
-4.0000000000000002e-01 +8.1529954714835942e+00 +0.0000000000000000e+00 -3.9999999996582092e-01 +2.2642590002686421e-05 +0.0000000000000000e+00 +9.9999999974365661e-01
-5.0000000000000000e-01 +8.1529929241918673e+00 +0.0000000000000000e+00 -4.9999999993324395e-01 +2.8303245041053986e-05 +0.0000000000000000e+00 +9.9999999959946317e-01
-5.9999999999999998e-01 +8.1529898108344838e+00 +0.0000000000000000e+00 -5.9999999988464547e-01 +3.3963903121961764e-05 +0.0000000000000000e+00 +9.9999999942322670e-01
-6.9999999999999996e-01 +8.1529861314111400e+00 +0.0000000000000000e+00 -6.9999999981682115e-01 +3.9624564244612390e-05 +0.0000000000000000e+00 +9.9999999921494698e-01
-7.9999999999999993e-01 +8.1529818859215322e+00 +0.0000000000000000e+00 -7.9999999972656677e-01 +4.5285228399906495e-05 +0.0000000000000000e+00 +9.9999999897462410e-01
-8.9999999999999991e-01 +8.1529770743653582e+00 +0.0000000000000000e+00 -8.9999999961067789e-01 +5.0945895570442635e-05 +0.0000000000000000e+00 +9.9999999870225798e-01
-9.9999999999999989e-01 +8.1529716967423180e+00 +0.0000000000000000e+00 -9.9999999946595031e-01 +5.6606565730517174e-05 +0.0000000000000000e+00 +9.9999999839784848e-01
-1.0999999999999999e+00 +8.1529657530521131e+00 +0.0000000000000000e+00 -1.0999999992891796e+00 +6.2267238846124186e-05 +0.0000000000000000e+00 +9.9999999806139561e-01
-1.2000000000000000e+00 +8.1529592432944504e+00 +0.0000000000000000e+00 -1.1999999990771613e+00 +6.7927914874955364e-05 +0.0000000000000000e+00 +9.9999999769289927e-01
-1.3000000000000000e+00 +8.1529521674690422e+00 +0.0000000000000000e+00 -1.2999999988266913e+00 +7.3588593766399886e-05 +0.0000000000000000e+00 +9.9999999729235955e-01
-1.4000000000000001e+00 +8.1529445255756041e+00 +0.0000000000000000e+00 -1.3999999985345650e+00 +7.9249275461544308e-05 +0.0000000000000000e+00 +9.9999999685977625e-01
-1.5000000000000002e+00 +8.1529363176138592e+00 +0.0000000000000000e+00 -1.4999999981975782e+00 +8.4909959893172417e-05 +0.0000000000000000e+00 +9.9999999639514947e-01
-1.6000000000000003e+00 +8.1529275435835373e+00 +0.0000000000000000e+00 -1.5999999978125268e+00 +9.0570646985765129e-05 +0.0000000000000000e+00 +9.9999999589847910e-01
-1.7000000000000004e+00 +8.1529182034843757e+00 +0.0000000000000000e+00 -1.6999999973762061e+00 +9.6231336655500332e-05 +0.0000000000000000e+00 +9.9999999536976503e-01
-1.8000000000000005e+00 +8.1529082973161220e+00 +0.0000000000000000e+00 -1.7999999968854117e+00 +1.0189202881025275e-04 +0.0000000000000000e+00 +9.9999999480900736e-01
-1.9000000000000006e+00 +8.1528978250785329e+00 +0.0000000000000000e+00 -1.8999999963369394e+00 +1.0755272334959378e-04 +0.0000000000000000e+00 +9.9999999421620600e-01
-2.0000000000000004e+00 +8.1528867867713757e+00 +0.0000000000000000e+00 -1.9999999957275847e+00 +1.1321342016479135e-04 +0.0000000000000000e+00 +9.9999999359136094e-01
-2.1000000000000005e+00 +8.1528751823944283e+00 +0.0000000000000000e+00 -2.0999999950541435e+00 +1.1887411913985406e-04 +0.0000000000000000e+00 +9.9999999293447206e-01
-2.2000000000000006e+00 +8.1528630119474794e+00 +0.0000000000000000e+00 -2.1999999943134112e+00 +1.2453482016301870e-04 +0.0000000000000000e+00 +9.9999999224553948e-01
-2.3000000000000007e+00 +8.1528502754303300e+00 +0.0000000000000000e+00 -2.2999999935021833e+00 +1.3019552313823786e-04 +0.0000000000000000e+00 +9.9999999152456309e-01
-2.4000000000000008e+00 +8.1528369728427883e+00 +0.0000000000000000e+00 -2.3999999926172557e+00 +1.3585622798622436e-04 +0.0000000000000000e+00 +9.9999999077154289e-01
-2.5000000000000009e+00 +8.1528231041846713e+00 +0.0000000000000000e+00 -2.4999999916554239e+00 +1.4151693464445133e-04 +0.0000000000000000e+00 +9.9999998998647888e-01
-2.6000000000000010e+00 +8.1528086694557995e+00 +0.0000000000000000e+00 -2.5999999906134832e+00 +1.4717764306715239e-04 +0.0000000000000000e+00 +9.9999998916937094e-01
-2.7000000000000011e+00 +8.1527936686559990e+00 +0.0000000000000000e+00 -2.6999999894882296e+00 +1.5283835322532180e-04 +0.0000000000000000e+00 +9.9999998832021908e-01
-2.8000000000000012e+00 +8.1527781017850973e+00 +0.0000000000000000e+00 -2.7999999882764586e+00 +1.5849906510671460e-04 +0.0000000000000000e+00 +9.9999998743902341e-01
-2.9000000000000012e+00 +8.1527619688429205e+00 +0.0000000000000000e+00 -2.8999999869749660e+00 +1.6415977871584692e-04 +0.0000000000000000e+00 +9.9999998652578370e-01
-3.0000000000000013e+00 +8.1527452698292961e+00 +0.0000000000000000e+00 -2.9999999855805473e+00 +1.6982049407399607e-04 +0.0000000000000000e+00 +9.9999998558050007e-01
-3.1000000000000014e+00 +8.1527280047440467e+00 +0.0000000000000000e+00 -3.0999999840899979e+00 +1.7548121121920086e-04 +0.0000000000000000e+00 +9.9999998460317241e-01
-3.2000000000000015e+00 +8.1527101735869909e+00 +0.0000000000000000e+00 -3.1999999825001137e+00 +1.8114193020626193e-04 +0.0000000000000000e+00 +9.9999998359380071e-01
-3.3000000000000016e+00 +8.1526917763579423e+00 +0.0000000000000000e+00 -3.2999999808076899e+00 +1.8680265110674197e-04 +0.0000000000000000e+00 +9.9999998255238487e-01
-3.4000000000000017e+00 +8.1526728130567037e+00 +0.0000000000000000e+00 -3.3999999790095226e+00 +1.9246337400896603e-04 +0.0000000000000000e+00 +9.9999998147892488e-01
-3.5000000000000018e+00 +8.1526532836830707e+00 +0.0000000000000000e+00 -3.4999999771024068e+00 +1.9812409901802193e-04 +0.0000000000000000e+00 +9.9999998037342075e-01
-3.6000000000000019e+00 +8.1526331882368268e+00 +0.0000000000000000e+00 -3.5999999750831386e+00 +2.0378482625576057e-04 +0.0000000000000000e+00 +9.9999997923587236e-01
-3.7000000000000020e+00 +8.1526125267177409e+00 +0.0000000000000000e+00 -3.6999999729485133e+00 +2.0944555586079633e-04 +0.0000000000000000e+00 +9.9999997806627960e-01
-3.8000000000000020e+00 +8.1525912991255698e+00 +0.0000000000000000e+00 -3.7999999706953265e+00 +2.1510628798850751e-04 +0.0000000000000000e+00 +9.9999997686464248e-01
-3.9000000000000021e+00 +8.1525695054600522e+00 +0.0000000000000000e+00 -3.8999999683203739e+00 +2.2076702281103675e-04 +0.0000000000000000e+00 +9.9999997563096088e-01
-4.0000000000000018e+00 +8.1525471457209111e+00 +0.0000000000000000e+00 -3.9999999658204506e+00 +2.2642776051729141e-04 +0.0000000000000000e+00 +9.9999997436523469e-01
-4.1000000000000014e+00 +8.1525242199078463e+00 +0.0000000000000000e+00 -4.0999999631923529e+00 +2.3208850131176543e-04 +0.0000000000000000e+00 +9.9999997306746380e-01
-4.2000000000000011e+00 +8.1525007280205397e+00 +0.0000000000000000e+00 -4.1999999604328755e+00 +2.3774924540157313e-04 +0.0000000000000000e+00 +9.9999997173764810e-01
-4.3000000000000007e+00 +8.1524766700586504e+00 +0.0000000000000000e+00 -4.2999999575388141e+00 +2.4340999298348289e-04 +0.0000000000000000e+00 +9.9999997037578758e-01
-4.4000000000000004e+00 +8.1524520460218213e+00 +0.0000000000000000e+00 -4.3999999545069644e+00 +2.4907074424273851e-04 +0.0000000000000000e+00 +9.9999996898188204e-01
-4.5000000000000000e+00 +8.1524268559096740e+00 +0.0000000000000000e+00 -4.4999999513341224e+00 +2.5473149935305918e-04 +0.0000000000000000e+00 +9.9999996755593146e-01
-4.5999999999999996e+00 +8.1524010997218159e+00 +0.0000000000000000e+00 -4.5999999480170830e+00 +2.6039225847663964e-04 +0.0000000000000000e+00 +9.9999996609793562e-01
-4.6999999999999993e+00 +8.1523747774578386e+00 +0.0000000000000000e+00 -4.6999999445526415e+00 +2.6605302176414998e-04 +0.0000000000000000e+00 +9.9999996460789453e-01
-4.7999999999999989e+00 +8.1523478891173191e+00 +0.0000000000000000e+00 -4.7999999409375933e+00 +2.7171378935473596e-04 +0.0000000000000000e+00 +9.9999996308580796e-01
-4.8999999999999986e+00 +8.1523204346998206e+00 +0.0000000000000000e+00 -4.8999999371687348e+00 +2.7737456137601874e-04 +0.0000000000000000e+00 +9.9999996153167592e-01
-4.9999999999999982e+00 +8.1522924142048936e+00 +0.0000000000000000e+00 -4.9999999332428606e+00 +2.8303533794409518e-04 +0.0000000000000000e+00 +9.9999995994549828e-01
-5.0999999999999979e+00 +8.1522638276320780e+00 +0.0000000000000000e+00 -5.0999999291567661e+00 +2.8869611916353761e-04 +0.0000000000000000e+00 +9.9999995832727484e-01
-5.1999999999999975e+00 +8.1522346749809032e+00 +0.0000000000000000e+00 -5.1999999249072468e+00 +2.9435690512739405e-04 +0.0000000000000000e+00 +9.9999995667700559e-01
-5.2999999999999972e+00 +8.1522049562508911e+00 +0.0000000000000000e+00 -5.2999999204910990e+00 +3.0001769591718800e-04 +0.0000000000000000e+00 +9.9999995499469041e-01
-5.3999999999999968e+00 +8.1521746714415571e+00 +0.0000000000000000e+00 -5.3999999159051173e+00 +3.0567849160291857e-04 +0.0000000000000000e+00 +9.9999995328032920e-01
-5.4999999999999964e+00 +8.1521438205524070e+00 +0.0000000000000000e+00 -5.4999999111460971e+00 +3.1133929224306048e-04 +0.0000000000000000e+00 +9.9999995153392174e-01
-5.5999999999999961e+00 +8.1521124035829420e+00 +0.0000000000000000e+00 -5.5999999062108339e+00 +3.1700009788456391e-04 +0.0000000000000000e+00 +9.9999994975546802e-01
-5.6999999999999957e+00 +8.1520804205326609e+00 +0.0000000000000000e+00 -5.6999999010961231e+00 +3.2266090856285462e-04 +0.0000000000000000e+00 +9.9999994794496805e-01
-5.7999999999999954e+00 +8.1520478714010594e+00 +0.0000000000000000e+00 -5.7999998957987593e+00 +3.2832172430183386e-04 +0.0000000000000000e+00 +9.9999994610242160e-01
-5.8999999999999950e+00 +8.1520147561876311e+00 +0.0000000000000000e+00 -5.8999998903155388e+00 +3.3398254511387833e-04 +0.0000000000000000e+00 +9.9999994422782856e-01
-5.9999999999999947e+00 +8.1519810748918680e+00 +0.0000000000000000e+00 -5.9999998846432572e+00 +3.3964337099984016e-04 +0.0000000000000000e+00 +9.9999994232118894e-01
-6.0999999999999943e+00 +8.1519468275132621e+00 +0.0000000000000000e+00 -6.0999998787787089e+00 +3.4530420194978171e-04 +0.0000000000000000e+00 +9.9999994038250262e-01
-6.1999999999999940e+00 +8.1519120140513088e+00 +0.0000000000000000e+00 -6.1999998727186894e+00 +3.5096503795105935e-04 +0.0000000000000000e+00 +9.9999993841176948e-01
-6.2999999999999936e+00 +8.1518766345055038e+00 +0.0000000000000000e+00 -6.2999998664599941e+00 +3.5662587899640676e-04 +0.0000000000000000e+00 +9.9999993640898954e-01
-6.3999999999999932e+00 +8.1518406888753425e+00 +0.0000000000000000e+00 -6.3999998599994186e+00 +3.6228672508466974e-04 +0.0000000000000000e+00 +9.9999993437416257e-01
-6.4999999999999929e+00 +8.1518041771603187e+00 +0.0000000000000000e+00 -6.4999998533337582e+00 +3.6794757622080580e-04 +0.0000000000000000e+00 +9.9999993230728856e-01
-6.5999999999999925e+00 +8.1517670993599296e+00 +0.0000000000000000e+00 -6.5999998464598084e+00 +3.7360843241588380e-04 +0.0000000000000000e+00 +9.9999993020836742e-01
-6.6999999999999922e+00 +8.1517294554736672e+00 +0.0000000000000000e+00 -6.6999998393743638e+00 +3.7926929368708361e-04 +0.0000000000000000e+00 +9.9999992807739913e-01
-6.7999999999999918e+00 +8.1516912455010218e+00 +0.0000000000000000e+00 -6.7999998320742199e+00 +3.8493016005769568e-04 +0.0000000000000000e+00 +9.9999992591438347e-01
-6.8999999999999915e+00 +8.1516524694414834e+00 +0.0000000000000000e+00 -6.8999998245561720e+00 +3.9059103155712077e-04 +0.0000000000000000e+00 +9.9999992371932045e-01
-6.9999999999999911e+00 +8.1516131272945369e+00 +0.0000000000000000e+00 -6.9999998168170157e+00 +3.9625190822086947e-04 +0.0000000000000000e+00 +9.9999992149220984e-01
-7.0999999999999908e+00 +8.1515732190596655e+00 +0.0000000000000000e+00 -7.0999998088535454e+00 +4.0191279009056181e-04 +0.0000000000000000e+00 +9.9999991923305165e-01
-7.1999999999999904e+00 +8.1515327447363450e+00 +0.0000000000000000e+00 -7.1999998006625576e+00 +4.0757367721392680e-04 +0.0000000000000000e+00 +9.9999991694184565e-01
-7.2999999999999901e+00 +8.1514917043240462e+00 +0.0000000000000000e+00 -7.2999997922408468e+00 +4.1323456964480199e-04 +0.0000000000000000e+00 +9.9999991461859183e-01
-7.3999999999999897e+00 +8.1514500978222362e+00 +0.0000000000000000e+00 -7.3999997835852076e+00 +4.1889546744313300e-04 +0.0000000000000000e+00 +9.9999991226329010e-01
-7.4999999999999893e+00 +8.1514079252303766e+00 +0.0000000000000000e+00 -7.4999997746924363e+00 +4.2455637067497306e-04 +0.0000000000000000e+00 +9.9999990987594023e-01
-7.5999999999999890e+00 +8.1513651865479186e+00 +0.0000000000000000e+00 -7.5999997655593274e+00 +4.3021727941248245e-04 +0.0000000000000000e+00 +9.9999990745654221e-01
-7.6999999999999886e+00 +8.1513218817743081e+00 +0.0000000000000000e+00 -7.6999997561826765e+00 +4.3587819373392815e-04 +0.0000000000000000e+00 +9.9999990500509583e-01
-7.7999999999999883e+00 +8.1512780109089835e+00 +0.0000000000000000e+00 -7.7999997465592781e+00 +4.4153911372368310e-04 +0.0000000000000000e+00 +9.9999990252160098e-01
-7.8999999999999879e+00 +8.1512335739513713e+00 +0.0000000000000000e+00 -7.8999997366859285e+00 +4.4720003947222586e-04 +0.0000000000000000e+00 +9.9999990000605754e-01
-7.9999999999999876e+00 +8.1511885709008922e+00 +0.0000000000000000e+00 -7.9999997265594214e+00 +4.5286097107613983e-04 +0.0000000000000000e+00 +9.9999989745846540e-01
-8.0999999999999872e+00 +8.1511430017569566e+00 +0.0000000000000000e+00 -8.0999997161765531e+00 +4.5852190863739832e-04 +0.0000000000000000e+00 +9.9999989487882435e-01
-8.1999999999999869e+00 +8.1510968665189623e+00 +0.0000000000000000e+00 -8.1999997055341183e+00 +4.6418285225550374e-04 +0.0000000000000000e+00 +9.9999989226713426e-01
-8.2999999999999865e+00 +8.1510501651862999e+00 +0.0000000000000000e+00 -8.2999996946289123e+00 +4.6984380201962688e-04 +0.0000000000000000e+00 +9.9999988962339503e-01
-8.3999999999999861e+00 +8.1510028977583513e+00 +0.0000000000000000e+00 -8.3999996834577288e+00 +4.7550475800789215e-04 +0.0000000000000000e+00 +9.9999988694760644e-01
-8.4999999999999858e+00 +8.1509550642344895e+00 +0.0000000000000000e+00 -8.4999996720173652e+00 +4.8116572028737736e-04 +0.0000000000000000e+00 +9.9999988423976838e-01
-8.5999999999999854e+00 +8.1509066646140820e+00 +0.0000000000000000e+00 -8.5999996603046149e+00 +4.8682668891411341e-04 +0.0000000000000000e+00 +9.9999988149988073e-01
-8.6999999999999851e+00 +8.1508576988964929e+00 +0.0000000000000000e+00 -8.6999996483162736e+00 +4.9248766393308408e-04 +0.0000000000000000e+00 +9.9999987872794338e-01
-8.7999999999999847e+00 +8.1508081670810810e+00 +0.0000000000000000e+00 -8.7999996360491348e+00 +4.9814864537822570e-04 +0.0000000000000000e+00 +9.9999987592395612e-01
-8.8999999999999844e+00 +8.1507580691672015e+00 +0.0000000000000000e+00 -8.8999996234999958e+00 +5.0380963327242704e-04 +0.0000000000000000e+00 +9.9999987308791893e-01
-8.9999999999999840e+00 +8.1507074051542112e+00 +0.0000000000000000e+00 -8.9999996106656504e+00 +5.0947062762752876e-04 +0.0000000000000000e+00 +9.9999987021983161e-01
-9.0999999999999837e+00 +8.1506561750414619e+00 +0.0000000000000000e+00 -9.0999995975428938e+00 +5.1513162844432354e-04 +0.0000000000000000e+00 +9.9999986731969415e-01
-9.1999999999999833e+00 +8.1506043788283069e+00 +0.0000000000000000e+00 -9.1999995841285216e+00 +5.2079263571255536e-04 +0.0000000000000000e+00 +9.9999986438750632e-01
-9.2999999999999829e+00 +8.1505520165141050e+00 +0.0000000000000000e+00 -9.2999995704193275e+00 +5.2645364941091954e-04 +0.0000000000000000e+00 +9.9999986142326813e-01
-9.3999999999999826e+00 +8.1504990880982131e+00 +0.0000000000000000e+00 -9.3999995564121068e+00 +5.3211466950706229e-04 +0.0000000000000000e+00 +9.9999985842697947e-01
-9.4999999999999822e+00 +8.1504455935799918e+00 +0.0000000000000000e+00 -9.4999995421036552e+00 +5.3777569595758062e-04 +0.0000000000000000e+00 +9.9999985539864022e-01
-9.5999999999999819e+00 +8.1503915329588104e+00 +0.0000000000000000e+00 -9.5999995274907661e+00 +5.4343672870802166e-04 +0.0000000000000000e+00 +9.9999985233825028e-01
-9.6999999999999815e+00 +8.1503369062340418e+00 +0.0000000000000000e+00 -9.6999995125702370e+00 +5.4909776769288270e-04 +0.0000000000000000e+00 +9.9999984924580965e-01
-9.7999999999999812e+00 +8.1502817134050662e+00 +0.0000000000000000e+00 -9.7999994973388596e+00 +5.5475881283561081e-04 +0.0000000000000000e+00 +9.9999984612131820e-01
-9.8999999999999808e+00 +8.1502259544712725e+00 +0.0000000000000000e+00 -9.8999994817934311e+00 +5.6041986404860246e-04 +0.0000000000000000e+00 +9.9999984296477595e-01
-9.9999999999999805e+00 +8.1501696294320585e+00 +0.0000000000000000e+00 -9.9999994659307454e+00 +5.6608092123320338e-04 +0.0000000000000000e+00 +9.9999983977618279e-01
-1.0099999999999980e+01 +8.1501127382868308e+00 +0.0000000000000000e+00 -1.0099999449747598e+01 +5.7174198428041516e-04 +0.0000000000000000e+00 +9.9999983655553870e-01
-1.0199999999999980e+01 +8.1500552810350104e+00 +0.0000000000000000e+00 -1.0199999433240784e+01 +5.7740305307867458e-04 +0.0000000000000000e+00 +9.9999983330284359e-01
-1.0299999999999979e+01 +8.1499972576760271e+00 +0.0000000000000000e+00 -1.0299999416407099e+01 +5.8306412752163399e-04 +0.0000000000000000e+00 +9.9999983001809745e-01
-1.0399999999999979e+01 +8.1499386682093213e+00 +0.0000000000000000e+00 -1.0399999399243336e+01 +5.8872520750886915e-04 +0.0000000000000000e+00 +9.9999982670130028e-01
-1.0499999999999979e+01 +8.1498795126343442e+00 +0.0000000000000000e+00 -1.0499999381746290e+01 +5.9438629294588069e-04 +0.0000000000000000e+00 +9.9999982335245208e-01
-1.0599999999999978e+01 +8.1498197909505539e+00 +0.0000000000000000e+00 -1.0599999363912758e+01 +6.0004738374409513e-04 +0.0000000000000000e+00 +9.9999981997155274e-01
-1.0699999999999978e+01 +8.1497595031574193e+00 +0.0000000000000000e+00 -1.0699999345739533e+01 +6.0570847982086647e-04 +0.0000000000000000e+00 +9.9999981655860226e-01
-1.0799999999999978e+01 +8.1496986492544163e+00 +0.0000000000000000e+00 -1.0799999327223411e+01 +6.1136958109947676e-04 +0.0000000000000000e+00 +9.9999981311360053e-01
-1.0899999999999977e+01 +8.1496372292410282e+00 +0.0000000000000000e+00 -1.0899999308361185e+01 +6.1703068750913813e-04 +0.0000000000000000e+00 +9.9999980963654755e-01
-1.0999999999999977e+01 +8.1495752431167450e+00 +0.0000000000000000e+00 -1.0999999289149651e+01 +6.2269179898499349e-04 +0.0000000000000000e+00 +9.9999980612744332e-01
-1.1099999999999977e+01 +8.1495126908810640e+00 +0.0000000000000000e+00 -1.1099999269585604e+01 +6.2835291546811819e-04 +0.0000000000000000e+00 +9.9999980258628773e-01
-1.1199999999999976e+01 +8.1494495725334861e+00 +0.0000000000000000e+00 -1.1199999249665840e+01 +6.3401403690552130e-04 +0.0000000000000000e+00 +9.9999979901308067e-01
-1.1299999999999976e+01 +8.1493858880735193e+00 +0.0000000000000000e+00 -1.1299999229387153e+01 +6.3967516325014705e-04 +0.0000000000000000e+00 +9.9999979540782225e-01
-1.1399999999999975e+01 +8.1493216375006750e+00 +0.0000000000000000e+00 -1.1399999208746337e+01 +6.4533629446087619e-04 +0.0000000000000000e+00 +9.9999979177051224e-01
-1.1499999999999975e+01 +8.1492568208144665e+00 +0.0000000000000000e+00 -1.1499999187740187e+01 +6.5099743050252745e-04 +0.0000000000000000e+00 +9.9999978810115064e-01
-1.1599999999999975e+01 +8.1491914380144141e+00 +0.0000000000000000e+00 -1.1599999166365498e+01 +6.5665857134585926e-04 +0.0000000000000000e+00 +9.9999978439973747e-01
-1.1699999999999974e+01 +8.1491254891000384e+00 +0.0000000000000000e+00 -1.1699999144619065e+01 +6.6231971696757101e-04 +0.0000000000000000e+00 +9.9999978066627260e-01
