# multipoles
# s[mm] polynom_b[n=0][T/m^n] polynom_b[n=1][T/m^n] polynom_b[n=2][T/m^n] polynom_b[n=3][T/m^n] polynom_b[n=4][T/m^n] polynom_b[n=5][T/m^n] polynom_b[n=6][T/m^n] 
-0.0000000000000000e+00 -5.6439864157120823e-01 +7.7329673034743154e+00 -2.8740349674893823e-01 +1.4299449621507025e+01 +1.1620885856295765e+03 -2.4321709064969805e+05 -1.4386286975793954e+07 
-1.0000000000000001e-01 -5.6439859347276033e-01 +7.7329755065540020e+00 -2.9474173520689750e-01 +1.4147986290962409e+01 +1.2952049686225300e+03 -2.4223258747013504e+05 -1.4948566604809249e+07 
-2.0000000000000001e-01 -5.6439853478771451e-01 +7.7329861594134908e+00 -3.0268933403526982e-01 +1.3937980124048602e+01 +1.4332367857062907e+03 -2.4092634155549092e+05 -1.5522822864974627e+07 
-2.9999999999999999e-01 -5.6439846723674625e-01 +7.7329989463241056e+00 -3.1115918072982235e-01 +1.3677476896284743e+01 +1.5752210929283276e+03 -2.3934482313904367e+05 -1.6105979617429303e+07 
-4.0000000000000002e-01 -5.6439839254054436e-01 +7.7330135515563612e+00 -3.2006416310704988e-01 +1.3374522459827745e+01 +1.7201949528212015e+03 -2.3753450302884891e+05 -1.6694960757649869e+07 
-5.0000000000000000e-01 -5.6439831241971716e-01 +7.7330296593852657e+00 -3.2931716858336663e-01 +1.3037162568661294e+01 +1.8671954217850357e+03 -2.3554185153988624e+05 -1.7286690157167256e+07 
-5.9999999999999998e-01 -5.6439822859492594e-01 +7.7330469540869693e+00 -3.3883108525286026e-01 +1.2673442965044098e+01 +2.0152595705347333e+03 -2.3341333895305198e+05 -1.7878091759886209e+07 
-6.9999999999999996e-01 -5.6439814278693812e-01 +7.7330651199347171e+00 -3.4851879868205787e-01 +1.2291409511324574e+01 +2.1634244246756875e+03 -2.3119543631993962e+05 -1.8466089302413657e+07 
-8.0000000000000004e-01 -5.6439805671632415e-01 +7.7330838412033991e+00 -3.5829319799102183e-01 +1.1899108020595307e+01 +2.3107270769803595e+03 -2.2893461437465865e+05 -1.9047606838694733e+07 
-9.0000000000000002e-01 -5.6439797210377762e-01 +7.7331028021659982e+00 -3.6806717093108970e-01 +1.1504584370973145e+01 +2.4562045945694067e+03 -2.2667734421577334e+05 -1.9619568299942322e+07 
-1.0000000000000000e+00 -5.6439789066997548e-01 +7.7331216870930559e+00 -3.7775360718621126e-01 +1.1115884517440682e+01 +2.5988940791327041e+03 -2.2447009737128537e+05 -2.0178897771283209e+07 
-1.1000000000000001e+00 -5.6439781413550405e-01 +7.7331401802501949e+00 -3.8726539744894889e-01 +1.0741054548270654e+01 +2.7378326547355259e+03 -2.2235934606904871e+05 -2.0722519450476911e+07 
-1.2000000000000000e+00 -5.6439774422104727e-01 +7.7331579658941241e+00 -3.9651543433961223e-01 +1.0388140787919147e+01 +2.8720574814374954e+03 -2.2039156380298603e+05 -2.1247357698977038e+07 
-1.3000000000000000e+00 -5.6439768264715462e-01 +7.7331747282863832e+00 -4.0541661269199220e-01 +1.0065189404952093e+01 +3.0006057574972924e+03 -2.1861322306209165e+05 -2.1750337043650635e+07 
-1.3999999999999999e+00 -5.6439763113444730e-01 +7.7331901516712600e+00 -4.1388182908819193e-01 +9.7802470385513711e+00 +3.1225147156996341e+03 -2.1707079893314684e+05 -2.2228382172643851e+07 
-1.5000000000000000e+00 -5.6439759140352286e-01 +7.7332039202917207e+00 -4.2182398303017410e-01 +9.5413603297056344e+00 +3.2368216434314095e+03 -2.1581076634916541e+05 -2.2678418023816947e+07 
-1.6000000000000001e+00 -5.6439756517490014e-01 +7.7332157183805474e+00 -4.2915597597602340e-01 +9.3565761667568079e+00 +3.3425638579710403e+03 -2.1487960148114886e+05 -2.3097369647657581e+07 
-1.7000000000000000e+00 -5.6439755416905935e-01 +7.7332252301566022e+00 -4.3579071458354579e-01 +9.2339418015390056e+00 +3.4387787797242113e+03 -2.1432378243448486e+05 -2.3482162590068642e+07 
-1.8000000000000000e+00 -5.6439756010655151e-01 +7.7332321398356125e+00 -4.4164110691126757e-01 +9.1815045011724976e+00 +3.5245038506462051e+03 -2.1418978711282933e+05 -2.3829722473090164e+07 
-1.8999999999999999e+00 -5.6439758470776791e-01 +7.7332361316179545e+00 -4.4662006618194522e-01 +9.2073119280795197e+00 +3.5987766054747440e+03 -2.1452409550385061e+05 -2.4136975334481087e+07 
-2.0000000000000000e+00 -5.6439762969318019e-01 +7.7332368896902146e+00 -4.5064050955506141e-01 +9.3194120627355446e+00 +3.6606346532235466e+03 -2.1537318913040639e+05 -2.4400847552833747e+07 
-2.1000000000000001e+00 -5.6439769627666425e-01 +7.7332342099234168e+00 -4.5364547208850298e-01 +9.5229024793442836e+00 +3.7094683017832094e+03 -2.1676647211535592e+05 -2.4619421063779738e+07 
-2.2000000000000002e+00 -5.6439778375026850e-01 +7.7332283114712741e+00 -4.5569294635683272e-01 +9.8117787212088210e+00 +3.7460239617085858e+03 -2.1866920993389480e+05 -2.4795271643076811e+07 
-2.2999999999999998e+00 -5.6439789095027304e-01 +7.7332195137649107e+00 -4.5686834794666692e-01 +1.0177425069270649e+01 +3.7713738209151975e+03 -2.2103160981466126e+05 -2.4932066326845784e+07 
-2.3999999999999999e+00 -5.6439801671307366e-01 +7.7332081362471508e+00 -4.5725708857980202e-01 +1.0611225483065969e+01 +3.7865899934335962e+03 -2.2380387719292947e+05 -2.5033471799214382e+07 
-2.5000000000000000e+00 -5.6439815987496267e-01 +7.7331944983566991e+00 -4.5694458185113018e-01 +1.1104564055920401e+01 +3.7927446290707735e+03 -2.2693621835410962e+05 -2.5103154919900406e+07 
-2.6000000000000001e+00 -5.6439831927228745e-01 +7.7331789195402303e+00 -4.5601623893148668e-01 +1.1648824681301772e+01 +3.7909098384733056e+03 -2.3037883855443157e+05 -2.5144782383516997e+07 
-2.7000000000000002e+00 -5.6439849374142637e-01 +7.7331617192486197e+00 -4.5455746691573296e-01 +1.2235391149894724e+01 +3.7821576551437424e+03 -2.3408194254760945e+05 -2.5162020523433018e+07 
-2.7999999999999998e+00 -5.6439868211875677e-01 +7.7331432169371581e+00 -4.5265367311885873e-01 +1.2855647170920991e+01 +3.7675601203561669e+03 -2.3799573480640518e+05 -2.5158535726110265e+07 
-2.8999999999999999e+00 -5.6439888324069232e-01 +7.7331237320721025e+00 -4.5039026052860487e-01 +1.3500976161282269e+01 +3.7481891963812077e+03 -2.4207041824076982e+05 -2.5137994016514976e+07 
-3.0000000000000000e+00 -5.6439909594367421e-01 +7.7331035841225324e+00 -4.4785262918700680e-01 +1.4162761507291103e+01 +3.7251167943952901e+03 -2.4625619579906037e+05 -2.5104061197321985e+07 
-3.1000000000000001e+00 -5.6439931906414620e-01 +7.7330830925697800e+00 -4.4512617852607805e-01 +1.4832386281632660e+01 +3.6994148148855961e+03 -2.5050326880318535e+05 -2.5060403030683465e+07 
-3.2000000000000002e+00 -5.6439955143862952e-01 +7.7330625769045680e+00 -4.4229629891355143e-01 +1.5501233341190890e+01 +3.6721549932838375e+03 -2.5476183757252624e+05 -2.5010684522854179e+07 
-3.2999999999999998e+00 -5.6439979190363421e-01 +7.7330423566279656e+00 -4.3944838255798063e-01 +1.6160685297993297e+01 +3.6444091058796544e+03 -2.5898210125289168e+05 -2.4958570899923049e+07 
-3.3999999999999999e+00 -5.6440003929575189e-01 +7.7330227512521379e+00 -4.3666781124105164e-01 +1.6802124494518942e+01 +3.6172487317667455e+03 -2.6311425767513103e+05 -2.4907726463725146e+07 
-3.5000000000000000e+00 -5.6440029245156897e-01 +7.7330040802995770e+00 -4.3403996816820628e-01 +1.7416933052420728e+01 +3.5917454857403291e+03 -2.6710850371917087e+05 -2.4861815720526833e+07 
-3.6000000000000001e+00 -5.6440055020777014e-01 +7.7329866633108963e+00 -4.3165022787004798e-01 +1.7996492630546655e+01 +3.5689708214379207e+03 -2.7091503387717251e+05 -2.4824502432766154e+07 
-3.7000000000000002e+00 -5.6440081140101583e-01 +7.7329708198379272e+00 -4.2958395811998690e-01 +1.8532184629824211e+01 +3.5499960728011320e+03 -2.7448404145464662e+05 -2.4799449830544520e+07 
-3.7999999999999998e+00 -5.6440107486805657e-01 +7.7329568694463315e+00 -4.2792652566252926e-01 +1.9015390141357134e+01 +3.5358925552885353e+03 -2.7776571835449262e+05 -2.4790321073208869e+07 
-3.8999999999999999e+00 -5.6440133944572246e-01 +7.7329451317216344e+00 -4.2676328815930997e-01 +1.9437489756902593e+01 +3.5277314225568239e+03 -2.8071025393468695e+05 -2.4800778595719993e+07 
-4.0000000000000000e+00 -5.6440160397083639e-01 +7.7329359262616730e+00 -4.2617959492344071e-01 +1.9789863852827125e+01 +3.5265836885471126e+03 -2.8326783674597763e+05 -2.4834484230758417e+07 
-4.0999999999999996e+00 -5.6440186756298738e-01 +7.7329294762100798e+00 -4.2623221572406605e-01 +2.0066432706729966e+01 +3.5331380515450096e+03 -2.8540222555928951e+05 -2.4893706762102779e+07 
-4.2000000000000002e+00 -5.6440213035733122e-01 +7.7329256518266680e+00 -4.2687330917122329e-01 +2.0270202962313682e+01 +3.5466649223856061e+03 -2.8712532746921777e+05 -2.4975486439074714e+07 
-4.2999999999999998e+00 -5.6440239271721426e-01 +7.7329242426116460e+00 -4.2803109393992983e-01 +2.0406214725319781e+01 +3.5661060468984206e+03 -2.8845973346397083e+05 -2.5075638975842685e+07 
-4.4000000000000004e+00 -5.6440265500587894e-01 +7.7329250380531596e+00 -4.2963378639495908e-01 +2.0479508448148302e+01 +3.5904031134048773e+03 -2.8942803649586876e+05 -2.5189979782268852e+07 
-4.5000000000000000e+00 -5.6440291758663574e-01 +7.7329278276348354e+00 -4.3160960796634829e-01 +2.0495124698467659e+01 +3.6184978966170520e+03 -2.9005283010187891e+05 -2.5314324656611696e+07 
-4.5999999999999996e+00 -5.6440318082269858e-01 +7.7329324008343363e+00 -4.3388677675071013e-01 +2.0458104213119640e+01 +3.6493320918725176e+03 -2.9035670874084195e+05 -2.5444488981010180e+07 
-4.7000000000000002e+00 -5.6440344507736495e-01 +7.7329385471153005e+00 -4.3639351400558002e-01 +2.0373488123417335e+01 +3.6818474439923934e+03 -2.9036226907769486e+05 -2.5576288349533007e+07 
-4.7999999999999998e+00 -5.6440371071381112e-01 +7.7329460559342609e+00 -4.3905804054019887e-01 +2.0246317746262608e+01 +3.7149856715324149e+03 -2.9009210874696710e+05 -2.5705538188098479e+07 
-4.9000000000000004e+00 -5.6440397809531118e-01 +7.7329547167377175e+00 -4.4180857855618255e-01 +2.0081634681090495e+01 +3.7476885081295886e+03 -2.8956882693056454e+05 -2.5828053968630992e+07 
-5.0000000000000000e+00 -5.6440424758498631e-01 +7.7329643189613870e+00 -4.4457335345521687e-01 +1.9884480817147836e+01 +3.7788977271433641e+03 -2.8881502437440096e+05 -2.5939651300354380e+07 
-5.0999999999999996e+00 -5.6440451954607285e-01 +7.7329746520283882e+00 -4.4728058983639940e-01 +1.9659898393301987e+01 +3.8075550739234582e+03 -2.8785330373655987e+05 -2.6036145628974579e+07 
-5.2000000000000002e+00 -5.6440479434169744e-01 +7.7329855053500172e+00 -4.4985851368804358e-01 +1.9412929968745058e+01 +3.8326023005178604e+03 -2.8670626940366492e+05 -2.6113352384979438e+07 
-5.2999999999999998e+00 -5.6440507233497783e-01 +7.7329966683248035e+00 -4.5223535451326297e-01 +1.9148618452132499e+01 +3.8529812057765548e+03 -2.8539652764971938e+05 -2.6167087171676122e+07 
-5.4000000000000004e+00 -5.6440535388903756e-01 +7.7330079303380561e+00 -4.5433934011858984e-01 +1.8872007109060430e+01 +3.8676335416044103e+03 -2.8394668667142355e+05 -2.6193165335134577e+07 
-5.5000000000000000e+00 -5.6440563936690047e-01 +7.7330190807589858e+00 -4.5609870539743941e-01 +1.8588139649798908e+01 +3.8755011706222872e+03 -2.8237935709787143e+05 -2.6187402689069048e+07 
-5.5999999999999996e+00 -5.6440592913168175e-01 +7.7330299089481906e+00 -4.5744168309436745e-01 +1.8302059997136435e+01 +3.8755258941539892e+03 -2.8071715059584763e+05 -2.6145614704137243e+07 
-5.7000000000000002e+00 -5.6440622354639058e-01 +7.7330402042428084e+00 -4.5829650727535759e-01 +1.8018812738775701e+01 +3.8666495187247815e+03 -2.7898268255725439e+05 -2.6063616828848314e+07 
-5.7999999999999998e+00 -5.6440652297399863e-01 +7.7330497559691533e+00 -4.5859141847506946e-01 +1.7743442727479461e+01 +3.8478139498212445e+03 -2.7719856967760285e+05 -2.5937224922826752e+07 
-5.9000000000000004e+00 -5.6440682777746831e-01 +7.7330583534351964e+00 -4.5825465707827023e-01 +1.7480995329950900e+01 +3.8179610678498957e+03 -2.7538743148082605e+05 -2.5762254670538619e+07 
-5.9999999999999902e+00 -5.6440713831972800e-01 +7.7330657859321459e+00 -4.5721446626290835e-01 +1.7236516303789671e+01 +3.7760327726615956e+03 -2.7357189001478755e+05 -2.5534521811589982e+07 
-6.0999999999999899e+00 -5.6440745487771238e-01 +7.7330718967778820e+00 -4.5542071817164004e-01 +1.7013696882414607e+01 +3.7213578455038833e+03 -2.7176930183412501e+05 -2.5251591672413498e+07 
-6.1999999999999904e+00 -5.6440777742946258e-01 +7.7330767300453571e+00 -4.5290033837774091e-01 +1.6811298447656323e+01 +3.6546573688564004e+03 -2.6997768072561367e+05 -2.4917297606672540e+07 
-6.2999999999999901e+00 -5.6440810588799939e-01 +7.7330803763263898e+00 -4.4969743608856139e-01 +1.6626961387297538e+01 +3.5769659124275668e+03 -2.6819062013851252e+05 -2.4536878347513534e+07 
-6.3999999999999897e+00 -5.6440844016634706e-01 +7.7330829262182741e+00 -4.4585612073964814e-01 +1.6458325808541375e+01 +3.4893180660585472e+03 -2.6640171144786751e+05 -2.4115572764737774e+07 
-6.4999999999999902e+00 -5.6440878017751395e-01 +7.7330844703096817e+00 -4.4142050431299268e-01 +1.6303031964991543e+01 +3.3927484842116182e+03 -2.6460454647920997e+05 -2.3658620077679690e+07 
-6.5999999999999899e+00 -5.6440912583456038e-01 +7.7330850991958924e+00 -4.3643469281311764e-01 +1.6158719794958383e+01 +3.2882917220634517e+03 -2.6279271478164755e+05 -2.3171259067949120e+07 
-6.6999999999999904e+00 -5.6440947705050748e-01 +7.7330849034680487e+00 -4.3094279750955866e-01 +1.6023029235580765e+01 +3.1769824511811285e+03 -2.6095980543740772e+05 -2.2658729112788800e+07 
-6.7999999999999901e+00 -5.6440983373844000e-01 +7.7330839737194710e+00 -4.2498892606431682e-01 +1.5893600035559080e+01 +3.0598552942561914e+03 -2.5909940597135518e+05 -2.2126269407912750e+07 
-6.8999999999999897e+00 -5.6441019581135032e-01 +7.7330824005388266e+00 -4.1861718797665970e-01 +1.5768071946185831e+01 +2.9379449274094159e+03 -2.5720510343147587e+05 -2.1579119448153671e+07 
-6.9999999999999902e+00 -5.6441056318233407e-01 +7.7330802745182883e+00 -4.1187169027627518e-01 +1.5644084484372236e+01 +2.8122859935315537e+03 -2.5527048301525391e+05 -2.1022518604577780e+07 
-7.0999999999999899e+00 -5.6441093576446422e-01 +7.7330776862482971e+00 -4.0479654076071581e-01 +1.5519277077488656e+01 +2.6839131766035284e+03 -2.5328912887723293e+05 -2.0461706511779081e+07 
-7.1999999999999904e+00 -5.6441131347080475e-01 +7.7330747263215809e+00 -3.9743584899636025e-01 +1.5391288938133620e+01 +2.5538612123681523e+03 -2.5125462337902491e+05 -1.9901923093901824e+07 
-7.2999999999999901e+00 -5.6441169621448339e-01 +7.7330714853271854e+00 -3.8983372063061084e-01 +1.5257759245091925e+01 +2.4231647831017285e+03 -2.4916054816427981e+05 -1.9348408074823063e+07 
-7.3999999999999897e+00 -5.6441208390852049e-01 +7.7330680538596184e+00 -3.8203426519735323e-01 +1.5116326855941812e+01 +2.2928586684349311e+03 -2.4700048241496278e+05 -1.8806401699397739e+07 
-7.4999999999999902e+00 -5.6441247646610770e-01 +7.7330645225091894e+00 -3.7408158557893084e-01 +1.4964630601364039e+01 +2.1639775434405055e+03 -2.4476800460103434e+05 -1.8281143769563224e+07 
-7.5999999999999899e+00 -5.6441287380025851e-01 +7.7330609818669345e+00 -3.6601979388845501e-01 +1.4800309133482790e+01 +2.0375562841383564e+03 -2.4245669157270930e+05 -1.7777875107645255e+07 
-7.6999999999999904e+00 -5.6441327582415990e-01 +7.7330575225294771e+00 -3.5789299202778757e-01 +1.4621000761120795e+01 +1.9146295959075162e+03 -2.4006011753092040e+05 -1.7301835780218624e+07 
-7.7999999999999901e+00 -5.6441368245091439e-01 +7.7330542350844178e+00 -3.4974528998322130e-01 +1.4424343898395566e+01 +1.7962323650868645e+03 -2.3757185669804079e+05 -1.6858266784276579e+07 
-7.8999999999999897e+00 -5.6441409359371020e-01 +7.7330512101317286e+00 -3.4162079121658645e-01 +1.4207976421298966e+01 +1.6833993780039389e+03 -2.3498547951716839e+05 -1.6452408699992640e+07 
-7.9999999999999902e+00 -5.6441450916566194e-01 +7.7330485382714418e+00 -3.3356360147565556e-01 +1.3969535776219582e+01 +1.5771654548272779e+03 -2.3229455226304792e+05 -1.6089502181634402e+07 
-8.0999999999999908e+00 -5.6441492905382362e-01 +7.7330462880796809e+00 -3.2561517135487861e-01 +1.3707544164323592e+01 +1.4783712378447447e+03 -2.2949651858424037e+05 -1.5773521793030905e+07 
-8.1999999999999904e+00 -5.6441535305991342e-01 +7.7330444389095518e+00 -3.1780697461443885e-01 +1.3424251061256742e+01 +1.3871683696888388e+03 -2.2660649604652164e+05 -1.5504039485857472e+07 
-8.2999999999999901e+00 -5.6441578096807021e-01 +7.7330429481111604e+00 -3.1016814860480058e-01 +1.3122850035765046e+01 +1.3035546608423781e+03 -2.2364428448797253e+05 -1.5279662206408257e+07 
-8.3999999999999897e+00 -5.6441621256232177e-01 +7.7330417730471410e+00 -3.0272783604643960e-01 +1.2806534464258954e+01 +1.2275280261265941e+03 -2.2062968341731362e+05 -1.5098997377810229e+07 
-8.4999999999999893e+00 -5.6441664762682053e-01 +7.7330408711056098e+00 -2.9551517881730910e-01 +1.2478497149450233e+01 +1.1590863570260278e+03 -2.1758248979837753e+05 -1.4960652266868435e+07 
-8.5999999999999908e+00 -5.6441708594553919e-01 +7.7330401996928186e+00 -2.8855932896740988e-01 +1.2141930562360265e+01 +1.0982277367215306e+03 -2.1452249954645615e+05 -1.4863235020327000e+07 
-8.6999999999999904e+00 -5.6441752730258665e-01 +7.7330397162333799e+00 -2.8188943668926736e-01 +1.1800026822725034e+01 +1.0449502096596443e+03 -2.1146950738871624e+05 -1.4805353564919315e+07 
-8.7999999999999794e+00 -5.6441797148194028e-01 +7.7330393781725837e+00 -2.7553465994308307e-01 +1.1455977649036136e+01 +9.9925196499526817e+02 -2.0844330663408400e+05 -1.4785616478179945e+07 
-8.8999999999999808e+00 -5.6441841826758832e-01 +7.7330391429825864e+00 -2.6952415683340386e-01 +1.1112974178668749e+01 +9.6113119119523719e+02 -2.0546368813029217e+05 -1.4802632296356069e+07 
-8.9999999999999805e+00 -5.6441886744355541e-01 +7.7330389681518517e+00 -2.6388709286150758e-01 +1.0774207285707853e+01 +9.3058621264597650e+02 -2.0255044216794433e+05 -1.4855010159316471e+07 
-9.0999999999999801e+00 -5.6441931879376817e-01 +7.7330388111979911e+00 -2.5865263684277701e-01 +1.0442867215988954e+01 +9.0761541293340463e+02 -1.9972335637831775e+05 -1.4941359447851878e+07 
-9.1999999999999797e+00 -5.6441977210215610e-01 +7.7330386296554545e+00 -2.5384995921860376e-01 +1.0122143943241108e+01 +8.9221720468496596e+02 -1.9700221782124965e+05 -1.5060289644477963e+07 
-9.2999999999999794e+00 -5.6442022715266271e-01 +7.7330383810877130e+00 -2.4950824031067359e-01 +9.8152268266348894e+00 +8.8439017980595179e+02 -1.9440681102589794e+05 -1.5210411028877955e+07 
-9.3999999999999808e+00 -5.6442068372917686e-01 +7.7330380230799074e+00 -2.4565665917641466e-01 +9.5253048333200852e+00 +8.8413290641004005e+02 -1.9195691932919028e+05 -1.5390333734991977e+07 
-9.4999999999999805e+00 -5.6442114161553902e-01 +7.7330375132481102e+00 -2.4232440208941672e-01 +9.2555662723941854e+00 +8.9144408082755956e+02 -1.8967232334755769e+05 -1.5598668448252350e+07 
-9.5999999999999801e+00 -5.6442160059565105e-01 +7.7330368092285786e+00 -2.3954066058752416e-01 +9.0091991104720979e+00 +9.0632249988397166e+02 -1.8757280282916580e+05 -1.5834026300060261e+07 
-9.6999999999999797e+00 -5.6442206045327903e-01 +7.7330358686844640e+00 -2.3733463045723119e-01 +8.7893907919275946e+00 +9.2876703075699822e+02 -1.8567813565826346e+05 -1.6095018690702753e+07 
-9.7999999999999794e+00 -5.6442252097229118e-01 +7.7330346493092454e+00 -2.3573551090795211e-01 +8.5993281351150017e+00 +9.5877660336902977e+02 -1.8400809725922855e+05 -1.6380257278164078e+07 
-9.8999999999999808e+00 -5.6442298193642149e-01 +7.7330331088264268e+00 -2.3477250944557074e-01 +8.4421973545472913e+00 +9.9635030075281259e+02 -1.8258246077195811e+05 -1.6688354398307404e+07 
-9.9999999999999805e+00 -5.6442344312947046e-01 +7.7330312050014633e+00 -2.3447482712007203e-01 +8.3211839591917194e+00 +1.0414870930206368e+03 -1.8142099685411493e+05 -1.7017921841993332e+07 
-1.0100000000000000e+01 -5.6442390444717405e-01 +7.7330289149189273e+00 -2.3485351077483088e-01 +8.2382273821414564e+00 +1.0939640818320090e+03 -1.8053546261543399e+05 -1.7366841894436397e+07 
