# trajectory
# s[mm] rx[mm] ry[mm] rz[mm] px[rad] py[rad] pz[rad]
0.0000000000000000e+00 +8.1649999999999991e+00 +0.0000000000000000e+00 +0.0000000000000000e+00 +0.0000000000000000e+00 +0.0000000000000000e+00 +1.0000000000000000e+00
1.0000000000000001e-01 +8.1649997166571318e+00 +0.0000000000000000e+00 +9.9999999999464781e-02 -5.6668569413601231e-06 +0.0000000000000000e+00 +9.9999999998394340e-01
2.0000000000000001e-01 +8.1649988666286895e+00 +0.0000000000000000e+00 +1.9999999999571824e-01 -1.1333711508068762e-05 +0.0000000000000000e+00 +9.9999999993577349e-01
3.0000000000000004e-01 +8.1649974499149121e+00 +0.0000000000000000e+00 +2.9999999998554905e-01 -1.7000563632407761e-05 +0.0000000000000000e+00 +9.9999999985549037e-01
4.0000000000000002e-01 +8.1649954665160465e+00 +0.0000000000000000e+00 +3.9999999996574587e-01 -2.2667413250595190e-05 +0.0000000000000000e+00 +9.9999999974309417e-01
5.0000000000000000e-01 +8.1649929164323467e+00 +0.0000000000000000e+00 +4.9999999993309741e-01 -2.8334260302785217e-05 +0.0000000000000000e+00 +9.9999999959858488e-01
5.9999999999999998e-01 +8.1649897996640721e+00 +0.0000000000000000e+00 +5.9999999988439234e-01 -3.4001104733067971e-05 +0.0000000000000000e+00 +9.9999999942196249e-01
6.9999999999999996e-01 +8.1649861162114892e+00 +0.0000000000000000e+00 +6.9999999981641947e-01 -3.9667946489469426e-05 +0.0000000000000000e+00 +9.9999999921322702e-01
7.9999999999999993e-01 +8.1649818660748661e+00 +0.0000000000000000e+00 +7.9999999972596736e-01 -4.5334785523951261e-05 +0.0000000000000000e+00 +9.9999999897237857e-01
8.9999999999999991e-01 +8.1649770492544764e+00 +0.0000000000000000e+00 +8.9999999960982480e-01 -5.1001621792410707e-05 +0.0000000000000000e+00 +9.9999999869941725e-01
9.9999999999999989e-01 +8.1649716657506008e+00 +0.0000000000000000e+00 +9.9999999946478046e-01 -5.6668455254680437e-05 +0.0000000000000000e+00 +9.9999999839434306e-01
1.0999999999999999e+00 +8.1649657155635200e+00 +0.0000000000000000e+00 +1.0999999992876230e+00 -6.2335285874528387e-05 +0.0000000000000000e+00 +9.9999999805715600e-01
1.2000000000000000e+00 +8.1649591986935217e+00 +0.0000000000000000e+00 +1.1999999990751413e+00 -6.8002113619657618e-05 +0.0000000000000000e+00 +9.9999999768785619e-01
1.3000000000000000e+00 +8.1649521151408937e+00 +0.0000000000000000e+00 +1.2999999988241240e+00 -7.3668938461706173e-05 +0.0000000000000000e+00 +9.9999999728644362e-01
1.4000000000000001e+00 +8.1649444649059273e+00 +0.0000000000000000e+00 +1.3999999985313596e+00 -7.9335760376246883e-05 +0.0000000000000000e+00 +9.9999999685291840e-01
1.5000000000000002e+00 +8.1649362479889174e+00 +0.0000000000000000e+00 +1.4999999981936372e+00 -8.5002579342787228e-05 +0.0000000000000000e+00 +9.9999999638728054e-01
1.6000000000000003e+00 +8.1649274643901588e+00 +0.0000000000000000e+00 +1.5999999978077453e+00 -9.0669395344769165e-05 +0.0000000000000000e+00 +9.9999999588953015e-01
1.7000000000000004e+00 +8.1649181141099483e+00 +0.0000000000000000e+00 +1.6999999973704727e+00 -9.6336208369568962e-05 +0.0000000000000000e+00 +9.9999999535966722e-01
1.8000000000000005e+00 +8.1649081971485842e+00 +0.0000000000000000e+00 +1.7999999968786082e+00 -1.0200301840849702e-04 +0.0000000000000000e+00 +9.9999999479769186e-01
1.9000000000000006e+00 +8.1648977135063667e+00 +0.0000000000000000e+00 +1.8999999963289407e+00 -1.0766982545679768e-04 +0.0000000000000000e+00 +9.9999999420360408e-01
2.0000000000000004e+00 +8.1648866631835926e+00 +0.0000000000000000e+00 +1.9999999957182586e+00 -1.1333662951364904e-04 +0.0000000000000000e+00 +9.9999999357740399e-01
2.1000000000000005e+00 +8.1648750461805637e+00 +0.0000000000000000e+00 +2.0999999950433508e+00 -1.1900343058199131e-04 +0.0000000000000000e+00 +9.9999999291909158e-01
2.2000000000000006e+00 +8.1648628624975768e+00 +0.0000000000000000e+00 +2.1999999943010065e+00 -1.2467022866664032e-04 +0.0000000000000000e+00 +9.9999999222866687e-01
2.3000000000000007e+00 +8.1648501121349302e+00 +0.0000000000000000e+00 +2.2999999934880138e+00 -1.3033702377240129e-04 +0.0000000000000000e+00 +9.9999999150612995e-01
2.4000000000000008e+00 +8.1648367950929224e+00 +0.0000000000000000e+00 +2.3999999926011619e+00 -1.3600381590389760e-04 +0.0000000000000000e+00 +9.9999999075148083e-01
2.5000000000000009e+00 +8.1648229113718500e+00 +0.0000000000000000e+00 +2.4999999916372397e+00 -1.4167060506557101e-04 +0.0000000000000000e+00 +9.9999998996471962e-01
2.6000000000000010e+00 +8.1648084609720097e+00 +0.0000000000000000e+00 +2.5999999905930355e+00 -1.4733739126168198e-04 +0.0000000000000000e+00 +9.9999998914584631e-01
2.7000000000000011e+00 +8.1647934438936964e+00 +0.0000000000000000e+00 +2.6999999894653386e+00 -1.5300417449630999e-04 +0.0000000000000000e+00 +9.9999998829486103e-01
2.8000000000000012e+00 +8.1647778601372085e+00 +0.0000000000000000e+00 +2.7999999882509377e+00 -1.5867095477335402e-04 +0.0000000000000000e+00 +9.9999998741176377e-01
2.9000000000000012e+00 +8.1647617097028409e+00 +0.0000000000000000e+00 +2.8999999869466211e+00 -1.6433773209653286e-04 +0.0000000000000000e+00 +9.9999998649655464e-01
3.0000000000000013e+00 +8.1647449925908884e+00 +0.0000000000000000e+00 +2.9999999855491781e+00 -1.7000450646938566e-04 +0.0000000000000000e+00 +9.9999998554923364e-01
3.1000000000000014e+00 +8.1647277088016459e+00 +0.0000000000000000e+00 +3.0999999840553976e+00 -1.7567127789527238e-04 +0.0000000000000000e+00 +9.9999998456980077e-01
3.2000000000000015e+00 +8.1647098583354083e+00 +0.0000000000000000e+00 +3.1999999824620682e+00 -1.8133804637737440e-04 +0.0000000000000000e+00 +9.9999998355825614e-01
3.3000000000000016e+00 +8.1646914411924687e+00 +0.0000000000000000e+00 +3.2999999807659788e+00 -1.8700481191869506e-04 +0.0000000000000000e+00 +9.9999998251459987e-01
3.4000000000000017e+00 +8.1646724573731220e+00 +0.0000000000000000e+00 +3.3999999789639181e+00 -1.9267157452206032e-04 +0.0000000000000000e+00 +9.9999998143883184e-01
3.5000000000000018e+00 +8.1646529068776612e+00 +0.0000000000000000e+00 +3.4999999770526751e+00 -1.9833833419011942e-04 +0.0000000000000000e+00 +9.9999998033095228e-01
3.6000000000000019e+00 +8.1646327897063813e+00 +0.0000000000000000e+00 +3.5999999750290383e+00 -2.0400509092534559e-04 +0.0000000000000000e+00 +9.9999997919096106e-01
3.7000000000000020e+00 +8.1646121058595735e+00 +0.0000000000000000e+00 +3.6999999728897968e+00 -2.0967184473003679e-04 +0.0000000000000000e+00 +9.9999997801885832e-01
3.8000000000000020e+00 +8.1645908553375328e+00 +0.0000000000000000e+00 +3.7999999706317396e+00 -2.1533859560631655e-04 +0.0000000000000000e+00 +9.9999997681464414e-01
3.9000000000000021e+00 +8.1645690381405505e+00 +0.0000000000000000e+00 +3.8999999682516551e+00 -2.2100534355613474e-04 +0.0000000000000000e+00 +9.9999997557831855e-01
4.0000000000000018e+00 +8.1645466542689196e+00 +0.0000000000000000e+00 +3.9999999657463325e+00 -2.2667208858126849e-04 +0.0000000000000000e+00 +9.9999997430988163e-01
4.1000000000000014e+00 +8.1645237037229315e+00 +0.0000000000000000e+00 +4.0999999631125608e+00 -2.3233883068358259e-04 +0.0000000000000000e+00 +9.9999997300933330e-01
4.2000000000000011e+00 +8.1645001865028792e+00 +0.0000000000000000e+00 +4.1999999603471290e+00 -2.3800556986788488e-04 +0.0000000000000000e+00 +9.9999997167667376e-01
4.3000000000000007e+00 +8.1644761026090542e+00 +0.0000000000000000e+00 +4.2999999574468255e+00 -2.4367230614478092e-04 +0.0000000000000000e+00 +9.9999997031190302e-01
4.4000000000000004e+00 +8.1644514520417459e+00 +0.0000000000000000e+00 +4.3999999544084396e+00 -2.4933903953093327e-04 +0.0000000000000000e+00 +9.9999996891502108e-01
4.5000000000000000e+00 +8.1644262348012440e+00 +0.0000000000000000e+00 +4.4999999512287596e+00 -2.5500577004906134e-04 +0.0000000000000000e+00 +9.9999996748602793e-01
4.5999999999999996e+00 +8.1644004508878307e+00 +0.0000000000000000e+00 +4.5999999479045748e+00 -2.6067249772794088e-04 +0.0000000000000000e+00 +9.9999996602492369e-01
4.6999999999999993e+00 +8.1643741003017904e+00 +0.0000000000000000e+00 +4.6999999444326743e+00 -2.6633922260240378e-04 +0.0000000000000000e+00 +9.9999996453170847e-01
4.7999999999999989e+00 +8.1643471830434020e+00 +0.0000000000000000e+00 +4.7999999408098466e+00 -2.7200594471333769e-04 +0.0000000000000000e+00 +9.9999996300638216e-01
4.8999999999999986e+00 +8.1643196991129390e+00 +0.0000000000000000e+00 +4.8999999370328808e+00 -2.7767266410768553e-04 +0.0000000000000000e+00 +9.9999996144894487e-01
4.9999999999999982e+00 +8.1642916485106696e+00 +0.0000000000000000e+00 +4.9999999330985654e+00 -2.8333938083844511e-04 +0.0000000000000000e+00 +9.9999995985939660e-01
5.0999999999999979e+00 +8.1642630312368585e+00 +0.0000000000000000e+00 +5.0999999290036895e+00 -2.8900609496466869e-04 +0.0000000000000000e+00 +9.9999995823773746e-01
5.1999999999999975e+00 +8.1642338472917615e+00 +0.0000000000000000e+00 +5.1999999247450424e+00 -2.9467280655146234e-04 +0.0000000000000000e+00 +9.9999995658396734e-01
5.2999999999999972e+00 +8.1642040966756309e+00 +0.0000000000000000e+00 +5.2999999203194124e+00 -3.0033951566998561e-04 +0.0000000000000000e+00 +9.9999995489808635e-01
5.3999999999999968e+00 +8.1641737793887081e+00 +0.0000000000000000e+00 +5.3999999157235887e+00 -3.0600622239745082e-04 +0.0000000000000000e+00 +9.9999995318009449e-01
5.4999999999999964e+00 +8.1641428954312278e+00 +0.0000000000000000e+00 +5.4999999109543607e+00 -3.1167292681712243e-04 +0.0000000000000000e+00 +9.9999995142999187e-01
5.5999999999999961e+00 +8.1641114448034173e+00 +0.0000000000000000e+00 +5.5999999060085166e+00 -3.1733962901831658e-04 +0.0000000000000000e+00 +9.9999994964777839e-01
5.6999999999999957e+00 +8.1640794275054951e+00 +0.0000000000000000e+00 +5.6999999008828457e+00 -3.2300632909640017e-04 +0.0000000000000000e+00 +9.9999994783345403e-01
5.7999999999999954e+00 +8.1640468435376654e+00 +0.0000000000000000e+00 +5.7999998955741372e+00 -3.2867302715279035e-04 +0.0000000000000000e+00 +9.9999994598701891e-01
5.8999999999999950e+00 +8.1640136929001272e+00 +0.0000000000000000e+00 +5.8999998900791795e+00 -3.3433972329495373e-04 +0.0000000000000000e+00 +9.9999994410847293e-01
5.9999999999999947e+00 +8.1639799755930653e+00 +0.0000000000000000e+00 +5.9999998843947617e+00 -3.4000641763640567e-04 +0.0000000000000000e+00 +9.9999994219781607e-01
6.0999999999999943e+00 +8.1639456916166555e+00 +0.0000000000000000e+00 +6.0999998785176723e+00 -3.4567311029632211e-04 +0.0000000000000000e+00 +9.9999994025504835e-01
6.1999999999999940e+00 +8.1639108409710577e+00 +0.0000000000000000e+00 +6.1999998724447005e+00 -3.5133980139527896e-04 +0.0000000000000000e+00 +9.9999993828016975e-01
6.2999999999999936e+00 +8.1638754236564246e+00 +0.0000000000000000e+00 +6.2999998661726355e+00 -3.5700649105099180e-04 +0.0000000000000000e+00 +9.9999993627318029e-01
6.3999999999999932e+00 +8.1638394396728931e+00 +0.0000000000000000e+00 +6.3999998596982666e+00 -3.6267317937792862e-04 +0.0000000000000000e+00 +9.9999993423407996e-01
6.4999999999999929e+00 +8.1638028890205909e+00 +0.0000000000000000e+00 +6.4999998530183820e+00 -3.6833986648730988e-04 +0.0000000000000000e+00 +9.9999993216286875e-01
6.5999999999999925e+00 +8.1637657716996337e+00 +0.0000000000000000e+00 +6.5999998461297702e+00 -3.7400655248710833e-04 +0.0000000000000000e+00 +9.9999993005954657e-01
6.6999999999999922e+00 +8.1637280877101279e+00 +0.0000000000000000e+00 +6.6999998390292204e+00 -3.7967323748204918e-04 +0.0000000000000000e+00 +9.9999992792411341e-01
6.7999999999999918e+00 +8.1636898370521678e+00 +0.0000000000000000e+00 +6.7999998317135217e+00 -3.8533992157361013e-04 +0.0000000000000000e+00 +9.9999992575656926e-01
6.8999999999999915e+00 +8.1636510197258403e+00 +0.0000000000000000e+00 +6.8999998241794636e+00 -3.9100660486002123e-04 +0.0000000000000000e+00 +9.9999992355691414e-01
6.9999999999999911e+00 +8.1636116357312201e+00 +0.0000000000000000e+00 +6.9999998164238342e+00 -3.9667328743626511e-04 +0.0000000000000000e+00 +9.9999992132514803e-01
7.0999999999999908e+00 +8.1635716850683746e+00 +0.0000000000000000e+00 +7.0999998084434228e+00 -4.0233996939407671e-04 +0.0000000000000000e+00 +9.9999991906127084e-01
7.1999999999999904e+00 +8.1635311677373590e+00 +0.0000000000000000e+00 +7.1999998002350178e+00 -4.0800665082194363e-04 +0.0000000000000000e+00 +9.9999991676528255e-01
7.2999999999999901e+00 +8.1634900837382247e+00 +0.0000000000000000e+00 +7.2999997917954085e+00 -4.1367333180510583e-04 +0.0000000000000000e+00 +9.9999991443718317e-01
7.3999999999999897e+00 +8.1634484330710109e+00 +0.0000000000000000e+00 +7.3999997831213840e+00 -4.1934001242555595e-04 +0.0000000000000000e+00 +9.9999991207697270e-01
7.4999999999999893e+00 +8.1634062157357494e+00 +0.0000000000000000e+00 +7.4999997742097326e+00 -4.2500669276203910e-04 +0.0000000000000000e+00 +9.9999990968465102e-01
7.5999999999999890e+00 +8.1633634317324653e+00 +0.0000000000000000e+00 +7.5999997650572437e+00 -4.3067337289005305e-04 +0.0000000000000000e+00 +9.9999990726021815e-01
7.6999999999999886e+00 +8.1633200810611761e+00 +0.0000000000000000e+00 +7.6999997556607056e+00 -4.3634005288184811e-04 +0.0000000000000000e+00 +9.9999990480367407e-01
7.7999999999999883e+00 +8.1632761637218909e+00 +0.0000000000000000e+00 +7.7999997460169075e+00 -4.4200673280642735e-04 +0.0000000000000000e+00 +9.9999990231501878e-01
7.8999999999999879e+00 +8.1632316797146149e+00 +0.0000000000000000e+00 +7.8999997361226386e+00 -4.4767341272954655e-04 +0.0000000000000000e+00 +9.9999989979425219e-01
7.9999999999999876e+00 +8.1631866290393429e+00 +0.0000000000000000e+00 +7.9999997259746873e+00 -4.5334009271371414e-04 +0.0000000000000000e+00 +9.9999989724137428e-01
8.0999999999999872e+00 +8.1631410116960677e+00 +0.0000000000000000e+00 +8.0999997155698438e+00 -4.5900677281823110e-04 +0.0000000000000000e+00 +9.9999989465638506e-01
8.1999999999999869e+00 +8.1630948276847732e+00 +0.0000000000000000e+00 +8.1999997049048954e+00 -4.6467345309962724e-04 +0.0000000000000000e+00 +9.9999989203928452e-01
8.2999999999999865e+00 +8.1630480770054401e+00 +0.0000000000000000e+00 +8.2999996939766305e+00 -4.7034013361209781e-04 +0.0000000000000000e+00 +9.9999988939007256e-01
8.3999999999999861e+00 +8.1630007596580416e+00 +0.0000000000000000e+00 +8.3999996827818393e+00 -4.7600681440754304e-04 +0.0000000000000000e+00 +9.9999988670874917e-01
8.4999999999999858e+00 +8.1629528756425476e+00 +0.0000000000000000e+00 +8.4999996713173100e+00 -4.8167349553556832e-04 +0.0000000000000000e+00 +9.9999988399531436e-01
8.5999999999999854e+00 +8.1629044249589224e+00 +0.0000000000000000e+00 +8.5999996595798311e+00 -4.8734017704348421e-04 +0.0000000000000000e+00 +9.9999988124976813e-01
8.6999999999999851e+00 +8.1628554076071254e+00 +0.0000000000000000e+00 +8.6999996475661927e+00 -4.9300685897630647e-04 +0.0000000000000000e+00 +9.9999987847211036e-01
8.7999999999999847e+00 +8.1628058235871119e+00 +0.0000000000000000e+00 +8.7999996352731831e+00 -4.9867354137675597e-04 +0.0000000000000000e+00 +9.9999987566234105e-01
8.8999999999999844e+00 +8.1627556728988324e+00 +0.0000000000000000e+00 +8.8999996226975906e+00 -5.0434022428525913e-04 +0.0000000000000000e+00 +9.9999987282046021e-01
8.9999999999999840e+00 +8.1627049555422353e+00 +0.0000000000000000e+00 +8.9999996098362054e+00 -5.1000690773994758e-04 +0.0000000000000000e+00 +9.9999986994646783e-01
9.0999999999999837e+00 +8.1626536715172637e+00 +0.0000000000000000e+00 +9.0999995966858140e+00 -5.1567359177665840e-04 +0.0000000000000000e+00 +9.9999986704036381e-01
9.1999999999999833e+00 +8.1626018208238591e+00 +0.0000000000000000e+00 +9.1999995832432067e+00 -5.2134027642893412e-04 +0.0000000000000000e+00 +9.9999986410214814e-01
9.2999999999999829e+00 +8.1625494034619575e+00 +0.0000000000000000e+00 +9.2999995695051734e+00 -5.2700696172802296e-04 +0.0000000000000000e+00 +9.9999986113182082e-01
9.3999999999999826e+00 +8.1624964194314913e+00 +0.0000000000000000e+00 +9.3999995554685007e+00 -5.3267364770287853e-04 +0.0000000000000000e+00 +9.9999985812938175e-01
9.4999999999999822e+00 +8.1624428687323931e+00 +0.0000000000000000e+00 +9.4999995411299789e+00 -5.3834033438016017e-04 +0.0000000000000000e+00 +9.9999985509483102e-01
9.5999999999999819e+00 +8.1623887513645919e+00 +0.0000000000000000e+00 +9.5999995264863962e+00 -5.4400702178423305e-04 +0.0000000000000000e+00 +9.9999985202816855e-01
9.6999999999999815e+00 +8.1623340673280129e+00 +0.0000000000000000e+00 +9.6999995115345428e+00 -5.4967370993716806e-04 +0.0000000000000000e+00 +9.9999984892939431e-01
9.7999999999999812e+00 +8.1622788166225799e+00 +0.0000000000000000e+00 +9.7999994962712051e+00 -5.5534039885874202e-04 +0.0000000000000000e+00 +9.9999984579850820e-01
9.8999999999999808e+00 +8.1622229992482147e+00 +0.0000000000000000e+00 +9.8999994806931735e+00 -5.6100708856643758e-04 +0.0000000000000000e+00 +9.9999984263551034e-01
9.9999999999999805e+00 +8.1621666152048391e+00 +0.0000000000000000e+00 +9.9999994647972361e+00 -5.6667377907544366e-04 +0.0000000000000000e+00 +9.9999983944040061e-01
1.0099999999999980e+01 +8.1621096644923714e+00 +0.0000000000000000e+00 +1.0099999448580183e+01 -5.7234047039871104e-04 +0.0000000000000000e+00 +9.9999983621317901e-01
1.0199999999999980e+01 +8.1620521471107317e+00 +0.0000000000000000e+00 +1.0199999432038801e+01 -5.7800716254756857e-04 +0.0000000000000000e+00 +9.9999983295384554e-01
1.0299999999999979e+01 +8.1619940630598347e+00 +0.0000000000000000e+00 +1.0299999415169880e+01 -5.8367385553233892e-04 +0.0000000000000000e+00 +9.9999982966240020e-01
1.0399999999999979e+01 +8.1619354123395969e+00 +0.0000000000000000e+00 +1.0399999397970211e+01 -5.8934054936239449e-04 +0.0000000000000000e+00 +9.9999982633884288e-01
1.0499999999999979e+01 +8.1618761949499330e+00 +0.0000000000000000e+00 +1.0499999380436579e+01 -5.9500724404615800e-04 +0.0000000000000000e+00 +9.9999982298317358e-01
1.0599999999999978e+01 +8.1618164108907578e+00 +0.0000000000000000e+00 +1.0599999362565775e+01 -6.0067393959110232e-04 +0.0000000000000000e+00 +9.9999981959539230e-01
1.0699999999999978e+01 +8.1617560601619861e+00 +0.0000000000000000e+00 +1.0699999344354588e+01 -6.0634063600375067e-04 +0.0000000000000000e+00 +9.9999981617549905e-01
1.0799999999999978e+01 +8.1616951427635289e+00 +0.0000000000000000e+00 +1.0799999325799805e+01 -6.1200733328967681e-04 +0.0000000000000000e+00 +9.9999981272349381e-01
1.0899999999999977e+01 +8.1616336586952993e+00 +0.0000000000000000e+00 +1.0899999306898216e+01 -6.1767403145350519e-04 +0.0000000000000000e+00 +9.9999980923937659e-01
1.0999999999999977e+01 +8.1615716079572085e+00 +0.0000000000000000e+00 +1.0999999287646610e+01 -6.2334073049891126e-04 +0.0000000000000000e+00 +9.9999980572314728e-01
1.1099999999999977e+01 +8.1615089905491693e+00 +0.0000000000000000e+00 +1.1099999268041774e+01 -6.2900743042862135e-04 +0.0000000000000000e+00 +9.9999980217480600e-01
1.1199999999999976e+01 +8.1614458064710931e+00 +0.0000000000000000e+00 +1.1199999248080500e+01 -6.3467413124441313e-04 +0.0000000000000000e+00 +9.9999979859435262e-01
1.1299999999999976e+01 +8.1613820557228909e+00 +0.0000000000000000e+00 +1.1299999227759574e+01 -6.4034083294711567e-04 +0.0000000000000000e+00 +9.9999979498178715e-01
1.1399999999999975e+01 +8.1613177383044739e+00 +0.0000000000000000e+00 +1.1399999207075787e+01 -6.4600753553660951e-04 +0.0000000000000000e+00 +9.9999979133710959e-01
1.1499999999999975e+01 +8.1612528542157534e+00 +0.0000000000000000e+00 +1.1499999186025926e+01 -6.5167423901182702e-04 +0.0000000000000000e+00 +9.9999978766031994e-01
1.1599999999999975e+01 +8.1611874034566423e+00 +0.0000000000000000e+00 +1.1599999164606780e+01 -6.5734094337075246e-04 +0.0000000000000000e+00 +9.9999978395141809e-01
1.1699999999999974e+01 +8.1611213860270500e+00 +0.0000000000000000e+00 +1.1699999142815139e+01 -6.6300764861042228e-04 +0.0000000000000000e+00 +9.9999978021040414e-01
1.1799999999999974e+01 +8.1610548019268911e+00 +0.0000000000000000e+00 +1.1799999120647792e+01 -6.6867435472692531e-04 +0.0000000000000000e+00 +9.9999977643727800e-01
