# multipoles
# s[mm] polynom_b[n=0][T/m^n] polynom_b[n=1][T/m^n] polynom_b[n=2][T/m^n] polynom_b[n=3][T/m^n] polynom_b[n=4][T/m^n] polynom_b[n=5][T/m^n] polynom_b[n=6][T/m^n] 
-0.0000000000000000e+00 -5.3664630696148863e-01 +7.3449662587363296e+00 -1.2307748079126066e+00 +3.9820506006603878e+01 +6.9476727016668101e+03 -4.5135011033964367e+05 -2.8364094852946762e+07 
-1.0000000000000001e-01 -5.3664612440743842e-01 +7.3449785802508334e+00 -1.2311430077760739e+00 +3.9425572878942340e+01 +6.9490134568970370e+03 -4.4942909482733003e+05 -2.8284889424876265e+07 
-2.0000000000000001e-01 -5.3664594332592019e-01 +7.3449936708257875e+00 -1.2317127960674950e+00 +3.8980635765333425e+01 +6.9543647324121275e+03 -4.4726273669217457e+05 -2.8224993801922999e+07 
-2.9999999999999999e-01 -5.3664576410011666e-01 +7.3450112583902660e+00 -1.2324405982553617e+00 +3.8490855254105746e+01 +6.9631398271289117e+03 -4.4487216585445608e+05 -2.8182366267906196e+07 
-4.0000000000000002e-01 -5.3664558711323807e-01 +7.3450310708783801e+00 -1.2332828328402392e+00 +3.7961391771306836e+01 +6.9747519143916634e+03 -4.4227851122622599e+05 -2.8154964527822595e+07 
-5.0000000000000000e-01 -5.3664541274851218e-01 +7.3450528362234522e+00 -1.2341959224917058e+00 +3.7397405756511411e+01 +6.9886142441465063e+03 -4.3950290174442920e+05 -2.8140746646383677e+07 
-5.9999999999999998e-01 -5.3664524138917491e-01 +7.3450762823577476e+00 -1.2351362861379629e+00 +3.6804057664765416e+01 +7.0041399971288465e+03 -4.3656646635674755e+05 -2.8137670364861410e+07 
-6.9999999999999996e-01 -5.3664507341842005e-01 +7.3451011372100199e+00 -1.2360603448179894e+00 +3.6186508047667218e+01 +7.0207423951766059e+03 -4.3349033451846766e+05 -2.8143693625703234e+07 
-8.0000000000000004e-01 -5.3664490921950603e-01 +7.3451271287097679e+00 -1.2369245177956321e+00 +3.5549917414602859e+01 +7.0378346223850540e+03 -4.3029563533863291e+05 -2.8156774184461955e+07 
-9.0000000000000002e-01 -5.3664474917566773e-01 +7.3451539847800333e+00 -1.2376852240840586e+00 +3.4899446449976594e+01 +7.0548298557555563e+03 -4.2700349885185203e+05 -2.8174869757955294e+07 
-1.0000000000000000e+00 -5.3664459367010553e-01 +7.3451814333476912e+00 -1.2382988835679027e+00 +3.4240255702814586e+01 +7.0711412864155636e+03 -4.2363505418846197e+05 -2.8195938127696596e+07 
-1.1000000000000001e+00 -5.3664444308607206e-01 +7.3452092023319251e+00 -1.2387219161378908e+00 +3.3577505938945137e+01 +7.0861821027699452e+03 -4.2021143165372394e+05 -2.8217937058094580e+07 
-1.2000000000000000e+00 -5.3664429780680056e-01 +7.3452370196481072e+00 -1.2389107401234187e+00 +3.2916358005894416e+01 +7.0993654556557749e+03 -4.1675376187924150e+05 -2.8238824117945265e+07 
-1.3000000000000000e+00 -5.3664415821546252e-01 +7.3452646132101140e+00 -1.2388217778237032e+00 +3.2261972776547609e+01 +7.1101045664250169e+03 -4.1328317552393209e+05 -2.8256557202545382e+07 
-1.3999999999999999e+00 -5.3664402469533590e-01 +7.3452917109236422e+00 -1.2384114479901629e+00 +3.1619511339855894e+01 +7.1178125821152944e+03 -4.0982080435413669e+05 -2.8269093838276830e+07 
-1.5000000000000000e+00 -5.3664389762953069e-01 +7.3453180406921073e+00 -1.2376361726045302e+00 +3.0994134828135927e+01 +7.1219027038722506e+03 -4.0638778024895955e+05 -2.8274391797531590e+07 
-1.6000000000000001e+00 -5.3664377740129099e-01 +7.3453433304134146e+00 -1.2364523733263313e+00 +3.0391004501558683e+01 +7.1217881173355991e+03 -4.0300523564366071e+05 -2.8270408755773075e+07 
-1.7000000000000000e+00 -5.3664366439379019e-01 +7.3453673079755841e+00 -1.2348164725397888e+00 +2.9815281895823134e+01 +7.1168820109773205e+03 -3.9969430444816843e+05 -2.8255102380339283e+07 
-1.8000000000000000e+00 -5.3664355899019434e-01 +7.3453897012657743e+00 -1.2326848932583674e+00 +2.9272128529349882e+01 +7.1065975771108424e+03 -3.9647612025196105e+05 -2.8226430339695334e+07 
-1.8999999999999999e+00 -5.3664346157361398e-01 +7.3454102381612039e+00 -1.2300140606394854e+00 +2.8766706192091760e+01 +7.0903480362203591e+03 -3.9337181806739006e+05 -2.8182350410514526e+07 
-2.0000000000000000e+00 -5.3664337252721395e-01 +7.3454286465285730e+00 -1.2267603988679601e+00 +2.8304176939423719e+01 +7.0675465774418853e+03 -3.9040253422108822e+05 -2.8120820190625474e+07 
-2.1000000000000001e+00 -5.3664329212191320e-01 +7.3454447475716220e+00 -1.2228923804386820e+00 +2.7887827511947577e+01 +7.0377233472013240e+03 -3.8758252473092731e+05 -2.8040041476223070e+07 
-2.2000000000000002e+00 -5.3664322018034127e-01 +7.3454587352412632e+00 -1.2184278633805596e+00 +2.7513553480775972e+01 +7.0009001698648508e+03 -3.8489932753294578e+05 -2.7939277929709613e+07 
-2.2999999999999998e+00 -5.3664315641312654e-01 +7.3454708965412703e+00 -1.2133973671115541e+00 +2.7175430110153442e+01 +6.9572279901969914e+03 -3.8233400541714480e+05 -2.7818080849964283e+07 
-2.3999999999999999e+00 -5.3664310053093345e-01 +7.3454815184778441e+00 -1.2078314033977156e+00 +2.6867532616318382e+01 +6.9068576125194068e+03 -3.7986762099181087e+05 -2.7676000876569219e+07 
-2.5000000000000000e+00 -5.3664305224436637e-01 +7.3454908880578005e+00 -1.2017604894517206e+00 +2.6583936237909860e+01 +6.8499399590338326e+03 -3.7748123715161684e+05 -2.7512589242747292e+07 
-2.6000000000000001e+00 -5.3664301126411962e-01 +7.3454992922877329e+00 -1.1952151377783533e+00 +2.6318716240622834e+01 +6.7866258669993367e+03 -3.7515591706456005e+05 -2.7327396783607814e+07 
-2.7000000000000002e+00 -5.3664297730084543e-01 +7.3455070181789850e+00 -1.1882258640990684e+00 +2.6065947807249245e+01 +6.7170662495875831e+03 -3.7287272363754822e+05 -2.7119974726875141e+07 
-2.7999999999999998e+00 -5.3664295006520579e-01 +7.3455143527417492e+00 -1.1808231807172134e+00 +2.5819706189694088e+01 +6.6414119708603648e+03 -3.7061272035585874e+05 -2.6889874101875696e+07 
-2.8999999999999999e+00 -5.3664292926794388e-01 +7.3455215829933245e+00 -1.1730375974373042e+00 +2.5574066488821611e+01 +6.5598138610282695e+03 -3.6835697007357067e+05 -2.6636645803205293e+07 
-3.0000000000000000e+00 -5.3664291461974001e-01 +7.3455289959502759e+00 -1.1648996296108991e+00 +2.5323103873528670e+01 +6.4724228727889158e+03 -3.6608653627007362e+05 -2.6359841344782878e+07 
-3.1000000000000001e+00 -5.3664290583132856e-01 +7.3455368786361195e+00 -1.1564397839274372e+00 +2.5060893380592649e+01 +6.3793898112344905e+03 -3.6378248196825129e+05 -2.6059011571726654e+07 
-3.2000000000000002e+00 -5.3664290261347791e-01 +7.3455455180781879e+00 -1.1476885707300499e+00 +2.4781509992591108e+01 +6.2808655720594943e+03 -3.6142587015283579e+05 -2.5733707805767559e+07 
-3.2999999999999998e+00 -5.3664290467694831e-01 +7.3455552013075733e+00 -1.1386765000684327e+00 +2.4479028656579175e+01 +6.1770010683258361e+03 -3.5899776394891628e+05 -2.5383481499742143e+07 
-3.3999999999999999e+00 -5.3664291173253253e-01 +7.3455662153619530e+00 -1.1294340755918850e+00 +2.4147524199429224e+01 +6.0679471108860835e+03 -3.5647922612400714e+05 -2.5007883658145104e+07 
-3.5000000000000000e+00 -5.3664292349105802e-01 +7.3455788472839094e+00 -1.1199918052236713e+00 +2.3781071385389474e+01 +5.9538546167359109e+03 -3.5385131946333899e+05 -2.4606465842718795e+07 
-3.6000000000000001e+00 -5.3664293966337084e-01 +7.3455933841241459e+00 -1.1103801934680939e+00 +2.3373744827961911e+01 +5.8348744670161841e+03 -3.5109510628534615e+05 -2.4178779506651532e+07 
-3.7000000000000002e+00 -5.3664295996031575e-01 +7.3456101129380862e+00 -1.1006297427194105e+00 +2.2919619087131977e+01 +5.7111575235501532e+03 -3.4819164900952874e+05 -2.3724376051062271e+07 
-3.7999999999999998e+00 -5.3664298409283806e-01 +7.3456293207927006e+00 -1.0907709525776068e+00 +2.2412768484880843e+01 +5.5828546311662358e+03 -3.4512200913686602e+05 -2.3242806874529682e+07 
-3.8999999999999999e+00 -5.3664301177181994e-01 +7.3456512947563093e+00 -1.0808343251766166e+00 +2.1847267398188894e+01 +5.4501167073747392e+03 -3.4186724895184598e+05 -2.2733623769613206e+07 
-4.0000000000000000e+00 -5.3664304270829122e-01 +7.3456763219116104e+00 -1.0708503570459713e+00 +2.1217189892559620e+01 +5.3130945975483637e+03 -3.3840842941953707e+05 -2.2196378255190827e+07 
-4.0999999999999996e+00 -5.3664307661156374e-01 +7.3457045697568875e+00 -1.0608512328418067e+00 +2.0519200876907735e+01 +5.1720561332320967e+03 -3.3473669972777949e+05 -2.1631396472254835e+07 
-4.2000000000000002e+00 -5.3664311318175106e-01 +7.3457357327330079e+00 -1.0508730431854145e+00 +1.9760038884050868e+01 +5.0276753672760879e+03 -3.3088168143762887e+05 -2.1041873307329834e+07 
-4.2999999999999998e+00 -5.3664315211599722e-01 +7.3457693882435127e+00 -1.0409521491239209e+00 +1.8948889465413419e+01 +4.8807129075907942e+03 -3.2688213079508033e+05 -2.0431666347696926e+07 
-4.4000000000000004e+00 -5.3664319311138098e-01 +7.3458051136972369e+00 -1.0311249149976500e+00 +1.8094938011034969e+01 +4.7319294083081286e+03 -3.2277680300202587e+05 -1.9804633361122072e+07 
-4.5000000000000000e+00 -5.3664323586493301e-01 +7.3458424865065899e+00 -1.0214277102292513e+00 +1.7207369815815081e+01 +4.5820856068460871e+03 -3.1860445265697630e+05 -1.9164632479300421e+07 
-4.5999999999999996e+00 -5.3664328007361906e-01 +7.3458810840840734e+00 -1.0118969066016106e+00 +1.6295370140616104e+01 +4.4319422609686089e+03 -3.1440383399295621e+05 -1.8515521868652403e+07 
-4.7000000000000002e+00 -5.3664332543440052e-01 +7.3459204838518719e+00 -1.0025688813132936e+00 +1.5368123974847746e+01 +4.2822602117867909e+03 -3.1021369960077928e+05 -1.7861160044017997e+07 
-4.7999999999999998e+00 -5.3664337164418707e-01 +7.3459602632330609e+00 -9.9348001334747138e-01 +1.4434816269328614e+01 +4.1338003141779009e+03 -3.0607280171997979e+05 -1.7205405535422526e+07 
-4.9000000000000004e+00 -5.3664341839977736e-01 +7.3459999996573844e+00 -9.8466668932492774e-01 +1.3504631764542491e+01 +3.9873235413760262e+03 -3.0201989121552987e+05 -1.6552117370893080e+07 
-5.0000000000000000e+00 -5.3664346539798602e-01 +7.3460392705602855e+00 -9.7616529881923619e-01 +1.2586755024196748e+01 +3.8435908979675419e+03 -2.9809371778998786e+05 -1.5905154665288759e+07 
-5.0999999999999996e+00 -5.3664351233551333e-01 +7.3460776533746621e+00 -9.6801223644624468e-01 +1.1690370668947956e+01 +3.7033634565225902e+03 -2.9433303130721807e+05 -1.5268376788719382e+07 
-5.2000000000000002e+00 -5.3664355890906856e-01 +7.3461147255483557e+00 -9.6024390036849649e-01 +1.0824662863764107e+01 +3.5674023323118508e+03 -2.9077657880449307e+05 -1.4645643255513506e+07 
-5.2999999999999998e+00 -5.3664360481522655e-01 +7.3461500645262223e+00 -9.5289669890952822e-01 +9.9988158442024808e+00 +3.4364687981347188e+03 -2.8746310755258234e+05 -1.4040814240672672e+07 
-5.4000000000000004e+00 -5.3664364975055112e-01 +7.3461832477628937e+00 -9.4600703944430520e-01 +9.2220135342661607e+00 +3.3113240801261923e+03 -2.8443136279523215e+05 -1.3457749628461886e+07 
-5.5000000000000000e+00 -5.3664369341146811e-01 +7.3462138527174421e+00 -9.3961134058308315e-01 +8.5034397099843364e+00 +3.1927295858022781e+03 -2.8172008872608078e+05 -1.2900310087796379e+07 
-5.5999999999999996e+00 -5.3664373549439892e-01 +7.3462414568531900e+00 -9.3374602496136172e-01 +7.8522779936626366e+00 +3.0814467623078876e+03 -2.7936802840715006e+05 -1.2372356385405606e+07 
-5.7000000000000002e+00 -5.3664377569565136e-01 +7.3462656376402800e+00 -9.2844751958180627e-01 +7.2777117787596826e+00 +2.9782371040971775e+03 -2.7741392332296801e+05 -1.1877749427733479e+07 
-5.7999999999999998e+00 -5.3664381371148751e-01 +7.3462859725537957e+00 -9.2375226080387141e-01 +6.7889242865820565e+00 +2.8838622465900958e+03 -2.7589651372307457e+05 -1.1420350701984141e+07 
-5.9000000000000004e+00 -5.3664384923807873e-01 +7.3463020390729943e+00 -9.1969668963573936e-01 +6.3950985839109293e+00 +2.7990838741869516e+03 -2.7485453868344828e+05 -1.1004021833285902e+07 
-5.9999999999999902e+00 -5.3664388197150026e-01 +7.3463134146885016e+00 -9.1631725543391496e-01 +6.1054173734039727e+00 +2.7246637877513072e+03 -2.7432673491121270e+05 -1.0632624898977209e+07 
-6.0999999999999899e+00 -5.3664391171404624e-01 +7.3463198044011531e+00 -9.1363859352814714e-01 +5.9263532743490357e+00 +2.6611504704654894e+03 -2.7433943982505327e+05 -1.0308999906889230e+07 
-6.1999999999999904e+00 -5.3664393870726979e-01 +7.3463214170560409e+00 -9.1164125541452745e-01 +5.8537185564815033e+00 +2.6083084682135168e+03 -2.7487064953695616e+05 -1.0032198846011642e+07 
-6.2999999999999901e+00 -5.3664396330598751e-01 +7.3463185861313338e+00 -9.1029555468341739e-01 +5.8807016556758560e+00 +2.5657233098244383e+03 -2.7588658524883771e+05 -9.8003989151116069e+06 
-6.3999999999999897e+00 -5.3664398586512529e-01 +7.3463116451092132e+00 -9.0957180237427604e-01 +6.0004908505070000e+00 +2.5329804815673797e+03 -2.7735346723706031e+05 -9.6117771220273282e+06 
-6.4999999999999902e+00 -5.3664400673955048e-01 +7.3463009274682731e+00 -9.0944030205901971e-01 +6.2062744792872779e+00 +2.5096653401209046e+03 -2.7923751607274631e+05 -9.4645098901738003e+06 
-6.5999999999999899e+00 -5.3664402628428487e-01 +7.3462867666827005e+00 -9.0987135599528746e-01 +6.4912409659898209e+00 +2.4953632226240034e+03 -2.8150495277381572e+05 -9.3567735617755689e+06 
-6.6999999999999904e+00 -5.3664404485438266e-01 +7.3462694962258839e+00 -9.1083526127887726e-01 +6.8485787018690649e+00 +2.4896593837721143e+03 -2.8412199808651424e+05 -9.2867441288430933e+06 
-6.7999999999999901e+00 -5.3664406280485777e-01 +7.3462494495690764e+00 -9.1230230844151505e-01 +7.2714760911009799e+00 +2.4921389636063873e+03 -2.8705487277512683e+05 -9.2525970638446435e+06 
-6.8999999999999897e+00 -5.3664408049089751e-01 +7.3462269601810393e+00 -9.1424278470591813e-01 +7.7531215563219860e+00 +2.5023870485831999e+03 -2.9026979763864452e+05 -9.2525076062681973e+06 
-6.9999999999999902e+00 -5.3664409826770476e-01 +7.3462023615239493e+00 -9.1662697446412300e-01 +8.2867036562253702e+00 +2.5199886889699173e+03 -2.9373299420064769e+05 -9.2846508714075740e+06 
-7.0999999999999899e+00 -5.3664411649048904e-01 +7.3461759870619074e+00 -9.1942515321669627e-01 +8.8654108351730603e+00 +2.5445287756367670e+03 -2.9741068324632006e+05 -9.3472012391428109e+06 
-7.1999999999999904e+00 -5.3664413551456158e-01 +7.3461481702480693e+00 -9.2260759237137147e-01 +9.4824317943773622e+00 +2.5755921357317934e+03 -3.0126908696876705e+05 -9.4383328224872928e+06 
-7.2999999999999901e+00 -5.3664415569533042e-01 +7.3461192445439654e+00 -9.2614455728316492e-01 +1.0130954929652841e+01 +2.6127634980023613e+03 -3.0527442571551126e+05 -9.5562193106247466e+06 
-7.3999999999999897e+00 -5.3664417738824455e-01 +7.3460895433956077e+00 -9.3000630729560096e-01 +1.0804169026616647e+01 +2.6556274922243188e+03 -3.0939292202348943e+05 -9.6990339595025759e+06 
-7.4999999999999902e+00 -5.3664420094877496e-01 +7.3460594002507182e+00 -9.3416309755796545e-01 +1.1495262752051392e+01 +2.7037686806534243e+03 -3.1359079765013844e+05 -9.8649497365273014e+06 
-7.5999999999999899e+00 -5.3664422673255174e-01 +7.3460291485523639e+00 -9.3858517322795287e-01 +1.2197424841028806e+01 +2.7567714566121722e+03 -3.1783427466883545e+05 -1.0052138859371597e+07 
-7.6999999999999904e+00 -5.3664425509519842e-01 +7.3459991217374414e+00 -9.4324277582634442e-01 +1.2903844136212923e+01 +2.8142201585213193e+03 -3.2208957568360149e+05 -1.0258773321089091e+07 
-7.7999999999999901e+00 -5.3664428639251438e-01 +7.3459696532413652e+00 -9.4810613789712928e-01 +1.3607709453164949e+01 +2.8756989733929872e+03 -3.2632292306404538e+05 -1.0483024444605200e+07 
-7.8999999999999897e+00 -5.3664432098025594e-01 +7.3459410764934727e+00 -9.5314548670606436e-01 +1.4302209706209840e+01 +2.9407920051217243e+03 -3.3050053964995162e+05 -1.0723063201007025e+07 
-7.9999999999999902e+00 -5.3664435921433240e-01 +7.3459137249151834e+00 -9.5833103995366498e-01 +1.4980533969964490e+01 +3.0090831957207010e+03 -3.3458864921422605e+05 -1.0977059851651723e+07 
-8.0999999999999908e+00 -5.3664440143430314e-01 +7.3458878753175858e+00 -9.6363336088325469e-01 +1.5636892482465003e+01 +3.0801771301066178e+03 -3.3855867638406239e+05 -1.1243393881352574e+07 
-8.1999999999999904e+00 -5.3664444790135835e-01 +7.3458635799355125e+00 -9.6902313234855797e-01 +1.6269417579451954e+01 +3.1537430081273883e+03 -3.4240128105967125e+05 -1.1521190052252738e+07 
-8.2999999999999901e+00 -5.3664449885410548e-01 +7.3458408351885636e+00 -9.7447072963818382e-01 +1.6877182210498535e+01 +3.2294616988775210e+03 -3.4611155109413230e+05 -1.1809739087402139e+07 
-8.3999999999999897e+00 -5.3664455453113147e-01 +7.3458196374806652e+00 -9.7994652693622697e-01 +1.7459259724364411e+01 +3.3070140585980644e+03 -3.4968457630086038e+05 -1.2108331679156406e+07 
-8.4999999999999893e+00 -5.3664461517110285e-01 +7.3457999832011378e+00 -9.8542089528447263e-01 +1.8014723846059265e+01 +3.3860808924330613e+03 -3.5311544834194233e+05 -1.2416258307029068e+07 
-8.5999999999999908e+00 -5.3664468101262408e-01 +7.3457818687256129e+00 -9.9086420569052269e-01 +1.8542648645266826e+01 +3.4663430063318788e+03 -3.5639926051212999e+05 -1.2732809467347331e+07 
-8.6999999999999904e+00 -5.3664475229435715e-01 +7.3457652904103430e+00 -9.9624682882377502e-01 +1.9042108700839979e+01 +3.5474812092466677e+03 -3.5953110869323357e+05 -1.3057275703325117e+07 
-8.7999999999999794e+00 -5.3664482925494805e-01 +7.3457502445947203e+00 -1.0015391336870332e+00 +1.9512179039875331e+01 +3.6291762855919451e+03 -3.6250609102619754e+05 -1.3388947470011665e+07 
-8.8999999999999808e+00 -5.3664491213302279e-01 +7.3457367276035281e+00 -1.0067114875313001e+00 +1.9951935045812956e+01 +3.7111089902976128e+03 -3.6531930729507084e+05 -1.3727115101424497e+07 
-8.9999999999999805e+00 -5.3664500116726088e-01 +7.3457247357374955e+00 -1.0117342578023725e+00 +2.0360452754015281e+01 +3.7929600918708293e+03 -3.6796586069763597e+05 -1.4071069030652471e+07 
-9.0999999999999801e+00 -5.3664509659633230e-01 +7.3457142652843723e+00 -1.0165778091889701e+00 +2.0736808521611454e+01 +3.8744103132151949e+03 -3.7044085590041528e+05 -1.4420099502429606e+07 
-9.1999999999999797e+00 -5.3664519865887772e-01 +7.3457053125110070e+00 -1.0212125058812020e+00 +2.1080079259883423e+01 +3.9551403724088973e+03 -3.7273940038339293e+05 -1.4773496760884427e+07 
-9.2999999999999794e+00 -5.3664530759361040e-01 +7.3456978736670475e+00 -1.0256087098009528e+00 +2.1389342314978084e+01 +4.0348309550069494e+03 -3.7485660371126316e+05 -1.5130550932072273e+07 
-9.3999999999999808e+00 -5.3664542363918555e-01 +7.3456919449762008e+00 -1.0297367859093896e+00 +2.1663675734779275e+01 +4.1131628102237928e+03 -3.7678757911393954e+05 -1.5490552472603027e+07 
-9.4999999999999805e+00 -5.3664554703432921e-01 +7.3456875226511720e+00 -1.0335670899665219e+00 +2.1902157820005584e+01 +4.1898165205207597e+03 -3.7852744082880695e+05 -1.5852791076645406e+07 
-9.5999999999999801e+00 -5.3664567801764707e-01 +7.3456846028754841e+00 -1.0370699857910401e+00 +2.2103867665800269e+01 +4.2644728307230052e+03 -3.8007130727492954e+05 -1.6216557246418873e+07 
-9.6999999999999797e+00 -5.3664581682795520e-01 +7.3456831818137918e+00 -1.0402158266121848e+00 +2.2267884852890536e+01 +4.3368122897797521e+03 -3.8141429923424392e+05 -1.6581140577442411e+07 
-9.7999999999999794e+00 -5.3664596370387319e-01 +7.3456832556121903e+00 -1.0429749731216464e+00 +2.2393289437729287e+01 +4.4065155981245771e+03 -3.8255153978272248e+05 -1.6945831423630759e+07 
-9.8999999999999808e+00 -5.3664611888415825e-01 +7.3456848203894900e+00 -1.0453177785490251e+00 +2.2479162200404488e+01 +4.4732633237089813e+03 -3.8347815570229583e+05 -1.7309919543736227e+07 
-9.9999999999999805e+00 -5.3664628260753144e-01 +7.3456878722476331e+00 -1.0472145966901096e+00 +2.2524584309354914e+01 +4.5367360483378507e+03 -3.8418927536277560e+05 -1.7672694770076949e+07 
-1.0100000000000000e+01 -5.3664645496895658e-01 +7.3456923715073676e+00 -1.0486488294872158e+00 +2.2529375292445518e+01 +4.5967388076617890e+03 -3.8468272496780357e+05 -1.8033669323406566e+07 
