# trajectory
# s[mm] rx[mm] ry[mm] rz[mm] px[rad] py[rad] pz[rad]
0.0000000000000000e+00 +8.1649999999999991e+00 +0.0000000000000000e+00 +0.0000000000000000e+00 +0.0000000000000000e+00 +0.0000000000000000e+00 +1.0000000000000000e+00
-1.0000000000000001e-01 +8.1649997168576984e+00 +0.0000000000000000e+00 -9.9999999999465544e-02 +5.6628468155547578e-06 +0.0000000000000000e+00 +9.9999999998396605e-01
-2.0000000000000001e-01 +8.1649988674304748e+00 +0.0000000000000000e+00 -1.9999999999572429e-01 +1.1325698473446539e-05 +0.0000000000000000e+00 +9.9999999993586419e-01
-3.0000000000000004e-01 +8.1649974517178414e+00 +0.0000000000000000e+00 -2.9999999998556948e-01 +1.6988555031597255e-05 +0.0000000000000000e+00 +9.9999999985569443e-01
-4.0000000000000002e-01 +8.1649954697193046e+00 +0.0000000000000000e+00 -3.9999999996579427e-01 +2.2651416545971066e-05 +0.0000000000000000e+00 +9.9999999974345655e-01
-5.0000000000000000e-01 +8.1649929214343651e+00 +0.0000000000000000e+00 -4.9999999993319189e-01 +2.8314283070574373e-05 +0.0000000000000000e+00 +9.9999999959915054e-01
-5.9999999999999998e-01 +8.1649898068625202e+00 +0.0000000000000000e+00 -5.9999999988455543e-01 +3.3977154657455832e-05 +0.0000000000000000e+00 +9.9999999942277629e-01
-6.9999999999999996e-01 +8.1649861260032619e+00 +0.0000000000000000e+00 -6.9999999981667815e-01 +3.9640031356706368e-05 +0.0000000000000000e+00 +9.9999999921433380e-01
-7.9999999999999993e-01 +8.1649818788560768e+00 +0.0000000000000000e+00 -7.9999999972635316e-01 +4.5302913216459173e-05 +0.0000000000000000e+00 +9.9999999897382286e-01
-8.9999999999999991e-01 +8.1649770654204463e+00 +0.0000000000000000e+00 -8.9999999961037369e-01 +5.0965800282889712e-05 +0.0000000000000000e+00 +9.9999999870124345e-01
-9.9999999999999989e-01 +8.1649716856958463e+00 +0.0000000000000000e+00 -9.9999999946553286e-01 +5.6628692600215739e-05 +0.0000000000000000e+00 +9.9999999839659548e-01
-1.0999999999999999e+00 +8.1649657396817492e+00 +0.0000000000000000e+00 -1.0999999992886238e+00 +6.2291590210697309e-05 +0.0000000000000000e+00 +9.9999999805987883e-01
-1.2000000000000000e+00 +8.1649592273776257e+00 +0.0000000000000000e+00 -1.1999999990764396e+00 +6.7954493154636790e-05 +0.0000000000000000e+00 +9.9999999769109338e-01
-1.3000000000000000e+00 +8.1649521487829393e+00 +0.0000000000000000e+00 -1.2999999988257736e+00 +7.3617401470378870e-05 +0.0000000000000000e+00 +9.9999999729023903e-01
-1.4000000000000001e+00 +8.1649445038971518e+00 +0.0000000000000000e+00 -1.3999999985334186e+00 +7.9280315194310579e-05 +0.0000000000000000e+00 +9.9999999685731578e-01
-1.5000000000000002e+00 +8.1649362927197195e+00 +0.0000000000000000e+00 -1.4999999981961678e+00 +8.4943234360861287e-05 +0.0000000000000000e+00 +9.9999999639232340e-01
-1.6000000000000003e+00 +8.1649275152500973e+00 +0.0000000000000000e+00 -1.5999999978108144e+00 +9.0606159002502753e-05 +0.0000000000000000e+00 +9.9999999589526190e-01
-1.7000000000000004e+00 +8.1649181714877361e+00 +0.0000000000000000e+00 -1.6999999973741513e+00 +9.6269089149749102e-05 +0.0000000000000000e+00 +9.9999999536613116e-01
-1.8000000000000005e+00 +8.1649082614320836e+00 +0.0000000000000000e+00 -1.7999999968829716e+00 +1.0193202483115688e-04 +0.0000000000000000e+00 +9.9999999480493107e-01
-1.9000000000000006e+00 +8.1648977850825855e+00 +0.0000000000000000e+00 -1.8999999963340686e+00 +1.0759496607332503e-04 +0.0000000000000000e+00 +9.9999999421166152e-01
-2.0000000000000004e+00 +8.1648867424386840e+00 +0.0000000000000000e+00 -1.9999999957242349e+00 +1.1325791290089495e-04 +0.0000000000000000e+00 +9.9999999358632241e-01
-2.1000000000000005e+00 +8.1648751334998195e+00 +0.0000000000000000e+00 -2.0999999950502639e+00 +1.1892086533685129e-04 +0.0000000000000000e+00 +9.9999999292891373e-01
-2.2000000000000006e+00 +8.1648629582654291e+00 +0.0000000000000000e+00 -2.1999999943089485e+00 +1.2458382340583066e-04 +0.0000000000000000e+00 +9.9999999223943525e-01
-2.3000000000000007e+00 +8.1648502167349495e+00 +0.0000000000000000e+00 -2.2999999934970821e+00 +1.3024678713743036e-04 +0.0000000000000000e+00 +9.9999999151788699e-01
-2.4000000000000008e+00 +8.1648369089078123e+00 +0.0000000000000000e+00 -2.3999999926114572e+00 +1.3590975656650940e-04 +0.0000000000000000e+00 +9.9999999076426882e-01
-2.5000000000000009e+00 +8.1648230347834456e+00 +0.0000000000000000e+00 -2.4999999916488669e+00 +1.4157273173318849e-04 +0.0000000000000000e+00 +9.9999998997858064e-01
-2.6000000000000010e+00 +8.1648085943612738e+00 +0.0000000000000000e+00 -2.5999999906061042e+00 +1.4723571268285038e-04 +0.0000000000000000e+00 +9.9999998916082222e-01
-2.7000000000000011e+00 +8.1647935876407161e+00 +0.0000000000000000e+00 -2.6999999894799624e+00 +1.5289869946613985e-04 +0.0000000000000000e+00 +9.9999998831099357e-01
-2.8000000000000012e+00 +8.1647780146211844e+00 +0.0000000000000000e+00 -2.7999999882672340e+00 +1.5856169213896402e-04 +0.0000000000000000e+00 +9.9999998742909457e-01
-2.9000000000000012e+00 +8.1647618753020890e+00 +0.0000000000000000e+00 -2.8999999869647124e+00 +1.6422469076249254e-04 +0.0000000000000000e+00 +9.9999998651512512e-01
-3.0000000000000013e+00 +8.1647451696828313e+00 +0.0000000000000000e+00 -2.9999999855691901e+00 +1.6988769540315769e-04 +0.0000000000000000e+00 +9.9999998556908509e-01
-3.1000000000000014e+00 +8.1647278977628055e+00 +0.0000000000000000e+00 -3.0999999840774604e+00 +1.7555070613265472e-04 +0.0000000000000000e+00 +9.9999998459097439e-01
-3.2000000000000015e+00 +8.1647100595413988e+00 +0.0000000000000000e+00 -3.1999999824863159e+00 +1.8121372302794202e-04 +0.0000000000000000e+00 +9.9999998358079289e-01
-3.3000000000000016e+00 +8.1646916550179913e+00 +0.0000000000000000e+00 -3.2999999807925500e+00 +1.8687674617124138e-04 +0.0000000000000000e+00 +9.9999998253854050e-01
-3.4000000000000017e+00 +8.1646726841919541e+00 +0.0000000000000000e+00 -3.3999999789929549e+00 +1.9253977565003827e-04 +0.0000000000000000e+00 +9.9999998146421698e-01
-3.5000000000000018e+00 +8.1646531470626478e+00 +0.0000000000000000e+00 -3.4999999770843240e+00 +1.9820281155708203e-04 +0.0000000000000000e+00 +9.9999998035782234e-01
-3.6000000000000019e+00 +8.1646330436294257e+00 +0.0000000000000000e+00 -3.5999999750634504e+00 +2.0386585399038629e-04 +0.0000000000000000e+00 +9.9999997921935635e-01
-3.7000000000000020e+00 +8.1646123738916287e+00 +0.0000000000000000e+00 -3.6999999729271265e+00 +2.0952890305322915e-04 +0.0000000000000000e+00 +9.9999997804881890e-01
-3.8000000000000020e+00 +8.1645911378485891e+00 +0.0000000000000000e+00 -3.7999999706721450e+00 +2.1519195885415351e-04 +0.0000000000000000e+00 +9.9999997684620989e-01
-3.9000000000000021e+00 +8.1645693354996283e+00 +0.0000000000000000e+00 -3.8999999682952993e+00 +2.2085502150696746e-04 +0.0000000000000000e+00 +9.9999997561152920e-01
-4.0000000000000018e+00 +8.1645469668440551e+00 +0.0000000000000000e+00 -3.9999999657933820e+00 +2.2651809113074449e-04 +0.0000000000000000e+00 +9.9999997434477661e-01
-4.1000000000000014e+00 +8.1645240318811663e+00 +0.0000000000000000e+00 -4.0999999631631860e+00 +2.3218116784951698e-04 +0.0000000000000000e+00 +9.9999997304595201e-01
-4.2000000000000011e+00 +8.1645005306102458e+00 +0.0000000000000000e+00 -4.1999999604015033e+00 +2.3784425178889973e-04 +0.0000000000000000e+00 +9.9999997171505528e-01
-4.3000000000000007e+00 +8.1644764630305637e+00 +0.0000000000000000e+00 -4.2999999575051273e+00 +2.4350734307271318e-04 +0.0000000000000000e+00 +9.9999997035208621e-01
-4.4000000000000004e+00 +8.1644518291413810e+00 +0.0000000000000000e+00 -4.3999999544708510e+00 +2.4917044182267643e-04 +0.0000000000000000e+00 +9.9999996895704468e-01
-4.5000000000000000e+00 +8.1644266289419463e+00 +0.0000000000000000e+00 -4.4999999512954671e+00 +2.5483354815840684e-04 +0.0000000000000000e+00 +9.9999996752993059e-01
-4.5999999999999996e+00 +8.1644008624314939e+00 +0.0000000000000000e+00 -4.5999999479757685e+00 +2.6049666219741998e-04 +0.0000000000000000e+00 +9.9999996607074371e-01
-4.6999999999999993e+00 +8.1643745296092476e+00 +0.0000000000000000e+00 -4.6999999445085470e+00 +2.6615978405512928e-04 +0.0000000000000000e+00 +9.9999996457948381e-01
-4.7999999999999989e+00 +8.1643476304744187e+00 +0.0000000000000000e+00 -4.7999999408905962e+00 +2.7182291384484589e-04 +0.0000000000000000e+00 +9.9999996305615080e-01
-4.8999999999999986e+00 +8.1643201650262096e+00 +0.0000000000000000e+00 -4.8999999371187082e+00 +2.7748605167777834e-04 +0.0000000000000000e+00 +9.9999996150074455e-01
-4.9999999999999982e+00 +8.1642921332638103e+00 +0.0000000000000000e+00 -4.9999999331896756e+00 +2.8314919766303216e-04 +0.0000000000000000e+00 +9.9999995991326485e-01
-5.0999999999999979e+00 +8.1642635351864019e+00 +0.0000000000000000e+00 -5.0999999291002913e+00 +2.8881235190760977e-04 +0.0000000000000000e+00 +9.9999995829371158e-01
-5.1999999999999975e+00 +8.1642343707931513e+00 +0.0000000000000000e+00 -5.1999999248473481e+00 +2.9447551451640999e-04 +0.0000000000000000e+00 +9.9999995664208452e-01
-5.2999999999999972e+00 +8.1642046400832164e+00 +0.0000000000000000e+00 -5.2999999204276387e+00 +3.0013868559222772e-04 +0.0000000000000000e+00 +9.9999995495838345e-01
-5.3999999999999968e+00 +8.1641743430557465e+00 +0.0000000000000000e+00 -5.3999999158379559e+00 +3.0580186523575356e-04 +0.0000000000000000e+00 +9.9999995324260826e-01
-5.4999999999999964e+00 +8.1641434797098800e+00 +0.0000000000000000e+00 -5.4999999110750917e+00 +3.1146505354557349e-04 +0.0000000000000000e+00 +9.9999995149475873e-01
-5.5999999999999961e+00 +8.1641120500447446e+00 +0.0000000000000000e+00 -5.5999999061358388e+00 +3.1712825061816838e-04 +0.0000000000000000e+00 +9.9999994971483475e-01
-5.6999999999999957e+00 +8.1640800540594611e+00 +0.0000000000000000e+00 -5.6999999010169899e+00 +3.2279145654791363e-04 +0.0000000000000000e+00 +9.9999994790283608e-01
-5.7999999999999954e+00 +8.1640474917531378e+00 +0.0000000000000000e+00 -5.7999998957153371e+00 +3.2845467142707859e-04 +0.0000000000000000e+00 +9.9999994605876263e-01
-5.8999999999999950e+00 +8.1640143631248741e+00 +0.0000000000000000e+00 -5.8999998902276731e+00 +3.3411789534582627e-04 +0.0000000000000000e+00 +9.9999994418261418e-01
-5.9999999999999947e+00 +8.1639806681737639e+00 +0.0000000000000000e+00 -5.9999998845507907e+00 +3.3978112839221276e-04 +0.0000000000000000e+00 +9.9999994227439049e-01
-6.0999999999999943e+00 +8.1639464068988890e+00 +0.0000000000000000e+00 -6.0999998786814817e+00 +3.4544437065188314e-04 +0.0000000000000000e+00 +9.9999994033409134e-01
-6.1999999999999940e+00 +8.1639115792993238e+00 +0.0000000000000000e+00 -6.1999998726165391e+00 +3.5110762220473280e-04 +0.0000000000000000e+00 +9.9999993836171663e-01
-6.2999999999999936e+00 +8.1638761853741357e+00 +0.0000000000000000e+00 -6.2999998663527554e+00 +3.5677088312156862e-04 +0.0000000000000000e+00 +9.9999993635726614e-01
-6.3999999999999932e+00 +8.1638402251223852e+00 +0.0000000000000000e+00 -6.3999998598869228e+00 +3.6243415346380511e-04 +0.0000000000000000e+00 +9.9999993432073975e-01
-6.4999999999999929e+00 +8.1638036985431270e+00 +0.0000000000000000e+00 -6.4999998532158338e+00 +3.6809743328346429e-04 +0.0000000000000000e+00 +9.9999993225213724e-01
-6.5999999999999925e+00 +8.1637666056354110e+00 +0.0000000000000000e+00 -6.5999998463362806e+00 +3.7376072262317522e-04 +0.0000000000000000e+00 +9.9999993015145838e-01
-6.6999999999999922e+00 +8.1637289463982832e+00 +0.0000000000000000e+00 -6.6999998392450557e+00 +3.7942402151617367e-04 +0.0000000000000000e+00 +9.9999992801870308e-01
-6.7999999999999918e+00 +8.1636907208307878e+00 +0.0000000000000000e+00 -6.7999998319389521e+00 +3.8508732998630190e-04 +0.0000000000000000e+00 +9.9999992585387110e-01
-6.8999999999999915e+00 +8.1636519289319658e+00 +0.0000000000000000e+00 -6.8999998244147607e+00 +3.9075064804800820e-04 +0.0000000000000000e+00 +9.9999992365696233e-01
-6.9999999999999911e+00 +8.1636125707008578e+00 +0.0000000000000000e+00 -6.9999998166692752e+00 +3.9641397570634664e-04 +0.0000000000000000e+00 +9.9999992142797656e-01
-7.0999999999999908e+00 +8.1635726461365046e+00 +0.0000000000000000e+00 -7.0999998086992866e+00 +4.0207731295697666e-04 +0.0000000000000000e+00 +9.9999991916691366e-01
-7.1999999999999904e+00 +8.1635321552379470e+00 +0.0000000000000000e+00 -7.1999998005015886e+00 +4.0774065978616268e-04 +0.0000000000000000e+00 +9.9999991687377343e-01
-7.2999999999999901e+00 +8.1634910980042292e+00 +0.0000000000000000e+00 -7.2999997920729722e+00 +4.1340401617077379e-04 +0.0000000000000000e+00 +9.9999991454855575e-01
-7.3999999999999897e+00 +8.1634494744343957e+00 +0.0000000000000000e+00 -7.3999997834102302e+00 +4.1906738207828326e-04 +0.0000000000000000e+00 +9.9999991219126050e-01
-7.4999999999999893e+00 +8.1634072845274979e+00 +0.0000000000000000e+00 -7.4999997745101545e+00 +4.2473075746676830e-04 +0.0000000000000000e+00 +9.9999990980188747e-01
-7.5999999999999890e+00 +8.1633645282825889e+00 +0.0000000000000000e+00 -7.5999997653695379e+00 +4.3039414228490945e-04 +0.0000000000000000e+00 +9.9999990738043654e-01
-7.6999999999999886e+00 +8.1633212056987290e+00 +0.0000000000000000e+00 -7.6999997559851723e+00 +4.3605753647199042e-04 +0.0000000000000000e+00 +9.9999990492690760e-01
-7.7999999999999883e+00 +8.1632773167749839e+00 +0.0000000000000000e+00 -7.7999997463538504e+00 +4.4172093995789737e-04 +0.0000000000000000e+00 +9.9999990244130055e-01
-7.8999999999999879e+00 +8.1632328615104299e+00 +0.0000000000000000e+00 -7.8999997364723633e+00 +4.4738435266311876e-04 +0.0000000000000000e+00 +9.9999989992361515e-01
-7.9999999999999876e+00 +8.1631878399041469e+00 +0.0000000000000000e+00 -7.9999997263375038e+00 +4.5304777449874475e-04 +0.0000000000000000e+00 +9.9999989737385142e-01
-8.0999999999999872e+00 +8.1631422519552288e+00 +0.0000000000000000e+00 -8.0999997159460637e+00 +4.5871120536707566e-04 +0.0000000000000000e+00 +9.9999989479200913e-01
-8.1999999999999869e+00 +8.1630960976627769e+00 +0.0000000000000000e+00 -8.1999997052948359e+00 +4.6437464516831941e-04 +0.0000000000000000e+00 +9.9999989217808827e-01
-8.2999999999999865e+00 +8.1630493770259012e+00 +0.0000000000000000e+00 -8.2999996943806114e+00 +4.7003809380728956e-04 +0.0000000000000000e+00 +9.9999988953208874e-01
-8.3999999999999861e+00 +8.1630020900437241e+00 +0.0000000000000000e+00 -8.3999996832001838e+00 +4.7570155119401478e-04 +0.0000000000000000e+00 +9.9999988685401031e-01
-8.4999999999999858e+00 +8.1629542367153736e+00 +0.0000000000000000e+00 -8.4999996717503450e+00 +4.8136501724373978e-04 +0.0000000000000000e+00 +9.9999988414385299e-01
-8.5999999999999854e+00 +8.1629058170399880e+00 +0.0000000000000000e+00 -8.5999996600278852e+00 +4.8702849187692588e-04 +0.0000000000000000e+00 +9.9999988140161666e-01
-8.6999999999999851e+00 +8.1628568310167129e+00 +0.0000000000000000e+00 -8.6999996480295980e+00 +4.9269197501925182e-04 +0.0000000000000000e+00 +9.9999987862730111e-01
-8.7999999999999847e+00 +8.1628072786447028e+00 +0.0000000000000000e+00 -8.7999996357522754e+00 +4.9835546660161457e-04 +0.0000000000000000e+00 +9.9999987582090633e-01
-8.8999999999999844e+00 +8.1627571599231139e+00 +0.0000000000000000e+00 -8.8999996231927092e+00 +5.0401896656013007e-04 +0.0000000000000000e+00 +9.9999987298243220e-01
-8.9999999999999840e+00 +8.1627064748511131e+00 +0.0000000000000000e+00 -8.9999996103476914e+00 +5.0968247483613440e-04 +0.0000000000000000e+00 +9.9999987011187863e-01
-9.0999999999999837e+00 +8.1626552234278709e+00 +0.0000000000000000e+00 -9.0999995972140155e+00 +5.1534599137618411e-04 +0.0000000000000000e+00 +9.9999986720924539e-01
-9.1999999999999833e+00 +8.1626034056525629e+00 +0.0000000000000000e+00 -9.1999995837884718e+00 +5.2100951613205757e-04 +0.0000000000000000e+00 +9.9999986427453247e-01
-9.2999999999999829e+00 +8.1625510215243704e+00 +0.0000000000000000e+00 -9.2999995700678522e+00 +5.2667304906075575e-04 +0.0000000000000000e+00 +9.9999986130773966e-01
-9.3999999999999826e+00 +8.1624980710424779e+00 +0.0000000000000000e+00 -9.3999995560489502e+00 +5.3233659012450309e-04 +0.0000000000000000e+00 +9.9999985830886695e-01
-9.4999999999999822e+00 +8.1624445542060737e+00 +0.0000000000000000e+00 -9.4999995417285561e+00 +5.3800013929074871e-04 +0.0000000000000000e+00 +9.9999985527791413e-01
-9.5999999999999819e+00 +8.1623904710143496e+00 +0.0000000000000000e+00 -9.5999995271034635e+00 +5.4366369653216702e-04 +0.0000000000000000e+00 +9.9999985221488119e-01
-9.6999999999999815e+00 +8.1623358214664989e+00 +0.0000000000000000e+00 -9.6999995121704625e+00 +5.4932726182665905e-04 +0.0000000000000000e+00 +9.9999984911976791e-01
-9.7999999999999812e+00 +8.1622806055617172e+00 +0.0000000000000000e+00 -9.7999994969263469e+00 +5.5499083515735354e-04 +0.0000000000000000e+00 +9.9999984599257419e-01
-9.8999999999999808e+00 +8.1622248232992014e+00 +0.0000000000000000e+00 -9.8999994813679084e+00 +5.6065441651260777e-04 +0.0000000000000000e+00 +9.9999984283329990e-01
-9.9999999999999805e+00 +8.1621684746781487e+00 +0.0000000000000000e+00 -9.9999994654919373e+00 +5.6631800588600892e-04 +0.0000000000000000e+00 +9.9999983964194483e-01
-1.0099999999999980e+01 +8.1621115596977578e+00 +0.0000000000000000e+00 -1.0099999449295227e+01 +5.7198160327602402e-04 +0.0000000000000000e+00 +9.9999983641850898e-01
-1.0199999999999980e+01 +8.1620540783572260e+00 +0.0000000000000000e+00 -1.0199999432774570e+01 +5.7764520868213874e-04 +0.0000000000000000e+00 +9.9999983316299212e-01
-1.0299999999999979e+01 +8.1619960306557537e+00 +0.0000000000000000e+00 -1.0299999415926756e+01 +5.8330882210099562e-04 +0.0000000000000000e+00 +9.9999982987539415e-01
-1.0399999999999979e+01 +8.1619374165925382e+00 +0.0000000000000000e+00 -1.0399999398748578e+01 +5.8897244352604261e-04 +0.0000000000000000e+00 +9.9999982655571495e-01
-1.0499999999999979e+01 +8.1618782361667819e+00 +0.0000000000000000e+00 -1.0499999381236830e+01 +5.9463607294753327e-04 +0.0000000000000000e+00 +9.9999982320395431e-01
-1.0599999999999978e+01 +8.1618184893776835e+00 +0.0000000000000000e+00 -1.0599999363388299e+01 +6.0029971035252625e-04 +0.0000000000000000e+00 +9.9999981982011221e-01
-1.0699999999999978e+01 +8.1617581762244455e+00 +0.0000000000000000e+00 -1.0699999345199782e+01 +6.0596335572488515e-04 +0.0000000000000000e+00 +9.9999981640418845e-01
-1.0799999999999978e+01 +8.1616972967062740e+00 +0.0000000000000000e+00 -1.0799999326668068e+01 +6.1162700904527853e-04 +0.0000000000000000e+00 +9.9999981295618290e-01
-1.0899999999999977e+01 +8.1616358508223730e+00 +0.0000000000000000e+00 -1.0899999307789949e+01 +6.1729067029117960e-04 +0.0000000000000000e+00 +9.9999980947609557e-01
-1.0999999999999977e+01 +8.1615738385719521e+00 +0.0000000000000000e+00 -1.0999999288562218e+01 +6.2295433943686588e-04 +0.0000000000000000e+00 +9.9999980596392624e-01
-1.1099999999999977e+01 +8.1615112599542226e+00 +0.0000000000000000e+00 -1.1099999268981666e+01 +6.2861801645341920e-04 +0.0000000000000000e+00 +9.9999980241967479e-01
-1.1199999999999976e+01 +8.1614481149683993e+00 +0.0000000000000000e+00 -1.1199999249045083e+01 +6.3428170130872528e-04 +0.0000000000000000e+00 +9.9999979884334111e-01
-1.1299999999999976e+01 +8.1613844036137007e+00 +0.0000000000000000e+00 -1.1299999228749265e+01 +6.3994539396747361e-04 +0.0000000000000000e+00 +9.9999979523492510e-01
-1.1399999999999975e+01 +8.1613201258893469e+00 +0.0000000000000000e+00 -1.1399999208091000e+01 +6.4560909439115733e-04 +0.0000000000000000e+00 +9.9999979159442665e-01
-1.1499999999999975e+01 +8.1612552817945652e+00 +0.0000000000000000e+00 -1.1499999187067081e+01 +6.5127280253807261e-04 +0.0000000000000000e+00 +9.9999978792184563e-01
-1.1599999999999975e+01 +8.1611898713285846e+00 +0.0000000000000000e+00 -1.1599999165674300e+01 +6.5693651836331885e-04 +0.0000000000000000e+00 +9.9999978421718194e-01
-1.1699999999999974e+01 +8.1611238944906397e+00 +0.0000000000000000e+00 -1.1699999143909448e+01 +6.6260024181879823e-04 +0.0000000000000000e+00 +9.9999978048043547e-01
