# field on trajectory
# s[mm] rx[mm] ry[mm] rz[mm] bx[T] by[T] bz[T]
-0.0000000000000000e+00 +8.1530000000000094e+00 +0.0000000000000000e+00 -0.0000000000000000e+00 -2.7851603113370822e-02 -5.3668162409990872e-01 +5.3325900616337518e-03
-1.0000000000000001e-01 +8.1529997163925092e+00 +0.0000000000000000e+00 -9.9999999999463796e-02 -2.7851407751430305e-02 -5.3668148389476711e-01 +5.3325811071887200e-03
-2.0000000000000001e-01 +8.1529988655711296e+00 +0.0000000000000000e+00 -1.9999999999571000e-01 -2.7851211013939194e-02 -5.3668135480241330e-01 +5.3325734203433159e-03
-2.9999999999999999e-01 +8.1529974475415692e+00 +0.0000000000000000e+00 -2.9999999998552201e-01 -2.7851012963434590e-02 -5.3668123669118106e-01 +5.3325669742231938e-03
-4.0000000000000002e-01 +8.1529954622965306e+00 +0.0000000000000000e+00 -3.9999999996568197e-01 -2.7850813662454194e-02 -5.3668112942951252e-01 +5.3325617419553223e-03
-5.0000000000000000e-01 +8.1529929098396696e+00 +0.0000000000000000e+00 -4.9999999993297300e-01 -2.7850613173528261e-02 -5.3668103288578173e-01 +5.3325576966661006e-03
-5.9999999999999998e-01 +8.1529897901673394e+00 +0.0000000000000000e+00 -5.9999999988417696e-01 -2.7850411559188437e-02 -5.3668094692842294e-01 +5.3325548114825753e-03
-6.9999999999999996e-01 +8.1529861032831796e+00 +0.0000000000000000e+00 -6.9999999981607697e-01 -2.7850208881963472e-02 -5.3668087142582266e-01 +5.3325530595312526e-03
-8.0000000000000004e-01 +8.1529818491871993e+00 +0.0000000000000000e+00 -7.9999999972545699e-01 -2.7850005204385086e-02 -5.3668080624639503e-01 +5.3325524139387730e-03
-9.0000000000000002e-01 +8.1529770278793894e+00 +0.0000000000000000e+00 -8.9999999960909804e-01 -2.7849800588988071e-02 -5.3668075125855286e-01 +5.3325528478315237e-03
-1.0000000000000000e+00 +8.1529716393597500e+00 +0.0000000000000000e+00 -9.9999999946378304e-01 -2.7849595098311787e-02 -5.3668070633070475e-01 +5.3325543343355217e-03
-1.1000000000000001e+00 +8.1529656836210105e+00 +0.0000000000000000e+00 -1.0999999992862901e+00 -2.7849388794904666e-02 -5.3668067133130426e-01 +5.3325568465768308e-03
-1.2000000000000000e+00 +8.1529591606740706e+00 +0.0000000000000000e+00 -1.1999999990734200e+00 -2.7849181741315530e-02 -5.3668064612866129e-01 +5.3325603576795458e-03
-1.3000000000000000e+00 +8.1529520705153100e+00 +0.0000000000000000e+00 -1.2999999988219300e+00 -2.7848974000108193e-02 -5.3668063059117732e-01 +5.3325648407681076e-03
-1.3999999999999999e+00 +8.1529444131410909e+00 +0.0000000000000000e+00 -1.3999999985286200e+00 -2.7848765633857197e-02 -5.3668062458723820e-01 +5.3325702689660916e-03
-1.5000000000000000e+00 +8.1529361885550298e+00 +0.0000000000000000e+00 -1.4999999981902701e+00 -2.7848556705146445e-02 -5.3668062798515492e-01 +5.3325766153955595e-03
-1.6000000000000001e+00 +8.1529273967571498e+00 +0.0000000000000000e+00 -1.5999999978036501e+00 -2.7848347276575071e-02 -5.3668064065324206e-01 +5.3325838531777334e-03
-1.7000000000000000e+00 +8.1529180377474404e+00 +0.0000000000000000e+00 -1.6999999973655600e+00 -2.7848137410757541e-02 -5.3668066245978763e-01 +5.3325919554326187e-03
-1.8000000000000000e+00 +8.1529081115222706e+00 +0.0000000000000000e+00 -1.7999999968727800e+00 -2.7847927170326619e-02 -5.3668069327307699e-01 +5.3326008952791354e-03
-1.8999999999999999e+00 +8.1528976180852606e+00 +0.0000000000000000e+00 -1.8999999963220899e+00 -2.7847716617930587e-02 -5.3668073296130914e-01 +5.3326106458342062e-03
-2.0000000000000000e+00 +8.1528865574327902e+00 +0.0000000000000000e+00 -1.9999999957102601e+00 -2.7847505816240500e-02 -5.3668078139270003e-01 +5.3326211802137017e-03
-2.1000000000000001e+00 +8.1528749295721408e+00 +0.0000000000000000e+00 -2.0999999950340902e+00 -2.7847294848876027e-02 -5.3668083838775271e-01 +5.3326324951096585e-03
-2.2000000000000002e+00 +8.1528627344960096e+00 +0.0000000000000000e+00 -2.1999999942903599e+00 -2.7847083883201802e-02 -5.3668090357667231e-01 +5.3326446815291518e-03
-2.2999999999999998e+00 +8.1528499722080596e+00 +0.0000000000000000e+00 -2.2999999934758399e+00 -2.7846873107506130e-02 -5.3668097654199287e-01 +5.3326578540581595e-03
-2.3999999999999999e+00 +8.1528366427046404e+00 +0.0000000000000000e+00 -2.3999999925873299e+00 -2.7846662710072651e-02 -5.3668105686631251e-01 +5.3326721272846690e-03
-2.5000000000000000e+00 +8.1528227459894005e+00 +0.0000000000000000e+00 -2.4999999916215998e+00 -2.7846452879172715e-02 -5.3668114413218759e-01 +5.3326876157978598e-03
-2.6000000000000001e+00 +8.1528082820659602e+00 +0.0000000000000000e+00 -2.5999999905754398e+00 -2.7846243803066481e-02 -5.3668123792219069e-01 +5.3327044341888443e-03
-2.7000000000000002e+00 +8.1527932509234198e+00 +0.0000000000000000e+00 -2.6999999894456299e+00 -2.7846035670006868e-02 -5.3668133781901928e-01 +5.3327226970520114e-03
-2.7999999999999998e+00 +8.1527776525726896e+00 +0.0000000000000000e+00 -2.7999999882289601e+00 -2.7845828668223247e-02 -5.3668144340523072e-01 +5.3327425189825424e-03
-2.8999999999999999e+00 +8.1527614870065008e+00 +0.0000000000000000e+00 -2.8999999869222002e+00 -2.7845622985935493e-02 -5.3668155426354081e-01 +5.3327640145796199e-03
-3.0000000000000000e+00 +8.1527447542284808e+00 +0.0000000000000000e+00 -2.9999999855221300e+00 -2.7845418811340689e-02 -5.3668166997661026e-01 +5.3327872984445081e-03
-3.1000000000000001e+00 +8.1527274542386294e+00 +0.0000000000000000e+00 -3.0999999840255499e+00 -2.7845216332616954e-02 -5.3668179012715622e-01 +5.3328124851818540e-03
-3.2000000000000002e+00 +8.1527095870333106e+00 +0.0000000000000000e+00 -3.1999999824292300e+00 -2.7845015737921704e-02 -5.3668191429795431e-01 +5.3328396893999319e-03
-3.2999999999999998e+00 +8.1526911526198091e+00 +0.0000000000000000e+00 -3.2999999807299600e+00 -2.7844817215384024e-02 -5.3668204207173420e-01 +5.3328690257097985e-03
-3.3999999999999999e+00 +8.1526721509872004e+00 +0.0000000000000000e+00 -3.3999999789245101e+00 -2.7844620953114359e-02 -5.3668217303139620e-01 +5.3329006087276748e-03
-3.5000000000000000e+00 +8.1526525821464002e+00 +0.0000000000000000e+00 -3.4999999770096801e+00 -2.7844427139186854e-02 -5.3668230675972051e-01 +5.3329345530722253e-03
-3.6000000000000001e+00 +8.1526324460901396e+00 +0.0000000000000000e+00 -3.5999999749822500e+00 -2.7844235961653353e-02 -5.3668244283966349e-01 +5.3329709733677495e-03
-3.7000000000000002e+00 +8.1526117428220495e+00 +0.0000000000000000e+00 -3.6999999728389801e+00 -2.7844047608530063e-02 -5.3668258085414666e-01 +5.3330099842422637e-03
-3.7999999999999998e+00 +8.1525904723421299e+00 +0.0000000000000000e+00 -3.7999999705766800e+00 -2.7843862267801486e-02 -5.3668272038616605e-01 +5.3330517003288141e-03
-3.8999999999999999e+00 +8.1525686346503807e+00 +0.0000000000000000e+00 -3.8999999681921298e+00 -2.7843680127417125e-02 -5.3668286101876872e-01 +5.3330962362654333e-03
-4.0000000000000000e+00 +8.1525462297431694e+00 +0.0000000000000000e+00 -3.9999999656820902e+00 -2.7843501375291149e-02 -5.3668300233508182e-01 +5.3331437066956580e-03
-4.0999999999999996e+00 +8.1525232576241304e+00 +0.0000000000000000e+00 -4.0999999630433699e+00 -2.7843326184900378e-02 -5.3668314403450745e-01 +5.3331941831424798e-03
-4.2000000000000002e+00 +8.1524997182896204e+00 +0.0000000000000000e+00 -4.1999999602727298e+00 -2.7843154672118869e-02 -5.3668328628161832e-01 +5.3332475646298144e-03
-4.2999999999999998e+00 +8.1524756117469206e+00 +0.0000000000000000e+00 -4.2999999573669703e+00 -2.7842986938428911e-02 -5.3668342935715574e-01 +5.3333037070517914e-03
-4.4000000000000004e+00 +8.1524509379887604e+00 +0.0000000000000000e+00 -4.3999999543228601e+00 -2.7842823085332633e-02 -5.3668357354193152e-01 +5.3333624662990232e-03
-4.5000000000000000e+00 +8.1524256970187707e+00 +0.0000000000000000e+00 -4.4999999511372000e+00 -2.7842663214343366e-02 -5.3668371911663992e-01 +5.3334236982563645e-03
-4.5999999999999996e+00 +8.1523998888369498e+00 +0.0000000000000000e+00 -4.5999999478067499e+00 -2.7842507426992753e-02 -5.3668386636196108e-01 +5.3334872588036205e-03
-4.7000000000000002e+00 +8.1523735134396702e+00 +0.0000000000000000e+00 -4.6999999443283098e+00 -2.7842355824832229e-02 -5.3668401555855916e-01 +5.3335530038151821e-03
-4.7999999999999998e+00 +8.1523465708305594e+00 +0.0000000000000000e+00 -4.7999999406986600e+00 -2.7842208509430012e-02 -5.3668416698699772e-01 +5.3336207891588683e-03
-4.9000000000000004e+00 +8.1523190610096208e+00 +0.0000000000000000e+00 -4.8999999369145701e+00 -2.7842065582376906e-02 -5.3668432092781782e-01 +5.3336904706963529e-03
-5.0000000000000000e+00 +8.1522909839768491e+00 +0.0000000000000000e+00 -4.9999999329728402e+00 -2.7841927145286240e-02 -5.3668447766150984e-01 +5.3337619042825432e-03
-5.0999999999999996e+00 +8.1522623397286207e+00 +0.0000000000000000e+00 -5.0999999288702398e+00 -2.7841793299796695e-02 -5.3668463746853434e-01 +5.3338349457654876e-03
-5.2000000000000002e+00 +8.1522331282685592e+00 +0.0000000000000000e+00 -5.1999999246035600e+00 -2.7841664147569431e-02 -5.3668480062924284e-01 +5.3339094509852027e-03
-5.2999999999999998e+00 +8.1522033495966806e+00 +0.0000000000000000e+00 -5.2999999201695802e+00 -2.7841539790293777e-02 -5.3668496742395178e-01 +5.3339852757741174e-03
-5.4000000000000004e+00 +8.1521730037093203e+00 +0.0000000000000000e+00 -5.3999999155650800e+00 -2.7841420329688654e-02 -5.3668513813294261e-01 +5.3340622759567103e-03
-5.5000000000000000e+00 +8.1521420906137791e+00 +0.0000000000000000e+00 -5.4999999107868396e+00 -2.7841305867498202e-02 -5.3668531303634892e-01 +5.3341403073480726e-03
-5.5999999999999996e+00 +8.1521106102991308e+00 +0.0000000000000000e+00 -5.5999999058316599e+00 -2.7841196505504758e-02 -5.3668549241437102e-01 +5.3342192257557061e-03
-5.7000000000000002e+00 +8.1520785627762997e+00 +0.0000000000000000e+00 -5.6999999006963096e+00 -2.7841092345514341e-02 -5.3668567654697608e-01 +5.3342988869761786e-03
-5.7999999999999998e+00 +8.1520459480379905e+00 +0.0000000000000000e+00 -5.7999998953775700e+00 -2.7840993489373963e-02 -5.3668586571419097e-01 +5.3343791467977495e-03
-5.9000000000000004e+00 +8.1520127660915005e+00 +0.0000000000000000e+00 -5.8999998898722197e+00 -2.7840900038960031e-02 -5.3668606019585829e-01 +5.3344598609975655e-03
-5.9999999999999902e+00 +8.1519790169259103e+00 +0.0000000000000000e+00 -5.9999998841770603e+00 -2.7840812096192800e-02 -5.3668626027187549e-01 +5.3345408853437346e-03
-6.0999999999999899e+00 +8.1519447005521197e+00 +0.0000000000000000e+00 -6.0999998782888598e+00 -2.7840729664411843e-02 -5.3668646608341275e-01 +5.3346221184683400e-03
-6.1999999999999904e+00 +8.1519098169665103e+00 +0.0000000000000000e+00 -6.1999998722044003e+00 -2.7840652352545899e-02 -5.3668667721777163e-01 +5.3347036305047427e-03
-6.2999999999999901e+00 +8.1518743661654298e+00 +0.0000000000000000e+00 -6.2999998659204701e+00 -2.7840579670912170e-02 -5.3668689312379281e-01 +5.3347855344663912e-03
-6.3999999999999897e+00 +8.1518383481488907e+00 +0.0000000000000000e+00 -6.3999998594338496e+00 -2.7840511129821461e-02 -5.3668711325032370e-01 +5.3348679433714904e-03
-6.4999999999999902e+00 +8.1518017629241495e+00 +0.0000000000000000e+00 -6.4999998527413201e+00 -2.7840446239576353e-02 -5.3668733704619587e-01 +5.3349509702430159e-03
-6.5999999999999899e+00 +8.1517646104839496e+00 +0.0000000000000000e+00 -6.5999998458396698e+00 -2.7840384510479439e-02 -5.3668756396038564e-01 +5.3350347281106150e-03
-6.6999999999999904e+00 +8.1517268908319203e+00 +0.0000000000000000e+00 -6.6999998387256703e+00 -2.7840325452822841e-02 -5.3668779344182904e-01 +5.3351193300090064e-03
-6.7999999999999901e+00 +8.1516886039680703e+00 +0.0000000000000000e+00 -6.7999998313961196e+00 -2.7840268576893545e-02 -5.3668802493953172e-01 +5.3352048889793403e-03
-6.8999999999999897e+00 +8.1516497498923908e+00 +0.0000000000000000e+00 -6.8999998238477902e+00 -2.7840213392971616e-02 -5.3668825790254415e-01 +5.3352915180692176e-03
-6.9999999999999902e+00 +8.1516103286012402e+00 +0.0000000000000000e+00 -6.9999998160774597e+00 -2.7840159411331170e-02 -5.3668849177998967e-01 +5.3353793303332359e-03
-7.0999999999999899e+00 +8.1515703400982602e+00 +0.0000000000000000e+00 -7.0999998080819298e+00 -2.7840106142235647e-02 -5.3668872602098605e-01 +5.3354684388324716e-03
-7.1999999999999904e+00 +8.1515297843834595e+00 +0.0000000000000000e+00 -7.1999997998579603e+00 -2.7840053095941793e-02 -5.3668896007472888e-01 +5.3355589566355709e-03
-7.2999999999999901e+00 +8.1514886614531896e+00 +0.0000000000000000e+00 -7.2999997914023496e+00 -2.7839999782699219e-02 -5.3668919339049337e-01 +5.3356509968190326e-03
-7.3999999999999897e+00 +8.1514469713147300e+00 +0.0000000000000000e+00 -7.3999997827118804e+00 -2.7839945712744216e-02 -5.3668942541752818e-01 +5.3357446724664132e-03
-7.4999999999999902e+00 +8.1514047139571595e+00 +0.0000000000000000e+00 -7.4999997737833199e+00 -2.7839890396310917e-02 -5.3668965560527315e-01 +5.3358400966707640e-03
-7.5999999999999899e+00 +8.1513618893914099e+00 +0.0000000000000000e+00 -7.5999997646134698e+00 -2.7839833343615020e-02 -5.3668988340306523e-01 +5.3359373825319556e-03
-7.6999999999999904e+00 +8.1513184976138309e+00 +0.0000000000000000e+00 -7.6999997551991104e+00 -2.7839774064867817e-02 -5.3669010826040997e-01 +5.3360366431596511e-03
-7.7999999999999901e+00 +8.1512745386207808e+00 +0.0000000000000000e+00 -7.7999997455370096e+00 -2.7839712070270035e-02 -5.3669032962687524e-01 +5.3361379916725188e-03
-7.8999999999999897e+00 +8.1512300124159101e+00 +0.0000000000000000e+00 -7.8999997356239602e+00 -2.7839646870008485e-02 -5.3669054695203944e-01 +5.3362415411979565e-03
-7.9999999999999902e+00 +8.1511849189955701e+00 +0.0000000000000000e+00 -7.9999997254567399e+00 -2.7839577974261523e-02 -5.3669075968560220e-01 +5.3363474048734793e-03
-8.0999999999999908e+00 +8.1511392583670403e+00 +0.0000000000000000e+00 -8.0999997150321406e+00 -2.7839504995372549e-02 -5.3669096755429702e-01 +5.3364556633768807e-03
-8.1999999999999904e+00 +8.1510930305230396e+00 +0.0000000000000000e+00 -8.1999997043469399e+00 -2.7839427954407782e-02 -5.3669117139321176e-01 +5.3365662675188309e-03
-8.2999999999999901e+00 +8.1510462354672200e+00 +0.0000000000000000e+00 -8.2999996933979094e+00 -2.7839346974602587e-02 -5.3669137231442965e-01 +5.3366791356440207e-03
-8.3999999999999897e+00 +8.1509988731995708e+00 +0.0000000000000000e+00 -8.3999996821818605e+00 -2.7839262179184369e-02 -5.3669157143008228e-01 +5.3367941861010536e-03
-8.4999999999999893e+00 +8.1509509437164507e+00 +0.0000000000000000e+00 -8.4999996706955496e+00 -2.7839173691372329e-02 -5.3669176985234923e-01 +5.3369113372425349e-03
-8.5999999999999908e+00 +8.1509024470215099e+00 +0.0000000000000000e+00 -8.5999996589357703e+00 -2.7839081634372771e-02 -5.3669196869337954e-01 +5.3370305074243269e-03
-8.6999999999999904e+00 +8.1508533831147396e+00 +0.0000000000000000e+00 -8.6999996468993004e+00 -2.7838986131383157e-02 -5.3669216906537087e-01 +5.3371516150064365e-03
-8.7999999999999794e+00 +8.1508037519961398e+00 +0.0000000000000000e+00 -8.7999996345829192e+00 -2.7838887305590320e-02 -5.3669237208054421e-01 +5.3372745783528347e-03
-8.8999999999999808e+00 +8.1507535536620708e+00 +0.0000000000000000e+00 -8.8999996219834205e+00 -2.7838785280171637e-02 -5.3669257885117128e-01 +5.3373993158317900e-03
-8.9999999999999805e+00 +8.1507027881161793e+00 +0.0000000000000000e+00 -8.9999996090975891e+00 -2.7838680178290342e-02 -5.3669279048949359e-01 +5.3375257458151588e-03
-9.0999999999999801e+00 +8.1506514553584601e+00 +0.0000000000000000e+00 -9.0999995959221902e+00 -2.7838572123099627e-02 -5.3669300810780418e-01 +5.3376537866792464e-03
-9.1999999999999797e+00 +8.1505995553889097e+00 +0.0000000000000000e+00 -9.1999995824540193e+00 -2.7838461237740801e-02 -5.3669323281842152e-01 +5.3377833568046340e-03
-9.2999999999999794e+00 +8.1505470882038900e+00 +0.0000000000000000e+00 -9.2999995686898593e+00 -2.7838347645344499e-02 -5.3669346573371479e-01 +5.3379143745765243e-03
-9.3999999999999808e+00 +8.1504940538070496e+00 +0.0000000000000000e+00 -9.3999995546264898e+00 -2.7838231469025941e-02 -5.3669370796602700e-01 +5.3380467583840040e-03
-9.4999999999999805e+00 +8.1504404521983798e+00 +0.0000000000000000e+00 -9.4999995402606903e+00 -2.7838112831889056e-02 -5.3669396062775288e-01 +5.3381804266209370e-03
-9.5999999999999801e+00 +8.1503862833778804e+00 +0.0000000000000000e+00 -9.5999995255892507e+00 -2.7837991857024697e-02 -5.3669422483131479e-01 +5.3383152976857785e-03
-9.6999999999999797e+00 +8.1503315473419207e+00 +0.0000000000000000e+00 -9.6999995106089507e+00 -2.7837868667511700e-02 -5.3669450168918809e-01 +5.3384512899819093e-03
-9.7999999999999794e+00 +8.1502762440941297e+00 +0.0000000000000000e+00 -9.7999994953165697e+00 -2.7837743386412348e-02 -5.3669479231382267e-01 +5.3385883219169202e-03
-9.8999999999999808e+00 +8.1502203736345091e+00 +0.0000000000000000e+00 -9.8999994797088906e+00 -2.7837616136776291e-02 -5.3669509781772373e-01 +5.3387263119034937e-03
-9.9999999999999805e+00 +8.1501639359594300e+00 +0.0000000000000000e+00 -9.9999994637827001e+00 -2.7837487041640286e-02 -5.3669541931345033e-01 +5.3388651783594790e-03
-1.0100000000000000e+01 +8.1501069310761505e+00 +0.0000000000000000e+00 -1.0099999447534801e+01 -2.7837356214633083e-02 -5.3669575755016097e-01 +5.3390048338088462e-03
-1.0199999999999999e+01 +8.1500493589774106e+00 +0.0000000000000000e+00 -1.0199999430961901e+01 -2.7837223731826587e-02 -5.3669611182368315e-01 +5.3391451671846585e-03
-1.0300000000000001e+01 +8.1499912196668394e+00 +0.0000000000000000e+00 -1.0299999414060901e+01 -2.7837089659909185e-02 -5.3669648106631607e-01 +5.3392860615137381e-03
-1.0400000000000000e+01 +8.1499325131444493e+00 +0.0000000000000000e+00 -1.0399999396828500e+01 -2.7836954065583477e-02 -5.3669686421028584e-01 +5.3394273998146283e-03
-1.0500000000000000e+01 +8.1498732394065900e+00 +0.0000000000000000e+00 -1.0499999379261400e+01 -2.7836817015566579e-02 -5.3669726018774344e-01 +5.3395690650973673e-03
-1.0600000000000000e+01 +8.1498133984568994e+00 +0.0000000000000000e+00 -1.0599999361356600e+01 -2.7836678576586265e-02 -5.3669766793068163e-01 +5.3397109403624183e-03
-1.0699999999999999e+01 +8.1497529902953794e+00 +0.0000000000000000e+00 -1.0699999343110701e+01 -2.7836538815385635e-02 -5.3669808637101246e-01 +5.3398529086012307e-03
-1.0800000000000001e+01 +8.1496920149220404e+00 +0.0000000000000000e+00 -1.0799999324520600e+01 -2.7836397798722008e-02 -5.3669851444053829e-01 +5.3399948527957279e-03
-1.0900000000000000e+01 +8.1496304723332305e+00 +0.0000000000000000e+00 -1.0899999305583000e+01 -2.7836255593368837e-02 -5.3669895107097521e-01 +5.3401366559183280e-03
-1.1000000000000000e+01 +8.1495683625325892e+00 +0.0000000000000000e+00 -1.0999999286294800e+01 -2.7836112266111681e-02 -5.3669939519387111e-01 +5.3402782009308791e-03
-1.1100000000000000e+01 +8.1495056855201309e+00 +0.0000000000000000e+00 -1.1099999266652601e+01 -2.7835967883752956e-02 -5.3669984574068230e-01 +5.3404193707852314e-03
-1.1199999999999999e+01 +8.1494424412958306e+00 +0.0000000000000000e+00 -1.1199999246653300e+01 -2.7835822513110835e-02 -5.3670030164274463e-01 +5.3405600484227123e-03
-1.1300000000000001e+01 +8.1493786298560700e+00 +0.0000000000000000e+00 -1.1299999226293700e+01 -2.7835676221021153e-02 -5.3670076183129800e-01 +5.3407001167741566e-03
-1.1400000000000000e+01 +8.1493142512044905e+00 +0.0000000000000000e+00 -1.1399999205570500e+01 -2.7835529074333329e-02 -5.3670122523740227e-01 +5.3408394587588339e-03
-1.1500000000000000e+01 +8.1492493053447106e+00 +0.0000000000000000e+00 -1.1499999184480499e+01 -2.7835381139913754e-02 -5.3670169079198948e-01 +5.3409779572847604e-03
-1.1600000000000000e+01 +8.1491837922658306e+00 +0.0000000000000000e+00 -1.1599999163020600e+01 -2.7835232484651910e-02 -5.3670215742596716e-01 +5.3411154952495137e-03
-1.1699999999999999e+01 +8.1491177119787608e+00 +0.0000000000000000e+00 -1.1699999141187400e+01 -2.7835083175446279e-02 -5.3670262406994973e-01 +5.3412519555373064e-03
