# field on trajectory
# s[mm] rx[mm] ry[mm] rz[mm] bx[T] by[T] bz[T]
0.0000000000000000e+00 +8.1649999999999991e+00 +0.0000000000000000e+00 +0.0000000000000000e+00 -3.2426266469214149e-02 -5.9256271998704735e-01 +5.8845511142103053e-03
1.0000000000000001e-01 +8.1649997168813560e+00 +0.0000000000000000e+00 +9.9999999999465614e-02 -3.2426339431589124e-02 -5.9256264505994849e-01 +5.8845961501004830e-03
2.0000000000000001e-01 +8.1649988675254708e+00 +0.0000000000000000e+00 +1.9999999999572499e-01 -3.2426408779997487e-02 -5.9256257685959146e-01 +5.8846425200397576e-03
3.0000000000000004e-01 +8.1649974519324111e+00 +0.0000000000000000e+00 +2.9999999998557186e-01 -3.2426475295922338e-02 -5.9256251523722669e-01 +5.8846903107177420e-03
4.0000000000000002e-01 +8.1649954701022338e+00 +0.0000000000000000e+00 +3.9999999996580005e-01 -3.2426539760841137e-02 -5.9256246004409885e-01 +5.8847396088224473e-03
5.0000000000000000e-01 +8.1649929220349922e+00 +0.0000000000000000e+00 +4.9999999993320321e-01 -3.2426602956226784e-02 -5.9256241113144748e-01 +5.8847905010405805e-03
5.9999999999999998e-01 +8.1649898077307341e+00 +0.0000000000000000e+00 +5.9999999988457520e-01 -3.2426665663548439e-02 -5.9256236835050868e-01 +5.8848430740578214e-03
6.9999999999999996e-01 +8.1649861271894988e+00 +0.0000000000000000e+00 +6.9999999981670968e-01 -3.2426728664272535e-02 -5.9256233155251459e-01 +5.8848974145591154e-03
7.9999999999999993e-01 +8.1649818804113234e+00 +0.0000000000000000e+00 +7.9999999972640046e-01 -3.2426792739863763e-02 -5.9256230058869785e-01 +5.8849536092289581e-03
8.9999999999999991e-01 +8.1649770673962365e+00 +0.0000000000000000e+00 +8.9999999961044130e-01 -3.2426858671785866e-02 -5.9256227531028938e-01 +5.8850117447516673e-03
9.9999999999999989e-01 +8.1649716881442629e+00 +0.0000000000000000e+00 +9.9999999946562590e-01 -3.2426927241502770e-02 -5.9256225556852149e-01 +5.8850719078116865e-03
1.0999999999999999e+00 +8.1649657426554221e+00 +0.0000000000000000e+00 +1.0999999992887481e+00 -3.2426999230479377e-02 -5.9256224121462830e-01 +5.8851341850938536e-03
1.2000000000000000e+00 +8.1649592309297265e+00 +0.0000000000000000e+00 +1.1999999990766017e+00 -3.2427075420182576e-02 -5.9256223209984682e-01 +5.8851986632837052e-03
1.3000000000000000e+00 +8.1649521529671869e+00 +0.0000000000000000e+00 +1.2999999988259803e+00 -3.2427156592082181e-02 -5.9256222807541881e-01 +5.8852654290677377e-03
1.4000000000000001e+00 +8.1649445087678068e+00 +0.0000000000000000e+00 +1.3999999985336777e+00 -3.2427243527651868e-02 -5.9256222899259148e-01 +5.8853345691337149e-03
1.5000000000000002e+00 +8.1649362983315843e+00 +0.0000000000000000e+00 +1.4999999981964878e+00 -3.2427337008370097e-02 -5.9256223470261837e-01 +5.8854061701709330e-03
1.6000000000000003e+00 +8.1649275216585160e+00 +0.0000000000000000e+00 +1.5999999978112043e+00 -3.2427437815721105e-02 -5.9256224505676114e-01 +5.8854803188705248e-03
1.7000000000000004e+00 +8.1649181787485912e+00 +0.0000000000000000e+00 +1.6999999973746209e+00 -3.2427546731195828e-02 -5.9256225990629008e-01 +5.8855571019257331e-03
1.8000000000000005e+00 +8.1649082696017956e+00 +0.0000000000000000e+00 +1.7999999968835314e+00 -3.2427664536292755e-02 -5.9256227910248560e-01 +5.8856366060321920e-03
1.9000000000000006e+00 +8.1648977942181133e+00 +0.0000000000000000e+00 +1.8999999963347296e+00 -3.2427792012519052e-02 -5.9256230249663988e-01 +5.8857189178882236e-03
2.0000000000000004e+00 +8.1648867525975195e+00 +0.0000000000000000e+00 +1.9999999957250090e+00 -3.2427929941391327e-02 -5.9256232994005709e-01 +5.8858041241951166e-03
2.1000000000000005e+00 +8.1648751447399910e+00 +0.0000000000000000e+00 +2.0999999950511636e+00 -3.2428078838848282e-02 -5.9256236125826245e-01 +5.8858922958153334e-03
2.2000000000000006e+00 +8.1648629706454958e+00 +0.0000000000000000e+00 +2.1999999943099873e+00 -3.2428238158484272e-02 -5.9256239617362250e-01 +5.8859834402456351e-03
2.3000000000000007e+00 +8.1648502303140020e+00 +0.0000000000000000e+00 +2.2999999934982736e+00 -3.2428407088312024e-02 -5.9256243438271705e-01 +5.8860775491418917e-03
2.4000000000000008e+00 +8.1648369237454741e+00 +0.0000000000000000e+00 +2.3999999926128162e+00 -3.2428584816350935e-02 -5.9256247558213071e-01 +5.8861746141609071e-03
2.5000000000000009e+00 +8.1648230509398729e+00 +0.0000000000000000e+00 +2.4999999916504088e+00 -3.2428770530627427e-02 -5.9256251946845229e-01 +5.8862746269603954e-03
2.6000000000000010e+00 +8.1648086118971577e+00 +0.0000000000000000e+00 +2.5999999906078455e+00 -3.2428963419175040e-02 -5.9256256573827537e-01 +5.8863775791989448e-03
2.7000000000000011e+00 +8.1647936066172839e+00 +0.0000000000000000e+00 +2.6999999894819195e+00 -3.2429162670034949e-02 -5.9256261408819733e-01 +5.8864834625359909e-03
2.8000000000000012e+00 +8.1647780351002055e+00 +0.0000000000000000e+00 +2.7999999882694251e+00 -3.2429367471256049e-02 -5.9256266421482073e-01 +5.8865922686317787e-03
2.9000000000000012e+00 +8.1647618973458744e+00 +0.0000000000000000e+00 +2.8999999869671558e+00 -3.2429577010895383e-02 -5.9256271581475195e-01 +5.8867039891473353e-03
3.0000000000000013e+00 +8.1647451933542428e+00 +0.0000000000000000e+00 +2.9999999855719053e+00 -3.2429790477018335e-02 -5.9256276858460100e-01 +5.8868186157444383e-03
3.1000000000000014e+00 +8.1647279231252607e+00 +0.0000000000000000e+00 +3.0999999840804677e+00 -3.2430007057698954e-02 -5.9256282222098255e-01 +5.8869361400855783e-03
3.2000000000000015e+00 +8.1647100866588787e+00 +0.0000000000000000e+00 +3.1999999824896364e+00 -3.2430225941020185e-02 -5.9256287642051597e-01 +5.8870565538339404e-03
3.3000000000000016e+00 +8.1646916839550432e+00 +0.0000000000000000e+00 +3.2999999807962053e+00 -3.2430446315074253e-02 -5.9256293087982292e-01 +5.8871798486533518e-03
3.4000000000000017e+00 +8.1646727150137046e+00 +0.0000000000000000e+00 +3.3999999789969682e+00 -3.2430667367962851e-02 -5.9256298529552964e-01 +5.8873060162082701e-03
3.5000000000000018e+00 +8.1646531798348114e+00 +0.0000000000000000e+00 +3.4999999770887182e+00 -3.2430888287797430e-02 -5.9256303936426635e-01 +5.8874350481637455e-03
3.6000000000000019e+00 +8.1646330784183121e+00 +0.0000000000000000e+00 +3.5999999750682496e+00 -3.2431108262699550e-02 -5.9256309278266706e-01 +5.8875669361853787e-03
3.7000000000000020e+00 +8.1646124107641569e+00 +0.0000000000000000e+00 +3.6999999729323565e+00 -3.2431326480801118e-02 -5.9256314524736819e-01 +5.8877016719393015e-03
3.8000000000000020e+00 +8.1645911768722961e+00 +0.0000000000000000e+00 +3.7999999706778320e+00 -3.2431542130244656e-02 -5.9256319645501110e-01 +5.8878392470921425e-03
3.9000000000000021e+00 +8.1645693767426799e+00 +0.0000000000000000e+00 +3.8999999683014703e+00 -3.2431754399183610e-02 -5.9256324610223987e-01 +5.8879796533109997e-03
4.0000000000000018e+00 +8.1645470103752640e+00 +0.0000000000000000e+00 +3.9999999658000647e+00 -3.2431962475782665e-02 -5.9256329388570184e-01 +5.8881228822633891e-03
4.1000000000000014e+00 +8.1645240777700021e+00 +0.0000000000000000e+00 +4.0999999631704087e+00 -3.2432165768179172e-02 -5.9256333974863373e-01 +5.8882689013717120e-03
4.2000000000000011e+00 +8.1645005789268517e+00 +0.0000000000000000e+00 +4.1999999604092970e+00 -3.2432364564357011e-02 -5.9256338462061842e-01 +5.8884175810755036e-03
4.3000000000000007e+00 +8.1644765138457700e+00 +0.0000000000000000e+00 +4.2999999575135224e+00 -3.2432559372242716e-02 -5.9256342967782172e-01 +5.8885687675662088e-03
4.4000000000000004e+00 +8.1644518825267145e+00 +0.0000000000000000e+00 +4.3999999544798793e+00 -3.2432750699739360e-02 -5.9256347609640647e-01 +5.8887223070323066e-03
4.5000000000000000e+00 +8.1644266849696425e+00 +0.0000000000000000e+00 +4.4999999513051616e+00 -3.2432939054724955e-02 -5.9256352505253107e-01 +5.8888780456591017e-03
4.5999999999999996e+00 +8.1644009211745061e+00 +0.0000000000000000e+00 +4.5999999479861620e+00 -3.2433124945050670e-02 -5.9256357772234958e-01 +5.8890358296285030e-03
4.6999999999999993e+00 +8.1643745911412573e+00 +0.0000000000000000e+00 +4.6999999445196750e+00 -3.2433308878539187e-02 -5.9256363528201028e-01 +5.8891955051188103e-03
4.7999999999999989e+00 +8.1643476948698410e+00 +0.0000000000000000e+00 +4.7999999409024943e+00 -3.2433491362982951e-02 -5.9256369890765692e-01 +5.8893569183045107e-03
4.8999999999999986e+00 +8.1643202323601987e+00 +0.0000000000000000e+00 +4.8999999371314136e+00 -3.2433672906142498e-02 -5.9256376977542713e-01 +5.8895199153560550e-03
4.9999999999999982e+00 +8.1642922036122609e+00 +0.0000000000000000e+00 +4.9999999332032266e+00 -3.2433854015744702e-02 -5.9256384906145121e-01 +5.8896843424396505e-03
5.0999999999999979e+00 +8.1642636086259550e+00 +0.0000000000000000e+00 +5.0999999291147269e+00 -3.2434035199481168e-02 -5.9256393794185402e-01 +5.8898500457170450e-03
5.1999999999999975e+00 +8.1642344474011956e+00 +0.0000000000000000e+00 +5.1999999248627082e+00 -3.2434216965006382e-02 -5.9256403759275189e-01 +5.8900168713453081e-03
5.2999999999999972e+00 +8.1642047199378887e+00 +0.0000000000000000e+00 +5.2999999204439643e+00 -3.2434399819936170e-02 -5.9256414919025424e-01 +5.8901846654766336e-03
5.3999999999999968e+00 +8.1641744262359293e+00 +0.0000000000000000e+00 +5.3999999158552887e+00 -3.2434584271845875e-02 -5.9256427391046229e-01 +5.8903532742581146e-03
5.4999999999999964e+00 +8.1641435662951984e+00 +0.0000000000000000e+00 +5.4999999110934752e+00 -3.2434770828268671e-02 -5.9256441292946727e-01 +5.8905225438315219e-03
5.5999999999999961e+00 +8.1641121401155630e+00 +0.0000000000000000e+00 +5.5999999061553174e+00 -3.2434959996693900e-02 -5.9256456742335328e-01 +5.8906923203331137e-03
5.6999999999999957e+00 +8.1640801476968772e+00 +0.0000000000000000e+00 +5.6999999010376090e+00 -3.2435152284565325e-02 -5.9256473856819347e-01 +5.8908624498934048e-03
5.7999999999999954e+00 +8.1640475890389794e+00 +0.0000000000000000e+00 +5.7999998957371446e+00 -3.2435348199279443e-02 -5.9256492754005186e-01 +5.8910327786369596e-03
5.8999999999999950e+00 +8.1640144641416885e+00 +0.0000000000000000e+00 +5.8999998902507169e+00 -3.2435548248183767e-02 -5.9256513551498147e-01 +5.8912031526821718e-03
5.9999999999999947e+00 +8.1639807730048073e+00 +0.0000000000000000e+00 +5.9999998845751197e+00 -3.2435752938575146e-02 -5.9256536366902401e-01 +5.8913734181410618e-03
6.0999999999999943e+00 +8.1639465156281190e+00 +0.0000000000000000e+00 +6.0999998787071466e+00 -3.2435962546964132e-02 -5.9256561270947306e-01 +5.8915434475894273e-03
6.1999999999999940e+00 +8.1639116920113874e+00 +0.0000000000000000e+00 +6.1999998726435912e+00 -3.2436176426898070e-02 -5.9256588146865485e-01 +5.8917132194809289e-03
6.2999999999999936e+00 +8.1638763021543550e+00 +0.0000000000000000e+00 +6.2999998663812473e+00 -3.2436393701216093e-02 -5.9256616831014808e-01 +5.8918827387407606e-03
6.3999999999999932e+00 +8.1638403460567517e+00 +0.0000000000000000e+00 +6.3999998599169086e+00 -3.2436613492793691e-02 -5.9256647159752507e-01 +5.8920520102959161e-03
6.4999999999999929e+00 +8.1638038237182862e+00 +0.0000000000000000e+00 +6.4999998532473686e+00 -3.2436834924544619e-02 -5.9256678969435272e-01 +5.8922210390753259e-03
6.5999999999999925e+00 +8.1637667351386582e+00 +0.0000000000000000e+00 +6.5999998463694212e+00 -3.2437057119422803e-02 -5.9256712096419062e-01 +5.8923898300099848e-03
6.6999999999999922e+00 +8.1637290803175500e+00 +0.0000000000000000e+00 +6.6999998392798599e+00 -3.2437279200424288e-02 -5.9256746377059166e-01 +5.8925583880331056e-03
6.7999999999999918e+00 +8.1636908592546380e+00 +0.0000000000000000e+00 +6.7999998319754775e+00 -3.2437500290589075e-02 -5.9256781647710222e-01 +5.8927267180802385e-03
6.8999999999999915e+00 +8.1636520719495849e+00 +0.0000000000000000e+00 +6.8999998244530687e+00 -3.2437719513003123e-02 -5.9256817744726131e-01 +5.8928948250894127e-03
6.9999999999999911e+00 +8.1636127184020477e+00 +0.0000000000000000e+00 +6.9999998167094262e+00 -3.2437935990800131e-02 -5.9256854504459977e-01 +5.8930627140012602e-03
7.0999999999999908e+00 +8.1635727986116766e+00 +0.0000000000000000e+00 +7.0999998087413436e+00 -3.2438148847163582e-02 -5.9256891763264241e-01 +5.8932303897591722e-03
7.1999999999999904e+00 +8.1635323125781163e+00 +0.0000000000000000e+00 +7.1999998005456147e+00 -3.2438357205328595e-02 -5.9256929357490495e-01 +5.8933978573094108e-03
7.2999999999999901e+00 +8.1634912603010097e+00 +0.0000000000000000e+00 +7.2999997921190332e+00 -3.2438560188583751e-02 -5.9256967123489579e-01 +5.8935651216012602e-03
7.3999999999999897e+00 +8.1634496417799962e+00 +0.0000000000000000e+00 +7.3999997834583926e+00 -3.2438756920273190e-02 -5.9257004897611443e-01 +5.8937321875871564e-03
7.4999999999999893e+00 +8.1634074570147170e+00 +0.0000000000000000e+00 +7.4999997745604867e+00 -3.2438946523798314e-02 -5.9257042516205261e-01 +5.8938990602228243e-03
7.5999999999999890e+00 +8.1633647060048151e+00 +0.0000000000000000e+00 +7.5999997654221083e+00 -3.2439128122619877e-02 -5.9257079815619407e-01 +5.8940657444674065e-03
7.6999999999999886e+00 +8.1633213887499334e+00 +0.0000000000000000e+00 +7.6999997560400510e+00 -3.2439300840259762e-02 -5.9257116632201190e-01 +5.8942322452836173e-03
7.7999999999999883e+00 +8.1632775052497237e+00 +0.0000000000000000e+00 +7.7999997464111086e+00 -3.2439463800302978e-02 -5.9257152802297153e-01 +5.8943985676378451e-03
7.8999999999999879e+00 +8.1632330555038415e+00 +0.0000000000000000e+00 +7.8999997365320747e+00 -3.2439616126399527e-02 -5.9257188162252916e-01 +5.8945647165003267e-03
7.9999999999999876e+00 +8.1631880395119492e+00 +0.0000000000000000e+00 +7.9999997263997429e+00 -3.2439756942266314e-02 -5.9257222548413124e-01 +5.8947306968452524e-03
8.0999999999999872e+00 +8.1631424572737217e+00 +0.0000000000000000e+00 +8.0999997160109061e+00 -3.2439885710474597e-02 -5.9257255839949430e-01 +5.8948965185152916e-03
8.1999999999999869e+00 +8.1630963087888411e+00 +0.0000000000000000e+00 +8.1999997053623588e+00 -3.2440003248785002e-02 -5.9257288087346216e-01 +5.8950622108140385e-03
8.2999999999999865e+00 +8.1630495940570000e+00 +0.0000000000000000e+00 +8.2999996944508929e+00 -3.2440110713725628e-02 -5.9257319383916285e-01 +5.8952278079111948e-03
8.3999999999999861e+00 +8.1630023130779019e+00 +0.0000000000000000e+00 +8.3999996832733039e+00 -3.2440209261791329e-02 -5.9257349822972349e-01 +5.8953933439779369e-03
8.4999999999999858e+00 +8.1629544658512572e+00 +0.0000000000000000e+00 +8.4999996718263837e+00 -3.2440300049442372e-02 -5.9257379497826956e-01 +5.8955588531869564e-03
8.5999999999999854e+00 +8.1629060523767834e+00 +0.0000000000000000e+00 +8.5999996601069277e+00 -3.2440384233103296e-02 -5.9257408501792608e-01 +5.8957243697125017e-03
8.6999999999999851e+00 +8.1628570726542051e+00 +0.0000000000000000e+00 +8.6999996481117279e+00 -3.2440462969161504e-02 -5.9257436928181628e-01 +5.8958899277304303e-03
8.7999999999999847e+00 +8.1628075266832525e+00 +0.0000000000000000e+00 +8.7999996358375778e+00 -3.2440537413966124e-02 -5.9257464870306265e-01 +5.8960555614182373e-03
8.8999999999999844e+00 +8.1627574144636590e+00 +0.0000000000000000e+00 +8.8999996232812713e+00 -3.2440608723826675e-02 -5.9257492421478675e-01 +5.8962213049551186e-03
8.9999999999999840e+00 +8.1627067359951635e+00 +0.0000000000000000e+00 +8.9999996104396018e+00 -3.2440678055011864e-02 -5.9257519675010895e-01 +5.8963871925219952e-03
9.0999999999999837e+00 +8.1626554912775084e+00 +0.0000000000000000e+00 +9.0999995973093615e+00 -3.2440746563748291e-02 -5.9257546724214916e-01 +5.8965532583015682e-03
9.1999999999999833e+00 +8.1626036803104345e+00 +0.0000000000000000e+00 +9.1999995838873456e+00 -3.2440815406219160e-02 -5.9257573662402607e-01 +5.8967195364783686e-03
9.2999999999999829e+00 +8.1625513030936876e+00 +0.0000000000000000e+00 +9.2999995701703462e+00 -3.2440885738563116e-02 -5.9257600582885828e-01 +5.8968860612387836e-03
9.3999999999999826e+00 +8.1624983596270120e+00 +0.0000000000000000e+00 +9.3999995561551586e+00 -3.2440958716872907e-02 -5.9257627578976346e-01 +5.8970528667711113e-03
9.4999999999999822e+00 +8.1624448499101501e+00 +0.0000000000000000e+00 +9.4999995418385748e+00 -3.2441035497194112e-02 -5.9257654743985821e-01 +5.8972199872655996e-03
9.5999999999999819e+00 +8.1623907739428443e+00 +0.0000000000000000e+00 +9.5999995272173884e+00 -3.2441117235523974e-02 -5.9257682171225945e-01 +5.8973874569144928e-03
9.6999999999999815e+00 +8.1623361317248353e+00 +0.0000000000000000e+00 +9.6999995122883931e+00 -3.2441205087810045e-02 -5.9257709954008286e-01 +5.8975553099120679e-03
9.7999999999999812e+00 +8.1622809232558584e+00 +0.0000000000000000e+00 +9.7999994970483826e+00 -3.2441300209948946e-02 -5.9257738185644393e-01 +5.8977235804546875e-03
9.8999999999999808e+00 +8.1622251485356454e+00 +0.0000000000000000e+00 +9.8999994814941505e+00 -3.2441403757785196e-02 -5.9257766959445846e-01 +5.8978923027408368e-03
9.9999999999999805e+00 +8.1621688075639245e+00 +0.0000000000000000e+00 +9.9999994656224906e+00 -3.2441516887109841e-02 -5.9257796368724092e-01 +5.8980615109711582e-03
1.0099999999999980e+01 +8.1621119003404150e+00 +0.0000000000000000e+00 +1.0099999449430195e+01 -3.2441640378583464e-02 -5.9257826490403609e-01 +5.8982312358562836e-03
1.0199999999999980e+01 +8.1620544268648310e+00 +0.0000000000000000e+00 +1.0199999432914058e+01 -3.2441773512503463e-02 -5.9257857335858932e-01 +5.8984014941395064e-03
1.0299999999999979e+01 +8.1619963871368792e+00 +0.0000000000000000e+00 +1.0299999416070873e+01 -3.2441915194077957e-02 -5.9257888900075439e-01 +5.8985722990727860e-03
1.0399999999999979e+01 +8.1619377811562615e+00 +0.0000000000000000e+00 +1.0399999398897434e+01 -3.2442064328518698e-02 -5.9257921178036466e-01 +5.8987436639089605e-03
1.0499999999999979e+01 +8.1618786089226703e+00 +0.0000000000000000e+00 +1.0499999381390532e+01 -3.2442219821041278e-02 -5.9257954164723536e-01 +5.8989156019017778e-03
1.0599999999999978e+01 +8.1618188704357912e+00 +0.0000000000000000e+00 +1.0599999363546964e+01 -3.2442380576865389e-02 -5.9257987855116157e-01 +5.8990881263058887e-03
1.0699999999999978e+01 +8.1617585656953064e+00 +0.0000000000000000e+00 +1.0699999345363519e+01 -3.2442545501214927e-02 -5.9258022244191821e-01 +5.8992612503768636e-03
1.0799999999999978e+01 +8.1616976947008872e+00 +0.0000000000000000e+00 +1.0799999326836994e+01 -3.2442713499318307e-02 -5.9258057326925917e-01 +5.8994349873712007e-03
1.0899999999999977e+01 +8.1616362574522014e+00 +0.0000000000000000e+00 +1.0899999307964181e+01 -3.2442883476408627e-02 -5.9258093098291909e-01 +5.8996093505463351e-03
1.0999999999999977e+01 +8.1615742539489098e+00 +0.0000000000000000e+00 +1.0999999288741874e+01 -3.2443054337723848e-02 -5.9258129553260896e-01 +5.8997843531606465e-03
1.1099999999999977e+01 +8.1615116841906641e+00 +0.0000000000000000e+00 +1.1099999269166865e+01 -3.2443224988507040e-02 -5.9258166686801961e-01 +5.8999600084734703e-03
1.1199999999999976e+01 +8.1614485481771126e+00 +0.0000000000000000e+00 +1.1199999249235949e+01 -3.2443394334006503e-02 -5.9258204493882027e-01 +5.9001363297451134e-03
1.1299999999999976e+01 +8.1613848459078966e+00 +0.0000000000000000e+00 +1.1299999228945918e+01 -3.2443561279476077e-02 -5.9258242969465580e-01 +5.9003133302368421e-03
1.1399999999999975e+01 +8.1613205773826500e+00 +0.0000000000000000e+00 +1.1399999208293565e+01 -3.2443724730175316e-02 -5.9258282108515048e-01 +5.9004910232109253e-03
1.1499999999999975e+01 +8.1612557426010000e+00 +0.0000000000000000e+00 +1.1499999187275684e+01 -3.2443883591369599e-02 -5.9258321905990430e-01 +5.9006694219306084e-03
1.1599999999999975e+01 +8.1611903415625697e+00 +0.0000000000000000e+00 +1.1599999165889068e+01 -3.2444036768330443e-02 -5.9258362356849315e-01 +5.9008485396601458e-03
1.1699999999999974e+01 +8.1611243742669739e+00 +0.0000000000000000e+00 +1.1699999144130512e+01 -3.2444183166335669e-02 -5.9258403456047004e-01 +5.9010283896648048e-03
1.1799999999999974e+01 +8.1610578407138235e+00 +0.0000000000000000e+00 +1.1799999121996807e+01 -3.2444321690669534e-02 -5.9258445198536303e-01 +5.9012089852108684e-03
