# field on trajectory
# s[mm] rx[mm] ry[mm] rz[mm] bx[T] by[T] bz[T]
0.0000000000000000e+00 +8.1529999999999987e+00 +0.0000000000000000e+00 +0.0000000000000000e+00 -2.8874132654327402e-02 -5.3645992455931202e-01 +5.3237225892556516e-03
-1.0000000000000001e-01 +8.1529997171621762e+00 +0.0000000000000000e+00 -9.9999999999466682e-02 -2.8873984133339820e-02 -5.3645993635169009e-01 +5.3236452539346243e-03
-2.0000000000000001e-01 +8.1529988686486963e+00 +0.0000000000000000e+00 -1.9999999999573348e-01 -2.8873841808047578e-02 -5.3645995875371832e-01 +5.3235684604315305e-03
-3.0000000000000004e-01 +8.1529974544595376e+00 +0.0000000000000000e+00 -2.9999999998560051e-01 -2.8873705880697490e-02 -5.3645999127944899e-01 +5.3234923166073245e-03
-4.0000000000000002e-01 +8.1529954745946647e+00 +0.0000000000000000e+00 -3.9999999996586788e-01 -2.8873576553551054e-02 -5.3646003344292870e-01 +5.3234169303230565e-03
-5.0000000000000000e-01 +8.1529929290540331e+00 +0.0000000000000000e+00 -4.9999999993333566e-01 -2.8873454028882632e-02 -5.3646008475819906e-01 +5.3233424094399316e-03
-5.9999999999999998e-01 +8.1529898178375895e+00 +0.0000000000000000e+00 -5.9999999988480401e-01 -2.8873338508977730e-02 -5.3646014473929626e-01 +5.3232688618193701e-03
-6.9999999999999996e-01 +8.1529861409452700e+00 +0.0000000000000000e+00 -6.9999999981707295e-01 -2.8873230196131146e-02 -5.3646021290025048e-01 +5.3231963953230647e-03
-7.9999999999999993e-01 +8.1529818983770035e+00 +0.0000000000000000e+00 -7.9999999972694269e-01 -2.8873129292645284e-02 -5.3646028875508678e-01 +5.3231251178130455e-03
-8.9999999999999991e-01 +8.1529770901327101e+00 +0.0000000000000000e+00 -8.9999999961121335e-01 -2.8873036000828241e-02 -5.3646037181782380e-01 +5.3230551371517380e-03
-9.9999999999999989e-01 +8.1529717162123028e+00 +0.0000000000000000e+00 -9.9999999946668494e-01 -2.8872950522992175e-02 -5.3646046160247540e-01 +5.3229865612020250e-03
-1.0999999999999999e+00 +8.1529657766156873e+00 +0.0000000000000000e+00 -1.0999999992901577e+00 -2.8872873061451414e-02 -5.3646055762304945e-01 +5.3229194978273034e-03
-1.2000000000000000e+00 +8.1529592713427625e+00 +0.0000000000000000e+00 -1.1999999990784316e+00 -2.8872803818520754e-02 -5.3646065939354803e-01 +5.3228540548915498e-03
-1.3000000000000000e+00 +8.1529522003934201e+00 +0.0000000000000000e+00 -1.2999999988283066e+00 -2.8872742996513587e-02 -5.3646076642796758e-01 +5.3227903402593753e-03
-1.4000000000000001e+00 +8.1529445637675479e+00 +0.0000000000000000e+00 -1.3999999985365830e+00 -2.8872690797740241e-02 -5.3646087824029942e-01 +5.3227284617960941e-03
-1.5000000000000002e+00 +8.1529363614650290e+00 +0.0000000000000000e+00 -1.4999999982000609e+00 -2.8872647424506105e-02 -5.3646099434452810e-01 +5.3226685273677727e-03
-1.6000000000000003e+00 +8.1529275934857406e+00 +0.0000000000000000e+00 -1.5999999978155404e+00 -2.8872613079109863e-02 -5.3646111425463272e-01 +5.3226106448412969e-03
-1.7000000000000004e+00 +8.1529182598295566e+00 +0.0000000000000000e+00 -1.6999999973798214e+00 -2.8872587963841768e-02 -5.3646123748458718e-01 +5.3225549220844342e-03
-1.8000000000000005e+00 +8.1529083604963493e+00 +0.0000000000000000e+00 -1.7999999968897040e+00 -2.8872572280981806e-02 -5.3646136354835894e-01 +5.3225014669658890e-03
-1.9000000000000006e+00 +8.1528978954859834e+00 +0.0000000000000000e+00 -1.8999999963419885e+00 -2.8872566232797926e-02 -5.3646149195990944e-01 +5.3224503873553564e-03
-2.0000000000000004e+00 +8.1528868647983259e+00 +0.0000000000000000e+00 -1.9999999957334749e+00 -2.8872570021544294e-02 -5.3646162223319505e-01 +5.3224017911236102e-03
-2.1000000000000005e+00 +8.1528752684332382e+00 +0.0000000000000000e+00 -2.0999999950609629e+00 -2.8872583627344593e-02 -5.3646175398910323e-01 +5.3223557428672772e-03
-2.2000000000000006e+00 +8.1528631063905834e+00 +0.0000000000000000e+00 -2.1999999943212534e+00 -2.8872606141847550e-02 -5.3646188727626698e-01 +5.3223121340828352e-03
-2.3000000000000007e+00 +8.1528503786702196e+00 +0.0000000000000000e+00 -2.2999999935111459e+00 -2.8872636434573891e-02 -5.3646202225025896e-01 +5.3222708129918653e-03
-2.4000000000000008e+00 +8.1528370852720062e+00 +0.0000000000000000e+00 -2.3999999926274405e+00 -2.8872673375030682e-02 -5.3646215906665318e-01 +5.3222316278162020e-03
-2.5000000000000009e+00 +8.1528232261957978e+00 +0.0000000000000000e+00 -2.4999999916669373e+00 -2.8872715832710290e-02 -5.3646229788102862e-01 +5.3221944267778844e-03
-2.6000000000000010e+00 +8.1528088014414504e+00 +0.0000000000000000e+00 -2.5999999906264364e+00 -2.8872762677089360e-02 -5.3646243884896883e-01 +5.3221590580991166e-03
-2.7000000000000011e+00 +8.1527938110088147e+00 +0.0000000000000000e+00 -2.6999999895027376e+00 -2.8872812777627710e-02 -5.3646258212606179e-01 +5.3221253700022212e-03
-2.8000000000000012e+00 +8.1527782548977399e+00 +0.0000000000000000e+00 -2.7999999882926412e+00 -2.8872865003767290e-02 -5.3646272786790195e-01 +5.3220932107095878e-03
-2.9000000000000012e+00 +8.1527621331080731e+00 +0.0000000000000000e+00 -2.8999999869929471e+00 -2.8872918224931189e-02 -5.3646287623009148e-01 +5.3220624284436449e-03
-3.0000000000000013e+00 +8.1527454456396597e+00 +0.0000000000000000e+00 -2.9999999856004558e+00 -2.8872971310522522e-02 -5.3646302736824003e-01 +5.3220328714268005e-03
-3.1000000000000014e+00 +8.1527281924923383e+00 +0.0000000000000000e+00 -3.0999999841119670e+00 -2.8873023129923375e-02 -5.3646318143796601e-01 +5.3220043878814014e-03
-3.2000000000000015e+00 +8.1527103736659488e+00 +0.0000000000000000e+00 -3.1999999825242806e+00 -2.8873072552493811e-02 -5.3646333859489737e-01 +5.3219768260296951e-03
-3.3000000000000016e+00 +8.1526919891603260e+00 +0.0000000000000000e+00 -3.2999999808341971e+00 -2.8873118447570765e-02 -5.3646349899467327e-01 +5.3219500340937762e-03
-3.4000000000000017e+00 +8.1526730389753013e+00 +0.0000000000000000e+00 -3.3999999790385163e+00 -2.8873159684466999e-02 -5.3646366279294333e-01 +5.3219238602955545e-03
-3.5000000000000018e+00 +8.1526535231107005e+00 +0.0000000000000000e+00 -3.4999999771340380e+00 -2.8873195132470095e-02 -5.3646383014537025e-01 +5.3218981528566972e-03
-3.6000000000000019e+00 +8.1526334415663495e+00 +0.0000000000000000e+00 -3.5999999751175626e+00 -2.8873223660841343e-02 -5.3646400120762860e-01 +5.3218727599985902e-03
-3.7000000000000020e+00 +8.1526127943420690e+00 +0.0000000000000000e+00 -3.6999999729858901e+00 -2.8873244138814730e-02 -5.3646417613540831e-01 +5.3218475299422977e-03
-3.8000000000000020e+00 +8.1525915814376742e+00 +0.0000000000000000e+00 -3.7999999707358203e+00 -2.8873255435595886e-02 -5.3646435508441326e-01 +5.3218223109085189e-03
-3.9000000000000021e+00 +8.1525698028529785e+00 +0.0000000000000000e+00 -3.8999999683641531e+00 -2.8873256420361003e-02 -5.3646453821036333e-01 +5.3217969511175347e-03
-4.0000000000000018e+00 +8.1525474585877884e+00 +0.0000000000000000e+00 -3.9999999658676888e+00 -2.8873245962255809e-02 -5.3646472566899439e-01 +5.3217712987891691e-03
-4.1000000000000014e+00 +8.1525245486419067e+00 +0.0000000000000000e+00 -4.0999999632432278e+00 -2.8873223217186401e-02 -5.3646491760709858e-01 +5.3217452469977444e-03
-4.2000000000000011e+00 +8.1525010730151326e+00 +0.0000000000000000e+00 -4.1999999604875695e+00 -2.8873188488217131e-02 -5.3646511413563358e-01 +5.3217188682374260e-03
-4.3000000000000007e+00 +8.1524770317072583e+00 +0.0000000000000000e+00 -4.2999999575975139e+00 -2.8873142365233851e-02 -5.3646531535659414e-01 +5.3216922798575393e-03
-4.4000000000000004e+00 +8.1524524247180725e+00 +0.0000000000000000e+00 -4.3999999545698607e+00 -2.8873085438159748e-02 -5.3646552137197290e-01 +5.3216655992075305e-03
-4.5000000000000000e+00 +8.1524272520473602e+00 +0.0000000000000000e+00 -4.4999999514014108e+00 -2.8873018296958344e-02 -5.3646573228375893e-01 +5.3216389436369690e-03
-4.5999999999999996e+00 +8.1524015136948993e+00 +0.0000000000000000e+00 -4.5999999480889633e+00 -2.8872941531636366e-02 -5.3646594819393822e-01 +5.3216124304955462e-03
-4.6999999999999993e+00 +8.1523752096604625e+00 +0.0000000000000000e+00 -4.6999999446293188e+00 -2.8872855732246770e-02 -5.3646616920449253e-01 +5.3215861771330726e-03
-4.7999999999999989e+00 +8.1523483399438170e+00 +0.0000000000000000e+00 -4.7999999410192773e+00 -2.8872761488891594e-02 -5.3646639541739916e-01 +5.3215603008994689e-03
-4.8999999999999986e+00 +8.1523209045447267e+00 +0.0000000000000000e+00 -4.8999999372556386e+00 -2.8872659391725040e-02 -5.3646662693463110e-01 +5.3215349191447717e-03
-4.9999999999999982e+00 +8.1522929034629463e+00 +0.0000000000000000e+00 -4.9999999333352028e+00 -2.8872550030956314e-02 -5.3646686385815612e-01 +5.3215101492191273e-03
-5.0999999999999979e+00 +8.1522643366982290e+00 +0.0000000000000000e+00 -5.0999999292547695e+00 -2.8872433996852617e-02 -5.3646710628993577e-01 +5.3214861084727874e-03
-5.1999999999999975e+00 +8.1522352042503190e+00 +0.0000000000000000e+00 -5.1999999250111388e+00 -2.8872311879742117e-02 -5.3646735433192683e-01 +5.3214629142561099e-03
-5.2999999999999972e+00 +8.1522055061189551e+00 +0.0000000000000000e+00 -5.2999999206011106e+00 -2.8872184270016824e-02 -5.3646760808607841e-01 +5.3214406839195497e-03
-5.3999999999999968e+00 +8.1521752423038709e+00 +0.0000000000000000e+00 -5.3999999160214847e+00 -2.8872051758135651e-02 -5.3646786765433407e-01 +5.3214195348136699e-03
-5.4999999999999964e+00 +8.1521444128047946e+00 +0.0000000000000000e+00 -5.4999999112690610e+00 -2.8871914934627249e-02 -5.3646813313862907e-01 +5.3213995842891207e-03
-5.5999999999999961e+00 +8.1521130176214474e+00 +0.0000000000000000e+00 -5.5999999063406403e+00 -2.8871774390093051e-02 -5.3646840464089207e-01 +5.3213809496966457e-03
-5.6999999999999957e+00 +8.1520810567535431e+00 +0.0000000000000000e+00 -5.6999999012330216e+00 -2.8871630715210147e-02 -5.3646868226304345e-01 +5.3213637483870797e-03
-5.7999999999999954e+00 +8.1520485302007906e+00 +0.0000000000000000e+00 -5.7999998959430048e+00 -2.8871484500734318e-02 -5.3646896610699446e-01 +5.3213480977113477e-03
-5.8999999999999950e+00 +8.1520154379628913e+00 +0.0000000000000000e+00 -5.8999998904673898e+00 -2.8871336337502870e-02 -5.3646925627464848e-01 +5.3213341150204528e-03
-5.9999999999999947e+00 +8.1519817800395398e+00 +0.0000000000000000e+00 -5.9999998848029774e+00 -2.8871186816437699e-02 -5.3646955286789955e-01 +5.3213219176654752e-03
-6.0999999999999943e+00 +8.1519475564304251e+00 +0.0000000000000000e+00 -6.0999998789465666e+00 -2.8871036520047064e-02 -5.3646985579069884e-01 +5.3213115992765915e-03
-6.1999999999999940e+00 +8.1519127671352276e+00 +0.0000000000000000e+00 -6.1999998728949581e+00 -2.8870885996878995e-02 -5.3647016415525117e-01 +5.3213031585996962e-03
-6.2999999999999936e+00 +8.1518774121536257e+00 +0.0000000000000000e+00 -6.2999998666449510e+00 -2.8870735786944515e-02 -5.3647047687581229e-01 +5.3212965706593849e-03
-6.3999999999999932e+00 +8.1518414914852890e+00 +0.0000000000000000e+00 -6.3999998601933452e+00 -2.8870586430204903e-02 -5.3647079286662236e-01 +5.3212918104800916e-03
-6.4999999999999929e+00 +8.1518050051298854e+00 +0.0000000000000000e+00 -6.4999998535369414e+00 -2.8870438466569077e-02 -5.3647111104190426e-01 +5.3212888530860588e-03
-6.5999999999999925e+00 +8.1517679530870826e+00 +0.0000000000000000e+00 -6.5999998466725387e+00 -2.8870292435890847e-02 -5.3647143031586342e-01 +5.3212876735013320e-03
-6.6999999999999922e+00 +8.1517303353565431e+00 +0.0000000000000000e+00 -6.6999998395969369e+00 -2.8870148877966292e-02 -5.3647174960268929e-01 +5.3212882467497599e-03
-6.7999999999999918e+00 +8.1516921519379331e+00 +0.0000000000000000e+00 -6.7999998323069359e+00 -2.8870008332531085e-02 -5.3647206781655032e-01 +5.3212905478549647e-03
-6.8999999999999915e+00 +8.1516534028309184e+00 +0.0000000000000000e+00 -6.8999998247993357e+00 -2.8869871339257867e-02 -5.3647238387159801e-01 +5.3212945518403476e-03
-6.9999999999999911e+00 +8.1516140880351653e+00 +0.0000000000000000e+00 -6.9999998170709361e+00 -2.8869738437753503e-02 -5.3647269668196318e-01 +5.3213002337290597e-03
-7.0999999999999908e+00 +8.1515742075503468e+00 +0.0000000000000000e+00 -7.0999998091185370e+00 -2.8869610167556483e-02 -5.3647300516175711e-01 +5.3213075685440096e-03
-7.1999999999999904e+00 +8.1515337613761378e+00 +0.0000000000000000e+00 -7.1999998009389383e+00 -2.8869487068134199e-02 -5.3647330822506945e-01 +5.3213165313078384e-03
-7.2999999999999901e+00 +8.1514927495122222e+00 +0.0000000000000000e+00 -7.2999997925289399e+00 -2.8869369678880333e-02 -5.3647360478596928e-01 +5.3213270970429161e-03
-7.3999999999999897e+00 +8.1514511719582874e+00 +0.0000000000000000e+00 -7.3999997838853409e+00 -2.8869258539112184e-02 -5.3647389375850385e-01 +5.3213392407713261e-03
-7.4999999999999893e+00 +8.1514090287140295e+00 +0.0000000000000000e+00 -7.4999997750049419e+00 -2.8869154188067934e-02 -5.3647417405669640e-01 +5.3213529375148571e-03
-7.5999999999999890e+00 +8.1513663197791555e+00 +0.0000000000000000e+00 -7.5999997658845428e+00 -2.8869057164904077e-02 -5.3647444459454874e-01 +5.3213681622949933e-03
-7.6999999999999886e+00 +8.1513230451533811e+00 +0.0000000000000000e+00 -7.6999997565209428e+00 -2.8868968008692705e-02 -5.3647470428603750e-01 +5.3213848901328929e-03
-7.7999999999999883e+00 +8.1512792048364346e+00 +0.0000000000000000e+00 -7.7999997469109417e+00 -2.8868887258418848e-02 -5.3647495204511597e-01 +5.3214030960494008e-03
-7.8999999999999879e+00 +8.1512347988280549e+00 +0.0000000000000000e+00 -7.8999997370513402e+00 -2.8868815452977786e-02 -5.3647518678571171e-01 +5.3214227550650080e-03
-7.9999999999999876e+00 +8.1511898271279968e+00 +0.0000000000000000e+00 -7.9999997269389373e+00 -2.8868753131172473e-02 -5.3647540742172750e-01 +5.3214438421998666e-03
-8.0999999999999872e+00 +8.1511442897360293e+00 +0.0000000000000000e+00 -8.0999997165705331e+00 -2.8868700659567804e-02 -5.3647561332753146e-01 +5.3214663282990186e-03
-8.1999999999999869e+00 +8.1510981866519359e+00 +0.0000000000000000e+00 -8.1999997059429273e+00 -2.8868657716096795e-02 -5.3647580571947096e-01 +5.3214901675080585e-03
-8.2999999999999865e+00 +8.1510515178755156e+00 +0.0000000000000000e+00 -8.2999996950529198e+00 -2.8868623806566577e-02 -5.3647598627441839e-01 +5.3215153097974721e-03
-8.3999999999999861e+00 +8.1510042834065803e+00 +0.0000000000000000e+00 -8.3999996838973097e+00 -2.8868598436815992e-02 -5.3647615666927662e-01 +5.3215417051374510e-03
-8.4999999999999858e+00 +8.1509564832449506e+00 +0.0000000000000000e+00 -8.4999996724728977e+00 -2.8868581112716937e-02 -5.3647631858098099e-01 +5.3215693034978700e-03
-8.5999999999999854e+00 +8.1509081173904558e+00 +0.0000000000000000e+00 -8.5999996607764846e+00 -2.8868571340175644e-02 -5.3647647368650075e-01 +5.3215980548483076e-03
-8.6999999999999851e+00 +8.1508591858429362e+00 +0.0000000000000000e+00 -8.6999996488048694e+00 -2.8868568625133914e-02 -5.3647662366283899e-01 +5.3216279091580073e-03
-8.7999999999999847e+00 +8.1508096886022336e+00 +0.0000000000000000e+00 -8.7999996365548512e+00 -2.8868572473570501e-02 -5.3647677018703466e-01 +5.3216588163958779e-03
-8.8999999999999844e+00 +8.1507596256681953e+00 +0.0000000000000000e+00 -8.8999996240232306e+00 -2.8868582391502275e-02 -5.3647691493616312e-01 +5.3216907265305003e-03
-8.9999999999999840e+00 +8.1507089970406703e+00 +0.0000000000000000e+00 -8.9999996112068068e+00 -2.8868597884985660e-02 -5.3647705958733805e-01 +5.3217235895300927e-03
-9.0999999999999837e+00 +8.1506578027195076e+00 +0.0000000000000000e+00 -9.0999995981023805e+00 -2.8868618460117793e-02 -5.3647720581771152e-01 +5.3217573553625214e-03
-9.1999999999999833e+00 +8.1506060427045544e+00 +0.0000000000000000e+00 -9.1999995847067506e+00 -2.8868643623037881e-02 -5.3647735530447671e-01 +5.3217919739952822e-03
-9.2999999999999829e+00 +8.1505537169956543e+00 +0.0000000000000000e+00 -9.2999995710167180e+00 -2.8868672879928482e-02 -5.3647750972486719e-01 +5.3218273953954988e-03
-9.3999999999999826e+00 +8.1505008255926459e+00 +0.0000000000000000e+00 -9.3999995570290817e+00 -2.8868705737016765e-02 -5.3647767075615960e-01 +5.3218635695299011e-03
-9.4999999999999822e+00 +8.1504473684953620e+00 +0.0000000000000000e+00 -9.4999995427406407e+00 -2.8868741700575809e-02 -5.3647784007567345e-01 +5.3219004463648332e-03
-9.5999999999999819e+00 +8.1503933457036251e+00 +0.0000000000000000e+00 -9.5999995281481958e+00 -2.8868780276925899e-02 -5.3647801936077355e-01 +5.3219379758662304e-03
-9.6999999999999815e+00 +8.1503387572172468e+00 +0.0000000000000000e+00 -9.6999995132485477e+00 -2.8868820972435788e-02 -5.3647821028887044e-01 +5.3219761079996144e-03
-9.7999999999999812e+00 +8.1502836030360282e+00 +0.0000000000000000e+00 -9.7999994980384955e+00 -2.8868863293524016e-02 -5.3647841453742140e-01 +5.3220147927300872e-03
-9.8999999999999808e+00 +8.1502278831597561e+00 +0.0000000000000000e+00 -9.8999994825148381e+00 -2.8868906746660140e-02 -5.3647863378393190e-01 +5.3220539800223161e-03
-9.9999999999999805e+00 +8.1501715975881996e+00 +0.0000000000000000e+00 -9.9999994666743763e+00 -2.8868950838366058e-02 -5.3647886970595660e-01 +5.3220936198405330e-03
-1.0099999999999980e+01 +8.1501147463211119e+00 +0.0000000000000000e+00 -1.0099999450513909e+01 -2.8868995137371619e-02 -5.3647912362490768e-01 +5.3221336694717963e-03
-1.0199999999999980e+01 +8.1500573293582281e+00 +0.0000000000000000e+00 -1.0199999434030236e+01 -2.8869039461061018e-02 -5.3647939543743461e-01 +5.3221741154958766e-03
-1.0299999999999979e+01 +8.1499993466992624e+00 +0.0000000000000000e+00 -1.0299999417220157e+01 -2.8869083688970214e-02 -5.3647968468398233e-01 +5.3222149518143977e-03
-1.0399999999999979e+01 +8.1499407983439127e+00 +0.0000000000000000e+00 -1.0399999400080473e+01 -2.8869127700624844e-02 -5.3647999090498921e-01 +5.3222561723271578e-03
-1.0499999999999979e+01 +8.1498816842918576e+00 +0.0000000000000000e+00 -1.0499999382607982e+01 -2.8869171375540004e-02 -5.3648031364088811e-01 +5.3222977709321091e-03
-1.0599999999999978e+01 +8.1498220045427594e+00 +0.0000000000000000e+00 -1.0599999364799485e+01 -2.8869214593219894e-02 -5.3648065243210541e-01 +5.3223397415253062e-03
-1.0699999999999978e+01 +8.1497617590962612e+00 +0.0000000000000000e+00 -1.0699999346651781e+01 -2.8869257233157492e-02 -5.3648100681906119e-01 +5.3223820780008641e-03
-1.0799999999999978e+01 +8.1497009479519917e+00 +0.0000000000000000e+00 -1.0799999328161670e+01 -2.8869299174834290e-02 -5.3648137634216808e-01 +5.3224247742509291e-03
-1.0899999999999977e+01 +8.1496395711095637e+00 +0.0000000000000000e+00 -1.0899999309325951e+01 -2.8869340297719988e-02 -5.3648176054183172e-01 +5.3224678241656255e-03
-1.0999999999999977e+01 +8.1495776285685739e+00 +0.0000000000000000e+00 -1.0999999290141425e+01 -2.8869380481272161e-02 -5.3648215895845008e-01 +5.3225112216330264e-03
-1.1099999999999977e+01 +8.1495151203286049e+00 +0.0000000000000000e+00 -1.1099999270604888e+01 -2.8869419604935956e-02 -5.3648257113241382e-01 +5.3225549605391042e-03
-1.1199999999999976e+01 +8.1494520463892233e+00 +0.0000000000000000e+00 -1.1199999250713145e+01 -2.8869457548143827e-02 -5.3648299660410492e-01 +5.3225990347676990e-03
-1.1299999999999976e+01 +8.1493884067499831e+00 +0.0000000000000000e+00 -1.1299999230462991e+01 -2.8869494190315190e-02 -5.3648343491389761e-01 +5.3226434382004778e-03
-1.1399999999999975e+01 +8.1493242014104244e+00 +0.0000000000000000e+00 -1.1399999209851227e+01 -2.8869529410856132e-02 -5.3648388560215676e-01 +5.3226881647168824e-03
-1.1499999999999975e+01 +8.1492594303700727e+00 +0.0000000000000000e+00 -1.1499999188874654e+01 -2.8869563089159160e-02 -5.3648434820923852e-01 +5.3227332081941100e-03
-1.1599999999999975e+01 +8.1491940936284433e+00 +0.0000000000000000e+00 -1.1599999167530068e+01 -2.8869595104602814e-02 -5.3648482227549021e-01 +5.3227785625070516e-03
-1.1699999999999974e+01 +8.1491281911850386e+00 +0.0000000000000000e+00 -1.1699999145814273e+01 -2.8869625336551449e-02 -5.3648530734124911e-01 +5.3228242215282717e-03
