# field on trajectory
# s[mm] rx[mm] ry[mm] rz[mm] bx[T] by[T] bz[T]
0.0000000000000000e+00 +8.1530000000000094e+00 +0.0000000000000000e+00 +0.0000000000000000e+00 -3.1948300843140487e-02 -5.9243497778407284e-01 +5.8971001531206583e-03
1.0000000000000001e-01 +8.1529997163925092e+00 +0.0000000000000000e+00 +9.9999999999463796e-02 -3.1948380131196462e-02 -5.9243506275812341e-01 +5.8971552056171694e-03
2.0000000000000001e-01 +8.1529988655711296e+00 +0.0000000000000000e+00 +1.9999999999571000e-01 -3.1948454859764282e-02 -5.9243515520115320e-01 +5.8972111270078646e-03
2.9999999999999999e-01 +8.1529974475415692e+00 +0.0000000000000000e+00 +2.9999999998552201e-01 -3.1948525024599828e-02 -5.9243525370484462e-01 +5.8972680082835993e-03
4.0000000000000002e-01 +8.1529954622965306e+00 +0.0000000000000000e+00 +3.9999999996568197e-01 -3.1948590621468098e-02 -5.9243535686096749e-01 +5.8973259404372222e-03
5.0000000000000000e-01 +8.1529929098396696e+00 +0.0000000000000000e+00 +4.9999999993297300e-01 -3.1948651646134536e-02 -5.9243546326118879e-01 +5.8973850144615541e-03
5.9999999999999998e-01 +8.1529897901673394e+00 +0.0000000000000000e+00 +5.9999999988417696e-01 -3.1948708094374043e-02 -5.9243557149722303e-01 +5.8974453213508065e-03
6.9999999999999996e-01 +8.1529861032831796e+00 +0.0000000000000000e+00 +6.9999999981607697e-01 -3.1948759961966194e-02 -5.9243568016072079e-01 +5.8975069520993701e-03
8.0000000000000004e-01 +8.1529818491871993e+00 +0.0000000000000000e+00 +7.9999999972545699e-01 -3.1948807244701095e-02 -5.9243578784335715e-01 +5.8975699977026124e-03
9.0000000000000002e-01 +8.1529770278793894e+00 +0.0000000000000000e+00 +8.9999999960909804e-01 -3.1948849938379188e-02 -5.9243589313680767e-01 +5.8976345491565489e-03
1.0000000000000000e+00 +8.1529716393597500e+00 +0.0000000000000000e+00 +9.9999999946378304e-01 -3.1948888038812608e-02 -5.9243599463275298e-01 +5.8977006974577752e-03
1.1000000000000001e+00 +8.1529656836210105e+00 +0.0000000000000000e+00 +1.0999999992862901e+00 -3.1948921541829552e-02 -5.9243609092293958e-01 +5.8977685336040154e-03
1.2000000000000000e+00 +8.1529591606740706e+00 +0.0000000000000000e+00 +1.1999999990734200e+00 -3.1948950443264935e-02 -5.9243618059897818e-01 +5.8978381485919659e-03
1.3000000000000000e+00 +8.1529520705153100e+00 +0.0000000000000000e+00 +1.2999999988219300e+00 -3.1948974738975414e-02 -5.9243626225261237e-01 +5.8979096334199265e-03
1.3999999999999999e+00 +8.1529444131410909e+00 +0.0000000000000000e+00 +1.3999999985286200e+00 -3.1948994424834662e-02 -5.9243633447560418e-01 +5.8979830790865696e-03
1.5000000000000000e+00 +8.1529361885550298e+00 +0.0000000000000000e+00 +1.4999999981902701e+00 -3.1949009496731573e-02 -5.9243639585967989e-01 +5.8980585765902550e-03
1.6000000000000001e+00 +8.1529273967571498e+00 +0.0000000000000000e+00 +1.5999999978036501e+00 -3.1949019950576238e-02 -5.9243644499661952e-01 +5.8981362169298820e-03
1.7000000000000000e+00 +8.1529180377474404e+00 +0.0000000000000000e+00 +1.6999999973655600e+00 -3.1949025782299703e-02 -5.9243648047823438e-01 +5.8982160911045505e-03
1.8000000000000000e+00 +8.1529081115222706e+00 +0.0000000000000000e+00 +1.7999999968727800e+00 -3.1949026987856836e-02 -5.9243650089639810e-01 +5.8982982901137782e-03
1.8999999999999999e+00 +8.1528976180852606e+00 +0.0000000000000000e+00 +1.8999999963220899e+00 -3.1949023563223093e-02 -5.9243650484296184e-01 +5.8983829049565652e-03
2.0000000000000000e+00 +8.1528865574327902e+00 +0.0000000000000000e+00 +1.9999999957102601e+00 -3.1949015504401872e-02 -5.9243649090987716e-01 +5.8984700266325229e-03
2.1000000000000001e+00 +8.1528749295721408e+00 +0.0000000000000000e+00 +2.0999999950340902e+00 -3.1949002897641826e-02 -5.9243645820519764e-01 +5.8985597453987751e-03
2.2000000000000002e+00 +8.1528627344960096e+00 +0.0000000000000000e+00 +2.1999999942903599e+00 -3.1948986190108941e-02 -5.9243640790171537e-01 +5.8986521485478033e-03
2.2999999999999998e+00 +8.1528499722080596e+00 +0.0000000000000000e+00 +2.2999999934758399e+00 -3.1948965919187312e-02 -5.9243634168828019e-01 +5.8987473226305735e-03
2.3999999999999999e+00 +8.1528366427046404e+00 +0.0000000000000000e+00 +2.3999999925873299e+00 -3.1948942622258440e-02 -5.9243626125379478e-01 +5.8988453541997509e-03
2.5000000000000000e+00 +8.1528227459894005e+00 +0.0000000000000000e+00 +2.4999999916215998e+00 -3.1948916836692945e-02 -5.9243616828709289e-01 +5.8989463298085732e-03
2.6000000000000001e+00 +8.1528082820659602e+00 +0.0000000000000000e+00 +2.5999999905754398e+00 -3.1948889099851434e-02 -5.9243606447699659e-01 +5.8990503360115271e-03
2.7000000000000002e+00 +8.1527932509234198e+00 +0.0000000000000000e+00 +2.6999999894456299e+00 -3.1948859949088193e-02 -5.9243595151243222e-01 +5.8991574593656171e-03
2.7999999999999998e+00 +8.1527776525726896e+00 +0.0000000000000000e+00 +2.7999999882289601e+00 -3.1948829921733833e-02 -5.9243583108213071e-01 +5.8992677864274350e-03
2.8999999999999999e+00 +8.1527614870065008e+00 +0.0000000000000000e+00 +2.8999999869222002e+00 -3.1948799555109680e-02 -5.9243570487495190e-01 +5.8993814037565477e-03
3.0000000000000000e+00 +8.1527447542284808e+00 +0.0000000000000000e+00 +2.9999999855221300e+00 -3.1948769386513448e-02 -5.9243557457964491e-01 +5.8994983979131551e-03
3.1000000000000001e+00 +8.1527274542386294e+00 +0.0000000000000000e+00 +3.0999999840255499e+00 -3.1948739953222949e-02 -5.9243544188496311e-01 +5.8996188554593862e-03
3.2000000000000002e+00 +8.1527095870333106e+00 +0.0000000000000000e+00 +3.1999999824292300e+00 -3.1948711792493957e-02 -5.9243530847966297e-01 +5.8997428629593467e-03
3.2999999999999998e+00 +8.1526911526198091e+00 +0.0000000000000000e+00 +3.2999999807299600e+00 -3.1948685441551751e-02 -5.9243517605238172e-01 +5.8998705069780097e-03
3.3999999999999999e+00 +8.1526721509872004e+00 +0.0000000000000000e+00 +3.3999999789245101e+00 -3.1948661437601153e-02 -5.9243504629187271e-01 +5.9000018740836919e-03
3.5000000000000000e+00 +8.1526525821464002e+00 +0.0000000000000000e+00 +3.4999999770096801e+00 -3.1948640317807440e-02 -5.9243492088667671e-01 +5.9001370508448125e-03
3.6000000000000001e+00 +8.1526324460901396e+00 +0.0000000000000000e+00 +3.5999999749822500e+00 -3.1948622619310835e-02 -5.9243480152544514e-01 +5.9002761238332773e-03
3.7000000000000002e+00 +8.1526117428220495e+00 +0.0000000000000000e+00 +3.6999999728389801e+00 -3.1948608879212158e-02 -5.9243468989670012e-01 +5.9004191796221562e-03
3.7999999999999998e+00 +8.1525904723421299e+00 +0.0000000000000000e+00 +3.7999999705766800e+00 -3.1948599634576566e-02 -5.9243458768895163e-01 +5.9005663047869521e-03
3.8999999999999999e+00 +8.1525686346503807e+00 +0.0000000000000000e+00 +3.8999999681921298e+00 -3.1948595422429817e-02 -5.9243449659066394e-01 +5.9007175859053743e-03
4.0000000000000000e+00 +8.1525462297431694e+00 +0.0000000000000000e+00 +3.9999999656820902e+00 -3.1948596779757518e-02 -5.9243441829028343e-01 +5.9008731095577119e-03
4.0999999999999996e+00 +8.1525232576241304e+00 +0.0000000000000000e+00 +4.0999999630433699e+00 -3.1948604221992270e-02 -5.9243435416499113e-01 +5.9010329137979631e-03
4.2000000000000002e+00 +8.1524997182896204e+00 +0.0000000000000000e+00 +4.1999999602727298e+00 -3.1948618178516908e-02 -5.9243430434736610e-01 +5.9011968425691959e-03
4.2999999999999998e+00 +8.1524756117469206e+00 +0.0000000000000000e+00 +4.2999999573669703e+00 -3.1948639057205463e-02 -5.9243426865874516e-01 +5.9013646912835036e-03
4.4000000000000004e+00 +8.1524509379887604e+00 +0.0000000000000000e+00 +4.3999999543228601e+00 -3.1948667265945176e-02 -5.9243424692059199e-01 +5.9015362553516606e-03
4.5000000000000000e+00 +8.1524256970187707e+00 +0.0000000000000000e+00 +4.4999999511372000e+00 -3.1948703212626786e-02 -5.9243423895429026e-01 +5.9017113301808206e-03
4.5999999999999996e+00 +8.1523998888369498e+00 +0.0000000000000000e+00 +4.5999999478067499e+00 -3.1948747305151591e-02 -5.9243424458126581e-01 +5.9018897111755009e-03
4.7000000000000002e+00 +8.1523735134396702e+00 +0.0000000000000000e+00 +4.6999999443283098e+00 -3.1948799951432412e-02 -5.9243426362298512e-01 +5.9020711937373760e-03
4.7999999999999998e+00 +8.1523465708305594e+00 +0.0000000000000000e+00 +4.7999999406986600e+00 -3.1948861559389932e-02 -5.9243429590086916e-01 +5.9022555732641709e-03
4.9000000000000004e+00 +8.1523190610096208e+00 +0.0000000000000000e+00 +4.8999999369145701e+00 -3.1948932536958234e-02 -5.9243434123638239e-01 +5.9024426451503515e-03
5.0000000000000000e+00 +8.1522909839768491e+00 +0.0000000000000000e+00 +4.9999999329728402e+00 -3.1949013292084265e-02 -5.9243439945100596e-01 +5.9026322047866170e-03
5.0999999999999996e+00 +8.1522623397286207e+00 +0.0000000000000000e+00 +5.0999999288702398e+00 -3.1949104232730285e-02 -5.9243447036626551e-01 +5.9028240475599804e-03
5.2000000000000002e+00 +8.1522331282685592e+00 +0.0000000000000000e+00 +5.1999999246035600e+00 -3.1949205766870242e-02 -5.9243455380364718e-01 +5.9030179688526830e-03
5.2999999999999998e+00 +8.1522033495966806e+00 +0.0000000000000000e+00 +5.2999999201695802e+00 -3.1949318302495297e-02 -5.9243464958468417e-01 +5.9032137640428577e-03
5.4000000000000004e+00 +8.1521730037093203e+00 +0.0000000000000000e+00 +5.3999999155650800e+00 -3.1949442247614819e-02 -5.9243475753096064e-01 +5.9034112285043464e-03
5.5000000000000000e+00 +8.1521420906137791e+00 +0.0000000000000000e+00 +5.4999999107868396e+00 -3.1949578010251146e-02 -5.9243487746399259e-01 +5.9036101576052692e-03
5.5999999999999996e+00 +8.1521106102991308e+00 +0.0000000000000000e+00 +5.5999999058316599e+00 -3.1949725998452867e-02 -5.9243500920546610e-01 +5.9038103467102384e-03
5.7000000000000002e+00 +8.1520785627762997e+00 +0.0000000000000000e+00 +5.6999999006963096e+00 -3.1949886620278881e-02 -5.9243515257691381e-01 +5.9040115911768217e-03
5.7999999999999998e+00 +8.1520459480379905e+00 +0.0000000000000000e+00 +5.7999998953775700e+00 -3.1950060283816153e-02 -5.9243530740004091e-01 +5.9042136863586654e-03
5.9000000000000004e+00 +8.1520127660915005e+00 +0.0000000000000000e+00 +5.8999998898722197e+00 -3.1950247397166939e-02 -5.9243547349645975e-01 +5.9044164276025584e-03
5.9999999999999902e+00 +8.1519790169259103e+00 +0.0000000000000000e+00 +5.9999998841770603e+00 -3.1950448368463565e-02 -5.9243565068795745e-01 +5.9046196102509468e-03
6.0999999999999899e+00 +8.1519447005521197e+00 +0.0000000000000000e+00 +6.0999998782888598e+00 -3.1950663260148858e-02 -5.9243583880399464e-01 +5.9048230469344216e-03
6.1999999999999904e+00 +8.1519098169665103e+00 +0.0000000000000000e+00 +6.1999998722044003e+00 -3.1950890751871339e-02 -5.9243603770546038e-01 +5.9050266194647606e-03
6.2999999999999901e+00 +8.1518743661654298e+00 +0.0000000000000000e+00 +6.2999998659204701e+00 -3.1951129177582561e-02 -5.9243624726108290e-01 +5.9052302269488452e-03
6.3999999999999897e+00 +8.1518383481488907e+00 +0.0000000000000000e+00 +6.3999998594338496e+00 -3.1951376871240361e-02 -5.9243646733957622e-01 +5.9054337684927146e-03
6.4999999999999902e+00 +8.1518017629241495e+00 +0.0000000000000000e+00 +6.4999998527413201e+00 -3.1951632166807679e-02 -5.9243669780961217e-01 +5.9056371432012998e-03
6.5999999999999899e+00 +8.1517646104839496e+00 +0.0000000000000000e+00 +6.5999998458396698e+00 -3.1951893398261835e-02 -5.9243693853999768e-01 +5.9058402501802549e-03
6.6999999999999904e+00 +8.1517268908319203e+00 +0.0000000000000000e+00 +6.6999998387256703e+00 -3.1952158899584228e-02 -5.9243718939946821e-01 +5.9060429885338817e-03
6.7999999999999901e+00 +8.1516886039680703e+00 +0.0000000000000000e+00 +6.7999998313961196e+00 -3.1952427004766581e-02 -5.9243745025680727e-01 +5.9062452573663557e-03
6.8999999999999897e+00 +8.1516497498923908e+00 +0.0000000000000000e+00 +6.8999998238477902e+00 -3.1952696047809780e-02 -5.9243772098081693e-01 +5.9064469557814584e-03
6.9999999999999902e+00 +8.1516103286012402e+00 +0.0000000000000000e+00 +6.9999998160774597e+00 -3.1952964362725593e-02 -5.9243800144034797e-01 +5.9066479828829097e-03
7.0999999999999899e+00 +8.1515703400982602e+00 +0.0000000000000000e+00 +7.0999998080819298e+00 -3.1953230283532301e-02 -5.9243829150421157e-01 +5.9068482377734738e-03
7.1999999999999904e+00 +8.1515297843834595e+00 +0.0000000000000000e+00 +7.1999997998579603e+00 -3.1953492144259667e-02 -5.9243859104126906e-01 +5.9070476195559199e-03
7.2999999999999901e+00 +8.1514886614531896e+00 +0.0000000000000000e+00 +7.2999997914023496e+00 -3.1953748278949048e-02 -5.9243889992043197e-01 +5.9072460273330270e-03
7.3999999999999897e+00 +8.1514469713147300e+00 +0.0000000000000000e+00 +7.3999997827118804e+00 -3.1953997021647661e-02 -5.9243921801054500e-01 +5.9074433602064134e-03
7.4999999999999902e+00 +8.1514047139571595e+00 +0.0000000000000000e+00 +7.4999997737833199e+00 -3.1954236706420988e-02 -5.9243954518062192e-01 +5.9076395172789863e-03
7.5999999999999899e+00 +8.1513618893914099e+00 +0.0000000000000000e+00 +7.5999997646134698e+00 -3.1954465667336264e-02 -5.9243988129952163e-01 +5.9078343976516380e-03
7.6999999999999904e+00 +8.1513184976138309e+00 +0.0000000000000000e+00 +7.6999997551991104e+00 -3.1954682238477992e-02 -5.9244022623624504e-01 +5.9080279004262949e-03
7.7999999999999901e+00 +8.1512745386207808e+00 +0.0000000000000000e+00 +7.7999997455370096e+00 -3.1954884753942127e-02 -5.9244057985981646e-01 +5.9082199247047530e-03
7.8999999999999897e+00 +8.1512300124159101e+00 +0.0000000000000000e+00 +7.8999997356239602e+00 -3.1955071547833232e-02 -5.9244094203922482e-01 +5.9084103695880713e-03
7.9999999999999902e+00 +8.1511849189955701e+00 +0.0000000000000000e+00 +7.9999997254567399e+00 -3.1955240954270901e-02 -5.9244131264354316e-01 +5.9085991341778421e-03
8.0999999999999908e+00 +8.1511392583670403e+00 +0.0000000000000000e+00 +8.0999997150321406e+00 -3.1955391668579997e-02 -5.9244169153326631e-01 +5.9087861684791040e-03
8.1999999999999904e+00 +8.1510930305230396e+00 +0.0000000000000000e+00 +8.1999997043469399e+00 -3.1955523830894832e-02 -5.9244207853496389e-01 +5.9089716261193437e-03
8.2999999999999901e+00 +8.1510462354672200e+00 +0.0000000000000000e+00 +8.2999996933979094e+00 -3.1955637942528613e-02 -5.9244247346659973e-01 +5.9091557116358233e-03
8.3999999999999897e+00 +8.1509988731995708e+00 +0.0000000000000000e+00 +8.3999996821818605e+00 -3.1955734504772369e-02 -5.9244287614615976e-01 +5.9093386295722312e-03
8.4999999999999893e+00 +8.1509509437164507e+00 +0.0000000000000000e+00 +8.4999996706955496e+00 -3.1955814018894094e-02 -5.9244328639165533e-01 +5.9095205844788773e-03
8.5999999999999908e+00 +8.1509024470215099e+00 +0.0000000000000000e+00 +8.5999996589357703e+00 -3.1955876986133301e-02 -5.9244370402103108e-01 +5.9097017809120059e-03
8.6999999999999904e+00 +8.1508533831147396e+00 +0.0000000000000000e+00 +8.6999996468993004e+00 -3.1955923907704797e-02 -5.9244412885225428e-01 +5.9098824234348965e-03
8.7999999999999794e+00 +8.1508037519961398e+00 +0.0000000000000000e+00 +8.7999996345829192e+00 -3.1955955284796306e-02 -5.9244456070328488e-01 +5.9100627166177797e-03
8.8999999999999808e+00 +8.1507535536620708e+00 +0.0000000000000000e+00 +8.8999996219834205e+00 -3.1955971618569182e-02 -5.9244499939210438e-01 +5.9102428650383331e-03
8.9999999999999805e+00 +8.1507027881161793e+00 +0.0000000000000000e+00 +8.9999996090975891e+00 -3.1955973410152994e-02 -5.9244544473662719e-01 +5.9104230732809921e-03
9.0999999999999801e+00 +8.1506514553584601e+00 +0.0000000000000000e+00 +9.0999995959221902e+00 -3.1955961160649256e-02 -5.9244589655478819e-01 +5.9106035459380573e-03
9.1999999999999797e+00 +8.1505995553889097e+00 +0.0000000000000000e+00 +9.1999995824540193e+00 -3.1955935371129104e-02 -5.9244635466451345e-01 +5.9107844876096034e-03
9.2999999999999794e+00 +8.1505470882038900e+00 +0.0000000000000000e+00 +9.2999995686898593e+00 -3.1955896542633949e-02 -5.9244681888374906e-01 +5.9109661029039780e-03
9.3999999999999808e+00 +8.1504940538070496e+00 +0.0000000000000000e+00 +9.3999995546264898e+00 -3.1955845176170089e-02 -5.9244728903037236e-01 +5.9111485964371139e-03
9.4999999999999805e+00 +8.1504404521983798e+00 +0.0000000000000000e+00 +9.4999995402606903e+00 -3.1955781772712417e-02 -5.9244776492227869e-01 +5.9113321728336268e-03
9.5999999999999801e+00 +8.1503862833778804e+00 +0.0000000000000000e+00 +9.5999995255892507e+00 -3.1955706833202133e-02 -5.9244824637735416e-01 +5.9115170367267413e-03
9.6999999999999797e+00 +8.1503315473419207e+00 +0.0000000000000000e+00 +9.6999995106089507e+00 -3.1955620858547362e-02 -5.9244873321350167e-01 +5.9117033927587699e-03
9.7999999999999794e+00 +8.1502762440941297e+00 +0.0000000000000000e+00 +9.7999994953165697e+00 -3.1955524349617785e-02 -5.9244922524855492e-01 +5.9118914455804430e-03
9.8999999999999808e+00 +8.1502203736345091e+00 +0.0000000000000000e+00 +9.8999994797088906e+00 -3.1955417807248344e-02 -5.9244972230036363e-01 +5.9120813998519957e-03
9.9999999999999805e+00 +8.1501639359594300e+00 +0.0000000000000000e+00 +9.9999994637827001e+00 -3.1955301732238456e-02 -5.9245022418679549e-01 +5.9122734602433859e-03
1.0100000000000000e+01 +8.1501069310761505e+00 +0.0000000000000000e+00 +1.0099999447534801e+01 -3.1955176765977367e-02 -5.9245073084113087e-01 +5.9124677785508369e-03
1.0199999999999999e+01 +8.1500493589774106e+00 +0.0000000000000000e+00 +1.0199999430961901e+01 -3.1955044112374646e-02 -5.9245124265881310e-01 +5.9126642950454791e-03
1.0300000000000001e+01 +8.1499912196668394e+00 +0.0000000000000000e+00 +1.0299999414060901e+01 -3.1954905115973001e-02 -5.9245176015068113e-01 +5.9128628971153573e-03
1.0400000000000000e+01 +8.1499325131444493e+00 +0.0000000000000000e+00 +1.0399999396828500e+01 -3.1954761121321437e-02 -5.9245228382756621e-01 +5.9130634721501051e-03
1.0500000000000000e+01 +8.1498732394065900e+00 +0.0000000000000000e+00 +1.0499999379261400e+01 -3.1954613472975360e-02 -5.9245281420029017e-01 +5.9132659075409070e-03
1.0600000000000000e+01 +8.1498133984568994e+00 +0.0000000000000000e+00 +1.0599999361356600e+01 -3.1954463515492429e-02 -5.9245335177957636e-01 +5.9134700906796076e-03
1.0699999999999999e+01 +8.1497529902953794e+00 +0.0000000000000000e+00 +1.0699999343110701e+01 -3.1954312593437173e-02 -5.9245389707613816e-01 +5.9136759089596031e-03
1.0800000000000001e+01 +8.1496920149220404e+00 +0.0000000000000000e+00 +1.0799999324520600e+01 -3.1954162051379888e-02 -5.9245445060064694e-01 +5.9138832497755370e-03
1.0900000000000000e+01 +8.1496304723332305e+00 +0.0000000000000000e+00 +1.0899999305583000e+01 -3.1954013233898314e-02 -5.9245501286376134e-01 +5.9140920005235926e-03
1.1000000000000000e+01 +8.1495683625325892e+00 +0.0000000000000000e+00 +1.0999999286294800e+01 -3.1953867485573308e-02 -5.9245558437603829e-01 +5.9143020486005808e-03
1.1100000000000000e+01 +8.1495056855201309e+00 +0.0000000000000000e+00 +1.1099999266652601e+01 -3.1953726150993705e-02 -5.9245616564801906e-01 +5.9145132814048479e-03
1.1199999999999999e+01 +8.1494424412958306e+00 +0.0000000000000000e+00 +1.1199999246653300e+01 -3.1953590574754977e-02 -5.9245675719020074e-01 +5.9147255863359520e-03
1.1300000000000001e+01 +8.1493786298560700e+00 +0.0000000000000000e+00 +1.1299999226293700e+01 -3.1953462101461078e-02 -5.9245735951306278e-01 +5.9149388507949820e-03
1.1400000000000000e+01 +8.1493142512044905e+00 +0.0000000000000000e+00 +1.1399999205570500e+01 -3.1953342075720023e-02 -5.9245797312697868e-01 +5.9151529621836165e-03
1.1500000000000000e+01 +8.1492493053447106e+00 +0.0000000000000000e+00 +1.1499999184480499e+01 -3.1953231842147323e-02 -5.9245859854227345e-01 +5.9153678079047513e-03
1.1600000000000000e+01 +8.1491837922658306e+00 +0.0000000000000000e+00 +1.1599999163020600e+01 -3.1953132745372162e-02 -5.9245923626934216e-01 +5.9155832753636853e-03
1.1699999999999999e+01 +8.1491177119787608e+00 +0.0000000000000000e+00 +1.1699999141187400e+01 -3.1953046130022485e-02 -5.9245988681835104e-01 +5.9157992519650940e-03
1.1800000000000001e+01 +8.1490510644762306e+00 +0.0000000000000000e+00 +1.1799999118977800e+01 -3.1952973340742027e-02 -5.9246055069956360e-01 +5.9160156251163512e-03
