# multipoles
# s[mm] polynom_b[n=0][T/m^n] polynom_b[n=1][T/m^n] polynom_b[n=2][T/m^n] polynom_b[n=3][T/m^n] polynom_b[n=4][T/m^n] polynom_b[n=5][T/m^n] polynom_b[n=6][T/m^n] 
+0.0000000000000000e+00 -5.9305174188401688e-01 +8.1235609482038758e+00 -8.8777218198602825e-01 -5.7972587511850338e-01 +4.5271852602742420e+03 -2.6728645257934404e+05 -1.4611579463740749e+07 
+1.0000000000000001e-01 -5.9305190958243303e-01 +8.1235402214425942e+00 -8.8719358423851580e-01 -3.1530953201765816e-01 +4.5277687754776407e+03 -2.6788173787308700e+05 -1.4604187972838402e+07 
+2.0000000000000001e-01 -5.9305208962875755e-01 +8.1235204873359432e+00 -8.8663155003587235e-01 -5.7524420764277245e-02 +4.5349119988374232e+03 -2.6851316401060607e+05 -1.4641332078983815e+07 
+2.9999999999999999e-01 -5.9305228153922152e-01 +8.1235018027287627e+00 -8.8611582923705123e-01 +1.9085210487318074e-01 +4.5487519456341697e+03 -2.6915898073031008e+05 -1.4722500652244927e+07 
+4.0000000000000002e-01 -5.9305248483015049e-01 +8.1234842244606735e+00 -8.8567617349110306e-01 +4.2704281234354635e-01 +4.5694256711706539e+03 -2.6979743834368850e+05 -1.4847182770648165e+07 
+5.0000000000000000e-01 -5.9305269901781466e-01 +8.1234678093701298e+00 -8.8534233115179084e-01 +6.4827045251595039e-01 +4.5970701732077387e+03 -2.7040678689899039e+05 -1.5014867250579381e+07 
+5.9999999999999998e-01 -5.9305292361851303e-01 +8.1234526142965855e+00 -8.8514405442170707e-01 +8.5175770067805612e-01 +4.6318225256883206e+03 -2.7096527584219800e+05 -1.5225043280883877e+07 
+6.9999999999999996e-01 -5.9305315814851611e-01 +8.1234386960782849e+00 -8.8511109193290538e-01 +1.0347272463542323e+00 +4.6738197363639138e+03 -2.7145115463578043e+05 -1.5477199741610024e+07 
+8.0000000000000004e-01 -5.9305340212410806e-01 +8.1234261115502555e+00 -8.8527319455130549e-01 +1.1944018295235181e+00 +4.7231988597420223e+03 -2.7184267291547573e+05 -1.5770825749179490e+07 
+9.0000000000000002e-01 -5.9305365506160268e-01 +8.1234149175522052e+00 -8.8566010987494093e-01 +1.3280040377808187e+00 +4.7800968891330367e+03 -2.7211807938793051e+05 -1.6105410132910505e+07 
+1.0000000000000000e+00 -5.9305391647730876e-01 +8.1234051709269597e+00 -8.8630158632140321e-01 +1.4327563438794408e+00 +4.8446508373482629e+03 -2.7225562204849004e+05 -1.6480441829049796e+07 
+1.1000000000000001e+00 -5.9305418588760173e-01 +8.1233969285159233e+00 -8.8722737121045048e-01 +1.5058812375519715e+00 +4.9169976931130077e+03 -2.7223354895317554e+05 -1.6895409653373003e+07 
+1.2000000000000000e+00 -5.9305446280872520e-01 +8.1233902471625328e+00 -8.8846721010850949e-01 +1.5446011616002482e+00 +4.9972744158156138e+03 -2.7203010796216270e+05 -1.7349802298666127e+07 
+1.3000000000000000e+00 -5.9305474675703895e-01 +8.1233851837119033e+00 -8.9005084857523631e-01 +1.5461384759098904e+00 +5.0856179619935201e+03 -2.7162354640484590e+05 -1.7843108440065697e+07 
+1.3999999999999999e+00 -5.9305503724893993e-01 +8.1233817950150780e+00 -8.9200802819212688e-01 +1.5077153841155508e+00 +5.1821652149665924e+03 -2.7099211081855523e+05 -1.8374816415598255e+07 
+1.5000000000000000e+00 -5.9305533380076025e-01 +8.1233801379295798e+00 -8.9436849028023668e-01 +1.4265538936864530e+00 +5.2870530484079391e+03 -2.7011404664804065e+05 -1.8944414511998728e+07 
+1.6000000000000001e+00 -5.9305563592888921e-01 +8.1233802693087576e+00 -8.9716197326490454e-01 +1.2998761480543441e+00 +5.4004182822848243e+03 -2.6896760025222733e+05 -1.9551390768753611e+07 
+1.7000000000000000e+00 -5.9305594314971843e-01 +8.1233822460195508e+00 -9.0041821450189163e-01 +1.1249039033665005e+00 +5.5223977117786253e+03 -2.6753101586199237e+05 -2.0195233103918750e+07 
+1.8000000000000000e+00 -5.9305625497969461e-01 +8.1233861249280377e+00 -9.0416694846019130e-01 +8.9885896375035523e-01 +5.6531280758347057e+03 -2.6578253814931732e+05 -2.0875429169430427e+07 
+1.8999999999999999e+00 -5.9305657093522302e-01 +8.1233919629118052e+00 -9.0843790666048696e-01 +6.1896280981164487e-01 +5.7927460524528215e+03 -2.6370041006419517e+05 -2.1591466323744982e+07 
+2.0000000000000000e+00 -5.9305689053278643e-01 +8.1233998168469981e+00 -9.1326081829588079e-01 +2.8243699760702362e-01 +5.9413882732507800e+03 -2.6126287521000297e+05 -2.2342831705839921e+07 
+2.1000000000000001e+00 -5.9305721335629480e-01 +8.1234097025185577e+00 -9.1864760891822195e-01 -1.1159095553752671e-01 +6.0989047859158845e+03 -2.5846175431241738e+05 -2.3127879002219640e+07 
+2.2000000000000002e+00 -5.9305753924982496e-01 +8.1234214680881589e+00 -9.2453984926331934e-01 -5.5635948894786735e-01 +6.2640022253412708e+03 -2.5534299672237094e+05 -2.3940386580780193e+07 
+2.2999999999999998e+00 -5.9305786811979067e-01 +8.1234349189954926e+00 -9.3086174274856126e-01 -1.0431950974171798e+00 +6.4351022592152322e+03 -2.5196604776094260e+05 -2.4772979499157321e+07 
+2.3999999999999999e+00 -5.9305819987271158e-01 +8.1234498606787131e+00 -9.3753748795465819e-01 -1.5634241790626839e+00 +6.6106264663727479e+03 -2.4839035347844608e+05 -2.5618282383137576e+07 
+2.5000000000000000e+00 -5.9305853441498702e-01 +8.1234660985788008e+00 -9.4449129186169989e-01 -2.1083731623835646e+00 +6.7889965878154835e+03 -2.4467535993307715e+05 -2.6468920619136453e+07 
+2.6000000000000001e+00 -5.9305887165303162e-01 +8.1234834381331069e+00 -9.5164736064688082e-01 -2.6693683086876505e+00 +6.9686343520861501e+03 -2.4088051433229484e+05 -2.7317519520450186e+07 
+2.7000000000000002e+00 -5.9305921149333751e-01 +8.1235016847764001e+00 -9.5892990670997580e-01 -3.2377357250748395e+00 +7.1479616082943048e+03 -2.3706526502394109e+05 -2.8156704955129821e+07 
+2.7999999999999998e+00 -5.9305955384222131e-01 +8.1235206439402248e+00 -9.6626314332169516e-01 -3.8048013775141594e+00 +7.3254002265442587e+03 -2.3328906132523689e+05 -2.8979102879998561e+07 
+2.8999999999999999e+00 -5.9305989860609976e-01 +8.1235401210586868e+00 -9.7357129102606776e-01 -4.3618912061207409e+00 +7.4993722189939890e+03 -2.2961135298734365e+05 -2.9777339909182664e+07 
+3.0000000000000000e+00 -5.9306024569128080e-01 +8.1235599215603767e+00 -9.8077857389021617e-01 -4.9003309177520080e+00 +7.6682996656427731e+03 -2.2609159132966737e+05 -3.0544042952505883e+07 
+3.1000000000000001e+00 -5.9306059500409103e-01 +8.1235798508701507e+00 -9.8780921941708266e-01 -5.4114460224657712e+00 +7.8306047201713927e+03 -2.2278922907049535e+05 -3.1271839260270186e+07 
+3.2000000000000002e+00 -5.9306094645081808e-01 +8.1235997144097265e+00 -9.9458746462659908e-01 -5.8865618424524069e+00 +7.9847097184531531e+03 -2.1976372028178975e+05 -3.1953356919374559e+07 
+3.2999999999999998e+00 -5.9306129993768009e-01 +8.1236193175943079e+00 -1.0010375457798184e+00 -6.3170034159367940e+00 +8.1290369872881929e+03 -2.1707452094753302e+05 -3.2581223951940350e+07 
+3.3999999999999999e+00 -5.9306165537095767e-01 +8.1236384658395551e+00 -1.0070837120439680e+00 -6.6940956843313488e+00 +8.2620091069223890e+03 -2.1478108792054933e+05 -3.3148069568867575e+07 
+3.5000000000000000e+00 -5.9306201265673120e-01 +8.1236569645560817e+00 -1.0126502165385676e+00 -7.0091633436341754e+00 +8.3820487326842649e+03 -2.1294287973647448e+05 -3.3646523296985559e+07 
+3.6000000000000001e+00 -5.9306237170120502e-01 +8.1236746191465876e+00 -1.0176613176256644e+00 -7.2535307380390721e+00 +8.4875786298405219e+03 -2.1161935730501421e+05 -3.4069215172133856e+07 
+3.7000000000000002e+00 -5.9306273241042329e-01 +8.1236912350066923e+00 -1.0220412842011650e+00 -7.4185218871291347e+00 +8.5770217655228844e+03 -2.1086998373695477e+05 -3.4408776148866430e+07 
+3.7999999999999998e+00 -5.9306309469043161e-01 +8.1237066175311625e+00 -1.0257143914107214e+00 -7.4954606524590002e+00 +8.6488012371969689e+03 -2.1075422340888283e+05 -3.4657837785503931e+07 
+3.8999999999999999e+00 -5.9306345844723507e-01 +8.1237205721086205e+00 -1.0286049205478285e+00 -7.4756706100441974e+00 +8.7013402590329770e+03 -2.1133154263378735e+05 -3.4809032146857314e+07 
+4.0000000000000000e+00 -5.9306382358678023e-01 +8.1237329041147781e+00 -1.0306371669044914e+00 -7.3504748032675016e+00 +8.7330623223494931e+03 -2.1266141122481937e+05 -3.4854992592536628e+07 
+4.0999999999999996e+00 -5.9306419007573974e-01 +8.1237434570706366e+00 -1.0317533227920745e+00 -7.1140764134115351e+00 +8.7428166557898294e+03 -2.1478221818009147e+05 -3.4790517351266861e+07 
+4.2000000000000002e+00 -5.9306455815097658e-01 +8.1237522445916159e+00 -1.0319644293901038e+00 -6.7726810035644016e+00 +8.7311577328101557e+03 -2.1764536529992623e+05 -3.4619262357069187e+07 
+4.2999999999999998e+00 -5.9306492812361089e-01 +8.1237593273307755e+00 -1.0312980777571821e+00 -6.3356251978531590e+00 +8.6990676164800716e+03 -2.2117976549135108e+05 -3.4347151592074759e+07 
+4.4000000000000004e+00 -5.9306530030494220e-01 +8.1237647659221626e+00 -1.0297818486888117e+00 -5.8122451190753122e+00 +8.6475281662920461e+03 -2.2531433420246083e+05 -3.3980108087761402e+07 
+4.5000000000000000e+00 -5.9306567500616103e-01 +8.1237686210072404e+00 -1.0274433218098116e+00 -5.2118771644339077e+00 +8.5775212046461165e+03 -2.2997798489016216e+05 -3.3524054704814117e+07 
+4.5999999999999996e+00 -5.9306605253852018e-01 +8.1237709532111335e+00 -1.0243100700983507e+00 -4.5438572889696882e+00 +8.4900284204554482e+03 -2.3509963323782358e+05 -3.2984913696315199e+07 
+4.7000000000000002e+00 -5.9306643321333607e-01 +8.1237718231498253e+00 -1.0204096585457922e+00 -3.8175212590377279e+00 +8.3860313347738393e+03 -2.4060819553900397e+05 -3.2368606523695767e+07 
+4.7999999999999998e+00 -5.9306681734188371e-01 +8.1237712914393452e+00 -1.0157696465709825e+00 -3.0422049004031235e+00 +8.2665113536148147e+03 -2.4643258731300221e+05 -3.1681054132632107e+07 
+4.9000000000000004e+00 -5.9306720523550238e-01 +8.1237694186744989e+00 -1.0104175852338233e+00 -2.2272434950473849e+00 +8.1324497076432363e+03 -2.5250172673906939e+05 -3.0928176646299418e+07 
+5.0000000000000000e+00 -5.9306759720555857e-01 +8.1237662654524065e+00 -1.0043810180818578e+00 -1.3819724654938332e+00 +7.9848274706368493e+03 -2.5874453066887506e+05 -3.0115893466072712e+07 
+5.0999999999999996e+00 -5.9306799356347484e-01 +8.1237618923535155e+00 -9.9768748120643669e-01 -5.1572684358750887e-01 +7.8246255595575549e+03 -2.6508991764720221e+05 -2.9250123270589132e+07 
+5.2000000000000002e+00 -5.9306839462067129e-01 +8.1237563599503773e+00 -9.9036449928578763e-01 +3.6215849515254639e-01 +7.6528246603998014e+03 -2.7146680658442434e+05 -2.8336783670273047e+07 
+5.2999999999999998e+00 -5.9306880068860213e-01 +8.1237497288060894e+00 -9.8243959149326299e-01 +1.2423488407654630e+00 +7.4704053352997462e+03 -2.7780411670977785e+05 -2.7381791705821186e+07 
+5.4000000000000004e+00 -5.9306921207881236e-01 +8.1237420594723897e+00 -9.7394026480782436e-01 +2.1155097284505420e+00 +7.2783478989287523e+03 -2.8403076807779103e+05 -2.6391063272667866e+07 
+5.5000000000000000e+00 -5.9306962910280459e-01 +8.1237334124886935e+00 -9.6489401506533901e-01 +2.9723069334942043e+00 +7.0776324368763753e+03 -2.9007568143526471e+05 -2.5370513209979292e+07 
+5.5999999999999996e+00 -5.9307005207224972e-01 +8.1237238483878826e+00 -9.5532833026566100e-01 +3.8034063167726928e+00 +6.8692388641280759e+03 -2.9586777734715550e+05 -2.4326055566839539e+07 
+5.7000000000000002e+00 -5.9307048129869799e-01 +8.1237134276875533e+00 -9.4527068566207850e-01 +4.5994740648447978e+00 +6.6541468353118771e+03 -3.0133597754304833e+05 -2.3263603191651087e+07 
+5.7999999999999998e+00 -5.9307091709389592e-01 +8.1237022108941304e+00 -9.3474854527472717e-01 +5.3511765566855134e+00 +6.4333357740906467e+03 -3.0640920408608561e+05 -2.2189067875056908e+07 
+5.9000000000000004e+00 -5.9307135976952496e-01 +8.1236902585004191e+00 -9.2378936015391366e-01 +6.0491804560169014e+00 +6.2077848330210445e+03 -3.1101637995771010e+05 -2.1108360142822150e+07 
+5.9999999999999902e+00 -5.9307180963743544e-01 +8.1236776309891923e+00 -9.1242057244356367e-01 +6.6841525789408411e+00 +5.9784729766318214e+03 -3.1508642817431473e+05 -2.0027389672598217e+07 
+6.0999999999999899e+00 -5.9307226692575665e-01 +8.1236644164703762e+00 -9.0067658447398569e-01 +7.2479923844493683e+00 +5.7464070789234383e+03 -3.1855985295785218e+05 -1.8951836264845509e+07 
+6.1999999999999904e+00 -5.9307273150164197e-01 +8.1236508074351619e+00 -8.8862456849659643e-01 +7.7379986812611499e+00 +5.5127305421377514e+03 -3.2142712773349241e+05 -1.7886352427316848e+07 
+6.2999999999999901e+00 -5.9307320313515433e-01 +8.1236370207943107e+00 -8.7634111677167448e-01 +8.1529543598250864e+00 +5.2786261073764999e+03 -3.2369225898091315e+05 -1.6835298450130396e+07 
+6.3999999999999897e+00 -5.9307368159634166e-01 +8.1236232734701410e+00 -8.6390282236097349e-01 +8.4916419645880712e+00 +5.0452765466864766e+03 -3.2535925139075506e+05 -1.5803034797848182e+07 
+6.4999999999999902e+00 -5.9307416665524892e-01 +8.1236097824014379e+00 -8.5138627409540935e-01 +8.7528435645495595e+00 +4.8138645679926613e+03 -3.2643210715897038e+05 -1.4793921659953231e+07 
+6.5999999999999899e+00 -5.9307465808204018e-01 +8.1235967645450238e+00 -8.3886806326975216e-01 +8.9353406526620205e+00 +4.5855729433404185e+03 -3.2691482525920094e+05 -1.3812319563665107e+07 
+6.6999999999999904e+00 -5.9307515564684776e-01 +8.1235844368739354e+00 -8.2642477678122317e-01 +9.0379142501435563e+00 +4.3615843798037140e+03 -3.2681140221571230e+05 -1.2862588762580326e+07 
+6.7999999999999901e+00 -5.9307565911986049e-01 +8.1235730163792486e+00 -8.1413300140266898e-01 +9.0593448173882116e+00 +4.1430816022051986e+03 -3.2612583148959157e+05 -1.1949089632215714e+07 
+6.8999999999999897e+00 -5.9307616827127885e-01 +8.1235627200720923e+00 -8.0206932552957344e-01 +8.9984121989594374e+00 +3.9312473873027761e+03 -3.2486210319151264e+05 -1.1076182835015140e+07 
+6.9999999999999902e+00 -5.9307668287143001e-01 +8.1235537649827112e+00 -7.9031032889586805e-01 +8.8538956652064655e+00 +3.7272643681832828e+03 -3.2302420437192352e+05 -1.0248228386772700e+07 
+7.0999999999999899e+00 -5.9307720269054076e-01 +8.1235463681630673e+00 -7.7893259938550075e-01 +8.6245738296208394e+00 +3.5323153516878888e+03 -3.2061611854594870e+05 -9.4695871607309114e+06 
+7.1999999999999904e+00 -5.9307772749896548e-01 +8.1235407466831191e+00 -7.6801271734448739e-01 +8.3092247476071499e+00 +3.3475830328644147e+03 -3.1764182624253066e+05 -8.7446195620966181e+06 
+7.2999999999999901e+00 -5.9307825706710160e-01 +8.1235371176393443e+00 -7.5762726378096545e-01 +7.9066256768348220e+00 +3.1742501331986477e+03 -3.1410530365641793e+05 -8.0776861375068221e+06 
+7.3999999999999897e+00 -5.9307879116530071e-01 +8.1235356981509224e+00 -7.4785281949696325e-01 +7.4155531922432765e+00 +3.0134994019135975e+03 -3.1001052335145458e+05 -7.4731476252733376e+06 
+7.4999999999999902e+00 -5.9307932956410037e-01 +8.1235367053577026e+00 -7.3876596396083671e-01 +6.8347832291290267e+00 +2.8665135851995956e+03 -3.0536145446223067e+05 -6.9353647858731663e+06 
+7.5999999999999899e+00 -5.9307987203390911e-01 +8.1235403564249840e+00 -7.3044327516470209e-01 +6.1630909593929406e+00 +2.7344754295348957e+03 -3.0016206204628781e+05 -6.4686984310548622e+06 
+7.6999999999999904e+00 -5.9308041834530034e-01 +8.1235468685451320e+00 -7.2296132954783210e-01 +5.3992507271717507e+00 +2.6185676789547306e+03 -2.9441630667120597e+05 -6.0775094072683165e+06 
+7.7999999999999901e+00 -5.9308096826886458e-01 +8.1235564589336438e+00 -7.1639670574943193e-01 +4.5420361866266310e+00 +2.5199731445392658e+03 -2.8812814530013379e+05 -5.7661589176972415e+06 
+7.8999999999999897e+00 -5.9308152157520455e-01 +8.1235693448376249e+00 -7.1082597848532281e-01 +3.5902200288544042e+00 +2.4398745951537994e+03 -2.8130152963435155e+05 -5.5390080236302484e+06 
+7.9999999999999902e+00 -5.9308207803502722e-01 +8.1235857435257017e+00 -7.0632572168669905e-01 +2.5425743132859142e+00 +2.3794548173528556e+03 -2.7394040813148842e+05 -5.4004179260677854e+06 
+8.0999999999999908e+00 -5.9308263741488354e-01 +8.1236057816454039e+00 -7.0295064070745583e-01 +1.4003532270802694e+00 +2.3395111762102852e+03 -2.6606230867300963e+05 -5.3530763526037140e+06 
+8.1999999999999904e+00 -5.9308319944132348e-01 +8.1236291980064408e+00 -7.0066622374533283e-01 +1.7505213947958201e-01 +2.3192301976848912e+03 -2.5774010238423859e+05 -5.3925680004056888e+06 
+8.2999999999999901e+00 -5.9308376382494643e-01 +8.1236556276999252e+00 -6.9941511708256932e-01 -1.1191799122866726e+00 +2.3173769641252657e+03 -2.4906084312891995e+05 -5.5125939032671330e+06 
+8.3999999999999897e+00 -5.9308433027625063e-01 +8.1236847058167783e+00 -6.9913998570071068e-01 -2.4681938243476189e+00 +2.3327169018828099e+03 -2.4011158560060026e+05 -5.7068566175344465e+06 
+8.4999999999999893e+00 -5.9308489850566704e-01 +8.1237160674549376e+00 -6.9978350992056204e-01 -3.8578406322892054e+00 +2.3640157219755979e+03 -2.3097938412421040e+05 -5.9690599484458994e+06 
+8.5999999999999908e+00 -5.9308546822343489e-01 +8.1237493477050968e+00 -7.0128838940775373e-01 -5.2739710700798099e+00 +2.4100394912878487e+03 -2.2175129531397735e+05 -6.2929092743722033e+06 
+8.6999999999999904e+00 -5.9308603913973301e-01 +8.1237841816661476e+00 -7.0359733802274338e-01 -6.7024360548673050e+00 +2.4695545348514338e+03 -2.1251437514750118e+05 -6.6721110778034460e+06 
+8.7999999999999794e+00 -5.9308661096459303e-01 +8.1238202044356171e+00 -7.0665309178456492e-01 -8.1290863699334732e+00 +2.5413275923446849e+03 -2.0335568093658923e+05 -7.1003737025673408e+06 
+8.8999999999999808e+00 -5.9308718340796629e-01 +8.1238570511132924e+00 -7.1039840327860426e-01 -9.5397727906851983e+00 +2.6241257043218757e+03 -1.9436227052921653e+05 -7.5714067887205360e+06 
+8.9999999999999805e+00 -5.9308775617959286e-01 +8.1238943568018911e+00 -7.1477604747704593e-01 -1.0920346100663505e+01 +2.7167163261383939e+03 -1.8562120224997139e+05 -8.0789218224422308e+06 
+9.0999999999999801e+00 -5.9308832898913921e-01 +8.1239317566013867e+00 -7.1972881560468205e-01 -1.2256656900652075e+01 +2.8178672099024834e+03 -1.7721953608086592e+05 -8.6166315661340114e+06 
+9.1999999999999797e+00 -5.9308890154610938e-01 +8.1239688856122463e+00 -7.2519952280867761e-01 -1.3534555733090031e+01 +2.9263465506632374e+03 -1.6924433285486687e+05 -9.1782507532002013e+06 
+9.2999999999999794e+00 -5.9308947355990127e-01 +8.1240053789431137e+00 -7.3113100470982051e-01 -1.4739893289594013e+01 +3.0409229201278790e+03 -1.6178265310710194e+05 -9.7574957680573408e+06 
+9.3999999999999808e+00 -5.9309004473971561e-01 +8.1240408716952430e+00 -7.3746611755915648e-01 -1.5858519936257650e+01 +3.1603652675741455e+03 -1.5492155990295619e+05 -1.0348084642360669e+07 
+9.4999999999999805e+00 -5.9309061479462866e-01 +8.1240749989779779e+00 -7.4414774111283188e-01 -1.6876286194129243e+01 +3.2834429789149008e+03 -1.4874811596431915e+05 -1.0943737345089793e+07 
+9.5999999999999801e+00 -5.9309118343356226e-01 +8.1241073958967220e+00 -7.5111877756175105e-01 -1.7779042373860509e+01 +3.4089258484643474e+03 -1.4334938584196070e+05 -1.1538175624282951e+07 
+9.6999999999999797e+00 -5.9309175036533390e-01 +8.1241376975596626e+00 -7.5832215039201867e-01 -1.8552638756111964e+01 +3.5355840655687134e+03 -1.3881243491913233e+05 -1.2125122963240987e+07 
+9.7999999999999794e+00 -5.9309231529848205e-01 +8.1241655390727541e+00 -7.6570081358527142e-01 -1.9182925459483403e+01 +3.6621883795499525e+03 -1.3522433014691557e+05 -1.2698305336724484e+07 
+9.8999999999999808e+00 -5.9309287794150178e-01 +8.1241905555502871e+00 -7.7319773528154989e-01 -1.9655752746429947e+01 +3.7875097991466414e+03 -1.3267213827494701e+05 -1.3251449803156415e+07 
+9.9999999999999805e+00 -5.9309343800266989e-01 +8.1242123820984062e+00 -7.8075591774961872e-01 -1.9956970587817729e+01 +3.9103199518691699e+03 -1.3124292855408340e+05 -1.3778286177012322e+07 
+1.0100000000000000e+01 -5.9309399521328143e-01 +8.1242307421075868e+00 -7.8832758049137863e-01 -2.0076862492003702e+01 +4.0296208472976764e+03 -1.3099560597531740e+05 -1.4273859871681390e+07 
