# multipoles
# s[mm] polynom_b[n=0][T/m^n] polynom_b[n=1][T/m^n] polynom_b[n=2][T/m^n] polynom_b[n=3][T/m^n] polynom_b[n=4][T/m^n] polynom_b[n=5][T/m^n] polynom_b[n=6][T/m^n] 
+0.0000000000000000e+00 -5.3872597105841225e-01 +7.3605280161551461e+00 -5.1324584064414902e-01 -1.9030978591745498e+01 +3.9710099039038987e+03 -1.5155346916237107e+05 -2.0825574341889761e+07 
+1.0000000000000001e-01 -5.3872591463933361e-01 +7.3604957615883340e+00 -5.1582188621609448e-01 -1.8440162220373512e+01 +4.0351922443232447e+03 -1.5424752860859412e+05 -2.1155383439862683e+07 
+2.0000000000000001e-01 -5.3872587458141497e-01 +7.3604646221775418e+00 -5.1765578661114886e-01 -1.7877704574698875e+01 +4.0896583377874763e+03 -1.5681961912917549e+05 -2.1449074980490617e+07 
+3.0000000000000004e-01 -5.3872585013655239e-01 +7.3604348099783392e+00 -5.1876973510627267e-01 -1.7348078144659002e+01 +4.1344139333651128e+03 -1.5924685612818494e+05 -2.1705903863151986e+07 
+4.0000000000000002e-01 -5.3872584055660666e-01 +7.3604065370516256e+00 -5.1918592844377620e-01 -1.6855755588819232e+01 +4.1694648426429940e+03 -1.6150635397565726e+05 -2.1925125276790075e+07 
+5.0000000000000000e-01 -5.3872584509346277e-01 +7.3603800154553634e+00 -5.1892656195376829e-01 -1.6405209494956079e+01 +4.1948168612736836e+03 -1.6357522740557930e+05 -2.2105994362060733e+07 
+5.9999999999999998e-01 -5.3872586299903213e-01 +7.3603554572382848e+00 -5.1801382733647827e-01 -1.6000912188589865e+01 +4.2104757177976262e+03 -1.6543059264404874e+05 -2.2247765947582051e+07 
+6.9999999999999996e-01 -5.3872589352520195e-01 +7.3603330744512547e+00 -5.1646991974311185e-01 -1.5647336048789080e+01 +4.2164472086972319e+03 -1.6704956562341901e+05 -2.2349695190152526e+07 
+7.9999999999999993e-01 -5.3872593592390683e-01 +7.3603130791430731e+00 -5.1431702890070952e-01 -1.5348953386956063e+01 +4.2127370357244708e+03 -1.6840926268354652e+05 -2.2411036821227059e+07 
+8.9999999999999991e-01 -5.3872598944706929e-01 +7.3602956833574646e+00 -5.1157734680701017e-01 -1.5110236356914323e+01 +4.1993509489016233e+03 -1.6948680111272415e+05 -2.2431045814966824e+07 
+9.9999999999999989e-01 -5.3872605334664780e-01 +7.3602810991392493e+00 -5.0827306127575744e-01 -1.4935657119468713e+01 +4.1762946247744867e+03 -1.7025929821884696e+05 -2.2408976814871088e+07 
+1.0999999999999999e+00 -5.3872612687459909e-01 +7.3602695385298151e+00 -5.0442636097715221e-01 -1.4829687716120819e+01 +4.1435737609053876e+03 -1.7070387206831848e+05 -2.2344084577706765e+07 
+1.2000000000000000e+00 -5.3872620928291048e-01 +7.3602612135710279e+00 -5.0005943185450275e-01 -1.4796800160387852e+01 +4.1011940149583352e+03 -1.7079764100809069e+05 -2.2235623705287378e+07 
+1.3000000000000000e+00 -5.3872629982359266e-01 +7.3602563363065094e+00 -4.9519445700514125e-01 -1.4841466489139700e+01 +4.0491609925350458e+03 -1.7051772333448945e+05 -2.2082848559060324e+07 
+1.4000000000000001e+00 -5.3872639774866427e-01 +7.3602551187745107e+00 -4.8985361965450341e-01 -1.4968158528792140e+01 +3.9874803121462901e+03 -1.6984123873289867e+05 -2.1885013592206050e+07 
+1.5000000000000002e+00 -5.3872650231018449e-01 +7.3602577730169045e+00 -4.8405909924010376e-01 -1.5181348169229249e+01 +3.9161575314692959e+03 -1.6874530664704452e+05 -2.1641373001403783e+07 
+1.6000000000000003e+00 -5.3872661276022682e-01 +7.3602645110761085e+00 -4.7783307332968034e-01 -1.5485507254723821e+01 +3.8351981748953954e+03 -1.6720704697439444e+05 -2.1351180833528969e+07 
+1.7000000000000004e+00 -5.3872672835088109e-01 +7.3602755449967878e+00 -4.7119771953025619e-01 -1.5885107634834460e+01 +3.7446077857139103e+03 -1.6520357976625604e+05 -2.1013691279013637e+07 
+1.8000000000000005e+00 -5.3872684833429352e-01 +7.3602910868180134e+00 -4.6417520849872990e-01 -1.6384620927538950e+01 +3.6443917765792885e+03 -1.6271202663306316e+05 -2.0628157911715191e+07 
+1.9000000000000006e+00 -5.3872697196261310e-01 +7.3603113485896232e+00 -4.5678771215491393e-01 -1.6988518989909984e+01 +3.5345556002964818e+03 -1.5970950802757608e+05 -2.0193834545636375e+07 
+2.0000000000000004e+00 -5.3872709848804001e-01 +7.3603365423573539e+00 -4.4905739683685630e-01 -1.7701273481612162e+01 +3.4151046110702673e+03 -1.5617314579188736e+05 -1.9709974548697010e+07 
+2.1000000000000005e+00 -5.3872722722187549e-01 +7.3603667547656189e+00 -4.4101326114863376e-01 -1.8524840074840284e+01 +3.2863011766361378e+03 -1.5209234078344289e+05 -1.9177267863704931e+07 
+2.2000000000000006e+00 -5.3872735770759383e-01 +7.3604015767521389e+00 -4.3271053331147352e-01 -1.9451330638362233e+01 +3.1494139118309599e+03 -1.4750443917805541e+05 -1.8602045189760476e+07 
+2.3000000000000007e+00 -5.3872748954561578e-01 +7.3604404767769900e+00 -4.2421073531867060e-01 -2.0470450627001071e+01 +3.0059578600433124e+03 -1.4245848379135400e+05 -1.7992022690960873e+07 
+2.4000000000000008e+00 -5.3872762233632510e-01 +7.3604829233045042e+00 -4.1557539250575581e-01 -2.1571905650798779e+01 +2.8574481198891799e+03 -1.3700351641533672e+05 -1.7354916773175508e+07 
+2.5000000000000009e+00 -5.3872775568010767e-01 +7.3605283847952911e+00 -4.0686602926345777e-01 -2.2745401261025410e+01 +2.7053997702131301e+03 -1.3118857899106387e+05 -1.6698443745672928e+07 
+2.6000000000000010e+00 -5.3872788917733716e-01 +7.3605763297179108e+00 -3.9814417039214239e-01 -2.3980643283800294e+01 +2.5513278882276672e+03 -1.2506271169348049e+05 -1.6030319884312965e+07 
+2.7000000000000011e+00 -5.3872802242832896e-01 +7.3606262265379909e+00 -3.8947134597024574e-01 -2.5267337518248532e+01 +2.3967476401566737e+03 -1.1867495462830266e+05 -1.5358261861233639e+07 
+2.8000000000000012e+00 -5.3872815503340177e-01 +7.3606775437257967e+00 -3.8090908507107918e-01 -2.6595189966397623e+01 +2.2431741702110849e+03 -1.1207434647274144e+05 -1.4689986236809019e+07 
+2.9000000000000012e+00 -5.3872828659282346e-01 +7.3607297497530579e+00 -3.7251892067718506e-01 -2.7953906749175804e+01 +2.0921226789183338e+03 -1.0530992492653252e+05 -1.4033209791239504e+07 
+3.0000000000000013e+00 -5.3872841670682114e-01 +7.3607823130914065e+00 -3.6436238928444176e-01 -2.9333194062665900e+01 +1.9451084245645877e+03 -9.8430726960491520e+04 -1.3395649557825670e+07 
+3.1000000000000014e+00 -5.3872854497560430e-01 +7.3608347022219993e+00 -3.5650102759022129e-01 -3.0722758469446127e+01 +1.8036466548433359e+03 -9.1485787093853825e+04 -1.2785022481000876e+07 
+3.2000000000000015e+00 -5.3872867099932165e-01 +7.3608863856196587e+00 -3.4899637766711644e-01 -3.2112306448074158e+01 +1.6692527048113052e+03 -8.4524139958527740e+04 -1.2209045881855985e+07 
+3.3000000000000016e+00 -5.3872879437807175e-01 +7.3609368317699282e+00 -3.4190998536550304e-01 -3.3491544892734204e+01 +1.5434419650177281e+03 -7.7594817399045336e+04 -1.1675437303544804e+07 
+3.4000000000000017e+00 -5.3872891471190620e-01 +7.3609855091547720e+00 -3.3530340011198922e-01 -3.4850180704348482e+01 +1.4277298758842346e+03 -7.0746850812243021e+04 -1.1191914476797167e+07 
+3.5000000000000018e+00 -5.3872903160082763e-01 +7.3610318862643505e+00 -3.2923817447653275e-01 -3.6177921148108858e+01 +1.3236319189519427e+03 -6.4029269023933550e+04 -1.0766195280543793e+07 
+3.6000000000000019e+00 -5.3872914464477450e-01 +7.3610754315890867e+00 -3.2377586642971962e-01 -3.7464473626201894e+01 +1.2326636589578623e+03 -5.7491099602078277e+04 -1.0405997936993942e+07 
+3.7000000000000020e+00 -5.3872925344363265e-01 +7.3611156136244285e+00 -3.1897803752363768e-01 -3.8699545816356377e+01 +1.1563407081080261e+03 -5.1181368034979168e+04 -1.0119040839513147e+07 
+3.8000000000000020e+00 -5.3872935759720419e-01 +7.3611519008682489e+00 -3.1490625632258584e-01 -3.9872845618327624e+01 +1.0961787871031347e+03 -4.5149097981921666e+04 -9.9130428314494770e+06 
+3.9000000000000021e+00 -5.3872945670524164e-01 +7.3611837618229394e+00 -3.1162209423540499e-01 -4.0974081219462974e+01 +1.0536936467484620e+03 -3.9443310876301992e+04 -9.7957228357665837e+06 
+4.0000000000000018e+00 -5.3872955036741010e-01 +7.3612106649947444e+00 -3.0918713023247313e-01 -4.1992961066860225e+01 +1.0304011574088131e+03 -3.4113026099371185e+04 -9.7748002790072002e+06 
+4.1000000000000014e+00 -5.3872963834218135e-01 +7.3612322187178325e+00 -3.0764589311819673e-01 -4.2921464725599520e+01 +1.0273648597716558e+03 -2.9196958708663162e+04 -9.8555712091450281e+06 
+4.2000000000000011e+00 -5.3872972102875327e-01 +7.3612485777365615e+00 -3.0697770215601300e-01 -4.3760060011522135e+01 +1.0438832436841092e+03 -2.4696062224668942e+04 -1.0033830285458045e+07 
+4.3000000000000007e+00 -5.3872979898784268e-01 +7.3612600302569504e+00 -3.0714630392942488e-01 -4.4511187610355194e+01 +1.0788236499973918e+03 -2.0602712388328291e+04 -1.0303039240735255e+07 
+4.4000000000000004e+00 -5.3872987278017026e-01 +7.3612668644996395e+00 -3.0811544670537017e-01 -4.5177288559166691e+01 +1.1310534560592446e+03 -1.6909283265334972e+04 -1.0656659985537328e+07 
+4.5000000000000000e+00 -5.3872994296645427e-01 +7.3612693686853232e+00 -3.0984888063521066e-01 -4.5760803821206018e+01 +1.1994400773983946e+03 -1.3608149766671322e+04 -1.1088154611530852e+07 
+4.5999999999999996e+00 -5.3873001010745802e-01 +7.3612678310434188e+00 -3.1231035206349034e-01 -4.6264174541019699e+01 +1.2828508583662895e+03 -1.0691686161696736e+04 -1.1590984863280479e+07 
+4.6999999999999993e+00 -5.3873007476391077e-01 +7.3612625398094655e+00 -3.1546361422097058e-01 -4.6689841956041811e+01 +1.3801532826428474e+03 -8.1522666480960843e+03 -1.2158613162453568e+07 
+4.7999999999999989e+00 -5.3873013749660181e-01 +7.3612537832248108e+00 -3.1927241491231079e-01 -4.7040247376354536e+01 +1.4902147332612194e+03 -5.9822655086173909e+03 -1.2784501447344474e+07 
+4.8999999999999986e+00 -5.3873019886629225e-01 +7.3612418495388949e+00 -3.2370050793694022e-01 -4.7317832251208287e+01 +1.6119027126900592e+03 -4.1740567428354425e+03 -1.3462112228581058e+07 
+4.9999999999999982e+00 -5.3873025943380182e-01 +7.3612270270085221e+00 -3.2871164265616543e-01 -4.7525038141385515e+01 +1.7440846462301383e+03 -2.7200142550101832e+03 -1.4184907657048495e+07 
+5.0999999999999979e+00 -5.3873031975994401e-01 +7.3612096038946682e+00 -3.3426957177911232e-01 -4.7664306620581826e+01 +1.8856280277282651e+03 -1.6125124573943863e+03 -1.4946350211019754e+07 
+5.1999999999999975e+00 -5.3873038040555377e-01 +7.3611898684702775e+00 -3.4033804867722844e-01 -4.7738079484647294e+01 +2.0354003732144843e+03 -8.4392511842110434e+02 -1.5739902487356424e+07 
+5.2999999999999972e+00 -5.3873044193149822e-01 +7.3611681090150958e+00 -3.4688082548368165e-01 -4.7748798614244201e+01 +2.1922691801023443e+03 -4.0662613799939902e+02 -1.6559026994072240e+07 
+5.3999999999999968e+00 -5.3873050489867846e-01 +7.3611446138120327e+00 -3.5386165355328125e-01 -4.7698905845159842e+01 +2.3551019403065279e+03 -2.9299037752003807e+02 -1.7397186224597767e+07 
+5.4999999999999964e+00 -5.3873056986799484e-01 +7.3611196711573683e+00 -3.6124428809434134e-01 -4.7590843266828564e+01 +2.5227662301560945e+03 -4.9539193810477025e+02 -1.8247843089999568e+07 
+5.5999999999999961e+00 -5.3873063740039162e-01 +7.3610935693539918e+00 -3.6899248190802852e-01 -4.7427053018421041e+01 +2.6941295842025047e+03 -1.0062053769990749e+03 -1.9104460297092784e+07 
+5.6999999999999957e+00 -5.3873070805683976e-01 +7.3610665967180422e+00 -3.7706998871678837e-01 -4.7209977475913902e+01 +2.8680595689772194e+03 -1.8178046521872427e+03 -1.9960500729621887e+07 
+5.7999999999999954e+00 -5.3873078239834671e-01 +7.3610390415647489e+00 -3.8544056190201725e-01 -4.6942058833695555e+01 +3.0434237559481389e+03 -2.9225655827978330e+03 -2.0809427308910277e+07 
+5.8999999999999950e+00 -5.3873086098593859e-01 +7.3610111922256358e+00 -3.9406795572356790e-01 -4.6625739593936522e+01 +3.2190897384725931e+03 -4.3128630522127050e+03 -2.1644703058420721e+07 
+5.9999999999999947e+00 -5.3873094438069558e-01 +7.3609833370402704e+00 -4.0291592300171553e-01 -4.6263462317709141e+01 +3.3939251013948428e+03 -5.9810725328789085e+03 -2.2459790998314932e+07 
+6.0999999999999943e+00 -5.3873103305550063e-01 +7.3609557447883374e+00 -4.1194821190822861e-01 -4.5858087737824647e+01 +3.5669150710840941e+03 -7.9168466862081905e+03 -2.3249110372654598e+07 
+6.1999999999999940e+00 -5.3873112713826232e-01 +7.3609286127350018e+00 -4.2112667059123154e-01 -4.5414786821270489e+01 +3.7375131511859540e+03 -1.0094386752248996e+04 -2.4010928128548458e+07 
+6.2999999999999936e+00 -5.3873122667289219e-01 +7.3609021220046369e+00 -4.3041218018462041e-01 -4.4939474002406421e+01 +3.9052901935807768e+03 -1.2482866188486145e+04 -2.4744486536285438e+07 
+6.3999999999999932e+00 -5.3873133170331211e-01 +7.3608764537037841e+00 -4.3976562118990492e-01 -4.4438063201142207e+01 +4.0698170541363957e+03 -1.5051461253727046e+04 -2.5449027927153092e+07 
+6.4999999999999929e+00 -5.3873144227349423e-01 +7.3608517889250287e+00 -4.4914786858566114e-01 -4.3916467918019613e+01 +4.2306644962773607e+03 -1.7769350428378668e+04 -2.6123794228088737e+07 
+6.5999999999999925e+00 -5.3873155842744569e-01 +7.3608283087475357e+00 -4.5851979421749972e-01 -4.3380601233268607e+01 +4.3874032396289804e+03 -2.0605714451427288e+04 -2.6768027200906061e+07 
+6.6999999999999922e+00 -5.3873168020924855e-01 +7.3608061942345229e+00 -4.6784226058236278e-01 -4.2836375750341936e+01 +4.5396038368968284e+03 -2.3529736584746432e+04 -2.7380967846079286e+07 
+6.7999999999999918e+00 -5.3873180766296913e-01 +7.3607856264280462e+00 -4.7707613307937163e-01 -4.2289703442087841e+01 +4.6868369107694471e+03 -2.6510603505923136e+04 -2.7961857539456300e+07 
+6.8999999999999915e+00 -5.3873194083278231e-01 +7.3607667863625581e+00 -4.8618226417415350e-01 -4.1746496026461756e+01 +4.8286728524826049e+03 -2.9517503156692997e+04 -2.8509936596848130e+07 
+6.9999999999999911e+00 -5.3873207976286897e-01 +7.3607498550442898e+00 -4.9512150641347502e-01 -4.1212664396344024e+01 +4.9646820701323168e+03 -3.2519627964616015e+04 -2.9024445458258726e+07 
+7.0999999999999908e+00 -5.3873222449748281e-01 +7.3607350134695020e+00 -5.0385470374104702e-01 -4.0694119131359166e+01 +5.0944348239832971e+03 -3.5486171910467383e+04 -2.9504623906856123e+07 
+7.1999999999999904e+00 -5.3873237508089733e-01 +7.3607224426094433e+00 -5.1234269840485547e-01 -4.0196770064032982e+01 +5.2175013578216121e+03 -3.8386333018841993e+04 -2.9949711692992415e+07 
+7.2999999999999901e+00 -5.3873253155748446e-01 +7.3607123234167444e+00 -5.2054632084088337e-01 -3.9726526469763243e+01 +5.3334517066670196e+03 -4.1189312233782788e+04 -3.0358947620368544e+07 
+7.3999999999999897e+00 -5.3873269397162837e-01 +7.3607048368244747e+00 -5.2842640094841842e-01 -3.9289297036692119e+01 +5.4418559134329398e+03 -4.3864313592096922e+04 -3.0731570582230721e+07 
+7.4999999999999893e+00 -5.3873286236778806e-01 +7.3607001637444309e+00 -5.3594375963647645e-01 -3.8890989819713631e+01 +5.5422838671974114e+03 -4.6380544461179656e+04 -3.1066818791588694e+07 
+7.5999999999999890e+00 -5.3873303679048201e-01 +7.3606984850645212e+00 -5.4305921126891532e-01 -3.8537512157266953e+01 +5.6343053510899390e+03 -4.8707216027064504e+04 -3.1363930010917664e+07 
+7.6999999999999886e+00 -5.3873321728425883e-01 +7.3606999816532701e+00 -5.4973356682701202e-01 -3.8234770804065448e+01 +5.7174901003062132e+03 -5.0813542512166765e+04 -3.1622141823356688e+07 
+7.7999999999999883e+00 -5.3873340389377145e-01 +7.3607048343522008e+00 -5.5592762541638518e-01 -3.7988671723250754e+01 +5.7914076473524210e+03 -5.2668742324453779e+04 -3.1840690915677577e+07 
+7.8999999999999879e+00 -5.3873359666370080e-01 +7.3607132239804347e+00 -5.6160218252168759e-01 -3.7805120205208574e+01 +5.8556274696664586e+03 -5.4242037403065449e+04 -3.2018813754495874e+07 
+7.9999999999999876e+00 -5.3873379563880130e-01 +7.3607253313324268e+00 -5.6671802605264876e-01 -3.7690020829555401e+01 +5.9097189243373587e+03 -5.5502653286940884e+04 -3.2155746296339050e+07 
+8.0999999999999872e+00 -5.3873400089477907e-01 +7.3607412332951379e+00 -5.7124474489931909e-01 -3.7647176984846702e+01 +5.9533835169101712e+03 -5.6429691952243513e+04 -3.2251105378225379e+07 
+8.1999999999999869e+00 -5.3873421261193022e-01 +7.3607605977459505e+00 -5.7518425228367764e-01 -3.7671834384228333e+01 +5.9867910982120038e+03 -5.7044017727587052e+04 -3.2305750773961626e+07 
+8.2999999999999865e+00 -5.3873443099134777e-01 +7.3607829916071008e+00 -5.7854591545100742e-01 -3.7757053848374809e+01 +6.0102144637542378e+03 -5.7377535410961740e+04 -3.2320782433007248e+07 
+8.3999999999999861e+00 -5.3873465623409078e-01 +7.3608079818131831e+00 -5.8133910082317264e-01 -3.7895896648334805e+01 +6.0239263664195159e+03 -5.7462147119374124e+04 -3.2297300032272626e+07 
+8.4999999999999858e+00 -5.3873488854111129e-01 +7.3608351352983599e+00 -5.8357318345790088e-01 -3.8081424147628930e+01 +6.0281997003742599e+03 -5.7329754261873539e+04 -3.2236403869298171e+07 
+8.5999999999999854e+00 -5.3873512811325175e-01 +7.3608640189918662e+00 -5.8525754720632472e-01 -3.8306697680952098e+01 +6.0233075033003315e+03 -5.7012258228592989e+04 -3.2139194870395761e+07 
+8.6999999999999851e+00 -5.3873537515129588e-01 +7.3608941998354638e+00 -5.8640157776787205e-01 -3.8564779061197818e+01 +6.0095228222079568e+03 -5.6541557456519411e+04 -3.2006773948376745e+07 
+8.7999999999999847e+00 -5.3873562985591283e-01 +7.3609252447643980e+00 -5.8701466995575924e-01 -3.8848730032100569e+01 +5.9871188513203624e+03 -5.5949550586798236e+04 -3.1840242657282740e+07 
+8.8999999999999844e+00 -5.3873589242766928e-01 +7.3609567207213464e+00 -5.8710622600086648e-01 -3.9151612679685698e+01 +5.9563689003617656e+03 -5.5268134069780426e+04 -3.1640703042860597e+07 
+8.9999999999999840e+00 -5.3873616306704375e-01 +7.3609881946524762e+00 -5.8668565301718523e-01 -3.9466489315440441e+01 +5.9175463416818102e+03 -5.4529202856074669e+04 -3.1409257379816849e+07 
+9.0999999999999837e+00 -5.3873644197440584e-01 +7.3610192335017155e+00 -5.8576236612951871e-01 -3.9786422314646046e+01 +5.8709246726699112e+03 -5.3764651318950884e+04 -3.1147008476709995e+07 
+9.1999999999999833e+00 -5.3873672935001971e-01 +7.3610494042204948e+00 -5.8434578779561230e-01 -4.0104474412286855e+01 +5.8167775019297442e+03 -5.3006371516137173e+04 -3.0855059606897213e+07 
+9.2999999999999829e+00 -5.3873702539402291e-01 +7.3610782737616391e+00 -5.8244534988706942e-01 -4.0413708517788116e+01 +5.7553785858252631e+03 -5.2286254287203737e+04 -3.0534514676589943e+07 
+9.3999999999999826e+00 -5.3873733030647408e-01 +7.3611054090830725e+00 -5.8007048791012805e-01 -4.0707187824771573e+01 +5.6870017193885169e+03 -5.1636188609678087e+04 -3.0186477706669562e+07 
+9.4999999999999822e+00 -5.3873764428727244e-01 +7.3611303771429437e+00 -5.7723065061195111e-01 -4.0977975696479525e+01 +5.6119209164628573e+03 -5.1088062205445116e+04 -2.9812053684615020e+07 
+9.5999999999999819e+00 -5.3873796753625514e-01 +7.3611527449052545e+00 -5.7393528816694073e-01 -4.1219135803125134e+01 +5.5304101869996530e+03 -5.0673760814663372e+04 -2.9412347508462042e+07 
+9.6999999999999815e+00 -5.3873830025306013e-01 +7.3611720793392781e+00 -5.7019386877236244e-01 -4.1423732121420933e+01 +5.4427438505211958e+03 -5.0425168158370470e+04 -2.8988465475505851e+07 
+9.7999999999999812e+00 -5.3873864263728444e-01 +7.3611879474150772e+00 -5.6601585830821288e-01 -4.1584828819319000e+01 +5.3491961450646359e+03 -5.0374166572339695e+04 -2.8541513408937510e+07 
+9.8999999999999808e+00 -5.3873899488832777e-01 +7.3611999161087898e+00 -5.6141074086857246e-01 -4.1695490383138697e+01 +5.2500416244089620e+03 -5.0552636344099024e+04 -2.8072598566691119e+07 
+9.9999999999999805e+00 -5.3873935720551025e-01 +7.3612075524014049e+00 -5.5638800243389330e-01 -4.1748781602890617e+01 +5.1455548410709198e+03 -5.0992455648923489e+04 -2.7582828109977812e+07 
+1.0099999999999980e+01 -5.3873972966876249e-01 +7.3612105635597134e+00 -5.5096133324512553e-01 -4.1740137325965549e+01 +5.0360544380388392e+03 -5.1714126524884341e+04 -2.7073516691675432e+07 
