# trajectory
# s[mm] rx[mm] ry[mm] rz[mm] px[rad] py[rad] pz[rad]
0.0000000000000000e+00 +7.9199999999999999e+00 +0.0000000000000000e+00 +0.0000000000000000e+00 +0.0000000000000000e+00 +0.0000000000000000e+00 +1.0000000000000000e+00
1.0000000000000001e-01 +7.9199997168559593e+00 +0.0000000000000000e+00 +9.9999999999465516e-02 -5.6628806497576371e-06 +0.0000000000000000e+00 +9.9999999998396594e-01
2.0000000000000001e-01 +7.9199988674238995e+00 +0.0000000000000000e+00 +1.9999999999572421e-01 -1.1325760419031204e-05 +0.0000000000000000e+00 +9.9999999993586364e-01
3.0000000000000004e-01 +7.9199974517038987e+00 +0.0000000000000000e+00 +2.9999999998556925e-01 -1.6988639496964600e-05 +0.0000000000000000e+00 +9.9999999985569310e-01
4.0000000000000002e-01 +7.9199954696960173e+00 +0.0000000000000000e+00 +3.9999999996579383e-01 -2.2651518066365093e-05 +0.0000000000000000e+00 +9.9999999974345444e-01
5.0000000000000000e-01 +7.9199929214002971e+00 +0.0000000000000000e+00 +4.9999999993319116e-01 -2.8314396303703403e-05 +0.0000000000000000e+00 +9.9999999959914754e-01
5.9999999999999998e-01 +7.9199898068167620e+00 +0.0000000000000000e+00 +5.9999999988455444e-01 -3.3977274379113780e-05 +0.0000000000000000e+00 +9.9999999942277251e-01
6.9999999999999996e-01 +7.9199861259454210e+00 +0.0000000000000000e+00 +6.9999999981667671e-01 -3.9640152456394107e-05 +0.0000000000000000e+00 +9.9999999921432925e-01
7.9999999999999993e-01 +7.9199818787862650e+00 +0.0000000000000000e+00 +7.9999999972635127e-01 -4.5303030693006022e-05 +0.0000000000000000e+00 +9.9999999897381775e-01
8.9999999999999991e-01 +7.9199770653392711e+00 +0.0000000000000000e+00 +8.9999999961037136e-01 -5.0965909240075054e-05 +0.0000000000000000e+00 +9.9999999870123812e-01
9.9999999999999989e-01 +7.9199716856044011e+00 +0.0000000000000000e+00 +9.9999999946552998e-01 -5.6628788242390766e-05 +0.0000000000000000e+00 +9.9999999839659026e-01
1.0999999999999999e+00 +7.9199657395816025e+00 +0.0000000000000000e+00 +1.0999999992886205e+00 -6.2291667838406921e-05 +0.0000000000000000e+00 +9.9999999805987416e-01
1.2000000000000000e+00 +7.9199592272708088e+00 +0.0000000000000000e+00 +1.1999999990764358e+00 -6.7954548160241679e-05 +0.0000000000000000e+00 +9.9999999769108983e-01
1.3000000000000000e+00 +7.9199521486719417e+00 +0.0000000000000000e+00 +1.2999999988257693e+00 -7.3617429333677751e-05 +0.0000000000000000e+00 +9.9999999729023714e-01
1.4000000000000001e+00 +7.9199445037849099e+00 +0.0000000000000000e+00 +1.3999999985334142e+00 -7.9280311478162652e-05 +0.0000000000000000e+00 +9.9999999685731622e-01
1.5000000000000002e+00 +7.9199362926096102e+00 +0.0000000000000000e+00 +1.4999999981961636e+00 -8.4943194706808920e-05 +0.0000000000000000e+00 +9.9999999639232695e-01
1.6000000000000003e+00 +7.9199275151459290e+00 +0.0000000000000000e+00 +1.5999999978108106e+00 -9.0606079126394340e-05 +0.0000000000000000e+00 +9.9999999589526933e-01
1.7000000000000004e+00 +7.9199181713937419e+00 +0.0000000000000000e+00 +1.6999999973741484e+00 -9.6268964837362221e-05 +0.0000000000000000e+00 +9.9999999536614337e-01
1.8000000000000005e+00 +7.9199082613529148e+00 +0.0000000000000000e+00 +1.7999999968829703e+00 -1.0193185193382165e-04 +0.0000000000000000e+00 +9.9999999480494894e-01
1.9000000000000006e+00 +7.9198977850233057e+00 +0.0000000000000000e+00 +1.8999999963340692e+00 -1.0759474050354780e-04 +0.0000000000000000e+00 +9.9999999421168606e-01
2.0000000000000004e+00 +7.9198867424047625e+00 +0.0000000000000000e+00 +1.9999999957242385e+00 -1.1325763062798221e-04 +0.0000000000000000e+00 +9.9999999358635472e-01
2.1000000000000005e+00 +7.9198751334971256e+00 +0.0000000000000000e+00 +2.0999999950502710e+00 -1.1892052238198453e-04 +0.0000000000000000e+00 +9.9999999292895481e-01
2.2000000000000006e+00 +7.9198629583002296e+00 +0.0000000000000000e+00 +2.1999999943089601e+00 -1.2458341583109828e-04 +0.0000000000000000e+00 +9.9999999223948632e-01
2.3000000000000007e+00 +7.9198502168139013e+00 +0.0000000000000000e+00 +2.2999999934970989e+00 -1.3024631102881640e-04 +0.0000000000000000e+00 +9.9999999151794927e-01
2.4000000000000008e+00 +7.9198369090379641e+00 +0.0000000000000000e+00 +2.3999999926114808e+00 -1.3590920801633251e-04 +0.0000000000000000e+00 +9.9999999076434365e-01
2.5000000000000009e+00 +7.9198230349722376e+00 +0.0000000000000000e+00 +2.4999999916488989e+00 -1.4157210682254077e-04 +0.0000000000000000e+00 +9.9999998997866935e-01
2.6000000000000010e+00 +7.9198085946165389e+00 +0.0000000000000000e+00 +2.5999999906061459e+00 -1.4723500746403569e-04 +0.0000000000000000e+00 +9.9999998916092636e-01
2.7000000000000011e+00 +7.9197935879706840e+00 +0.0000000000000000e+00 +2.6999999894800153e+00 -1.5289790994511192e-04 +0.0000000000000000e+00 +9.9999998831111458e-01
2.8000000000000012e+00 +7.9197780150344892e+00 +0.0000000000000000e+00 +2.7999999882673001e+00 -1.5856081425776400e-04 +0.0000000000000000e+00 +9.9999998742923413e-01
2.9000000000000012e+00 +7.9197618758077724e+00 +0.0000000000000000e+00 +2.8999999869647932e+00 -1.6422372038168601e-04 +0.0000000000000000e+00 +9.9999998651528488e-01
3.0000000000000013e+00 +7.9197451702903541e+00 +0.0000000000000000e+00 +2.9999999855692883e+00 -1.6988662828427129e-04 +0.0000000000000000e+00 +9.9999998556926684e-01
3.1000000000000014e+00 +7.9197278984820585e+00 +0.0000000000000000e+00 +3.0999999840775780e+00 -1.7554953792061208e-04 +0.0000000000000000e+00 +9.9999998459117989e-01
3.2000000000000015e+00 +7.9197100603827142e+00 +0.0000000000000000e+00 +3.1999999824864553e+00 -1.8121244923349905e-04 +0.0000000000000000e+00 +9.9999998358102415e-01
3.3000000000000016e+00 +7.9196916559921577e+00 +0.0000000000000000e+00 +3.2999999807927138e+00 -1.8687536215342092e-04 +0.0000000000000000e+00 +9.9999998253879951e-01
3.4000000000000017e+00 +7.9196726853102328e+00 +0.0000000000000000e+00 +3.3999999789931463e+00 -1.9253827659856400e-04 +0.0000000000000000e+00 +9.9999998146450597e-01
3.5000000000000018e+00 +7.9196531483367902e+00 +0.0000000000000000e+00 +3.4999999770845460e+00 -1.9820119247481162e-04 +0.0000000000000000e+00 +9.9999998035814353e-01
3.6000000000000019e+00 +7.9196330450716932e+00 +0.0000000000000000e+00 +3.5999999750637062e+00 -2.0386410967574366e-04 +0.0000000000000000e+00 +9.9999997921971229e-01
3.7000000000000020e+00 +7.9196123755148147e+00 +0.0000000000000000e+00 +3.6999999729274196e+00 -2.0952702808263590e-04 +0.0000000000000000e+00 +9.9999997804921215e-01
3.8000000000000020e+00 +7.9195911396660410e+00 +0.0000000000000000e+00 +3.7999999706724794e+00 -2.1518994756445945e-04 +0.0000000000000000e+00 +9.9999997684664310e-01
3.9000000000000021e+00 +7.9195693375252709e+00 +0.0000000000000000e+00 +3.8999999682956790e+00 -2.2085286797788009e-04 +0.0000000000000000e+00 +9.9999997561200515e-01
4.0000000000000018e+00 +7.9195469690924192e+00 +0.0000000000000000e+00 +3.9999999657938115e+00 -2.2651578916725758e-04 +0.0000000000000000e+00 +9.9999997434529841e-01
4.1000000000000014e+00 +7.9195240343674165e+00 +0.0000000000000000e+00 +4.0999999631636701e+00 -2.3217871096581182e-04 +0.0000000000000000e+00 +9.9999997304652288e-01
4.2000000000000011e+00 +7.9195005333502104e+00 +0.0000000000000000e+00 +4.1999999604020477e+00 -2.3784163320845743e-04 +0.0000000000000000e+00 +9.9999997171567856e-01
4.3000000000000007e+00 +7.9194764660407646e+00 +0.0000000000000000e+00 +4.2999999575057375e+00 -2.4350455574463905e-04 +0.0000000000000000e+00 +9.9999997035276544e-01
4.4000000000000004e+00 +7.9194518324390559e+00 +0.0000000000000000e+00 +4.3999999544715322e+00 -2.4916747843949810e-04 +0.0000000000000000e+00 +9.9999996895778354e-01
4.5000000000000000e+00 +7.9194266325450755e+00 +0.0000000000000000e+00 +4.4999999512962257e+00 -2.5483040117387277e-04 +0.0000000000000000e+00 +9.9999996753073295e-01
4.5999999999999996e+00 +7.9194008663588233e+00 +0.0000000000000000e+00 +4.5999999479766105e+00 -2.6049332384429832e-04 +0.0000000000000000e+00 +9.9999996607161368e-01
4.6999999999999993e+00 +7.9193745338803110e+00 +0.0000000000000000e+00 +4.6999999445094796e+00 -2.6615624636300685e-04 +0.0000000000000000e+00 +9.9999996458042573e-01
4.7999999999999989e+00 +7.9193476351095580e+00 +0.0000000000000000e+00 +4.7999999408916265e+00 -2.7181916865792765e-04 +0.0000000000000000e+00 +9.9999996305716921e-01
4.8999999999999986e+00 +7.9193201700465892e+00 +0.0000000000000000e+00 +4.8999999371198442e+00 -2.7748209067268720e-04 +0.0000000000000000e+00 +9.9999996150184400e-01
4.9999999999999982e+00 +7.9192921386914348e+00 +0.0000000000000000e+00 +4.9999999331909262e+00 -2.8314501236660926e-04 +0.0000000000000000e+00 +9.9999995991445023e-01
5.0999999999999979e+00 +7.9192635410441277e+00 +0.0000000000000000e+00 +5.0999999291016653e+00 -2.8880793371471500e-04 +0.0000000000000000e+00 +9.9999995829498789e-01
5.1999999999999975e+00 +7.9192343771047033e+00 +0.0000000000000000e+00 +5.1999999248488544e+00 -2.9447085470772334e-04 +0.0000000000000000e+00 +9.9999995664345698e-01
5.2999999999999972e+00 +7.9192046468731974e+00 +0.0000000000000000e+00 +5.2999999204292871e+00 -3.0013377535205080e-04 +0.0000000000000000e+00 +9.9999995495985750e-01
5.3999999999999968e+00 +7.9191743503496435e+00 +0.0000000000000000e+00 +5.3999999158397571e+00 -3.0579669566981196e-04 +0.0000000000000000e+00 +9.9999995324418944e-01
5.4999999999999964e+00 +7.9191434875340727e+00 +0.0000000000000000e+00 +5.4999999110770563e+00 -3.1145961569881944e-04 +0.0000000000000000e+00 +9.9999995149645282e-01
5.5999999999999961e+00 +7.9191120584265118e+00 +0.0000000000000000e+00 +5.5999999061379784e+00 -3.1712253549258423e-04 +0.0000000000000000e+00 +9.9999994971664763e-01
5.6999999999999957e+00 +7.9190800630269802e+00 +0.0000000000000000e+00 +5.6999999010193170e+00 -3.2278545512031586e-04 +0.0000000000000000e+00 +9.9999994790477376e-01
5.7999999999999954e+00 +7.9190475013354904e+00 +0.0000000000000000e+00 +5.7999998957178649e+00 -3.2844837466692266e-04 +0.0000000000000000e+00 +9.9999994606083131e-01
5.8999999999999950e+00 +7.9190143733520459e+00 +0.0000000000000000e+00 +5.8999998902304149e+00 -3.3411129423301203e-04 +0.0000000000000000e+00 +9.9999994418482019e-01
5.9999999999999947e+00 +7.9189806790766388e+00 +0.0000000000000000e+00 +5.9999998845537599e+00 -3.3977421393489063e-04 +0.0000000000000000e+00 +9.9999994227674027e-01
6.0999999999999943e+00 +7.9189464185092495e+00 +0.0000000000000000e+00 +6.0999998786846934e+00 -3.4543713390375520e-04 +0.0000000000000000e+00 +9.9999994033659168e-01
6.1999999999999940e+00 +7.9189115916498443e+00 +0.0000000000000000e+00 +6.1999998726200092e+00 -3.5110005427678887e-04 +0.0000000000000000e+00 +9.9999993836437429e-01
6.2999999999999936e+00 +7.9188761984983760e+00 +0.0000000000000000e+00 +6.2999998663564991e+00 -3.5676297518825756e-04 +0.0000000000000000e+00 +9.9999993636008799e-01
6.3999999999999932e+00 +7.9188402390547843e+00 +0.0000000000000000e+00 +6.3999998598909578e+00 -3.6242589676870090e-04 +0.0000000000000000e+00 +9.9999993432373280e-01
6.4999999999999929e+00 +7.9188037133189955e+00 +0.0000000000000000e+00 +6.4999998532201770e+00 -3.6808881914493247e-04 +0.0000000000000000e+00 +9.9999993225530859e-01
6.5999999999999925e+00 +7.9187666212909242e+00 +0.0000000000000000e+00 +6.5999998463409506e+00 -3.7375174244004056e-04 +0.0000000000000000e+00 +9.9999993015481536e-01
6.6999999999999922e+00 +7.9187289629704729e+00 +0.0000000000000000e+00 +6.6999998392500713e+00 -3.7941466677338847e-04 +0.0000000000000000e+00 +9.9999992802225302e-01
6.7999999999999918e+00 +7.9186907383575313e+00 +0.0000000000000000e+00 +6.7999998319443318e+00 -3.8507759226061485e-04 +0.0000000000000000e+00 +9.9999992585762154e-01
6.8999999999999915e+00 +7.9186519474519788e+00 +0.0000000000000000e+00 +6.8999998244205258e+00 -3.9074051901363452e-04 +0.0000000000000000e+00 +9.9999992366092083e-01
6.9999999999999911e+00 +7.9186125902536828e+00 +0.0000000000000000e+00 +6.9999998166754462e+00 -3.9640344714063878e-04 +0.0000000000000000e+00 +9.9999992143215077e-01
7.0999999999999908e+00 +7.9185726667625014e+00 +0.0000000000000000e+00 +7.0999998087058867e+00 -4.0206637674609599e-04 +0.0000000000000000e+00 +9.9999991917131137e-01
7.1999999999999904e+00 +7.9185321769782808e+00 +0.0000000000000000e+00 +7.1999998005086399e+00 -4.0772930793075204e-04 +0.0000000000000000e+00 +9.9999991687840262e-01
7.2999999999999901e+00 +7.9184911209008595e+00 +0.0000000000000000e+00 +7.2999997920804987e+00 -4.1339224079163110e-04 +0.0000000000000000e+00 +9.9999991455342430e-01
7.3999999999999897e+00 +7.9184494985300642e+00 +0.0000000000000000e+00 +7.3999997834182558e+00 -4.1905517542203610e-04 +0.0000000000000000e+00 +9.9999991219637641e-01
7.4999999999999893e+00 +7.9184073098657137e+00 +0.0000000000000000e+00 +7.4999997745187050e+00 -4.2471811191154929e-04 +0.0000000000000000e+00 +9.9999990980725895e-01
7.5999999999999890e+00 +7.9183645549076171e+00 +0.0000000000000000e+00 +7.5999997653786391e+00 -4.3038105034603303e-04 +0.0000000000000000e+00 +9.9999990738607181e-01
7.6999999999999886e+00 +7.9183212336555764e+00 +0.0000000000000000e+00 +7.6999997559948508e+00 -4.3604399080763022e-04 +0.0000000000000000e+00 +9.9999990493281488e-01
7.7999999999999883e+00 +7.9182773461093854e+00 +0.0000000000000000e+00 +7.7999997463641328e+00 -4.4170693337476511e-04 +0.0000000000000000e+00 +9.9999990244748815e-01
7.8999999999999879e+00 +7.9182328922688292e+00 +0.0000000000000000e+00 +7.8999997364832790e+00 -4.4736987812214393e-04 +0.0000000000000000e+00 +9.9999989993009153e-01
7.9999999999999876e+00 +7.9181878721336858e+00 +0.0000000000000000e+00 +7.9999997263490821e+00 -4.5303282512075560e-04 +0.0000000000000000e+00 +9.9999989738062489e-01
8.0999999999999872e+00 +7.9181422857037278e+00 +0.0000000000000000e+00 +8.0999997159583348e+00 -4.5869577443816161e-04 +0.0000000000000000e+00 +9.9999989479908824e-01
8.1999999999999869e+00 +7.9180961329787189e+00 +0.0000000000000000e+00 +8.1999997053078300e+00 -4.6435872614167853e-04 +0.0000000000000000e+00 +9.9999989218548146e-01
8.2999999999999865e+00 +7.9180494139584177e+00 +0.0000000000000000e+00 +8.2999996943943621e+00 -4.7002168030155911e-04 +0.0000000000000000e+00 +9.9999988953980445e-01
8.3999999999999861e+00 +7.9180021286425744e+00 +0.0000000000000000e+00 +8.3999996832147232e+00 -4.7568463699128099e-04 +0.0000000000000000e+00 +9.9999988686205721e-01
8.4999999999999858e+00 +7.9179542770309324e+00 +0.0000000000000000e+00 +8.4999996717657051e+00 -4.8134759628754562e-04 +0.0000000000000000e+00 +9.9999988415223962e-01
8.5999999999999854e+00 +7.9179058591232270e+00 +0.0000000000000000e+00 +8.5999996600441015e+00 -4.8701055827027735e-04 +0.0000000000000000e+00 +9.9999988141035157e-01
8.6999999999999851e+00 +7.9178568749191856e+00 +0.0000000000000000e+00 +8.6999996480467061e+00 -4.9267352302262250e-04 +0.0000000000000000e+00 +9.9999987863639306e-01
8.7999999999999847e+00 +7.9178073244185274e+00 +0.0000000000000000e+00 +8.7999996357703107e+00 -4.9833649063094846e-04 +0.0000000000000000e+00 +9.9999987583036387e-01
8.8999999999999844e+00 +7.9177572076209612e+00 +0.0000000000000000e+00 +8.8999996232117091e+00 -5.0399946118484225e-04 +0.0000000000000000e+00 +9.9999987299226401e-01
8.9999999999999840e+00 +7.9177065245261886e+00 +0.0000000000000000e+00 +8.9999996103676949e+00 -5.0966243477711007e-04 +0.0000000000000000e+00 +9.9999987012209335e-01
9.0999999999999837e+00 +7.9176552751339013e+00 +0.0000000000000000e+00 +9.0999995972350600e+00 -5.1532541150377557e-04 +0.0000000000000000e+00 +9.9999986721985179e-01
9.1999999999999833e+00 +7.9176034594437805e+00 +0.0000000000000000e+00 +9.1999995838105963e+00 -5.2098839146407915e-04 +0.0000000000000000e+00 +9.9999986428553922e-01
9.2999999999999829e+00 +7.9175510774554976e+00 +0.0000000000000000e+00 +9.2999995700910976e+00 -5.2665137476047672e-04 +0.0000000000000000e+00 +9.9999986131915553e-01
9.3999999999999826e+00 +7.9174981291687141e+00 +0.0000000000000000e+00 +9.3999995560733574e+00 -5.3231436149863852e-04 +0.0000000000000000e+00 +9.9999985832070060e-01
9.4999999999999822e+00 +7.9174446145830801e+00 +0.0000000000000000e+00 +9.4999995417541676e+00 -5.3797735178744762e-04 +0.0000000000000000e+00 +9.9999985529017432e-01
9.5999999999999819e+00 +7.9173905336982351e+00 +0.0000000000000000e+00 +9.5999995271303220e+00 -5.4364034573899914e-04 +0.0000000000000000e+00 +9.9999985222757659e-01
9.6999999999999815e+00 +7.9173358865138068e+00 +0.0000000000000000e+00 +9.6999995121986142e+00 -5.4930334346859852e-04 +0.0000000000000000e+00 +9.9999984913290729e-01
9.7999999999999812e+00 +7.9172806730294116e+00 +0.0000000000000000e+00 +9.7999994969558344e+00 -5.5496634509476055e-04 +0.0000000000000000e+00 +9.9999984600616632e-01
9.8999999999999808e+00 +7.9172248932446543e+00 +0.0000000000000000e+00 +9.8999994813987779e+00 -5.6062935073920774e-04 +0.0000000000000000e+00 +9.9999984284735344e-01
9.9999999999999805e+00 +7.9171685471591262e+00 +0.0000000000000000e+00 +9.9999994655242368e+00 -5.6629236052686913e-04 +0.0000000000000000e+00 +9.9999983965646855e-01
1.0099999999999980e+01 +7.9171116347724064e+00 +0.0000000000000000e+00 +1.0099999449329003e+01 -5.7195537458540520e-04 +0.0000000000000000e+00 +9.9999983643351154e-01
1.0199999999999980e+01 +7.9170541560840624e+00 +0.0000000000000000e+00 +1.0199999432809870e+01 -5.7761839303999444e-04 +0.0000000000000000e+00 +9.9999983317848229e-01
1.0299999999999979e+01 +7.9169961110936482e+00 +0.0000000000000000e+00 +1.0299999415963629e+01 -5.8328141600812210e-04 +0.0000000000000000e+00 +9.9999982989138059e-01
1.0399999999999979e+01 +7.9169374998007065e+00 +0.0000000000000000e+00 +1.0399999398787076e+01 -5.8894444359910720e-04 +0.0000000000000000e+00 +9.9999982657220632e-01
1.0499999999999979e+01 +7.9168783222047709e+00 +0.0000000000000000e+00 +1.0499999381277002e+01 -5.9460747591410373e-04 +0.0000000000000000e+00 +9.9999982322095937e-01
1.0599999999999978e+01 +7.9168185783053637e+00 +0.0000000000000000e+00 +1.0599999363430198e+01 -6.0027051304610177e-04 +0.0000000000000000e+00 +9.9999981983763953e-01
1.0699999999999978e+01 +7.9167582681019990e+00 +0.0000000000000000e+00 +1.0699999345243461e+01 -6.0593355507992887e-04 +0.0000000000000000e+00 +9.9999981642224678e-01
1.0799999999999978e+01 +7.9166973915941821e+00 +0.0000000000000000e+00 +1.0799999326713579e+01 -6.1159660209225101e-04 +0.0000000000000000e+00 +9.9999981297478091e-01
1.0899999999999977e+01 +7.9166359487814120e+00 +0.0000000000000000e+00 +1.0899999307837348e+01 -6.1725965415157416e-04 +0.0000000000000000e+00 +9.9999980949524181e-01
1.0999999999999977e+01 +7.9165739396631816e+00 +0.0000000000000000e+00 +1.0999999288611559e+01 -6.2292271131824523e-04 +0.0000000000000000e+00 +9.9999980598362936e-01
1.1099999999999977e+01 +7.9165113642389766e+00 +0.0000000000000000e+00 +1.1099999269033004e+01 -6.2858577364445359e-04 +0.0000000000000000e+00 +9.9999980243994335e-01
1.1199999999999976e+01 +7.9164482225082793e+00 +0.0000000000000000e+00 +1.1199999249098479e+01 -6.3424884117423250e-04 +0.0000000000000000e+00 +9.9999979886418378e-01
1.1299999999999976e+01 +7.9163845144705673e+00 +0.0000000000000000e+00 +1.1299999228804772e+01 -6.3991191394346036e-04 +0.0000000000000000e+00 +9.9999979525635052e-01
1.1399999999999975e+01 +7.9163202401253150e+00 +0.0000000000000000e+00 +1.1399999208148680e+01 -6.4557499197986218e-04 +0.0000000000000000e+00 +9.9999979161644348e-01
1.1499999999999975e+01 +7.9162553994719946e+00 +0.0000000000000000e+00 +1.1499999187126992e+01 -6.5123807530301095e-04 +0.0000000000000000e+00 +9.9999978794446243e-01
1.1599999999999975e+01 +7.9161899925100778e+00 +0.0000000000000000e+00 +1.1599999165736502e+01 -6.5690116392432929e-04 +0.0000000000000000e+00 +9.9999978424040736e-01
1.1699999999999974e+01 +7.9161240192390334e+00 +0.0000000000000000e+00 +1.1699999143974004e+01 -6.6256425784709083e-04 +0.0000000000000000e+00 +9.9999978050427829e-01
1.1799999999999974e+01 +7.9160574796583321e+00 +0.0000000000000000e+00 +1.1799999121836290e+01 -6.6822735706642186e-04 +0.0000000000000000e+00 +9.9999977673607499e-01
