# multipoles
# s[mm] polynom_b[n=0][T/m^n] polynom_b[n=1][T/m^n] polynom_b[n=2][T/m^n] polynom_b[n=3][T/m^n] polynom_b[n=4][T/m^n] polynom_b[n=5][T/m^n] polynom_b[n=6][T/m^n] 
+0.0000000000000000e+00 -5.6496518940190454e-01 +7.7421239867089513e+00 -3.3030028147961119e-02 -3.1962975555488789e+01 -2.0436525107884615e+03 -3.5468558212622243e+04 -2.7882111443580235e+06 
+1.0000000000000001e-01 -5.6496505171740430e-01 +7.7420961159490727e+00 -4.1462166299245144e-02 -3.1476282387921657e+01 -1.9614423342665154e+03 -3.7387852302883082e+04 -2.9914870662784819e+06 
+2.0000000000000001e-01 -5.6496491094343682e-01 +7.7420675964077823e+00 -5.0078274918059267e-02 -3.0971232482146736e+01 -1.8758766482549927e+03 -3.9417944803056263e+04 -3.2108777502074763e+06 
+2.9999999999999999e-01 -5.6496476776784810e-01 +7.7420385042874482e+00 -5.8832157924454655e-02 -3.0449770474271684e+01 -1.7874461677180602e+03 -4.1547340823455284e+04 -3.4448250420060144e+06 
+4.0000000000000002e-01 -5.6496462287861016e-01 +7.7420089157928960e+00 -6.7677616067207666e-02 -2.9913841096366554e+01 -1.6966416673594858e+03 -4.3764544832121021e+04 -3.6917705033693039e+06 
+5.0000000000000000e-01 -5.6496447696359031e-01 +7.7419789071232694e+00 -7.6568452489709088e-02 -2.9365388912307338e+01 -1.6039538774492314e+03 -4.6058062267052337e+04 -3.9501559035721333e+06 
+5.9999999999999998e-01 -5.6496433071070162e-01 +7.7419485544807847e+00 -8.5458471690356766e-02 -2.8806358599550482e+01 -1.5098735024151549e+03 -4.8416397813339725e+04 -4.2184231347587015e+06 
+6.9999999999999996e-01 -5.6496418480783483e-01 +7.7419179340642685e+00 -9.4301474382471356e-02 -2.8238694759200690e+01 -1.4148913164973883e+03 -5.0828056517239907e+04 -4.4950137611636836e+06 
+8.0000000000000004e-01 -5.6496403994289845e-01 +7.7418871220707723e+00 -1.0305126200489569e-01 -2.7664341968662949e+01 -1.3194980822535324e+03 -5.3281543456554471e+04 -4.7783693988492917e+06 
+9.0000000000000002e-01 -5.6496389680376458e-01 +7.7418561946953126e+00 -1.1166164088010433e-01 -2.7085244771136647e+01 -1.2241844681711248e+03 -5.5765363810218914e+04 -5.0669321149021555e+06 
+1.0000000000000000e+00 -5.6496375607833293e-01 +7.7418252281288140e+00 -1.2008641415207871e-01 -2.6503347641413807e+01 -1.1294412005838858e+03 -5.8268022975834196e+04 -5.3591437097527226e+06 
+1.1000000000000001e+00 -5.6496361845459564e-01 +7.7417942985624677e+00 -1.2827938016248197e-01 -2.5920595097543544e+01 -1.0357590997367140e+03 -6.0778025966635592e+04 -5.6534455303285709e+06 
+1.2000000000000000e+00 -5.6496348462034007e-01 +7.7417634821806462e+00 -1.3619434571354655e-01 -2.5338931504548015e+01 -9.4362882014494835e+02 -6.3283878518564808e+04 -5.9482797292654915e+06 
+1.3000000000000000e+00 -5.6496335526351205e-01 +7.7417328551628106e+00 -1.4378511137368896e-01 -2.4760301139399196e+01 -8.5354113929898892e+02 -6.5774086686906317e+04 -6.2420878629287928e+06 
+1.3999999999999999e+00 -5.6496323107204227e-01 +7.7417024936876802e+00 -1.5100548077644715e-01 -2.4186648320976428e+01 -7.6598676700540545e+02 -6.8237156055956570e+04 -6.5333118388602883e+06 
+1.5000000000000000e+00 -5.6496311273382527e-01 +7.7416724739255329e+00 -1.5780925392681194e-01 -2.3619917173101022e+01 -6.8145648901218885e+02 -7.0661593161859695e+04 -6.8203931882020263e+06 
+1.6000000000000001e+00 -5.6496300093677831e-01 +7.7416428720423216e+00 -1.6415023288876712e-01 -2.3062051776989417e+01 -6.0044104295071531e+02 -7.3035904493707960e+04 -7.1017736981079858e+06 
+1.7000000000000000e+00 -5.6496289636880914e-01 +7.7416137641980693e+00 -1.6998222012522424e-01 -2.2514996102769707e+01 -5.2343116278658147e+02 -7.5348596972746207e+04 -7.3758951674876725e+06 
+1.8000000000000000e+00 -5.6496279971789121e-01 +7.7415852265472562e+00 -1.7525901398047605e-01 -2.1980694040948006e+01 -4.5091765563484586e+02 -7.7588177688298209e+04 -7.6411990666506132e+06 
+1.8999999999999999e+00 -5.6496271167191681e-01 +7.7415573352353961e+00 -1.7993441603917970e-01 -2.1461089308248336e+01 -3.8339126703321074e+02 -7.9743154437464487e+04 -7.8961271622778066e+06 
+2.0000000000000000e+00 -5.6496263291886295e-01 +7.7415301664053660e+00 -1.8396222470568949e-01 -2.0958125628698642e+01 -3.2134279759892496e+02 -8.1802034684865663e+04 -8.1391209806819633e+06 
+2.1000000000000001e+00 -5.6496256396525835e-01 +7.7415037935946218e+00 -1.8730828532440566e-01 -2.0473778290007647e+01 -2.6516522535484296e+02 -8.3753530630643509e+04 -8.3688773520097947e+06 
+2.2000000000000002e+00 -5.6496250459255115e-01 +7.7414782784108311e+00 -1.8998655841563300e-01 -2.0010041658720255e+01 -2.1486067510630039e+02 -8.5587671587186560e+04 -8.5851073386662081e+06 
+2.2999999999999998e+00 -5.6496245440081960e-01 +7.7414536790886777e+00 -1.9202301934791818e-01 -1.9568887765005144e+01 -1.7033365964621046e+02 -8.7294942983807166e+04 -8.7877738540208414e+06 
+2.3999999999999999e+00 -5.6496241299022876e-01 +7.7414300538647218e+00 -1.9344364021740948e-01 -1.9152288665945857e+01 -1.3148874875170341e+02 -8.8865830099707557e+04 -8.9768395559999235e+06 
+2.5000000000000000e+00 -5.6496237996089138e-01 +7.7414074609676558e+00 -1.9427439247308326e-01 -1.8762216181685570e+01 -9.8230521787993823e+01 -9.0290819544608006e+04 -9.1522670659119152e+06 
+2.6000000000000001e+00 -5.6496235491292923e-01 +7.7413859586258686e+00 -1.9454124685682023e-01 -1.8400642089615157e+01 -7.0463567161264123e+01 -9.1560398195117799e+04 -9.3140189751684498e+06 
+2.7000000000000002e+00 -5.6496233744658375e-01 +7.7413656050682693e+00 -1.9427017281578246e-01 -1.8069538152458286e+01 -4.8092496878943969e+01 -9.2665053024810259e+04 -9.4620577674716022e+06 
+2.7999999999999998e+00 -5.6496232716194561e-01 +7.7413464585235037e+00 -1.9348713824186750e-01 -1.7770876092528795e+01 -3.1021944899051586e+01 -9.3595271250925973e+04 -9.5963458440815341e+06 
+2.8999999999999999e+00 -5.6496232365925414e-01 +7.7413285772147615e+00 -1.9221810916513893e-01 -1.7506627411712753e+01 -1.9156583953962258e+01 -9.4341541467728792e+04 -9.7168454130657911e+06 
+3.0000000000000000e+00 -5.6496232653866929e-01 +7.7413120193688503e+00 -1.9048905202085864e-01 -1.7278763675267015e+01 -1.2401066345205242e+01 -9.4894351933602215e+04 -9.8235188166912012e+06 
+3.1000000000000001e+00 -5.6496233540039797e-01 +7.7412968432117841e+00 -1.8832593066554407e-01 -1.7089256362469357e+01 -1.0660094744914105e+01 -9.5244191498675224e+04 -9.9163281525713243e+06 
+3.2000000000000002e+00 -5.6496234984467730e-01 +7.7412831069661472e+00 -1.8575470839842964e-01 -1.6940076780908811e+01 -1.3838377401915611e+01 -9.5381550124484056e+04 -9.9952355081106108e+06 
+3.2999999999999998e+00 -5.6496236947169942e-01 +7.7412708688572796e+00 -1.8280134401834330e-01 -1.6833196243125510e+01 -2.1840702483267005e+01 -9.5296917861165901e+04 -1.0060202605898639e+07 
+3.3999999999999999e+00 -5.6496239388178515e-01 +7.7412601871099760e+00 -1.7949179756833303e-01 -1.6770585971360923e+01 -3.4571832603939306e+01 -9.4980785402774782e+04 -1.0111191295228342e+07 
+3.5000000000000000e+00 -5.6496242267510210e-01 +7.7412511199524916e+00 -1.7585202772761244e-01 -1.6754217192049921e+01 -5.1936546647557478e+01 -9.4423643596419148e+04 -1.0148163375115147e+07 
+3.6000000000000001e+00 -5.6496245545198442e-01 +7.7412437256077675e+00 -1.7190798928923320e-01 -1.6786060886154598e+01 -7.3839698087764077e+01 -9.3615984867495528e+04 -1.0171080288343547e+07 
+3.7000000000000002e+00 -5.6496249181269731e-01 +7.7412380623044479e+00 -1.6768563590739896e-01 -1.6868088093269289e+01 -1.0018615195892259e+02 -9.2548301503779949e+04 -1.0179903449137818e+07 
+3.7999999999999998e+00 -5.6496253135753949e-01 +7.7412341882714104e+00 -1.6321091990717410e-01 -1.7002269752157172e+01 -1.3088079724113797e+02 -9.1211086582461372e+04 -1.0174594162548546e+07 
+3.8999999999999999e+00 -5.6496257368683300e-01 +7.7412321617397986e+00 -1.5850979121781286e-01 -1.7190576754093495e+01 -1.6582856064634714e+02 -8.9594833662280289e+04 -1.0155113574490432e+07 
+4.0000000000000000e+00 -5.6496261840094608e-01 +7.7412320409405977e+00 -1.5360819722342450e-01 -1.7434979852716200e+01 -2.0493441318942885e+02 -8.7690037353442356e+04 -1.0121422629490526e+07 
+4.0999999999999996e+00 -5.6496266521107263e-01 +7.7412338480337395e+00 -1.4853315176982379e-01 -1.7736160728353326e+01 -2.4803592779665027e+02 -8.5494030339930570e+04 -1.0073730339467751e+07 
+4.2000000000000002e+00 -5.6496271426589695e-01 +7.7412374655789078e+00 -1.4331583023098368e-01 -1.8089719273631644e+01 -2.9471850566234031e+02 -8.3031738728657554e+04 -1.0013137057818180e+07 
+4.2999999999999998e+00 -5.6496276582180749e-01 +7.7412427423524059e+00 -1.3798843819494250e-01 -1.8490000925653849e+01 -3.4450856966726059e+02 -8.0335059743903417e+04 -9.9409411701176353e+06 
+4.4000000000000004e+00 -5.6496282013525978e-01 +7.7412495271375459e+00 -1.3258318734582200e-01 -1.8931351310450474e+01 -3.9693243190526789e+02 -7.7435889763636020e+04 -9.8584415611161217e+06 
+4.5000000000000000e+00 -5.6496287746264007e-01 +7.7412576687310253e+00 -1.2713228819830544e-01 -1.9408116438325756e+01 -4.5151642780159131e+02 -7.4366123170460938e+04 -9.7669369885279704e+06 
+4.5999999999999996e+00 -5.6496293806031328e-01 +7.7412670159288686e+00 -1.2166795682731819e-01 -1.9914642303378152e+01 -5.0778679980204805e+02 -7.1157654665161244e+04 -9.6677266051159780e+06 
+4.7000000000000002e+00 -5.6496300218468332e-01 +7.7412774175410224e+00 -1.1622240958924566e-01 -2.0445275298656142e+01 -5.6526978278911145e+02 -6.7842376905399607e+04 -9.5621095882938243e+06 
+4.7999999999999998e+00 -5.6496307009205193e-01 +7.7412887223821070e+00 -1.1082786825962826e-01 -2.0994361953522223e+01 -6.2349151876778922e+02 -6.4452182021851593e+04 -9.4513855163980722e+06 
+4.9000000000000004e+00 -5.6496314203875531e-01 +7.7413007792770898e+00 -1.0551655471225468e-01 -2.1556249101644987e+01 -6.8197815220087568e+02 -6.1018960650533103e+04 -9.3368539261426106e+06 
+5.0000000000000000e+00 -5.6496321828107343e-01 +7.7413134370619883e+00 -1.0032069805832446e-01 -2.2125283896562888e+01 -7.4025569862853797e+02 -5.7574601871710736e+04 -9.2198149279669151e+06 
+5.0999999999999996e+00 -5.6496329907533360e-01 +7.7413265445791817e+00 -9.5272525525611343e-02 -2.2695813678327859e+01 -7.9785021585877359e+02 -5.4150993995965684e+04 -9.1015683950060625e+06 
+5.2000000000000002e+00 -5.6496338467772900e-01 +7.7413399506838951e+00 -9.0404274808413912e-02 -2.3262186170428730e+01 -8.5428756820146339e+02 -5.0780023407158347e+04 -8.9834150880957302e+06 
+5.2999999999999998e+00 -5.6496347534449665e-01 +7.7413535042386012e+00 -8.5748182044765683e-02 -2.3818749311846261e+01 -9.0909366108960910e+02 -4.7493575569011962e+04 -8.8666555197598655e+06 
+5.4000000000000004e+00 -5.6496357133185870e-01 +7.7413670541220911e+00 -8.1336489202740073e-02 -2.4359851515449918e+01 -9.6179429543450817e+02 -4.4323533556955066e+04 -8.7525906644682605e+06 
+5.5000000000000000e+00 -5.6496367289591554e-01 +7.7413804492198164e+00 -7.7201443584155149e-02 -2.4879841407538052e+01 -1.0119151799623565e+03 -4.1301779526617298e+04 -8.6425218875874840e+06 
+5.5999999999999996e+00 -5.6496378029289984e-01 +7.7413935384340347e+00 -7.3375294305112915e-02 -2.5373068101679703e+01 -1.0589819970574358e+03 -3.8460193199074798e+04 -8.5377506361518539e+06 
+5.7000000000000002e+00 -5.6496389377881762e-01 +7.7414061706734270e+00 -6.9890298006156010e-02 -2.5833880911425247e+01 -1.1025202976372391e+03 -3.5830653508071147e+04 -8.4395789289130233e+06 
+5.7999999999999998e+00 -5.6496401360979975e-01 +7.7414181948658847e+00 -6.6778714044413726e-02 -2.6256629721891500e+01 -1.1420555900424411e+03 -3.3445036449131709e+04 -8.3493089385015313e+06 
+5.9000000000000004e+00 -5.6496414004181772e-01 +7.7414294599490407e+00 -6.4072808269348303e-02 -2.6635664715411988e+01 -1.1771132704826689e+03 -3.1335216695393330e+04 -8.2682433163257781e+06 
+5.9999999999999902e+00 -5.6496427333095656e-01 +7.7414398148752106e+00 -6.1804850896986369e-02 -2.6965336498807098e+01 -1.2072186588838358e+03 -2.9533066939585802e+04 -8.1976850363796484e+06 
+6.0999999999999899e+00 -5.6496441372894934e-01 +7.7414491414116897e+00 -5.9993109087579724e-02 -2.7241218454631635e+01 -1.2320708707886627e+03 -2.8064108771265466e+04 -8.1384510068647657e+06 
+6.1999999999999904e+00 -5.6496456147557494e-01 +7.7414574474237456e+00 -5.8600492559097946e-02 -2.7464039707920751e+01 -1.2520261440004917e+03 -2.6926059607592990e+04 -8.0896205142885111e+06 
+6.2999999999999901e+00 -5.6496471680891724e-01 +7.7414647711666147e+00 -5.7576199618653096e-02 -2.7635891852516895e+01 -1.2675952720318001e+03 -2.6109052608173821e+04 -8.0498938046738058e+06 
+6.3999999999999897e+00 -5.6496487996703626e-01 +7.7414711508855607e+00 -5.6869428109658789e-02 -2.7758866319007524e+01 -1.2792890430460563e+03 -2.5603221462085956e+04 -8.0179711915016873e+06 
+6.4999999999999902e+00 -5.6496505118791929e-01 +7.7414766248129459e+00 -5.6429378905763376e-02 -2.7835054289324816e+01 -1.2876181731234299e+03 -2.5398700825151354e+04 -7.9925533731228691e+06 
+6.5999999999999899e+00 -5.6496523070967086e-01 +7.7414812311696188e+00 -5.6205251524722701e-02 -2.7866546749193120e+01 -1.2930933946959601e+03 -2.5485625976195111e+04 -7.9723410043400023e+06 
+6.6999999999999904e+00 -5.6496541877030082e-01 +7.7414850081631696e+00 -5.6146247717878593e-02 -2.7855434434381888e+01 -1.2962253837812757e+03 -2.5854133129477181e+04 -7.9560350492813941e+06 
+6.7999999999999901e+00 -5.6496561560787439e-01 +7.7414879939877181e+00 -5.6201565796443302e-02 -2.7803807827508432e+01 -1.2975248663802136e+03 -2.6494359428141903e+04 -7.9423362848036280e+06 
+6.8999999999999897e+00 -5.6496582146038699e-01 +7.7414902268245838e+00 -5.6320412865466504e-02 -2.7713757195613244e+01 -1.2975023897669219e+03 -2.7396442683324534e+04 -7.9299463761171559e+06 
+6.9999999999999902e+00 -5.6496603656593858e-01 +7.7414917448400704e+00 -5.6451987287338294e-02 -2.7587372519599430e+01 -1.2966686492973561e+03 -2.8550521771677184e+04 -7.9175663394245692e+06 
+7.0999999999999899e+00 -5.6496626116248871e-01 +7.7414925861833632e+00 -5.6545497140313740e-02 -2.7426743439595008e+01 -1.2955341461504197e+03 -2.9946736944730477e+04 -7.9038981501750229e+06 
+7.1999999999999904e+00 -5.6496649548810030e-01 +7.7414927889894276e+00 -5.6550142263166105e-02 -2.7233959353464709e+01 -1.2946095165271161e+03 -3.1575229193925006e+04 -7.8876432075877646e+06 
+7.2999999999999901e+00 -5.6496673978082224e-01 +7.7414923913781077e+00 -5.6415127756624647e-02 -2.7011109379879514e+01 -1.2944052815768459e+03 -3.3426140494349100e+04 -7.8675035080113197e+06 
+7.3999999999999897e+00 -5.6496699427860342e-01 +7.7414914314521086e+00 -5.6089660255350220e-02 -2.6760282323953753e+01 -1.2954319212232861e+03 -3.5489613930663458e+04 -7.8421812868739488e+06 
+7.4999999999999902e+00 -5.6496725921955415e-01 +7.7414899472935401e+00 -5.5522945058730705e-02 -2.6483566558116792e+01 -1.2981999166340538e+03 -3.7755794417469784e+04 -7.8103788484058334e+06 
+7.5999999999999899e+00 -5.6496753484160755e-01 +7.7414879769712996e+00 -5.4664187904928281e-02 -2.6183050266024555e+01 -1.3032197278812459e+03 -4.0214827211010772e+04 -7.7707986421856470e+06 
+7.6999999999999904e+00 -5.6496782138279567e-01 +7.7414855585304840e+00 -5.3462596420166042e-02 -2.5860821127470317e+01 -1.3110017607692316e+03 -4.2856859736238235e+04 -7.7221434377953066e+06 
+7.7999999999999901e+00 -5.6496811908117128e-01 +7.7414827300022040e+00 -5.1867376584958144e-02 -2.5518966613707018e+01 -1.3220564293830023e+03 -4.5672039842107028e+04 -7.6631160382808391e+06 
+7.8999999999999897e+00 -5.6496842817471393e-01 +7.7414795293938177e+00 -4.9827736038098570e-02 -2.5159573701211436e+01 -1.3368941005882130e+03 -4.8650517459881463e+04 -7.5924195262371665e+06 
+7.9999999999999902e+00 -5.6496874890144189e-01 +7.7414759946943992e+00 -4.7292884661841471e-02 -2.4784729065612609e+01 -1.3560250844083223e+03 -5.1782443437263173e+04 -7.5087573082250254e+06 
+8.0999999999999908e+00 -5.6496908125504108e-01 +7.7414721620929816e+00 -4.4228466106833127e-02 -2.4396810392844163e+01 -1.3798340841939003e+03 -5.5054500380750687e+04 -7.4110864697874105e+06 
+8.1999999999999904e+00 -5.6496942427105645e-01 +7.7414680509575815e+00 -4.0663028734494101e-02 -2.3998697046989061e+01 -1.4082462906260805e+03 -5.8442899445632065e+04 -7.2992754446380530e+06 
+8.2999999999999901e+00 -5.6496977675000282e-01 +7.7414636739960274e+00 -3.6640117173940515e-02 -2.3593231019082278e+01 -1.4410847057171895e+03 -6.1922027441035520e+04 -7.1733848982919250e+06 
+8.3999999999999897e+00 -5.6497013749246128e-01 +7.7414590439217701e+00 -3.2203268833431130e-02 -2.3183254169568109e+01 -1.4781724879061912e+03 -6.5466272272715258e+04 -7.0334747567229429e+06 
+8.4999999999999893e+00 -5.6497050529906290e-01 +7.7414541734763080e+00 -2.7396014706223694e-02 -2.2771608849437296e+01 -1.5193329431777199e+03 -6.9050019637766280e+04 -6.8796042131940424e+06 
+8.5999999999999908e+00 -5.6497087897040621e-01 +7.7414490754039766e+00 -2.2261880750988509e-02 -2.2361137190791077e+01 -1.5643894888126429e+03 -7.2647657076101808e+04 -6.7118319285035841e+06 
+8.6999999999999904e+00 -5.6497125730714726e-01 +7.7414437624692365e+00 -1.6844385741089415e-02 -2.1954681565532905e+01 -1.6131657027499348e+03 -7.6233571425438451e+04 -6.5302157748503136e+06 
+8.7999999999999794e+00 -5.6497163910996950e-01 +7.7414382474535923e+00 -1.1187042091686712e-02 -2.1555084505991488e+01 -1.6654853048289667e+03 -7.9782149233134376e+04 -6.3348129345364189e+06 
+8.8999999999999808e+00 -5.6497202317962325e-01 +7.7414325431545974e+00 -5.3333543045299085e-03 -2.1165188663061734e+01 -1.7211721879098079e+03 -8.3267777042552232e+04 -6.1256797478910619e+06 
+8.9999999999999805e+00 -5.6497240831683182e-01 +7.7414266623818175e+00 +6.7318022970807103e-04 -2.0787836668206712e+01 -1.7800504039487782e+03 -8.6664842231660048e+04 -5.9028717783487588e+06 
+9.0999999999999801e+00 -5.6497279332236683e-01 +7.7414206179709195e+00 +6.7890699104201924e-03 -2.0425871541049585e+01 -1.8419441394786952e+03 -8.9947730658443266e+04 -5.6664439272169946e+06 
+9.1999999999999797e+00 -5.6497317699705007e-01 +7.7414144227684565e+00 +1.2970832858815621e-02 -2.0082136239795268e+01 -1.9066777896722931e+03 -9.3090829267139561e+04 -5.4164500866632387e+06 
+9.2999999999999794e+00 -5.6497355814177042e-01 +7.7414080896398936e+00 +1.9174995589082630e-02 -1.9759473879136841e+01 -1.9740759355462660e+03 -9.6068524867945394e+04 -5.1529432396063814e+06 
+9.3999999999999808e+00 -5.6497393555735809e-01 +7.7414016314722573e+00 +2.5358087654812053e-02 -1.9460727792092150e+01 -2.0439632401111658e+03 -9.8855203815214205e+04 -4.8759759621343762e+06 
+9.4999999999999805e+00 -5.6497430804474291e-01 +7.7413950611728541e+00 +3.1476651955653398e-02 -1.9188741491974152e+01 -2.1161646509157795e+03 -1.0142525221760903e+05 -4.5855994449786013e+06 
+9.5999999999999801e+00 -5.6497467440489457e-01 +7.7413883916666917e+00 +3.7487239493370988e-02 -1.8946358588822942e+01 -2.1905052940203473e+03 -1.0375305643682077e+05 -4.2818640119558172e+06 
+9.6999999999999797e+00 -5.6497503343882882e-01 +7.7413816358969232e+00 +4.3346407604987647e-02 -1.8736422769821544e+01 -2.2668104443592269e+03 -1.0581300329276812e+05 -3.9648192551434361e+06 
+9.7999999999999794e+00 -5.6497538394753821e-01 +7.7413748068318791e+00 +4.9010721842276388e-02 -1.8561778027970529e+01 -2.3449055637101110e+03 -1.0757947865241341e+05 -3.6345138475902090e+06 
+9.8999999999999808e+00 -5.6497572473212099e-01 +7.7413679174588212e+00 +5.4436761387565848e-02 -1.8425268444085511e+01 -2.4246164018909099e+03 -1.0902686879577387e+05 -3.2909950679454799e+06 
+9.9999999999999805e+00 -5.6497605459370004e-01 +7.7413609807842070e+00 +5.9581108766247878e-02 -1.8329738138318955e+01 -2.5057687911334392e+03 -1.1012956056024497e+05 -2.9343097898618034e+06 
+1.0100000000000000e+01 -5.6497637268973755e-01 +7.7413539783682168e+00 +6.4409037782167444e-02 -1.8276219643509599e+01 -2.5881548991941645e+03 -1.1087404427492310e+05 -2.5649319817314786e+06 
