# trajectory
# s[mm] rx[mm] ry[mm] rz[mm] px[rad] py[rad] pz[rad]
0.0000000000000000e+00 +8.1649999999999991e+00 +0.0000000000000000e+00 +0.0000000000000000e+00 +0.0000000000000000e+00 +0.0000000000000000e+00 +1.0000000000000000e+00
-1.0000000000000001e-01 +8.1649997166946733e+00 +0.0000000000000000e+00 -9.9999999999464920e-02 +5.6661062453117390e-06 +0.0000000000000000e+00 +9.9999999998394762e-01
-2.0000000000000001e-01 +8.1649988667788076e+00 +0.0000000000000000e+00 -1.9999999999571935e-01 +1.1332210796975708e-05 +0.0000000000000000e+00 +9.9999999993579047e-01
-3.0000000000000004e-01 +8.1649974502525691e+00 +0.0000000000000000e+00 -2.9999999998555282e-01 +1.6998313712062074e-05 +0.0000000000000000e+00 +9.9999999985552868e-01
-4.0000000000000002e-01 +8.1649954671161176e+00 +0.0000000000000000e+00 -3.9999999996575492e-01 +2.2664415048599156e-05 +0.0000000000000000e+00 +9.9999999974316212e-01
-5.0000000000000000e-01 +8.1649929173696094e+00 +0.0000000000000000e+00 -4.9999999993311511e-01 +2.8330514865573388e-05 +0.0000000000000000e+00 +9.9999999959869090e-01
-5.9999999999999998e-01 +8.1649898010131938e+00 +0.0000000000000000e+00 -5.9999999988442299e-01 +3.3996613222929281e-05 +0.0000000000000000e+00 +9.9999999942211504e-01
-6.9999999999999996e-01 +8.1649861180470129e+00 +0.0000000000000000e+00 -6.9999999981646799e-01 +3.9662710181569382e-05 +0.0000000000000000e+00 +9.9999999921343463e-01
-7.9999999999999993e-01 +8.1649818684712034e+00 +0.0000000000000000e+00 -7.9999999972603975e-01 +4.5328805803354269e-05 +0.0000000000000000e+00 +9.9999999897264957e-01
-8.9999999999999991e-01 +8.1649770522858951e+00 +0.0000000000000000e+00 -8.9999999960992771e-01 +5.0994900151102480e-05 +0.0000000000000000e+00 +9.9999999869975997e-01
-9.9999999999999989e-01 +8.1649716694912140e+00 +0.0000000000000000e+00 -9.9999999946492157e-01 +5.6660993288590501e-05 +0.0000000000000000e+00 +9.9999999839476583e-01
-1.0999999999999999e+00 +8.1649657200872756e+00 +0.0000000000000000e+00 -1.0999999992878107e+00 +6.2327085280552736e-05 +0.0000000000000000e+00 +9.9999999805766715e-01
-1.2000000000000000e+00 +8.1649592040741936e+00 +0.0000000000000000e+00 -1.1999999990753847e+00 +6.7993176192681441e-05 +0.0000000000000000e+00 +9.9999999768846393e-01
-1.3000000000000000e+00 +8.1649521214520711e+00 +0.0000000000000000e+00 -1.2999999988244333e+00 +7.3659266091626754e-05 +0.0000000000000000e+00 +9.9999999728715616e-01
-1.4000000000000001e+00 +8.1649444722210074e+00 +0.0000000000000000e+00 -1.3999999985317457e+00 +7.9325355044996607e-05 +0.0000000000000000e+00 +9.9999999685374397e-01
-1.5000000000000002e+00 +8.1649362563810914e+00 +0.0000000000000000e+00 -1.4999999981941119e+00 +8.4991443121356706e-05 +0.0000000000000000e+00 +9.9999999638822723e-01
-1.6000000000000003e+00 +8.1649274739324103e+00 +0.0000000000000000e+00 -1.5999999978083210e+00 +9.0657530390230497e-05 +0.0000000000000000e+00 +9.9999999589060606e-01
-1.7000000000000004e+00 +8.1649181248750384e+00 +0.0000000000000000e+00 -1.6999999973711628e+00 +9.6323616922099173e-05 +0.0000000000000000e+00 +9.9999999536088036e-01
-1.8000000000000005e+00 +8.1649082092090470e+00 +0.0000000000000000e+00 -1.7999999968794269e+00 +1.0198970278840159e-04 +0.0000000000000000e+00 +9.9999999479905022e-01
-1.9000000000000006e+00 +8.1648977269345000e+00 +0.0000000000000000e+00 -1.8999999963299028e+00 +1.0765578806153424e-04 +0.0000000000000000e+00 +9.9999999420511565e-01
-2.0000000000000004e+00 +8.1648866780514524e+00 +0.0000000000000000e+00 -1.9999999957193799e+00 +1.1332187281485127e-04 +0.0000000000000000e+00 +9.9999999357907654e-01
-2.1000000000000005e+00 +8.1648750625599522e+00 +0.0000000000000000e+00 -2.0999999950446480e+00 +1.1898795712259837e-04 +0.0000000000000000e+00 +9.9999999292093300e-01
-2.2000000000000006e+00 +8.1648628804600403e+00 +0.0000000000000000e+00 -2.1999999943024964e+00 +1.2465404105918635e-04 +0.0000000000000000e+00 +9.9999999223068503e-01
-2.3000000000000007e+00 +8.1648501317517503e+00 +0.0000000000000000e+00 -2.2999999934897146e+00 +1.3032012469846484e-04 +0.0000000000000000e+00 +9.9999999150833252e-01
-2.4000000000000008e+00 +8.1648368164351091e+00 +0.0000000000000000e+00 -2.3999999926030924e+00 +1.3598620811365619e-04 +0.0000000000000000e+00 +9.9999999075387558e-01
-2.5000000000000009e+00 +8.1648229345101342e+00 +0.0000000000000000e+00 -2.4999999916394193e+00 +1.4165229137735560e-04 +0.0000000000000000e+00 +9.9999998996731410e-01
-2.6000000000000010e+00 +8.1648084859768364e+00 +0.0000000000000000e+00 -2.5999999905954851e+00 +1.4731837456153119e-04 +0.0000000000000000e+00 +9.9999998914864818e-01
-2.7000000000000011e+00 +8.1647934708352210e+00 +0.0000000000000000e+00 -2.6999999894680791e+00 +1.5298445773752407e-04 +0.0000000000000000e+00 +9.9999998829787773e-01
-2.8000000000000012e+00 +8.1647778890852862e+00 +0.0000000000000000e+00 -2.7999999882539908e+00 +1.5865054097604833e-04 +0.0000000000000000e+00 +9.9999998741500284e-01
-2.9000000000000012e+00 +8.1647617407270214e+00 +0.0000000000000000e+00 -2.8999999869500095e+00 +1.6431662434719126e-04 +0.0000000000000000e+00 +9.9999998650002342e-01
-3.0000000000000013e+00 +8.1647450257604106e+00 +0.0000000000000000e+00 -2.9999999855529254e+00 +1.6998270792041337e-04 +0.0000000000000000e+00 +9.9999998555293945e-01
-3.1000000000000014e+00 +8.1647277441854289e+00 +0.0000000000000000e+00 -3.0999999840595276e+00 +1.7564879176454849e-04 +0.0000000000000000e+00 +9.9999998457375094e-01
-3.2000000000000015e+00 +8.1647098960020461e+00 +0.0000000000000000e+00 -3.1999999824666054e+00 +1.8131487594780395e-04 +0.0000000000000000e+00 +9.9999998356245778e-01
-3.3000000000000016e+00 +8.1646914812102249e+00 +0.0000000000000000e+00 -3.2999999807709490e+00 +1.8698096053776061e-04 +0.0000000000000000e+00 +9.9999998251906008e-01
-3.4000000000000017e+00 +8.1646724998099227e+00 +0.0000000000000000e+00 -3.3999999789693476e+00 +1.9264704560137305e-04 +0.0000000000000000e+00 +9.9999998144355773e-01
-3.5000000000000018e+00 +8.1646529518010880e+00 +0.0000000000000000e+00 -3.4999999770585903e+00 +1.9831313120496972e-04 +0.0000000000000000e+00 +9.9999998033595083e-01
-3.6000000000000019e+00 +8.1646328371836621e+00 +0.0000000000000000e+00 -3.5999999750354674e+00 +2.0397921741425304e-04 +0.0000000000000000e+00 +9.9999997919623929e-01
-3.7000000000000020e+00 +8.1646121559575828e+00 +0.0000000000000000e+00 -3.6999999728967681e+00 +2.0964530429429959e-04 +0.0000000000000000e+00 +9.9999997802442298e-01
-3.8000000000000020e+00 +8.1645909081227792e+00 +0.0000000000000000e+00 -3.7999999706392820e+00 +2.1531139190956024e-04 +0.0000000000000000e+00 +9.9999997682050201e-01
-3.9000000000000021e+00 +8.1645690936791748e+00 +0.0000000000000000e+00 -3.8999999682597983e+00 +2.2097748032386038e-04 +0.0000000000000000e+00 +9.9999997558447629e-01
-4.0000000000000018e+00 +8.1645467126266862e+00 +0.0000000000000000e+00 -3.9999999657551069e+00 +2.2664356960040003e-04 +0.0000000000000000e+00 +9.9999997431634580e-01
-4.1000000000000014e+00 +8.1645237649652245e+00 +0.0000000000000000e+00 -4.0999999631219968e+00 +2.3230965980151783e-04 +0.0000000000000000e+00 +9.9999997301611054e-01
-4.2000000000000011e+00 +8.1645002506946938e+00 +0.0000000000000000e+00 -4.1999999603572586e+00 +2.3797575098609251e-04 +0.0000000000000000e+00 +9.9999997168377053e-01
-4.3000000000000007e+00 +8.1644761698149928e+00 +0.0000000000000000e+00 -4.2999999574576808e+00 +2.4364184320694416e-04 +0.0000000000000000e+00 +9.9999997031932564e-01
-4.4000000000000004e+00 +8.1644515223260168e+00 +0.0000000000000000e+00 -4.3999999544200534e+00 +2.4930793651059790e-04 +0.0000000000000000e+00 +9.9999996892277587e-01
-4.5000000000000000e+00 +8.1644263082276538e+00 +0.0000000000000000e+00 -4.4999999512411657e+00 +2.5497403093728370e-04 +0.0000000000000000e+00 +9.9999996749412123e-01
-4.5999999999999996e+00 +8.1644005275197902e+00 +0.0000000000000000e+00 -4.5999999479178078e+00 +2.6064012652093644e-04 +0.0000000000000000e+00 +9.9999996603336161e-01
-4.6999999999999993e+00 +8.1643741802023104e+00 +0.0000000000000000e+00 -4.6999999444467679e+00 +2.6630622328919557e-04 +0.0000000000000000e+00 +9.9999996454049700e-01
-4.7999999999999989e+00 +8.1643472662750938e+00 +0.0000000000000000e+00 -4.7999999408248364e+00 +2.7197232126340508e-04 +0.0000000000000000e+00 +9.9999996301552740e-01
-4.8999999999999986e+00 +8.1643197857380176e+00 +0.0000000000000000e+00 -4.8999999370488032e+00 +2.7763842045861332e-04 +0.0000000000000000e+00 +9.9999996145845282e-01
-4.9999999999999982e+00 +8.1642917385909612e+00 +0.0000000000000000e+00 -4.9999999331154568e+00 +2.8330452088357283e-04 +0.0000000000000000e+00 +9.9999995986927326e-01
-5.0999999999999979e+00 +8.1642631248338002e+00 +0.0000000000000000e+00 -5.0999999290215872e+00 +2.8897062254074014e-04 +0.0000000000000000e+00 +9.9999995824798860e-01
-5.1999999999999975e+00 +8.1642339444664120e+00 +0.0000000000000000e+00 -5.1999999247639836e+00 +2.9463672542627561e-04 +0.0000000000000000e+00 +9.9999995659459884e-01
-5.2999999999999972e+00 +8.1642041974886741e+00 +0.0000000000000000e+00 -5.2999999203394363e+00 +3.0030282953004336e-04 +0.0000000000000000e+00 +9.9999995490910398e-01
-5.3999999999999968e+00 +8.1641738839004656e+00 +0.0000000000000000e+00 -5.3999999157447345e+00 +3.0596893483561083e-04 +0.0000000000000000e+00 +9.9999995319150403e-01
-5.4999999999999964e+00 +8.1641430037016676e+00 +0.0000000000000000e+00 -5.4999999109766673e+00 +3.1163504132024870e-04 +0.0000000000000000e+00 +9.9999995144179898e-01
-5.5999999999999961e+00 +8.1641115568921627e+00 +0.0000000000000000e+00 -5.5999999060320240e+00 +3.1730114895493072e-04 +0.0000000000000000e+00 +9.9999994965998884e-01
-5.6999999999999957e+00 +8.1640795434718392e+00 +0.0000000000000000e+00 -5.6999999009075948e+00 +3.2296725770433336e-04 +0.0000000000000000e+00 +9.9999994784607349e-01
-5.7999999999999954e+00 +8.1640469634405868e+00 +0.0000000000000000e+00 -5.7999998956001688e+00 +3.2863336752683562e-04 +0.0000000000000000e+00 +9.9999994600005304e-01
-5.8999999999999950e+00 +8.1640138167983007e+00 +0.0000000000000000e+00 -5.8999998901065354e+00 +3.3429947837451885e-04 +0.0000000000000000e+00 +9.9999994412192750e-01
-5.9999999999999947e+00 +8.1639801035448798e+00 +0.0000000000000000e+00 -5.9999998844234845e+00 +3.3996559019316633e-04 +0.0000000000000000e+00 +9.9999994221169675e-01
-6.0999999999999943e+00 +8.1639458236802316e+00 +0.0000000000000000e+00 -6.0999998785478047e+00 +3.4563170292291638e-04 +0.0000000000000000e+00 +9.9999994026936090e-01
-6.1999999999999940e+00 +8.1639109772042673e+00 +0.0000000000000000e+00 -6.1999998724762859e+00 +3.5129781650544782e-04 +0.0000000000000000e+00 +9.9999993829491984e-01
-6.2999999999999936e+00 +8.1638755641169034e+00 +0.0000000000000000e+00 -6.2999998662057184e+00 +3.5696393089116549e-04 +0.0000000000000000e+00 +9.9999993628837369e-01
-6.3999999999999932e+00 +8.1638395844180636e+00 +0.0000000000000000e+00 -6.3999998597328904e+00 +3.6263004603985364e-04 +0.0000000000000000e+00 +9.9999993424972244e-01
-6.4999999999999929e+00 +8.1638030381076714e+00 +0.0000000000000000e+00 -6.4999998530545922e+00 +3.6829616192067560e-04 +0.0000000000000000e+00 +9.9999993217896599e-01
-6.5999999999999925e+00 +8.1637659251856558e+00 +0.0000000000000000e+00 -6.5999998461676128e+00 +3.7396227851217386e-04 +0.0000000000000000e+00 +9.9999993007610444e-01
-6.6999999999999922e+00 +8.1637282456519458e+00 +0.0000000000000000e+00 -6.6999998390687425e+00 +3.7962839580227005e-04 +0.0000000000000000e+00 +9.9999992794113768e-01
-6.7999999999999918e+00 +8.1636899995064720e+00 +0.0000000000000000e+00 -6.7999998317547705e+00 +3.8529451378826470e-04 +0.0000000000000000e+00 +9.9999992577406582e-01
-6.8999999999999915e+00 +8.1636511867491652e+00 +0.0000000000000000e+00 -6.8999998242224860e+00 +3.9096063247683727e-04 +0.0000000000000000e+00 +9.9999992357488876e-01
-6.9999999999999911e+00 +8.1636118073799526e+00 +0.0000000000000000e+00 -6.9999998164686783e+00 +3.9662675188404604e-04 +0.0000000000000000e+00 +9.9999992134360649e-01
-7.0999999999999908e+00 +8.1635718613987631e+00 +0.0000000000000000e+00 -7.0999998084901375e+00 +4.0229287203532801e-04 +0.0000000000000000e+00 +9.9999991908021901e-01
-7.1999999999999904e+00 +8.1635313488055203e+00 +0.0000000000000000e+00 -7.1999998002836518e+00 +4.0795899296549887e-04 +0.0000000000000000e+00 +9.9999991678472633e-01
-7.2999999999999901e+00 +8.1634902696001426e+00 +0.0000000000000000e+00 -7.2999997918460124e+00 +4.1362511471875293e-04 +0.0000000000000000e+00 +9.9999991445712832e-01
-7.3999999999999897e+00 +8.1634486237825463e+00 +0.0000000000000000e+00 -7.3999997831740076e+00 +4.1929123734866293e-04 +0.0000000000000000e+00 +9.9999991209742500e-01
-7.4999999999999893e+00 +8.1634064113526410e+00 +0.0000000000000000e+00 -7.4999997742644275e+00 +4.2495736091818011e-04 +0.0000000000000000e+00 +9.9999990970561636e-01
-7.5999999999999890e+00 +8.1633636323103289e+00 +0.0000000000000000e+00 -7.5999997651140614e+00 +4.3062348549963403e-04 +0.0000000000000000e+00 +9.9999990728170229e-01
-7.6999999999999886e+00 +8.1633202866555052e+00 +0.0000000000000000e+00 -7.6999997557196984e+00 +4.3628961117473243e-04 +0.0000000000000000e+00 +9.9999990482568279e-01
-7.7999999999999883e+00 +8.1632763743880545e+00 +0.0000000000000000e+00 -7.7999997460781278e+00 +4.4195573803456131e-04 +0.0000000000000000e+00 +9.9999990233755776e-01
-7.8999999999999879e+00 +8.1632318955078542e+00 +0.0000000000000000e+00 -7.8999997361861398e+00 +4.4762186617958475e-04 +0.0000000000000000e+00 +9.9999989981732718e-01
-7.9999999999999876e+00 +8.1631868500147711e+00 +0.0000000000000000e+00 -7.9999997260405236e+00 +4.5328799571964478e-04 +0.0000000000000000e+00 +9.9999989726499094e-01
-8.0999999999999872e+00 +8.1631412379086594e+00 +0.0000000000000000e+00 -8.0999997156380683e+00 +4.5895412677325208e-04 +0.0000000000000000e+00 +9.9999989468054895e-01
-8.1999999999999869e+00 +8.1630950591893612e+00 +0.0000000000000000e+00 -8.1999997049755642e+00 +4.6462025945978315e-04 +0.0000000000000000e+00 +9.9999989206400119e-01
-8.2999999999999865e+00 +8.1630483138567094e+00 +0.0000000000000000e+00 -8.2999996940497986e+00 +4.7028639389167784e-04 +0.0000000000000000e+00 +9.9999988941534756e-01
-8.3999999999999861e+00 +8.1630010019105228e+00 +0.0000000000000000e+00 -8.3999996828575636e+00 +4.7595253017373019e-04 +0.0000000000000000e+00 +9.9999988673458795e-01
-8.4999999999999858e+00 +8.1629531233506114e+00 +0.0000000000000000e+00 -8.4999996713956474e+00 +4.8161866840308864e-04 +0.0000000000000000e+00 +9.9999988402172224e-01
-8.5999999999999854e+00 +8.1629046781767745e+00 +0.0000000000000000e+00 -8.5999996596608383e+00 +4.8728480866925628e-04 +0.0000000000000000e+00 +9.9999988127675044e-01
-8.6999999999999851e+00 +8.1628556663888059e+00 +0.0000000000000000e+00 -8.6999996476499266e+00 +4.9295095105409120e-04 +0.0000000000000000e+00 +9.9999987849967242e-01
-8.7999999999999847e+00 +8.1628060879864908e+00 +0.0000000000000000e+00 -8.7999996353597023e+00 +4.9861709563180654e-04 +0.0000000000000000e+00 +9.9999987569048809e-01
-8.8999999999999844e+00 +8.1627559429696053e+00 +0.0000000000000000e+00 -8.8999996227869538e+00 +5.0428324246897102e-04 +0.0000000000000000e+00 +9.9999987284919745e-01
-8.9999999999999840e+00 +8.1627052313379203e+00 +0.0000000000000000e+00 -8.9999996099284711e+00 +5.0994939162450918e-04 +0.0000000000000000e+00 +9.9999986997580037e-01
-9.0999999999999837e+00 +8.1626539530912012e+00 +0.0000000000000000e+00 -9.0999995967810428e+00 +5.1561554314970141e-04 +0.0000000000000000e+00 +9.9999986707029687e-01
-9.1999999999999833e+00 +8.1626021082292102e+00 +0.0000000000000000e+00 -9.1999995833414587e+00 +5.2128169708818444e-04 +0.0000000000000000e+00 +9.9999986413268682e-01
-9.2999999999999829e+00 +8.1625496967517019e+00 +0.0000000000000000e+00 -9.2999995696065092e+00 +5.2694785347595174e-04 +0.0000000000000000e+00 +9.9999986116297013e-01
-9.3999999999999826e+00 +8.1624967186584314e+00 +0.0000000000000000e+00 -9.3999995555729825e+00 +5.3261401234135368e-04 +0.0000000000000000e+00 +9.9999985816114678e-01
-9.4999999999999822e+00 +8.1624431739491499e+00 +0.0000000000000000e+00 -9.4999995412376688e+00 +5.3828017370509775e-04 +0.0000000000000000e+00 +9.9999985512721667e-01
-9.5999999999999819e+00 +8.1623890626236069e+00 +0.0000000000000000e+00 -9.5999995265973563e+00 +5.4394633758024936e-04 +0.0000000000000000e+00 +9.9999985206117981e-01
-9.6999999999999815e+00 +8.1623343846815501e+00 +0.0000000000000000e+00 -9.6999995116488353e+00 +5.4961250397223156e-04 +0.0000000000000000e+00 +9.9999984896303618e-01
-9.7999999999999812e+00 +8.1622791401227293e+00 +0.0000000000000000e+00 -9.7999994963888941e+00 +5.5527867287882577e-04 +0.0000000000000000e+00 +9.9999984583278567e-01
-9.8999999999999808e+00 +8.1622233289468920e+00 +0.0000000000000000e+00 -9.8999994808143228e+00 +5.6094484429017213e-04 +0.0000000000000000e+00 +9.9999984267042830e-01
-9.9999999999999805e+00 +8.1621669511537878e+00 +0.0000000000000000e+00 -9.9999994649219097e+00 +5.6661101818876968e-04 +0.0000000000000000e+00 +9.9999983947596394e-01
-1.0099999999999980e+01 +8.1621100067431716e+00 +0.0000000000000000e+00 -1.0099999448708445e+01 +5.7227719455022277e-04 +0.0000000000000000e+00 +9.9999983624939270e-01
-1.0199999999999980e+01 +8.1620524957147964e+00 +0.0000000000000000e+00 -1.0199999432170719e+01 +5.7794337335144745e-04 +0.0000000000000000e+00 +9.9999983299071449e-01
-1.0299999999999979e+01 +8.1619944180684207e+00 +0.0000000000000000e+00 -1.0299999415305518e+01 +5.8360955457887763e-04 +0.0000000000000000e+00 +9.9999982969992929e-01
-1.0399999999999979e+01 +8.1619357738038012e+00 +0.0000000000000000e+00 -1.0399999398109633e+01 +5.8927573822921181e-04 +0.0000000000000000e+00 +9.9999982637703699e-01
-1.0499999999999979e+01 +8.1618765629206944e+00 +0.0000000000000000e+00 -1.0499999380579855e+01 +5.9494192430941393e-04 +0.0000000000000000e+00 +9.9999982302203760e-01
-1.0599999999999978e+01 +8.1618167854188570e+00 +0.0000000000000000e+00 -1.0599999362712971e+01 +6.0060811283671369e-04 +0.0000000000000000e+00 +9.9999981963493101e-01
-1.0699999999999978e+01 +8.1617564412980439e+00 +0.0000000000000000e+00 -1.0699999344505772e+01 +6.0627430383860777e-04 +0.0000000000000000e+00 +9.9999981621571721e-01
-1.0799999999999978e+01 +8.1616955305580046e+00 +0.0000000000000000e+00 -1.0799999325955044e+01 +6.1194049735286012e-04 +0.0000000000000000e+00 +9.9999981276439620e-01
-1.0899999999999977e+01 +8.1616340531984868e+00 +0.0000000000000000e+00 -1.0899999307057580e+01 +6.1760669342750295e-04 +0.0000000000000000e+00 +9.9999980928096777e-01
-1.0999999999999977e+01 +8.1615720092192312e+00 +0.0000000000000000e+00 -1.0999999287810168e+01 +6.2327289212083740e-04 +0.0000000000000000e+00 +9.9999980576543190e-01
-1.1099999999999977e+01 +8.1615093986199732e+00 +0.0000000000000000e+00 -1.1099999268209595e+01 +6.2893909350143426e-04 +0.0000000000000000e+00 +9.9999980221778861e-01
-1.1199999999999976e+01 +8.1614462214004391e+00 +0.0000000000000000e+00 -1.1199999248252654e+01 +6.3460529764813498e-04 +0.0000000000000000e+00 +9.9999979863803767e-01
-1.1299999999999976e+01 +8.1613824775603483e+00 +0.0000000000000000e+00 -1.1299999227936132e+01 +6.4027150465005209e-04 +0.0000000000000000e+00 +9.9999979502617897e-01
-1.1399999999999975e+01 +8.1613181670994113e+00 +0.0000000000000000e+00 -1.1399999207256819e+01 +6.4593771460657050e-04 +0.0000000000000000e+00 +9.9999979138221251e-01
-1.1499999999999975e+01 +8.1612532900173260e+00 +0.0000000000000000e+00 -1.1499999186211504e+01 +6.5160392762734782e-04 +0.0000000000000000e+00 +9.9999978770613807e-01
-1.1599999999999975e+01 +8.1611878463137799e+00 +0.0000000000000000e+00 -1.1599999164796976e+01 +6.5727014383231569e-04 +0.0000000000000000e+00 +9.9999978399795553e-01
-1.1699999999999974e+01 +8.1611218359884496e+00 +0.0000000000000000e+00 -1.1699999143010025e+01 +6.6293636335168016e-04 +0.0000000000000000e+00 +9.9999978025766478e-01
