# field on trajectory
# s[mm] rx[mm] ry[mm] rz[mm] bx[T] by[T] bz[T]
0.0000000000000000e+00 +8.1530000000000094e+00 +0.0000000000000000e+00 +0.0000000000000000e+00 -3.2074346337752212e-02 -5.9244025803764377e-01 +5.8871161662746099e-03
1.0000000000000001e-01 +8.1529997163925092e+00 +0.0000000000000000e+00 +9.9999999999463796e-02 -3.2074459496385162e-02 -5.9244024042796573e-01 +5.8871554025621674e-03
2.0000000000000001e-01 +8.1529988655711296e+00 +0.0000000000000000e+00 +1.9999999999571000e-01 -3.2074578388564166e-02 -5.9244023132519141e-01 +5.8871940282957487e-03
2.9999999999999999e-01 +8.1529974475415692e+00 +0.0000000000000000e+00 +2.9999999998552201e-01 -3.2074701594459062e-02 -5.9244023043716887e-01 +5.8872322699249757e-03
4.0000000000000002e-01 +8.1529954622965306e+00 +0.0000000000000000e+00 +3.9999999996568197e-01 -3.2074827694248728e-02 -5.9244023747185093e-01 +5.8872703538985658e-03
5.0000000000000000e-01 +8.1529929098396696e+00 +0.0000000000000000e+00 +4.9999999993297300e-01 -3.2074955268108829e-02 -5.9244025213709783e-01 +5.8873085066626484e-03
5.9999999999999998e-01 +8.1529897901673394e+00 +0.0000000000000000e+00 +5.9999999988417696e-01 -3.2075082896218229e-02 -5.9244027414082545e-01 +5.8873469546626067e-03
6.9999999999999996e-01 +8.1529861032831796e+00 +0.0000000000000000e+00 +6.9999999981607697e-01 -3.2075209158750978e-02 -5.9244030319088592e-01 +5.8873859243421863e-03
8.0000000000000004e-01 +8.1529818491871993e+00 +0.0000000000000000e+00 +7.9999999972545699e-01 -3.2075332635879319e-02 -5.9244033899515536e-01 +5.8874256421447002e-03
9.0000000000000002e-01 +8.1529770278793894e+00 +0.0000000000000000e+00 +8.9999999960909804e-01 -3.2075451907770440e-02 -5.9244038126150333e-01 +5.8874663345130657e-03
1.0000000000000000e+00 +8.1529716393597500e+00 +0.0000000000000000e+00 +9.9999999946378304e-01 -3.2075565554584906e-02 -5.9244042969779342e-01 +5.8875082278901023e-03
1.1000000000000001e+00 +8.1529656836210105e+00 +0.0000000000000000e+00 +1.0999999992862901e+00 -3.2075672156478094e-02 -5.9244048401193983e-01 +5.8875515487194574e-03
1.2000000000000000e+00 +8.1529591606740706e+00 +0.0000000000000000e+00 +1.1999999990734200e+00 -3.2075770293587436e-02 -5.9244054391169998e-01 +5.8875965234438127e-03
1.3000000000000000e+00 +8.1529520705153100e+00 +0.0000000000000000e+00 +1.2999999988219300e+00 -3.2075858546045027e-02 -5.9244060910494123e-01 +5.8876433785079113e-03
1.3999999999999999e+00 +8.1529444131410909e+00 +0.0000000000000000e+00 +1.3999999985286200e+00 -3.2075935493969650e-02 -5.9244067929951960e-01 +5.8876923403576699e-03
1.5000000000000000e+00 +8.1529361885550298e+00 +0.0000000000000000e+00 +1.4999999981902701e+00 -3.2075999717461876e-02 -5.9244075420322140e-01 +5.8877436354398899e-03
1.6000000000000001e+00 +8.1529273967571498e+00 +0.0000000000000000e+00 +1.5999999978036501e+00 -3.2076049796607206e-02 -5.9244083352385069e-01 +5.8877974902034743e-03
1.7000000000000000e+00 +8.1529180377474404e+00 +0.0000000000000000e+00 +1.6999999973655600e+00 -3.2076084311472845e-02 -5.9244091696919920e-01 +5.8878541310994556e-03
1.8000000000000000e+00 +8.1529081115222706e+00 +0.0000000000000000e+00 +1.7999999968727800e+00 -3.2076101842107525e-02 -5.9244100424707424e-01 +5.8879137845815966e-03
1.8999999999999999e+00 +8.1528976180852606e+00 +0.0000000000000000e+00 +1.8999999963220899e+00 -3.2076100968535234e-02 -5.9244109506521025e-01 +5.8879766771058085e-03
2.0000000000000000e+00 +8.1528865574327902e+00 +0.0000000000000000e+00 +1.9999999957102601e+00 -3.2076080270759748e-02 -5.9244118913138533e-01 +5.8880430351316813e-03
2.1000000000000001e+00 +8.1528749295721408e+00 +0.0000000000000000e+00 +2.0999999950340902e+00 -3.2076038876100721e-02 -5.9244128615828084e-01 +5.8881130345434683e-03
2.2000000000000002e+00 +8.1528627344960096e+00 +0.0000000000000000e+00 +2.1999999942903599e+00 -3.2075978101252046e-02 -5.9244138587871453e-01 +5.8881866489180314e-03
2.2999999999999998e+00 +8.1528499722080596e+00 +0.0000000000000000e+00 +2.2999999934758399e+00 -3.2075899810254521e-02 -5.9244148803042107e-01 +5.8882638012543740e-03
2.3999999999999999e+00 +8.1528366427046404e+00 +0.0000000000000000e+00 +2.3999999925873299e+00 -3.2075805867163264e-02 -5.9244159235119631e-01 +5.8883444145526780e-03
2.5000000000000000e+00 +8.1528227459894005e+00 +0.0000000000000000e+00 +2.4999999916215998e+00 -3.2075698136043752e-02 -5.9244169857877793e-01 +5.8884284118130093e-03
2.6000000000000001e+00 +8.1528082820659602e+00 +0.0000000000000000e+00 +2.5999999905754398e+00 -3.2075578480977550e-02 -5.9244180645090871e-01 +5.8885157160358985e-03
2.7000000000000002e+00 +8.1527932509234198e+00 +0.0000000000000000e+00 +2.6999999894456299e+00 -3.2075448766071019e-02 -5.9244191570545324e-01 +5.8886062502234490e-03
2.7999999999999998e+00 +8.1527776525726896e+00 +0.0000000000000000e+00 +2.7999999882289601e+00 -3.2075310855441908e-02 -5.9244202608010499e-01 +5.8886999373762797e-03
2.8999999999999999e+00 +8.1527614870065008e+00 +0.0000000000000000e+00 +2.8999999869222002e+00 -3.2075166613239225e-02 -5.9244213731271156e-01 +5.8887967004967708e-03
3.0000000000000000e+00 +8.1527447542284808e+00 +0.0000000000000000e+00 +2.9999999855221300e+00 -3.2075017903633096e-02 -5.9244224914104049e-01 +5.8888964625866064e-03
3.1000000000000001e+00 +8.1527274542386294e+00 +0.0000000000000000e+00 +3.0999999840255499e+00 -3.2074866590823446e-02 -5.9244236130289774e-01 +5.8889991466479054e-03
3.2000000000000002e+00 +8.1527095870333106e+00 +0.0000000000000000e+00 +3.1999999824292300e+00 -3.2074714539042488e-02 -5.9244247353612944e-01 +5.8891046756831631e-03
3.2999999999999998e+00 +8.1526911526198091e+00 +0.0000000000000000e+00 +3.2999999807299600e+00 -3.2074563612550816e-02 -5.9244258557850404e-01 +5.8892129726939848e-03
3.3999999999999999e+00 +8.1526721509872004e+00 +0.0000000000000000e+00 +3.3999999789245101e+00 -3.2074415675652564e-02 -5.9244269716795117e-01 +5.8893239606834418e-03
3.5000000000000000e+00 +8.1526525821464002e+00 +0.0000000000000000e+00 +3.4999999770096801e+00 -3.2074272592680350e-02 -5.9244280804223604e-01 +5.8894375626526857e-03
3.6000000000000001e+00 +8.1526324460901396e+00 +0.0000000000000000e+00 +3.5999999749822500e+00 -3.2074136228015186e-02 -5.9244291793928694e-01 +5.8895537016042067e-03
3.7000000000000002e+00 +8.1526117428220495e+00 +0.0000000000000000e+00 +3.6999999728389801e+00 -3.2074008446076281e-02 -5.9244302659695969e-01 +5.8896723005393663e-03
3.7999999999999998e+00 +8.1525904723421299e+00 +0.0000000000000000e+00 +3.7999999705766800e+00 -3.2073891111329772e-02 -5.9244313375315627e-01 +5.8897932824595305e-03
3.8999999999999999e+00 +8.1525686346503807e+00 +0.0000000000000000e+00 +3.8999999681921298e+00 -3.2073786088289605e-02 -5.9244323914579800e-01 +5.8899165703657176e-03
4.0000000000000000e+00 +8.1525462297431694e+00 +0.0000000000000000e+00 +3.9999999656820902e+00 -3.2073695241521503e-02 -5.9244334251285413e-01 +5.8900420872588346e-03
4.0999999999999996e+00 +8.1525232576241304e+00 +0.0000000000000000e+00 +4.0999999630433699e+00 -3.2073620186480099e-02 -5.9244344368349433e-01 +5.8901697461069312e-03
4.2000000000000002e+00 +8.1524997182896204e+00 +0.0000000000000000e+00 +4.1999999602727298e+00 -3.2073561542012838e-02 -5.9244354285191170e-01 +5.8902994197510966e-03
4.2999999999999998e+00 +8.1524756117469206e+00 +0.0000000000000000e+00 +4.2999999573669703e+00 -3.2073519677797285e-02 -5.9244364030345031e-01 +5.8904309709994695e-03
4.4000000000000004e+00 +8.1524509379887604e+00 +0.0000000000000000e+00 +4.3999999543228601e+00 -3.2073494963506519e-02 -5.9244373632356773e-01 +5.8905642626611125e-03
4.5000000000000000e+00 +8.1524256970187707e+00 +0.0000000000000000e+00 +4.4999999511372000e+00 -3.2073487768796781e-02 -5.9244383119763089e-01 +5.8906991575438912e-03
4.5999999999999996e+00 +8.1523998888369498e+00 +0.0000000000000000e+00 +4.5999999478067499e+00 -3.2073498463312158e-02 -5.9244392521103262e-01 +5.8908355184556184e-03
4.7000000000000002e+00 +8.1523735134396702e+00 +0.0000000000000000e+00 +4.6999999443283098e+00 -3.2073527416683123e-02 -5.9244401864919094e-01 +5.8909732082040259e-03
4.7999999999999998e+00 +8.1523465708305594e+00 +0.0000000000000000e+00 +4.7999999406986600e+00 -3.2073574998520350e-02 -5.9244411179746204e-01 +5.8911120895958242e-03
4.9000000000000004e+00 +8.1523190610096208e+00 +0.0000000000000000e+00 +4.8999999369145701e+00 -3.2073641578417869e-02 -5.9244420494122596e-01 +5.8912520254375492e-03
5.0000000000000000e+00 +8.1522909839768491e+00 +0.0000000000000000e+00 +4.9999999329728402e+00 -3.2073727525950203e-02 -5.9244429836585788e-01 +5.8913928785352511e-03
5.0999999999999996e+00 +8.1522623397286207e+00 +0.0000000000000000e+00 +5.0999999288702398e+00 -3.2073833210672163e-02 -5.9244439235675772e-01 +5.8915345116947312e-03
5.2000000000000002e+00 +8.1522331282685592e+00 +0.0000000000000000e+00 +5.1999999246035600e+00 -3.2073959002112899e-02 -5.9244448719926091e-01 +5.8916767877206129e-03
5.2999999999999998e+00 +8.1522033495966806e+00 +0.0000000000000000e+00 +5.2999999201695802e+00 -3.2074105269778982e-02 -5.9244458317872617e-01 +5.8918195694172004e-03
5.4000000000000004e+00 +8.1521730037093203e+00 +0.0000000000000000e+00 +5.3999999155650800e+00 -3.2074272383152955e-02 -5.9244468058053601e-01 +5.8919627195884476e-03
5.5000000000000000e+00 +8.1521420906137791e+00 +0.0000000000000000e+00 +5.4999999107868396e+00 -3.2074460711685536e-02 -5.9244477968997677e-01 +5.8921061010367062e-03
5.5999999999999996e+00 +8.1521106102991308e+00 +0.0000000000000000e+00 +5.5999999058316599e+00 -3.2074670624806796e-02 -5.9244488079247692e-01 +5.8922495765651008e-03
5.7000000000000002e+00 +8.1520785627762997e+00 +0.0000000000000000e+00 +5.6999999006963096e+00 -3.2074902491907226e-02 -5.9244498417327918e-01 +5.8923930089741800e-03
5.7999999999999998e+00 +8.1520459480379905e+00 +0.0000000000000000e+00 +5.7999998953775700e+00 -3.2075156682353646e-02 -5.9244509011776736e-01 +5.8925362610651854e-03
5.9000000000000004e+00 +8.1520127660915005e+00 +0.0000000000000000e+00 +5.8999998898722197e+00 -3.2075433565473523e-02 -5.9244519891119773e-01 +5.8926791956373046e-03
5.9999999999999902e+00 +8.1519790169259103e+00 +0.0000000000000000e+00 +5.9999998841770603e+00 -3.2075733510567708e-02 -5.9244531083896745e-01 +5.8928216754903541e-03
6.0999999999999899e+00 +8.1519447005521197e+00 +0.0000000000000000e+00 +6.0999998782888598e+00 -3.2076056328017410e-02 -5.9244542614208107e-01 +5.8929635900277682e-03
6.1999999999999904e+00 +8.1519098169665103e+00 +0.0000000000000000e+00 +6.1999998722044003e+00 -3.2076399592679751e-02 -5.9244554488483014e-01 +5.8931049350793470e-03
6.2999999999999901e+00 +8.1518743661654298e+00 +0.0000000000000000e+00 +6.2999998659204701e+00 -3.2076760320526421e-02 -5.9244566708729152e-01 +5.8932457330811887e-03
6.3999999999999897e+00 +8.1518383481488907e+00 +0.0000000000000000e+00 +6.3999998594338496e+00 -3.2077135527522588e-02 -5.9244579276950315e-01 +5.8933860064689083e-03
6.4999999999999902e+00 +8.1518017629241495e+00 +0.0000000000000000e+00 +6.4999998527413201e+00 -3.2077522229625247e-02 -5.9244592195143664e-01 +5.8935257776773333e-03
6.5999999999999899e+00 +8.1517646104839496e+00 +0.0000000000000000e+00 +6.5999998458396698e+00 -3.2077917442792710e-02 -5.9244605465317124e-01 +5.8936650691423014e-03
6.6999999999999904e+00 +8.1517268908319203e+00 +0.0000000000000000e+00 +6.6999998387256703e+00 -3.2078318182973235e-02 -5.9244619089468886e-01 +5.8938039032985483e-03
6.7999999999999901e+00 +8.1516886039680703e+00 +0.0000000000000000e+00 +6.7999998313961196e+00 -3.2078721466111397e-02 -5.9244633069599018e-01 +5.8939423025808953e-03
6.8999999999999897e+00 +8.1516497498923908e+00 +0.0000000000000000e+00 +6.8999998238477902e+00 -3.2079124308146391e-02 -5.9244647407706674e-01 +5.8940802894239600e-03
6.9999999999999902e+00 +8.1516103286012402e+00 +0.0000000000000000e+00 +6.9999998160774597e+00 -3.2079523725013402e-02 -5.9244662105792933e-01 +5.8942178862624412e-03
7.0999999999999899e+00 +8.1515703400982602e+00 +0.0000000000000000e+00 +7.0999998080819298e+00 -3.2079916732638887e-02 -5.9244677165851722e-01 +5.8943551155302030e-03
7.1999999999999904e+00 +8.1515297843834595e+00 +0.0000000000000000e+00 +7.1999997998579603e+00 -3.2080300346945159e-02 -5.9244692589879022e-01 +5.8944919996611828e-03
7.2999999999999901e+00 +8.1514886614531896e+00 +0.0000000000000000e+00 +7.2999997914023496e+00 -3.2080671583850320e-02 -5.9244708379872502e-01 +5.8946285610893814e-03
7.3999999999999897e+00 +8.1514469713147300e+00 +0.0000000000000000e+00 +7.3999997827118804e+00 -3.2081027459261793e-02 -5.9244724537819882e-01 +5.8947648222476444e-03
7.4999999999999902e+00 +8.1514047139571595e+00 +0.0000000000000000e+00 +7.4999997737833199e+00 -3.2081364989088916e-02 -5.9244741065722428e-01 +5.8949008055700835e-03
7.5999999999999899e+00 +8.1513618893914099e+00 +0.0000000000000000e+00 +7.5999997646134698e+00 -3.2081681189225442e-02 -5.9244757965562422e-01 +5.8950365334887334e-03
7.6999999999999904e+00 +8.1513184976138309e+00 +0.0000000000000000e+00 +7.6999997551991104e+00 -3.2081973075565248e-02 -5.9244775239332770e-01 +5.8951720284365714e-03
7.7999999999999901e+00 +8.1512745386207808e+00 +0.0000000000000000e+00 +7.7999997455370096e+00 -3.2082237663995983e-02 -5.9244792889025077e-01 +5.8953073128463103e-03
7.8999999999999897e+00 +8.1512300124159101e+00 +0.0000000000000000e+00 +7.8999997356239602e+00 -3.2082471970395661e-02 -5.9244810916623680e-01 +5.8954424091497695e-03
7.9999999999999902e+00 +8.1511849189955701e+00 +0.0000000000000000e+00 +7.9999997254567399e+00 -3.2082673010639100e-02 -5.9244829324117532e-01 +5.8955773397790937e-03
8.0999999999999908e+00 +8.1511392583670403e+00 +0.0000000000000000e+00 +8.0999997150321406e+00 -3.2082838763763229e-02 -5.9244848094434965e-01 +5.8957121403618142e-03
8.1999999999999904e+00 +8.1510930305230396e+00 +0.0000000000000000e+00 +8.1999997043469399e+00 -3.2082971061537693e-02 -5.9244867134313772e-01 +5.8958468993143328e-03
8.2999999999999901e+00 +8.1510462354672200e+00 +0.0000000000000000e+00 +8.2999996933979094e+00 -3.2083072698931209e-02 -5.9244886331433910e-01 +5.8959817182520063e-03
8.3999999999999897e+00 +8.1509988731995708e+00 +0.0000000000000000e+00 +8.3999996821818605e+00 -3.2083146470931093e-02 -5.9244905573480533e-01 +5.8961166987939583e-03
8.4999999999999893e+00 +8.1509509437164507e+00 +0.0000000000000000e+00 +8.4999996706955496e+00 -3.2083195172543787e-02 -5.9244924748143823e-01 +5.8962519425631854e-03
8.5999999999999908e+00 +8.1509024470215099e+00 +0.0000000000000000e+00 +8.5999996589357703e+00 -3.2083221598790741e-02 -5.9244943743110456e-01 +5.8963875511857449e-03
8.6999999999999904e+00 +8.1508533831147396e+00 +0.0000000000000000e+00 +8.6999996468993004e+00 -3.2083228544713682e-02 -5.9244962446072358e-01 +5.8965236262917779e-03
8.7999999999999794e+00 +8.1508037519961398e+00 +0.0000000000000000e+00 +8.7999996345829192e+00 -3.2083218805373619e-02 -5.9244980744723841e-01 +5.8966602695152926e-03
8.8999999999999808e+00 +8.1507535536620708e+00 +0.0000000000000000e+00 +8.8999996219834205e+00 -3.2083195175853070e-02 -5.9244998526764769e-01 +5.8967975824946025e-03
8.9999999999999805e+00 +8.1507027881161793e+00 +0.0000000000000000e+00 +8.9999996090975891e+00 -3.2083160451251785e-02 -5.9245015679891622e-01 +5.8969356668714815e-03
9.0999999999999801e+00 +8.1506514553584601e+00 +0.0000000000000000e+00 +9.0999995959221902e+00 -3.2083117426692072e-02 -5.9245032091806471e-01 +5.8970746242922121e-03
9.1999999999999797e+00 +8.1505995553889097e+00 +0.0000000000000000e+00 +9.1999995824540193e+00 -3.2083068897317886e-02 -5.9245047650214189e-01 +5.8972145564073642e-03
9.2999999999999794e+00 +8.1505470882038900e+00 +0.0000000000000000e+00 +9.2999995686898593e+00 -3.2083017658296860e-02 -5.9245062242825330e-01 +5.8973555648722158e-03
9.3999999999999808e+00 +8.1504940538070496e+00 +0.0000000000000000e+00 +9.3999995546264898e+00 -3.2082966504816193e-02 -5.9245075757347543e-01 +5.8974977513459289e-03
9.4999999999999805e+00 +8.1504404521983798e+00 +0.0000000000000000e+00 +9.4999995402606903e+00 -3.2082918232087899e-02 -5.9245088081494246e-01 +5.8976412174925859e-03
9.5999999999999801e+00 +8.1503862833778804e+00 +0.0000000000000000e+00 +9.5999995255892507e+00 -3.2082875635347882e-02 -5.9245099102981968e-01 +5.8977860649809723e-03
9.6999999999999797e+00 +8.1503315473419207e+00 +0.0000000000000000e+00 +9.6999995106089507e+00 -3.2082841509857990e-02 -5.9245108709533345e-01 +5.8979323954849883e-03
9.7999999999999794e+00 +8.1502762440941297e+00 +0.0000000000000000e+00 +9.7999994953165697e+00 -3.2082818650901859e-02 -5.9245116788868202e-01 +5.8980803106828492e-03
9.8999999999999808e+00 +8.1502203736345091e+00 +0.0000000000000000e+00 +9.8999994797088906e+00 -3.2082809853790230e-02 -5.9245123228712659e-01 +5.8982299122580873e-03
9.9999999999999805e+00 +8.1501639359594300e+00 +0.0000000000000000e+00 +9.9999994637827001e+00 -3.2082817913861500e-02 -5.9245127916799067e-01 +5.8983813018996609e-03
1.0100000000000000e+01 +8.1501069310761505e+00 +0.0000000000000000e+00 +1.0099999447534801e+01 -3.2082844931272059e-02 -5.9245130801695778e-01 +5.8985345375677520e-03
1.0199999999999999e+01 +8.1500493589774106e+00 +0.0000000000000000e+00 +1.0199999430961901e+01 -3.2082890225325691e-02 -5.9245132075355289e-01 +5.8986895022909549e-03
1.0300000000000001e+01 +8.1499912196668394e+00 +0.0000000000000000e+00 +1.0299999414060901e+01 -3.2082952420050638e-02 -5.9245131990567323e-01 +5.8988460353597144e-03
1.0400000000000000e+01 +8.1499325131444493e+00 +0.0000000000000000e+00 +1.0399999396828500e+01 -3.2083030139424401e-02 -5.9245130800126744e-01 +5.8990039760612152e-03
1.0500000000000000e+01 +8.1498732394065900e+00 +0.0000000000000000e+00 +1.0499999379261400e+01 -3.2083122007372358e-02 -5.9245128756834076e-01 +5.8991631636792557e-03
1.0600000000000000e+01 +8.1498133984568994e+00 +0.0000000000000000e+00 +1.0599999361356600e+01 -3.2083226647761795e-02 -5.9245126113486357e-01 +5.8993234374932427e-03
1.0699999999999999e+01 +8.1497529902953794e+00 +0.0000000000000000e+00 +1.0699999343110701e+01 -3.2083342684405207e-02 -5.9245123122886256e-01 +5.8994846367789802e-03
1.0800000000000001e+01 +8.1496920149220404e+00 +0.0000000000000000e+00 +1.0799999324520600e+01 -3.2083468741057497e-02 -5.9245120037838994e-01 +5.8996466008082562e-03
1.0900000000000000e+01 +8.1496304723332305e+00 +0.0000000000000000e+00 +1.0899999305583000e+01 -3.2083603441416156e-02 -5.9245117111155476e-01 +5.8998091688490283e-03
1.1000000000000000e+01 +8.1495683625325892e+00 +0.0000000000000000e+00 +1.0999999286294800e+01 -3.2083745409115176e-02 -5.9245114595643444e-01 +5.8999721801644240e-03
1.1100000000000000e+01 +8.1495056855201309e+00 +0.0000000000000000e+00 +1.1099999266652601e+01 -3.2083893267728571e-02 -5.9245112744116368e-01 +5.9001354740135141e-03
1.1199999999999999e+01 +8.1494424412958306e+00 +0.0000000000000000e+00 +1.1199999246653300e+01 -3.2084045640767347e-02 -5.9245111809390438e-01 +5.9002988896509128e-03
1.1300000000000001e+01 +8.1493786298560700e+00 +0.0000000000000000e+00 +1.1299999226293700e+01 -3.2084201151679891e-02 -5.9245112044287818e-01 +5.9004622663269618e-03
1.1400000000000000e+01 +8.1493142512044905e+00 +0.0000000000000000e+00 +1.1399999205570500e+01 -3.2084358423845744e-02 -5.9245113701627472e-01 +5.9006254432867160e-03
1.1500000000000000e+01 +8.1492493053447106e+00 +0.0000000000000000e+00 +1.1499999184480499e+01 -3.2084516080577594e-02 -5.9245117034231465e-01 +5.9007882597704384e-03
1.1600000000000000e+01 +8.1491837922658306e+00 +0.0000000000000000e+00 +1.1599999163020600e+01 -3.2084672745126164e-02 -5.9245122294936625e-01 +5.9009505550147003e-03
1.1699999999999999e+01 +8.1491177119787608e+00 +0.0000000000000000e+00 +1.1699999141187400e+01 -3.2084827040663150e-02 -5.9245129736565083e-01 +5.9011121682492331e-03
1.1800000000000001e+01 +8.1490510644762306e+00 +0.0000000000000000e+00 +1.1799999118977800e+01 -3.2084977590297249e-02 -5.9245139611956754e-01 +5.9012729387001644e-03
