# field on trajectory
# s[mm] rx[mm] ry[mm] rz[mm] bx[T] by[T] bz[T]
0.0000000000000000e+00 +7.9199999999999999e+00 +0.0000000000000000e+00 +0.0000000000000000e+00 -2.9749239095051262e-02 -5.6688643116412518e-01 +5.6815835361279793e-03
1.0000000000000001e-01 +7.9199997167529315e+00 +0.0000000000000000e+00 +9.9999999999465142e-02 -2.9749250795180805e-02 -5.6688602668552290e-01 +5.6815796699849590e-03
2.0000000000000001e-01 +7.9199988670119952e+00 +0.0000000000000000e+00 +1.9999999999572110e-01 -2.9749265424397622e-02 -5.6688561835526785e-01 +5.6815775554348398e-03
3.0000000000000004e-01 +7.9199974507775996e+00 +0.0000000000000000e+00 +2.9999999998555882e-01 -2.9749283042167559e-02 -5.6688520713469359e-01 +5.6815770698058054e-03
4.0000000000000002e-01 +7.9199954680501561e+00 +0.0000000000000000e+00 +3.9999999996576907e-01 -2.9749303707958329e-02 -5.6688479398513247e-01 +5.6815780904273432e-03
5.0000000000000000e-01 +7.9199929188300766e+00 +0.0000000000000000e+00 +4.9999999993314276e-01 -2.9749327481240130e-02 -5.6688437986791529e-01 +5.6815804946299935e-03
5.9999999999999998e-01 +7.9199898031177760e+00 +0.0000000000000000e+00 +5.9999999988447072e-01 -2.9749354421486320e-02 -5.6688396574437494e-01 +5.6815841597450852e-03
6.9999999999999996e-01 +7.9199861209136673e+00 +0.0000000000000000e+00 +6.9999999981654393e-01 -2.9749384588174072e-02 -5.6688355257584844e-01 +5.6815889631044864e-03
7.9999999999999993e-01 +7.9199818722181634e+00 +0.0000000000000000e+00 +7.9999999972615310e-01 -2.9749418040784969e-02 -5.6688314132367712e-01 +5.6815947820403343e-03
8.9999999999999991e-01 +7.9199770570316756e+00 +0.0000000000000000e+00 +8.9999999961008925e-01 -2.9749454838805721e-02 -5.6688273294921132e-01 +5.6816014938847852e-03
9.9999999999999989e-01 +7.9199716753546126e+00 +0.0000000000000000e+00 +9.9999999946514329e-01 -2.9749495041728774e-02 -5.6688232841380970e-01 +5.6816089759697532e-03
1.0999999999999999e+00 +7.9199657271873782e+00 +0.0000000000000000e+00 +1.0999999992881060e+00 -2.9749538709052972e-02 -5.6688192867884357e-01 +5.6816171056266540e-03
1.2000000000000000e+00 +7.9199592125303724e+00 +0.0000000000000000e+00 +1.1999999990757686e+00 -2.9749585900284183e-02 -5.6688153470569647e-01 +5.6816257601861450e-03
1.3000000000000000e+00 +7.9199521313839885e+00 +0.0000000000000000e+00 +1.2999999988249218e+00 -2.9749636674935950e-02 -5.6688114745576812e-01 +5.6816348169778583e-03
1.4000000000000001e+00 +7.9199444837486137e+00 +0.0000000000000000e+00 +1.3999999985323563e+00 -2.9749691092530173e-02 -5.6688076789047581e-01 +5.6816441533301641e-03
1.5000000000000002e+00 +7.9199362696246274e+00 +0.0000000000000000e+00 +1.4999999981948635e+00 -2.9749749212597730e-02 -5.6688039697125581e-01 +5.6816536465698880e-03
1.6000000000000003e+00 +7.9199274890124007e+00 +0.0000000000000000e+00 +1.5999999978092341e+00 -2.9749811094679120e-02 -5.6688003565956602e-01 +5.6816631740220719e-03
1.7000000000000004e+00 +7.9199181419122944e+00 +0.0000000000000000e+00 +1.6999999973722590e+00 -2.9749876798325119e-02 -5.6687968491688745e-01 +5.6816726130096999e-03
1.8000000000000005e+00 +7.9199082283246600e+00 +0.0000000000000000e+00 +1.7999999968807292e+00 -2.9749946383097439e-02 -5.6687934570472664e-01 +5.6816818408534486e-03
1.9000000000000006e+00 +7.9198977482498361e+00 +0.0000000000000000e+00 +1.8999999963314356e+00 -2.9750019908569358e-02 -5.6687901898461734e-01 +5.6816907348714342e-03
2.0000000000000004e+00 +7.9198867016881493e+00 +0.0000000000000000e+00 +1.9999999957211692e+00 -2.9750097434326370e-02 -5.6687870571812260e-01 +5.6816991723789446e-03
2.1000000000000005e+00 +7.9198750886399134e+00 +0.0000000000000000e+00 +2.0999999950467210e+00 -2.9750179046518468e-02 -5.6687840662980016e-01 +5.6817070857121156e-03
2.2000000000000006e+00 +7.9198629091054276e+00 +0.0000000000000000e+00 +2.1999999943048820e+00 -2.9750264937510817e-02 -5.6687812149608052e-01 +5.6817146273005293e-03
2.3000000000000007e+00 +7.9198501630849769e+00 +0.0000000000000000e+00 +2.2999999934924431e+00 -2.9750355326220466e-02 -5.6687784985635836e-01 +5.6817220045971050e-03
2.4000000000000008e+00 +7.9198368505788341e+00 +0.0000000000000000e+00 +2.3999999926061952e+00 -2.9750450431562589e-02 -5.6687759125002302e-01 +5.6817294250544829e-03
2.5000000000000009e+00 +7.9198229715872568e+00 +0.0000000000000000e+00 +2.4999999916429294e+00 -2.9750550472449441e-02 -5.6687734521645727e-01 +5.6817370961251366e-03
2.6000000000000010e+00 +7.9198085261104927e+00 +0.0000000000000000e+00 +2.5999999905994367e+00 -2.9750655667789384e-02 -5.6687711129503449e-01 +5.6817452252614555e-03
2.7000000000000011e+00 +7.9197935141487754e+00 +0.0000000000000000e+00 +2.6999999894725080e+00 -2.9750766236485839e-02 -5.6687688902511690e-01 +5.6817540199158639e-03
2.8000000000000012e+00 +7.9197779357023270e+00 +0.0000000000000000e+00 +2.7999999882589344e+00 -2.9750882397436229e-02 -5.6687667794605212e-01 +5.6817636875409055e-03
2.9000000000000012e+00 +7.9197617907713598e+00 +0.0000000000000000e+00 +2.8999999869555069e+00 -2.9751004369531032e-02 -5.6687647759717308e-01 +5.6817744355893499e-03
3.0000000000000013e+00 +7.9197450793560744e+00 +0.0000000000000000e+00 +2.9999999855590160e+00 -2.9751132371652680e-02 -5.6687628751779418e-01 +5.6817864715142932e-03
3.1000000000000014e+00 +7.9197278014566610e+00 +0.0000000000000000e+00 +3.0999999840662533e+00 -2.9751266622674587e-02 -5.6687610724720872e-01 +5.6818000027692526e-03
3.2000000000000015e+00 +7.9197099570733007e+00 +0.0000000000000000e+00 +3.1999999824740093e+00 -2.9751407341460100e-02 -5.6687593632468836e-01 +5.6818152368082707e-03
3.3000000000000016e+00 +7.9196915462061650e+00 +0.0000000000000000e+00 +3.2999999807790754e+00 -2.9751554746861492e-02 -5.6687577428948011e-01 +5.6818323810860190e-03
3.4000000000000017e+00 +7.9196725688554155e+00 +0.0000000000000000e+00 +3.3999999789782427e+00 -2.9751709057718928e-02 -5.6687562068080322e-01 +5.6818516430578829e-03
3.5000000000000018e+00 +7.9196530250212076e+00 +0.0000000000000000e+00 +3.4999999770683017e+00 -2.9751870492859416e-02 -5.6687547503784774e-01 +5.6818732301800717e-03
3.6000000000000019e+00 +7.9196329147036870e+00 +0.0000000000000000e+00 +3.5999999750460434e+00 -2.9752039271095855e-02 -5.6687533689977287e-01 +5.6818973499097227e-03
3.7000000000000020e+00 +7.9196122379029923e+00 +0.0000000000000000e+00 +3.6999999729082593e+00 -2.9752215611225898e-02 -5.6687520580570339e-01 +5.6819242097049839e-03
3.8000000000000020e+00 +7.9195909946192549e+00 +0.0000000000000000e+00 +3.7999999706517400e+00 -2.9752399732031049e-02 -5.6687508129472897e-01 +5.6819540170251325e-03
3.9000000000000021e+00 +7.9195691848526009e+00 +0.0000000000000000e+00 +3.8999999682732764e+00 -2.9752591852275540e-02 -5.6687496290590023e-01 +5.6819869793306591e-03
4.0000000000000018e+00 +7.9195468086031484e+00 +0.0000000000000000e+00 +3.9999999657696601e+00 -2.9752792190705368e-02 -5.6687485017822814e-01 +5.6820233040833744e-03
4.1000000000000014e+00 +7.9195238658710112e+00 +0.0000000000000000e+00 +4.0999999631376811e+00 -2.9753000670640163e-02 -5.6687474262815485e-01 +5.6820631310354587e-03
4.2000000000000011e+00 +7.9195003566562976e+00 +0.0000000000000000e+00 +4.1999999603741314e+00 -2.9753216033756035e-02 -5.6687463968198748e-01 +5.6821063290966754e-03
4.3000000000000007e+00 +7.9194762809591115e+00 +0.0000000000000000e+00 +4.2999999574758014e+00 -2.9753436726317195e-02 -5.6687454074349430e-01 +5.6821526994686473e-03
4.4000000000000004e+00 +7.9194516387795524e+00 +0.0000000000000000e+00 +4.3999999544394823e+00 -2.9753661194585220e-02 -5.6687444521643526e-01 +5.6822020433563618e-03
4.5000000000000000e+00 +7.9194264301177162e+00 +0.0000000000000000e+00 +4.4999999512619651e+00 -2.9753887884819100e-02 -5.6687435250456120e-01 +5.6822541619683626e-03
4.5999999999999996e+00 +7.9194006549736971e+00 +0.0000000000000000e+00 +4.5999999479400406e+00 -2.9754115243275255e-02 -5.6687426201161284e-01 +5.6823088565169334e-03
4.6999999999999993e+00 +7.9193743133475856e+00 +0.0000000000000000e+00 +4.6999999444705010e+00 -2.9754341716207708e-02 -5.6687417314132293e-01 +5.6823659282182947e-03
4.7999999999999989e+00 +7.9193474052394723e+00 +0.0000000000000000e+00 +4.7999999408501361e+00 -2.9754565749868091e-02 -5.6687408529741456e-01 +5.6824251782927977e-03
4.8999999999999986e+00 +7.9193199306494453e+00 +0.0000000000000000e+00 +4.8999999370757372e+00 -2.9754785790505743e-02 -5.6687399788360182e-01 +5.6824864079651075e-03
4.9999999999999982e+00 +7.9192918895775932e+00 +0.0000000000000000e+00 +4.9999999331440952e+00 -2.9755000284367759e-02 -5.6687391030358902e-01 +5.6825494184644006e-03
5.0999999999999979e+00 +7.9192632820240041e+00 +0.0000000000000000e+00 +5.0999999290520011e+00 -2.9755207677699146e-02 -5.6687382196107250e-01 +5.6826140110245562e-03
5.1999999999999975e+00 +7.9192341079887676e+00 +0.0000000000000000e+00 +5.1999999247962458e+00 -2.9755406416742798e-02 -5.6687373225973903e-01 +5.6826799868843507e-03
5.2999999999999972e+00 +7.9192043674719743e+00 +0.0000000000000000e+00 +5.2999999203736206e+00 -2.9755594947739626e-02 -5.6687364060326584e-01 +5.6827471472876388e-03
5.3999999999999968e+00 +7.9191740604737166e+00 +0.0000000000000000e+00 +5.3999999157809162e+00 -2.9755771716928652e-02 -5.6687354639532128e-01 +5.6828152934835586e-03
5.4999999999999964e+00 +7.9191431869940896e+00 +0.0000000000000000e+00 +5.4999999110149238e+00 -2.9755935170547063e-02 -5.6687344903956483e-01 +5.6828842267267156e-03
5.5999999999999961e+00 +7.9191117470331918e+00 +0.0000000000000000e+00 +5.5999999060724344e+00 -2.9756083754830305e-02 -5.6687334793964683e-01 +5.6829537482773742e-03
5.6999999999999957e+00 +7.9190797405911253e+00 +0.0000000000000000e+00 +5.6999999009502389e+00 -2.9756215916012119e-02 -5.6687324249920790e-01 +5.6830236594016545e-03
5.7999999999999954e+00 +7.9190471676679959e+00 +0.0000000000000000e+00 +5.7999998956451284e+00 -2.9756330100324736e-02 -5.6687313212188062e-01 +5.6830937613717254e-03
5.8999999999999950e+00 +7.9190140282639163e+00 +0.0000000000000000e+00 +5.8999998901538939e+00 -2.9756424753998818e-02 -5.6687301621128772e-01 +5.6831638554659877e-03
5.9999999999999947e+00 +7.9189803223790021e+00 +0.0000000000000000e+00 +5.9999998844733264e+00 -2.9756498323263641e-02 -5.6687289417104270e-01 +5.6832337429692766e-03
6.0999999999999943e+00 +7.9189460500133775e+00 +0.0000000000000000e+00 +6.0999998786002170e+00 -2.9756549842596913e-02 -5.6687276561591149e-01 +5.6833032573478633e-03
6.1999999999999940e+00 +7.9189112111671713e+00 +0.0000000000000000e+00 +6.1999998725313574e+00 -2.9756580699481963e-02 -5.6687263100530971e-01 +5.6833723607695643e-03
6.2999999999999936e+00 +7.9188758058405195e+00 +0.0000000000000000e+00 +6.2999998662635379e+00 -2.9756592869654031e-02 -5.6687249100984316e-01 +5.6834410475702602e-03
6.3999999999999932e+00 +7.9188398340335624e+00 +0.0000000000000000e+00 +6.3999998597935495e+00 -2.9756588328846416e-02 -5.6687234630015049e-01 +5.6835093120772354e-03
6.4999999999999929e+00 +7.9188032957464465e+00 +0.0000000000000000e+00 +6.4999998531181831e+00 -2.9756569052790532e-02 -5.6687219754690443e-01 +5.6835771486087611e-03
6.5999999999999925e+00 +7.9187661909793210e+00 +0.0000000000000000e+00 +6.5999998462342306e+00 -2.9756537017215902e-02 -5.6687204542081360e-01 +5.6836445514736782e-03
6.6999999999999922e+00 +7.9187285197323396e+00 +0.0000000000000000e+00 +6.6999998391384823e+00 -2.9756494197850206e-02 -5.6687189059262399e-01 +5.6837115149709827e-03
6.7999999999999918e+00 +7.9186902820056577e+00 +0.0000000000000000e+00 +6.7999998318277299e+00 -2.9756442570419327e-02 -5.6687173373312061e-01 +5.6837780333894063e-03
6.8999999999999915e+00 +7.9186514777994335e+00 +0.0000000000000000e+00 +6.8999998242987637e+00 -2.9756384110647384e-02 -5.6687157551312950e-01 +5.6838441010070156e-03
6.9999999999999911e+00 +7.9186121071138267e+00 +0.0000000000000000e+00 +6.9999998165483754e+00 -2.9756320794256767e-02 -5.6687141660351870e-01 +5.6839097120907735e-03
7.0999999999999908e+00 +7.9185721699489964e+00 +0.0000000000000000e+00 +7.0999998085733553e+00 -2.9756254596968141e-02 -5.6687125767520041e-01 +5.6839748608961422e-03
7.1999999999999904e+00 +7.9185316663051033e+00 +0.0000000000000000e+00 +7.1999998003704953e+00 -2.9756187494500517e-02 -5.6687109939913227e-01 +5.6840395416666656e-03
7.2999999999999901e+00 +7.9184905961823064e+00 +0.0000000000000000e+00 +7.2999997919365862e+00 -2.9756121462571256e-02 -5.6687094244631875e-01 +5.6841037486335426e-03
7.3999999999999897e+00 +7.9184489595807639e+00 +0.0000000000000000e+00 +7.3999997832684192e+00 -2.9756058476896101e-02 -5.6687078748781405e-01 +5.6841674760152337e-03
7.4999999999999893e+00 +7.9184067565006320e+00 +0.0000000000000000e+00 +7.4999997743627853e+00 -2.9756000513189228e-02 -5.6687063519472147e-01 +5.6842307180170150e-03
7.5999999999999890e+00 +7.9183639869420643e+00 +0.0000000000000000e+00 +7.5999997652164755e+00 -2.9755949547163207e-02 -5.6687048623819725e-01 +5.6842934688305976e-03
7.6999999999999886e+00 +7.9183206509052111e+00 +0.0000000000000000e+00 +7.6999997558262807e+00 -2.9755907554529133e-02 -5.6687034128945091e-01 +5.6843557226336798e-03
7.7999999999999883e+00 +7.9182767483902179e+00 +0.0000000000000000e+00 +7.7999997461889921e+00 -2.9755876510996565e-02 -5.6687020101974728e-01 +5.6844174735895640e-03
7.8999999999999879e+00 +7.9182322793972268e+00 +0.0000000000000000e+00 +7.8999997363014014e+00 -2.9755858392273564e-02 -5.6687006610040791e-01 +5.6844787158467115e-03
7.9999999999999876e+00 +7.9181872439263739e+00 +0.0000000000000000e+00 +7.9999997261602989e+00 -2.9755855174066748e-02 -5.6686993720281287e-01 +5.6845394435383534e-03
8.0999999999999872e+00 +7.9181416419777895e+00 +0.0000000000000000e+00 +8.0999997157624755e+00 -2.9755868265140869e-02 -5.6686981492920852e-01 +5.6845996596838911e-03
8.1999999999999869e+00 +7.9180954735515972e+00 +0.0000000000000000e+00 +8.1999997051047231e+00 -2.9755896806500249e-02 -5.6686969960511258e-01 +5.6846594029022228e-03
8.2999999999999865e+00 +7.9180487386479133e+00 +0.0000000000000000e+00 +8.2999996941838319e+00 -2.9755939372257713e-02 -5.6686959148687299e-01 +5.6847187207198805e-03
8.3999999999999861e+00 +7.9180014372668479e+00 +0.0000000000000000e+00 +8.3999996829965937e+00 -2.9755994536591553e-02 -5.6686949083086069e-01 +5.6847776606713026e-03
8.4999999999999858e+00 +7.9179535694085033e+00 +0.0000000000000000e+00 +8.4999996715398005e+00 -2.9756060873747544e-02 -5.6686939789346980e-01 +5.6848362702991489e-03
8.5999999999999854e+00 +7.9179051350729726e+00 +0.0000000000000000e+00 +8.5999996598102424e+00 -2.9756136958040968e-02 -5.6686931293111675e-01 +5.6848945971546081e-03
8.6999999999999851e+00 +7.9178561342603437e+00 +0.0000000000000000e+00 +8.6999996478047095e+00 -2.9756221363858623e-02 -5.6686923620024332e-01 +5.6849526887977307e-03
8.7999999999999847e+00 +7.9178065669706941e+00 +0.0000000000000000e+00 +8.7999996355199936e+00 -2.9756312665660822e-02 -5.6686916795731368e-01 +5.6850105927977145e-03
8.8999999999999844e+00 +7.9177564332040937e+00 +0.0000000000000000e+00 +8.8999996229528868e+00 -2.9756409437983411e-02 -5.6686910845881766e-01 +5.6850683567332373e-03
8.9999999999999840e+00 +7.9177057329606031e+00 +0.0000000000000000e+00 +8.9999996101001791e+00 -2.9756510255439798e-02 -5.6686905796126952e-01 +5.6851260281927602e-03
9.0999999999999837e+00 +7.9176544662402746e+00 +0.0000000000000000e+00 +9.0999995969586607e+00 -2.9756613692722943e-02 -5.6686901672120826e-01 +5.6851836547748410e-03
9.1999999999999833e+00 +7.9176026330431517e+00 +0.0000000000000000e+00 +9.1999995835251251e+00 -2.9756718324607426e-02 -5.6686898499519911e-01 +5.6852412840884547e-03
9.2999999999999829e+00 +7.9175502333692673e+00 +0.0000000000000000e+00 +9.2999995697963609e+00 -2.9756822725951381e-02 -5.6686896303983270e-01 +5.6852989637532977e-03
9.3999999999999826e+00 +7.9174972672186446e+00 +0.0000000000000000e+00 +9.3999995557691598e+00 -2.9756925471698566e-02 -5.6686895111172586e-01 +5.6853567414000975e-03
9.4999999999999822e+00 +7.9174437345912976e+00 +0.0000000000000000e+00 +9.4999995414403138e+00 -2.9757025136880388e-02 -5.6686894946752209e-01 +5.6854146646709344e-03
9.5999999999999819e+00 +7.9173896354872291e+00 +0.0000000000000000e+00 +9.5999995268066129e+00 -2.9757120296617923e-02 -5.6686895836389251e-01 +5.6854727812195487e-03
9.6999999999999815e+00 +7.9173349699064328e+00 +0.0000000000000000e+00 +9.6999995118648492e+00 -2.9757209526123877e-02 -5.6686897805753433e-01 +5.6855311387116522e-03
9.7999999999999812e+00 +7.9172797378488902e+00 +0.0000000000000000e+00 +9.7999994966118127e+00 -2.9757291400704686e-02 -5.6686900880517332e-01 +5.6855897848252400e-03
9.8999999999999808e+00 +7.9172239393145727e+00 +0.0000000000000000e+00 +9.8999994810442953e+00 -2.9757364495762492e-02 -5.6686905086356287e-01 +5.6856487672509032e-03
9.9999999999999805e+00 +7.9171675743034395e+00 +0.0000000000000000e+00 +9.9999994651590871e+00 -2.9757427386797181e-02 -5.6686910448948513e-01 +5.6857081336921453e-03
1.0099999999999980e+01 +7.9171106428154392e+00 +0.0000000000000000e+00 +1.0099999448952980e+01 -2.9757479087666835e-02 -5.6686916977770752e-01 +5.6857678992437077e-03
1.0199999999999980e+01 +7.9170531448505086e+00 +0.0000000000000000e+00 +1.0199999432422764e+01 -2.9757520365316960e-02 -5.6686924617481105e-01 +5.6858279485194479e-03
1.0299999999999979e+01 +7.9169950804085731e+00 +0.0000000000000000e+00 +1.0299999415565232e+01 -2.9757552424857212e-02 -5.6686933296526387e-01 +5.6858881335116731e-03
1.0399999999999979e+01 +7.9169364494895476e+00 +0.0000000000000000e+00 +1.0399999398377172e+01 -2.9757576471266558e-02 -5.6686942943345953e-01 +5.6859483062130563e-03
1.0499999999999979e+01 +7.9168772520933377e+00 +0.0000000000000000e+00 +1.0499999380855378e+01 -2.9757593709389608e-02 -5.6686953486371527e-01 +5.6860083186166185e-03
1.0599999999999978e+01 +7.9168174882198405e+00 +0.0000000000000000e+00 +1.0599999362996639e+01 -2.9757605343932982e-02 -5.6686964854026900e-01 +5.6860680227157120e-03
1.0699999999999978e+01 +7.9167571578689442e+00 +0.0000000000000000e+00 +1.0699999344797748e+01 -2.9757612579461693e-02 -5.6686976974727776e-01 +5.6861272705040150e-03
1.0799999999999978e+01 +7.9166962610405287e+00 +0.0000000000000000e+00 +1.0799999326255493e+01 -2.9757616620395558e-02 -5.6686989776881547e-01 +5.6861859139755132e-03
1.0899999999999977e+01 +7.9166347977344689e+00 +0.0000000000000000e+00 +1.0899999307366668e+01 -2.9757618671005504e-02 -5.6687003188887097e-01 +5.6862438051244781e-03
1.0999999999999977e+01 +7.9165727679506332e+00 +0.0000000000000000e+00 +1.0999999288128063e+01 -2.9757619935409974e-02 -5.6687017139134532e-01 +5.6863007959454667e-03
1.1099999999999977e+01 +7.9165101716888842e+00 +0.0000000000000000e+00 +1.1099999268536466e+01 -2.9757621617571305e-02 -5.6687031556005063e-01 +5.6863567384332998e-03
1.1199999999999976e+01 +7.9164470089490795e+00 +0.0000000000000000e+00 +1.1199999248588671e+01 -2.9757624921292115e-02 -5.6687046367870775e-01 +5.6864114845830505e-03
1.1299999999999976e+01 +7.9163832797310727e+00 +0.0000000000000000e+00 +1.1299999228281470e+01 -2.9757631050211602e-02 -5.6687061503094260e-01 +5.6864648863900243e-03
1.1399999999999975e+01 +7.9163189840347155e+00 +0.0000000000000000e+00 +1.1399999207611652e+01 -2.9757641207802010e-02 -5.6687076890028676e-01 +5.6865167958497567e-03
1.1499999999999975e+01 +7.9162541218598559e+00 +0.0000000000000000e+00 +1.1499999186576007e+01 -2.9757656597364925e-02 -5.6687092457017296e-01 +5.6865670649579887e-03
1.1599999999999975e+01 +7.9161886932063403e+00 +0.0000000000000000e+00 +1.1599999165171328e+01 -2.9757678422027707e-02 -5.6687108132393460e-01 +5.6866155457106649e-03
1.1699999999999974e+01 +7.9161226980740143e+00 +0.0000000000000000e+00 +1.1699999143394404e+01 -2.9757707884739807e-02 -5.6687123844480236e-01 +5.6866620901039038e-03
1.1799999999999974e+01 +7.9160561364627231e+00 +0.0000000000000000e+00 +1.1799999121242028e+01 -2.9757746188269159e-02 -5.6687139521590335e-01 +5.6867065501340058e-03
