# field on trajectory
# s[mm] rx[mm] ry[mm] rz[mm] bx[T] by[T] bz[T]
0.0000000000000000e+00 +8.1529999999999987e+00 +0.0000000000000000e+00 +0.0000000000000000e+00 -3.1456546061827816e-02 -5.9277170657890432e-01 +5.9337811350249920e-03
1.0000000000000001e-01 +8.1529997168285160e+00 +0.0000000000000000e+00 +9.9999999999465433e-02 -3.1456564598363171e-02 -5.9277174650106768e-01 +5.9337076176719673e-03
2.0000000000000001e-01 +8.1529988673140394e+00 +0.0000000000000000e+00 +1.9999999999572343e-01 -3.1456578094756070e-02 -5.9277179208545805e-01 +5.9336342664040934e-03
3.0000000000000004e-01 +8.1529974514565247e+00 +0.0000000000000000e+00 +2.9999999998556653e-01 -3.1456587485089622e-02 -5.9277184299710795e-01 +5.9335612649737152e-03
4.0000000000000002e-01 +8.1529954692559254e+00 +0.0000000000000000e+00 +3.9999999996578728e-01 -3.1456593703442295e-02 -5.9277189890103577e-01 +5.9334887971335343e-03
5.0000000000000000e-01 +8.1529929207121867e+00 +0.0000000000000000e+00 +4.9999999993317829e-01 -3.1456597683888927e-02 -5.9277195946225136e-01 +5.9334170466368808e-03
5.9999999999999998e-01 +8.1529898058252517e+00 +0.0000000000000000e+00 +5.9999999988453201e-01 -3.1456600360501408e-02 -5.9277202434575238e-01 +5.9333461972379863e-03
6.9999999999999996e-01 +8.1529861245950581e+00 +0.0000000000000000e+00 +6.9999999981664107e-01 -3.1456602667349502e-02 -5.9277209321652713e-01 +5.9332764326922409e-03
7.9999999999999993e-01 +8.1529818770215403e+00 +0.0000000000000000e+00 +7.9999999972629809e-01 -3.1456605538501874e-02 -5.9277216573955505e-01 +5.9332079367564669e-03
8.9999999999999991e-01 +8.1529770631046290e+00 +0.0000000000000000e+00 +8.9999999961029553e-01 -3.1456609908026692e-02 -5.9277224157980613e-01 +5.9331408931891753e-03
9.9999999999999989e-01 +8.1529716828442531e+00 +0.0000000000000000e+00 +9.9999999946542584e-01 -3.1456616709992606e-02 -5.9277232040224381e-01 +5.9330754857508496e-03
1.0999999999999999e+00 +8.1529657362403363e+00 +0.0000000000000000e+00 +1.0999999992884817e+00 -3.1456626878469465e-02 -5.9277240187182390e-01 +5.9330118982041926e-03
1.2000000000000000e+00 +8.1529592232928003e+00 +0.0000000000000000e+00 +1.1999999990762555e+00 -3.1456641347529325e-02 -5.9277248565349561e-01 +5.9329503143144080e-03
1.3000000000000000e+00 +8.1529521440015671e+00 +0.0000000000000000e+00 +1.2999999988255402e+00 -3.1456661051247135e-02 -5.9277257141220296e-01 +5.9328909178494611e-03
1.4000000000000001e+00 +8.1529444983665549e+00 +0.0000000000000000e+00 +1.3999999985331280e+00 -3.1456686923701571e-02 -5.9277265881288432e-01 +5.9328338925803432e-03
1.5000000000000002e+00 +8.1529362863876784e+00 +0.0000000000000000e+00 +1.4999999981958114e+00 -3.1456719898975978e-02 -5.9277274752047471e-01 +5.9327794222813401e-03
1.6000000000000003e+00 +8.1529275080648542e+00 +0.0000000000000000e+00 +1.5999999978103829e+00 -3.1456760911159079e-02 -5.9277283719990481e-01 +5.9327276907303050e-03
1.7000000000000004e+00 +8.1529181633979988e+00 +0.0000000000000000e+00 +1.6999999973736353e+00 -3.1456810894345932e-02 -5.9277292751610244e-01 +5.9326788817089171e-03
1.8000000000000005e+00 +8.1529082523870233e+00 +0.0000000000000000e+00 +1.7999999968823610e+00 -3.1456870782638646e-02 -5.9277301813399352e-01 +5.9326331790029441e-03
1.9000000000000006e+00 +8.1528977750318425e+00 +0.0000000000000000e+00 +1.8999999963333525e+00 -3.1456941510147308e-02 -5.9277310871850208e-01 +5.9325907664025289e-03
2.0000000000000004e+00 +8.1528867313323712e+00 +0.0000000000000000e+00 +1.9999999957234023e+00 -3.1457024010990708e-02 -5.9277319893455205e-01 +5.9325518277024295e-03
2.1000000000000005e+00 +8.1528751212885222e+00 +0.0000000000000000e+00 +2.0999999950493029e+00 -3.1457118836341953e-02 -5.9277328854142131e-01 +5.9325164828621995e-03
2.2000000000000006e+00 +8.1528629449002121e+00 +0.0000000000000000e+00 +2.1999999943078472e+00 -3.1457225005555298e-02 -5.9277337767581073e-01 +5.9324845964839699e-03
2.3000000000000007e+00 +8.1528502021673539e+00 +0.0000000000000000e+00 +2.2999999934958275e+00 -3.1457341155019025e-02 -5.9277346656877439e-01 +5.9324559693289267e-03
2.4000000000000008e+00 +8.1528368930898640e+00 +0.0000000000000000e+00 +2.3999999926100362e+00 -3.1457465921107326e-02 -5.9277355545136690e-01 +5.9324304021564625e-03
2.5000000000000009e+00 +8.1528230176676590e+00 +0.0000000000000000e+00 +2.4999999916472659e+00 -3.1457597940178605e-02 -5.9277364455464232e-01 +5.9324076957236842e-03
2.6000000000000010e+00 +8.1528085759006537e+00 +0.0000000000000000e+00 +2.5999999906043092e+00 -3.1457735848573594e-02 -5.9277373410965606e-01 +5.9323876507849293e-03
2.7000000000000011e+00 +8.1527935677887626e+00 +0.0000000000000000e+00 +2.6999999894779583e+00 -3.1457878282613684e-02 -5.9277382434746362e-01 +5.9323700680912941e-03
2.8000000000000012e+00 +8.1527779933318989e+00 +0.0000000000000000e+00 +2.7999999882650060e+00 -3.1458023878599001e-02 -5.9277391549912239e-01 +5.9323547483901336e-03
2.9000000000000012e+00 +8.1527618525299772e+00 +0.0000000000000000e+00 +2.8999999869622450e+00 -3.1458171272806763e-02 -5.9277400779569167e-01 +5.9323414924245931e-03
3.0000000000000013e+00 +8.1527451453829087e+00 +0.0000000000000000e+00 +2.9999999855664674e+00 -3.1458319101489440e-02 -5.9277410146823306e-01 +5.9323301009331251e-03
3.1000000000000014e+00 +8.1527278718906064e+00 +0.0000000000000000e+00 +3.0999999840744659e+00 -3.1458466000872952e-02 -5.9277419674781107e-01 +5.9323203746489877e-03
3.2000000000000015e+00 +8.1527100320529780e+00 +0.0000000000000000e+00 +3.1999999824830332e+00 -3.1458610607154922e-02 -5.9277429386549307e-01 +5.9323121142997931e-03
3.3000000000000016e+00 +8.1526916258699327e+00 +0.0000000000000000e+00 +3.2999999807889617e+00 -3.1458751556502892e-02 -5.9277439305235102e-01 +5.9323051206070050e-03
3.4000000000000017e+00 +8.1526726533413747e+00 +0.0000000000000000e+00 +3.3999999789890438e+00 -3.1458887485052538e-02 -5.9277449453946029e-01 +5.9322991942854474e-03
3.5000000000000018e+00 +8.1526531144672081e+00 +0.0000000000000000e+00 +3.4999999770800723e+00 -3.1459017028905877e-02 -5.9277459855790116e-01 +5.9322941360428483e-03
3.6000000000000019e+00 +8.1526330092473351e+00 +0.0000000000000000e+00 +3.5999999750588394e+00 -3.1459138824129540e-02 -5.9277470533875942e-01 +5.9322897465793386e-03
3.7000000000000020e+00 +8.1526123376816546e+00 +0.0000000000000000e+00 +3.6999999729221376e+00 -3.1459251506752904e-02 -5.9277481511312635e-01 +5.9322858265869714e-03
3.8000000000000020e+00 +8.1525910997700599e+00 +0.0000000000000000e+00 +3.7999999706667595e+00 -3.1459353712766404e-02 -5.9277492811209864e-01 +5.9322821767492451e-03
3.9000000000000021e+00 +8.1525692955124462e+00 +0.0000000000000000e+00 +3.8999999682894977e+00 -3.1459444078119687e-02 -5.9277504456677987e-01 +5.9322785977406227e-03
4.0000000000000018e+00 +8.1525469249087017e+00 +0.0000000000000000e+00 +3.9999999657871443e+00 -3.1459521238719909e-02 -5.9277516470828118e-01 +5.9322748902260409e-03
4.1000000000000014e+00 +8.1525239879587126e+00 +0.0000000000000000e+00 +4.0999999631564918e+00 -3.1459584163471326e-02 -5.9277528873034779e-01 +5.9322709180828657e-03
4.2000000000000011e+00 +8.1525004846623617e+00 +0.0000000000000000e+00 +4.1999999603943339e+00 -3.1459633153430214e-02 -5.9277541667724831e-01 +5.9322667980730602e-03
4.3000000000000007e+00 +8.1524764150195264e+00 +0.0000000000000000e+00 +4.2999999574974614e+00 -3.1459668842734469e-02 -5.9277554855590098e-01 +5.9322627101845472e-03
4.4000000000000004e+00 +8.1524517790300823e+00 +0.0000000000000000e+00 +4.3999999544626682e+00 -3.1459691865572653e-02 -5.9277568437325201e-01 +5.9322588344103162e-03
4.5000000000000000e+00 +8.1524265766938999e+00 +0.0000000000000000e+00 +4.4999999512867461e+00 -3.1459702856187939e-02 -5.9277582413627539e-01 +5.9322553507488562e-03
4.5999999999999996e+00 +8.1524008080108477e+00 +0.0000000000000000e+00 +4.5999999479664870e+00 -3.1459702448881702e-02 -5.9277596785197284e-01 +5.9322524392045797e-03
4.6999999999999993e+00 +8.1523744729807870e+00 +0.0000000000000000e+00 +4.6999999444986846e+00 -3.1459691278017489e-02 -5.9277611552737919e-01 +5.9322502797882768e-03
4.7999999999999989e+00 +8.1523475716035794e+00 +0.0000000000000000e+00 +4.7999999408801308e+00 -3.1459669978024678e-02 -5.9277626716955933e-01 +5.9322490525175195e-03
4.8999999999999986e+00 +8.1523201038790809e+00 +0.0000000000000000e+00 +4.8999999371076175e+00 -3.1459639183402360e-02 -5.9277642278561304e-01 +5.9322489374171354e-03
4.9999999999999982e+00 +8.1522920698071424e+00 +0.0000000000000000e+00 +4.9999999331779375e+00 -3.1459599528723112e-02 -5.9277658238267472e-01 +5.9322501145196108e-03
5.0999999999999979e+00 +8.1522634693876128e+00 +0.0000000000000000e+00 +5.0999999290878835e+00 -3.1459551648636772e-02 -5.9277674596791552e-01 +5.9322527638655314e-03
5.1999999999999975e+00 +8.1522343026203377e+00 +0.0000000000000000e+00 +5.1999999248342483e+00 -3.1459496177874267e-02 -5.9277691354854467e-01 +5.9322570655040317e-03
5.2999999999999972e+00 +8.1522045695051570e+00 +0.0000000000000000e+00 +5.2999999204138240e+00 -3.1459433751251320e-02 -5.9277708513181038e-01 +5.9322631994932068e-03
5.3999999999999968e+00 +8.1521742700419075e+00 +0.0000000000000000e+00 +5.3999999158234031e+00 -3.1459365003672378e-02 -5.9277726072500170e-01 +5.9322713459005671e-03
5.4999999999999964e+00 +8.1521434042304222e+00 +0.0000000000000000e+00 +5.4999999110597777e+00 -3.1459290570134288e-02 -5.9277744033545010e-01 +5.9322816848034572e-03
5.5999999999999961e+00 +8.1521119720705322e+00 +0.0000000000000000e+00 +5.5999999061197405e+00 -3.1459211085730111e-02 -5.9277762397053135e-01 +5.9322943962894998e-03
5.6999999999999957e+00 +8.1520799735620617e+00 +0.0000000000000000e+00 +5.6999999010000844e+00 -3.1459127185652982e-02 -5.9277781163766541e-01 +5.9323096604570183e-03
5.7999999999999954e+00 +8.1520474087048314e+00 +0.0000000000000000e+00 +5.7999998956976011e+00 -3.1459039505199821e-02 -5.9277800334431918e-01 +5.9323276574154860e-03
5.8999999999999950e+00 +8.1520142774986617e+00 +0.0000000000000000e+00 +5.8999998902090836e+00 -3.1458948679775132e-02 -5.9277819909800811e-01 +5.9323485672859522e-03
5.9999999999999947e+00 +8.1519805799433644e+00 +0.0000000000000000e+00 +5.9999998845313236e+00 -3.1458855344894877e-02 -5.9277839890629624e-01 +5.9323725702014659e-03
6.0999999999999943e+00 +8.1519463160387513e+00 +0.0000000000000000e+00 +6.0999998786611140e+00 -3.1458760187244035e-02 -5.9277860269111582e-01 +5.9323998024510506e-03
6.1999999999999940e+00 +8.1519114857846287e+00 +0.0000000000000000e+00 +6.1999998725952477e+00 -3.1458664097782849e-02 -5.9277881003169253e-01 +5.9324302249045150e-03
6.2999999999999936e+00 +8.1518760891807993e+00 +0.0000000000000000e+00 +6.2999998663305163e+00 -3.1458568018479620e-02 -5.9277902042156183e-01 +5.9324637545726073e-03
6.3999999999999932e+00 +8.1518401262270626e+00 +0.0000000000000000e+00 +6.3999998598637120e+00 -3.1458472891238390e-02 -5.9277923335424432e-01 +5.9325003084621927e-03
6.4999999999999929e+00 +8.1518035969232159e+00 +0.0000000000000000e+00 +6.4999998531916283e+00 -3.1458379657895177e-02 -5.9277944832324581e-01 +5.9325398035760066e-03
6.5999999999999925e+00 +8.1517665012690568e+00 +0.0000000000000000e+00 +6.5999998463110563e+00 -3.1458289260214663e-02 -5.9277966482205635e-01 +5.9325821569124150e-03
6.6999999999999922e+00 +8.1517288392643792e+00 +0.0000000000000000e+00 +6.6999998392187896e+00 -3.1458202639886385e-02 -5.9277988234414769e-01 +5.9326272854651699e-03
6.7999999999999918e+00 +8.1516906109089753e+00 +0.0000000000000000e+00 +6.7999998319116202e+00 -3.1458120738521389e-02 -5.9278010038297380e-01 +5.9326751062231597e-03
6.8999999999999915e+00 +8.1516518162026390e+00 +0.0000000000000000e+00 +6.8999998243863399e+00 -3.1458044497648607e-02 -5.9278031843196832e-01 +5.9327255361701844e-03
6.9999999999999911e+00 +8.1516124551451643e+00 +0.0000000000000000e+00 +6.9999998166397415e+00 -3.1457974858711261e-02 -5.9278053598454306e-01 +5.9327784922846875e-03
7.0999999999999908e+00 +8.1515725277363433e+00 +0.0000000000000000e+00 +7.0999998086686178e+00 -3.1457912763063353e-02 -5.9278075253408891e-01 +5.9328338915395264e-03
7.1999999999999904e+00 +8.1515320339759700e+00 +0.0000000000000000e+00 +7.1999998004697607e+00 -3.1457859151966118e-02 -5.9278096757397225e-01 +5.9328916509017275e-03
7.2999999999999901e+00 +8.1514909738638419e+00 +0.0000000000000000e+00 +7.2999997920399631e+00 -3.1457814966584424e-02 -5.9278118059753460e-01 +5.9329516873322359e-03
7.3999999999999897e+00 +8.1514493473997547e+00 +0.0000000000000000e+00 +7.3999997833760167e+00 -3.1457781147983303e-02 -5.9278139109809191e-01 +5.9330139177856938e-03
7.4999999999999893e+00 +8.1514071545835112e+00 +0.0000000000000000e+00 +7.4999997744747136e+00 -3.1457758637124307e-02 -5.9278159856893309e-01 +5.9330782592101582e-03
7.5999999999999890e+00 +8.1513643954149124e+00 +0.0000000000000000e+00 +7.5999997653328473e+00 -3.1457748374861996e-02 -5.9278180250331802e-01 +5.9331446285468955e-03
7.6999999999999886e+00 +8.1513210698937666e+00 +0.0000000000000000e+00 +7.6999997559472089e+00 -3.1457751301940388e-02 -5.9278200239447720e-01 +5.9332129427301129e-03
7.7999999999999883e+00 +8.1512771780198818e+00 +0.0000000000000000e+00 +7.7999997463145920e+00 -3.1457768358989419e-02 -5.9278219773561014e-01 +5.9332831186867307e-03
7.8999999999999879e+00 +8.1512327197930752e+00 +0.0000000000000000e+00 +7.8999997364317887e+00 -3.1457800486521290e-02 -5.9278238801988448e-01 +5.9333550733361232e-03
7.9999999999999876e+00 +8.1511876952131654e+00 +0.0000000000000000e+00 +7.9999997262955906e+00 -3.1457848624927058e-02 -5.9278257274043433e-01 +5.9334287235898939e-03
8.0999999999999872e+00 +8.1511421042799785e+00 +0.0000000000000000e+00 +8.0999997159027899e+00 -3.1457913273783673e-02 -5.9278275170516581e-01 +5.9335040010546512e-03
8.1999999999999869e+00 +8.1510959469933439e+00 +0.0000000000000000e+00 +8.1999997052501801e+00 -3.1457993169830327e-02 -5.9278292598117921e-01 +5.9335808961456680e-03
8.2999999999999865e+00 +8.1510492233530965e+00 +0.0000000000000000e+00 +8.2999996943345522e+00 -3.1458086609152065e-02 -5.9278309695033404e-01 +5.9336594139849956e-03
8.3999999999999861e+00 +8.1510019333590744e+00 +0.0000000000000000e+00 +8.3999996831527000e+00 -3.1458191887893776e-02 -5.9278326599443343e-01 +5.9337395596993922e-03
8.4999999999999858e+00 +8.1509540770111180e+00 +0.0000000000000000e+00 +8.4999996717014152e+00 -3.1458307302262414e-02 -5.9278343449522342e-01 +5.9338213384204841e-03
8.5999999999999854e+00 +8.1509056543090672e+00 +0.0000000000000000e+00 +8.5999996599774899e+00 -3.1458431148529226e-02 -5.9278360383439055e-01 +5.9339047552849000e-03
8.6999999999999851e+00 +8.1508566652527605e+00 +0.0000000000000000e+00 +8.6999996479777177e+00 -3.1458561723031929e-02 -5.9278377539356009e-01 +5.9339898154344402e-03
8.7999999999999847e+00 +8.1508071098420380e+00 +0.0000000000000000e+00 +8.7999996356988905e+00 -3.1458697322176925e-02 -5.9278395055429534e-01 +5.9340765240162253e-03
8.8999999999999844e+00 +8.1507569880767310e+00 +0.0000000000000000e+00 +8.8999996231377985e+00 -3.1458836242441467e-02 -5.9278413069809355e-01 +5.9341648861828446e-03
8.9999999999999840e+00 +8.1507062999566706e+00 +0.0000000000000000e+00 +8.9999996102912370e+00 -3.1458976780375951e-02 -5.9278431720638791e-01 +5.9342549070925069e-03
9.0999999999999837e+00 +8.1506550454816811e+00 +0.0000000000000000e+00 +9.0999995971559962e+00 -3.1459117232605978e-02 -5.9278451146054145e-01 +5.9343465919091997e-03
9.1999999999999833e+00 +8.1506032246515758e+00 +0.0000000000000000e+00 +9.1999995837288697e+00 -3.1459255895834697e-02 -5.9278471484184858e-01 +5.9344399458028333e-03
9.2999999999999829e+00 +8.1505508374661648e+00 +0.0000000000000000e+00 +9.2999995700066496e+00 -3.1459391066844970e-02 -5.9278492873153232e-01 +5.9345349739494029e-03
9.3999999999999826e+00 +8.1504978839252438e+00 +0.0000000000000000e+00 +9.3999995559861276e+00 -3.1459521042501479e-02 -5.9278515451074199e-01 +5.9346316815311355e-03
9.4999999999999822e+00 +8.1504443640285977e+00 +0.0000000000000000e+00 +9.4999995416640957e+00 -3.1459644119753084e-02 -5.9278539356055204e-01 +5.9347300737366314e-03
9.5999999999999819e+00 +8.1503902777760011e+00 +0.0000000000000000e+00 +9.5999995270373475e+00 -3.1459758595634948e-02 -5.9278564726196004e-01 +5.9348301557610398e-03
9.6999999999999815e+00 +8.1503356251672123e+00 +0.0000000000000000e+00 +9.6999995121026750e+00 -3.1459862767270717e-02 -5.9278591699588523e-01 +5.9349319328061883e-03
9.7999999999999812e+00 +8.1502804062019774e+00 +0.0000000000000000e+00 +9.7999994968568700e+00 -3.1459954931874812e-02 -5.9278620414316707e-01 +5.9350354100807523e-03
9.8999999999999808e+00 +8.1502246208800209e+00 +0.0000000000000000e+00 +9.8999994812967245e+00 -3.1460033386754557e-02 -5.9278651008456218e-01 +5.9351405928003949e-03
9.9999999999999805e+00 +8.1501682692010533e+00 +0.0000000000000000e+00 +9.9999994654190303e+00 -3.1460096429312440e-02 -5.9278683620074391e-01 +5.9352474861879192e-03
1.0099999999999980e+01 +8.1501113511647656e+00 +0.0000000000000000e+00 +1.0099999449220581e+01 -3.1460142912721901e-02 -5.9278718348813342e-01 +5.9353560750384149e-03
1.0199999999999980e+01 +8.1500538667708273e+00 +0.0000000000000000e+00 +1.0199999432698169e+01 -3.1460173912932043e-02 -5.9278755140640360e-01 +5.9354662624048577e-03
1.0299999999999979e+01 +8.1499958160188886e+00 +0.0000000000000000e+00 +1.0299999415848585e+01 -3.1460191061535046e-02 -5.9278793903105143e-01 +5.9355779308894133e-03
1.0399999999999979e+01 +8.1499371989085816e+00 +0.0000000000000000e+00 +1.0399999398668623e+01 -3.1460195990059781e-02 -5.9278834543758074e-01 +5.9356909630766353e-03
1.0499999999999979e+01 +8.1498780154395192e+00 +0.0000000000000000e+00 +1.0499999381155073e+01 -3.1460190329969849e-02 -5.9278876970150818e-01 +5.9358052415330390e-03
1.0599999999999978e+01 +8.1498182656112981e+00 +0.0000000000000000e+00 +1.0599999363304727e+01 -3.1460175712661902e-02 -5.9278921089836056e-01 +5.9359206488066281e-03
1.0699999999999978e+01 +8.1497579494234991e+00 +0.0000000000000000e+00 +1.0699999345114380e+01 -3.1460153769463789e-02 -5.9278966810367650e-01 +5.9360370674264662e-03
1.0799999999999978e+01 +8.1496970668756870e+00 +0.0000000000000000e+00 +1.0799999326580821e+01 -3.1460126131632779e-02 -5.9279014039300737e-01 +5.9361543799022120e-03
1.0899999999999977e+01 +8.1496356179674123e+00 +0.0000000000000000e+00 +1.0899999307700844e+01 -3.1460094430353726e-02 -5.9279062684191763e-01 +5.9362724687236730e-03
1.0999999999999977e+01 +8.1495736026982133e+00 +0.0000000000000000e+00 +1.0999999288471241e+01 -3.1460060296737292e-02 -5.9279112652598520e-01 +5.9363912163603646e-03
1.1099999999999977e+01 +8.1495110210676138e+00 +0.0000000000000000e+00 +1.1099999268888803e+01 -3.1460025361818078e-02 -5.9279163852080263e-01 +5.9365105052610560e-03
1.1199999999999976e+01 +8.1494478730751290e+00 +0.0000000000000000e+00 +1.1199999248950324e+01 -3.1459991256552980e-02 -5.9279216190197859e-01 +5.9366302178533196e-03
1.1299999999999976e+01 +8.1493841587202578e+00 +0.0000000000000000e+00 +1.1299999228652593e+01 -3.1459959611819154e-02 -5.9279269574513638e-01 +5.9367502365430874e-03
1.1399999999999975e+01 +8.1493198780024940e+00 +0.0000000000000000e+00 +1.1399999207992405e+01 -3.1459932058412389e-02 -5.9279323912591686e-01 +5.9368704437141968e-03
1.1499999999999975e+01 +8.1492550309213208e+00 +0.0000000000000000e+00 +1.1499999186966550e+01 -3.1459910227045217e-02 -5.9279379111997732e-01 +5.9369907217279505e-03
1.1599999999999975e+01 +8.1491896174762122e+00 +0.0000000000000000e+00 +1.1599999165571820e+01 -3.1459895748345117e-02 -5.9279435080299370e-01 +5.9371109529226581e-03
1.1699999999999974e+01 +8.1491236376666354e+00 +0.0000000000000000e+00 +1.1699999143805007e+01 -3.1459890252852694e-02 -5.9279491725066058e-01 +5.9372310196131959e-03
1.1799999999999974e+01 +8.1490570914920522e+00 +0.0000000000000000e+00 +1.1799999121662903e+01 -3.1459895371019876e-02 -5.9279548953869154e-01 +5.9373508040905607e-03
