# multipoles
# s[mm] polynom_b[n=0][T/m^n] polynom_b[n=1][T/m^n] polynom_b[n=2][T/m^n] polynom_b[n=3][T/m^n] polynom_b[n=4][T/m^n] polynom_b[n=5][T/m^n] polynom_b[n=6][T/m^n] 
+0.0000000000000000e+00 -5.9307129152299110e-01 +8.1010130108913376e+00 -1.6155412502843198e+00 +6.0977833320760759e+01 +1.2343060203862215e+04 -5.1813927418872912e+05 -5.8367672099970013e+07 
+1.0000000000000001e-01 -5.9307102990932670e-01 +8.1009966035211356e+00 -1.6185841863088946e+00 +6.0852057781773190e+01 +1.2379531686806122e+04 -5.1624863435428363e+05 -5.8529765428408943e+07 
+2.0000000000000001e-01 -5.9307077038081879e-01 +8.1009800748654595e+00 -1.6222979386532010e+00 +6.0738303275556937e+01 +1.2425186577996124e+04 -5.1436596240612352e+05 -5.8727061546496414e+07 
+3.0000000000000004e-01 -5.9307051381352516e-01 +8.1009633201864926e+00 -1.6266005439743505e+00 +6.0639686648443558e+01 +1.2478745979413678e+04 -5.1251244198416086e+05 -5.8954171502975255e+07 
+4.0000000000000002e-01 -5.9307026108349570e-01 +8.1009462347510350e+00 -1.6314100395480120e+00 +6.0559324616837273e+01 +1.2538930998411755e+04 -5.1070925599748531e+05 -5.9205706355356492e+07 
+5.0000000000000000e-01 -5.9307001306676166e-01 +8.1009287138263524e+00 -1.6366444649501235e+00 +6.0500333903070825e+01 +1.2604462779445767e+04 -5.0897758745843859e+05 -5.9476277316939399e+07 
+5.9999999999999998e-01 -5.9306977063937349e-01 +8.1009106526863057e+00 -1.6422218577200223e+00 +6.0465831062117580e+01 +1.2674062429559488e+04 -5.0733861849445355e+05 -5.9760495427479371e+07 
+6.9999999999999996e-01 -5.9306953467736812e-01 +8.1008919465962013e+00 -1.6480602567211899e+00 +6.0458932889643869e+01 +1.2746451074124194e+04 -5.0581353261909715e+05 -6.0052971791964673e+07 
+7.9999999999999993e-01 -5.9306930605679020e-01 +8.1008724908299641e+00 -1.6540776998609863e+00 +6.0482755956409804e+01 +1.2820349814695714e+04 -5.0442351213189075e+05 -6.0348317382671230e+07 
+8.9999999999999991e-01 -5.9306908565365490e-01 +8.1008521806570410e+00 -1.6601922290130813e+00 +6.0540416972061799e+01 +1.2894479828384410e+04 -5.0318974018429301e+05 -6.0641143529619031e+07 
+9.9999999999999989e-01 -5.9306887434399891e-01 +8.1008309113441399e+00 -1.6663218829172108e+00 +6.0635032739747814e+01 +1.2967562226058324e+04 -5.0213340053232270e+05 -6.0926061224656820e+07 
+1.0999999999999999e+00 -5.9306867300383848e-01 +8.1008085781614874e+00 -1.6723847034081554e+00 +6.0769719965703942e+01 +1.3038318175757837e+04 -5.0127567639731744e+05 -6.1197681720838115e+07 
+1.2000000000000000e+00 -5.9306848250918243e-01 +8.1007850763732581e+00 -1.6782987327449177e+00 +6.0947595546208490e+01 +1.3105468847641263e+04 -5.0063775217838958e+05 -6.1450616259850368e+07 
+1.3000000000000000e+00 -5.9306830373602770e-01 +8.1007603012355904e+00 -1.6839820152798992e+00 +6.1171776615760258e+01 +1.3167735452792454e+04 -5.0024081368868443e+05 -6.1679476274805889e+07 
+1.4000000000000001e+00 -5.9306813756036181e-01 +8.1007341480100514e+00 -1.6893525957584692e+00 +6.1445380158074379e+01 +1.3223839199514043e+04 -5.0010604591254645e+05 -6.1878873149047635e+07 
+1.5000000000000002e+00 -5.9306798485816348e-01 +8.1007065119474611e+00 -1.6943285210355337e+00 +6.1771523484954386e+01 +1.3272501340143930e+04 -5.0025463581179111e+05 -6.2043418478007458e+07 
+1.6000000000000003e+00 -5.9306784650541156e-01 +8.1006772882905054e+00 -1.6988278374255854e+00 +6.2153324141778505e+01 +1.3312443110148944e+04 -5.0070777172612498e+05 -6.2167723750458375e+07 
+1.7000000000000004e+00 -5.9306772337802471e-01 +8.1006463722822968e+00 -1.7027685987301402e+00 +6.2593899666723480e+01 +1.3342385883458333e+04 -5.0148664199921937e+05 -6.2246401093229741e+07 
+1.8000000000000005e+00 -5.9306761635197858e-01 +8.1006136591588742e+00 -1.7060688521145302e+00 +6.3096367821469059e+01 +1.3361050906997620e+04 -5.0261243634712667e+05 -6.2274062015258588e+07 
+1.9000000000000006e+00 -5.9306752630317183e-01 +8.1005790441407015e+00 -1.7086466540039909e+00 +6.3663846808098221e+01 +1.3367159598963690e+04 -5.0410634705074993e+05 -6.2245318817054994e+07 
+2.0000000000000004e+00 -5.9306745410750783e-01 +8.1005424224469156e+00 -1.7104200608776809e+00 +6.4299454883922863e+01 +1.3359433379729406e+04 -5.0598956678922212e+05 -6.2154783800519802e+07 
+2.1000000000000005e+00 -5.9306740030881810e-01 +8.1005037658011059e+00 -1.7113325733672644e+00 +6.5004435897359699e+01 +1.3337006519057441e+04 -5.0827335549269826e+05 -6.1998813065859377e+07 
+2.2000000000000006e+00 -5.9306736412622019e-01 +8.1004633537627218e+00 -1.7114300095174795e+00 +6.5772498652690686e+01 +1.3300680096705535e+04 -5.1092917393407808e+05 -6.1780823042747505e+07 
+2.3000000000000007e+00 -5.9306734444854425e-01 +8.1004215433292845e+00 -1.7107839037328250e+00 +6.6595458067881012e+01 +1.3251675784271509e+04 -5.1391851151915570e+05 -6.1506016594507389e+07 
+2.4000000000000008e+00 -5.9306734016461515e-01 +8.1003786915006923e+00 -1.7094657918510607e+00 +6.7465128975264108e+01 +1.3191215287183393e+04 -5.1720285715466453e+05 -6.1179596757984884e+07 
+2.5000000000000009e+00 -5.9306735016329382e-01 +8.1003351552797067e+00 -1.7075472065885540e+00 +6.8373326112687010e+01 +1.3120520265220677e+04 -5.2074369922366907e+05 -6.0806766387580968e+07 
+2.6000000000000010e+00 -5.9306737333342241e-01 +8.1002912916702101e+00 -1.7050996840166859e+00 +6.9311864180125085e+01 +1.3040812450220246e+04 -5.2450252592387632e+05 -6.0392728697690666e+07 
+2.7000000000000011e+00 -5.9306740856391194e-01 +8.1002474576829204e+00 -1.7021947532201498e+00 +7.0272557651616836e+01 +1.2953313457592310e+04 -5.2844082411880896e+05 -5.9942686390834980e+07 
+2.8000000000000012e+00 -5.9306745474365929e-01 +8.1002040103289747e+00 -1.6989039458517141e+00 +7.1247220971456755e+01 +1.2859244961688812e+04 -5.3252008050629823e+05 -5.9461842475538880e+07 
+2.9000000000000012e+00 -5.9306751076159658e-01 +8.1001613066280207e+00 -1.6952987913325406e+00 +7.2227668325058531e+01 +1.2759828613874264e+04 -5.3670178030725324e+05 -5.8955399899951272e+07 
+3.0000000000000013e+00 -5.9306757550667588e-01 +8.1001197036086303e+00 -1.6914508172842366e+00 +7.3205713610917755e+01 +1.2656286041935180e+04 -5.4094740705682954e+05 -5.8428561527927332e+07 
+3.1000000000000014e+00 -5.9306764786791688e-01 +8.1000795582954250e+00 -1.6874315454316822e+00 +7.4173170822818122e+01 +1.2549838785170250e+04 -5.4521844485579524e+05 -5.7886529862722002e+07 
+3.2000000000000015e+00 -5.9306772673430597e-01 +8.1000412277282816e+00 -1.6833125031496001e+00 +7.5121853481489808e+01 +1.2441708507377227e+04 -5.4947637503819796e+05 -5.7334508046942323e+07 
+3.3000000000000016e+00 -5.9306781099489592e-01 +8.1000050689535499e+00 -1.6791652110006885e+00 +7.6043574895502957e+01 +1.2333116760459368e+04 -5.5368267770393635e+05 -5.6777698736117586e+07 
+3.4000000000000017e+00 -5.9306789953880246e-01 +8.0999714390239053e+00 -1.6750611840788296e+00 +7.6930148159450994e+01 +1.2225285018009457e+04 -5.5779883169820008e+05 -5.6221304283324227e+07 
+3.5000000000000018e+00 -5.9306799125513820e-01 +8.0999406950014912e+00 -1.6710719398023306e+00 +7.7773386062379018e+01 +1.2119434817001822e+04 -5.6178631407476962e+05 -5.5670527392882705e+07 
+3.6000000000000019e+00 -5.9306808503306863e-01 +8.0999131939587183e+00 -1.6672689907906904e+00 +7.8565101061839201e+01 +1.2016787627881968e+04 -5.6560659994702740e+05 -5.5130570522062935e+07 
+3.7000000000000020e+00 -5.9306817976181692e-01 +8.0998892929774549e+00 -1.6637238453182908e+00 +7.9297105299778138e+01 +1.1918564865493299e+04 -5.6922116254942270e+05 -5.4606635934663177e+07 
+3.8000000000000020e+00 -5.9306827433062381e-01 +8.0998693491497562e+00 -1.6605080111264099e+00 +7.9961210602845924e+01 +1.1825987957848218e+04 -5.7259147331985983e+05 -5.4103926022683203e+07 
+3.9000000000000021e+00 -5.9306836762880288e-01 +8.0998537195760605e+00 -1.6576929900991473e+00 +8.0549228501610358e+01 +1.1740278253710489e+04 -5.7567900190348993e+05 -5.3627642888124764e+07 
+4.0000000000000018e+00 -5.9306845854570511e-01 +8.0998427613766566e+00 -1.6553502811581582e+00 +8.1052969901845955e+01 +1.1662657069084720e+04 -5.7844521426680521e+05 -5.3182988542864822e+07 
+4.1000000000000014e+00 -5.9306854634597594e-01 +8.0998367093635153e+00 -1.6535304160632749e+00 +8.1466384003660437e+01 +1.1594052478294096e+04 -5.8086000166917546e+05 -5.2774077505267449e+07 
+4.2000000000000011e+00 -5.9306863179482727e-01 +8.0998353112779782e+00 -1.6521968125972815e+00 +8.1791880289099240e+01 +1.1534163112530892e+04 -5.8292604344598204e+05 -5.2400454707293697e+07 
+4.3000000000000007e+00 -5.9306871603261213e-01 +8.0998381935397799e+00 -1.6512902813005401e+00 +8.2033960345187268e+01 +1.1482365878226445e+04 -5.8465397922317323e+05 -5.2060467428529456e+07 
+4.4000000000000004e+00 -5.9306880019967800e-01 +8.0998449825480918e+00 -1.6507516308003496e+00 +8.2197126268195632e+01 +1.1438037630244589e+04 -5.8605445123435208e+05 -5.1752462678965010e+07 
+4.5000000000000000e+00 -5.9306888543632430e-01 +8.0998553046977566e+00 -1.6505216729768879e+00 +8.2285880176449609e+01 +1.1400555268288288e+04 -5.8713810144335008e+05 -5.1474787654214755e+07 
+4.5999999999999996e+00 -5.9306897288285720e-01 +8.0998687863722214e+00 -1.6505412161914910e+00 +8.2304724410973236e+01 +1.1369295611322039e+04 -5.8791557269736333e+05 -5.1225789147207305e+07 
+4.6999999999999993e+00 -5.9306906367955525e-01 +8.0998850539381824e+00 -1.6507510689913030e+00 +8.2258161702588353e+01 +1.1343635460359603e+04 -5.8839750971409993e+05 -5.1003813827525318e+07 
+4.7999999999999989e+00 -5.9306915896667389e-01 +8.0999037337520079e+00 -1.6510920395254942e+00 +8.2150694953101521e+01 +1.1322951589834654e+04 -5.8859455772303208e+05 -5.0807208208186656e+07 
+4.8999999999999986e+00 -5.9306925988443771e-01 +8.0999244521573139e+00 -1.6515049365554693e+00 +8.1986827333050513e+01 +1.1306620764919036e+04 -5.8851736308512627e+05 -5.0634318722464360e+07 
+4.9999999999999982e+00 -5.9306936757304529e-01 +8.0999468354785495e+00 -1.6519305679016241e+00 +8.1771062443239458e+01 +1.1294019708290922e+04 -5.8817657417100621e+05 -5.0483491560452938e+07 
+5.0999999999999979e+00 -5.9306948317268726e-01 +8.0999705100281236e+00 -1.6523097389717118e+00 +8.1507904115833213e+01 +1.1284525074600302e+04 -5.8758284020777850e+05 -5.0353072551230893e+07 
+5.1999999999999975e+00 -5.9306960782348972e-01 +8.0999951021025325e+00 -1.6525832587163185e+00 +8.1201856490955365e+01 +1.1277513556412974e+04 -5.8674681161997514e+05 -5.0241407650757387e+07 
+5.2999999999999972e+00 -5.9306974266556645e-01 +8.1000202379805710e+00 -1.6526919335986998e+00 +8.0857424121894667e+01 +1.1272361775553176e+04 -5.8567914078301855e+05 -5.0146842441975296e+07 
+5.3999999999999968e+00 -5.9306988883900391e-01 +8.1000455439224748e+00 -1.6525765689296823e+00 +8.0479111935899397e+01 +1.1268446302032546e+04 -5.8439048160253104e+05 -5.0067722208341792e+07 
+5.4999999999999964e+00 -5.9307004748382275e-01 +8.1000706461686018e+00 -1.6521779734615198e+00 +8.0071425309203491e+01 +1.1265143739487588e+04 -5.8289149005443451e+05 -5.0002392335181981e+07 
+5.5999999999999961e+00 -5.9307021974003937e-01 +8.1000951709437938e+00 -1.6514369517401153e+00 +7.9638869910328395e+01 +1.1261830583633910e+04 -5.8119282317088242e+05 -4.9949197650306188e+07 
+5.6999999999999957e+00 -5.9307040674761413e-01 +8.1001187444521747e+00 -1.6502943098533747e+00 +7.9185951865885301e+01 +1.1257883321713796e+04 -5.7930514004231244e+05 -4.9906482868626833e+07 
+5.7999999999999954e+00 -5.9307060964646041e-01 +8.1001409928753461e+00 -1.6486908546441910e+00 +7.8717177800871369e+01 +1.1252678423638941e+04 -5.7723910201381240e+05 -4.9872592570022792e+07 
+5.8999999999999950e+00 -5.9307082957647950e-01 +8.1001615423728506e+00 -1.6465673889252421e+00 +7.8237054806515403e+01 +1.1245592246612829e+04 -5.7500537242640532e+05 -4.9845870733967885e+07 
+5.9999999999999947e+00 -5.9307106767746687e-01 +8.1001800190846538e+00 -1.6438647230760419e+00 +7.7750090397905964e+01 +1.1236001255337227e+04 -5.7261461648595112e+05 -4.9824661790127598e+07 
+6.0999999999999943e+00 -5.9307132477314339e-01 +8.1001961349189173e+00 -1.6405380218404511e+00 +7.7260217817647487e+01 +1.1223367567181822e+04 -5.7007839671376138e+05 -4.9807357325487494e+07 
+6.1999999999999940e+00 -5.9307160041056073e-01 +8.1002099326799488e+00 -1.6366050774414906e+00 +7.6769642141892646e+01 +1.1207552446499318e+04 -5.6741502681670140e+05 -4.9792663235963345e+07 
+6.2999999999999936e+00 -5.9307189381437053e-01 +8.1002215348768694e+00 -1.6321006274107355e+00 +7.6280287651491477e+01 +1.1188529914449200e+04 -5.6464537044443144e+05 -4.9779388596551061e+07 
+6.3999999999999932e+00 -5.9307220420925266e-01 +8.1002310640299839e+00 -1.6270594087773806e+00 +7.5794078525047325e+01 +1.1166273991745171e+04 -5.6179029114461830e+05 -4.9766342479938462e+07 
+6.4999999999999929e+00 -5.9307253081988187e-01 +8.1002386426652997e+00 -1.6215161627497625e+00 +7.5312938979753099e+01 +1.1140758793977282e+04 -5.5887065316791274e+05 -4.9752334424122609e+07 
+6.5999999999999925e+00 -5.9307287287088406e-01 +8.1002443933160411e+00 -1.6155056388830642e+00 +7.4838793258321431e+01 +1.1111958600831875e+04 -5.5590732148767693e+05 -4.9736174733140141e+07 
+6.6999999999999922e+00 -5.9307322958692665e-01 +8.1002484385365605e+00 -1.6090625850682185e+00 +7.4373565209280770e+01 +1.1079847676154632e+04 -5.5292115930832340e+05 -4.9716673648764685e+07 
+6.7999999999999918e+00 -5.9307360019268218e-01 +8.1002509008766079e+00 -1.6022217523629028e+00 +7.3919179057529405e+01 +1.1044400359038700e+04 -5.4993303260797146e+05 -4.9692641778156519e+07 
+6.8999999999999915e+00 -5.9307398391278487e-01 +8.1002519029089708e+00 -1.5950179000118720e+00 +7.3477558621394451e+01 +1.1005591157458946e+04 -5.4696380564296979e+05 -4.9662890535482690e+07 
+6.9999999999999911e+00 -5.9307437997188128e-01 +8.1002515672101190e+00 -1.5874857891302445e+00 +7.3050627863687694e+01 +1.0963394626270709e+04 -5.4403434412075987e+05 -4.9626231552839495e+07 
+7.0999999999999908e+00 -5.9307478759462295e-01 +8.1002500163725593e+00 -1.5796601842714741e+00 +7.2640310564075250e+01 +1.0917785403860478e+04 -5.4116551337879524e+05 -4.9581476873981379e+07 
+7.1999999999999904e+00 -5.9307520600565089e-01 +8.1002473730023112e+00 -1.5715758553307348e+00 +7.2248530384185017e+01 +1.0868738244458713e+04 -5.3837817873678822e+05 -4.9527439093681864e+07 
+7.2999999999999901e+00 -5.9307563442960820e-01 +8.1002437597157044e+00 -1.5632675764495645e+00 +7.1877210989635273e+01 +1.0816228002265832e+04 -5.3569320628606086e+05 -4.9462931295846574e+07 
+7.3999999999999897e+00 -5.9307607209112223e-01 +8.1002392991438121e+00 -1.5547701277494825e+00 +7.1528275915022206e+01 +1.0760229658952287e+04 -5.3313146209131111e+05 -4.9386767167554840e+07 
+7.4999999999999893e+00 -5.9307651821484197e-01 +8.1002341139304654e+00 -1.5461182910956934e+00 +7.1203648642026934e+01 +1.0700718248350522e+04 -5.3071381269326503e+05 -4.9297760654307887e+07 
+7.5999999999999890e+00 -5.9307697202539422e-01 +8.1002283267413553e+00 -1.5373468562490409e+00 +7.0905252336497341e+01 +1.0637668974842711e+04 -5.2846112358606397e+05 -4.9194726524287492e+07 
+7.6999999999999886e+00 -5.9307743274740587e-01 +8.1002220602451942e+00 -1.5284906171592654e+00 +7.0635010426437745e+01 +1.0571057136964871e+04 -5.2639426266536035e+05 -4.9076479989353798e+07 
+7.7999999999999883e+00 -5.9307789960549695e-01 +8.1002154371399282e+00 -1.5195843739826631e+00 +7.0394845816504983e+01 +1.0500858174453882e+04 -5.2453409558221477e+05 -4.8941836948858820e+07 
+7.8999999999999879e+00 -5.9307837182431766e-01 +8.1002085801277168e+00 -1.5106629282542370e+00 +7.0186681655116999e+01 +1.0427047573097361e+04 -5.2290149032893329e+05 -4.8789613528394848e+07 
+7.9999999999999876e+00 -5.9307884862847871e-01 +8.1002016119374058e+00 -1.5017610916697106e+00 +7.0012440674977640e+01 +1.0349601032205133e+04 -5.2151731317776692e+05 -4.8618626857699908e+07 
+8.0999999999999872e+00 -5.9307932923332918e-01 +8.1001946710022317e+00 -1.4929156285873497e+00 +6.9873004272149345e+01 +1.0268648154472094e+04 -5.2039479413561127e+05 -4.8428507985108785e+07 
+8.1999999999999869e+00 -5.9307981283816702e-01 +8.1001879701238355e+00 -1.4841690520619368e+00 +6.9764453466773830e+01 +1.0184934435683690e+04 -5.1951417797067802e+05 -4.8222274897559471e+07 
+8.2999999999999865e+00 -5.9308029864346601e-01 +8.1001817437936960e+00 -1.4755648521392581e+00 +6.9681495808420124e+01 +1.0099361971098306e+04 -5.1884675068404782e+05 -4.8003835752615251e+07 
+8.3999999999999861e+00 -5.9308078584974555e-01 +8.1001762265244963e+00 -1.4671465160177037e+00 +6.9618838089223829e+01 +1.0012832825675967e+04 -5.1836379388263676e+05 -4.7777098620988213e+07 
+8.4999999999999858e+00 -5.9308127365759034e-01 +8.1001716528364902e+00 -1.4589575246768072e+00 +6.9571186784666949e+01 +9.9262489582558974e+03 -5.1803658727270580e+05 -4.7545971108940259e+07 
+8.5999999999999854e+00 -5.9308176126762879e-01 +8.1001682572697291e+00 -1.4510413560870012e+00 +6.9533247690930665e+01 +9.8405122892127310e+03 -5.1783640652137576e+05 -4.7314360701119892e+07 
+8.6999999999999851e+00 -5.9308224788056629e-01 +8.1001662743733096e+00 -1.4434414808833635e+00 +6.9499726215259926e+01 +9.7565246136020287e+03 -5.1773452489920647e+05 -4.7086174332349189e+07 
+8.7999999999999847e+00 -5.9308273269716971e-01 +8.1001659387113225e+00 -1.4362013645870615e+00 +6.9465327219883903e+01 +9.6751876484472723e+03 -5.1770221243090654e+05 -4.6865318629407808e+07 
+8.8999999999999844e+00 -5.9308321491826943e-01 +8.1001674848663541e+00 -1.4293644672500960e+00 +6.9424754911737153e+01 +9.5974030205043127e+03 -5.1771073523238278e+05 -4.6655699834105313e+07 
+8.9999999999999840e+00 -5.9308369374477743e-01 +8.1001711474332350e+00 -1.4229742412762758e+00 +6.9372712999509446e+01 +9.5240722338113865e+03 -5.1773135636115138e+05 -4.6461223680451572e+07 
+9.0999999999999837e+00 -5.9308416837766564e-01 +8.1001771610213407e+00 -1.4170741342655113e+00 +6.9303904647159868e+01 +9.4560967153483762e+03 -5.1773533561895491e+05 -4.6285795582680874e+07 
+9.1999999999999833e+00 -5.9308463801795297e-01 +8.1001857602588565e+00 -1.4117075903195475e+00 +6.9213032342867209e+01 +9.3943778448060712e+03 -5.1769392876221862e+05 -4.6133320794975184e+07 
+9.2999999999999829e+00 -5.9308510186678787e-01 +8.1001971797888750e+00 -1.4069180403084416e+00 +6.9094797974613101e+01 +9.3398167703865511e+03 -5.1757838786437869e+05 -4.6007703536763646e+07 
+9.3999999999999826e+00 -5.9308555912534044e-01 +8.1002116542701987e+00 -1.4027489150002703e+00 +6.8943902864222210e+01 +9.2933146563049540e+03 -5.1735996166496584e+05 -4.5912848164045162e+07 
+9.4999999999999822e+00 -5.9308600899489716e-01 +8.1002294183790582e+00 -1.3992436333807754e+00 +6.8755047641313737e+01 +9.2557724625641567e+03 -5.1700989463614789e+05 -4.5852658128270961e+07 
+9.5999999999999819e+00 -5.9308645067679189e-01 +8.1002507068107246e+00 -1.3964456116065826e+00 +6.8522932253576229e+01 +9.2280911165993548e+03 -5.1649942721405992e+05 -4.5831036796185270e+07 
+9.6999999999999815e+00 -5.9308688337245596e-01 +8.1002757542742074e+00 -1.3943982557918686e+00 +6.8242256074083258e+01 +9.2111713723112480e+03 -5.1579979629016202e+05 -4.5851886771392457e+07 
+9.7999999999999812e+00 -5.9308730628340389e-01 +8.1003047955030940e+00 -1.3931449654796699e+00 +6.7907717610516784e+01 +9.2059138832887311e+03 -5.1488223361330148e+05 -4.5919110259306014e+07 
+9.8999999999999808e+00 -5.9308771861123399e-01 +8.1003380652415835e+00 -1.3927291323224691e+00 +6.7514014882546192e+01 +9.2132191722457555e+03 -5.1371796788783517e+05 -4.6036608909889370e+07 
+9.9999999999999805e+00 -5.9308811955764473e-01 +8.1003757982565556e+00 -1.3931941384864504e+00 +6.7055845072280064e+01 +9.2339876022841509e+03 -5.1227822313839605e+05 -4.6208283717226446e+07 
+1.0099999999999980e+01 -5.9308850863299356e-01 +8.1004181178500421e+00 -1.3945673356686858e+00 +6.6529936256740299e+01 +9.2688414842371130e+03 -5.1054443348210491e+05 -4.6436895105330847e+07 
