# field on trajectory
# s[mm] rx[mm] ry[mm] rz[mm] bx[T] by[T] bz[T]
0.0000000000000000e+00 +8.1529999999999987e+00 +0.0000000000000000e+00 +0.0000000000000000e+00 -3.0843964617551161e-02 -5.6495014462124971e-01 +5.6228652515094846e-03
1.0000000000000001e-01 +8.1529997168344117e+00 +0.0000000000000000e+00 +9.9999999999465433e-02 -3.0843938888276967e-02 -5.6495011000912587e-01 +5.6228927874404375e-03
2.0000000000000001e-01 +8.1529988673376721e+00 +0.0000000000000000e+00 +1.9999999999572360e-01 -3.0843904553565876e-02 -5.6495010070164575e-01 +5.6229195263841443e-03
3.0000000000000004e-01 +8.1529974515097869e+00 +0.0000000000000000e+00 +2.9999999998556715e-01 -3.0843862415766740e-02 -5.6495011537900774e-01 +5.6229455801272447e-03
4.0000000000000002e-01 +8.1529954693507438e+00 +0.0000000000000000e+00 +3.9999999996578872e-01 -3.0843813277224109e-02 -5.6495015272140914e-01 +5.6229710604571376e-03
5.0000000000000000e-01 +8.1529929208605054e+00 +0.0000000000000000e+00 +4.9999999993318106e-01 -3.0843757940277675e-02 -5.6495021140905000e-01 +5.6229960791618046e-03
5.9999999999999998e-01 +8.1529898060390114e+00 +0.0000000000000000e+00 +5.9999999988453689e-01 -3.0843697207261805e-02 -5.6495029012213294e-01 +5.6230207480296212e-03
6.9999999999999996e-01 +8.1529861248861835e+00 +0.0000000000000000e+00 +6.9999999981664884e-01 -3.0843631880505085e-02 -5.6495038754086579e-01 +5.6230451788491960e-03
7.9999999999999993e-01 +8.1529818774019258e+00 +0.0000000000000000e+00 +7.9999999972630964e-01 -3.0843562762329715e-02 -5.6495050234546063e-01 +5.6230694834091674e-03
8.9999999999999991e-01 +8.1529770635861212e+00 +0.0000000000000000e+00 +8.9999999961031185e-01 -3.0843490655051067e-02 -5.6495063321613714e-01 +5.6230937734980330e-03
9.9999999999999989e-01 +8.1529716834386399e+00 +0.0000000000000000e+00 +9.9999999946544826e-01 -3.0843416360977191e-02 -5.6495077883312295e-01 +5.6231181609039784e-03
1.0999999999999999e+00 +8.1529657369593362e+00 +0.0000000000000000e+00 +1.0999999992885114e+00 -3.0843340682408276e-02 -5.6495093787665462e-01 +5.6231427574146729e-03
1.2000000000000000e+00 +8.1529592241480522e+00 +0.0000000000000000e+00 +1.1999999990762942e+00 -3.0843264421636176e-02 -5.6495110902697954e-01 +5.6231676748171129e-03
1.3000000000000000e+00 +8.1529521450046154e+00 +0.0000000000000000e+00 +1.2999999988255893e+00 -3.0843188380943888e-02 -5.6495129096435648e-01 +5.6231930248974299e-03
1.4000000000000001e+00 +8.1529444995288429e+00 +0.0000000000000000e+00 +1.3999999985331890e+00 -3.0843113362605049e-02 -5.6495148236905712e-01 +5.6232189194407051e-03
1.5000000000000002e+00 +8.1529362877205447e+00 +0.0000000000000000e+00 +1.4999999981958865e+00 -3.0843040168883451e-02 -5.6495168192136780e-01 +5.6232454702308064e-03
1.6000000000000003e+00 +8.1529275095795199e+00 +0.0000000000000000e+00 +1.5999999978104740e+00 -3.0842969602032533e-02 -5.6495188830158982e-01 +5.6232727890501849e-03
1.7000000000000004e+00 +8.1529181651055644e+00 +0.0000000000000000e+00 +1.6999999973737443e+00 -3.0842902464294823e-02 -5.6495210019004127e-01 +5.6233009876797083e-03
1.8000000000000005e+00 +8.1529082542984632e+00 +0.0000000000000000e+00 +1.7999999968824902e+00 -3.0842839557901555e-02 -5.6495231626705833e-01 +5.6233301778984834e-03
1.9000000000000006e+00 +8.1528977771580013e+00 +0.0000000000000000e+00 +1.8999999963335041e+00 -3.0842781685072044e-02 -5.6495253521299615e-01 +5.6233604714836672e-03
2.0000000000000004e+00 +8.1528867336839603e+00 +0.0000000000000000e+00 +1.9999999957235790e+00 -3.0842729648013226e-02 -5.6495275570823000e-01 +5.6233919802102855e-03
2.1000000000000005e+00 +8.1528751238761199e+00 +0.0000000000000000e+00 +2.0999999950495072e+00 -3.0842684132831054e-02 -5.6495297666270328e-01 +5.6234247849444186e-03
2.2000000000000006e+00 +8.1528629477342580e+00 +0.0000000000000000e+00 +2.1999999943080812e+00 -3.0842645361269950e-02 -5.6495319790455967e-01 +5.6234588429240825e-03
2.3000000000000007e+00 +8.1528502052581526e+00 +0.0000000000000000e+00 +2.2999999934960940e+00 -3.0842613438985297e-02 -5.6495341949149058e-01 +5.6234940804808673e-03
2.4000000000000008e+00 +8.1528368964475835e+00 +0.0000000000000000e+00 +2.3999999926103381e+00 -3.0842588471633667e-02 -5.6495364148118543e-01 +5.6235304239469807e-03
2.5000000000000009e+00 +8.1528230213023267e+00 +0.0000000000000000e+00 +2.4999999916476061e+00 -3.0842570564873918e-02 -5.6495386393133107e-01 +5.6235677996554177e-03
2.6000000000000010e+00 +8.1528085798221621e+00 +0.0000000000000000e+00 +2.5999999906046907e+00 -3.0842559824368201e-02 -5.6495408689960902e-01 +5.6236061339401278e-03
2.7000000000000011e+00 +8.1527935720068641e+00 +0.0000000000000000e+00 +2.6999999894783846e+00 -3.0842556355783084e-02 -5.6495431044369537e-01 +5.6236453531361827e-03
2.8000000000000012e+00 +8.1527779978562105e+00 +0.0000000000000000e+00 +2.7999999882654802e+00 -3.0842560264790510e-02 -5.6495453462125789e-01 +5.6236853835799350e-03
2.9000000000000012e+00 +8.1527618573699776e+00 +0.0000000000000000e+00 +2.8999999869627699e+00 -3.0842571657068964e-02 -5.6495475948995622e-01 +5.6237261516091930e-03
3.0000000000000013e+00 +8.1527451505479398e+00 +0.0000000000000000e+00 +2.9999999855670469e+00 -3.0842590638304433e-02 -5.6495498510743891e-01 +5.6237675835633860e-03
3.1000000000000014e+00 +8.1527278773898715e+00 +0.0000000000000000e+00 +3.0999999840751031e+00 -3.0842617314191512e-02 -5.6495521153134198e-01 +5.6238096057837231e-03
3.2000000000000015e+00 +8.1527100378955453e+00 +0.0000000000000000e+00 +3.1999999824837317e+00 -3.0842651790434460e-02 -5.6495543881928967e-01 +5.6238521446133703e-03
3.3000000000000016e+00 +8.1526916320647356e+00 +0.0000000000000000e+00 +3.2999999807897251e+00 -3.0842694172748233e-02 -5.6495566702888989e-01 +5.6238951263976114e-03
3.4000000000000017e+00 +8.1526726598972132e+00 +0.0000000000000000e+00 +3.3999999789898756e+00 -3.0842744566859530e-02 -5.6495589621773501e-01 +5.6239384774840083e-03
3.5000000000000018e+00 +8.1526531213927491e+00 +0.0000000000000000e+00 +3.4999999770809760e+00 -3.0842803078507883e-02 -5.6495612644339899e-01 +5.6239821242225823e-03
3.6000000000000019e+00 +8.1526330165511141e+00 +0.0000000000000000e+00 +3.5999999750598191e+00 -3.0842869813446697e-02 -5.6495635776343756e-01 +5.6240259929659650e-03
3.7000000000000020e+00 +8.1526123453720754e+00 +0.0000000000000000e+00 +3.6999999729231972e+00 -3.0842944877444285e-02 -5.6495659023538447e-01 +5.6240700100695755e-03
3.8000000000000020e+00 +8.1525911078554021e+00 +0.0000000000000000e+00 +3.7999999706679031e+00 -3.0843028376284942e-02 -5.6495682391675228e-01 +5.6241141018917732e-03
3.9000000000000021e+00 +8.1525693040008598e+00 +0.0000000000000000e+00 +3.8999999682907291e+00 -3.0843120415769986e-02 -5.6495705886502945e-01 +5.6241581947940452e-03
4.0000000000000018e+00 +8.1525469338082139e+00 +0.0000000000000000e+00 +3.9999999657884677e+00 -3.0843221101718808e-02 -5.6495729513767934e-01 +5.6242022151411540e-03
4.1000000000000014e+00 +8.1525239972772265e+00 +0.0000000000000000e+00 +4.0999999631579120e+00 -3.0843330306262295e-02 -5.6495753293347728e-01 +5.6242461081910241e-03
4.2000000000000011e+00 +8.1525004944076631e+00 +0.0000000000000000e+00 +4.1999999603958535e+00 -3.0843446966717002e-02 -5.6495777301652450e-01 +5.6242898947620953e-03
4.3000000000000007e+00 +8.1524764251992821e+00 +0.0000000000000000e+00 +4.2999999574990859e+00 -3.0843569786704609e-02 -5.6495801629223730e-01 +5.6243336145605505e-03
4.4000000000000004e+00 +8.1524517896518400e+00 +0.0000000000000000e+00 +4.3999999544644011e+00 -3.0843697469859831e-02 -5.6495826366600754e-01 +5.6243773072898774e-03
4.5000000000000000e+00 +8.1524265877650901e+00 +0.0000000000000000e+00 +4.4999999512885918e+00 -3.0843828719831046e-02 -5.6495851604320213e-01 +5.6244210126506636e-03
4.5999999999999996e+00 +8.1524008195387800e+00 +0.0000000000000000e+00 +4.5999999479684508e+00 -3.0843962240280774e-02 -5.6495877432916053e-01 +5.6244647703403775e-03
4.6999999999999993e+00 +8.1523744849726505e+00 +0.0000000000000000e+00 +4.6999999445007701e+00 -3.0844096734886268e-02 -5.6495903942919568e-01 +5.6245086200531948e-03
4.7999999999999989e+00 +8.1523475840664368e+00 +0.0000000000000000e+00 +4.7999999408823424e+00 -3.0844230907340040e-02 -5.6495931224859097e-01 +5.6245526014797641e-03
4.8999999999999986e+00 +8.1523201168198671e+00 +0.0000000000000000e+00 +4.8999999371099605e+00 -3.0844363461350409e-02 -5.6495959369260063e-01 +5.6245967543070343e-03
4.9999999999999982e+00 +8.1522920832326609e+00 +0.0000000000000000e+00 +4.9999999331804164e+00 -3.0844493100642044e-02 -5.6495988466644831e-01 +5.6246411182180218e-03
5.0999999999999979e+00 +8.1522634833045267e+00 +0.0000000000000000e+00 +5.0999999290905036e+00 -3.0844618528956525e-02 -5.6496018607532461e-01 +5.6246857328916379e-03
5.1999999999999975e+00 +8.1522343170351625e+00 +0.0000000000000000e+00 +5.1999999248370132e+00 -3.0844738450052856e-02 -5.6496049882438892e-01 +5.6247306380024674e-03
5.2999999999999972e+00 +8.1522045844242559e+00 +0.0000000000000000e+00 +5.2999999204167390e+00 -3.0844851567708068e-02 -5.6496082381876489e-01 +5.6247758732205586e-03
5.3999999999999968e+00 +8.1521742854714816e+00 +0.0000000000000000e+00 +5.3999999158264727e+00 -3.0844956585717700e-02 -5.6496116196354207e-01 +5.6248214782112470e-03
5.4999999999999964e+00 +8.1521434201765022e+00 +0.0000000000000000e+00 +5.4999999110630071e+00 -3.0845052207896396e-02 -5.6496151416377283e-01 +5.6248674926349315e-03
5.5999999999999961e+00 +8.1521119885389659e+00 +0.0000000000000000e+00 +5.5999999061231343e+00 -3.0845137138078429e-02 -5.6496188132447334e-01 +5.6249139561468826e-03
5.6999999999999957e+00 +8.1520799905585051e+00 +0.0000000000000000e+00 +5.6999999010036468e+00 -3.0845210080118292e-02 -5.6496226435062102e-01 +5.6249609083970269e-03
5.7999999999999954e+00 +8.1520474262347360e+00 +0.0000000000000000e+00 +5.7999998957013368e+00 -3.0845269737891149e-02 -5.6496266414715335e-01 +5.6250083890297606e-03
5.8999999999999950e+00 +8.1520142955672590e+00 +0.0000000000000000e+00 +5.8999998902129978e+00 -3.0845314815293512e-02 -5.6496308161896758e-01 +5.6250564376837380e-03
5.9999999999999947e+00 +8.1519805985556584e+00 +0.0000000000000000e+00 +5.9999998845354208e+00 -3.0845344016243691e-02 -5.6496351767091924e-01 +5.6251050939916704e-03
6.0999999999999943e+00 +8.1519463351994954e+00 +0.0000000000000000e+00 +6.0999998786653986e+00 -3.0845356485216881e-02 -5.6496397271438781e-01 +5.6251543750768691e-03
6.1999999999999940e+00 +8.1519115054983171e+00 +0.0000000000000000e+00 +6.1999998725997241e+00 -3.0845353128834973e-02 -5.6496444518699418e-01 +5.6252042080459632e-03
6.2999999999999936e+00 +8.1518761094516510e+00 +0.0000000000000000e+00 +6.2999998663351899e+00 -3.0845335294224056e-02 -5.6496493303295625e-01 +5.6252544975039761e-03
6.3999999999999932e+00 +8.1518401470590085e+00 +0.0000000000000000e+00 +6.3999998598685872e+00 -3.0845304328470109e-02 -5.6496543419653378e-01 +5.6253051480586293e-03
6.4999999999999929e+00 +8.1518036183198888e+00 +0.0000000000000000e+00 +6.4999998531967096e+00 -3.0845261578616993e-02 -5.6496594662203237e-01 +5.6253560643205079e-03
6.5999999999999925e+00 +8.1517665232337801e+00 +0.0000000000000000e+00 +6.5999998463163490e+00 -3.0845208391664575e-02 -5.6496646825380503e-01 +5.6254071509032081e-03
6.6999999999999922e+00 +8.1517288618001604e+00 +0.0000000000000000e+00 +6.6999998392242972e+00 -3.0845146114566756e-02 -5.6496699703625408e-01 +5.6254583124235140e-03
6.7999999999999918e+00 +8.1516906340185020e+00 +0.0000000000000000e+00 +6.7999998319173471e+00 -3.0845076094229595e-02 -5.6496753091383334e-01 +5.6255094535015383e-03
6.8999999999999915e+00 +8.1516518398882702e+00 +0.0000000000000000e+00 +6.8999998243922906e+00 -3.0844999677509387e-02 -5.6496806783105213e-01 +5.6255604787609007e-03
6.9999999999999911e+00 +8.1516124794089269e+00 +0.0000000000000000e+00 +6.9999998166459196e+00 -3.0844918211210669e-02 -5.6496860573247543e-01 +5.6256112928288809e-03
7.0999999999999908e+00 +8.1515725525799354e+00 +0.0000000000000000e+00 +7.0999998086750269e+00 -3.0844833042084387e-02 -5.6496914256272746e-01 +5.6256618003365779e-03
7.1999999999999904e+00 +8.1515320594007594e+00 +0.0000000000000000e+00 +7.1999998004764052e+00 -3.0844745516825901e-02 -5.6496967626649408e-01 +5.6257119059190744e-03
7.2999999999999901e+00 +8.1514909998708660e+00 +0.0000000000000000e+00 +7.2999997920468465e+00 -3.0844656982073084e-02 -5.6497020478852389e-01 +5.6257615142155893e-03
7.3999999999999897e+00 +8.1514493739897258e+00 +0.0000000000000000e+00 +7.3999997833831426e+00 -3.0844568784404381e-02 -5.6497072607363152e-01 +5.6258105298696475e-03
7.4999999999999893e+00 +8.1514071817568183e+00 +0.0000000000000000e+00 +7.4999997744820863e+00 -3.0844482270336936e-02 -5.6497123806670047e-01 +5.6258588575292413e-03
7.5999999999999890e+00 +8.1513644231716320e+00 +0.0000000000000000e+00 +7.5999997653404687e+00 -3.0844398786324608e-02 -5.6497173871268402e-01 +5.6259064018469732e-03
7.6999999999999886e+00 +8.1513210982336659e+00 +0.0000000000000000e+00 +7.6999997559550835e+00 -3.0844319678756071e-02 -5.6497222595660912e-01 +5.6259530674802449e-03
7.7999999999999883e+00 +8.1512772069424333e+00 +0.0000000000000000e+00 +7.7999997463227224e+00 -3.0844246293952864e-02 -5.6497269774357639e-01 +5.6259987590913888e-03
7.8999999999999879e+00 +8.1512327492974617e+00 +0.0000000000000000e+00 +7.8999997364401775e+00 -3.0844179978167484e-02 -5.6497315201876508e-01 +5.6260433813478524e-03
7.9999999999999876e+00 +8.1511877252982998e+00 +0.0000000000000000e+00 +7.9999997263042406e+00 -3.0844122077581491e-02 -5.6497358672743392e-01 +5.6260868389223367e-03
8.0999999999999872e+00 +8.1511421349445108e+00 +0.0000000000000000e+00 +8.0999997159117054e+00 -3.0844073620582644e-02 -5.6497400039682710e-01 +5.6261290802753399e-03
8.1999999999999869e+00 +8.1510959782356824e+00 +0.0000000000000000e+00 +8.1999997052593621e+00 -3.0844034364627206e-02 -5.6497439388189208e-01 +5.6261702290030351e-03
8.2999999999999865e+00 +8.1510492551714222e+00 +0.0000000000000000e+00 +8.2999996943440042e+00 -3.0844003749472142e-02 -5.6497476861953222e-01 +5.6262104524881697e-03
8.3999999999999861e+00 +8.1510019657513553e+00 +0.0000000000000000e+00 +8.3999996831624237e+00 -3.0843981214911879e-02 -5.6497512604669098e-01 +5.6262499181168948e-03
8.4999999999999858e+00 +8.1509541099751246e+00 +0.0000000000000000e+00 +8.4999996717114126e+00 -3.0843966200779813e-02 -5.6497546760035411e-01 +5.6262887932788360e-03
8.5999999999999854e+00 +8.1509056878423909e+00 +0.0000000000000000e+00 +8.5999996599877626e+00 -3.0843958146949697e-02 -5.6497579471754833e-01 +5.6263272453671853e-03
8.6999999999999851e+00 +8.1508566993528255e+00 +0.0000000000000000e+00 +8.6999996479882675e+00 -3.0843956493337234e-02 -5.6497610883534388e-01 +5.6263654417787823e-03
8.7999999999999847e+00 +8.1508071445061159e+00 +0.0000000000000000e+00 +8.7999996357097192e+00 -3.0843960679901541e-02 -5.6497641139085464e-01 +5.6264035499142152e-03
8.8999999999999844e+00 +8.1507570233019599e+00 +0.0000000000000000e+00 +8.8999996231489096e+00 -3.0843970146646593e-02 -5.6497670382123910e-01 +5.6264417371778867e-03
8.9999999999999840e+00 +8.1507063357400664e+00 +0.0000000000000000e+00 +8.9999996103026305e+00 -3.0843984333622790e-02 -5.6497698756370196e-01 +5.6264801709781202e-03
9.0999999999999837e+00 +8.1506550818201529e+00 +0.0000000000000000e+00 +9.0999995971676739e+00 -3.0844002680928368e-02 -5.6497726405549342e-01 +5.6265190187272341e-03
9.1999999999999833e+00 +8.1506032615419421e+00 +0.0000000000000000e+00 +9.1999995837408335e+00 -3.0844024628710959e-02 -5.6497753473391210e-01 +5.6265584478416373e-03
9.2999999999999829e+00 +8.1505508749051661e+00 +0.0000000000000000e+00 +9.2999995700189011e+00 -3.0844049617169047e-02 -5.6497780103630413e-01 +5.6265986257419071e-03
9.3999999999999826e+00 +8.1504979219095581e+00 +0.0000000000000000e+00 +9.3999995559986669e+00 -3.0844077086553453e-02 -5.6497806440006504e-01 +5.6266397198528832e-03
9.4999999999999822e+00 +8.1504444025548555e+00 +0.0000000000000000e+00 +9.4999995416769263e+00 -3.0844106477168856e-02 -5.6497832626264055e-01 +5.6266818976037471e-03
9.5999999999999819e+00 +8.1503903168407987e+00 +0.0000000000000000e+00 +9.5999995270504694e+00 -3.0844137229375256e-02 -5.6497858806152723e-01 +5.6267253264281180e-03
9.6999999999999815e+00 +8.1503356647671268e+00 +0.0000000000000000e+00 +9.6999995121160882e+00 -3.0844168783589459e-02 -5.6497885123427249e-01 +5.6267701737641312e-03
9.7999999999999812e+00 +8.1502804463335767e+00 +0.0000000000000000e+00 +9.7999994968705764e+00 -3.0844200580286613e-02 -5.6497911721847771e-01 +5.6268166070545331e-03
9.8999999999999808e+00 +8.1502246615398839e+00 +0.0000000000000000e+00 +9.8999994813107257e+00 -3.0844232060001649e-02 -5.6497938745179654e-01 +5.6268647937467563e-03
9.9999999999999805e+00 +8.1501683103857783e+00 +0.0000000000000000e+00 +9.9999994654333282e+00 -3.0844262663330790e-02 -5.6497966337193839e-01 +5.6269149012930187e-03
1.0099999999999980e+01 +8.1501113928709863e+00 +0.0000000000000000e+00 +1.0099999449235176e+01 -3.0844291910860074e-02 -5.6497994621735159e-01 +5.6269670551679588e-03
1.0199999999999980e+01 +8.1500539089952255e+00 +0.0000000000000000e+00 +1.0199999432713060e+01 -3.0844319642926065e-02 -5.6498023642920470e-01 +5.6270212129153766e-03
1.0299999999999979e+01 +8.1499958587582064e+00 +0.0000000000000000e+00 +1.0299999415863775e+01 -3.0844345779785481e-02 -5.6498053424921868e-01 +5.6270772900910860e-03
1.0399999999999979e+01 +8.1499372421596323e+00 +0.0000000000000000e+00 +1.0399999398684113e+01 -3.0844370241678520e-02 -5.6498083991896819e-01 +5.6271352022457108e-03
1.0499999999999979e+01 +8.1498780591991995e+00 +0.0000000000000000e+00 +1.0499999381170863e+01 -3.0844392948828257e-02 -5.6498115367987778e-01 +5.6271948649245281e-03
1.0599999999999978e+01 +8.1498183098765953e+00 +0.0000000000000000e+00 +1.0599999363320819e+01 -3.0844413821440202e-02 -5.6498147577321844e-01 +5.6272561936673102e-03
1.0699999999999978e+01 +8.1497579941914982e+00 +0.0000000000000000e+00 +1.0699999345130774e+01 -3.0844432779701760e-02 -5.6498180644010232e-01 +5.6273191040081688e-03
1.0799999999999978e+01 +8.1496971121435795e+00 +0.0000000000000000e+00 +1.0799999326597520e+01 -3.0844449743781744e-02 -5.6498214592148022e-01 +5.6273835114753886e-03
1.0899999999999977e+01 +8.1496356637325000e+00 +0.0000000000000000e+00 +1.0899999307717849e+01 -3.0844464633829824e-02 -5.6498249445813620e-01 +5.6274493315912636e-03
1.0999999999999977e+01 +8.1495736489579116e+00 +0.0000000000000000e+00 +1.0999999288488551e+01 -3.0844477369976066e-02 -5.6498285229068512e-01 +5.6275164798719425e-03
1.1099999999999977e+01 +8.1495110678194589e+00 +0.0000000000000000e+00 +1.1099999268906421e+01 -3.0844487872330406e-02 -5.6498321965956744e-01 +5.6275848718272741e-03
1.1199999999999976e+01 +8.1494479203167742e+00 +0.0000000000000000e+00 +1.1199999248968250e+01 -3.0844496060982086e-02 -5.6498359680504573e-01 +5.6276544229606259e-03
1.1299999999999976e+01 +8.1493842064494828e+00 +0.0000000000000000e+00 +1.1299999228670830e+01 -3.0844501855999254e-02 -5.6498398396720118e-01 +5.6277250487687461e-03
1.1399999999999975e+01 +8.1493199262171974e+00 +0.0000000000000000e+00 +1.1399999208010952e+01 -3.0844505177428334e-02 -5.6498438138592921e-01 +5.6277966647415890e-03
1.1499999999999975e+01 +8.1492550796195236e+00 +0.0000000000000000e+00 +1.1499999186985409e+01 -3.0844505945293598e-02 -5.6498478930093432e-01 +5.6278691863621607e-03
1.1599999999999975e+01 +8.1491896666560528e+00 +0.0000000000000000e+00 +1.1599999165590994e+01 -3.0844504079596585e-02 -5.6498520795172880e-01 +5.6279425291063528e-03
1.1699999999999974e+01 +8.1491236873263677e+00 +0.0000000000000000e+00 +1.1699999143824497e+01 -3.0844499500315706e-02 -5.6498563757762676e-01 +5.6280166084427844e-03
1.1799999999999974e+01 +8.1490571416300401e+00 +0.0000000000000000e+00 +1.1799999121682713e+01 -3.0844492127405549e-02 -5.6498607841774029e-01 +5.6280913398326343e-03
