# multipoles
# s[mm] polynom_b[n=0][T/m^n] polynom_b[n=1][T/m^n] polynom_b[n=2][T/m^n] polynom_b[n=3][T/m^n] polynom_b[n=4][T/m^n] polynom_b[n=5][T/m^n] polynom_b[n=6][T/m^n] 
+0.0000000000000000e+00 -5.3816211416798021e-01 +7.3489384541377722e+00 -1.8635639820276789e-01 +3.0371587418721436e+01 -9.7287188637552129e+02 -3.9456381467790779e+05 +6.9007211714106500e+06 
-1.0000000000000001e-01 -5.3816208787768582e-01 +7.3489052229624523e+00 -1.8756460508938130e-01 +3.1010347369519032e+01 -9.8670013174032931e+02 -3.9739192435407033e+05 +7.0269549518810278e+06 
-2.0000000000000001e-01 -5.3816205635183967e-01 +7.3488721572264106e+00 -1.8889231496516976e-01 +3.1599300037849886e+01 -1.0008939260182958e+03 -3.9985435130132589e+05 +7.1536772310543163e+06 
-3.0000000000000004e-01 -5.3816202110787303e-01 +7.3488395429724687e+00 -1.9030794232198986e-01 +3.2136777837164317e+01 -1.0154319824882500e+03 -4.0195562763242651e+05 +7.2801548132827133e+06 
-4.0000000000000002e-01 -5.3816198366316204e-01 +7.3488076662392912e+00 -1.9177990798653657e-01 +3.2621113299998761e+01 -1.0302928974838137e+03 -4.0370028607482824e+05 +7.4056539515625639e+06 
-5.0000000000000000e-01 -5.3816194553512597e-01 +7.3487768130661397e+00 -1.9327662753517055e-01 +3.3050638969071741e+01 -1.0454553609833461e+03 -4.0509285942520021e+05 +7.5294413182746870e+06 
-5.9999999999999998e-01 -5.3816190824118137e-01 +7.3487472694948268e+00 -1.9476651643931478e-01 +3.3423687294113471e+01 -1.0608980671264305e+03 -4.0613787983215350e+05 +7.6507836083471179e+06 
-6.9999999999999996e-01 -5.3816187329877874e-01 +7.3487193215605622e+00 -1.9621798644271293e-01 +3.3738590907709174e+01 -1.0765997756870790e+03 -4.0683988043225941e+05 +7.7689478117624288e+06 
-7.9999999999999993e-01 -5.3816184222534869e-01 +7.3486932553028872e+00 -1.9759945186837280e-01 +3.3993682293627813e+01 -1.0925391937707777e+03 -4.0720339338791114e+05 +7.8832006552934004e+06 
-8.9999999999999991e-01 -5.3816181653835315e-01 +7.3486693567540389e+00 -1.9887932383018520e-01 +3.4187294103231672e+01 -1.1086950835243954e+03 -4.0723295168003044e+05 +7.9928091110891365e+06 
-9.9999999999999989e-01 -5.3816179775526185e-01 +7.3486479119481434e+00 -2.0002601331368627e-01 +3.4317758886639751e+01 -1.1250462011740169e+03 -4.0693308754476736e+05 +8.0970401004366502e+06 
-1.0999999999999999e+00 -5.3816178739355791e-01 +7.3486292069132091e+00 -2.0100793034782427e-01 +3.4383409321961786e+01 -1.1415713166133185e+03 -4.0630833380226966e+05 +8.1951606010617660e+06 
-1.2000000000000000e+00 -5.3816178697075734e-01 +7.3486135276787508e+00 -2.0179348220283305e-01 +3.4382577963547767e+01 -1.1582492392983822e+03 -4.0536322232239624e+05 +8.2864377455602512e+06 
-1.3000000000000000e+00 -5.3816179800436748e-01 +7.3486011602684487e+00 -2.0235107846768291e-01 +3.4313597456935206e+01 -1.1750587281340879e+03 -4.0410228528054937e+05 +8.3701384155747816e+06 
-1.4000000000000001e+00 -5.3816182201193974e-01 +7.3485923907009107e+00 -2.0264912516965686e-01 +3.4174800504785651e+01 -1.1919785940454747e+03 -4.0253005493981217e+05 +8.4455297027404141e+06 
-1.5000000000000002e+00 -5.3816186051102055e-01 +7.3485875049951099e+00 -2.0265603038133609e-01 +3.3964519689366796e+01 -1.2089875996515905e+03 -4.0065106256560684e+05 +8.5118784515431188e+06 
-1.6000000000000003e+00 -5.3816191501920096e-01 +7.3485867891616090e+00 -2.0234019873978565e-01 +3.3681087734271308e+01 -1.2260645563644232e+03 -3.9846983998075529e+05 +8.5684517022788674e+06 
-1.7000000000000004e+00 -5.3816198705407259e-01 +7.3485905292090736e+00 -2.0167003687046656e-01 +3.3322837287925310e+01 -1.2431882254034078e+03 -3.9599091823300399e+05 +8.6145162338714339e+06 
-1.8000000000000005e+00 -5.3816207813326944e-01 +7.3485990111405313e+00 -2.0061394882207306e-01 +3.2888101019529444e+01 -1.2603373978708237e+03 -3.9321882812858047e+05 +8.6493389281146713e+06 
-1.9000000000000006e+00 -5.3816218977443420e-01 +7.3486125209531821e+00 -1.9914033967216363e-01 +3.2375211630612625e+01 -1.2774908318119456e+03 -3.9015810032350343e+05 +8.6721864852953218e+06 
-2.0000000000000004e+00 -5.3816232349525550e-01 +7.3486313446397880e+00 -1.9721761220115644e-01 +3.1782501788142568e+01 -1.2946273048240050e+03 -3.8681326486570539e+05 +8.6823256486315075e+06 
-2.1000000000000005e+00 -5.3816248023067081e-01 +7.3486556324016066e+00 -1.9483318105353878e-01 +3.1110143157330377e+01 -1.3116418366977873e+03 -3.8319446338806004e+05 +8.6790352477833871e+06 
-2.2000000000000006e+00 -5.3816265858610590e-01 +7.3486849833026486e+00 -1.9204843451023026e-01 +3.0365923088649367e+01 -1.3281242344812422e+03 -3.7933544984488859e+05 +8.6617424249714687e+06 
-2.3000000000000007e+00 -5.3816285658492213e-01 +7.3487188566031483e+00 -1.8894273643168263e-01 +2.9559597462287609e+01 -1.3435955386257308e+03 -3.7527616800198006e+05 +8.6299367394471001e+06 
-2.4000000000000008e+00 -5.3816307225047932e-01 +7.3487567115698091e+00 -1.8559545125253643e-01 +2.8700922028515802e+01 -1.3575767812165525e+03 -3.7105656106862921e+05 +8.5831077202791087e+06 
-2.5000000000000009e+00 -5.3816330360609810e-01 +7.3487980074792159e+00 -1.8208594696719177e-01 +2.7799652330409064e+01 -1.3695889374258666e+03 -3.6671657131283800e+05 +8.5207446533379368e+06 
-2.6000000000000010e+00 -5.3816354867508842e-01 +7.3488422036095358e+00 -1.7849359243521454e-01 +2.6865543953686284e+01 -1.3791529742589764e+03 -3.6229614154109894e+05 +8.4423368090145867e+06 
-2.7000000000000011e+00 -5.3816380548075238e-01 +7.3488887592494807e+00 -1.7489775618065007e-01 +2.5908352286634692e+01 -1.3857898787819747e+03 -3.5783521376526990e+05 +8.3473735896545192e+06 
-2.8000000000000012e+00 -5.3816407204634842e-01 +7.3489371336964622e+00 -1.7137781111858702e-01 +2.4937832585348247e+01 -1.3890205656232956e+03 -3.5337372961547086e+05 +8.2353440807151236e+06 
-2.9000000000000012e+00 -5.3816434639510391e-01 +7.3489867862584273e+00 -1.6801313216854535e-01 +2.3963739938560089e+01 -1.3883659306617660e+03 -3.4895163018861751e+05 +8.1057373302522879e+06 
-3.0000000000000013e+00 -5.3816462655021580e-01 +7.3490371762551314e+00 -1.6488309693280540e-01 +2.2995829237976441e+01 -1.3833468311373638e+03 -3.4460885590333043e+05 +7.9580422327922769e+06 
-3.1000000000000014e+00 -5.3816491053486226e-01 +7.3490877630136815e+00 -1.6206708298188227e-01 +2.2043855338835048e+01 -1.3734841476972763e+03 -3.4038534752154339e+05 +7.7917478541669231e+06 
-3.2000000000000015e+00 -5.3816519637214533e-01 +7.3491380058782774e+00 -1.5964447560263295e-01 +2.1117572781166242e+01 -1.3582986323466889e+03 -3.3632104453887464e+05 +7.6063426930006398e+06 
-3.3000000000000016e+00 -5.3816548208514192e-01 +7.3491873642037797e+00 -1.5769466052011918e-01 +2.0226735990345489e+01 -1.3373110544844346e+03 -3.3245588639917818e+05 +7.4013153963517696e+06 
-3.4000000000000017e+00 -5.3816576569688457e-01 +7.3492352973620134e+00 -1.5629702703334747e-01 +1.9381099111842421e+01 -1.3100421369343412e+03 -3.2882981158747099e+05 +7.1761544444909031e+06 
-3.5000000000000018e+00 -5.3816604523035549e-01 +7.3492812647361134e+00 -1.5553096743379854e-01 +1.8590416201021814e+01 -1.2760125732269157e+03 -3.2548275879512099e+05 +6.9303482458124654e+06 
-3.6000000000000019e+00 -5.3816631870849152e-01 +7.3493247257295744e+00 -1.5547587736969806e-01 +1.7864440953861781e+01 -1.2347430200240444e+03 -3.2245466535808198e+05 +6.6633851037052860e+06 
-3.7000000000000020e+00 -5.3816658415414687e-01 +7.3493651397598647e+00 -1.5621115892597826e-01 +1.7212926925282154e+01 -1.1857540433696929e+03 -3.1978546860687342e+05 +6.3747529676725529e+06 
-3.8000000000000020e+00 -5.3816683959013378e-01 +7.3494019662631471e+00 -1.5781621671438817e-01 +1.6645627405235015e+01 -1.1285661913887018e+03 -3.1751510519399896e+05 +6.0639397791452399e+06 
-3.9000000000000021e+00 -5.3816708303920424e-01 +7.3494346646958677e+00 -1.6037045917087853e-01 +1.6172295383682616e+01 -1.0626999721324607e+03 -3.1568351092111639e+05 +5.7304333691478074e+06 
-4.0000000000000018e+00 -5.3816731252403727e-01 +7.3494626945302546e+00 -1.6395329973584344e-01 +1.5802683695426319e+01 -9.8767583554493103e+02 -3.1433062161221070e+05 +5.3737213854201697e+06 
-4.1000000000000014e+00 -5.3816752660696210e-01 +7.3494856566729592e+00 -1.6861604076216399e-01 +1.5543784717452120e+01 -9.0324960772284260e+02 -3.1348433351496991e+05 +4.9938520414355453e+06 
-4.2000000000000011e+00 -5.3816772601586182e-01 +7.3495037285370337e+00 -1.7430044856126412e-01 +1.5391029179823004e+01 -8.1006133654363350e+02 -3.1312164031645190e+05 +4.5928753811228247e+06 
-4.3000000000000007e+00 -5.3816791202173675e-01 +7.3495172344958668e+00 -1.8092164811439776e-01 +1.5336825305983471e+01 -7.0895701797576032e+02 -3.1320612151229376e+05 +4.1732777198348711e+06 
-4.4000000000000004e+00 -5.3816808589560938e-01 +7.3495264989158695e+00 -1.8839476307937225e-01 +1.5373581444427218e+01 -6.0078266074128896e+02 -3.1370135711925413e+05 +3.7375454034014186e+06 
-4.5000000000000000e+00 -5.3816824890851922e-01 +7.3495318461505681e+00 -1.9663491466774172e-01 +1.5493706250043655e+01 -4.8638431851300896e+02 -3.1457092872499634e+05 +3.2881649874288798e+06 
-4.5999999999999996e+00 -5.3816840233155572e-01 +7.3495336005436354e+00 -2.0555721868701968e-01 +1.5689608558014610e+01 -3.6660813769142862e+02 -3.1577841864275589e+05 +2.8276234413039652e+06 
-4.6999999999999993e+00 -5.3816854743580478e-01 +7.3495320864257678e+00 -2.1507679190289963e-01 +1.5953697491845437e+01 -2.4230023871256577e+02 -3.1728741058501526e+05 +2.3584075901879803e+06 
-4.7999999999999989e+00 -5.3816868549240393e-01 +7.3495276281172046e+00 -2.2510874570234043e-01 +1.6278382369843222e+01 -1.1430683137559188e+02 -3.1906148906199849e+05 +1.8830046493635306e+06 
-4.8999999999999986e+00 -5.3816881777252890e-01 +7.3495205499149252e+00 -2.3556818696282089e-01 +1.6656073059231833e+01 +1.6525793855992639e+01 -3.2106424138415250e+05 +1.4039022052533187e+06 
-4.9999999999999982e+00 -5.3816894554735795e-01 +7.3495111761130998e+00 -2.4637022314987814e-01 +1.7079179393615565e+01 +1.4935137254602844e+02 -3.2325925430722511e+05 +9.2358767827910476e+05 
-5.0999999999999979e+00 -5.3816907008815396e-01 +7.3494998309804966e+00 -2.5742995232611704e-01 +1.7540111802360769e+01 +2.8332347213941432e+02 -3.2561011761164659e+05 +4.4454926295147283e+05 
-5.1999999999999975e+00 -5.3816919266617602e-01 +7.3494868387730063e+00 -2.6866247350478994e-01 +1.8031280948186819e+01 +4.1759569055588247e+02 -3.2808042199303396e+05 -3.0725027194360711e+04 
-5.2999999999999972e+00 -5.3816931455276373e-01 +7.3494725237257077e+00 -2.7998287736629912e-01 +1.8545097940485611e+01 +5.5132148468106573e+02 -3.3063376025358622e+05 -4.9974655352194642e+05 
-5.3999999999999968e+00 -5.3816943701926645e-01 +7.3494572100592430e+00 -2.9130625391666864e-01 +1.9073974147976678e+01 +6.8365430874536446e+02 -3.3323372620742064e+05 -9.6002669144299510e+05 
-5.4999999999999964e+00 -5.3816956133710547e-01 +7.3494412219737200e+00 -3.0254768556314876e-01 +1.9610321362036562e+01 +8.1374749147967339e+02 -3.3584391558233852e+05 -1.4090762719804221e+06 
-5.5999999999999961e+00 -5.3816968877774818e-01 +7.3494248836406051e+00 -3.1362225030467866e-01 +2.0146552024222192e+01 +9.4075429277079820e+02 -3.3842792731278780e+05 -1.8444058370552738e+06 
-5.6999999999999957e+00 -5.3816982061270391e-01 +7.3494085192210532e+00 -3.2444502204480363e-01 +2.0675078690453660e+01 +1.0638279135075938e+03 -3.4094936042770458e+05 -2.2635257012942359e+06 
-5.7999999999999954e+00 -5.3816995811353729e-01 +7.3493924528460512e+00 -3.3493106920017374e-01 +2.1188314590988146e+01 +1.1821214656067009e+03 -3.4337181723883562e+05 -2.6639457945869523e+06 
-5.8999999999999950e+00 -5.3817010255188402e-01 +7.3493770086252059e+00 -3.4499545307853202e-01 +2.1678673362416617e+01 +1.2947879493940361e+03 -3.4565890175071376e+05 -3.0431755813027536e+06 
-5.9999999999999947e+00 -5.3817025519942008e-01 +7.3493625106447604e+00 -3.5455323115128656e-01 +2.2138569111649108e+01 +1.4009803084623816e+03 -3.4777422006594925e+05 -3.3987242998190904e+06 
-6.0999999999999943e+00 -5.3817041715581182e-01 +7.3493492237715943e+00 -3.6353271340104737e-01 +2.2561862823497506e+01 +1.4999957049642171e+03 -3.4968890958459518e+05 -3.7285491445294353e+06 
-6.1999999999999940e+00 -5.3817058881858693e-01 +7.3493371736794897e+00 -3.7191478545579298e-01 +2.2948454562163771e+01 +1.5916881213207098e+03 -3.5140577406775829e+05 -4.0322829608324002e+06 
-6.2999999999999936e+00 -5.3817077040617500e-01 +7.3493263255203818e+00 -3.7969337088969424e-01 +2.3299821444753061e+01 +1.6760453012516728e+03 -3.5293594215383084e+05 -4.3099456760750785e+06 
-6.3999999999999932e+00 -5.3817096213695115e-01 +7.3493166444476099e+00 -3.8686240012051487e-01 +2.3617440475845964e+01 +1.7530551226308930e+03 -3.5429054158904054e+05 -4.5615578667156762e+06 
-6.4999999999999929e+00 -5.3817116422934819e-01 +7.3493080956037593e+00 -3.9341579798547982e-01 +2.3902788875082088e+01 +1.8227053726039408e+03 -3.5548070108744554e+05 -4.7871397164426884e+06 
-6.5999999999999925e+00 -5.3817137690169881e-01 +7.3493006441310200e+00 -3.9934750178134371e-01 +2.4157343774580013e+01 +1.8849840810741066e+03 -3.5651754856654484e+05 -4.9867125785583407e+06 
-6.6999999999999922e+00 -5.3817160037239609e-01 +7.3492942551695153e+00 -4.0465144242726891e-01 +2.4382582282112676e+01 +1.9398791671219069e+03 -3.5741221155983669e+05 -5.1602973035742333e+06 
-6.7999999999999918e+00 -5.3817183485979925e-01 +7.3492888938547853e+00 -4.0932155576267965e-01 +2.4579981529270359e+01 +1.9873786550722195e+03 -3.5817581742332154e+05 -5.3079152723192656e+06 
-6.8999999999999915e+00 -5.3817208058222199e-01 +7.3492845253177990e+00 -4.1335178419614460e-01 +2.4751018679297932e+01 +2.0274707036042614e+03 -3.5881949339789915e+05 -5.4295885275280103e+06 
-6.9999999999999911e+00 -5.3817233775803164e-01 +7.3492811146898598e+00 -4.1673606435541416e-01 +2.4897170783067079e+01 +2.0601433737523225e+03 -3.5935436577813595e+05 -5.5253386773581207e+06 
-7.0999999999999908e+00 -5.3817260660551447e-01 +7.3492786270941854e+00 -4.1946834352880186e-01 +2.5019915017649573e+01 +2.0853849372218792e+03 -3.5979156127441127e+05 -5.5951883516177135e+06 
-7.1999999999999904e+00 -5.3817288734297852e-01 +7.3492770276560027e+00 -4.2154256752376040e-01 +2.5120728392586955e+01 +2.1031836540094910e+03 -3.6014220530594618e+05 -5.6391601666935906e+06 
-7.2999999999999901e+00 -5.3817318018870985e-01 +7.3492762814904067e+00 -4.2295268582652767e-01 +2.5201088093048860e+01 +2.1135278623571944e+03 -3.6041742396803777e+05 -5.6572771282162583e+06 
-7.3999999999999897e+00 -5.3817348536097276e-01 +7.3492763537156129e+00 -4.2369265139500251e-01 +2.5262471105820143e+01 +2.1164059797912150e+03 -3.6062834188656654e+05 -5.6495626538287718e+06 
-7.4999999999999893e+00 -5.3817380307801710e-01 +7.3492772094432794e+00 -4.2375642003995984e-01 +2.5306354480226506e+01 +2.1118064911982574e+03 -3.6078608368190390e+05 -5.6160405140272034e+06 
-7.5999999999999890e+00 -5.3817413355807764e-01 +7.3492788137822576e+00 -4.2313795076937999e-01 +2.5334215231303279e+01 +2.0997179555455623e+03 -3.6090177343842748e+05 -5.5567348629978960e+06 
-7.6999999999999886e+00 -5.3817447701936783e-01 +7.3492811318391196e+00 -4.2183120573870242e-01 +2.5347530318199645e+01 +2.0801290026003066e+03 -3.6098653455544251e+05 -5.4716702191421306e+06 
-7.7999999999999883e+00 -5.3817483368008989e-01 +7.3492841287151478e+00 -4.1983015021550762e-01 +2.5347776720782470e+01 +2.0530283383067822e+03 -3.6105149016708415e+05 -5.3608715054062856e+06 
-7.8999999999999879e+00 -5.3817520375840855e-01 +7.3492877695101022e+00 -4.1712875470250405e-01 +2.5336431330566384e+01 +2.0184047788058301e+03 -3.6110776250948006e+05 -5.2243641946552638e+06 
-7.9999999999999876e+00 -5.3817558747249006e-01 +7.3492920193228342e+00 -4.1372099096481074e-01 +2.5314970927921028e+01 +1.9762471780898436e+03 -3.6116647278771322e+05 -5.0621739723423440e+06 
-8.0999999999999872e+00 -5.3817598479134676e-01 +7.3492968467513489e+00 -4.0962018500938452e-01 +2.5284465076870504e+01 +1.9267858006677859e+03 -3.6123479160916415e+05 -4.8752295986076659e+06 
-8.1999999999999869e+00 -5.3817639470718504e-01 +7.3493022338764220e+00 -4.0491445616107297e-01 +2.5244605732545637e+01 +1.8711799521360788e+03 -3.6130533720077079e+05 -4.6679958183769621e+06 
-8.2999999999999865e+00 -5.3817681597285605e-01 +7.3493081660186252e+00 -3.9970997845093292e-01 +2.5194798887544110e+01 +1.8108115148815741e+03 -3.6136734140737826e+05 -4.4457998569246698e+06 
-8.3999999999999861e+00 -5.3817724734117689e-01 +7.3493146285300721e+00 -3.9411292819545279e-01 +2.5134449795139517e+01 +1.7470623948224936e+03 -3.6141003210156347e+05 -4.2139690337008992e+06 
-8.4999999999999858e+00 -5.3817768756503825e-01 +7.3493216067890463e+00 -3.8822947168218191e-01 +2.5062963127059362e+01 +1.6813142922193285e+03 -3.6142263426252443e+05 -3.9778296705028606e+06 
-8.5999999999999854e+00 -5.3817813539732207e-01 +7.3493290862088889e+00 -3.8216577429055232e-01 +2.4979742722283984e+01 +1.6149488674611473e+03 -3.6139436853676388e+05 -3.7427078613874256e+06 
-8.6999999999999851e+00 -5.3817858959091935e-01 +7.3493370522271899e+00 -3.7602799926780578e-01 +2.4884191920210775e+01 +1.5493477229205423e+03 -3.6131445322041184e+05 -3.5139293986493214e+06 
-8.7999999999999847e+00 -5.3817904889875157e-01 +7.3493454903182744e+00 -3.6992230369145979e-01 +2.4775713194243028e+01 +1.4858923196438702e+03 -3.6117210213073704e+05 -3.2968193628274435e+06 
-8.8999999999999844e+00 -5.3817951207375203e-01 +7.3493543859873576e+00 -3.6395484207738499e-01 +2.4653708321177461e+01 +1.4259640522693585e+03 -3.6095652557646239e+05 -3.0967024941864414e+06 
-8.9999999999999840e+00 -5.3817997786886973e-01 +7.3493637247735091e+00 -3.5823176501312731e-01 +2.4517578323117107e+01 +1.3709442163546453e+03 -3.6065693010798056e+05 -2.9189030208584387e+06 
-9.0999999999999837e+00 -5.3818044503706486e-01 +7.3493734922517318e+00 -3.5285922003148013e-01 +2.4366723397706323e+01 +1.3222140279267603e+03 -3.6026251808281092e+05 -2.7687447602413413e+06 
-9.1999999999999833e+00 -5.3818091233132859e-01 +7.3493836740296103e+00 -3.4794334884553557e-01 +2.4200543020753820e+01 +1.2811545687922785e+03 -3.5976248827149248e+05 -2.6515508542808541e+06 
-9.2999999999999829e+00 -5.3818137850465664e-01 +7.3493942557562928e+00 -3.4359029052784201e-01 +2.4018435701310128e+01 +1.2491468445542505e+03 -3.5914603448603500e+05 -2.5726440387656423e+06 
-9.3999999999999826e+00 -5.3818184231008026e-01 +7.3494052231118987e+00 -3.3990617850998528e-01 +2.3819799295622236e+01 +1.2275717332961317e+03 -3.5840234741387382e+05 -2.5373464149216823e+06 
-9.4999999999999822e+00 -5.3818230250062693e-01 +7.3494165618201759e+00 -3.3699714374256057e-01 +2.3604030631188298e+01 +1.2178100358751392e+03 -3.5752061242092215e+05 -2.5509796653538137e+06 
-9.5999999999999819e+00 -5.3818275782937208e-01 +7.3494282576402803e+00 -3.3496930987383117e-01 +2.3370525773623473e+01 +1.2212423916448665e+03 -3.5649001116488472e+05 -2.6188646708050310e+06 
-9.6999999999999815e+00 -5.3818320704939338e-01 +7.3494402963778862e+00 -3.3392879794283115e-01 +2.3118679700983122e+01 +1.2392493627587610e+03 -3.5529971971081663e+05 -2.7463218998151417e+06 
-9.7999999999999812e+00 -5.3818364891379389e-01 +7.3494526638729045e+00 -3.3398172356303274e-01 +2.2847886657972527e+01 +1.2732113801122371e+03 -3.5393891056754952e+05 -2.9386711510835779e+06 
-9.8999999999999808e+00 -5.3818408217569291e-01 +7.3494653460102617e+00 -3.3523419839255547e-01 +2.2557539868890029e+01 +1.3245087727939110e+03 -3.5239675110226613e+05 -3.2012316978832632e+06 
-9.9999999999999805e+00 -5.3818450558823983e-01 +7.3494783287181811e+00 -3.3779232755604960e-01 +2.2247031642183526e+01 +1.3945217232902778e+03 -3.5066240430961823e+05 -3.5393220961611196e+06 
-1.0099999999999980e+01 -5.3818491844928451e-01 +7.3494915759731176e+00 -3.4171347342599856e-01 +2.1916814991812547e+01 +1.4839311997458467e+03 -3.4873342417710146e+05 -3.9554731680407240e+06 
