# trajectory
# s[mm] rx[mm] ry[mm] rz[mm] px[rad] py[rad] pz[rad]
0.0000000000000000e+00 +8.1529999999999987e+00 +0.0000000000000000e+00 +0.0000000000000000e+00 +0.0000000000000000e+00 +0.0000000000000000e+00 +1.0000000000000000e+00
1.0000000000000001e-01 +8.1529997165705517e+00 +0.0000000000000000e+00 +9.9999999999464462e-02 -5.6685899344160206e-06 +0.0000000000000000e+00 +9.9999999998393352e-01
2.0000000000000001e-01 +8.1529988662818162e+00 +0.0000000000000000e+00 +1.9999999999571560e-01 -1.1337185730961164e-05 +0.0000000000000000e+00 +9.9999999993573407e-01
3.0000000000000004e-01 +8.1529974491332116e+00 +0.0000000000000000e+00 +2.9999999998554017e-01 -1.7005787335131632e-05 +0.0000000000000000e+00 +9.9999999985540156e-01
4.0000000000000002e-01 +8.1529954651241585e+00 +0.0000000000000000e+00 +3.9999999996572483e-01 -2.2674394696475346e-05 +0.0000000000000000e+00 +9.9999999974293585e-01
5.0000000000000000e-01 +8.1529929142540833e+00 +0.0000000000000000e+00 +4.9999999993305622e-01 -2.8343007768591996e-05 +0.0000000000000000e+00 +9.9999999959833685e-01
5.9999999999999998e-01 +8.1529897965224158e+00 +0.0000000000000000e+00 +5.9999999988432107e-01 -3.4011626509133076e-05 +0.0000000000000000e+00 +9.9999999942160456e-01
6.9999999999999996e-01 +8.1529861119285929e+00 +0.0000000000000000e+00 +6.9999999981630601e-01 -3.9680250879801979e-05 +0.0000000000000000e+00 +9.9999999921273874e-01
7.9999999999999993e-01 +8.1529818604720532e+00 +0.0000000000000000e+00 +7.9999999972579772e-01 -4.5348880846354102e-05 +0.0000000000000000e+00 +9.9999999897173941e-01
8.9999999999999991e-01 +8.1529770421522390e+00 +0.0000000000000000e+00 +8.9999999960958277e-01 -5.1017516378596983e-05 +0.0000000000000000e+00 +9.9999999869860645e-01
9.9999999999999989e-01 +8.1529716569685942e+00 +0.0000000000000000e+00 +9.9999999946444784e-01 -5.6686157450390459e-05 +0.0000000000000000e+00 +9.9999999839333975e-01
1.0999999999999999e+00 +8.1529657049205664e+00 +0.0000000000000000e+00 +1.0999999992871796e+00 -6.2354804039646867e-05 +0.0000000000000000e+00 +9.9999999805593920e-01
1.2000000000000000e+00 +8.1529591860076032e+00 +0.0000000000000000e+00 +1.1999999990745647e+00 -6.8023456128331241e-05 +0.0000000000000000e+00 +9.9999999768640468e-01
1.3000000000000000e+00 +8.1529521002291574e+00 +0.0000000000000000e+00 +1.2999999988233895e+00 -7.3692113702461561e-05 +0.0000000000000000e+00 +9.9999999728473621e-01
1.4000000000000001e+00 +8.1529444475846802e+00 +0.0000000000000000e+00 +1.3999999985304408e+00 -7.9360776752109057e-05 +0.0000000000000000e+00 +9.9999999685093355e-01
1.5000000000000002e+00 +8.1529362280736244e+00 +0.0000000000000000e+00 +1.4999999981925050e+00 -8.5029445271398436e-05 +0.0000000000000000e+00 +9.9999999638499670e-01
1.6000000000000003e+00 +8.1529274416954429e+00 +0.0000000000000000e+00 +1.5999999978063688e+00 -9.0698119258508279e-05 +0.0000000000000000e+00 +9.9999999588692556e-01
1.7000000000000004e+00 +8.1529180884495904e+00 +0.0000000000000000e+00 +1.6999999973688189e+00 -9.6366798715671339e-05 +0.0000000000000000e+00 +9.9999999535672002e-01
1.8000000000000005e+00 +8.1529081683355180e+00 +0.0000000000000000e+00 +1.7999999968766416e+00 -1.0203548364917493e-04 +0.0000000000000000e+00 +9.9999999479437995e-01
1.9000000000000006e+00 +8.1528976813526786e+00 +0.0000000000000000e+00 +1.8999999963266236e+00 -1.0770417406936135e-04 +0.0000000000000000e+00 +9.9999999419990537e-01
2.0000000000000004e+00 +8.1528866275005214e+00 +0.0000000000000000e+00 +1.9999999957155514e+00 -1.1337286999062830e-04 +0.0000000000000000e+00 +9.9999999357329605e-01
2.1000000000000005e+00 +8.1528750067784959e+00 +0.0000000000000000e+00 +2.0999999950402115e+00 -1.1904157143120243e-04 +0.0000000000000000e+00 +9.9999999291455199e-01
2.2000000000000006e+00 +8.1528628191860495e+00 +0.0000000000000000e+00 +2.1999999942973907e+00 -1.2471027841064419e-04 +0.0000000000000000e+00 +9.9999999222367308e-01
2.3000000000000007e+00 +8.1528500647226281e+00 +0.0000000000000000e+00 +2.2999999934838753e+00 -1.3037899094735220e-04 +0.0000000000000000e+00 +9.9999999150065921e-01
2.4000000000000008e+00 +8.1528367433876738e+00 +0.0000000000000000e+00 +2.3999999925964515e+00 -1.3604770905833636e-04 +0.0000000000000000e+00 +9.9999999074551027e-01
2.5000000000000009e+00 +8.1528228551806290e+00 +0.0000000000000000e+00 +2.4999999916319062e+00 -1.4171643275921758e-04 +0.0000000000000000e+00 +9.9999998995822614e-01
2.6000000000000010e+00 +8.1528084001009340e+00 +0.0000000000000000e+00 +2.5999999905870257e+00 -1.4738516206422764e-04 +0.0000000000000000e+00 +9.9999998913880683e-01
2.7000000000000011e+00 +8.1527933781480275e+00 +0.0000000000000000e+00 +2.6999999894585964e+00 -1.5305389698620889e-04 +0.0000000000000000e+00 +9.9999998828725212e-01
2.8000000000000012e+00 +8.1527777893213482e+00 +0.0000000000000000e+00 +2.7999999882434050e+00 -1.5872263753661397e-04 +0.0000000000000000e+00 +9.9999998740356200e-01
2.9000000000000012e+00 +8.1527616336203330e+00 +0.0000000000000000e+00 +2.8999999869382376e+00 -1.6439138372550545e-04 +0.0000000000000000e+00 +9.9999998648773625e-01
3.0000000000000013e+00 +8.1527449110444152e+00 +0.0000000000000000e+00 +2.9999999855398811e+00 -1.7006013556155548e-04 +0.0000000000000000e+00 +9.9999998553977487e-01
3.1000000000000014e+00 +8.1527276215930318e+00 +0.0000000000000000e+00 +3.0999999840451213e+00 -1.7572889305204529e-04 +0.0000000000000000e+00 +9.9999998455967776e-01
3.2000000000000015e+00 +8.1527097652656160e+00 +0.0000000000000000e+00 +3.1999999824507452e+00 -1.8139765620286478e-04 +0.0000000000000000e+00 +9.9999998354744479e-01
3.3000000000000016e+00 +8.1526913420616030e+00 +0.0000000000000000e+00 +3.2999999807535390e+00 -1.8706642501851198e-04 +0.0000000000000000e+00 +9.9999998250307598e-01
3.4000000000000017e+00 +8.1526723519804243e+00 +0.0000000000000000e+00 +3.3999999789502890e+00 -1.9273519950209250e-04 +0.0000000000000000e+00 +9.9999998142657109e-01
3.5000000000000018e+00 +8.1526527950215133e+00 +0.0000000000000000e+00 +3.4999999770377821e+00 -1.9840397965531893e-04 +0.0000000000000000e+00 +9.9999998031793003e-01
3.6000000000000019e+00 +8.1526326711843033e+00 +0.0000000000000000e+00 +3.5999999750128042e+00 -2.0407276547851016e-04 +0.0000000000000000e+00 +9.9999997917715278e-01
3.7000000000000020e+00 +8.1526119804682278e+00 +0.0000000000000000e+00 +3.6999999728721416e+00 -2.0974155697059074e-04 +0.0000000000000000e+00 +9.9999997800423923e-01
3.8000000000000020e+00 +8.1525907228727199e+00 +0.0000000000000000e+00 +3.7999999706125807e+00 -2.1541035412909007e-04 +0.0000000000000000e+00 +9.9999997679918928e-01
3.9000000000000021e+00 +8.1525688983972131e+00 +0.0000000000000000e+00 +3.8999999682309081e+00 -2.2107915695014174e-04 +0.0000000000000000e+00 +9.9999997556200282e-01
4.0000000000000018e+00 +8.1525465070411407e+00 +0.0000000000000000e+00 +3.9999999657239100e+00 -2.2674796542848262e-04 +0.0000000000000000e+00 +9.9999997429267973e-01
4.1000000000000014e+00 +8.1525235488039378e+00 +0.0000000000000000e+00 +4.0999999630883730e+00 -2.3241677955791203e-04 +0.0000000000000000e+00 +9.9999997299121990e-01
4.2000000000000011e+00 +8.1525000236850396e+00 +0.0000000000000000e+00 +4.1999999603210831e+00 -2.3808559933635129e-04 +0.0000000000000000e+00 +9.9999997165762322e-01
4.3000000000000007e+00 +8.1524759316838811e+00 +0.0000000000000000e+00 +4.2999999574188266e+00 -2.4375442477090386e-04 +0.0000000000000000e+00 +9.9999997029188969e-01
4.4000000000000004e+00 +8.1524512727998957e+00 +0.0000000000000000e+00 +4.3999999543783899e+00 -2.4942325587831558e-04 +0.0000000000000000e+00 +9.9999996889401921e-01
4.5000000000000000e+00 +8.1524260470325149e+00 +0.0000000000000000e+00 +4.4999999511965596e+00 -2.5509209268497499e-04 +0.0000000000000000e+00 +9.9999996746401154e-01
4.5999999999999996e+00 +8.1524002543811669e+00 +0.0000000000000000e+00 +4.5999999478701215e+00 -2.6076093522691367e-04 +0.0000000000000000e+00 +9.9999996600186669e-01
4.6999999999999993e+00 +8.1523738948452760e+00 +0.0000000000000000e+00 +4.6999999443958620e+00 -2.6642978354980657e-04 +0.0000000000000000e+00 +9.9999996450758455e-01
4.7999999999999989e+00 +8.1523469684242613e+00 +0.0000000000000000e+00 +4.7999999407705669e+00 -2.7209863770897235e-04 +0.0000000000000000e+00 +9.9999996298116500e-01
4.8999999999999986e+00 +8.1523194751175367e+00 +0.0000000000000000e+00 +4.8999999369910237e+00 -2.7776749776937384e-04 +0.0000000000000000e+00 +9.9999996142260783e-01
4.9999999999999982e+00 +8.1522914149245089e+00 +0.0000000000000000e+00 +4.9999999330540179e+00 -2.8343636380561842e-04 +0.0000000000000000e+00 +9.9999995983191303e-01
5.0999999999999979e+00 +8.1522627878445739e+00 +0.0000000000000000e+00 +5.0999999289563354e+00 -2.8910523590195862e-04 +0.0000000000000000e+00 +9.9999995820908039e-01
5.1999999999999975e+00 +8.1522335938771224e+00 +0.0000000000000000e+00 +5.1999999246947626e+00 -2.9477411415229242e-04 +0.0000000000000000e+00 +9.9999995655410989e-01
5.2999999999999972e+00 +8.1522038330215345e+00 +0.0000000000000000e+00 +5.2999999202660861e+00 -3.0044299866016389e-04 +0.0000000000000000e+00 +9.9999995486700133e-01
5.3999999999999968e+00 +8.1521735052771778e+00 +0.0000000000000000e+00 +5.3999999156670917e+00 -3.0611188953876374e-04 +0.0000000000000000e+00 +9.9999995314775447e-01
5.4999999999999964e+00 +8.1521426106434092e+00 +0.0000000000000000e+00 +5.4999999108945659e+00 -3.1178078691092992e-04 +0.0000000000000000e+00 +9.9999995139636932e-01
5.5999999999999961e+00 +8.1521111491195732e+00 +0.0000000000000000e+00 +5.5999999059452943e+00 -3.1744969090914807e-04 +0.0000000000000000e+00 +9.9999994961284566e-01
5.6999999999999957e+00 +8.1520791207050003e+00 +0.0000000000000000e+00 +5.6999999008160636e+00 -3.2311860167555238e-04 +0.0000000000000000e+00 +9.9999994779718338e-01
5.7999999999999954e+00 +8.1520465253990064e+00 +0.0000000000000000e+00 +5.7999998955036594e+00 -3.2878751936192611e-04 +0.0000000000000000e+00 +9.9999994594938224e-01
5.8999999999999950e+00 +8.1520133632008918e+00 +0.0000000000000000e+00 +5.8999998900048682e+00 -3.3445644412970232e-04 +0.0000000000000000e+00 +9.9999994406944204e-01
5.9999999999999947e+00 +8.1519796341099386e+00 +0.0000000000000000e+00 +5.9999998843164759e+00 -3.4012537614996452e-04 +0.0000000000000000e+00 +9.9999994215736265e-01
6.0999999999999943e+00 +8.1519453381254134e+00 +0.0000000000000000e+00 +6.0999998784352689e+00 -3.4579431560229204e-04 +0.0000000000000000e+00 +9.9999994021314398e-01
6.1999999999999940e+00 +8.1519104752465648e+00 +0.0000000000000000e+00 +6.1999998723580330e+00 -3.5146326266204906e-04 +0.0000000000000000e+00 +9.9999993823678568e-01
6.2999999999999936e+00 +8.1518750454726234e+00 +0.0000000000000000e+00 +6.2999998660815546e+00 -3.5713221748767346e-04 +0.0000000000000000e+00 +9.9999993622828764e-01
6.3999999999999932e+00 +8.1518390488028043e+00 +0.0000000000000000e+00 +6.3999998596026195e+00 -3.6280118021952138e-04 +0.0000000000000000e+00 +9.9999993418764976e-01
6.4999999999999929e+00 +8.1518024852363116e+00 +0.0000000000000000e+00 +6.4999998529180134e+00 -3.6847015097986720e-04 +0.0000000000000000e+00 +9.9999993211487170e-01
6.5999999999999925e+00 +8.1517653547723370e+00 +0.0000000000000000e+00 +6.5999998460245228e+00 -3.7413912987290361e-04 +0.0000000000000000e+00 +9.9999993000995335e-01
6.6999999999999922e+00 +8.1517276574100634e+00 +0.0000000000000000e+00 +6.6999998389189335e+00 -3.7980811698474170e-04 +0.0000000000000000e+00 +9.9999992787289460e-01
6.7999999999999918e+00 +8.1516893931486649e+00 +0.0000000000000000e+00 +6.7999998315980310e+00 -3.8547711238341102e-04 +0.0000000000000000e+00 +9.9999992570369522e-01
6.8999999999999915e+00 +8.1516505619873101e+00 +0.0000000000000000e+00 +6.8999998240586011e+00 -3.9114611611885958e-04 +0.0000000000000000e+00 +9.9999992350235511e-01
6.9999999999999911e+00 +8.1516111639251623e+00 +0.0000000000000000e+00 +6.9999998162974304e+00 -3.9681512822295397e-04 +0.0000000000000000e+00 +9.9999992126887405e-01
7.0999999999999908e+00 +8.1515711989613848e+00 +0.0000000000000000e+00 +7.0999998083113045e+00 -4.0248414870947929e-04 +0.0000000000000000e+00 +9.9999991900325191e-01
7.1999999999999904e+00 +8.1515306670951411e+00 +0.0000000000000000e+00 +7.1999998000970091e+00 -4.0815317757413933e-04 +0.0000000000000000e+00 +9.9999991670548849e-01
7.2999999999999901e+00 +8.1514895683255926e+00 +0.0000000000000000e+00 +7.2999997916513308e+00 -4.1382221479455659e-04 +0.0000000000000000e+00 +9.9999991437558378e-01
7.3999999999999897e+00 +8.1514479026519062e+00 +0.0000000000000000e+00 +7.3999997829710544e+00 -4.1949126033027229e-04 +0.0000000000000000e+00 +9.9999991201353755e-01
7.4999999999999893e+00 +8.1514056700732525e+00 +0.0000000000000000e+00 +7.4999997740529665e+00 -4.2516031412274637e-04 +0.0000000000000000e+00 +9.9999990961934970e-01
7.5999999999999890e+00 +8.1513628705888088e+00 +0.0000000000000000e+00 +7.5999997648938526e+00 -4.3082937609535758e-04 +0.0000000000000000e+00 +9.9999990719302023e-01
7.6999999999999886e+00 +8.1513195041977635e+00 +0.0000000000000000e+00 +7.6999997554904986e+00 -4.3649844615340356e-04 +0.0000000000000000e+00 +9.9999990473454892e-01
7.7999999999999883e+00 +8.1512755708993119e+00 +0.0000000000000000e+00 +7.7999997458396910e+00 -4.4216752418410084e-04 +0.0000000000000000e+00 +9.9999990224393576e-01
7.8999999999999879e+00 +8.1512310706926652e+00 +0.0000000000000000e+00 +7.8999997359382146e+00 -4.4783661005658480e-04 +0.0000000000000000e+00 +9.9999989972118053e-01
7.9999999999999876e+00 +8.1511860035770454e+00 +0.0000000000000000e+00 +7.9999997257828559e+00 -4.5350570362190980e-04 +0.0000000000000000e+00 +9.9999989716628335e-01
8.0999999999999872e+00 +8.1511403695516904e+00 +0.0000000000000000e+00 +8.0999997153703998e+00 -4.5917480471421943e-04 +0.0000000000000000e+00 +9.9999989457924410e-01
8.1999999999999869e+00 +8.1510941686158578e+00 +0.0000000000000000e+00 +8.1999997046976336e+00 -4.6484391316361861e-04 +0.0000000000000000e+00 +9.9999989196006267e-01
8.2999999999999865e+00 +8.1510474007688192e+00 +0.0000000000000000e+00 +8.2999996937613414e+00 -4.7051302880904568e-04 +0.0000000000000000e+00 +9.9999988930873907e-01
8.3999999999999861e+00 +8.1510000660098623e+00 +0.0000000000000000e+00 +8.3999996825583096e+00 -4.7618215149944202e-04 +0.0000000000000000e+00 +9.9999988662527317e-01
8.4999999999999858e+00 +8.1509521643382890e+00 +0.0000000000000000e+00 +8.4999996710853249e+00 -4.8185128109375157e-04 +0.0000000000000000e+00 +9.9999988390966499e-01
8.5999999999999854e+00 +8.1509036957534171e+00 +0.0000000000000000e+00 +8.5999996593391721e+00 -4.8752041746092013e-04 +0.0000000000000000e+00 +9.9999988116191452e-01
8.6999999999999851e+00 +8.1508546602545753e+00 +0.0000000000000000e+00 +8.6999996473166377e+00 -4.9318956047989491e-04 +0.0000000000000000e+00 +9.9999987838202165e-01
8.7999999999999847e+00 +8.1508050578411027e+00 +0.0000000000000000e+00 +8.7999996350145064e+00 -4.9885871003962380e-04 +0.0000000000000000e+00 +9.9999987556998626e-01
8.8999999999999844e+00 +8.1507548885123526e+00 +0.0000000000000000e+00 +8.8999996224295632e+00 -5.0452786603905465e-04 +0.0000000000000000e+00 +9.9999987272580837e-01
8.9999999999999840e+00 +8.1507041522676840e+00 +0.0000000000000000e+00 +8.9999996095585963e+00 -5.1019702838713487e-04 +0.0000000000000000e+00 +9.9999986984948797e-01
9.0999999999999837e+00 +8.1506528491064660e+00 +0.0000000000000000e+00 +9.0999995963983906e+00 -5.1586619700281046e-04 +0.0000000000000000e+00 +9.9999986694102483e-01
9.1999999999999833e+00 +8.1506009790280771e+00 +0.0000000000000000e+00 +9.1999995829457308e+00 -5.2153537181502565e-04 +0.0000000000000000e+00 +9.9999986400041896e-01
9.2999999999999829e+00 +8.1505485420318990e+00 +0.0000000000000000e+00 +9.2999995691974036e+00 -5.2720455276272175e-04 +0.0000000000000000e+00 +9.9999986102767036e-01
9.3999999999999826e+00 +8.1504955381173225e+00 +0.0000000000000000e+00 +9.3999995551501936e+00 -5.3287373979483683e-04 +0.0000000000000000e+00 +9.9999985802277891e-01
9.4999999999999822e+00 +8.1504419672837400e+00 +0.0000000000000000e+00 +9.4999995408008875e+00 -5.3854293287030480e-04 +0.0000000000000000e+00 +9.9999985498574451e-01
9.5999999999999819e+00 +8.1503878295305494e+00 +0.0000000000000000e+00 +9.5999995261462701e+00 -5.4421213195805459e-04 +0.0000000000000000e+00 +9.9999985191656704e-01
9.6999999999999815e+00 +8.1503331248571502e+00 +0.0000000000000000e+00 +9.6999995111831279e+00 -5.4988133703700942e-04 +0.0000000000000000e+00 +9.9999984881524639e-01
9.7999999999999812e+00 +8.1502778532629439e+00 +0.0000000000000000e+00 +9.7999994959082475e+00 -5.5555054809608591e-04 +0.0000000000000000e+00 +9.9999984568178257e-01
9.8999999999999808e+00 +8.1502220147473317e+00 +0.0000000000000000e+00 +9.8999994803184137e+00 -5.6121976513419337e-04 +0.0000000000000000e+00 +9.9999984251617546e-01
9.9999999999999805e+00 +8.1501656093097168e+00 +0.0000000000000000e+00 +9.9999994644104113e+00 -5.6688898816023299e-04 +0.0000000000000000e+00 +9.9999983931842484e-01
1.0099999999999980e+01 +8.1501086369494988e+00 +0.0000000000000000e+00 +1.0099999448181027e+01 -5.7255821719262416e-04 +0.0000000000000000e+00 +9.9999983608853071e-01
1.0199999999999980e+01 +8.1500510976660774e+00 +0.0000000000000000e+00 +1.0199999431627045e+01 -5.7822745225410510e-04 +0.0000000000000000e+00 +9.9999983282649296e-01
1.0299999999999979e+01 +8.1499929914588467e+00 +0.0000000000000000e+00 +1.0299999414745253e+01 -5.8389669336653322e-04 +0.0000000000000000e+00 +9.9999982953231137e-01
1.0399999999999979e+01 +8.1499343183272011e+00 +0.0000000000000000e+00 +1.0399999397532437e+01 -5.8956594055041274e-04 +0.0000000000000000e+00 +9.9999982620598593e-01
1.0499999999999979e+01 +8.1498750782705329e+00 +0.0000000000000000e+00 +1.0499999379985379e+01 -5.9523519382489413e-04 +0.0000000000000000e+00 +9.9999982284751654e-01
1.0599999999999978e+01 +8.1498152712882330e+00 +0.0000000000000000e+00 +1.0599999362100867e+01 -6.0090445320777435e-04 +0.0000000000000000e+00 +9.9999981945690297e-01
1.0699999999999978e+01 +8.1497548973796885e+00 +0.0000000000000000e+00 +1.0699999343875687e+01 -6.0657371871549663e-04 +0.0000000000000000e+00 +9.9999981603414512e-01
1.0799999999999978e+01 +8.1496939565442865e+00 +0.0000000000000000e+00 +1.0799999325306624e+01 -6.1224299036315025e-04 +0.0000000000000000e+00 +9.9999981257924297e-01
1.0899999999999977e+01 +8.1496324487814107e+00 +0.0000000000000000e+00 +1.0899999306390464e+01 -6.1791226816447031e-04 +0.0000000000000000e+00 +9.9999980909219632e-01
1.0999999999999977e+01 +8.1495703740904482e+00 +0.0000000000000000e+00 +1.0999999287123993e+01 -6.2358155213183776e-04 +0.0000000000000000e+00 +9.9999980557300516e-01
1.1099999999999977e+01 +8.1495077324707790e+00 +0.0000000000000000e+00 +1.1099999267503994e+01 -6.2925084227627936e-04 +0.0000000000000000e+00 +9.9999980202166927e-01
1.1199999999999976e+01 +8.1494445239217868e+00 +0.0000000000000000e+00 +1.1199999247527256e+01 -6.3492013860746738e-04 +0.0000000000000000e+00 +9.9999979843818865e-01
1.1299999999999976e+01 +8.1493807484428515e+00 +0.0000000000000000e+00 +1.1299999227190561e+01 -6.4058944113371951e-04 +0.0000000000000000e+00 +9.9999979482256307e-01
1.1399999999999975e+01 +8.1493164060333534e+00 +0.0000000000000000e+00 +1.1399999206490698e+01 -6.4625874986199870e-04 +0.0000000000000000e+00 +9.9999979117479243e-01
1.1499999999999975e+01 +8.1492514966926723e+00 +0.0000000000000000e+00 +1.1499999185424450e+01 -6.5192806479791310e-04 +0.0000000000000000e+00 +9.9999978749487672e-01
1.1599999999999975e+01 +8.1491860204201867e+00 +0.0000000000000000e+00 +1.1599999163988603e+01 -6.5759738594571592e-04 +0.0000000000000000e+00 +9.9999978378281573e-01
1.1699999999999974e+01 +8.1491199772152765e+00 +0.0000000000000000e+00 +1.1699999142179943e+01 -6.6326671330830525e-04 +0.0000000000000000e+00 +9.9999978003860945e-01
1.1799999999999974e+01 +8.1490533670773182e+00 +0.0000000000000000e+00 +1.1799999119995254e+01 -6.6893604688722389e-04 +0.0000000000000000e+00 +9.9999977626225767e-01
