# field on trajectory
# s[mm] rx[mm] ry[mm] rz[mm] bx[T] by[T] bz[T]
0.0000000000000000e+00 +8.1529999999999987e+00 +0.0000000000000000e+00 +0.0000000000000000e+00 -2.9736653337228545e-02 -5.6447492970474855e-01 +5.6267917344976215e-03
1.0000000000000001e-01 +8.1529997170725679e+00 +0.0000000000000000e+00 +9.9999999999466349e-02 -2.9736769470300243e-02 -5.6447508390369272e-01 +5.6267572829244456e-03
2.0000000000000001e-01 +8.1529988682901724e+00 +0.0000000000000000e+00 +1.9999999999573076e-01 -2.9736887315078595e-02 -5.6447523237143571e-01 +5.6267251922357169e-03
3.0000000000000004e-01 +8.1529974536526648e+00 +0.0000000000000000e+00 +2.9999999998559135e-01 -2.9737006570187782e-02 -5.6447537507559287e-01 +5.6266953916488021e-03
4.0000000000000002e-01 +8.1529954731599013e+00 +0.0000000000000000e+00 +3.9999999996584618e-01 -2.9737126934253635e-02 -5.6447551198377699e-01 +5.6266678103810835e-03
5.0000000000000000e-01 +8.1529929268117449e+00 +0.0000000000000000e+00 +4.9999999993329330e-01 -2.9737248105902201e-02 -5.6447564306360054e-01 +5.6266423776500348e-03
5.9999999999999998e-01 +8.1529898146080644e+00 +0.0000000000000000e+00 +5.9999999988473085e-01 -2.9737369783758343e-02 -5.6447576828267854e-01 +5.6266190226732671e-03
6.9999999999999996e-01 +8.1529861365487353e+00 +0.0000000000000000e+00 +6.9999999981695682e-01 -2.9737491666444266e-02 -5.6447588760862832e-01 +5.6265976746685941e-03
7.9999999999999993e-01 +8.1529818926336368e+00 +0.0000000000000000e+00 +7.9999999972676927e-01 -2.9737613452578159e-02 -5.6447600100907402e-01 +5.6265782628540945e-03
8.9999999999999991e-01 +8.1529770828626553e+00 +0.0000000000000000e+00 +8.9999999961096633e-01 -2.9737734840772762e-02 -5.6447610845164620e-01 +5.6265607164481595e-03
9.9999999999999989e-01 +8.1529717072356842e+00 +0.0000000000000000e+00 +9.9999999946634610e-01 -2.9737855529633931e-02 -5.6447620990398639e-01 +5.6265449646695628e-03
1.0999999999999999e+00 +8.1529657657526222e+00 +0.0000000000000000e+00 +1.0999999992897065e+00 -2.9737975217759227e-02 -5.6447630533374593e-01 +5.6265309367375142e-03
1.2000000000000000e+00 +8.1529592584133717e+00 +0.0000000000000000e+00 +1.1999999990778458e+00 -2.9738093603736512e-02 -5.6447639470859023e-01 +5.6265185618717241e-03
1.3000000000000000e+00 +8.1529521852178455e+00 +0.0000000000000000e+00 +1.2999999988275619e+00 -2.9738210386142518e-02 -5.6447647799620027e-01 +5.6265077692924537e-03
1.4000000000000001e+00 +8.1529445461659584e+00 +0.0000000000000000e+00 +1.3999999985356528e+00 -2.9738325263541421e-02 -5.6447655516427342e-01 +5.6264984882205731e-03
1.5000000000000002e+00 +8.1529363412576359e+00 +0.0000000000000000e+00 +1.4999999981989167e+00 -2.9738437934483428e-02 -5.6447662618052719e-01 +5.6264906478776392e-03
1.6000000000000003e+00 +8.1529275704928050e+00 +0.0000000000000000e+00 +1.5999999978141517e+00 -2.9738548097503405e-02 -5.6447669101269904e-01 +5.6264841774859289e-03
1.7000000000000004e+00 +8.1529182338714019e+00 +0.0000000000000000e+00 +1.6999999973781557e+00 -2.9738655451119377e-02 -5.6447674962855088e-01 +5.6264790062685146e-03
1.8000000000000005e+00 +8.1529083313933679e+00 +0.0000000000000000e+00 +1.7999999968877269e+00 -2.9738759693831152e-02 -5.6447680199586792e-01 +5.6264750634493176e-03
1.9000000000000006e+00 +8.1528978630586497e+00 +0.0000000000000000e+00 +1.8999999963396634e+00 -2.9738860524118931e-02 -5.6447684808246346e-01 +5.6264722782531709e-03
2.0000000000000004e+00 +8.1528868288672030e+00 +0.0000000000000000e+00 +1.9999999957307630e+00 -2.9738957640441859e-02 -5.6447688785617889e-01 +5.6264705799058739e-03
2.1000000000000005e+00 +8.1528752288189885e+00 +0.0000000000000000e+00 +2.0999999950578241e+00 -2.9739050818101919e-02 -5.6447692149651607e-01 +5.6264699116244489e-03
2.2000000000000006e+00 +8.1528630629139709e+00 +0.0000000000000000e+00 +2.1999999943176443e+00 -2.9739140139847478e-02 -5.6447695002951537e-01 +5.6264702725874575e-03
2.3000000000000007e+00 +8.1528503311521234e+00 +0.0000000000000000e+00 +2.2999999935070221e+00 -2.9739225765292244e-02 -5.6447697469285263e-01 +5.6264716759636488e-03
2.4000000000000008e+00 +8.1528370335334213e+00 +0.0000000000000000e+00 +2.3999999926227553e+00 -2.9739307854053657e-02 -5.6447699672420415e-01 +5.6264741349216175e-03
2.5000000000000009e+00 +8.1528231700578431e+00 +0.0000000000000000e+00 +2.4999999916616420e+00 -2.9739386565754394e-02 -5.6447701736124722e-01 +5.6264776626296989e-03
2.6000000000000010e+00 +8.1528087407253675e+00 +0.0000000000000000e+00 +2.5999999906204803e+00 -2.9739462060024098e-02 -5.6447703784165726e-01 +5.6264822722559057e-03
2.7000000000000011e+00 +8.1527937455359751e+00 +0.0000000000000000e+00 +2.6999999894960682e+00 -2.9739534496500939e-02 -5.6447705940310722e-01 +5.6264879769678455e-03
2.8000000000000012e+00 +8.1527781844896445e+00 +0.0000000000000000e+00 +2.7999999882852040e+00 -2.9739604034833281e-02 -5.6447708328326529e-01 +5.6264947899326420e-03
2.9000000000000012e+00 +8.1527620575863526e+00 +0.0000000000000000e+00 +2.8999999869846853e+00 -2.9739670834681230e-02 -5.6447711071979267e-01 +5.6265027243168507e-03
3.0000000000000013e+00 +8.1527453648260710e+00 +0.0000000000000000e+00 +2.9999999855913106e+00 -2.9739735055718360e-02 -5.6447714295034479e-01 +5.6265117932863939e-03
3.1000000000000014e+00 +8.1527281062087695e+00 +0.0000000000000000e+00 +3.0999999841018777e+00 -2.9739796857633220e-02 -5.6447718121256607e-01 +5.6265220100064689e-03
3.2000000000000015e+00 +8.1527102817344090e+00 +0.0000000000000000e+00 +3.1999999825131846e+00 -2.9739856400131083e-02 -5.6447722674409195e-01 +5.6265333876414801e-03
3.3000000000000016e+00 +8.1526918914029451e+00 +0.0000000000000000e+00 +3.2999999808220295e+00 -2.9739913842935468e-02 -5.6447728078254367e-01 +5.6265459393549551e-03
3.4000000000000017e+00 +8.1526729352143228e+00 +0.0000000000000000e+00 +3.3999999790252105e+00 -2.9739969345789801e-02 -5.6447734456553023e-01 +5.6265596783094656e-03
3.5000000000000018e+00 +8.1526534131684798e+00 +0.0000000000000000e+00 +3.4999999771195256e+00 -2.9740023068459031e-02 -5.6447741933064488e-01 +5.6265746176665504e-03
3.6000000000000019e+00 +8.1526333252653416e+00 +0.0000000000000000e+00 +3.5999999751017731e+00 -2.9740075170731288e-02 -5.6447750631546334e-01 +5.6265907705866378e-03
3.7000000000000020e+00 +8.1526126715048211e+00 +0.0000000000000000e+00 +3.6999999729687505e+00 -2.9740125812419436e-02 -5.6447760675754333e-01 +5.6266081502289646e-03
3.8000000000000020e+00 +8.1525914518868188e+00 +0.0000000000000000e+00 +3.7999999707172560e+00 -2.9740175153362785e-02 -5.6447772189442336e-01 +5.6266267697515039e-03
3.9000000000000021e+00 +8.1525696664112193e+00 +0.0000000000000000e+00 +3.8999999683440878e+00 -2.9740223353428599e-02 -5.6447785296361863e-01 +5.6266466423108797e-03
4.0000000000000018e+00 +8.1525473150778929e+00 +0.0000000000000000e+00 +3.9999999658460439e+00 -2.9740270572513831e-02 -5.6447800120262248e-01 +5.6266677810622862e-03
4.1000000000000014e+00 +8.1525243978866904e+00 +0.0000000000000000e+00 +4.0999999632199220e+00 -2.9740317017819064e-02 -5.6447816763163539e-01 +5.6266901971978337e-03
4.2000000000000011e+00 +8.1525009148374448e+00 +0.0000000000000000e+00 +4.1999999604625202e+00 -2.9740363085655020e-02 -5.6447835240176525e-01 +5.6267138940624909e-03
4.3000000000000007e+00 +8.1524768659299731e+00 +0.0000000000000000e+00 +4.2999999575706367e+00 -2.9740409219604753e-02 -5.6447855544684100e-01 +5.6267388730403987e-03
4.4000000000000004e+00 +8.1524522511640729e+00 +0.0000000000000000e+00 +4.3999999545410695e+00 -2.9740455863247507e-02 -5.6447877670068280e-01 +5.6267651355167243e-03
4.5000000000000000e+00 +8.1524270705395221e+00 +0.0000000000000000e+00 +4.4999999513706168e+00 -2.9740503460158267e-02 -5.6447901609710149e-01 +5.6267926828777503e-03
4.5999999999999996e+00 +8.1524013240560826e+00 +0.0000000000000000e+00 +4.5999999480560767e+00 -2.9740552453907044e-02 -5.6447927356989802e-01 +5.6268215165109492e-03
4.6999999999999993e+00 +8.1523750117134970e+00 +0.0000000000000000e+00 +4.6999999445942464e+00 -2.9740603288058401e-02 -5.6447954905286324e-01 +5.6268516378050531e-03
4.7999999999999989e+00 +8.1523481335114898e+00 +0.0000000000000000e+00 +4.7999999409819241e+00 -2.9740656406170723e-02 -5.6447984247977701e-01 +5.6268830481501272e-03
4.8999999999999986e+00 +8.1523206894497662e+00 +0.0000000000000000e+00 +4.8999999372159078e+00 -2.9740712251795743e-02 -5.6448015378440841e-01 +5.6269157489376651e-03
4.9999999999999982e+00 +8.1522926795280171e+00 +0.0000000000000000e+00 +4.9999999332929956e+00 -2.9740771268477854e-02 -5.6448048290051467e-01 +5.6269497415606376e-03
5.0999999999999979e+00 +8.1522641037459120e+00 +0.0000000000000000e+00 +5.0999999292099858e+00 -2.9740833899753565e-02 -5.6448082976184155e-01 +5.6269850274135802e-03
5.1999999999999975e+00 +8.1522349621031047e+00 +0.0000000000000000e+00 +5.1999999249636755e+00 -2.9740900589150909e-02 -5.6448119430212174e-01 +5.6270216078926705e-03
5.2999999999999972e+00 +8.1522052545992310e+00 +0.0000000000000000e+00 +5.2999999205508628e+00 -2.9740971780188821e-02 -5.6448157645507568e-01 +5.6270594843958067e-03
5.3999999999999968e+00 +8.1521749812339088e+00 +0.0000000000000000e+00 +5.3999999159683458e+00 -2.9741047916376526e-02 -5.6448197615441031e-01 +5.6270986583226677e-03
5.4999999999999964e+00 +8.1521441420067386e+00 +0.0000000000000000e+00 +5.4999999112129228e+00 -2.9741129441212991e-02 -5.6448239333381878e-01 +5.6271391310748009e-03
5.5999999999999961e+00 +8.1521127369173030e+00 +0.0000000000000000e+00 +5.5999999062813908e+00 -2.9741216798186299e-02 -5.6448282792698079e-01 +5.6271809040556999e-03
5.6999999999999957e+00 +8.1520807659651666e+00 +0.0000000000000000e+00 +5.6999999011705480e+00 -2.9741310430773049e-02 -5.6448327986756064e-01 +5.6272239786708698e-03
5.7999999999999954e+00 +8.1520482291498784e+00 +0.0000000000000000e+00 +5.7999998958771926e+00 -2.9741410782437742e-02 -5.6448374908920851e-01 +5.6272683563279016e-03
5.8999999999999950e+00 +8.1520151264709675e+00 +0.0000000000000000e+00 +5.8999998903981226e+00 -2.9741518296632241e-02 -5.6448423552555849e-01 +5.6273140384365660e-03
5.9999999999999947e+00 +8.1519814579279490e+00 +0.0000000000000000e+00 +5.9999998847301352e+00 -2.9741633416795095e-02 -5.6448473911022912e-01 +5.6273610264088560e-03
6.0999999999999943e+00 +8.1519472235203185e+00 +0.0000000000000000e+00 +6.0999998788700287e+00 -2.9741756287517060e-02 -5.6448525955146245e-01 +5.6274093210013400e-03
6.1999999999999940e+00 +8.1519124232475555e+00 +0.0000000000000000e+00 +6.1999998728146002e+00 -2.9741885858040669e-02 -5.6448579565603951e-01 +5.6274589203416563e-03
6.2999999999999936e+00 +8.1518770571091235e+00 +0.0000000000000000e+00 +6.2999998665606478e+00 -2.9742020778774549e-02 -5.6448634600536529e-01 +5.6275098219014663e-03
6.3999999999999932e+00 +8.1518411251044718e+00 +0.0000000000000000e+00 +6.3999998601049697e+00 -2.9742159700130982e-02 -5.6448690918083355e-01 +5.6275620231541774e-03
6.4999999999999929e+00 +8.1518046272330391e+00 +0.0000000000000000e+00 +6.4999998534443630e+00 -2.9742301272526153e-02 -5.6448748376382407e-01 +5.6276155215750114e-03
6.5999999999999925e+00 +8.1517675634942481e+00 +0.0000000000000000e+00 +6.5999998465756260e+00 -2.9742444146380238e-02 -5.6448806833570331e-01 +5.6276703146410393e-03
6.6999999999999922e+00 +8.1517299338875162e+00 +0.0000000000000000e+00 +6.6999998394955558e+00 -2.9742586972117572e-02 -5.6448866147782406e-01 +5.6277263998312180e-03
6.7999999999999918e+00 +8.1516917384122483e+00 +0.0000000000000000e+00 +6.7999998322009505e+00 -2.9742728400166840e-02 -5.6448926177152603e-01 +5.6277837746264540e-03
6.8999999999999915e+00 +8.1516529770678456e+00 +0.0000000000000000e+00 +6.8999998246886074e+00 -2.9742867080961195e-02 -5.6448986779813404e-01 +5.6278424365096419e-03
6.9999999999999911e+00 +8.1516136498537008e+00 +0.0000000000000000e+00 +6.9999998169553246e+00 -2.9743001664938443e-02 -5.6449047813895914e-01 +5.6279023829657014e-03
7.0999999999999908e+00 +8.1515737567692046e+00 +0.0000000000000000e+00 +7.0999998089979002e+00 -2.9743130802541172e-02 -5.6449109137529729e-01 +5.6279636114816350e-03
7.1999999999999904e+00 +8.1515332978137423e+00 +0.0000000000000000e+00 +7.1999998008131314e+00 -2.9743253144216952e-02 -5.6449170608842947e-01 +5.6280261195465649e-03
7.2999999999999901e+00 +8.1514922729867010e+00 +0.0000000000000000e+00 +7.2999997923978155e+00 -2.9743367340418471e-02 -5.6449232085962275e-01 +5.6280899046517886e-03
7.3999999999999897e+00 +8.1514506822874644e+00 +0.0000000000000000e+00 +7.3999997837487506e+00 -2.9743472041603700e-02 -5.6449293427012748e-01 +5.6281549642908102e-03
7.4999999999999893e+00 +8.1514085257154196e+00 +0.0000000000000000e+00 +7.4999997748627338e+00 -2.9743565898236041e-02 -5.6449354490117887e-01 +5.6282212959594029e-03
7.5999999999999890e+00 +8.1513658032699556e+00 +0.0000000000000000e+00 +7.5999997657365634e+00 -2.9743647560784504e-02 -5.6449415133399639e-01 +5.6282888971556366e-03
7.6999999999999886e+00 +8.1513225149504667e+00 +0.0000000000000000e+00 +7.6999997563670366e+00 -2.9743715679723899e-02 -5.6449475214978329e-01 +5.6283577653799396e-03
7.7999999999999883e+00 +8.1512786607563505e+00 +0.0000000000000000e+00 +7.7999997467509505e+00 -2.9743768905534949e-02 -5.6449534592972661e-01 +5.6284278981351393e-03
7.8999999999999879e+00 +8.1512342406870140e+00 +0.0000000000000000e+00 +7.8999997368851034e+00 -2.9743805888704473e-02 -5.6449593125499564e-01 +5.6284992929265054e-03
7.9999999999999876e+00 +8.1511892547418725e+00 +0.0000000000000000e+00 +7.9999997267662932e+00 -2.9743825279725591e-02 -5.6449650670674489e-01 +5.6285719472617931e-03
8.0999999999999872e+00 +8.1511437029203506e+00 +0.0000000000000000e+00 +8.0999997163913164e+00 -2.9743826234922999e-02 -5.6449707115857983e-01 +5.6286458453828070e-03
8.1999999999999869e+00 +8.1510975852218834e+00 +0.0000000000000000e+00 +8.1999997057569711e+00 -2.9743809933944092e-02 -5.6449762465399278e-01 +5.6287209184567831e-03
8.2999999999999865e+00 +8.1510509016459185e+00 +0.0000000000000000e+00 +8.2999996948600554e+00 -2.9743778062272849e-02 -5.6449816752896509e-01 +5.6287970843772132e-03
8.3999999999999861e+00 +8.1510036521919123e+00 +0.0000000000000000e+00 +8.3999996836973665e+00 -2.9743732305396092e-02 -5.6449870011949732e-01 +5.6288742610316649e-03
8.4999999999999858e+00 +8.1509558368593318e+00 +0.0000000000000000e+00 +8.4999996722657016e+00 -2.9743674348803546e-02 -5.6449922276160969e-01 +5.6289523663015963e-03
8.5999999999999854e+00 +8.1509074556476566e+00 +0.0000000000000000e+00 +8.5999996605618598e+00 -2.9743605877987793e-02 -5.6449973579134349e-01 +5.6290313180621292e-03
8.6999999999999851e+00 +8.1508585085563716e+00 +0.0000000000000000e+00 +8.6999996485826365e+00 -2.9743528578444377e-02 -5.6450023954476014e-01 +5.6291110341818535e-03
8.7999999999999847e+00 +8.1508089955849758e+00 +0.0000000000000000e+00 +8.7999996363248307e+00 -2.9743444135671787e-02 -5.6450073435794490e-01 +5.6291914325226197e-03
8.8999999999999844e+00 +8.1507589167329719e+00 +0.0000000000000000e+00 +8.8999996237852397e+00 -2.9743354235171486e-02 -5.6450122056700447e-01 +5.6292724309393279e-03
8.9999999999999840e+00 +8.1507082719998767e+00 +0.0000000000000000e+00 +8.9999996109606606e+00 -2.9743260562447939e-02 -5.6450169850807053e-01 +5.6293539472797366e-03
9.0999999999999837e+00 +8.1506570613852105e+00 +0.0000000000000000e+00 +9.0999995978478907e+00 -2.9743164803008669e-02 -5.6450216851729917e-01 +5.6294358993842384e-03
9.1999999999999833e+00 +8.1506052848885062e+00 +0.0000000000000000e+00 +9.1999995844437290e+00 -2.9743068642364239e-02 -5.6450263093087172e-01 +5.6295182050856629e-03
9.2999999999999829e+00 +8.1505529425093002e+00 +0.0000000000000000e+00 +9.2999995707449710e+00 -2.9742973766028271e-02 -5.6450308608499644e-01 +5.6296007822090738e-03
9.3999999999999826e+00 +8.1505000342471376e+00 +0.0000000000000000e+00 +9.3999995567484156e+00 -2.9742881859517550e-02 -5.6450353431590872e-01 +5.6296835485715631e-03
9.4999999999999822e+00 +8.1504465601015710e+00 +0.0000000000000000e+00 +9.4999995424508601e+00 -2.9742794608351920e-02 -5.6450397595987201e-01 +5.6297664219820400e-03
9.5999999999999819e+00 +8.1503925200721596e+00 +0.0000000000000000e+00 +9.5999995278491017e+00 -2.9742713698054410e-02 -5.6450441135317886e-01 +5.6298493202410274e-03
9.6999999999999815e+00 +8.1503379141584702e+00 +0.0000000000000000e+00 +9.6999995129399377e+00 -2.9742640814151223e-02 -5.6450484083215147e-01 +5.6299321611404602e-03
9.7999999999999812e+00 +8.1502827423600710e+00 +0.0000000000000000e+00 +9.7999994977201670e+00 -2.9742577642171725e-02 -5.6450526473314311e-01 +5.6300148624634783e-03
9.8999999999999808e+00 +8.1502270046765410e+00 +0.0000000000000000e+00 +9.8999994821865851e+00 -2.9742525867648497e-02 -5.6450568339253782e-01 +5.6300973419842184e-03
9.9999999999999805e+00 +8.1501707011074611e+00 +0.0000000000000000e+00 +9.9999994663359910e+00 -2.9742487176117369e-02 -5.6450609714675293e-01 +5.6301795174676164e-03
1.0099999999999980e+01 +8.1501138316524191e+00 +0.0000000000000000e+00 +1.0099999450165182e+01 -2.9742462830815115e-02 -5.6450650637674038e-01 +5.6302613437195798e-03
1.0199999999999980e+01 +8.1500563963110064e+00 +0.0000000000000000e+00 +1.0199999433670955e+01 -2.9742452405726968e-02 -5.6450691164150701e-01 +5.6303429237432633e-03
1.0299999999999979e+01 +8.1499983950828181e+00 +0.0000000000000000e+00 +1.0299999416850108e+01 -2.9742455052473363e-02 -5.6450731354462369e-01 +5.6304243975918008e-03
1.0399999999999979e+01 +8.1499398279674544e+00 +0.0000000000000000e+00 +1.0399999399699437e+01 -2.9742469922619735e-02 -5.6450771268972599e-01 +5.6305059053174469e-03
1.0499999999999979e+01 +8.1498806949645157e+00 +0.0000000000000000e+00 +1.0499999382215742e+01 -2.9742496167675169e-02 -5.6450810968051501e-01 +5.6305875869716044e-03
1.0599999999999978e+01 +8.1498209960736059e+00 +0.0000000000000000e+00 +1.0599999364395819e+01 -2.9742532939091015e-02 -5.6450850512075923e-01 +5.6306695826048242e-03
1.0699999999999978e+01 +8.1497607312943305e+00 +0.0000000000000000e+00 +1.0699999346236465e+01 -2.9742579388259586e-02 -5.6450889961429640e-01 +5.6307520322668222e-03
1.0799999999999978e+01 +8.1496999006262971e+00 +0.0000000000000000e+00 +1.0799999327734479e+01 -2.9742634666512720e-02 -5.6450929376503456e-01 +5.6308350760064735e-03
1.0899999999999977e+01 +8.1496385040691113e+00 +0.0000000000000000e+00 +1.0899999308886658e+01 -2.9742697925120447e-02 -5.6450968817695391e-01 +5.6309188538718373e-03
1.0999999999999977e+01 +8.1495765416223787e+00 +0.0000000000000000e+00 +1.0999999289689798e+01 -2.9742768315289693e-02 -5.6451008345410791e-01 +5.6310035059101669e-03
1.1099999999999977e+01 +8.1495140132857067e+00 +0.0000000000000000e+00 +1.1099999270140698e+01 -2.9742844988162823e-02 -5.6451048020062522e-01 +5.6310891721678899e-03
1.1199999999999976e+01 +8.1494509190586992e+00 +0.0000000000000000e+00 +1.1199999250236155e+01 -2.9742927094816324e-02 -5.6451087902071084e-01 +5.6311759926906584e-03
1.1299999999999976e+01 +8.1493872589409584e+00 +0.0000000000000000e+00 +1.1299999229972967e+01 -2.9743013786259449e-02 -5.6451128051864830e-01 +5.6312641075233179e-03
1.1399999999999975e+01 +8.1493230329320827e+00 +0.0000000000000000e+00 +1.1399999209347930e+01 -2.9743104213432833e-02 -5.6451168529879969e-01 +5.6313536567099412e-03
1.1499999999999975e+01 +8.1492582410316707e+00 +0.0000000000000000e+00 +1.1499999188357842e+01 -2.9743197527207173e-02 -5.6451209396560953e-01 +5.6314447802938254e-03
1.1599999999999975e+01 +8.1491928832393121e+00 +0.0000000000000000e+00 +1.1599999166999501e+01 -2.9743292878381830e-02 -5.6451250712360357e-01 +5.6315376183175038e-03
1.1699999999999974e+01 +8.1491269595545965e+00 +0.0000000000000000e+00 +1.1699999145269704e+01 -2.9743389417683452e-02 -5.6451292537739217e-01 +5.6316323108227427e-03
1.1799999999999974e+01 +8.1490604699771065e+00 +0.0000000000000000e+00 +1.1799999123165248e+01 -2.9743486295764680e-02 -5.6451334933167152e-01 +5.6317289978505668e-03
