# multipoles
# s[mm] polynom_b[n=0][T/m^n] polynom_b[n=1][T/m^n] polynom_b[n=2][T/m^n] polynom_b[n=3][T/m^n] polynom_b[n=4][T/m^n] polynom_b[n=5][T/m^n] polynom_b[n=6][T/m^n] 
+0.0000000000000000e+00 -5.3853717559117364e-01 +7.3585690123693208e+00 -5.4132031310168649e-01 +2.7441170389646910e+01 +6.0663263537368930e+03 -3.4405999903682666e+05 -2.5765353263650846e+07 
+1.0000000000000001e-01 -5.3853719822972923e-01 +7.3585525802085732e+00 -5.3655146969641276e-01 +2.7675606495054975e+01 +5.9993757394087470e+03 -3.4509814254738064e+05 -2.5541779016965881e+07 
+2.0000000000000001e-01 -5.3853722250815661e-01 +7.3585392317951950e+00 -5.3185284488188012e-01 +2.7845875878262145e+01 +5.9379181518031965e+03 -3.4587788913565112e+05 -2.5352684413032334e+07 
+3.0000000000000004e-01 -5.3853724915551904e-01 +7.3585287049332333e+00 -5.2724680988053618e-01 +2.7957943768557712e+01 +5.8820538871937479e+03 -3.4642367610495200e+05 -2.5197551666084640e+07 
+4.0000000000000002e-01 -5.3853727890090108e-01 +7.3585207374248869e+00 -5.2275573382891216e-01 +2.8017775419233416e+01 +5.8318832088603713e+03 -3.4675994079356885e+05 -2.5075862848000329e+07 
+5.0000000000000000e-01 -5.3853731247336134e-01 +7.3585150670756629e+00 -5.1840198984654484e-01 +2.8031335957271892e+01 +5.7875064610459076e+03 -3.4691111970856623e+05 -2.4987100427624717e+07 
+5.9999999999999998e-01 -5.3853735060201535e-01 +7.3585114316839899e+00 -5.1420794387169899e-01 +2.8004590678027220e+01 +5.7490238537347095e+03 -3.4690165023693681e+05 -2.4930746240016956e+07 
+6.9999999999999996e-01 -5.3853739401595058e-01 +7.3585095690540401e+00 -5.1019596582594462e-01 +2.7943504694624625e+01 +5.7165356752567759e+03 -3.4675596866974887e+05 -2.4906282497962143e+07 
+7.9999999999999993e-01 -5.3853744344425847e-01 +7.3585092169886011e+00 -5.0638842543825324e-01 +2.7854043135613182e+01 +5.6901422111957208e+03 -3.4649851134771755e+05 -2.4913191402003396e+07 
+8.9999999999999991e-01 -5.3853749961605279e-01 +7.3585101132953810e+00 -5.0280768917349628e-01 +2.7742170965132782e+01 +5.6699436836833029e+03 -3.4615371362855250e+05 -2.4950954847207591e+07 
+9.9999999999999989e-01 -5.3853756326041591e-01 +7.3585119957764116e+00 -4.9947612810630837e-01 +2.7613853294200609e+01 +5.6560404022499824e+03 -3.4574601171372295e+05 -2.5019055141382825e+07 
+1.0999999999999999e+00 -5.3853763510644226e-01 +7.3585146022430754e+00 -4.9641611153961601e-01 +2.7475054959893981e+01 +5.6485326428117587e+03 -3.4529984027239849e+05 -2.5116974434829321e+07 
+1.2000000000000000e+00 -5.3853771588324550e-01 +7.3585176705062416e+00 -4.9365000637221174e-01 +2.7331740798035018e+01 +5.6475206300413010e+03 -3.4483963398255076e+05 -2.5244194616869200e+07 
+1.3000000000000000e+00 -5.3853780631989545e-01 +7.3585209383809191e+00 -4.9120018439202490e-01 +2.7189875516068060e+01 +5.6531046760225927e+03 -3.4438982683516375e+05 -2.5400197979589175e+07 
+1.4000000000000001e+00 -5.3853790714547289e-01 +7.3585241436823523e+00 -4.8908901616402051e-01 +2.7055423820529743e+01 +5.6653850663539333e+03 -3.4397485292270913e+05 -2.5584466680009689e+07 
+1.5000000000000002e+00 -5.3853801908905896e-01 +7.3585270242322069e+00 -4.8733887153471750e-01 +2.6934350224290871e+01 +5.6844620643785029e+03 -3.4361914529309009e+05 -2.5796482748501621e+07 
+1.6000000000000003e+00 -5.3853814287970458e-01 +7.3585293178572568e+00 -4.8597212417755364e-01 +2.6832619094698909e+01 +5.7104360012137558e+03 -3.4334713627096161e+05 -2.6035728523980428e+07 
+1.7000000000000004e+00 -5.3853827924646547e-01 +7.3585307623873728e+00 -4.8501114621720831e-01 +2.6756194729319571e+01 +5.7434071677511556e+03 -3.4318325795662036e+05 -2.6301686128419984e+07 
+1.8000000000000005e+00 -5.3853842891837289e-01 +7.3585310956554437e+00 -4.8447831249373530e-01 +2.6711041334770762e+01 +5.7834758966308573e+03 -3.4315194204563368e+05 -2.6593837856074136e+07 
+1.9000000000000006e+00 -5.3853859262445947e-01 +7.3585300555029676e+00 -4.8439599693345697e-01 +2.6703122882725470e+01 +5.8307424931724636e+03 -3.4327761905711837e+05 -2.6911665848156925e+07 
+2.0000000000000004e+00 -5.3853877109372605e-01 +7.3585273797766551e+00 -4.8478657680537057e-01 +2.6738403218691381e+01 +5.8853073131784577e+03 -3.4358471900930977e+05 -2.7254652452494450e+07 
+2.1000000000000005e+00 -5.3853896477283958e-01 +7.3585228713095914e+00 -4.8565872912101593e-01 +2.6821569064560098e+01 +5.9470569467240075e+03 -3.4409346039281652e+05 -2.7621530371419467e+07 
+2.2000000000000006e+00 -5.3853917297897058e-01 +7.3585165863688040e+00 -4.8696722827912015e-01 +2.6952176505296841e+01 +6.0150409025347808e+03 -3.4480675403932598e+05 -2.8008094785563137e+07 
+2.3000000000000007e+00 -5.3853939474691226e-01 +7.3585086429629571e+00 -4.8865358690865957e-01 +2.7128493443571315e+01 +6.0881038232242763e+03 -3.4572307197851507e+05 -2.8409421590377096e+07 
+2.4000000000000008e+00 -5.3853962911141318e-01 +7.3584991591018341e+00 -4.9065932307340709e-01 +2.7348787793209603e+01 +6.1650904537748647e+03 -3.4684088640576345e+05 -2.8820587159648847e+07 
+2.5000000000000009e+00 -5.3853987510723345e-01 +7.3584882527932090e+00 -4.9292595423574465e-01 +2.7611327574846719e+01 +6.2448455323304925e+03 -3.4815867024203320e+05 -2.9236667837531090e+07 
+2.6000000000000010e+00 -5.3854013176915627e-01 +7.3584760420419597e+00 -4.9539499536058362e-01 +2.7914380944397905e+01 +6.3262137505882174e+03 -3.4967489729501412e+05 -2.9652739740562860e+07 
+2.7000000000000011e+00 -5.3854039813193022e-01 +7.3584626448524615e+00 -4.9800796633862077e-01 +2.8256216128481775e+01 +6.4080398988296474e+03 -3.5138804187672678e+05 -3.0063879458339922e+07 
+2.8000000000000012e+00 -5.3854067323032673e-01 +7.3584481792231031e+00 -5.0070638471945672e-01 +2.8635101584914420e+01 +6.4891687260567578e+03 -3.5329657973893022e+05 -3.0465163380908407e+07 
+2.9000000000000012e+00 -5.3854095609912311e-01 +7.3584327631513267e+00 -5.0343176809382784e-01 +2.9049305868943655e+01 +6.5684449865945035e+03 -3.5539898731529561e+05 -3.0851667924352162e+07 
+3.0000000000000013e+00 -5.3854124577306506e-01 +7.3584165146297567e+00 -5.0612563905330965e-01 +2.9497097742222110e+01 +6.6447135383606592e+03 -3.5769374233670556e+05 -3.1218470008353751e+07 
+3.1000000000000014e+00 -5.3854154128692966e-01 +7.3583995516474721e+00 -5.0872951655214427e-01 +2.9976746137933048e+01 +6.7168191729030568e+03 -3.6017932362065447e+05 -3.1560646230787270e+07 
+3.2000000000000015e+00 -5.3854184167549135e-01 +7.3583819921882752e+00 -5.1118492084975331e-01 +3.0486520233159581e+01 +6.7836067134975619e+03 -3.6285421153854701e+05 -3.1873273344549116e+07 
+3.3000000000000016e+00 -5.3854214597352967e-01 +7.3583639542274382e+00 -5.1343337292652036e-01 +3.1024689519717672e+01 +6.8439210084825781e+03 -3.6571688835714164e+05 -3.2151428237654131e+07 
+3.4000000000000017e+00 -5.3854245321579630e-01 +7.3583455557420292e+00 -5.1541639775635584e-01 +3.1589523542334415e+01 +6.8966069861164979e+03 -3.6876583681052068e+05 -3.2390188172763340e+07 
+3.5000000000000018e+00 -5.3854276243709509e-01 +7.3583269146971704e+00 -5.1707551526335638e-01 +3.2179292268430295e+01 +6.9405094912041923e+03 -3.7199954214839789e+05 -3.2584630033161953e+07 
+3.6000000000000019e+00 -5.3854307267218782e-01 +7.3583081490534337e+00 -5.1835225143080599e-01 +3.2792265902373273e+01 +6.9744734907582715e+03 -3.7541649114173639e+05 -3.2729831284131926e+07 
+3.7000000000000020e+00 -5.3854338295588167e-01 +7.3582893767624569e+00 -5.1918812809473136e-01 +3.3426715002985681e+01 +6.9973438857215733e+03 -3.7901517270587722e+05 -3.2820869093068242e+07 
+3.8000000000000020e+00 -5.3854369232296673e-01 +7.3582707157714253e+00 -5.1952467000930114e-01 +3.4080910372704579e+01 +7.0079656414456476e+03 -3.8279407731999445e+05 -3.2852820939081129e+07 
+3.9000000000000021e+00 -5.3854399980822643e-01 +7.3582522840179294e+00 -5.1930340468370506e-01 +3.4753123197111620e+01 +7.0051837904794593e+03 -3.8675169778441638e+05 -3.2820764640515067e+07 
+4.0000000000000018e+00 -5.3854430444648882e-01 +7.3582341994304343e+00 -5.1846585514525478e-01 +3.5441625029862202e+01 +6.9878432897300663e+03 -3.9088652911909268e+05 -3.2719777658425625e+07 
+4.1000000000000014e+00 -5.3854460553091521e-01 +7.3582165798647416e+00 -5.1696877052630941e-01 +3.6144029695133725e+01 +6.9551436657479844e+03 -3.9519108379768068e+05 -3.2546580939633708e+07 
+4.2000000000000011e+00 -5.3854490339532679e-01 +7.3581995618056002e+00 -5.1482882928368612e-01 +3.6855007800040340e+01 +6.9077006339881473e+03 -3.9963283484367770e+05 -3.2304531666251693e+07 
+4.3000000000000007e+00 -5.3854519863543993e-01 +7.3581832911703087e+00 -5.1207749395698021e-01 +3.7568412700071022e+01 +6.8464842460263926e+03 -4.0417268949898746e+05 -3.1998664974481273e+07 
+4.4000000000000004e+00 -5.3854549184699829e-01 +7.3581679138692104e+00 -5.0874622415955117e-01 +3.8278097861170110e+01 +6.7724645112200906e+03 -4.0877155535490072e+05 -3.1634015858871091e+07 
+4.5000000000000000e+00 -5.3854578362576444e-01 +7.3581535758148098e+00 -5.0486647657967487e-01 +3.8977916596071715e+01 +6.6866113883683829e+03 -4.1339033882759488e+05 -3.1215619111276485e+07 
+4.5999999999999996e+00 -5.3854607456753179e-01 +7.3581404229155298e+00 -5.0046970438850702e-01 +3.9661722228298771e+01 +6.5898947824075485e+03 -4.1798994605760730e+05 -3.0748509328424830e+07 
+4.6999999999999993e+00 -5.3854636526812250e-01 +7.3581286010801703e+00 -4.9558735633371059e-01 +4.0323367967145451e+01 +6.4832845184736716e+03 -4.2253128220828169e+05 -3.0237720766564392e+07 
+4.7999999999999989e+00 -5.3854665632338528e-01 +7.3581182562120002e+00 -4.9025087817627055e-01 +4.0956707057597171e+01 +6.3677503793718588e+03 -4.2697525226178381e+05 -2.9688287550049320e+07 
+4.8999999999999986e+00 -5.3854694832919636e-01 +7.3581095342167959e+00 -4.8449171202146063e-01 +4.1555592553111467e+01 +6.2442620875813727e+03 -4.3128275972957420e+05 -2.9105243570811655e+07 
+4.9999999999999982e+00 -5.3854724188146430e-01 +7.3581025809975911e+00 -4.7834129518742574e-01 +4.2113877443573799e+01 +6.1137892821430660e+03 -4.3541470732147415e+05 -2.8493622378334641e+07 
+5.0999999999999979e+00 -5.3854753757614182e-01 +7.3580975424536090e+00 -4.7183105961719507e-01 +4.2625414707498507e+01 +5.9773015142490185e+03 -4.3933199730962754e+05 -2.7858457178123716e+07 
+5.1999999999999975e+00 -5.3854783600920253e-01 +7.3580945644827347e+00 -4.6499243413770242e-01 +4.3084057194372797e+01 +5.8357682849153871e+03 -4.4299553071960562e+05 -2.7204780996899340e+07 
+5.2999999999999972e+00 -5.3854813777666877e-01 +7.3580937929845476e+00 -4.5785684096722057e-01 +4.3483657557159461e+01 +5.6901589802272720e+03 -4.4636620699384739e+05 -2.6537626383059196e+07 
+5.3999999999999968e+00 -5.3854844347456898e-01 +7.3580953738533124e+00 -4.5045570166396531e-01 +4.3818068441207991e+01 +5.5414429890031506e+03 -4.4940492504815717e+05 -2.5862025978669871e+07 
+5.4999999999999964e+00 -5.3854875369902300e-01 +7.3580994529832378e+00 -4.4282042519593900e-01 +4.4081142319743897e+01 +5.3905894669726831e+03 -4.5207258228755364e+05 -2.5183011375971530e+07 
+5.5999999999999961e+00 -5.3854906904613753e-01 +7.3581061762664506e+00 -4.3498242234028139e-01 +4.4266731548952443e+01 +5.2385676213822489e+03 -4.5433007491410070e+05 -2.4505614502037153e+07 
+5.6999999999999957e+00 -5.3854939011210146e-01 +7.3581156895949125e+00 -4.2697309292582375e-01 +4.4368688298295453e+01 +5.0863464623083428e+03 -4.5613829748014873e+05 -2.3834866421011522e+07 
+5.7999999999999954e+00 -5.3854971749311131e-01 +7.3581281388555348e+00 -4.1882383505183324e-01 +4.4380864695768906e+01 +4.9348949794132941e+03 -4.5745814374662942e+05 -2.3175798181876987e+07 
+5.8999999999999950e+00 -5.3855005178543469e-01 +7.3581436699364815e+00 -4.1056603772353084e-01 +4.4297112623631918e+01 +4.7851820030695844e+03 -4.5825050543958071e+05 -2.2533440159510303e+07 
+5.9999999999999947e+00 -5.3855039358537060e-01 +7.3581624287251151e+00 -4.0223108526064111e-01 +4.4111283789104625e+01 +4.6381762889272031e+03 -4.5847627267552068e+05 -2.1912822463816900e+07 
+6.0999999999999943e+00 -5.3855074330250463e-01 +7.3581845109687958e+00 -3.9385235777861316e-01 +4.3819177642579817e+01 +4.4947669306781663e+03 -4.5810790349154331e+05 -2.1318344421166934e+07 
+6.1999999999999940e+00 -5.3855110058774569e-01 +7.3582097969786000e+00 -3.8547077248408079e-01 +4.3424903718048050e+01 +4.3554761360842522e+03 -4.5716717687796126e+05 -2.0751561994123891e+07 
+6.2999999999999936e+00 -5.3855146489941130e-01 +7.3582381092389264e+00 -3.7712897704031823e-01 +4.2934790830027687e+01 +4.2207209119735517e+03 -4.5568903641579015e+05 -2.0213232027685363e+07 
+6.3999999999999932e+00 -5.3855183569576470e-01 +7.3582692702441657e+00 -3.6886962563038461e-01 +4.2355167557911884e+01 +4.0909183698840784e+03 -4.5370842472779227e+05 -1.9704111791645180e+07 
+6.4999999999999929e+00 -5.3855221243507756e-01 +7.3583031025070573e+00 -3.6073537182563581e-01 +4.1692361995818132e+01 +3.9664855988535478e+03 -4.5126028204447689e+05 -1.9224958394809753e+07 
+6.5999999999999925e+00 -5.3855259457558358e-01 +7.3583394285513712e+00 -3.5276887355578423e-01 +4.0952701966179511e+01 +3.8478397539680777e+03 -4.4837954746759328e+05 -1.8776529191924933e+07 
+6.6999999999999922e+00 -5.3855298157550391e-01 +7.3583780709196285e+00 -3.4501279043894251e-01 +4.0142514797479649e+01 +3.7353980054057602e+03 -4.4510115768736508e+05 -1.8359581535860576e+07 
+6.7999999999999918e+00 -5.3855337289305094e-01 +7.3584188521679552e+00 -3.3750978342329779e-01 +3.9268127476114465e+01 +3.6295775323945550e+03 -4.4146004789252038e+05 -1.7974872750223123e+07 
+6.8999999999999915e+00 -5.3855376798637877e-01 +7.3584615948727397e+00 -3.3030252036197699e-01 +3.8335866469218480e+01 +3.5307956281298648e+03 -4.3749115079403628e+05 -1.7623160627416838e+07 
+6.9999999999999911e+00 -5.3855416631364095e-01 +7.3585061216209624e+00 -3.2343366929482209e-01 +3.7352057990053154e+01 +3.4394695691674206e+03 -4.3322939813625929e+05 -1.7305202794402059e+07 
+7.0999999999999908e+00 -5.3855456733297202e-01 +7.3585522550267450e+00 -3.1694590098351960e-01 +3.6323027527084292e+01 +3.3560166668309230e+03 -4.2870971800032462e+05 -1.7021756965478890e+07 
+7.1999999999999904e+00 -5.3855497050245404e-01 +7.3585998177129275e+00 -3.1088189220662066e-01 +3.5255100389327268e+01 +3.2808543252418353e+03 -4.2396703801757639e+05 -1.6773581207241623e+07 
+7.2999999999999901e+00 -5.3855537528015174e-01 +7.3586486323291540e+00 -3.0528432216903006e-01 +3.4154601179926409e+01 +3.2143999731268682e+03 -4.1903628231443954e+05 -1.6561433609230552e+07 
+7.3999999999999897e+00 -5.3855578112411584e-01 +7.3586985215436620e+00 -3.0019587203347387e-01 +3.3027854034963063e+01 +3.1570710576549532e+03 -4.1395237291995477e+05 -1.6386072263009528e+07 
+7.4999999999999893e+00 -5.3855618749233702e-01 +7.3587493080417774e+00 -2.9565922980806181e-01 +3.1881182674329278e+01 +3.1092851287214480e+03 -4.0875023008513608e+05 -1.6248255637783321e+07 
+7.5999999999999890e+00 -5.3855659384278887e-01 +7.3588008145311123e+00 -2.9171708622463099e-01 +3.0720910244526465e+01 +3.0714597698614157e+03 -4.0346477137496322e+05 -1.6148742276407959e+07 
+7.6999999999999886e+00 -5.3855699963342007e-01 +7.3588528637413102e+00 -2.8841213467829124e-01 +2.9553359348578905e+01 +3.0440125873277398e+03 -3.9813091190502117e+05 -1.6088290713913893e+07 
+7.7999999999999883e+00 -5.3855740432214205e-01 +7.3589052784238866e+00 -2.8578707375819379e-01 +2.8384852034438911e+01 +3.0273612652215138e+03 -3.9278356425629708e+05 -1.6067659758624932e+07 
+7.8999999999999879e+00 -5.3855780736679815e-01 +7.3589578813556900e+00 -2.8388460968118362e-01 +2.7221709707630417e+01 +3.0219236022926216e+03 -3.8745763800590870e+05 -1.6087608641028542e+07 
+7.9999999999999876e+00 -5.3855820822522804e-01 +7.3590104953310380e+00 -2.8274744974897942e-01 +2.6070253373670703e+01 +3.0281173963531569e+03 -3.8218804129058280e+05 -1.6148896494872615e+07 
+8.0999999999999872e+00 -5.3855860652681575e-01 +7.3590629248624069e+00 -2.8240207100122766e-01 +2.4936777817177344e+01 +3.0461367415759064e+03 -3.7700904922765878e+05 -1.6251563155804977e+07 
+8.1999999999999869e+00 -5.3855900258311029e-01 +7.3591149003839789e+00 -2.8280959950922047e-01 +2.3827207592316928e+01 +3.0752958268674734e+03 -3.7194953245715320e+05 -1.6392883791642277e+07 
+8.2999999999999865e+00 -5.3855939687553078e-01 +7.3591661336830985e+00 -2.8391466279291300e-01 +2.2747299751759741e+01 +3.1146924439288346e+03 -3.6703624302628788e+05 -1.6569474822040448e+07 
+8.3999999999999861e+00 -5.3855978988543329e-01 +7.3592163365347112e+00 -2.8566189366780032e-01 +2.1702811733201333e+01 +3.1634244656240544e+03 -3.6229593496313953e+05 -1.6777953012305878e+07 
+8.4999999999999858e+00 -5.3856018209409862e-01 +7.3592652206954563e+00 -2.8799593206608909e-01 +2.0699501546456496e+01 +3.2205898784520500e+03 -3.5775536542433838e+05 -1.7014935615913175e+07 
+8.5999999999999854e+00 -5.3856057398274670e-01 +7.3593124979142210e+00 -2.9086142192651482e-01 +1.9743127483745344e+01 +3.2852867122835091e+03 -3.5344129303683975e+05 -1.7277040009987392e+07 
+8.6999999999999851e+00 -5.3856096603250236e-01 +7.3593578799171411e+00 -2.9420301690868111e-01 +1.8839448549917140e+01 +3.3566131622312078e+03 -3.4938048037715768e+05 -1.7560884312212799e+07 
+8.7999999999999847e+00 -5.3856135872442079e-01 +7.3594010784204018e+00 -2.9796537559997799e-01 +1.7994224092827714e+01 +3.4336674841872659e+03 -3.4559969181967771e+05 -1.7863086848099273e+07 
+8.8999999999999844e+00 -5.3856175253948191e-01 +7.3594418051168331e+00 -3.0209316335564484e-01 +1.7213214193596276e+01 +3.5155480376371515e+03 -3.4212569578709337e+05 -1.8180266375097942e+07 
+8.9999999999999840e+00 -5.3856214795856905e-01 +7.3594797716873179e+00 -3.0653105440008521e-01 +1.6502179337231901e+01 +3.6013533215907119e+03 -3.3898526283399522e+05 -1.8509042242975891e+07 
+9.0999999999999837e+00 -5.3856254546249371e-01 +7.3595146897936132e+00 -3.1122372863167658e-01 +1.5866880624591166e+01 +3.6901819134576062e+03 -3.3620516687873169e+05 -1.8846034103867281e+07 
+9.1999999999999833e+00 -5.3856294553197315e-01 +7.3595462710770496e+00 -3.1611587441330508e-01 +1.5313079812287240e+01 +3.7811325228471724e+03 -3.3381218542496872e+05 -1.9187862168814119e+07 
+9.2999999999999829e+00 -5.3856334864764455e-01 +7.3595742271644289e+00 -3.2115218644246379e-01 +1.4846539135409122e+01 +3.8733039460174491e+03 -3.3183309850533103e+05 -1.9531146978428155e+07 
+9.3999999999999826e+00 -5.3856375529004008e-01 +7.3595982696575399e+00 -3.2627736951822511e-01 +1.4473021621980406e+01 +3.9657951450038640e+03 -3.3029469052106387e+05 -1.9872509800386515e+07 
+9.4999999999999822e+00 -5.3856416593962364e-01 +7.3596181101425104e+00 -3.3143613302269564e-01 +1.4198290819195917e+01 +4.0577051331120465e+03 -3.2922374863611901e+05 -2.0208572057468586e+07 
+9.5999999999999819e+00 -5.3856458107673943e-01 +7.3596334601833240e+00 -3.3657319771447169e-01 +1.4028110985012026e+01 +4.1481331084066596e+03 -3.2864706388699025e+05 -2.0535955976425197e+07 
+9.6999999999999815e+00 -5.3856500118163209e-01 +7.3596440313224365e+00 -3.4163329324835656e-01 +1.3968247068914001e+01 +4.2361784074376519e+03 -3.2859143105380383e+05 -2.0851284370096803e+07 
+9.7999999999999812e+00 -5.3856542673448404e-01 +7.3596495350811555e+00 -3.4656115300586521e-01 +1.4024464698320665e+01 +4.3209404002851925e+03 -3.2908364856562199e+05 -2.1151180118356410e+07 
+9.8999999999999808e+00 -5.3856585821533576e-01 +7.3596496829589961e+00 -3.5130152425174699e-01 +1.4202530219917124e+01 +4.4015186884909617e+03 -3.3015051878414163e+05 -2.1432267126665328e+07 
+9.9999999999999805e+00 -5.3856629610413864e-01 +7.3596441864313364e+00 -3.5579916136760953e-01 +1.4508210716236650e+01 +4.4770129705296149e+03 -3.3181884791523445e+05 -2.1691169661979306e+07 
+1.0099999999999980e+01 -5.3856674070490729e-01 +7.3596328780104390e+00 -3.6001322012277909e-01 +1.4944372240030193e+01 +4.5467475046788450e+03 -3.3410094082036451e+05 -2.1925360033659764e+07 
