# field on trajectory
# s[mm] rx[mm] ry[mm] rz[mm] bx[T] by[T] bz[T]
-0.0000000000000000e+00 +8.1530000000000005e+00 +0.0000000000000000e+00 -0.0000000000000000e+00 -3.0567322000986458e-02 -5.9281140413347755e-01 +5.9341556984636463e-03
-1.0000000000000001e-01 +8.1529997163961507e+00 +0.0000000000000000e+00 -9.9999999999463796e-02 -3.0567079553713582e-02 -5.9281146209878433e-01 +5.9341422600009833e-03
-2.0000000000000001e-01 +8.1529988655856904e+00 +0.0000000000000000e+00 -1.9999999999571000e-01 -3.0566833711693185e-02 -5.9281152718997920e-01 +5.9341299613439834e-03
-2.9999999999999999e-01 +8.1529974475670297e+00 +0.0000000000000000e+00 -2.9999999998552201e-01 -3.0566585428974967e-02 -5.9281159956205032e-01 +5.9341185696926120e-03
-4.0000000000000002e-01 +8.1529954623438208e+00 +0.0000000000000000e+00 -3.9999999996568297e-01 -3.0566335659598296e-02 -5.9281167936993184e-01 +5.9341078522464532e-03
-5.0000000000000000e-01 +8.1529929099124292e+00 +0.0000000000000000e+00 -4.9999999993297400e-01 -3.0566085357597007e-02 -5.9281176676860625e-01 +5.9340975762055461e-03
-5.9999999999999998e-01 +8.1529897902728408e+00 +0.0000000000000000e+00 -5.9999999988417896e-01 -3.0565835476993670e-02 -5.9281186191301904e-01 +5.9340875087692899e-03
-6.9999999999999996e-01 +8.1529861034287006e+00 +0.0000000000000000e+00 -6.9999999981608096e-01 -3.0565586971798685e-02 -5.9281196495807997e-01 +5.9340774171362382e-03
-8.0000000000000004e-01 +8.1529818493763706e+00 +0.0000000000000000e+00 -7.9999999972546199e-01 -3.0565340796014452e-02 -5.9281207605875486e-01 +5.9340670685048254e-03
-9.0000000000000002e-01 +8.1529770281158598e+00 +0.0000000000000000e+00 -8.9999999960910604e-01 -3.0565097903629532e-02 -5.9281219536997765e-01 +5.9340562300722426e-03
-1.0000000000000000e+00 +8.1529716396507901e+00 +0.0000000000000000e+00 -9.9999999946379403e-01 -3.0564859248617824e-02 -5.9281232304665399e-01 +5.9340446690342580e-03
-1.1000000000000001e+00 +8.1529656839775306e+00 +0.0000000000000000e+00 -1.0999999992863101e+00 -3.0564625784942685e-02 -5.9281245924375225e-01 +5.9340321525859323e-03
-1.2000000000000000e+00 +8.1529591610960797e+00 +0.0000000000000000e+00 -1.1999999990734400e+00 -3.0564398466551103e-02 -5.9281260411621528e-01 +5.9340184479204890e-03
-1.3000000000000000e+00 +8.1529520710100805e+00 +0.0000000000000000e+00 -1.2999999988219599e+00 -3.0564178247372918e-02 -5.9281275781896436e-01 +5.9340033222291455e-03
-1.3999999999999999e+00 +8.1529444137122500e+00 +0.0000000000000000e+00 -1.3999999985286500e+00 -3.0563966081326496e-02 -5.9281292050701906e-01 +5.9339865427021224e-03
-1.5000000000000000e+00 +8.1529361892135093e+00 +0.0000000000000000e+00 -1.4999999981903001e+00 -3.0563762922304800e-02 -5.9281309233526247e-01 +5.9339678765260124e-03
-1.6000000000000001e+00 +8.1529273975065699e+00 +0.0000000000000000e+00 -1.5999999978037001e+00 -3.0563569724190935e-02 -5.9281327345874046e-01 +5.9339470908866326e-03
-1.7000000000000000e+00 +8.1529180385914497e+00 +0.0000000000000000e+00 -1.6999999973656199e+00 -3.0563387440845805e-02 -5.9281346403245438e-01 +5.9339239529666845e-03
-1.8000000000000000e+00 +8.1529081124681397e+00 +0.0000000000000000e+00 -1.7999999968728499e+00 -3.0563217026110596e-02 -5.9281366421142478e-01 +5.9338982299461862e-03
-1.8999999999999999e+00 +8.1528976191402798e+00 +0.0000000000000000e+00 -1.8999999963221601e+00 -3.0563059433804267e-02 -5.9281387415066378e-01 +5.9338696890019653e-03
-2.0000000000000000e+00 +8.1528865586042194e+00 +0.0000000000000000e+00 -1.9999999957103500e+00 -3.0562915617727619e-02 -5.9281409400526441e-01 +5.9338380973083743e-03
-2.1000000000000001e+00 +8.1528749308599799e+00 +0.0000000000000000e+00 -2.0999999950341901e+00 -3.0562786273781013e-02 -5.9281432385920463e-01 +5.9338033304187875e-03
-2.2000000000000002e+00 +8.1528627359111905e+00 +0.0000000000000000e+00 -2.1999999942904802e+00 -3.0562671066340443e-02 -5.9281456351200967e-01 +5.9337656974148036e-03
-2.2999999999999998e+00 +8.1528499737542006e+00 +0.0000000000000000e+00 -2.2999999934759798e+00 -3.0562569401903949e-02 -5.9281481269216274e-01 +5.9337256157618572e-03
-2.3999999999999999e+00 +8.1528366443890299e+00 +0.0000000000000000e+00 -2.3999999925874800e+00 -3.0562480686966334e-02 -5.9281507112812515e-01 +5.9336835029263494e-03
-2.5000000000000000e+00 +8.1528227478193003e+00 +0.0000000000000000e+00 -2.4999999916217801e+00 -3.0562404328020636e-02 -5.9281533854833701e-01 +5.9336397763759515e-03
-2.6000000000000001e+00 +8.1528082840413791e+00 +0.0000000000000000e+00 -2.5999999905756401e+00 -3.0562339731564563e-02 -5.9281561468130506e-01 +5.9335948535808461e-03
-2.7000000000000002e+00 +8.1527932530552807e+00 +0.0000000000000000e+00 -2.6999999894458502e+00 -3.0562286304096967e-02 -5.9281589925551281e-01 +5.9335491520131137e-03
-2.7999999999999998e+00 +8.1527776548646198e+00 +0.0000000000000000e+00 -2.7999999882291999e+00 -3.0562243452119400e-02 -5.9281619199942293e-01 +5.9335030891470688e-03
-2.8999999999999999e+00 +8.1527614894657692e+00 +0.0000000000000000e+00 -2.8999999869224702e+00 -3.0562210582142507e-02 -5.9281649264156344e-01 +5.9334570824604704e-03
-3.0000000000000000e+00 +8.1527447568587394e+00 +0.0000000000000000e+00 -2.9999999855224302e+00 -3.0562187100682519e-02 -5.9281680091044031e-01 +5.9334115494339449e-03
-3.1000000000000001e+00 +8.1527274570471508e+00 +0.0000000000000000e+00 -3.0999999840258798e+00 -3.0562172414262789e-02 -5.9281711653453617e-01 +5.9333669075512900e-03
-3.2000000000000002e+00 +8.1527095900273707e+00 +0.0000000000000000e+00 -3.1999999824295902e+00 -3.0562165929420185e-02 -5.9281743924239971e-01 +5.9333235743007102e-03
-3.2999999999999998e+00 +8.1526911557994008e+00 +0.0000000000000000e+00 -3.2999999807303602e+00 -3.0562167052701643e-02 -5.9281776876255676e-01 +5.9332819671742152e-03
-3.3999999999999999e+00 +8.1526721543668792e+00 +0.0000000000000000e+00 -3.3999999789249502e+00 -3.0562175190665623e-02 -5.9281810482350961e-01 +5.9332425036679468e-03
-3.5000000000000000e+00 +8.1526525857261696e+00 +0.0000000000000000e+00 -3.4999999770101602e+00 -3.0562189749888509e-02 -5.9281844715382548e-01 +5.9332056012833890e-03
-3.6000000000000001e+00 +8.1526324498772702e+00 +0.0000000000000000e+00 -3.5999999749827598e+00 -3.0562210136961233e-02 -5.9281879548204852e-01 +5.9331716775267961e-03
-3.7000000000000002e+00 +8.1526117468238208e+00 +0.0000000000000000e+00 -3.6999999728395401e+00 -3.0562235758490656e-02 -5.9281914953669912e-01 +5.9331411499094966e-03
-3.7999999999999998e+00 +8.1525904765621799e+00 +0.0000000000000000e+00 -3.7999999705772902e+00 -3.0562266021106049e-02 -5.9281950904636205e-01 +5.9331144359491116e-03
-3.8999999999999999e+00 +8.1525686390959908e+00 +0.0000000000000000e+00 -3.8999999681927799e+00 -3.0562300331453931e-02 -5.9281987373956879e-01 +5.9330919531686774e-03
-4.0000000000000000e+00 +8.1525462344179704e+00 +0.0000000000000000e+00 -3.9999999656827998e+00 -3.0562338096207838e-02 -5.9282024334494476e-01 +5.9330741190984637e-03
-4.0999999999999996e+00 +8.1525232625354001e+00 +0.0000000000000000e+00 -4.0999999630441302e+00 -3.0562378727172254e-02 -5.9282061751041393e-01 +5.9330612372264120e-03
-4.2000000000000002e+00 +8.1524997234482708e+00 +0.0000000000000000e+00 -4.1999999602735496e+00 -3.0562421656639197e-02 -5.9282099556160839e-01 +5.9330531548534311e-03
-4.2999999999999998e+00 +8.1524756171529607e+00 +0.0000000000000000e+00 -4.2999999573678496e+00 -3.0562466322052159e-02 -5.9282137674359170e-01 +5.9330496052312637e-03
-4.4000000000000004e+00 +8.1524509436494608e+00 +0.0000000000000000e+00 -4.3999999543238104e+00 -3.0562512160891651e-02 -5.9282176030138745e-01 +5.9330503216088824e-03
-4.5000000000000000e+00 +8.1524257029377605e+00 +0.0000000000000000e+00 -4.4999999511382098e+00 -3.0562558610678952e-02 -5.9282214548000600e-01 +5.9330550372325604e-03
-4.5999999999999996e+00 +8.1523998950215208e+00 +0.0000000000000000e+00 -4.5999999478078299e+00 -3.0562605108976470e-02 -5.9282253152441522e-01 +5.9330634853453018e-03
-4.7000000000000002e+00 +8.1523735198970808e+00 +0.0000000000000000e+00 -4.6999999443294600e+00 -3.0562651093394837e-02 -5.9282291767962836e-01 +5.9330753991875479e-03
-4.7999999999999998e+00 +8.1523465775644599e+00 +0.0000000000000000e+00 -4.7999999406998803e+00 -3.0562696001589975e-02 -5.9282330319061205e-01 +5.9330905119959901e-03
-4.9000000000000004e+00 +8.1523190680272801e+00 +0.0000000000000000e+00 -4.8999999369158704e+00 -3.0562739271265241e-02 -5.9282368730228829e-01 +5.9331085570033431e-03
-5.0000000000000000e+00 +8.1522909912819195e+00 +0.0000000000000000e+00 -4.9999999329742204e+00 -3.0562780340178366e-02 -5.9282406925962006e-01 +5.9331292674390176e-03
-5.0999999999999996e+00 +8.1522623473319999e+00 +0.0000000000000000e+00 -5.0999999288717000e+00 -3.0562818646136986e-02 -5.9282444830749281e-01 +5.9331523765276568e-03
-5.2000000000000002e+00 +8.1522331361738907e+00 +0.0000000000000000e+00 -5.1999999246051098e+00 -3.0562853627007284e-02 -5.9282482369083078e-01 +5.9331776174901029e-03
-5.2999999999999998e+00 +8.1522033578075899e+00 +0.0000000000000000e+00 -5.2999999201712198e+00 -3.0562884720711177e-02 -5.9282519465450889e-01 +5.9332047235422652e-03
-5.4000000000000004e+00 +8.1521730122331100e+00 +0.0000000000000000e+00 -5.3999999155668199e+00 -3.0562911365229924e-02 -5.9282556044337964e-01 +5.9332334278951572e-03
-5.5000000000000000e+00 +8.1521420994540694e+00 +0.0000000000000000e+00 -5.4999999107886799e+00 -3.0562932998604696e-02 -5.9282592030224368e-01 +5.9332634637543746e-03
-5.5999999999999996e+00 +8.1521106194668391e+00 +0.0000000000000000e+00 -5.5999999058335996e+00 -3.0562949058943478e-02 -5.9282627347593608e-01 +5.9332945643207407e-03
-5.7000000000000002e+00 +8.1520785722750606e+00 +0.0000000000000000e+00 -5.6999999006983604e+00 -3.0562958984416612e-02 -5.9282661920920854e-01 +5.9333264627888698e-03
-5.7999999999999998e+00 +8.1520459578750906e+00 +0.0000000000000000e+00 -5.7999998953797300e+00 -3.0562962213265443e-02 -5.9282695674684616e-01 +5.9333588923481360e-03
-5.9000000000000004e+00 +8.1520127762669308e+00 +0.0000000000000000e+00 -5.8999998898744996e+00 -3.0562958183799470e-02 -5.9282728533357654e-01 +5.9333915861815066e-03
-5.9999999999999902e+00 +8.1519790274505795e+00 +0.0000000000000000e+00 -5.9999998841794504e+00 -3.0562946334400022e-02 -5.9282760421410019e-01 +5.9334242774656291e-03
-6.0999999999999899e+00 +8.1519447114296799e+00 +0.0000000000000000e+00 -6.0999998782913698e+00 -3.0562926253954882e-02 -5.9282791295709991e-01 +5.9334567507537180e-03
-6.1999999999999904e+00 +8.1519098282005906e+00 +0.0000000000000000e+00 -6.1999998722070400e+00 -3.0562898133127247e-02 -5.9282821242747852e-01 +5.9334889961294391e-03
-6.2999999999999901e+00 +8.1518743777669407e+00 +0.0000000000000000e+00 -6.2999998659232403e+00 -3.0562862312971034e-02 -5.9282850381414842e-01 +5.9335210550585105e-03
-6.3999999999999897e+00 +8.1518383601214701e+00 +0.0000000000000000e+00 -6.3999998594367504e+00 -3.0562819134490479e-02 -5.9282878830614316e-01 +5.9335529690069276e-03
-6.4999999999999902e+00 +8.1518017752750893e+00 +0.0000000000000000e+00 -6.4999998527443603e+00 -3.0562768938623947e-02 -5.9282906709238059e-01 +5.9335847794385610e-03
-6.5999999999999899e+00 +8.1517646232205205e+00 +0.0000000000000000e+00 -6.5999998458428504e+00 -3.0562712066257117e-02 -5.9282934136196141e-01 +5.9336165278181955e-03
-6.6999999999999904e+00 +8.1517269039541098e+00 +0.0000000000000000e+00 -6.6999998387290001e+00 -3.0562648858210181e-02 -5.9282961230399256e-01 +5.9336482556097397e-03
-6.7999999999999901e+00 +8.1516886174867995e+00 +0.0000000000000000e+00 -6.7999998313996004e+00 -3.0562579655229648e-02 -5.9282988110749935e-01 +5.9336800042753008e-03
-6.8999999999999897e+00 +8.1516497638112906e+00 +0.0000000000000000e+00 -6.8999998238514202e+00 -3.0562504798000142e-02 -5.9283014896169439e-01 +5.9337118152779653e-03
-6.9999999999999902e+00 +8.1516103429239593e+00 +0.0000000000000000e+00 -6.9999998160812602e+00 -3.0562424627131372e-02 -5.9283041705580053e-01 +5.9337437300799722e-03
-7.0999999999999899e+00 +8.1515703548320708e+00 +0.0000000000000000e+00 -7.0999998080858804e+00 -3.0562339483151787e-02 -5.9283068657899274e-01 +5.9337757901421172e-03
-7.1999999999999904e+00 +8.1515297995356395e+00 +0.0000000000000000e+00 -7.1999997998620904e+00 -3.0562249706513608e-02 -5.9283095872054903e-01 +5.9338080369253053e-03
-7.2999999999999901e+00 +8.1514886770310095e+00 +0.0000000000000000e+00 -7.2999997914066501e+00 -3.0562155637588160e-02 -5.9283123466982013e-01 +5.9338405118902387e-03
-7.3999999999999897e+00 +8.1514469873182005e+00 +0.0000000000000000e+00 -7.3999997827163604e+00 -3.0562057616659415e-02 -5.9283151561617364e-01 +5.9338732564968404e-03
-7.4999999999999902e+00 +8.1514047304008308e+00 +0.0000000000000000e+00 -7.4999997737879900e+00 -3.0561955983920974e-02 -5.9283180274899461e-01 +5.9339063122042695e-03
-7.5999999999999899e+00 +8.1513619062752696e+00 +0.0000000000000000e+00 -7.5999997646183202e+00 -3.0561851079477752e-02 -5.9283209725777453e-01 +5.9339397204718220e-03
-7.6999999999999904e+00 +8.1513185149451601e+00 +0.0000000000000000e+00 -7.6999997552041499e+00 -3.0561743243336416e-02 -5.9283240033199724e-01 +5.9339735227577680e-03
-7.7999999999999901e+00 +8.1512745564032194e+00 +0.0000000000000000e+00 -7.7999997455422498e+00 -3.0561632815410439e-02 -5.9283271316128561e-01 +5.9340077605208605e-03
-7.8999999999999897e+00 +8.1512300306567305e+00 +0.0000000000000000e+00 -7.8999997356294100e+00 -3.0561520135505522e-02 -5.9283303693519596e-01 +5.9340424752182203e-03
-7.9999999999999902e+00 +8.1511849377056897e+00 +0.0000000000000000e+00 -7.9999997254624002e+00 -3.0561405543326318e-02 -5.9283337284339988e-01 +5.9340777083072014e-03
-8.0999999999999908e+00 +8.1511392775464593e+00 +0.0000000000000000e+00 -8.0999997150380096e+00 -3.0561289290435823e-02 -5.9283372192015216e-01 +5.9341134977887698e-03
-8.1999999999999904e+00 +8.1510930501790408e+00 +0.0000000000000000e+00 -8.1999997043530293e+00 -3.0561171276170265e-02 -5.9283408457769637e-01 +5.9341498678381890e-03
-8.2999999999999901e+00 +8.1510462556034309e+00 +0.0000000000000000e+00 -8.2999996934042404e+00 -3.0561051311803145e-02 -5.9283446107273230e-01 +5.9341868391746986e-03
-8.3999999999999897e+00 +8.1509988938232691e+00 +0.0000000000000000e+00 -8.3999996821884100e+00 -3.0560929208588619e-02 -5.9283485166188166e-01 +5.9342244325176719e-03
-8.4999999999999893e+00 +8.1509509648349194e+00 +0.0000000000000000e+00 -8.4999996707023406e+00 -3.0560804777766102e-02 -5.9283525660177094e-01 +5.9342626685875439e-03
-8.5999999999999908e+00 +8.1509024686420197e+00 +0.0000000000000000e+00 -8.5999996589427994e+00 -3.0560677830553575e-02 -5.9283567614891575e-01 +5.9343015681046600e-03
-8.6999999999999904e+00 +8.1508534052409196e+00 +0.0000000000000000e+00 -8.6999996469065692e+00 -3.0560548178153912e-02 -5.9283611055983343e-01 +5.9343411517905065e-03
-8.7999999999999794e+00 +8.1508037746316404e+00 +0.0000000000000000e+00 -8.7999996345904599e+00 -3.0560415631749781e-02 -5.9283656009095498e-01 +5.9343814403668487e-03
-8.8999999999999808e+00 +8.1507535768178094e+00 +0.0000000000000000e+00 -8.8999996219912205e+00 -3.0560280002503420e-02 -5.9283702499862145e-01 +5.9344224545557610e-03
-8.9999999999999805e+00 +8.1507028117957798e+00 +0.0000000000000000e+00 -8.9999996091056396e+00 -3.0560141101561411e-02 -5.9283750553917280e-01 +5.9344642150805848e-03
-9.0999999999999801e+00 +8.1506514795655693e+00 +0.0000000000000000e+00 -9.0999995959305195e+00 -3.0559998740049492e-02 -5.9283800196885539e-01 +5.9345067426650475e-03
-9.1999999999999797e+00 +8.1505995801308000e+00 +0.0000000000000000e+00 -9.1999995824626293e+00 -3.0559852729072429e-02 -5.9283851454382186e-01 +5.9345500580332998e-03
-9.2999999999999794e+00 +8.1505471134878498e+00 +0.0000000000000000e+00 -9.2999995686987500e+00 -3.0559702879718646e-02 -5.9283904352021599e-01 +5.9345941819108671e-03
-9.3999999999999808e+00 +8.1504940796366991e+00 +0.0000000000000000e+00 -9.3999995546356701e+00 -3.0559549003055232e-02 -5.9283958915408541e-01 +5.9346391350237788e-03
-9.4999999999999805e+00 +8.1504404785773694e+00 +0.0000000000000000e+00 -9.4999995402701707e+00 -3.0559390910129235e-02 -5.9284015170140480e-01 +5.9346849380988928e-03
-9.5999999999999801e+00 +8.1503863103171206e+00 +0.0000000000000000e+00 -9.5999995255990296e+00 -3.0559228411964304e-02 -5.9284073141801974e-01 +5.9347316118633598e-03
-9.6999999999999797e+00 +8.1503315748450404e+00 +0.0000000000000000e+00 -9.6999995106190298e+00 -3.0559061319571913e-02 -5.9284132855984761e-01 +5.9347791770467447e-03
-9.7999999999999794e+00 +8.1502762721684103e+00 +0.0000000000000000e+00 -9.7999994953269702e+00 -3.0558889443934773e-02 -5.9284194338258378e-01 +5.9348276543780597e-03
-9.8999999999999808e+00 +8.1502204022835905e+00 +0.0000000000000000e+00 -9.8999994797196091e+00 -3.0558712596019749e-02 -5.9284257614193325e-01 +5.9348770645882174e-03
-9.9999999999999805e+00 +8.1501639651905897e+00 +0.0000000000000000e+00 -9.9999994637937508e+00 -3.0558530586771087e-02 -5.9284322709349269e-01 +5.9349274284088505e-03
-1.0100000000000000e+01 +8.1501069608966592e+00 +0.0000000000000000e+00 -1.0099999447546200e+01 -3.0558343454315188e-02 -5.9284389628529988e-01 +5.9349787658809642e-03
-1.0199999999999999e+01 +8.1500493893909205e+00 +0.0000000000000000e+00 -1.0199999430973600e+01 -3.0558152145634832e-02 -5.9284458293581554e-01 +5.9350310942874480e-03
-1.0300000000000001e+01 +8.1499912506769796e+00 +0.0000000000000000e+00 -1.0299999414073000e+01 -3.0557957834978340e-02 -5.9284528605599440e-01 +5.9350844302303507e-03
-1.0400000000000000e+01 +8.1499325447584905e+00 +0.0000000000000000e+00 -1.0399999396840901e+01 -3.0557761696661072e-02 -5.9284600465683890e-01 +5.9351387903244296e-03
-1.0500000000000000e+01 +8.1498732716317992e+00 +0.0000000000000000e+00 -1.0499999379274200e+01 -3.0557564905070722e-02 -5.9284673774946173e-01 +5.9351941911980725e-03
-1.0600000000000000e+01 +8.1498134313005703e+00 +0.0000000000000000e+00 -1.0599999361369800e+01 -3.0557368634662567e-02 -5.9284748434496759e-01 +5.9352506494923848e-03
-1.0699999999999999e+01 +8.1497530237611500e+00 +0.0000000000000000e+00 -1.0699999343124301e+01 -3.0557174059968002e-02 -5.9284824345457343e-01 +5.9353081818627309e-03
-1.0800000000000001e+01 +8.1496920490171796e+00 +0.0000000000000000e+00 -1.0799999324534600e+01 -3.0556982355589821e-02 -5.9284901408949109e-01 +5.9353668049778223e-03
-1.0900000000000000e+01 +8.1496305070650106e+00 +0.0000000000000000e+00 -1.0899999305597399e+01 -3.0556794696210709e-02 -5.9284979526104808e-01 +5.9354265355212356e-03
-1.1000000000000000e+01 +8.1495683979046607e+00 +0.0000000000000000e+00 -1.0999999286309500e+01 -3.0556612256590180e-02 -5.9285058598059859e-01 +5.9354873901908221e-03
-1.1100000000000000e+01 +8.1495057215361193e+00 +0.0000000000000000e+00 -1.1099999266667700e+01 -3.0556436211568155e-02 -5.9285138525955650e-01 +5.9355493856993258e-03
-1.1199999999999999e+01 +8.1494424779630208e+00 +0.0000000000000000e+00 -1.1199999246668799e+01 -3.0556267736065176e-02 -5.9285219210936524e-01 +5.9356125387743722e-03
-1.1300000000000001e+01 +8.1493786671817396e+00 +0.0000000000000000e+00 -1.1299999226309600e+01 -3.0556108005089219e-02 -5.9285300554158937e-01 +5.9356768661597134e-03
-1.1400000000000000e+01 +8.1493142891922599e+00 +0.0000000000000000e+00 -1.1399999205586900e+01 -3.0555958193732708e-02 -5.9285382456782665e-01 +5.9357423846146057e-03
-1.1500000000000000e+01 +8.1492493440018698e+00 +0.0000000000000000e+00 -1.1499999184497300e+01 -3.0555819477172712e-02 -5.9285464819968003e-01 +5.9358091109138365e-03
-1.1600000000000000e+01 +8.1491838315996592e+00 +0.0000000000000000e+00 -1.1599999163037801e+01 -3.0555693030684325e-02 -5.9285547544896589e-01 +5.9358770618501379e-03
-1.1699999999999999e+01 +8.1491177519928897e+00 +0.0000000000000000e+00 -1.1699999141205099e+01 -3.0555580029626189e-02 -5.9285630532742040e-01 +5.9359462542314841e-03
