# field on trajectory
# s[mm] rx[mm] ry[mm] rz[mm] bx[T] by[T] bz[T]
0.0000000000000000e+00 +8.1530000000000094e+00 +0.0000000000000000e+00 +0.0000000000000000e+00 -2.8047625139742176e-02 -5.3664394971828300e-01 +5.3119043255117323e-03
1.0000000000000001e-01 +8.1529997159377707e+00 +0.0000000000000000e+00 +1.0008006405070299e-01 -2.8047751381845815e-02 -5.3664409214206588e-01 +5.3119287375432882e-03
2.0000000000000001e-01 +8.1529988637557800e+00 +0.0000000000000000e+00 +2.0016012809818201e-01 -2.8047871590125513e-02 -5.3664423464246791e-01 +5.3119518657187585e-03
2.9999999999999999e-01 +8.1529974434524792e+00 +0.0000000000000000e+00 +3.0024019213920999e-01 -2.8047985849541490e-02 -5.3664437759168804e-01 +5.3119739628095970e-03
4.0000000000000002e-01 +8.1529954550242092e+00 +0.0000000000000000e+00 +4.0032025617056399e-01 -2.8048094245049855e-02 -5.3664452136195062e-01 +5.3119952815907203e-03
5.0000000000000000e-01 +8.1529928984782600e+00 +0.0000000000000000e+00 +5.0040032018901703e-01 -2.8048196861597121e-02 -5.3664466632541041e-01 +5.3120160748391567e-03
5.9999999999999998e-01 +8.1529897738146193e+00 +0.0000000000000000e+00 +6.0048038419134497e-01 -2.8048293784127029e-02 -5.3664481285428511e-01 +5.3120365953350322e-03
6.9999999999999996e-01 +8.1529860810223909e+00 +0.0000000000000000e+00 +7.0056044817432195e-01 -2.8048385097581605e-02 -5.3664496132088180e-01 +5.3120570958614544e-03
8.0000000000000004e-01 +8.1529818201124709e+00 +0.0000000000000000e+00 +8.0064051213472498e-01 -2.8048470886887819e-02 -5.3664511209735621e-01 +5.3120778292017222e-03
9.0000000000000002e-01 +8.1529769910812302e+00 +0.0000000000000000e+00 +9.0072057606932698e-01 -2.8048551236971624e-02 -5.3664526555597825e-01 +5.3120990481416311e-03
1.0000000000000000e+00 +8.1529715939250291e+00 +0.0000000000000000e+00 +1.0008006399749001e+00 -2.8048626232751832e-02 -5.3664542206902566e-01 +5.3121210054680327e-03
1.1000000000000001e+00 +8.1529656286511507e+00 +0.0000000000000000e+00 +1.1008807038482300e+00 -2.8048695959135402e-02 -5.3664558200870305e-01 +5.3121439539676411e-03
1.2000000000000000e+00 +8.1529590952522994e+00 +0.0000000000000000e+00 +1.2009607676860801e+00 -2.8048760501027122e-02 -5.3664574574732793e-01 +5.3121681464285541e-03
1.3000000000000000e+00 +8.1529519937357708e+00 +0.0000000000000000e+00 +1.3010408314852300e+00 -2.8048819943317788e-02 -5.3664591365711667e-01 +5.3121938356377072e-03
1.3999999999999999e+00 +8.1529443240979198e+00 +0.0000000000000000e+00 +1.4011208952424601e+00 -2.8048874370893796e-02 -5.3664608611037101e-01 +5.3122212743823942e-03
1.5000000000000000e+00 +8.1529360863350995e+00 +0.0000000000000000e+00 +1.5012009589545301e+00 -2.8048923868632589e-02 -5.3664626347939781e-01 +5.3122507154490847e-03
1.6000000000000001e+00 +8.1529272804509691e+00 +0.0000000000000000e+00 +1.6012810226182299e+00 -2.8048968521399275e-02 -5.3664644613645374e-01 +5.3122824116225006e-03
1.7000000000000000e+00 +8.1529179064491508e+00 +0.0000000000000000e+00 +1.7013610862303301e+00 -2.8049008414049208e-02 -5.3664663445379945e-01 +5.3123166156857915e-03
1.8000000000000000e+00 +8.1529079643223703e+00 +0.0000000000000000e+00 +1.8014411497875999e+00 -2.8049043631431899e-02 -5.3664682880377845e-01 +5.3123535804209532e-03
1.8999999999999999e+00 +8.1528974540779000e+00 +0.0000000000000000e+00 +1.9015212132868200e+00 -2.8049074258380578e-02 -5.3664702955862997e-01 +5.3123935586065745e-03
2.0000000000000000e+00 +8.1528863757084800e+00 +0.0000000000000000e+00 +2.0016012767247702e+00 -2.8049100379723853e-02 -5.3664723709070172e-01 +5.3124368030194645e-03
2.1000000000000001e+00 +8.1528747292177304e+00 +0.0000000000000000e+00 +2.1016813400982199e+00 -2.8049122219490841e-02 -5.3664745185451024e-01 +5.3124835267095551e-03
2.2000000000000002e+00 +8.1528625146056601e+00 +0.0000000000000000e+00 +2.2017614034039301e+00 -2.8049140532480088e-02 -5.3664767461817042e-01 +5.3125337912774242e-03
2.2999999999999998e+00 +8.1528497318759001e+00 +0.0000000000000000e+00 +2.3018414666387002e+00 -2.8049156199966698e-02 -5.3664790622448277e-01 +5.3125876222361416e-03
2.3999999999999999e+00 +8.1528363810211903e+00 +0.0000000000000000e+00 +2.4019215297993002e+00 -2.8049170103237070e-02 -5.3664814751631951e-01 +5.3126450450998878e-03
2.5000000000000000e+00 +8.1528224620451493e+00 +0.0000000000000000e+00 +2.5020015928824901e+00 -2.8049183123581886e-02 -5.3664839933646302e-01 +5.3127060853824116e-03
2.6000000000000001e+00 +8.1528079749477893e+00 +0.0000000000000000e+00 +2.6020816558850601e+00 -2.8049196142303442e-02 -5.3664866252771126e-01 +5.3127707685981787e-03
2.7000000000000002e+00 +8.1527929197291105e+00 +0.0000000000000000e+00 +2.7021617188037701e+00 -2.8049210040715679e-02 -5.3664893793284896e-01 +5.3128391202621819e-03
2.7999999999999998e+00 +8.1527772963891003e+00 +0.0000000000000000e+00 +2.8022417816354102e+00 -2.8049225700145859e-02 -5.3664922639464774e-01 +5.3129111658900205e-03
2.8999999999999999e+00 +8.1527611049277802e+00 +0.0000000000000000e+00 +2.9023218443767500e+00 -2.8049244001936049e-02 -5.3664952875586291e-01 +5.3129869309979545e-03
3.0000000000000000e+00 +8.1527443453451305e+00 +0.0000000000000000e+00 +3.0024019070245598e+00 -2.8049265827444766e-02 -5.3664984585923403e-01 +5.3130664411030048e-03
3.1000000000000001e+00 +8.1527270176411495e+00 +0.0000000000000000e+00 +3.1024819695756198e+00 -2.8049292058048441e-02 -5.3665017854748165e-01 +5.3131497217230152e-03
3.2000000000000002e+00 +8.1527091218158603e+00 +0.0000000000000000e+00 +3.2025620320267101e+00 -2.8049323575143083e-02 -5.3665052766330745e-01 +5.3132367983767265e-03
3.2999999999999998e+00 +8.1526906578692397e+00 +0.0000000000000000e+00 +3.3026420943745900e+00 -2.8049361260145768e-02 -5.3665089404939215e-01 +5.3133276965838501e-03
3.3999999999999999e+00 +8.1526716258013003e+00 +0.0000000000000000e+00 +3.4027221566160502e+00 -2.8049405994496249e-02 -5.3665127854839467e-01 +5.3134224418651494e-03
3.5000000000000000e+00 +8.1526520256120403e+00 +0.0000000000000000e+00 +3.5028022187478500e+00 -2.8049458659658515e-02 -5.3665168200294922e-01 +5.3135210597425138e-03
3.6000000000000001e+00 +8.1526318572978198e+00 +0.0000000000000000e+00 +3.6028822807667802e+00 -2.8049520137123765e-02 -5.3665210525569285e-01 +5.3136235757392982e-03
3.7000000000000002e+00 +8.1526111208659096e+00 +0.0000000000000000e+00 +3.7029623426696099e+00 -2.8049591308406282e-02 -5.3665254914915617e-01 +5.3137300153793168e-03
3.7999999999999998e+00 +8.1525898163126804e+00 +0.0000000000000000e+00 +3.8030424044531101e+00 -2.8049673055053542e-02 -5.3665301452592151e-01 +5.3138404041885431e-03
3.8999999999999999e+00 +8.1525679436344909e+00 +0.0000000000000000e+00 +3.9031224661140600e+00 -2.8049766258643544e-02 -5.3665350222854280e-01 +5.3139547676943691e-03
4.0000000000000000e+00 +8.1525455028386205e+00 +0.0000000000000000e+00 +4.0032025276492398e+00 -2.8049871800771849e-02 -5.3665401309945127e-01 +5.3140731314232975e-03
4.0999999999999996e+00 +8.1525224939177896e+00 +0.0000000000000000e+00 +4.1032825890554099e+00 -2.8049990221748717e-02 -5.3665454759055820e-01 +5.3141954677402656e-03
4.2000000000000002e+00 +8.1524989168792708e+00 +0.0000000000000000e+00 +4.2033626503293604e+00 -2.8050120821431206e-02 -5.3665510473412337e-01 +5.3143215557971768e-03
4.2999999999999998e+00 +8.1524747717157897e+00 +0.0000000000000000e+00 +4.3034427114678504e+00 -2.8050262617952366e-02 -5.3665568324014867e-01 +5.3144511308667753e-03
4.4000000000000004e+00 +8.1524500584346207e+00 +0.0000000000000000e+00 +4.4035227724676700e+00 -2.8050414629417285e-02 -5.3665628181854941e-01 +5.3145839282194521e-03
4.5000000000000000e+00 +8.1524247770285001e+00 +0.0000000000000000e+00 +4.5036028333255800e+00 -2.8050575873912745e-02 -5.3665689917936876e-01 +5.3147196831252793e-03
4.5999999999999996e+00 +8.1523989275046898e+00 +0.0000000000000000e+00 +4.6036828940383696e+00 -2.8050745369493906e-02 -5.3665753403256689e-01 +5.3148581308517743e-03
4.7000000000000002e+00 +8.1523725098559208e+00 +0.0000000000000000e+00 +4.7037629546028104e+00 -2.8050922134194002e-02 -5.3665818508823560e-01 +5.3149990066659420e-03
4.7999999999999998e+00 +8.1523455240894709e+00 +0.0000000000000000e+00 +4.8038430150156701e+00 -2.8051105186011147e-02 -5.3665885105638655e-01 +5.3151420458320423e-03
4.9000000000000004e+00 +8.1523179701980606e+00 +0.0000000000000000e+00 +4.9039230752737302e+00 -2.8051293542917917e-02 -5.3665953064716754e-01 +5.3152869836136339e-03
5.0000000000000000e+00 +8.1522898481889605e+00 +0.0000000000000000e+00 +5.0040031353737602e+00 -2.8051486222848084e-02 -5.3666022257064860e-01 +5.3154335552713285e-03
5.0999999999999996e+00 +8.1522611580549000e+00 +0.0000000000000000e+00 +5.1040831953125396e+00 -2.8051682243706404e-02 -5.3666092553703948e-01 +5.3155814960648548e-03
5.2000000000000002e+00 +8.1522318997995207e+00 +0.0000000000000000e+00 +5.2041632550868497e+00 -2.8051880623356645e-02 -5.3666163825650282e-01 +5.3157305412510694e-03
5.2999999999999998e+00 +8.1522020734228100e+00 +0.0000000000000000e+00 +5.3042433146934496e+00 -2.8052080379625643e-02 -5.3666235943926410e-01 +5.3158804260849402e-03
5.4000000000000004e+00 +8.1521716789247893e+00 +0.0000000000000000e+00 +5.4043233741291203e+00 -2.8052280530299973e-02 -5.3666308779558536e-01 +5.3160308858191795e-03
5.5000000000000000e+00 +8.1521407163090807e+00 +0.0000000000000000e+00 +5.5044034333906504e+00 -2.8052480093122827e-02 -5.3666382203574126e-01 +5.3161816557038910e-03
5.5999999999999996e+00 +8.1521091855684098e+00 +0.0000000000000000e+00 +5.6044834924747899e+00 -2.8052678085797894e-02 -5.3666456087012693e-01 +5.3163324709875354e-03
5.7000000000000002e+00 +8.1520770867064094e+00 +0.0000000000000000e+00 +5.7045635513783299e+00 -2.8052873525978968e-02 -5.3666530300909976e-01 +5.3164830669152245e-03
5.7999999999999998e+00 +8.1520444197231008e+00 +0.0000000000000000e+00 +5.8046436100980499e+00 -2.8053065431273869e-02 -5.3666604716308797e-01 +5.3166331787297049e-03
5.9000000000000004e+00 +8.1520111846184609e+00 +0.0000000000000000e+00 +5.9047236686307096e+00 -2.8053252819241311e-02 -5.3666679204256551e-01 +5.3167825416709953e-03
5.9999999999999902e+00 +8.1519773813925003e+00 +0.0000000000000000e+00 +6.0048037269731003e+00 -2.8053434707410476e-02 -5.3666753635807130e-01 +5.3169308909852084e-03
6.0999999999999899e+00 +8.1519430100452208e+00 +0.0000000000000000e+00 +6.1048837851219799e+00 -2.8053610336581540e-02 -5.3666827900211311e-01 +5.3170780547539221e-03
6.1999999999999904e+00 +8.1519080705766100e+00 +0.0000000000000000e+00 +6.2049638430741396e+00 -2.8053779721300732e-02 -5.3666901949753665e-01 +5.3172241827228565e-03
6.2999999999999901e+00 +8.1518725629866804e+00 +0.0000000000000000e+00 +6.3050439008263499e+00 -2.8053943043605523e-02 -5.3666975750358403e-01 +5.3173694942568019e-03
6.3999999999999897e+00 +8.1518364872754301e+00 +0.0000000000000000e+00 +6.4051239583753699e+00 -2.8054100485564150e-02 -5.3667049267946865e-01 +5.3175142087214973e-03
6.4999999999999902e+00 +8.1517998434428591e+00 +0.0000000000000000e+00 +6.5052040157180002e+00 -2.8054252229277259e-02 -5.3667122468437312e-01 +5.3176585454836837e-03
6.5999999999999899e+00 +8.1517626314889604e+00 +0.0000000000000000e+00 +6.6052840728510001e+00 -2.8054398456879487e-02 -5.3667195317744709e-01 +5.3178027239111627e-03
6.6999999999999904e+00 +8.1517248514137499e+00 +0.0000000000000000e+00 +6.7053641297711399e+00 -2.8054539350541075e-02 -5.3667267781780736e-01 +5.3179469633728689e-03
6.7999999999999901e+00 +8.1516865032135701e+00 +0.0000000000000000e+00 +6.8054441864752100e+00 -2.8054675092471001e-02 -5.3667339826456117e-01 +5.3180914832392026e-03
6.8999999999999897e+00 +8.1516475868957095e+00 +0.0000000000000000e+00 +6.9055242429599701e+00 -2.8054805864912706e-02 -5.3667411417670008e-01 +5.3182365028809978e-03
6.9999999999999902e+00 +8.1516081024565192e+00 +0.0000000000000000e+00 +7.0056042992222096e+00 -2.8054931850154466e-02 -5.3667482521325660e-01 +5.3183822416712255e-03
7.0999999999999899e+00 +8.1515680498960101e+00 +0.0000000000000000e+00 +7.1056843552586999e+00 -2.8055053230525179e-02 -5.3667553103319665e-01 +5.3185289189839613e-03
7.1999999999999904e+00 +8.1515274292141804e+00 +0.0000000000000000e+00 +7.2057644110662000e+00 -2.8055170188397493e-02 -5.3667623129544573e-01 +5.3186767541947297e-03
7.2999999999999901e+00 +8.1514862404073902e+00 +0.0000000000000000e+00 +7.3058444666415099e+00 -2.8055282906190748e-02 -5.3667692565891290e-01 +5.3188259666808258e-03
7.3999999999999897e+00 +8.1514444834829192e+00 +0.0000000000000000e+00 +7.4059245219813796e+00 -2.8055391566366935e-02 -5.3667761378238266e-01 +5.3189767758203051e-03
7.4999999999999902e+00 +8.1514021584334806e+00 +0.0000000000000000e+00 +7.5060045770826100e+00 -2.8055496351442367e-02 -5.3667829532470113e-01 +5.3191294009939391e-03
7.5999999999999899e+00 +8.1513592652663593e+00 +0.0000000000000000e+00 +7.6060846319419504e+00 -2.8055597443977714e-02 -5.3667896994456044e-01 +5.3192840615831115e-03
7.6999999999999904e+00 +8.1513158039779192e+00 +0.0000000000000000e+00 +7.7061646865561997e+00 -2.8055695026589778e-02 -5.3667963730068347e-01 +5.3194409769717656e-03
7.7999999999999901e+00 +8.1512717745681602e+00 +0.0000000000000000e+00 +7.8062447409221098e+00 -2.8055789281947290e-02 -5.3668029705171727e-01 +5.3196003665454076e-03
7.8999999999999897e+00 +8.1512271770334301e+00 +0.0000000000000000e+00 +7.9063247950364799e+00 -2.8055880392775411e-02 -5.3668094885628304e-01 +5.3197624496916828e-03
7.9999999999999902e+00 +8.1511820113773901e+00 +0.0000000000000000e+00 +8.0064048488960609e+00 -2.8055968541852966e-02 -5.3668159237294910e-01 +5.3199274457816021e-03
8.0999999999999908e+00 +8.1511362776036496e+00 +0.0000000000000000e+00 +8.1064849024976393e+00 -2.8056053911557233e-02 -5.3668222750491823e-01 +5.3200954913062842e-03
8.1999999999999904e+00 +8.1510899757086008e+00 +0.0000000000000000e+00 +8.2065649558379903e+00 -2.8056136682782805e-02 -5.3668285496385559e-01 +5.3202664489273212e-03
8.2999999999999901e+00 +8.1510431056885899e+00 +0.0000000000000000e+00 +8.3066450089139003e+00 -2.8056217036104003e-02 -5.3668347562819152e-01 +5.3204401248368866e-03
8.3999999999999897e+00 +8.1509956675508892e+00 +0.0000000000000000e+00 +8.4067250617221205e+00 -2.8056295152078487e-02 -5.3668409037632869e-01 +5.3206163252311322e-03
8.4999999999999893e+00 +8.1509476612882299e+00 +0.0000000000000000e+00 +8.5068051142594392e+00 -2.8056371211256610e-02 -5.3668470008682767e-01 +5.3207948563122175e-03
8.5999999999999908e+00 +8.1508990869078808e+00 +0.0000000000000000e+00 +8.6068851665226305e+00 -2.8056445394169363e-02 -5.3668530563819594e-01 +5.3209755242862701e-03
8.6999999999999904e+00 +8.1508499444025801e+00 +0.0000000000000000e+00 +8.7069652185084596e+00 -2.8056517881339296e-02 -5.3668590790910320e-01 +5.3211581353657077e-03
8.7999999999999794e+00 +8.1508002337759500e+00 +0.0000000000000000e+00 +8.8070452702137203e+00 -2.8056588853269820e-02 -5.3668650777819682e-01 +5.3213424957674720e-03
8.8999999999999808e+00 +8.1507499550316407e+00 +0.0000000000000000e+00 +8.9071253216351796e+00 -2.8056658490448954e-02 -5.3668710612418269e-01 +5.3215284117139796e-03
8.9999999999999805e+00 +8.1506991081623692e+00 +0.0000000000000000e+00 +9.0072053727696098e+00 -2.8056726973353006e-02 -5.3668770382590736e-01 +5.3217156894340848e-03
9.0999999999999801e+00 +8.1506476931717806e+00 +0.0000000000000000e+00 +9.1072854236137797e+00 -2.8056794482437381e-02 -5.3668830176219973e-01 +5.3219041351615769e-03
9.1999999999999797e+00 +8.1505957100635005e+00 +0.0000000000000000e+00 +9.2073654741644795e+00 -2.8056861198140270e-02 -5.3668890081195297e-01 +5.3220935551361453e-03
9.2999999999999794e+00 +8.1505431588302599e+00 +0.0000000000000000e+00 +9.3074455244184708e+00 -2.8056927300886408e-02 -5.3668950185420616e-01 +5.3222837556043288e-03
9.3999999999999808e+00 +8.1504900394757005e+00 +0.0000000000000000e+00 +9.4075255743725297e+00 -2.8056992971077763e-02 -5.3669010576798537e-01 +5.3224745428180151e-03
9.4999999999999805e+00 +8.1504363520034495e+00 +0.0000000000000000e+00 +9.5076056240234408e+00 -2.8057058389097379e-02 -5.3669071343238650e-01 +5.3226657230354213e-03
9.5999999999999801e+00 +8.1503820964062506e+00 +0.0000000000000000e+00 +9.6076856733679694e+00 -2.8057123735312977e-02 -5.3669132572665612e-01 +5.3228571025220129e-03
9.6999999999999797e+00 +8.1503272726913600e+00 +0.0000000000000000e+00 +9.7077657224029004e+00 -2.8057189190066320e-02 -5.3669194353000649e-01 +5.3230484875487760e-03
9.7999999999999794e+00 +8.1502718808515109e+00 +0.0000000000000000e+00 +9.8078457711250007e+00 -2.8057254933684189e-02 -5.3669256772183194e-01 +5.3232396843944998e-03
9.8999999999999808e+00 +8.1502159208903304e+00 +0.0000000000000000e+00 +9.9079258195310498e+00 -2.8057321146467619e-02 -5.3669319918152192e-01 +5.3234304993440397e-03
9.9999999999999805e+00 +8.1501593928078400e+00 +0.0000000000000000e+00 +1.0008005867617801e+01 -2.8057388008659732e-02 -5.3669383878844601e-01 +5.3236207387147329e-03
1.0100000000000000e+01 +8.1501022966040200e+00 +0.0000000000000000e+00 +1.0108085915382100e+01 -2.8057455608606400e-02 -5.3669448711603207e-01 +5.3238102707795481e-03
1.0199999999999999e+01 +8.1500446322825209e+00 +0.0000000000000000e+00 +1.0208165962820599e+01 -2.8057523745107889e-02 -5.3669514377335381e-01 +5.3239991590265257e-03
1.0300000000000001e+01 +8.1499863998360507e+00 +0.0000000000000000e+00 +1.0308246009930199e+01 -2.8057592160053577e-02 -5.3669580818001350e-01 +5.3241875052929127e-03
1.0400000000000000e+01 +8.1499275992682705e+00 +0.0000000000000000e+00 +1.0408326056707599e+01 -2.8057660595298690e-02 -5.3669647975544921e-01 +5.3243754114052624e-03
1.0500000000000000e+01 +8.1498682305791608e+00 +0.0000000000000000e+00 +1.0508406103149600e+01 -2.8057728792669299e-02 -5.3669715791903905e-01 +5.3245629791802713e-03
1.0600000000000000e+01 +8.1498082937723701e+00 +0.0000000000000000e+00 +1.0608486149253000e+01 -2.8057796493958755e-02 -5.3669784209004645e-01 +5.3247503104239535e-03
1.0699999999999999e+01 +8.1497477888406102e+00 +0.0000000000000000e+00 +1.0708566195014500e+01 -2.8057863440932661e-02 -5.3669853168772308e-01 +5.3249375069324397e-03
1.0800000000000001e+01 +8.1496867157875403e+00 +0.0000000000000000e+00 +1.0808646240430900e+01 -2.8057929375319576e-02 -5.3669922613114784e-01 +5.3251246704900859e-03
1.0900000000000000e+01 +8.1496250746131391e+00 +0.0000000000000000e+00 +1.0908726285499000e+01 -2.8057994038816036e-02 -5.3669992483933127e-01 +5.3253119028702865e-03
1.1000000000000000e+01 +8.1495628653174208e+00 +0.0000000000000000e+00 +1.1008806330215601e+01 -2.8058057173084336e-02 -5.3670062723118561e-01 +5.3254993058349112e-03
1.1100000000000000e+01 +8.1495000879040198e+00 +0.0000000000000000e+00 +1.1108886374577500e+01 -2.8058118519750437e-02 -5.3670133272549636e-01 +5.3256869811337728e-03
1.1199999999999999e+01 +8.1494367423620098e+00 +0.0000000000000000e+00 +1.1208966418581401e+01 -2.8058177820410406e-02 -5.3670204074105410e-01 +5.3258750305057055e-03
1.1300000000000001e+01 +8.1493728287059604e+00 +0.0000000000000000e+00 +1.1309046462224000e+01 -2.8058234816613851e-02 -5.3670275069635764e-01 +5.3260635556753007e-03
1.1400000000000000e+01 +8.1493083469249505e+00 +0.0000000000000000e+00 +1.1409126505502300e+01 -2.8058289249883361e-02 -5.3670346200998531e-01 +5.3262526583564363e-03
1.1500000000000000e+01 +8.1492432970226201e+00 +0.0000000000000000e+00 +1.1509206548412800e+01 -2.8058340861697940e-02 -5.3670417410029991e-01 +5.3264424402490133e-03
1.1600000000000000e+01 +8.1491776789989707e+00 +0.0000000000000000e+00 +1.1609286590952600e+01 -2.8058389393499500e-02 -5.3670488638557956e-01 +5.3266330030400282e-03
1.1699999999999999e+01 +8.1491114928576298e+00 +0.0000000000000000e+00 +1.1709366633118099e+01 -2.8058434586689256e-02 -5.3670559828396192e-01 +5.3268244484027767e-03
1.1800000000000001e+01 +8.1490447385876905e+00 +0.0000000000000000e+00 +1.1809446674906400e+01 -2.8058476182634167e-02 -5.3670630921357543e-01 +5.3270168779979178e-03
