# multipoles
# s[mm] polynom_b[n=0][T/m^n] polynom_b[n=1][T/m^n] polynom_b[n=2][T/m^n] polynom_b[n=3][T/m^n] polynom_b[n=4][T/m^n] polynom_b[n=5][T/m^n] polynom_b[n=6][T/m^n] 
+0.0000000000000000e+00 -5.6517799797296420e-01 +7.7438638379994593e+00 -1.2978660038469853e-01 -5.6281814496944598e+01 -2.8552396454524353e+02 +6.7734264344151539e+04 -3.0988943191558374e+06 
-1.0000000000000001e-01 -5.6517800526678574e-01 +7.7439033538530220e+00 -1.3119161891495565e-01 -5.7354089110455256e+01 -2.3385345829857496e+02 +7.3257314134348082e+04 -3.4071719243335603e+06 
-2.0000000000000001e-01 -5.6517802511550264e-01 +7.7439430364502853e+00 -1.3168222436191385e-01 -5.8450855189178604e+01 -1.9558014988683220e+02 +7.8964340526933680e+04 -3.6604749965620912e+06 
-3.0000000000000004e-01 -5.6517805692659762e-01 +7.7439827602950304e+00 -1.3129621345510126e-01 -5.9567332738957660e+01 -1.7026859637164642e+02 +8.4826804076471293e+04 -3.8603664612315502e+06 
-4.0000000000000002e-01 -5.6517810010755709e-01 +7.7440223998919260e+00 -1.3007138263987539e-01 -6.0698741805472935e+01 -1.5748336093331523e+02 +9.0816165617444189e+04 -4.0084092154500228e+06 
-5.0000000000000000e-01 -5.6517815406589000e-01 +7.7440618297366157e+00 -1.2804552503123423e-01 -6.1840302191399395e+01 -1.5678907021157241e+02 +9.6903884634486370e+04 -4.1061658584689400e+06 
-5.9999999999999998e-01 -5.6517821820907799e-01 +7.7441009243278964e+00 -1.2525643686422977e-01 -6.2987233794780764e+01 -1.6775029636839801e+02 +1.0306142118204184e+05 -4.1551992363463626e+06 
-6.9999999999999996e-01 -5.6517829194462788e-01 +7.7441395581561183e+00 -1.2174191107263733e-01 -6.4134756267350980e+01 -1.8993167391560326e+02 +1.0926023389115246e+05 -4.1570719025687147e+06 
-7.9999999999999993e-01 -5.6517837468001120e-01 +7.7441776057102443e+00 -1.1753974491147116e-01 -6.5278089239738904e+01 -2.2289775776597591e+02 +1.1547178133150951e+05 -4.1133467823012630e+06 
-8.9999999999999991e-01 -5.6517846582271991e-01 +7.7442149414808412e+00 -1.1268773273423405e-01 -6.6412452369535359e+01 -2.6621316183668415e+02 +1.2166752218400344e+05 -4.0255865102073224e+06 
-9.9999999999999989e-01 -5.6517856478022377e-01 +7.7442514399534561e+00 -1.0722367158760365e-01 -6.7533065175715848e+01 -3.1944244951184271e+02 +1.2781891434968037e+05 -3.8953539593142085e+06 
-1.0999999999999999e+00 -5.6517867096000796e-01 +7.7442869756117041e+00 -1.0118535644697965e-01 -6.8635147100683369e+01 -3.8215022684756599e+02 +1.3389741524101485e+05 -3.7242117898393511e+06 
-1.2000000000000000e+00 -5.6517878376951813e-01 +7.7443214229441493e+00 -9.4610587242924191e-02 -6.9713917731230723e+01 -4.5390100822564102e+02 +1.3987448311238617e+05 -3.5137230889855879e+06 
-1.3000000000000000e+00 -5.6517890261623216e-01 +7.7443546564268271e+00 -8.7537159929231431e-02 -7.0764596263139808e+01 -5.3425938467102378e+02 +1.4572157388688484e+05 -3.2654505746036004e+06 
-1.4000000000000001e+00 -5.6517902690755328e-01 +7.7443865505482705e+00 -8.0002879088264381e-02 -7.1782402245999222e+01 -6.2278979109793283e+02 +1.5141014551946238e+05 -2.9809576828359533e+06 
-1.5000000000000002e+00 -5.6517915605093128e-01 +7.7444169797898414e+00 -7.2045544352683982e-02 -7.2762554983832700e+01 -7.1905675322203751e+02 +1.5691165444819728e+05 -2.6618074226209614e+06 
-1.6000000000000003e+00 -5.6517928945378215e-01 +7.7444458186331042e+00 -6.3702958669352328e-02 -7.3700273769680322e+01 -8.2262474345048417e+02 +1.6219755700001150e+05 -2.3095630263793119e+06 
-1.7000000000000004e+00 -5.6517942652349995e-01 +7.7444729415647826e+00 -5.5012928719654255e-02 -7.4590778018150331e+01 -9.3305816029976268e+02 +1.6723931015119399e+05 -1.9257880803588922e+06 
-1.8000000000000005e+00 -5.6517956666747693e-01 +7.7444982230688799e+00 -4.6013260667353055e-02 -7.5429287024252929e+01 -1.0499214207316079e+03 +1.7200837006688595e+05 -1.5120460544058031e+06 
-1.9000000000000006e+00 -5.6517970929306438e-01 +7.7445215376301810e+00 -3.6741766217384599e-02 -7.6211020070162718e+01 -1.1727788369640805e+03 +1.7647619275381367e+05 -1.0699009086058096e+06 
-2.0000000000000004e+00 -5.6517985380763092e-01 +7.7445427597384073e+00 -2.7236255060412412e-02 -7.6931196541647054e+01 -1.3011947641362001e+03 +1.8061423471394996e+05 -6.0091637961188180e+05 
-2.1000000000000005e+00 -5.6517999964400356e-01 +7.7445617844255690e+00 -1.7535542872868994e-02 -7.7585960494548061e+01 -1.4346945808644646e+03 +1.8439972103311835e+05 -1.0683780972438534e+05 
-2.2000000000000006e+00 -5.6518014634073566e-01 +7.7445785899207076e+00 -7.6822048441884819e-03 -7.8175182304949701e+01 -1.5726461221658603e+03 +1.8783302194779360e+05 +4.0983862810915807e+05 
-2.3000000000000007e+00 -5.6518029346366427e-01 +7.7445931755173181e+00 +2.2802953438139360e-03 -7.8699671336457016e+01 -1.7143771528138498e+03 +1.9092031475368002e+05 +9.4642173300534429e+05 
-2.4000000000000008e+00 -5.6518044057863237e-01 +7.7446055405066101e+00 +1.2308494363581866e-02 -7.9160236860352541e+01 -1.8592154430925018e+03 +1.9366777611252887e+05 +1.5002203279687308e+06 
-2.5000000000000009e+00 -5.6518058725146059e-01 +7.7446156841916336e+00 +2.2358927088851996e-02 -7.9557688471912115e+01 -2.0064887377522020e+03 +1.9608158448245024e+05 +2.0685431384351461e+06 
-2.6000000000000010e+00 -5.6518073304797045e-01 +7.7446236058753195e+00 +3.2388128398017732e-02 -7.9892835733052024e+01 -2.1555247843741390e+03 +1.9816791801632781e+05 +2.6486989119030586e+06 
-2.7000000000000011e+00 -5.6518087753395907e-01 +7.7446293048644437e+00 +4.2352630816532601e-02 -8.0166488299054762e+01 -2.3056512899613876e+03 +1.9993295531558545e+05 +3.2379962133657411e+06 
-2.8000000000000012e+00 -5.6518102027523476e-01 +7.7446327804735491e+00 +5.2208968403912100e-02 -8.0379456016898047e+01 -2.4561959952100251e+03 +2.0138287596446477e+05 +3.8337437808587952e+06 
-2.9000000000000012e+00 -5.6518116083759851e-01 +7.7446340320221783e+00 +6.1913674946485545e-02 -8.0532548869393906e+01 -2.6064866397197266e+03 +2.0252386027256519e+05 +4.4332503578913677e+06 
-3.0000000000000013e+00 -5.6518129878681755e-01 +7.7446330588311332e+00 +7.1423280215937038e-02 -8.0626576836150065e+01 -2.7558508911445269e+03 +2.0336208836530492e+05 +5.0338243574065696e+06 
-3.1000000000000014e+00 -5.6518143368867146e-01 +7.7446298602339469e+00 +8.0694316326807472e-02 -8.0662350244210472e+01 -2.9036164685869239e+03 +2.0390374228184592e+05 +5.6327744547662921e+06 
-3.2000000000000015e+00 -5.6518156510892725e-01 +7.7446244355650098e+00 +8.9683314161691743e-02 -8.0640679422458945e+01 -3.0491110709602808e+03 +2.0415500395068838e+05 +6.2274092376585035e+06 
-3.3000000000000016e+00 -5.6518169261334694e-01 +7.7446167841707378e+00 +9.8346804329537324e-02 -8.0562375024346011e+01 -3.1916623954217198e+03 +2.0412205706044502e+05 +6.8150372932861587e+06 
-3.4000000000000017e+00 -5.6518181576767501e-01 +7.7446069054006124e+00 +1.0664131630014559e-01 -8.0428247756409647e+01 -3.3305981264179563e+03 +2.0381108545348680e+05 +7.3929671710102838e+06 
-3.5000000000000018e+00 -5.6518193413766893e-01 +7.7445947986134591e+00 +1.1452338101758310e-01 -8.0239108579638810e+01 -3.4652459767413061e+03 +2.0322827433323360e+05 +7.9585075555117959e+06 
-3.6000000000000019e+00 -5.6518204728905186e-01 +7.7445804631748132e+00 +1.2194952652608329e-01 -7.9995768616857660e+01 -3.5949336141152326e+03 +2.0237980968933456e+05 +8.5089669413569104e+06 
-3.7000000000000020e+00 -5.6518215478755318e-01 +7.7445638984606724e+00 +1.2887628197254980e-01 -7.9699039264422424e+01 -3.7189887310534991e+03 +2.0127187894380096e+05 +9.0416539497311525e+06 
-3.8000000000000020e+00 -5.6518225619889639e-01 +7.7445451038550290e+00 +1.3526017607264937e-01 -7.9349732128085193e+01 -3.8367390144440610e+03 +1.9991067059988665e+05 +9.5538771805965137e+06 
-3.9000000000000021e+00 -5.6518235108881087e-01 +7.7445240787513052e+00 +1.4105773939379734e-01 -7.8948659059933249e+01 -3.9475121954156530e+03 +1.9830237443661824e+05 +1.0042945465904752e+07 
-4.0000000000000018e+00 -5.6518243902299092e-01 +7.7445008225523697e+00 +1.4622549874300239e-01 -7.8496632148777138e+01 -4.0506359384791517e+03 +1.9645318141973656e+05 +1.0506167330721121e+07 
-4.1000000000000014e+00 -5.6518251976665501e-01 +7.7444753856464308e+00 +1.5073061592705778e-01 -7.7995405480511167e+01 -4.1455675740789993e+03 +1.9437275627265454e+05 +1.0941314323661931e+07 
-4.2000000000000011e+00 -5.6518259388309311e-01 +7.7444480245499250e+00 +1.5458139479214220e-01 -7.7450588457087704e+01 -4.2322570928220339e+03 +1.9208516488817841e+05 +1.1347913437063616e+07 
-4.3000000000000007e+00 -5.6518266213515778e-01 +7.7444190478850334e+00 +1.5779607639052423e-01 -7.6868775974868996e+01 -4.3107710867531068e+03 +1.8961819258893779e+05 +1.1725905909622440e+07 
-4.4000000000000004e+00 -5.6518272528572455e-01 +7.7443887642790807e+00 +1.6039290381500829e-01 -7.6256563137835926e+01 -4.3811761717773688e+03 +1.8699962599207717e+05 +1.2075233058650360e+07 
-4.5000000000000000e+00 -5.6518278409769906e-01 +7.7443574823602805e+00 +1.6239012242105016e-01 -7.5620545131626145e+01 -4.4435389905385928e+03 +1.8425725227071880e+05 +1.2395836290965298e+07 
-4.5999999999999996e+00 -5.6518283933403757e-01 +7.7443255107567133e+00 +1.6380598234089955e-01 -7.4967317196619788e+01 -4.4979262567387095e+03 +1.8141885900385637e+05 +1.2687657303676793e+07 
-4.6999999999999993e+00 -5.6518289175767289e-01 +7.7442931580933925e+00 +1.6465872879344309e-01 -7.4303474565087882e+01 -4.5444045687522921e+03 +1.7851223387593680e+05 +1.2950637192077072e+07 
-4.7999999999999989e+00 -5.6518294213163212e-01 +7.7442607330012638e+00 +1.6496661744305871e-01 -7.3635612701006210e+01 -4.5830407059632225e+03 +1.7556516600045213e+05 +1.3184717873046653e+07 
-4.8999999999999986e+00 -5.6518299121896198e-01 +7.7442285440995331e+00 +1.6474790418008534e-01 -7.2970326807831611e+01 -4.6139014262728306e+03 +1.7260544312691857e+05 +1.3389841097187145e+07 
-4.9999999999999982e+00 -5.6518303978272111e-01 +7.7441969000185775e+00 +1.6402084500230638e-01 -7.2314212500423423e+01 -4.6370534708094547e+03 +1.6966085555047879e+05 +1.3565948492725495e+07 
-5.0999999999999979e+00 -5.6518308858602406e-01 +7.7441661093753149e+00 +1.6280370018691398e-01 -7.1673865082366717e+01 -4.6525636331905880e+03 +1.6675919189743148e+05 +1.3712981866423050e+07 
-5.1999999999999975e+00 -5.6518313839203693e-01 +7.7441364807993214e+00 +1.6111473478111962e-01 -7.1055880309061379e+01 -4.6604987752408797e+03 +1.6392824356696478e+05 +1.3830883297682790e+07 
-5.2999999999999972e+00 -5.6518318996395200e-01 +7.7441083229047782e+00 +1.5897221474891657e-01 -7.0466853600776332e+01 -4.6609257474910646e+03 +1.6119580023308887e+05 +1.3919594740711743e+07 
-5.3999999999999968e+00 -5.6518324406500342e-01 +7.7440819443141775e+00 +1.5639440882659192e-01 -6.9913380700926908e+01 -4.6539114257609745e+03 +1.5858965358668042e+05 +1.3979058206021247e+07 
-5.4999999999999964e+00 -5.6518330145851237e-01 +7.7440576536431012e+00 +1.5339959442397444e-01 -6.9402057257118116e+01 -4.6395228229458635e+03 +1.5613759495747223e+05 +1.4009216289286546e+07 
-5.5999999999999961e+00 -5.6518336290778870e-01 +7.7440357595055849e+00 +1.5000604500231321e-01 -6.8939478992400765e+01 -4.6178268459415713e+03 +1.5386741636139061e+05 +1.4010011006693078e+07 
-5.6999999999999957e+00 -5.6518342917624209e-01 +7.7440165705121871e+00 +1.4623204360949141e-01 -6.8532241626118250e+01 -4.5888905512963138e+03 +1.5180690995977225e+05 +1.3981385008239377e+07 
-5.7999999999999954e+00 -5.6518350102730253e-01 +7.7440003952728249e+00 +1.4209587334648138e-01 -6.8186940978641701e+01 -4.5527809651409561e+03 +1.4998386873845960e+05 +1.3923280722968439e+07 
-5.8999999999999950e+00 -5.6518357922449391e-01 +7.7439875423938487e+00 +1.3761582621508645e-01 -6.7910172893776476e+01 -4.5095652495179284e+03 +1.4842608607341774e+05 +1.3835641146956220e+07 
-5.9999999999999947e+00 -5.6518366453135038e-01 +7.7439783204757404e+00 +1.3281019278894307e-01 -6.7708533161861041e+01 -4.4593105053445452e+03 +1.4716135527459683e+05 +1.3718408905671626e+07 
-6.0999999999999943e+00 -5.6518375764652118e-01 +7.7439729240162487e+00 +1.2770099389926404e-01 -6.7586050981623700e+01 -4.4021817510976744e+03 +1.4620631807518404e+05 +1.3571951289754305e+07 
-6.1999999999999940e+00 -5.6518385900171031e-01 +7.7439710833166657e+00 +1.2232883388185739e-01 -6.7536350674303918e+01 -4.3388203567379851e+03 +1.4553285270976555e+05 +1.3398687846904730e+07 
-6.2999999999999936e+00 -5.6518396896016454e-01 +7.7439724104413274e+00 +1.1673991624259625e-01 -6.7550416152150518e+01 -4.2700086538128980e+03 +1.4510161166928208e+05 +1.3201641595253019e+07 
-6.3999999999999932e+00 -5.6518408788509578e-01 +7.7439765174335173e+00 +1.1098044132877824e-01 -6.7619230717513986e+01 -4.1965289384926255e+03 +1.4487324418111579e+05 +1.2983835444025956e+07 
-6.4999999999999929e+00 -5.6518421613964609e-01 +7.7439830163327557e+00 +1.0509660322409008e-01 -6.7733777534194232e+01 -4.1191634210099783e+03 +1.4480839877900729e+05 +1.2748291980401982e+07 
-6.5999999999999925e+00 -5.6518435408690604e-01 +7.7439915191670510e+00 +9.9134591658666477e-02 -6.7885039416564283e+01 -4.0386942608236955e+03 +1.4486772213602343e+05 +1.2498033635515399e+07 
-6.6999999999999922e+00 -5.6518450208990545e-01 +7.7440016379488457e+00 +9.3140590759519901e-02 -6.8063998699611901e+01 -3.9559035418311855e+03 +1.4501185827422113e+05 +1.2236082561572481e+07 
-6.7999999999999918e+00 -5.6518466051162186e-01 +7.7440129846794292e+00 +8.7160780844721883e-02 -6.8261637372534523e+01 -3.8715733129225946e+03 +1.4520144937970315e+05 +1.1965460843311230e+07 
-6.8999999999999915e+00 -5.6518482971496653e-01 +7.7440251713516091e+00 +8.1241335671259435e-02 -6.8468937153501713e+01 -3.7864855317812244e+03 +1.4539713622140864e+05 +1.1689190221230539e+07 
-6.9999999999999911e+00 -5.6518501006277999e-01 +7.7440378099387175e+00 +7.5428423506422856e-02 -6.8676879164706591e+01 -3.7014220923080147e+03 +1.4555955627162225e+05 +1.1410292236851044e+07 
-7.0999999999999908e+00 -5.6518520191784083e-01 +7.7440505124045647e+00 +6.9768206874282493e-02 -6.8876444219003432e+01 -3.6171648156985407e+03 +1.4564934536883773e+05 +1.1131788183155531e+07 
-7.1999999999999904e+00 -5.6518540564285025e-01 +7.7440628907008326e+00 +6.4306841480766097e-02 -6.9058612751972362e+01 -3.5344954355915747e+03 +1.4562713734993717e+05 +1.0856699047616430e+07 
-7.2999999999999901e+00 -5.6518562160042918e-01 +7.7440745567575657e+00 +5.9090476161614197e-02 -6.9214364527890524e+01 -3.4541955985303566e+03 +1.4545356230697915e+05 +1.0588045516637921e+07 
-7.3999999999999897e+00 -5.6518585015316303e-01 +7.7440851224964531e+00 +5.4165257719977496e-02 -6.9334679045655093e+01 -3.3770469524958576e+03 +1.4508924901163985e+05 +1.0328848388725186e+07 
-7.4999999999999893e+00 -5.6518609166349487e-01 +7.7440941998240200e+00 +4.9577318473439907e-02 -6.9410535310027640e+01 -3.3038309166596364e+03 +1.4449482349983029e+05 +1.0082127495478546e+07 
-7.5999999999999890e+00 -5.6518634649383581e-01 +7.7441014006252713e+00 +4.5372790163993836e-02 -6.9432911681202469e+01 -3.2353289489740773e+03 +1.4363090831918723e+05 +9.8509029848218989e+06 
-7.6999999999999886e+00 -5.6518661500650880e-01 +7.7441063367754683e+00 +4.1597796065175621e-02 -6.9392786177669748e+01 -3.1723223887443742e+03 +1.4245812417176340e+05 +9.6381945497005545e+06 
-7.7999999999999883e+00 -5.6518689756371387e-01 +7.7441086201276272e+00 +3.8298448254129563e-02 -6.9281136139006804e+01 -3.1155924175382293e+03 +1.4093708804699557e+05 +9.4470212771310043e+06 
-7.8999999999999879e+00 -5.6518719452760458e-01 +7.7441078625215951e+00 +3.5520855892370425e-02 -6.9088938480513548e+01 -3.0659202098512365e+03 +1.3902841468345458e+05 +9.2804023473803494e+06 
-7.9999999999999876e+00 -5.6518750626023728e-01 +7.7441036757769783e+00 +3.3311119650169516e-02 -6.8807169484130455e+01 -3.0240868317838667e+03 +1.3669271531365014e+05 +9.1413565617820024e+06 
-8.0999999999999872e+00 -5.6518783295204555e-01 +7.7440957810033675e+00 +3.1703740899670256e-02 -6.8429699540971598e+01 -2.9906998267162776e+03 +1.3390502107270446e+05 +9.0322626183742248e+06 
-8.1999999999999869e+00 -5.6518817412741684e-01 +7.7440843374251180e+00 +3.0683755577695898e-02 -6.7961939659758272e+01 -2.9655736725031124e+03 +1.3069706636575944e+05 +8.9524486370790359e+06 
-8.2999999999999865e+00 -5.6518852914905471e-01 +7.7440696145431431e+00 +3.0223022923097826e-02 -6.7412193109303104e+01 -2.9482991325515736e+03 +1.2711457623696656e+05 +8.9003568774777446e+06 
-8.3999999999999861e+00 -5.6518889737969180e-01 +7.7440518818551398e+00 +3.0293405869027401e-02 -6.6788763031944796e+01 -2.9384670293454728e+03 +1.2320327468373210e+05 +8.8744298386202659e+06 
-8.4999999999999858e+00 -5.6518927818212372e-01 +7.7440314088729565e+00 +3.0866775163924928e-02 -6.6099952971283045e+01 -2.9356683171253994e+03 +1.1900888795023723e+05 +8.8731105708953552e+06 
-8.5999999999999854e+00 -5.6518967091923578e-01 +7.7440084651049670e+00 +3.1915012857360300e-02 -6.5354066355395602e+01 -2.9394941508346405e+03 +1.1457714152550597e+05 +8.8948430116318073e+06 
-8.6999999999999851e+00 -5.6519007495395457e-01 +7.7439833200692769e+00 +3.3410007091215950e-02 -6.4559406871905310e+01 -2.9495357914148890e+03 +1.0995376227781546e+05 +8.9380715439940412e+06 
-8.7999999999999847e+00 -5.6519048964930174e-01 +7.7439562432951217e+00 +3.5323656937484266e-02 -6.3724278516589258e+01 -2.9653846846794872e+03 +1.0518447877143341e+05 +9.0012413371912185e+06 
-8.8999999999999844e+00 -5.6519091436834867e-01 +7.7439275043062166e+00 +3.7627868548618951e-02 -6.2856985100890483e+01 -2.9866324000254253e+03 +1.0031501836870103e+05 +9.0827980854594093e+06 
-8.9999999999999840e+00 -5.6519134847425312e-01 +7.7438973726444651e+00 +4.0294558856518566e-02 -6.1965830944205123e+01 -3.0128706939795929e+03 +9.5391111261650949e+04 +9.1811882911899965e+06 
-9.0999999999999837e+00 -5.6519179133024477e-01 +7.7438661178516410e+00 +4.3295653480210035e-02 -6.1059120349014421e+01 -3.0436914679715455e+03 +9.0458487444311584e+04 +9.2948590571643524e+06 
-9.1999999999999833e+00 -5.6519224229963883e-01 +7.7438340094766502e+00 +4.6603089558379350e-02 -6.0145157789094874e+01 -3.0786868287761422e+03 +8.5562877728401276e+04 +9.4222583900453392e+06 
-9.2999999999999829e+00 -5.6519270074582906e-01 +7.7438013170809290e+00 +5.0188813606688136e-02 -5.9232248100807055e+01 -3.1174490407058483e+03 +8.0750014961510373e+04 +9.5618349545708634e+06 
-9.3999999999999826e+00 -5.6519316603229031e-01 +7.7437683102262147e+00 +5.4024782666612217e-02 -5.8328696085348980e+01 -3.1595705484065638e+03 +7.6065631583423819e+04 +9.7120381809935048e+06 
-9.4999999999999822e+00 -5.6519363752257157e-01 +7.7437352584868266e+00 +5.8082962963812913e-02 -5.7442806893741135e+01 -3.2046439518047223e+03 +7.1555461948381140e+04 +9.8713181487195492e+06 
-9.5999999999999819e+00 -5.6519411458034108e-01 +7.7437024314436380e+00 +6.2335335711839752e-02 -5.6582885845909665e+01 -3.2522621151162657e+03 +6.7265241244001212e+04 +1.0038126100313250e+07 
-9.6999999999999815e+00 -5.6519459656932802e-01 +7.7436700986856408e+00 +6.6753889892010018e-02 -5.5757238473239397e+01 -3.3020180289242198e+03 +6.3240705739482240e+04 +1.0210913780866366e+07 
-9.7999999999999812e+00 -5.6519508285336506e-01 +7.7436385298108084e+00 +7.1310627512147923e-02 -5.4974170531231195e+01 -3.3535049098039844e+03 +5.9527592810512600e+04 +1.0388133911187068e+07 
-9.8999999999999808e+00 -5.6519557279637545e-01 +7.7436079944247478e+00 +7.5977562042613092e-02 -5.4241987986758680e+01 -3.4063161712437786e+03 +5.6171640942971193e+04 +1.0568240051273495e+07 
-9.9999999999999805e+00 -5.6519606576239623e-01 +7.7435787621413494e+00 +8.0726720700186091e-02 -5.3568996982546430e+01 -3.4600454586173678e+03 +5.3218589298046696e+04 +1.0749686733090675e+07 
-1.0099999999999980e+01 -5.6519656124869477e-01 +7.7435510498743962e+00 +8.5533521414330210e-02 -5.2961665664210457e+01 -3.5143317239710859e+03 +5.0702766065317141e+04 +1.0931094036783695e+07 
