# multipoles
# s[mm] polynom_b[n=0][T/m^n] polynom_b[n=1][T/m^n] polynom_b[n=2][T/m^n] polynom_b[n=3][T/m^n] polynom_b[n=4][T/m^n] polynom_b[n=5][T/m^n] polynom_b[n=6][T/m^n] 
+0.0000000000000000e+00 -5.3756611329628667e-01 +7.3641202648549839e+00 -9.3242409426615019e-02 +7.0801704975374493e+00 -4.1162337649691299e+03 -8.8691998546676434e+04 +1.6631630933234466e+07 
+1.0000000000000001e-01 -5.3756579301156471e-01 +7.3641594207444410e+00 -1.0033670049339016e-01 +6.2158960676765771e+00 -4.0204182498031169e+03 -8.4048500211683277e+04 +1.6265101811987046e+07 
+2.0000000000000001e-01 -5.3756547647020325e-01 +7.3641993455294550e+00 -1.0810376461921080e-01 +5.3534727197423608e+00 -3.9130035902857362e+03 -7.9492202328377680e+04 +1.5852166778101921e+07 
+2.9999999999999999e-01 -5.3756516472961202e-01 +7.3642398008533672e+00 -1.1645240397976094e-01 +4.4962990217894827e+00 -3.7952894442435490e+03 -7.5034967699916800e+04 +1.5397512978826961e+07 
+4.0000000000000002e-01 -5.3756485884733196e-01 +7.3642805483671312e+00 -1.2529141693788093e-01 +3.6477733274776951e+00 -3.6685755400851158e+03 -7.0688657952193520e+04 +1.4905827898330014e+07 
+5.0000000000000000e-01 -5.3756455988081386e-01 +7.3643213497199760e+00 -1.3452960356295721e-01 +2.8112939969881090e+00 -3.5341615680165501e+03 -6.6465134663281642e+04 +1.4381798827535350e+07 
+5.9999999999999998e-01 -5.3756426888755027e-01 +7.3643619665618774e+00 -1.4407576488135090e-01 +1.9902593689983012e+00 -3.3933472055563020e+03 -6.2376259312526468e+04 +1.3830113016571552e+07 
+6.9999999999999996e-01 -5.3756398692498275e-01 +7.3644021605439693e+00 -1.5383870210113643e-01 +1.1880677192568059e+00 -3.2474321216903527e+03 -5.8433892946492502e+04 +1.3255457663841045e+07 
+8.0000000000000004e-01 -5.3756371505056022e-01 +7.3644416933144292e+00 -1.6372721839761006e-01 +4.0811738135541914e-01 -3.0977159509803214e+03 -5.4649896865345407e+04 +1.2662519815689007e+07 
+9.0000000000000002e-01 -5.3756345432174280e-01 +7.3644803265176932e+00 -1.7365011554715024e-01 -3.4619321706698702e-01 -2.9454983555794788e+03 -5.1036132861649901e+04 +1.2055986655073628e+07 
+1.0000000000000000e+00 -5.3756320579595640e-01 +7.3645178217992848e+00 -1.8351619904575162e-01 -1.0714657105052741e+00 -2.7920789297944557e+03 -4.7604462258171443e+04 +1.1440545051706094e+07 
+1.1000000000000001e+00 -5.3756297053069557e-01 +7.3645539407958482e+00 -1.9323427229216816e-01 -1.7643015015930599e+00 -2.6387573087351320e+03 -4.4366747607977915e+04 +1.0820882073288279e+07 
+1.2000000000000000e+00 -5.3756274958327610e-01 +7.3645884451404369e+00 -2.0271314335602689e-01 -2.4213019199164858e+00 -2.4868330452319306e+03 -4.1334851751750364e+04 +1.0201684414014837e+07 
+1.3000000000000000e+00 -5.3756254401115233e-01 +7.3646210964606018e+00 -2.1186161604471054e-01 -3.0390681611335157e+00 -2.3376057752181068e+03 -3.8520638168213038e+04 +9.5876391709899735e+06 
+1.3999999999999999e+00 -5.3756235487172421e-01 +7.3646516563767213e+00 -2.2058850018374287e-01 -3.6142012477487371e+00 -2.1923750252729537e+03 -3.5935971168235817e+04 +8.9834329333959408e+06 
+1.5000000000000000e+00 -5.3756218322233540e-01 +7.3646798864995660e+00 -2.2880260475561917e-01 -4.1433019554211077e+00 -2.0524403459690288e+03 -3.3592716311367272e+04 +8.3937524256930258e+06 
+1.6000000000000001e+00 -5.3756203012033521e-01 +7.3647055484315445e+00 -2.3641274059336567e-01 -4.6229708478998148e+00 -1.9191012569138427e+03 -3.1502740204394806e+04 +7.8232842347807363e+06 
+1.7000000000000000e+00 -5.3756189662307374e-01 +7.3647284037649650e+00 -2.4332771735029946e-01 -5.0498082430859981e+00 -1.7936573080254689e+03 -2.9677910625751632e+04 +7.2767151126353582e+06 
+1.8000000000000000e+00 -5.3756178378787056e-01 +7.3647482140818843e+00 -2.4945635043942241e-01 -5.4204141819288445e+00 -1.6774079490041527e+03 -2.8130096778915533e+04 +6.7587313556894939e+06 
+1.8999999999999999e+00 -5.3756169267199827e-01 +7.3647647409508723e+00 -2.5470745334458583e-01 -5.7313883663344534e+00 -1.5716526729282325e+03 -2.6871169544777124e+04 +6.2740194830632554e+06 
+2.0000000000000000e+00 -5.3756162433274890e-01 +7.3647777459292971e+00 -2.5898984223677340e-01 -5.9793302035055920e+00 -1.4776909325558579e+03 -2.5913001272386675e+04 +5.8272658475651937e+06 
+2.1000000000000001e+00 -5.3756157941736393e-01 +7.3647870582598562e+00 -2.6224078373762905e-01 -6.1618090250703892e+00 -1.3964402580530027e+03 -2.5263309748601674e+04 +5.4218145858554691e+06 
+2.2000000000000002e+00 -5.3756155693494267e-01 +7.3647927772347259e+00 -2.6451204314186155e-01 -6.2801811416266959e+00 -1.3272819218861719e+03 -2.4914020912168093e+04 +5.0556078912224937e+06 
+2.2999999999999998e+00 -5.3756155548522178e-01 +7.3647950694942388e+00 -2.6588419915533212e-01 -6.3367263220595502e+00 -1.2692107862939815e+03 -2.4853319527694654e+04 +4.7252285627175942e+06 
+2.3999999999999999e+00 -5.3756157366801338e-01 +7.3647941016765817e+00 -2.6643782781213216e-01 -6.3337242712389523e+00 -1.2212217671087571e+03 -2.5069390712822715e+04 +4.4272596620359784e+06 
+2.5000000000000000e+00 -5.3756161008307402e-01 +7.3647900404209672e+00 -2.6625350478873316e-01 -6.2734547007551038e+00 -1.1823097935673327e+03 -2.5550419614326158e+04 +4.1582843326653405e+06 
+2.6000000000000001e+00 -5.3756166333014754e-01 +7.3647830523768745e+00 -2.6541180785811103e-01 -6.1581976088015677e+00 -1.1514697559123572e+03 -2.6284589742807308e+04 +3.9148855353407320e+06 
+2.7000000000000002e+00 -5.3756173200910584e-01 +7.3647733041894492e+00 -2.6399331207039306e-01 -5.9902328444470898e+00 -1.1276965999653712e+03 -2.7260085553667544e+04 +3.6936465056017991e+06 
+2.7999999999999998e+00 -5.3756181471963727e-01 +7.3647609625137358e+00 -2.6207859520335636e-01 -5.7718405199540603e+00 -1.1099852244362507e+03 -2.8465090052179767e+04 +3.4911502676786729e+06 
+2.8999999999999999e+00 -5.3756191006158216e-01 +7.3647461940121675e+00 -2.5974823335127417e-01 -5.5053009313153405e+00 -1.0973305607671728e+03 -2.9887785288480976e+04 +3.3039800040581063e+06 
+3.0000000000000000e+00 -5.3756201663469627e-01 +7.3647291653514317e+00 -2.5708280310716008e-01 -5.1928944689235985e+00 -1.0887275360640647e+03 -3.1516352872196538e+04 +3.1287188909457773e+06 
+3.1000000000000001e+00 -5.3756213303877232e-01 +7.3647100432050179e+00 -2.5416288041178098e-01 -4.8369016762788881e+00 -1.0831710905107250e+03 -3.3338973686049496e+04 +2.9619501691821581e+06 
+3.2000000000000002e+00 -5.3756225787365608e-01 +7.3646889942592919e+00 -2.5106903783148399e-01 -4.4396034342004347e+00 -1.0796562327767444e+03 -3.5343826793792163e+04 +2.8002574164070780e+06 
+3.2999999999999998e+00 -5.3756238973906956e-01 +7.3646661852084989e+00 -2.4788185417494202e-01 -4.0032808010897192e+00 -1.0771778555132271e+03 -3.7519090422927948e+04 +2.6402236673416356e+06 
+3.3999999999999999e+00 -5.3756252723493259e-01 +7.3646417827541217e+00 -2.4468190056787986e-01 -3.5302150073675809e+00 -1.0747309988376928e+03 -3.9852941961925353e+04 +2.4784326613158640e+06 
+3.5000000000000000e+00 -5.3756266896097893e-01 +7.3646159536139209e+00 -2.4154975200068990e-01 -3.0226876866054715e+00 -1.0713106322595581e+03 -4.2333556718455286e+04 +2.3114678108661184e+06 
+3.6000000000000001e+00 -5.3756281351710911e-01 +7.3645888645155768e+00 -2.3856598010155314e-01 -2.4829807144530167e+00 -1.0659117900493172e+03 -4.4949108785741599e+04 +2.1359128388974555e+06 
+3.7000000000000002e+00 -5.3756295950312105e-01 +7.3645606821996905e+00 -2.3581115960512383e-01 -1.9133762775719603e+00 -1.0575294522997908e+03 -4.7687770709465294e+04 +1.9483512246969512e+06 
+3.7999999999999998e+00 -5.3756310551889652e-01 +7.3645315734225054e+00 -2.3336585927575401e-01 -1.3161569427241167e+00 -1.0451587110902285e+03 -5.0537713113477563e+04 +1.7453669760210165e+06 
+3.8999999999999999e+00 -5.3756325016432149e-01 +7.3645017049521533e+00 -2.3131064789845976e-01 -6.9360556258776396e-01 -1.0277946633697295e+03 -5.3487105220041653e+04 +1.5235441401446823e+06 
+4.0000000000000000e+00 -5.3756339203929415e-01 +7.3644712435766726e+00 -2.2972609708476416e-01 -4.8005485607720208e-02 -1.0044323504533304e+03 -5.6524113707567973e+04 +1.2794664917856019e+06 
+4.0999999999999996e+00 -5.3756352993845491e-01 +7.3644403609713756e+00 -2.2867515596366358e-01 +6.1803534632344148e-01 -9.7432741365431514e+02 -5.9636407224957642e+04 +1.0107834080720876e+06 
+4.2000000000000002e+00 -5.3756366343179185e-01 +7.3644092459958062e+00 -2.2815095133130192e-01 +1.3005971475064233e+00 -9.3775804058002927e+02 -6.2809523053815210e+04 +7.1933837127456337e+05 
+4.2999999999999998e+00 -5.3756379228224216e-01 +7.3643780912515169e+00 -2.2812929656096401e-01 +1.9954277482830478e+00 -8.9525346125894851e+02 -6.6028435232824617e+04 +4.0800798454592656e+05 
+4.4000000000000004e+00 -5.3756391625284672e-01 +7.3643470893447143e+00 -2.2858600676505914e-01 +2.6982748856944649e+00 -8.4734285523710048e+02 -6.9278117550101437e+04 +7.9668569408356838e+04 
+4.5000000000000000e+00 -5.3756403510658646e-01 +7.3643164328811821e+00 -2.2949689580324373e-01 +3.4048863496309032e+00 -7.9455541148700343e+02 -7.2543544382007240e+04 -2.6280353990007355e+05 
+4.5999999999999996e+00 -5.3756414860651258e-01 +7.3642863144731816e+00 -2.3083777343227257e-01 +4.1110097840863906e+00 -7.3742037723662600e+02 -7.5809689548363211e+04 -6.1653178107325931e+05 
+4.7000000000000002e+00 -5.3756425651568107e-01 +7.3642569267326303e+00 -2.3258445349148024e-01 +4.8123928794981969e+00 -6.7646690465441361e+02 -7.9061527424184649e+04 -9.7864008477847662e+05 
+4.7999999999999998e+00 -5.3756435859714569e-01 +7.3642284622762322e+00 -2.3471274560535746e-01 +5.5047832427723682e+00 -6.1222420151843494e+02 -8.2284032247769428e+04 -1.3462521773728768e+06 
+4.9000000000000004e+00 -5.3756445461398650e-01 +7.3642011137216823e+00 -2.3719846034883454e-01 +6.1839284911466796e+00 -5.4522144087734921e+02 -8.5462178624162480e+04 -1.7164919890297523e+06 
+5.0000000000000000e+00 -5.3756454432933631e-01 +7.3641750736903084e+00 -2.4001740380027017e-01 +6.8455761787389262e+00 -4.7598785633768506e+02 -8.8580941121206124e+04 -2.0864832222018894e+06 
+5.0999999999999996e+00 -5.3756462750635825e-01 +7.3641505348083118e+00 -2.4314538341002509e-01 +7.4854737778871705e+00 -4.0505263125856078e+02 -9.1625294216144641e+04 -2.4533498776562372e+06 
+5.2000000000000002e+00 -5.3756470390817723e-01 +7.3641276897005303e+00 -2.4655820631625869e-01 +8.0993688411068092e+00 -3.3294493165539160e+02 -9.4580213191709496e+04 -2.8142160935752350e+06 
+5.2999999999999998e+00 -5.3756477329798957e-01 +7.3641067309966255e+00 -2.5023167623002729e-01 +8.6830088339208498e+00 -2.6019396259025899e+02 -9.7430673207337924e+04 -3.1662058856580388e+06 
+5.4000000000000004e+00 -5.3756483543902034e-01 +7.3640878513293080e+00 -2.5414159844241585e-01 +9.2321411791526273e+00 -1.8732887155643007e+02 -1.0016164954733766e+05 -3.5064436107730498e+06 
+5.5000000000000000e+00 -5.3756489009447694e-01 +7.3640712433328739e+00 -2.5826377261330496e-01 +9.7425133171089673e+00 -1.1487888516523995e+02 -1.0275811802587881e+05 -3.8320533159739762e+06 
+5.5999999999999996e+00 -5.3756493702770380e-01 +7.3640570996427632e+00 -2.6257400011415560e-01 +1.0209872704291641e+01 -4.3373169996261787e+01 -1.0520505495268905e+05 -4.1401593998493161e+06 
+5.7000000000000002e+00 -5.3756497600191333e-01 +7.3640456129013740e+00 -2.6704808083647963e-01 +1.0629966643366085e+01 +2.6659111554836514e+01 -1.0748743614558892e+05 -4.4278863612363990e+06 
+5.7999999999999998e+00 -5.3756500678048968e-01 +7.3640369757483306e+00 -2.7166181231243969e-01 +1.0998542588235033e+01 +9.4688781830997939e+01 -1.0959023877569679e+05 -4.6923586956825666e+06 
+5.9000000000000004e+00 -5.3756502912674486e-01 +7.3640313808297080e+00 -2.7639099010786577e-01 +1.1311347850984298e+01 +1.6018665921654298e+02 -1.1149843960894446e+05 -4.9307009621000625e+06 
+5.9999999999999902e+00 -5.3756504280413653e-01 +7.3640290207923158e+00 -2.8121141062968924e-01 +1.1564129785385250e+01 +2.2262361095931220e+02 -1.1319701610655303e+05 -5.1400380307557583e+06 
+6.0999999999999899e+00 -5.3756504771133362e-01 +7.3640300173683970e+00 -2.8610018962494632e-01 +1.1753954385911641e+01 +2.8158081399264358e+02 -1.1467526734039454e+05 -5.3182991067691566e+06 
+6.1999999999999904e+00 -5.3756504429206031e-01 +7.3640342225523874e+00 -2.9103639243222673e-01 +1.1882688517527473e+01 +3.3701893564259836e+02 -1.1593637088500697e+05 -5.4664202920608465e+06 
+6.2999999999999901e+00 -5.3756503312737502e-01 +7.3640414242687608e+00 -2.9599874368970364e-01 +1.1953280348659536e+01 +3.8897867737541310e+02 -1.1698608837209154e+05 -5.5860426515807314e+06 
+6.3999999999999897e+00 -5.3756501479825447e-01 +7.3640514104148487e+00 -3.0096597263913644e-01 +1.1968678747677359e+01 +4.3750081080380590e+02 -1.1783018483501792e+05 -5.6788075642524920e+06 
+6.4999999999999902e+00 -5.3756498988565493e-01 +7.3640639688860929e+00 -3.0591680257984488e-01 +1.1931832562661146e+01 +4.8262597962370484e+02 -1.1847442463049035e+05 -5.7463557808669647e+06 
+6.5999999999999899e+00 -5.3756495897058310e-01 +7.3640788875603480e+00 -3.1082996131019314e-01 +1.1845691064280460e+01 +5.2439489253653539e+02 -1.1892457395909721e+05 -5.7903283279992072e+06 
+6.6999999999999904e+00 -5.3756492263397027e-01 +7.3640959543002102e+00 -3.1568417376763885e-01 +1.1713203889882985e+01 +5.6284818392799241e+02 -1.1918640055139814e+05 -5.8123658459310196e+06 
+6.7999999999999901e+00 -5.3756488145672698e-01 +7.3641149569582920e+00 -3.2045816815829103e-01 +1.1537320875997979e+01 +5.9802652908596542e+02 -1.1926567264340406e+05 -5.8141091364907678e+06 
+6.8999999999999897e+00 -5.3756483601978866e-01 +7.3641356833696845e+00 -3.2513066668794227e-01 +1.1320992271796289e+01 +6.2997046514101976e+02 -1.1916816017941893e+05 -5.7971983024447709e+06 
+6.9999999999999902e+00 -5.3756478690405929e-01 +7.3641579213522732e+00 -3.2968039666373544e-01 +1.1067168734201260e+01 +6.5872060615270232e+02 -1.1889963477971833e+05 -5.7632737834160421e+06 
+7.0999999999999899e+00 -5.3756473469037702e-01 +7.3641814587107657e+00 -3.3408608339148615e-01 +1.0778801198216525e+01 +6.8431750128636986e+02 -1.1846586894029712e+05 -5.7139756643521255e+06 
+7.1999999999999904e+00 -5.3756467995960389e-01 +7.3642060832346656e+00 -3.3832645029835845e-01 +1.0458840937182995e+01 +7.0680164144472496e+02 -1.1787263636309364e+05 -5.6509437173615424e+06 
+7.2999999999999901e+00 -5.3756462329257104e-01 +7.3642315826907598e+00 -3.4238022426604020e-01 +1.0110239770723522e+01 +7.2621355456204935e+02 -1.1712571312270913e+05 -5.5758178421721896e+06 
+7.3999999999999897e+00 -5.3756456527004248e-01 +7.3642577448321846e+00 -3.4622612748661424e-01 +9.7359498124519295e+00 +7.4259365172085438e+02 -1.1623087621147164e+05 -5.4902373356951680e+06 
+7.4999999999999902e+00 -5.3756450647285170e-01 +7.3642843573937968e+00 -3.4984288704721656e-01 +9.3389235808157061e+00 +7.5598241084440372e+02 -1.1519390410357941e+05 -5.3958417715499150e+06 
+7.5999999999999899e+00 -5.3756444748168930e-01 +7.3643112080875950e+00 -3.5320922414907335e-01 +8.9221141385964948e+00 +7.6642016645807632e+02 -1.1402057756468270e+05 -5.2942699858880388e+06 
+7.6999999999999904e+00 -5.3756438887728231e-01 +7.3643380846131672e+00 -3.5630386549044163e-01 +8.4884747896446342e+00 +7.7394732906425634e+02 -1.1271667787644864e+05 -5.1871611307647889e+06 
+7.7999999999999901e+00 -5.3756433124035552e-01 +7.3643647746400296e+00 -3.5910553423737357e-01 +8.0409595713874378e+00 +7.7860420979213336e+02 -1.1128798961965680e+05 -5.0761538311060481e+06 
+7.8999999999999897e+00 -5.3756427515153993e-01 +7.3643910658250160e+00 -3.6159295486395532e-01 +7.5825227678242424e+00 +7.8043111124916493e+02 -1.0974029788107006e+05 -4.9628866120217862e+06 
+7.9999999999999902e+00 -5.3756422119148517e-01 +7.3644167458031546e+00 -3.6374485204458984e-01 +7.1161191444040348e+00 +7.7946830464679033e+02 -1.0807938958361624e+05 -4.8489977942907317e+06 
+8.0999999999999908e+00 -5.3756417002965629e-01 +7.3644416102717321e+00 -3.6554077799771606e-01 +6.6449176857525023e+00 +7.7569281054128749e+02 -1.0631389857839189e+05 -4.7355710918676425e+06 
+8.1999999999999904e+00 -5.3756412268138154e-01 +7.3644654840019967e+00 -3.6696541692732448e-01 +6.1734890223815428e+00 +7.6884174045358327e+02 -1.0446776703412914e+05 -4.6214309874405591e+06 
+8.2999999999999901e+00 -5.3756408024566915e-01 +7.3644881981234711e+00 -3.6800520893766053e-01 +5.7069006166924092e+00 +7.5859417634429883e+02 -1.0256983216088798e+05 -4.5048160146538392e+06 
+8.3999999999999897e+00 -5.3756404382151768e-01 +7.3645095837589603e+00 -3.6864659738183897e-01 +5.2502201916930673e+00 +7.4462923694201095e+02 -1.0064893295116183e+05 -4.3839647872233642e+06 
+8.4999999999999893e+00 -5.3756401450787095e-01 +7.3645294720290471e+00 -3.6887603548070813e-01 +4.8085155604202363e+00 +7.2662621374208641e+02 -9.8733909081038481e+04 -4.2571166767245503e+06 
+8.5999999999999908e+00 -5.3756399340359629e-01 +7.3645476940468200e+00 -3.6867997739587915e-01 +4.3868547907731585e+00 +7.0426439209505634e+02 -9.6853601894723077e+04 -4.1225109368434502e+06 
+8.6999999999999904e+00 -5.3756398160754204e-01 +7.3645640809220296e+00 -3.6804488320942680e-01 +3.9903060676543074e+00 +6.7722315901055208e+02 -9.5036853577373084e+04 -3.9783872495363834e+06 
+8.7999999999999794e+00 -5.3756398021849150e-01 +7.3645784637607923e+00 -3.6695721935575004e-01 +3.6239377184421326e+00 +6.4518199814525087e+02 -9.3312507341479533e+04 -3.8229856666558394e+06 
+8.8999999999999808e+00 -5.3756399033520252e-01 +7.3645906736624642e+00 -3.6540345815092923e-01 +3.2928183009055174e+00 +6.0782048738535661e+02 -9.1709407941900703e+04 -3.6545466129628904e+06 
+8.9999999999999805e+00 -5.3756401305633605e-01 +7.3646005417236209e+00 -3.6337007635689689e-01 +3.0020164818701298e+00 +5.6481826973909074e+02 -9.0256400960118539e+04 -3.4713107431738041e+06 
+9.0999999999999801e+00 -5.3756404948051251e-01 +7.3646078990366313e+00 -3.6084355809154522e-01 +2.7566010890809203e+00 +5.1585510702312365e+02 -8.8982333138072732e+04 -3.2715191917109075e+06 
+9.1999999999999797e+00 -5.3756410070629612e-01 +7.3646125766858797e+00 -3.5781039355839478e-01 +2.5616412198483811e+00 +4.6061085666938817e+02 -8.7916053009485986e+04 -3.0534134641431016e+06 
+9.2999999999999794e+00 -5.3756416783222660e-01 +7.3646144057543586e+00 -3.5425707836011677e-01 +2.4222060500210407e+00 +3.9876545781335676e+02 -8.7086409802978073e+04 -2.8152353677660464e+06 
+9.3999999999999808e+00 -5.3756425195671698e-01 +7.3646132173189978e+00 -3.5017011619148702e-01 +2.3433649654060242e+00 +3.2999898231583040e+02 -8.6522254193074332e+04 -2.5552272532840162e+06 
+9.4999999999999805e+00 -5.3756435417817561e-01 +7.3646088424518723e+00 -3.4553601352890712e-01 +2.3301875375760117e+00 +2.5399153134489831e+02 -8.6252438197336902e+04 -2.2716315142295058e+06 
+9.5999999999999801e+00 -5.3756447559491127e-01 +7.3646011122228430e+00 -3.4034128837956262e-01 +2.3877434433700251e+00 +1.7042340513947124e+02 -8.6305814705806042e+04 -1.9626914052160766e+06 
+9.6999999999999797e+00 -5.3756461730521943e-01 +7.3645898576914313e+00 -3.3457246279229513e-01 +2.5211026962922767e+00 +7.8974956990298480e+01 -8.6711238811255884e+04 -1.6266503332441729e+06 
+9.7999999999999794e+00 -5.3756478040727684e-01 +7.3645749099173479e+00 -3.2821606576050461e-01 +2.7353353603867139e+00 -2.0673351179928627e+01 -8.7497566214590726e+04 -1.2617521249628176e+06 
+9.8999999999999808e+00 -5.3756496599920456e-01 +7.3645560999529200e+00 -3.2125863536966914e-01 +3.0355117481422607e+00 -1.2884090783847697e+02 -8.8693654317390596e+04 -8.6624122157678311e+05 
+9.9999999999999805e+00 -5.3756517517908886e-01 +7.3645332588493586e+00 -3.1368671663079861e-01 +3.4267022615598250e+00 -2.4584699186745760e+02 -9.0328361152962170e+04 -4.3836246989574179e+05 
+1.0100000000000000e+01 -5.3756540872204328e-01 +7.3645063255204501e+00 -3.0549809225638436e-01 +3.9114904545807647e+00 -3.7183267022021789e+02 -9.2417848908062952e+04 +2.2956236573795875e+04 
