# trajectory
# s[mm] rx[mm] ry[mm] rz[mm] px[rad] py[rad] pz[rad]
0.0000000000000000e+00 +8.1649999999999991e+00 +0.0000000000000000e+00 +0.0000000000000000e+00 +0.0000000000000000e+00 +0.0000000000000000e+00 +1.0000000000000000e+00
-1.0000000000000001e-01 +8.1649997170147834e+00 +0.0000000000000000e+00 -9.9999999999466141e-02 +5.6597042922814725e-06 +0.0000000000000000e+00 +9.9999999998398392e-01
-2.0000000000000001e-01 +8.1649988680591488e+00 +0.0000000000000000e+00 -1.9999999999572904e-01 +1.1319408391099985e-05 +0.0000000000000000e+00 +9.9999999993593558e-01
-3.0000000000000004e-01 +8.1649974531331111e+00 +0.0000000000000000e+00 -2.9999999998558546e-01 +1.6979112358916558e-05 +0.0000000000000000e+00 +9.9999999985585497e-01
-4.0000000000000002e-01 +8.1649954722366793e+00 +0.0000000000000000e+00 -3.9999999996583224e-01 +2.2638816260817953e-05 +0.0000000000000000e+00 +9.9999999974374210e-01
-5.0000000000000000e-01 +8.1649929253698588e+00 +0.0000000000000000e+00 -4.9999999993326610e-01 +2.8298520164516710e-05 +0.0000000000000000e+00 +9.9999999959959696e-01
-5.9999999999999998e-01 +8.1649898125326441e+00 +0.0000000000000000e+00 -5.9999999988468389e-01 +3.3958224140351234e-05 +0.0000000000000000e+00 +9.9999999942341955e-01
-6.9999999999999996e-01 +8.1649861337250247e+00 +0.0000000000000000e+00 -6.9999999981688232e-01 +3.9617928261285807e-05 +0.0000000000000000e+00 +9.9999999921520988e-01
-7.9999999999999993e-01 +8.1649818889469845e+00 +0.0000000000000000e+00 -7.9999999972665814e-01 +4.5277632602910648e-05 +0.0000000000000000e+00 +9.9999999897496794e-01
-8.9999999999999991e-01 +8.1649770781984952e+00 +0.0000000000000000e+00 -8.9999999961080812e-01 +5.0937337243441916e-05 +0.0000000000000000e+00 +9.9999999870269374e-01
-9.9999999999999989e-01 +8.1649717014795229e+00 +0.0000000000000000e+00 -9.9999999946612905e-01 +5.6597042263721738e-05 +0.0000000000000000e+00 +9.9999999839838727e-01
-1.0999999999999999e+00 +8.1649657587900268e+00 +0.0000000000000000e+00 -1.0999999992894178e+00 +6.2256747747218197e-05 +0.0000000000000000e+00 +9.9999999806204853e-01
-1.2000000000000000e+00 +8.1649592501299555e+00 +0.0000000000000000e+00 -1.1999999990774710e+00 +6.7916453780025334e-05 +0.0000000000000000e+00 +9.9999999769367753e-01
-1.3000000000000000e+00 +8.1649521754992502e+00 +0.0000000000000000e+00 -1.2999999988270856e+00 +7.3576160450863115e-05 +0.0000000000000000e+00 +9.9999999729327416e-01
-1.4000000000000001e+00 +8.1649445348978418e+00 +0.0000000000000000e+00 -1.3999999985350582e+00 +7.9235867851077402e-05 +0.0000000000000000e+00 +9.9999999686083851e-01
-1.5000000000000002e+00 +8.1649363283256520e+00 +0.0000000000000000e+00 -1.4999999981981855e+00 +8.4895576074639942e-05 +0.0000000000000000e+00 +9.9999999639637049e-01
-1.6000000000000003e+00 +8.1649275557825955e+00 +0.0000000000000000e+00 -1.5999999978132644e+00 +9.0555285218148256e-05 +0.0000000000000000e+00 +9.9999999589987010e-01
-1.7000000000000004e+00 +8.1649182172685748e+00 +0.0000000000000000e+00 -1.6999999973770916e+00 +9.6214995380825653e-05 +0.0000000000000000e+00 +9.9999999537133721e-01
-1.8000000000000005e+00 +8.1649083127834832e+00 +0.0000000000000000e+00 -1.7999999968864639e+00 +1.0187470666452108e-04 +0.0000000000000000e+00 +9.9999999481077195e-01
-1.9000000000000006e+00 +8.1648978423272016e+00 +0.0000000000000000e+00 -1.8999999963381782e+00 +1.0753441917370909e-04 +0.0000000000000000e+00 +9.9999999421817420e-01
-2.0000000000000004e+00 +8.1648868058996040e+00 +0.0000000000000000e+00 -1.9999999957290311e+00 +1.1319413301548974e-04 +0.0000000000000000e+00 +9.9999999359354397e-01
-2.1000000000000005e+00 +8.1648752035005501e+00 +0.0000000000000000e+00 -2.0999999950558195e+00 +1.1885384829908431e-04 +0.0000000000000000e+00 +9.9999999293688124e-01
-2.2000000000000006e+00 +8.1648630351298923e+00 +0.0000000000000000e+00 -2.1999999943153399e+00 +1.2451356513028958e-04 +0.0000000000000000e+00 +9.9999999224818592e-01
-2.3000000000000007e+00 +8.1648503007874691e+00 +0.0000000000000000e+00 -2.2999999935043891e+00 +1.3017328360593204e-04 +0.0000000000000000e+00 +9.9999999152745800e-01
-2.4000000000000008e+00 +8.1648370004731134e+00 +0.0000000000000000e+00 -2.3999999926197639e+00 +1.3583300381336369e-04 +0.0000000000000000e+00 +9.9999999077469737e-01
-2.5000000000000009e+00 +8.1648231341866460e+00 +0.0000000000000000e+00 -2.4999999916582611e+00 +1.4149272583046204e-04 +0.0000000000000000e+00 +9.9999998998990414e-01
-2.6000000000000010e+00 +8.1648087019278837e+00 +0.0000000000000000e+00 -2.5999999906166771e+00 +1.4715244972562992e-04 +0.0000000000000000e+00 +9.9999998917307809e-01
-2.7000000000000011e+00 +8.1647937036966365e+00 +0.0000000000000000e+00 -2.6999999894918090e+00 +1.5281217555779554e-04 +0.0000000000000000e+00 +9.9999998832421932e-01
-2.8000000000000012e+00 +8.1647781394927073e+00 +0.0000000000000000e+00 -2.7999999882804532e+00 +1.5847190337641231e-04 +0.0000000000000000e+00 +9.9999998744332774e-01
-2.9000000000000012e+00 +8.1647620093158952e+00 +0.0000000000000000e+00 -2.8999999869794069e+00 +1.6413163322145881e-04 +0.0000000000000000e+00 +9.9999998653040334e-01
-3.0000000000000013e+00 +8.1647453131659944e+00 +0.0000000000000000e+00 -2.9999999855854664e+00 +1.6979136512343875e-04 +0.0000000000000000e+00 +9.9999998558544601e-01
-3.1000000000000014e+00 +8.1647280510428004e+00 +0.0000000000000000e+00 -3.0999999840954287e+00 +1.7545109910338083e-04 +0.0000000000000000e+00 +9.9999998460845574e-01
-3.2000000000000015e+00 +8.1647102229461037e+00 +0.0000000000000000e+00 -3.1999999825060899e+00 +1.8111083517283866e-04 +0.0000000000000000e+00 +9.9999998359943254e-01
-3.3000000000000016e+00 +8.1646918288756964e+00 +0.0000000000000000e+00 -3.2999999808142473e+00 +1.8677057333389070e-04 +0.0000000000000000e+00 +9.9999998255837630e-01
-3.4000000000000017e+00 +8.1646728688313672e+00 +0.0000000000000000e+00 -3.3999999790166973e+00 +1.9243031357914019e-04 +0.0000000000000000e+00 +9.9999998148528702e-01
-3.5000000000000018e+00 +8.1646533428129100e+00 +0.0000000000000000e+00 -3.4999999771102366e+00 +1.9809005589171497e-04 +0.0000000000000000e+00 +9.9999998038016469e-01
-3.6000000000000019e+00 +8.1646332508201205e+00 +0.0000000000000000e+00 -3.5999999750916620e+00 +2.0374980024526752e-04 +0.0000000000000000e+00 +9.9999997924300921e-01
-3.7000000000000020e+00 +8.1646125928527944e+00 +0.0000000000000000e+00 -3.6999999729577704e+00 +2.0940954660397470e-04 +0.0000000000000000e+00 +9.9999997807382057e-01
-3.8000000000000020e+00 +8.1645913689107346e+00 +0.0000000000000000e+00 -3.7999999707053584e+00 +2.1506929492253780e-04 +0.0000000000000000e+00 +9.9999997687259889e-01
-3.9000000000000021e+00 +8.1645695789937474e+00 +0.0000000000000000e+00 -3.8999999683312225e+00 +2.2072904514618236e-04 +0.0000000000000000e+00 +9.9999997563934395e-01
-4.0000000000000018e+00 +8.1645472231016445e+00 +0.0000000000000000e+00 -3.9999999658321594e+00 +2.2638879721065806e-04 +0.0000000000000000e+00 +9.9999997437405586e-01
-4.1000000000000014e+00 +8.1645243012342466e+00 +0.0000000000000000e+00 -4.0999999632049660e+00 +2.3204855104295199e-04 +0.0000000000000000e+00 +9.9999997307673461e-01
-4.2000000000000011e+00 +8.1645008133913795e+00 +0.0000000000000000e+00 -4.1999999604464389e+00 +2.3770830656913563e-04 +0.0000000000000000e+00 +9.9999997174738009e-01
-4.3000000000000007e+00 +8.1644767595728780e+00 +0.0000000000000000e+00 -4.2999999575533741e+00 +2.4336806372221204e-04 +0.0000000000000000e+00 +9.9999997038599231e-01
-4.4000000000000004e+00 +8.1644521397785823e+00 +0.0000000000000000e+00 -4.3999999545225688e+00 +2.4902782244282947e-04 +0.0000000000000000e+00 +9.9999996899257126e-01
-4.5000000000000000e+00 +8.1644269540083378e+00 +0.0000000000000000e+00 -4.4999999513508202e+00 +2.5468758267928169e-04 +0.0000000000000000e+00 +9.9999996756711695e-01
-4.5999999999999996e+00 +8.1644012022619972e+00 +0.0000000000000000e+00 -4.5999999480349247e+00 +2.6034734438750822e-04 +0.0000000000000000e+00 +9.9999996610962938e-01
-4.6999999999999993e+00 +8.1643748845394128e+00 +0.0000000000000000e+00 -4.6999999445716787e+00 +2.6600710753109472e-04 +0.0000000000000000e+00 +9.9999996462010854e-01
-4.7999999999999989e+00 +8.1643480008404445e+00 +0.0000000000000000e+00 -4.7999999409578784e+00 +2.7166687208127324e-04 +0.0000000000000000e+00 +9.9999996309855443e-01
-4.8999999999999986e+00 +8.1643205511649519e+00 +0.0000000000000000e+00 -4.8999999371903211e+00 +2.7732663801692271e-04 +0.0000000000000000e+00 +9.9999996154496695e-01
-4.9999999999999982e+00 +8.1642925355127964e+00 +0.0000000000000000e+00 -4.9999999332658041e+00 +2.8298640532456925e-04 +0.0000000000000000e+00 +9.9999995995934621e-01
-5.0999999999999979e+00 +8.1642639538838413e+00 +0.0000000000000000e+00 -5.0999999291811227e+00 +2.8864617399838654e-04 +0.0000000000000000e+00 +9.9999995834169209e-01
-5.1999999999999975e+00 +8.1642348062779515e+00 +0.0000000000000000e+00 -5.1999999249330742e+00 +2.9430594404019624e-04 +0.0000000000000000e+00 +9.9999995669200459e-01
-5.2999999999999972e+00 +8.1642050926949885e+00 +0.0000000000000000e+00 -5.2999999205184558e+00 +2.9996571545946854e-04 +0.0000000000000000e+00 +9.9999995501028360e-01
-5.3999999999999968e+00 +8.1641748131348137e+00 +0.0000000000000000e+00 -5.3999999159340630e+00 +3.0562548827332251e-04 +0.0000000000000000e+00 +9.9999995329652924e-01
-5.4999999999999964e+00 +8.1641439675972869e+00 +0.0000000000000000e+00 -5.4999999111766931e+00 +3.1128526250652651e-04 +0.0000000000000000e+00 +9.9999995155074139e-01
-5.5999999999999961e+00 +8.1641125560822640e+00 +0.0000000000000000e+00 -5.5999999062431431e+00 +3.1694503819149896e-04 +0.0000000000000000e+00 +9.9999994977292006e-01
-5.6999999999999957e+00 +8.1640805785895978e+00 +0.0000000000000000e+00 -5.6999999011302096e+00 +3.2260481536830851e-04 +0.0000000000000000e+00 +9.9999994796306513e-01
-5.7999999999999954e+00 +8.1640480351191389e+00 +0.0000000000000000e+00 -5.7999998958346888e+00 +3.2826459408467478e-04 +0.0000000000000000e+00 +9.9999994612117660e-01
-5.8999999999999950e+00 +8.1640149256707293e+00 +0.0000000000000000e+00 -5.8999998903533770e+00 +3.3392437439596885e-04 +0.0000000000000000e+00 +9.9999994424725447e-01
-5.9999999999999947e+00 +8.1639812502442055e+00 +0.0000000000000000e+00 -5.9999998846830715e+00 +3.3958415636521394e-04 +0.0000000000000000e+00 +9.9999994234129863e-01
-6.0999999999999943e+00 +8.1639470088393988e+00 +0.0000000000000000e+00 -6.0999998788205687e+00 +3.4524394006278604e-04 +0.0000000000000000e+00 +9.9999994040330908e-01
-6.1999999999999940e+00 +8.1639122014561334e+00 +0.0000000000000000e+00 -6.1999998727626657e+00 +3.5090372556311757e-04 +0.0000000000000000e+00 +9.9999993843328572e-01
-6.2999999999999936e+00 +8.1638768280942244e+00 +0.0000000000000000e+00 -6.2999998665061581e+00 +3.5656351294140014e-04 +0.0000000000000000e+00 +9.9999993643122853e-01
-6.3999999999999932e+00 +8.1638408887534801e+00 +0.0000000000000000e+00 -6.3999998600478429e+00 +3.6222330227328459e-04 +0.0000000000000000e+00 +9.9999993439713741e-01
-6.4999999999999929e+00 +8.1638043834337015e+00 +0.0000000000000000e+00 -6.4999998533845176e+00 +3.6788309363488077e-04 +0.0000000000000000e+00 +9.9999993233101236e-01
-6.5999999999999925e+00 +8.1637673121346825e+00 +0.0000000000000000e+00 -6.5999998465129774e+00 +3.7354288710275717e-04 +0.0000000000000000e+00 +9.9999993023285327e-01
-6.6999999999999922e+00 +8.1637296748562083e+00 +0.0000000000000000e+00 -6.6999998394300198e+00 +3.7920268275394049e-04 +0.0000000000000000e+00 +9.9999992810266003e-01
-6.7999999999999918e+00 +8.1636914715980566e+00 +0.0000000000000000e+00 -6.7999998321324417e+00 +3.8486248066591547e-04 +0.0000000000000000e+00 +9.9999992594043263e-01
-6.8999999999999915e+00 +8.1636527023599967e+00 +0.0000000000000000e+00 -6.8999998246170389e+00 +3.9052228091662435e-04 +0.0000000000000000e+00 +9.9999992374617108e-01
-6.9999999999999911e+00 +8.1636133671417923e+00 +0.0000000000000000e+00 -6.9999998168806083e+00 +3.9618208358446663e-04 +0.0000000000000000e+00 +9.9999992151987516e-01
-7.0999999999999908e+00 +8.1635734659431964e+00 +0.0000000000000000e+00 -7.0999998089199465e+00 +4.0184188874829854e-04 +0.0000000000000000e+00 +9.9999991926154486e-01
-7.1999999999999904e+00 +8.1635329987639569e+00 +0.0000000000000000e+00 -7.1999998007318498e+00 +4.0750169648743267e-04 +0.0000000000000000e+00 +9.9999991697118007e-01
-7.2999999999999901e+00 +8.1634919656038107e+00 +0.0000000000000000e+00 -7.2999997923131144e+00 +4.1316150688163763e-04 +0.0000000000000000e+00 +9.9999991464878080e-01
-7.3999999999999897e+00 +8.1634503664624898e+00 +0.0000000000000000e+00 -7.3999997836605376e+00 +4.1882132001113748e-04 +0.0000000000000000e+00 +9.9999991229434693e-01
-7.4999999999999893e+00 +8.1634082013397151e+00 +0.0000000000000000e+00 -7.4999997747709157e+00 +4.2448113595661119e-04 +0.0000000000000000e+00 +9.9999990990787835e-01
-7.5999999999999890e+00 +8.1633654702352025e+00 +0.0000000000000000e+00 -7.5999997656410452e+00 +4.3014095479919237e-04 +0.0000000000000000e+00 +9.9999990748937506e-01
-7.6999999999999886e+00 +8.1633221731486572e+00 +0.0000000000000000e+00 -7.6999997562677231e+00 +4.3580077662046853e-04 +0.0000000000000000e+00 +9.9999990503883684e-01
-7.7999999999999883e+00 +8.1632783100797770e+00 +0.0000000000000000e+00 -7.7999997466477451e+00 +4.4146060150248076e-04 +0.0000000000000000e+00 +9.9999990255626370e-01
-7.8999999999999879e+00 +8.1632338810282512e+00 +0.0000000000000000e+00 -7.8999997367779082e+00 +4.4712042952772303e-04 +0.0000000000000000e+00 +9.9999990004165551e-01
-7.9999999999999876e+00 +8.1631888859937636e+00 +0.0000000000000000e+00 -7.9999997266550089e+00 +4.5278026077914173e-04 +0.0000000000000000e+00 +9.9999989749501228e-01
-8.0999999999999872e+00 +8.1631433249759855e+00 +0.0000000000000000e+00 -8.0999997162758426e+00 +4.5844009534008268e-04 +0.0000000000000000e+00 +9.9999989491633379e-01
-8.1999999999999869e+00 +8.1630971979745830e+00 +0.0000000000000000e+00 -8.1999997056372074e+00 +4.6409993329371568e-04 +0.0000000000000000e+00 +9.9999989230562003e-01
-8.2999999999999865e+00 +8.1630505049892115e+00 +0.0000000000000000e+00 -8.2999996947358987e+00 +4.6975977472245919e-04 +0.0000000000000000e+00 +9.9999988966287079e-01
-8.3999999999999861e+00 +8.1630032460195192e+00 +0.0000000000000000e+00 -8.3999996835687138e+00 +4.7541961970792840e-04 +0.0000000000000000e+00 +9.9999988698808606e-01
-8.4999999999999858e+00 +8.1629554210651474e+00 +0.0000000000000000e+00 -8.4999996721324482e+00 +4.8107946833093570e-04 +0.0000000000000000e+00 +9.9999988428126574e-01
-8.5999999999999854e+00 +8.1629070301257283e+00 +0.0000000000000000e+00 -8.5999996604238991e+00 +4.8673932067149102e-04 +0.0000000000000000e+00 +9.9999988154240971e-01
-8.6999999999999851e+00 +8.1628580732008871e+00 +0.0000000000000000e+00 -8.6999996484398618e+00 +4.9239917680880222e-04 +0.0000000000000000e+00 +9.9999987877151786e-01
-8.7999999999999847e+00 +8.1628085502902383e+00 +0.0000000000000000e+00 -8.7999996361771338e+00 +4.9805903682127554e-04 +0.0000000000000000e+00 +9.9999987596859008e-01
-8.8999999999999844e+00 +8.1627584613933912e+00 +0.0000000000000000e+00 -8.8999996236325121e+00 +5.0371890078651602e-04 +0.0000000000000000e+00 +9.9999987313362626e-01
-8.9999999999999840e+00 +8.1627078065099461e+00 +0.0000000000000000e+00 -8.9999996108027922e+00 +5.0937876878132777e-04 +0.0000000000000000e+00 +9.9999987026662640e-01
-9.0999999999999837e+00 +8.1626565856394979e+00 +0.0000000000000000e+00 -9.0999995976847696e+00 +5.1503864088171467e-04 +0.0000000000000000e+00 +9.9999986736759028e-01
-9.1999999999999833e+00 +8.1626047987816310e+00 +0.0000000000000000e+00 -9.1999995842752416e+00 +5.2069851716288076e-04 +0.0000000000000000e+00 +9.9999986443651778e-01
-9.2999999999999829e+00 +8.1625524459359244e+00 +0.0000000000000000e+00 -9.2999995705710052e+00 +5.2635839769923063e-04 +0.0000000000000000e+00 +9.9999986147340880e-01
-9.3999999999999826e+00 +8.1624995271019483e+00 +0.0000000000000000e+00 -9.3999995565688561e+00 +5.3201828256437000e-04 +0.0000000000000000e+00 +9.9999985847826334e-01
-9.4999999999999822e+00 +8.1624460422792655e+00 +0.0000000000000000e+00 -9.4999995422655896e+00 +5.3767817183110608e-04 +0.0000000000000000e+00 +9.9999985545108117e-01
-9.5999999999999819e+00 +8.1623919914674321e+00 +0.0000000000000000e+00 -9.5999995276580030e+00 +5.4333806557144832e-04 +0.0000000000000000e+00 +9.9999985239186218e-01
-9.6999999999999815e+00 +8.1623373746659986e+00 +0.0000000000000000e+00 -9.6999995127428935e+00 +5.4899796385660875e-04 +0.0000000000000000e+00 +9.9999984930060626e-01
-9.7999999999999812e+00 +8.1622821918745068e+00 +0.0000000000000000e+00 -9.7999994975170566e+00 +5.5465786675700250e-04 +0.0000000000000000e+00 +9.9999984617731341e-01
-9.8999999999999808e+00 +8.1622264430924911e+00 +0.0000000000000000e+00 -9.8999994819772876e+00 +5.6031777434224837e-04 +0.0000000000000000e+00 +9.9999984302198341e-01
-9.9999999999999805e+00 +8.1621701283194792e+00 +0.0000000000000000e+00 -9.9999994661203839e+00 +5.6597768668116956e-04 +0.0000000000000000e+00 +9.9999983983461616e-01
-1.0099999999999980e+01 +8.1621132475549931e+00 +0.0000000000000000e+00 -1.0099999449943143e+01 +5.7163760384158042e-04 +0.0000000000000000e+00 +9.9999983661521152e-01
-1.0199999999999980e+01 +8.1620558007985480e+00 +0.0000000000000000e+00 -1.0199999433442359e+01 +5.7729752588793698e-04 +0.0000000000000000e+00 +9.9999983336376930e-01
-1.0299999999999979e+01 +8.1619977880496517e+00 +0.0000000000000000e+00 -1.0299999416614829e+01 +5.8295745287898675e-04 +0.0000000000000000e+00 +9.9999983008028948e-01
-1.0399999999999979e+01 +8.1619392093078069e+00 +0.0000000000000000e+00 -1.0399999399457350e+01 +5.8861738486755443e-04 +0.0000000000000000e+00 +9.9999982676477195e-01
-1.0499999999999979e+01 +8.1618800645725109e+00 +0.0000000000000000e+00 -1.0499999381966717e+01 +5.9427732190054066e-04 +0.0000000000000000e+00 +9.9999982341721660e-01
-1.0599999999999978e+01 +8.1618203538432574e+00 +0.0000000000000000e+00 -1.0599999364139725e+01 +5.9993726401892146e-04 +0.0000000000000000e+00 +9.9999982003762333e-01
-1.0699999999999978e+01 +8.1617600771195367e+00 +0.0000000000000000e+00 -1.0699999345973172e+01 +6.0559721125774723e-04 +0.0000000000000000e+00 +9.9999981662599191e-01
-1.0799999999999978e+01 +8.1616992344008352e+00 +0.0000000000000000e+00 -1.0799999327463855e+01 +6.1125716364614203e-04 +0.0000000000000000e+00 +9.9999981318232234e-01
-1.0899999999999977e+01 +8.1616378256866362e+00 +0.0000000000000000e+00 -1.0899999308608569e+01 +6.1691712120730225e-04 +0.0000000000000000e+00 +9.9999980970661451e-01
-1.0999999999999977e+01 +8.1615758509764209e+00 +0.0000000000000000e+00 -1.0999999289404110e+01 +6.2257708395849600e-04 +0.0000000000000000e+00 +9.9999980619886830e-01
-1.1099999999999977e+01 +8.1615133102696706e+00 +0.0000000000000000e+00 -1.1099999269847276e+01 +6.2823705191106206e-04 +0.0000000000000000e+00 +9.9999980265908361e-01
-1.1199999999999976e+01 +8.1614502035658649e+00 +0.0000000000000000e+00 -1.1199999249934860e+01 +6.3389702507040866e-04 +0.0000000000000000e+00 +9.9999979908726044e-01
-1.1299999999999976e+01 +8.1613865308644833e+00 +0.0000000000000000e+00 -1.1299999229663660e+01 +6.3955700343601267e-04 +0.0000000000000000e+00 +9.9999979548339857e-01
-1.1399999999999975e+01 +8.1613222921650053e+00 +0.0000000000000000e+00 -1.1399999209030472e+01 +6.4521698700141853e-04 +0.0000000000000000e+00 +9.9999979184749799e-01
-1.1499999999999975e+01 +8.1612574874669104e+00 +0.0000000000000000e+00 -1.1499999188032092e+01 +6.5087697575423717e-04 +0.0000000000000000e+00 +9.9999978817955859e-01
-1.1599999999999975e+01 +8.1611921167696817e+00 +0.0000000000000000e+00 -1.1599999166665317e+01 +6.5653696967614482e-04 +0.0000000000000000e+00 +9.9999978447958027e-01
-1.1699999999999974e+01 +8.1611261800728041e+00 +0.0000000000000000e+00 -1.1699999144926942e+01 +6.6219696874288191e-04 +0.0000000000000000e+00 +9.9999978074756302e-01
