# field on trajectory
# s[mm] rx[mm] ry[mm] rz[mm] bx[T] by[T] bz[T]
0.0000000000000000e+00 +8.1649999999999991e+00 +0.0000000000000000e+00 +0.0000000000000000e+00 -2.8147904754331977e-02 -5.3692607890425526e-01 +5.3632147674073927e-03
1.0000000000000001e-01 +8.1649997168708790e+00 +0.0000000000000000e+00 +9.9999999999465586e-02 -2.8147923766718350e-02 -5.3692566273859832e-01 +5.3632066613778185e-03
2.0000000000000001e-01 +8.1649988674838063e+00 +0.0000000000000000e+00 +1.9999999999572471e-01 -2.8147949432478458e-02 -5.3692526312065147e-01 +5.3631986669588167e-03
3.0000000000000004e-01 +8.1649974518392039e+00 +0.0000000000000000e+00 +2.9999999998557086e-01 -2.8147981866152753e-02 -5.3692487939219580e-01 +5.3631908241986853e-03
4.0000000000000002e-01 +8.1649954699374749e+00 +0.0000000000000000e+00 +3.9999999996579760e-01 -2.8148021182285151e-02 -5.3692451089500870e-01 +5.3631831731440673e-03
5.0000000000000000e-01 +8.1649929217790103e+00 +0.0000000000000000e+00 +4.9999999993319844e-01 -2.8148067495422233e-02 -5.3692415697086793e-01 +5.3631757538405260e-03
5.9999999999999998e-01 +8.1649898073641811e+00 +0.0000000000000000e+00 +5.9999999988456698e-01 -2.8148120920112193e-02 -5.3692381696155056e-01 +5.3631686063331432e-03
6.9999999999999996e-01 +8.1649861266933481e+00 +0.0000000000000000e+00 +6.9999999981669669e-01 -2.8148181570903919e-02 -5.3692349020883501e-01 +5.3631617706670701e-03
7.9999999999999993e-01 +8.1649818797668541e+00 +0.0000000000000000e+00 +7.9999999972638114e-01 -2.8148249562346052e-02 -5.3692317605450168e-01 +5.3631552868881275e-03
8.9999999999999991e-01 +8.1649770665850330e+00 +0.0000000000000000e+00 +8.9999999961041399e-01 -2.8148325008986026e-02 -5.3692287384033399e-01 +5.3631491950433801e-03
9.9999999999999989e-01 +8.1649716871482010e+00 +0.0000000000000000e+00 +9.9999999946558871e-01 -2.8148408025369109e-02 -5.3692258290811901e-01 +5.3631435351817053e-03
1.0999999999999999e+00 +8.1649657414566672e+00 +0.0000000000000000e+00 +1.0999999992886988e+00 -2.8148498726037481e-02 -5.3692230259964890e-01 +5.3631383473543874e-03
1.2000000000000000e+00 +8.1649592295107265e+00 +0.0000000000000000e+00 +1.1999999990765380e+00 -2.8148597225529270e-02 -5.3692203225672186e-01 +5.3631336716156832e-03
1.3000000000000000e+00 +8.1649521513106649e+00 +0.0000000000000000e+00 +1.2999999988258999e+00 -2.8148703638377567e-02 -5.3692177122114293e-01 +5.3631295480234056e-03
1.4000000000000001e+00 +8.1649445068567577e+00 +0.0000000000000000e+00 +1.3999999985335778e+00 -2.8148818079109555e-02 -5.3692151883472472e-01 +5.3631260166395094e-03
1.5000000000000002e+00 +8.1649362961492713e+00 +0.0000000000000000e+00 +1.4999999981963656e+00 -2.8148940662245478e-02 -5.3692127443928928e-01 +5.3631231175306545e-03
1.6000000000000003e+00 +8.1649275191884652e+00 +0.0000000000000000e+00 +1.5999999978110568e+00 -2.8149071502297732e-02 -5.3692103737666763e-01 +5.3631208907687963e-03
1.7000000000000004e+00 +8.1649181759745879e+00 +0.0000000000000000e+00 +1.6999999973744451e+00 -2.8149210713769929e-02 -5.3692080698870270e-01 +5.3631193764317690e-03
1.8000000000000005e+00 +8.1649082665078829e+00 +0.0000000000000000e+00 +1.7999999968833238e+00 -2.8149358411155883e-02 -5.3692058261724773e-01 +5.3631186146038488e-03
1.9000000000000006e+00 +8.1648977907885882e+00 +0.0000000000000000e+00 +1.8999999963344867e+00 -2.8149514708938755e-02 -5.3692036360417084e-01 +5.3631186453763418e-03
2.0000000000000004e+00 +8.1648867488169348e+00 +0.0000000000000000e+00 +1.9999999957247274e+00 -2.8149679721589986e-02 -5.3692014929135157e-01 +5.3631195088481671e-03
2.1000000000000005e+00 +8.1648751405931481e+00 +0.0000000000000000e+00 +2.0999999950508395e+00 -2.8149853329472386e-02 -5.3691993905663349e-01 +5.3631212606617042e-03
2.2000000000000006e+00 +8.1648629661174503e+00 +0.0000000000000000e+00 +2.1999999943096165e+00 -2.8150034476553148e-02 -5.3691973242166469e-01 +5.3631240186058976e-03
2.3000000000000007e+00 +8.1648502253900617e+00 +0.0000000000000000e+00 +2.2999999934978521e+00 -2.8150221872695343e-02 -5.3691952894405348e-01 +5.3631279160045765e-03
2.4000000000000008e+00 +8.1648369184111953e+00 +0.0000000000000000e+00 +2.3999999926123401e+00 -2.8150414227754463e-02 -5.3691932818142085e-01 +5.3631330861797994e-03
2.5000000000000009e+00 +8.1648230451810644e+00 +0.0000000000000000e+00 +2.4999999916498741e+00 -2.8150610251578195e-02 -5.3691912969140065e-01 +5.3631396624512721e-03
2.6000000000000010e+00 +8.1648086056998785e+00 +0.0000000000000000e+00 +2.5999999906072473e+00 -2.8150808654006258e-02 -5.3691893303163984e-01 +5.3631477781357472e-03
2.7000000000000011e+00 +8.1647935999678456e+00 +0.0000000000000000e+00 +2.6999999894812539e+00 -2.8151008144870263e-02 -5.3691873775979926e-01 +5.3631575665464368e-03
2.8000000000000012e+00 +8.1647780279851716e+00 +0.0000000000000000e+00 +2.7999999882686870e+00 -2.8151207433993582e-02 -5.3691854343355450e-01 +5.3631691609924330e-03
2.9000000000000012e+00 +8.1647618897520626e+00 +0.0000000000000000e+00 +2.8999999869663404e+00 -2.8151405231191081e-02 -5.3691834961059570e-01 +5.3631826947780955e-03
3.0000000000000013e+00 +8.1647451852687229e+00 +0.0000000000000000e+00 +2.9999999855710082e+00 -2.8151600246269042e-02 -5.3691815584862790e-01 +5.3631983012024809e-03
3.1000000000000014e+00 +8.1647279145353586e+00 +0.0000000000000000e+00 +3.0999999840794836e+00 -2.8151791189024982e-02 -5.3691796170537220e-01 +5.3632161135587436e-03
3.2000000000000015e+00 +8.1647100775521739e+00 +0.0000000000000000e+00 +3.1999999824885603e+00 -2.8151976769247480e-02 -5.3691776673856606e-01 +5.3632362651335440e-03
3.3000000000000016e+00 +8.1646916743193767e+00 +0.0000000000000000e+00 +3.2999999807950320e+00 -2.8152155696715982e-02 -5.3691757050596245e-01 +5.3632588892064594e-03
3.4000000000000017e+00 +8.1646727048371730e+00 +0.0000000000000000e+00 +3.3999999789956923e+00 -2.8152326681200740e-02 -5.3691737256533312e-01 +5.3632841190494043e-03
3.5000000000000018e+00 +8.1646531691057724e+00 +0.0000000000000000e+00 +3.4999999770873345e+00 -2.8152488432462527e-02 -5.3691717247446624e-01 +5.3633120879260140e-03
3.6000000000000019e+00 +8.1646330671253864e+00 +0.0000000000000000e+00 +3.5999999750667526e+00 -2.8152639660252533e-02 -5.3691696979116776e-01 +5.3633429290910802e-03
3.7000000000000020e+00 +8.1646123988962298e+00 +0.0000000000000000e+00 +3.6999999729307405e+00 -2.8152779074312250e-02 -5.3691676407326305e-01 +5.3633767757899483e-03
3.8000000000000020e+00 +8.1645911644185212e+00 +0.0000000000000000e+00 +3.7999999706760916e+00 -2.8152905384373213e-02 -5.3691655487859613e-01 +5.3634137612579257e-03
3.9000000000000021e+00 +8.1645693636924808e+00 +0.0000000000000000e+00 +3.8999999682995998e+00 -2.8153017300156912e-02 -5.3691634176502956e-01 +5.3634540187196926e-03
4.0000000000000018e+00 +8.1645469967183342e+00 +0.0000000000000000e+00 +3.9999999657980587e+00 -2.8153113531374636e-02 -5.3691612429044722e-01 +5.3634976813887146e-03
4.1000000000000014e+00 +8.1645240634963123e+00 +0.0000000000000000e+00 +4.0999999631682620e+00 -2.8153193185195258e-02 -5.3691590219453889e-01 +5.3635448085641718e-03
4.2000000000000011e+00 +8.1645005640266479e+00 +0.0000000000000000e+00 +4.1999999604070029e+00 -2.8153256958661992e-02 -5.3691567594415091e-01 +5.3635951639282465e-03
4.3000000000000007e+00 +8.1644764983095826e+00 +0.0000000000000000e+00 +4.2999999575110754e+00 -2.8153305946307952e-02 -5.3691544618790532e-01 +5.3636484372634541e-03
4.4000000000000004e+00 +8.1644518663453578e+00 +0.0000000000000000e+00 +4.3999999544772734e+00 -2.8153341242691858e-02 -5.3691521357440497e-01 +5.3637043183570529e-03
4.5000000000000000e+00 +8.1644266681342206e+00 +0.0000000000000000e+00 +4.4999999513023905e+00 -2.8153363942399933e-02 -5.3691497875223515e-01 +5.3637624970014654e-03
4.5999999999999996e+00 +8.1644009036764196e+00 +0.0000000000000000e+00 +4.5999999479832203e+00 -2.8153375140047759e-02 -5.3691474236995895e-01 +5.3638226629947250e-03
4.6999999999999993e+00 +8.1643745729722035e+00 +0.0000000000000000e+00 +4.6999999445165566e+00 -2.8153375930282137e-02 -5.3691450507611826e-01 +5.3638845061408794e-03
4.7999999999999989e+00 +8.1643476760218245e+00 +0.0000000000000000e+00 +4.7999999408991929e+00 -2.8153367407782976e-02 -5.3691426751922988e-01 +5.3639477162504313e-03
4.8999999999999986e+00 +8.1643202128255350e+00 +0.0000000000000000e+00 +4.8999999371279230e+00 -2.8153350667265101e-02 -5.3691403034778451e-01 +5.3640119831407746e-03
4.9999999999999982e+00 +8.1642921833835835e+00 +0.0000000000000000e+00 +4.9999999331995415e+00 -2.8153326803480178e-02 -5.3691379421024610e-01 +5.3640769966366098e-03
5.0999999999999979e+00 +8.1642635876962206e+00 +0.0000000000000000e+00 +5.0999999291108411e+00 -2.8153296911218536e-02 -5.3691355975504840e-01 +5.3641424465703698e-03
5.1999999999999975e+00 +8.1642344257636950e+00 +0.0000000000000000e+00 +5.1999999248586155e+00 -2.8153262085311069e-02 -5.3691332763059429e-01 +5.3642080227826634e-03
5.2999999999999972e+00 +8.1642046975862534e+00 +0.0000000000000000e+00 +5.2999999204396593e+00 -2.8153223420631052e-02 -5.3691309848525448e-01 +5.3642734151226916e-03
5.3999999999999968e+00 +8.1641744031641359e+00 +0.0000000000000000e+00 +5.3999999158507652e+00 -2.8153182012096056e-02 -5.3691287296736445e-01 +5.3643383134486791e-03
5.4999999999999964e+00 +8.1641435424975839e+00 +0.0000000000000000e+00 +5.4999999110887279e+00 -2.8153138954669765e-02 -5.3691265172522373e-01 +5.3644024076283086e-03
5.5999999999999961e+00 +8.1641121155868301e+00 +0.0000000000000000e+00 +5.5999999061503409e+00 -2.8153095343363840e-02 -5.3691243540709455e-01 +5.3644653875391385e-03
5.6999999999999957e+00 +8.1640801224321038e+00 +0.0000000000000000e+00 +5.6999999010323972e+00 -2.8153052273239821e-02 -5.3691222466119826e-01 +5.3645269430690418e-03
5.7999999999999954e+00 +8.1640475630336269e+00 +0.0000000000000000e+00 +5.7999998957316912e+00 -2.8153010839410977e-02 -5.3691202013571637e-01 +5.3645867641166278e-03
5.8999999999999950e+00 +8.1640144373916179e+00 +0.0000000000000000e+00 +5.8999998902450166e+00 -2.8152972137044117e-02 -5.3691182247878655e-01 +5.3646445405916791e-03
5.9999999999999947e+00 +8.1639807455062865e+00 +0.0000000000000000e+00 +5.9999998845691671e+00 -2.8152937261361529e-02 -5.3691163233850225e-01 +5.3646999624155723e-03
6.0999999999999943e+00 +8.1639464873778333e+00 +0.0000000000000000e+00 +6.0999998787009364e+00 -2.8152907166560180e-02 -5.3691145030602738e-01 +5.3647528013064478e-03
6.1999999999999940e+00 +8.1639116630064521e+00 +0.0000000000000000e+00 +6.1999998726371182e+00 -2.8152882242538629e-02 -5.3691127674496297e-01 +5.3648031561288655e-03
6.2999999999999936e+00 +8.1638762723923257e+00 +0.0000000000000000e+00 +6.2999998663745069e+00 -2.8152862738102392e-02 -5.3691111196201879e-01 +5.3648512075284358e-03
6.3999999999999932e+00 +8.1638403155356301e+00 +0.0000000000000000e+00 +6.3999998599098955e+00 -2.8152848902040034e-02 -5.3691095626389973e-01 +5.3648971361447305e-03
6.4999999999999929e+00 +8.1638037924365303e+00 +0.0000000000000000e+00 +6.4999998532400776e+00 -2.8152840983122044e-02 -5.3691080995730678e-01 +5.3649411226109481e-03
6.5999999999999925e+00 +8.1637667030951810e+00 +0.0000000000000000e+00 +6.5999998463618477e+00 -2.8152839230099598e-02 -5.3691067334893572e-01 +5.3649833475536059e-03
6.6999999999999922e+00 +8.1637290475117279e+00 +0.0000000000000000e+00 +6.6999998392719986e+00 -2.8152843891703330e-02 -5.3691054674547833e-01 +5.3650239915922215e-03
6.7999999999999918e+00 +8.1636908256863059e+00 +0.0000000000000000e+00 +6.7999998319673249e+00 -2.8152855216642177e-02 -5.3691043045362230e-01 +5.3650632353389989e-03
6.8999999999999915e+00 +8.1636520376190393e+00 +0.0000000000000000e+00 +6.8999998244446203e+00 -2.8152873453602126e-02 -5.3691032478005141e-01 +5.3651012593985041e-03
6.9999999999999911e+00 +8.1636126833100402e+00 +0.0000000000000000e+00 +6.9999998167006785e+00 -2.8152898851244949e-02 -5.3691023003144411e-01 +5.3651382443673547e-03
7.0999999999999908e+00 +8.1635727627594097e+00 +0.0000000000000000e+00 +7.0999998087322931e+00 -2.8152931658207130e-02 -5.3691014651447644e-01 +5.3651743708339004e-03
7.1999999999999904e+00 +8.1635322759672384e+00 +0.0000000000000000e+00 +7.1999998005362578e+00 -2.8152972123098512e-02 -5.3691007453581985e-01 +5.3652098193779059e-03
7.2999999999999901e+00 +8.1634912229336027e+00 +0.0000000000000000e+00 +7.2999997921093662e+00 -2.8153020494501135e-02 -5.3691001440214159e-01 +5.3652447705702351e-03
7.3999999999999897e+00 +8.1634496036585666e+00 +0.0000000000000000e+00 +7.3999997834484121e+00 -2.8153077020968059e-02 -5.3690996642010613e-01 +5.3652794049725344e-03
7.4999999999999893e+00 +8.1634074181421816e+00 +0.0000000000000000e+00 +7.4999997745501892e+00 -2.8153141951022087e-02 -5.3690993089637429e-01 +5.3653139031369108e-03
7.5999999999999890e+00 +8.1633646663844885e+00 +0.0000000000000000e+00 +7.5999997654114910e+00 -2.8153215533154578e-02 -5.3690990813760242e-01 +5.3653484456056208e-03
7.6999999999999886e+00 +8.1633213483855105e+00 +0.0000000000000000e+00 +7.6999997560291114e+00 -2.8153298015824203e-02 -5.3690989845044435e-01 +5.3653832129107459e-03
7.7999999999999883e+00 +8.1632774641452617e+00 +0.0000000000000000e+00 +7.7999997463998447e+00 -2.8153389647455798e-02 -5.3690990214155032e-01 +5.3654183855738908e-03
7.8999999999999879e+00 +8.1632330136637368e+00 +0.0000000000000000e+00 +7.8999997365204839e+00 -2.8153490676439054e-02 -5.3690991951756761e-01 +5.3654541441058370e-03
7.9999999999999876e+00 +8.1631879969409198e+00 +0.0000000000000000e+00 +7.9999997263878235e+00 -2.8153601351127357e-02 -5.3690995088513982e-01 +5.3654906690062589e-03
8.0999999999999872e+00 +8.1631424139767805e+00 +0.0000000000000000e+00 +8.0999997159986563e+00 -2.8153721704141252e-02 -5.3690999637362835e-01 +5.3655281342461407e-03
8.1999999999999869e+00 +8.1630962647712710e+00 +0.0000000000000000e+00 +8.1999997053497768e+00 -2.8153850905281028e-02 -5.3691005540327463e-01 +5.3655666877196837e-03
8.2999999999999865e+00 +8.1630495493243309e+00 +0.0000000000000000e+00 +8.2999996944379770e+00 -2.8153987908627158e-02 -5.3691012721705733e-01 +5.3656064708032785e-03
8.3999999999999861e+00 +8.1630022676358855e+00 +0.0000000000000000e+00 +8.3999996832600523e+00 -2.8154131668240268e-02 -5.3691021105797876e-01 +5.3656476248739393e-03
8.4999999999999858e+00 +8.1629544197058497e+00 +0.0000000000000000e+00 +8.4999996718127964e+00 -2.8154281138160521e-02 -5.3691030616906665e-01 +5.3656902913093857e-03
8.5999999999999854e+00 +8.1629060055341238e+00 +0.0000000000000000e+00 +8.5999996600930011e+00 -2.8154435272407043e-02 -5.3691041179337207e-01 +5.3657346114880742e-03
8.6999999999999851e+00 +8.1628570251205979e+00 +0.0000000000000000e+00 +8.6999996480974620e+00 -2.8154593024977408e-02 -5.3691052717397414e-01 +5.3657807267893012e-03
8.7999999999999847e+00 +8.1628074784651510e+00 +0.0000000000000000e+00 +8.7999996358229726e+00 -2.8154753349847014e-02 -5.3691065155397721e-01 +5.3658287785932285e-03
8.8999999999999844e+00 +8.1627573655676553e+00 +0.0000000000000000e+00 +8.8999996232663250e+00 -2.8154915200968536e-02 -5.3691078417651517e-01 +5.3658789082809827e-03
8.9999999999999840e+00 +8.1627066864279705e+00 +0.0000000000000000e+00 +8.9999996104243145e+00 -2.8155077532271349e-02 -5.3691092428474896e-01 +5.3659312572346936e-03
9.0999999999999837e+00 +8.1626554410459526e+00 +0.0000000000000000e+00 +9.0999995972937349e+00 -2.8155239297660978e-02 -5.3691107112186964e-01 +5.3659859668375737e-03
9.1999999999999833e+00 +8.1626036294214472e+00 +0.0000000000000000e+00 +9.1999995838713780e+00 -2.8155399451018508e-02 -5.3691122393109936e-01 +5.3660431784739726e-03
9.2999999999999829e+00 +8.1625512515542962e+00 +0.0000000000000000e+00 +9.2999995701540392e+00 -2.8155556946200033e-02 -5.3691138195569044e-01 +5.3661030335294393e-03
9.3999999999999826e+00 +8.1624983074443325e+00 +0.0000000000000000e+00 +9.3999995561385106e+00 -2.8155710737036099e-02 -5.3691154443892841e-01 +5.3661656733908015e-03
9.4999999999999822e+00 +8.1624447970913891e+00 +0.0000000000000000e+00 +9.4999995418215875e+00 -2.8155859777331118e-02 -5.3691171062413057e-01 +5.3662312394462076e-03
9.5999999999999819e+00 +8.1623907204952904e+00 +0.0000000000000000e+00 +9.5999995272000618e+00 -2.8156003020862838e-02 -5.3691187975464949e-01 +5.3662998730852072e-03
9.6999999999999815e+00 +8.1623360776558602e+00 +0.0000000000000000e+00 +9.6999995122707272e+00 -2.8156139421381735e-02 -5.3691205107387097e-01 +5.3663717156987971e-03
9.7999999999999812e+00 +8.1622808685729211e+00 +0.0000000000000000e+00 +9.7999994970303774e+00 -2.8156267932610547e-02 -5.3691222382521797e-01 +5.3664469086795114e-03
9.8999999999999808e+00 +8.1622250932462919e+00 +0.0000000000000000e+00 +9.8999994814758079e+00 -2.8156387508243581e-02 -5.3691239725214890e-01 +5.3665255934214496e-03
9.9999999999999805e+00 +8.1621687516757913e+00 +0.0000000000000000e+00 +9.9999994656038105e+00 -2.8156497101946270e-02 -5.3691257059815967e-01 +5.3666079113203705e-03
1.0099999999999980e+01 +8.1621118438612381e+00 +0.0000000000000000e+00 +1.0099999449411179e+01 -2.8156595978131829e-02 -5.3691274318574089e-01 +5.3666939128620330e-03
1.0199999999999980e+01 +8.1620543698024530e+00 +0.0000000000000000e+00 +1.0199999432894707e+01 -2.8156684644333005e-02 -5.3691291465322577e-01 +5.3667832848836566e-03
1.0299999999999979e+01 +8.1619963294992566e+00 +0.0000000000000000e+00 +1.0299999416051188e+01 -2.8156763918896363e-02 -5.3691308471787025e-01 +5.3668756233161584e-03
1.0399999999999979e+01 +8.1619377229514711e+00 +0.0000000000000000e+00 +1.0399999398877416e+01 -2.8156834620200886e-02 -5.3691325309688809e-01 +5.3669705240995767e-03
1.0499999999999979e+01 +8.1618785501589208e+00 +0.0000000000000000e+00 +1.0499999381370184e+01 -2.8156897566659095e-02 -5.3691341950744820e-01 +5.3670675831833173e-03
1.0599999999999978e+01 +8.1618188111214334e+00 +0.0000000000000000e+00 +1.0599999363526287e+01 -2.8156953576717790e-02 -5.3691358366667430e-01 +5.3671663965263877e-03
1.0699999999999978e+01 +8.1617585058388364e+00 +0.0000000000000000e+00 +1.0699999345342516e+01 -2.8157003468859156e-02 -5.3691374529164348e-01 +5.3672665600976366e-03
1.0799999999999978e+01 +8.1616976343109613e+00 +0.0000000000000000e+00 +1.0799999326815666e+01 -2.8157048061601558e-02 -5.3691390409938566e-01 +5.3673676698760032e-03
1.0899999999999977e+01 +8.1616361965376427e+00 +0.0000000000000000e+00 +1.0899999307942531e+01 -2.8157088173500502e-02 -5.3691405980688101e-01 +5.3674693218507558e-03
1.0999999999999977e+01 +8.1615741925187191e+00 +0.0000000000000000e+00 +1.0999999288719904e+01 -2.8157124623149628e-02 -5.3691421213106083e-01 +5.3675711120217190e-03
1.1099999999999977e+01 +8.1615116222540305e+00 +0.0000000000000000e+00 +1.1099999269144579e+01 -2.8157158229181523e-02 -5.3691436078880495e-01 +5.3676726363995324e-03
1.1199999999999976e+01 +8.1614484857434242e+00 +0.0000000000000000e+00 +1.1199999249213349e+01 -2.8157189810268737e-02 -5.3691450549694042e-01 +5.3677734910058872e-03
1.1299999999999976e+01 +8.1613847829867474e+00 +0.0000000000000000e+00 +1.1299999228923006e+01 -2.8157220185124690e-02 -5.3691464597224225e-01 +5.3678732718737661e-03
1.1399999999999975e+01 +8.1613205139838545e+00 +0.0000000000000000e+00 +1.1399999208270348e+01 -2.8157250172504533e-02 -5.3691478193143050e-01 +5.3679715750476796e-03
1.1499999999999975e+01 +8.1612556787346051e+00 +0.0000000000000000e+00 +1.1499999187252165e+01 -2.8157280591206171e-02 -5.3691491309116945e-01 +5.3680679965839228e-03
1.1599999999999975e+01 +8.1611902772388625e+00 +0.0000000000000000e+00 +1.1599999165865251e+01 -2.8157312260071080e-02 -5.3691503916806660e-01 +5.3681621325507977e-03
1.1699999999999974e+01 +8.1611243094964969e+00 +0.0000000000000000e+00 +1.1699999144106400e+01 -2.8157345997985327e-02 -5.3691515987867255e-01 +5.3682535790288777e-03
1.1799999999999974e+01 +8.1610577755073823e+00 +0.0000000000000000e+00 +1.1799999121972405e+01 -2.8157382623880414e-02 -5.3691527493947833e-01 +5.3683419321112324e-03
