# multipoles
# s[mm] polynom_b[n=0][T/m^n] polynom_b[n=1][T/m^n] polynom_b[n=2][T/m^n] polynom_b[n=3][T/m^n] polynom_b[n=4][T/m^n] polynom_b[n=5][T/m^n] polynom_b[n=6][T/m^n] 
-0.0000000000000000e+00 -5.3659454983087540e-01 +7.3450329178083935e+00 -7.6750227670094118e-01 +6.5856131062008572e+01 +4.2261021494188708e+03 -5.2163560754197452e+05 -1.5841837407562600e+07 
-1.0000000000000001e-01 -5.3659452023459553e-01 +7.3450160024416098e+00 -7.6578771463935302e-01 +6.6055852587987332e+01 +4.1815648947931832e+03 -5.2222093532814906e+05 -1.5625789507379802e+07 
-2.0000000000000001e-01 -5.3659449328925413e-01 +7.3450044356685567e+00 -7.6443877991030162e-01 +6.6160250486232641e+01 +4.1426638981043779e+03 -5.2245537049393437e+05 -1.5429219206917537e+07 
-2.9999999999999999e-01 -5.3659446924332876e-01 +7.3449979341408236e+00 -7.6345196452501551e-01 +6.6173664619559503e+01 +4.1095191874907396e+03 -5.2235030067522783e+05 -1.5253223330760121e+07 
-4.0000000000000002e-01 -5.3659444834531655e-01 +7.3449962145146284e+00 -7.6282376029655019e-01 +6.6100434717456920e+01 +4.0822507933646366e+03 -5.2191711278137233e+05 -1.5098898726910884e+07 
-5.0000000000000000e-01 -5.3659443084367497e-01 +7.3449989934486535e+00 -7.6255065565541391e-01 +6.5944900417299110e+01 +4.0609786944369548e+03 -5.2116719316900172e+05 -1.4967342026514180e+07 
-5.9999999999999998e-01 -5.3659441698690813e-01 +7.3450059876025247e+00 -7.6262914016460570e-01 +6.5711401319199950e+01 +4.0458228971275880e+03 -5.2011192798343959e+05 -1.4859650007857004e+07 
-6.9999999999999996e-01 -5.3659440702361738e-01 +7.3450169136372070e+00 -7.6305570243482301e-01 +6.5404276968255616e+01 +4.0369033979985288e+03 -5.1876270303662424e+05 -1.4776919421492718e+07 
-8.0000000000000004e-01 -5.3659440120225743e-01 +7.3450314882173631e+00 -7.6382682945300984e-01 +6.5027866783947886e+01 +4.0343401662259648e+03 -5.1713090338287887e+05 -1.4720246897436162e+07 
-9.0000000000000002e-01 -5.3659439977140067e-01 +7.3450494280076004e+00 -7.6493900758367428e-01 +6.4586510162369905e+01 +4.0382531645936701e+03 -5.1522791388743342e+05 -1.4690729050113421e+07 
-1.0000000000000000e+00 -5.3659440297962402e-01 +7.3450704496723374e+00 -7.6638872259535851e-01 +6.4084546489536407e+01 +4.0487623461550297e+03 -5.1306511933104350e+05 -1.4689462453574510e+07 
-1.1000000000000001e+00 -5.3659441107543360e-01 +7.3450942698811215e+00 -7.6817245965235070e-01 +6.3526314970494781e+01 +4.0659876569338712e+03 -5.1065390335693565e+05 -1.4717543663002996e+07 
-1.2000000000000000e+00 -5.3659442430744697e-01 +7.3451206053008162e+00 -7.7028670291484891e-01 +6.2916154876349552e+01 +4.0900490201329294e+03 -5.0800564996475843e+05 -1.4776069117814813e+07 
-1.3000000000000000e+00 -5.3659444292416913e-01 +7.3451491726015457e+00 -7.7272793728319333e-01 +6.2258405335818793e+01 +4.1210663755333680e+03 -5.0513174219358113e+05 -1.4866135349554988e+07 
-1.3999999999999999e+00 -5.3659446717419534e-01 +7.3451796884504361e+00 -7.7549264621922287e-01 +6.1557405550208394e+01 +4.1591596314900389e+03 -5.0204356345363590e+05 -1.4988838732667979e+07 
-1.5000000000000000e+00 -5.3659449730612974e-01 +7.3452118695181694e+00 -7.7857731164586497e-01 +6.0817494575709709e+01 +4.2044486657285433e+03 -4.9875249618013710e+05 -1.5145275499932276e+07 
-1.6000000000000001e+00 -5.3659453356851372e-01 +7.3452454324748526e+00 -7.8197841577632921e-01 +6.0043011457274950e+01 +4.2570533539684066e+03 -4.9526992265480635e+05 -1.5336541863191426e+07 
-1.7000000000000000e+00 -5.3659457620987605e-01 +7.3452800939878262e+00 -7.8569244228000168e-01 +5.9238295276819045e+01 +4.3170935966550705e+03 -4.9160722522267472e+05 -1.5563734150034875e+07 
-1.8000000000000000e+00 -5.3659462547884218e-01 +7.3453155707268039e+00 -7.8971587155995726e-01 +5.8407685017085619e+01 +4.3846892237206393e+03 -4.8777578554689744e+05 -1.5827948342273083e+07 
-1.8999999999999999e+00 -5.3659468162390678e-01 +7.3453515793604529e+00 -7.9404518603162233e-01 +5.7555519644986397e+01 +4.4599600945709781e+03 -4.8378698502927920e+05 -1.6130280548078010e+07 
-2.0000000000000000e+00 -5.3659474489367620e-01 +7.3453878365566441e+00 -7.9867686632769364e-01 +5.6686138119471380e+01 +4.5430260245719974e+03 -4.7965220491577621e+05 -1.6471826652240667e+07 
-2.1000000000000001e+00 -5.3659481551896837e-01 +7.3454241056811655e+00 -8.0360031441828772e-01 +5.5803309343853883e+01 +4.6338365650285086e+03 -4.7538241692192497e+05 -1.6852823573425442e+07 
-2.2000000000000002e+00 -5.3659489366121249e-01 +7.3454603249914046e+00 -8.0877881427864462e-01 +5.4908716619921641e+01 +4.7317048449205677e+03 -4.7098749568996439e+05 -1.7270265024887320e+07 
-2.2999999999999998e+00 -5.3659497946483503e-01 +7.3454964736632293e+00 -8.1416962886379463e-01 +5.4003567731066980e+01 +4.8357952556008740e+03 -4.6647717033867165e+05 -1.7720378836515255e+07 
-2.3999999999999999e+00 -5.3659507307436460e-01 +7.3455325308730135e+00 -8.1973001884508256e-01 +5.3089070441716700e+01 +4.9452721475549843e+03 -4.6186116983463953e+05 -1.8199392651983026e+07 
-2.5000000000000000e+00 -5.3659517463419470e-01 +7.3455684757929101e+00 -8.2541725130793275e-01 +5.2166432633822119e+01 +5.0592999899888209e+03 -4.5714922378093883e+05 -1.8703534671849195e+07 
-2.6000000000000001e+00 -5.3659528428879766e-01 +7.3456042875922130e+00 -8.3118858728256795e-01 +5.1236862276768086e+01 +5.1770431417286227e+03 -4.5235106227050838e+05 -1.9229032585734598e+07 
-2.7000000000000002e+00 -5.3659540218261503e-01 +7.3456399454375285e+00 -8.3700129095274234e-01 +5.0301567418506018e+01 +5.2976660151028327e+03 -4.4747641581538913e+05 -1.9772114319612134e+07 
-2.7999999999999998e+00 -5.3659552846008252e-01 +7.3456754284898071e+00 -8.4281262782304334e-01 +4.9361756278294855e+01 +5.4203330528531369e+03 -4.4253501590323402e+05 -2.0329007958660614e+07 
-2.8999999999999999e+00 -5.3659566326564800e-01 +7.3457107159105286e+00 -8.4857986185466139e-01 +4.8418637069798109e+01 +5.5442086675370192e+03 -4.3753659398137982e+05 -2.0895941440529138e+07 
-3.0000000000000000e+00 -5.3659580674374374e-01 +7.3457457868513449e+00 -8.5426025893483848e-01 +4.7473418299243058e+01 +5.6684573083451996e+03 -4.3249088316792075e+05 -2.1469142876928527e+07 
-3.1000000000000001e+00 -5.3659595903879143e-01 +7.3457806204655611e+00 -8.5981108625809310e-01 +4.6527308435175406e+01 +5.7922434508150418e+03 -4.2740761635172332e+05 -2.2044840507065073e+07 
-3.2000000000000002e+00 -5.3659612029522852e-01 +7.3458151958972104e+00 -8.6518960922806343e-01 +4.5581516242210618e+01 +5.9147315361856317e+03 -4.2229652816824836e+05 -2.2619262403991673e+07 
-3.2999999999999998e+00 -5.3659629065747216e-01 +7.3458494922880844e+00 -8.7035309607238764e-01 +4.4637250560921565e+01 +6.0350860622870605e+03 -4.1716735367211385e+05 -2.3188636915369891e+07 
-3.3999999999999999e+00 -5.3659647026993651e-01 +7.3458834887718716e+00 -8.7525881552438622e-01 +4.3695720485644287e+01 +6.1524715374138104e+03 -4.1202982939611049e+05 -2.3749192437992971e+07 
-3.5000000000000000e+00 -5.3659665927702960e-01 +7.3459171644798227e+00 -8.7986403684442716e-01 +4.2758135213899308e+01 +6.2660524789002538e+03 -4.0689369250828377e+05 -2.4297157406094663e+07 
-3.6000000000000001e+00 -5.3659685782316524e-01 +7.3459504985361264e+00 -8.8412603285736480e-01 +4.1825704164118079e+01 +6.3749934783994358e+03 -4.0176868145069713e+05 -2.4828760620930538e+07 
-3.7000000000000002e+00 -5.3659706605271751e-01 +7.3459834700588189e+00 -8.8800207093535377e-01 +4.0899636971834859e+01 +6.4784590210836932e+03 -3.9666453597193660e+05 -2.5340230364520870e+07 
-3.7999999999999998e+00 -5.3659728411007390e-01 +7.3460160581580505e+00 -8.9144942722354359e-01 +3.9981143525052779e+01 +6.5756137637653774e+03 -3.9159099729726178e+05 -2.5827795746253159e+07 
-3.8999999999999999e+00 -5.3659751213965123e-01 +7.3460482419404673e+00 -8.9442537459922267e-01 +3.9071433850702853e+01 +6.6656223020588850e+03 -3.8655780749776575e+05 -2.6287685579411935e+07 
-4.0000000000000000e+00 -5.3659775028577217e-01 +7.3460800005020470e+00 -8.9688718760634534e-01 +3.8171718307621468e+01 +6.7476492631584433e+03 -3.8157471054030024e+05 -2.6716128819161717e+07 
-4.0999999999999996e+00 -5.3659799854294454e-01 +7.3461113202157051e+00 -8.9880729412963212e-01 +3.7283154157288791e+01 +6.8210853658134856e+03 -3.7665117123312113e+05 -2.7110237040994205e+07 
-4.2000000000000002e+00 -5.3659825636180236e-01 +7.3461422159514695e+00 -9.0021322700762751e-01 +3.6406729790188869e+01 +6.8861411420196737e+03 -3.7179601072755718e+05 -2.7470319820734736e+07 
-4.2999999999999998e+00 -5.3659852306970424e-01 +7.3461727095280018e+00 -9.0114506314877163e-01 +3.5543400826318461e+01 +6.9432132151894593e+03 -3.6701798850409337e+05 -2.7797412045777898e+07 
-4.4000000000000004e+00 -5.3659879799396282e-01 +7.3462028227659291e+00 -9.0164287326725900e-01 +3.4694122895975880e+01 +6.9926980949971494e+03 -3.6232586435045343e+05 -2.8092548059848152e+07 
-4.5000000000000000e+00 -5.3659908046191440e-01 +7.3462325774953179e+00 -9.0174673847945985e-01 +3.3859851440081151e+01 +7.0349924888851174e+03 -3.5772839724239300e+05 -2.8356763138422634e+07 
-4.5999999999999996e+00 -5.3659936980084144e-01 +7.3462619955508082e+00 -9.0149673494247640e-01 +3.3041541841898926e+01 +7.0704930158533325e+03 -3.5323434609813255e+05 -2.8591092137009282e+07 
-4.7000000000000002e+00 -5.3659966533810421e-01 +7.3462910987714318e+00 -9.0093294252787348e-01 +3.2240149442471505e+01 +7.0995963630226834e+03 -3.4885246989056288e+05 -2.8796570215860374e+07 
-4.7999999999999998e+00 -5.3659996640097196e-01 +7.3463199090094644e+00 -9.0009544030812882e-01 +3.1456629292303610e+01 +7.1226992082059678e+03 -3.4459152624716080e+05 -2.8974232493856020e+07 
-4.9000000000000004e+00 -5.3660027231680063e-01 +7.3463484481210557e+00 -8.9902431082556433e-01 +3.0691936415193609e+01 +7.1401982966892274e+03 -3.4046027295007027e+05 -2.9125114399415690e+07 
-5.0000000000000000e+00 -5.3660058241283037e-01 +7.3463767379699556e+00 -8.9775963903985856e-01 +2.9947025720649940e+01 +7.1524904246413598e+03 -3.3646746750041121e+05 -2.9250251601172619e+07 
-5.0999999999999996e+00 -5.3660089601643690e-01 +7.3464048004317588e+00 -8.9634150684337632e-01 +2.9222851869103547e+01 +7.1599723296938482e+03 -3.3262186630287190e+05 -2.9350679472624693e+07 
-5.2000000000000002e+00 -5.3660121245486714e-01 +7.3464326573904026e+00 -8.9481000352279905e-01 +2.8520369382852145e+01 +7.1630408950371138e+03 -3.2893222534276266e+05 -2.9427434077257551e+07 
-5.2999999999999998e+00 -5.3660153105541564e-01 +7.3464603307365222e+00 -8.9320521693318167e-01 +2.7840532706065346e+01 +7.1620929806893428e+03 -3.2540730056926934e+05 -2.9481551362227466e+07 
-5.4000000000000004e+00 -5.3660185114538406e-01 +7.3464878423763178e+00 -8.9156723482261591e-01 +2.7184295939948758e+01 +7.1575254441219640e+03 -3.2205584635113698e+05 -2.9514067242151137e+07 
-5.5000000000000000e+00 -5.3660217205201699e-01 +7.3465152142215757e+00 -8.8993615031285112e-01 +2.6552613140250894e+01 +7.1497352524225425e+03 -3.1888661721980374e+05 -2.9526018156141300e+07 
-5.5999999999999996e+00 -5.3660249310266739e-01 +7.3465424682002185e+00 -8.8835205438472742e-01 +2.5946438016354680e+01 +7.1391193350386657e+03 -3.1590836614693777e+05 -2.9518440351372432e+07 
-5.7000000000000002e+00 -5.3660281362455275e-01 +7.3465696262441798e+00 -8.8685504535807846e-01 +2.5366724288349534e+01 +7.1260747611827665e+03 -3.1312984663955122e+05 -2.9492370724144496e+07 
-5.7999999999999998e+00 -5.3660313294497752e-01 +7.3465967103087166e+00 -8.8548521642675693e-01 +2.4814425126221266e+01 +7.1109985107738121e+03 -3.1055980948304007e+05 -2.9448845743241414e+07 
-5.9000000000000004e+00 -5.3660345039118995e-01 +7.3466237423504186e+00 -8.8428266856603355e-01 +2.4290493797662393e+01 +7.0942877136545867e+03 -3.0820700653570262e+05 -2.9388902578231983e+07 
-5.9999999999999902e+00 -5.3660376529047915e-01 +7.3466507443431182e+00 -8.8328750059022842e-01 +2.3795883180047777e+01 +7.0763394691935318e+03 -3.0608018763809442e+05 -2.9313578237824928e+07 
-6.0999999999999899e+00 -5.3660407717194480e-01 +7.3466777197413817e+00 -8.8252639780102526e-01 +2.3331231752470003e+01 +7.0574340906831239e+03 -3.0418452387012355e+05 -2.9223651998550262e+07 
-6.1999999999999904e+00 -5.3660438627120344e-01 +7.3467046125940669e+00 -8.8197790911770790e-01 +2.2895751615690106e+01 +7.0374391134331518e+03 -3.0251076262556750e+05 -2.9119042847950600e+07 
-6.2999999999999901e+00 -5.3660469297842539e-01 +7.3467313551645779e+00 -8.8160980395829791e-01 +2.2488267789108725e+01 +7.0161315170035405e+03 -3.0104605336824805e+05 -2.8999494309498835e+07 
-6.3999999999999897e+00 -5.3660499768374725e-01 +7.3467578797096520e+00 -8.8138985445905271e-01 +2.2107605411021737e+01 +6.9932883245350504e+03 -2.9977754599702742e+05 -2.8864750107778154e+07 
-6.4999999999999902e+00 -5.3660530077735391e-01 +7.3467841184736757e+00 -8.8128582464286997e-01 +2.1752589897887539e+01 +6.9686863965889643e+03 -2.9869239173775137e+05 -2.8714553189218950e+07 
-6.5999999999999899e+00 -5.3660560264938029e-01 +7.3468100036946815e+00 -8.8126548263755911e-01 +2.1422046761284850e+01 +6.9421026611736306e+03 -2.9777774207099219e+05 -2.8548646811540730e+07 
-6.6999999999999904e+00 -5.3660590368999339e-01 +7.3468354675999130e+00 -8.8129659066590749e-01 +2.1114801741616130e+01 +6.9133139275980329e+03 -2.9702074949903070e+05 -2.8366773670342151e+07 
-6.7999999999999901e+00 -5.3660620428935202e-01 +7.3468604424070501e+00 -8.8134691298534040e-01 +2.0829680751296252e+01 +6.8820970329044694e+03 -2.9640856717245269e+05 -2.8168676584218562e+07 
-6.8999999999999897e+00 -5.3660650483754846e-01 +7.3468848603219401e+00 -8.8138420986203425e-01 +2.0565509954400113e+01 +6.8482287267060219e+03 -2.9592834937407781e+05 -2.7954097944675975e+07 
-6.9999999999999902e+00 -5.3660680572474917e-01 +7.3469086535393933e+00 -8.8137624008228599e-01 +2.0321115727086422e+01 +6.8114857223561803e+03 -2.9556725124857016e+05 -2.7722779972400248e+07 
-7.0999999999999899e+00 -5.3660710734109229e-01 +7.3469317542440953e+00 -8.8129076024956410e-01 +2.0095324629735799e+01 +6.7716446814001038e+03 -2.9531242863174947e+05 -2.7474464637158457e+07 
-7.1999999999999904e+00 -5.3660741007671231e-01 +7.3469540946061045e+00 -8.8109552467792285e-01 +1.9886963528978640e+01 +6.7284822095587551e+03 -2.9515103872817243e+05 -2.7208893633282676e+07 
-7.2999999999999901e+00 -5.3660771432175813e-01 +7.3469756067861383e+00 -8.8075828661237843e-01 +1.9694859457016165e+01 +6.6817748808974211e+03 -2.9507023933094711e+05 -2.6925808500597004e+07 
-7.3999999999999897e+00 -5.3660802046629552e-01 +7.3469962229302377e+00 -8.8024679697075137e-01 +1.9517839724813864e+01 +6.6312992129527183e+03 -2.9505718935988744e+05 -2.6624950501169566e+07 
-7.4999999999999902e+00 -5.3660832890049348e-01 +7.3470158751714481e+00 -8.7952880439660819e-01 +1.9354731907799987e+01 +6.5768316692273702e+03 -2.9509904887058720e+05 -2.6306060639377017e+07 
-7.5999999999999899e+00 -5.3660864001442765e-01 +7.3470344956285452e+00 -8.7857205285531459e-01 +1.9204363859172325e+01 +6.5181486112244738e+03 -2.9518297906367440e+05 -2.5968879426129520e+07 
-7.6999999999999904e+00 -5.3660895419822474e-01 +7.3470520164059137e+00 -8.7734428709833034e-01 +1.9065563707337137e+01 +6.4550264025862189e+03 -2.9529614224596089e+05 -2.5613147377447467e+07 
-7.7999999999999901e+00 -5.3660927184200358e-01 +7.3470683695963119e+00 -8.7581324622424894e-01 +1.8937159775792207e+01 +6.3872412860311606e+03 -2.9542570136750094e+05 -2.5238604427280419e+07 
-7.8999999999999897e+00 -5.3660959333587110e-01 +7.3470834872733297e+00 -8.7394667119652025e-01 +1.8817980796887106e+01 +6.3145695260554930e+03 -2.9555882124426472e+05 -2.4844990607001457e+07 
-7.9999999999999902e+00 -5.3660991906991795e-01 +7.3470973014947747e+00 -8.7171229452615273e-01 +1.8706855989930435e+01 +6.2367872316637286e+03 -2.9568266917255626e+05 -2.4432045245920498e+07 
-8.0999999999999908e+00 -5.3661024934394841e-01 +7.3471097376564991e+00 -8.6908613051198680e-01 +1.8603626944791674e+01 +6.1537683171883182e+03 -2.9579104207773652e+05 -2.3999851673303414e+07 
-8.1999999999999904e+00 -5.3661058414848029e-01 +7.3471206988817084e+00 -8.6607283805169966e-01 +1.8511626941740776e+01 +6.0656958966528819e+03 -2.9590047178938461e+05 -2.3549488176922459e+07 
-8.2999999999999901e+00 -5.3661092340772942e-01 +7.3471300834953306e+00 -8.6268327429982183e-01 +1.8434950226337378e+01 +5.9728138942067244e+03 -2.9603240850541805e+05 -2.3082207944439650e+07 
-8.3999999999999897e+00 -5.3661126704580497e-01 +7.3471377898217840e+00 -8.5892829898162082e-01 +1.8377691020632735e+01 +5.8753662628361426e+03 -2.9620830210839811e+05 -2.2599264236969661e+07 
-8.4999999999999893e+00 -5.3661161498689125e-01 +7.3471437161855837e+00 -8.5481877582324517e-01 +1.8343943495375921e+01 +5.7735970114493875e+03 -2.9644960195287858e+05 -2.2101910513974790e+07 
-8.5999999999999908e+00 -5.3661196715504822e-01 +7.3471477609079239e+00 -8.5036557050308625e-01 +1.8337801877864454e+01 +5.6677501686545047e+03 -2.9677775753374788e+05 -2.1591400271084208e+07 
-8.6999999999999904e+00 -5.3661232347437893e-01 +7.3471498223093876e+00 -8.4557955671482199e-01 +1.8363360364985752e+01 +5.5580698951824779e+03 -2.9721421794256696e+05 -2.1068987564680789e+07 
-8.7999999999999794e+00 -5.3661268386889327e-01 +7.3471497987115493e+00 -8.4047160941298060e-01 +1.8424713088376077e+01 +5.4448003535726093e+03 -2.9778043170007545e+05 -2.0535926386553537e+07 
-8.8999999999999808e+00 -5.3661304826256395e-01 +7.3471475884339377e+00 -8.3505260825625305e-01 +1.8525954185230599e+01 +5.3281857773483644e+03 -2.9849784711709432e+05 -1.9993471003630579e+07 
-8.9999999999999805e+00 -5.3661341657940775e-01 +7.3471430897909347e+00 -8.2933343727072961e-01 +1.8671177898922842e+01 +5.2084704614245602e+03 -2.9938791290732683e+05 -1.9442875902987465e+07 
-9.0999999999999801e+00 -5.3661378874329979e-01 +7.3471362011030257e+00 -8.2332498804950482e-01 +1.8864478246098859e+01 +5.0858988211471751e+03 -3.0047207623097004e+05 -1.8885396066058446e+07 
-9.1999999999999797e+00 -5.3661416467810963e-01 +7.3471268206831883e+00 -8.1703815269211810e-01 +1.9109949416566753e+01 +4.9607152603892291e+03 -3.0177178503115813e+05 -1.8322286349251568e+07 
-9.2999999999999794e+00 -5.3661454430773792e-01 +7.3471148468484460e+00 -8.1048382955620946e-01 +1.9411685425319639e+01 +4.8331642793840265e+03 -3.0330848597603926e+05 -1.7754801989802234e+07 
-9.3999999999999808e+00 -5.3661492755596474e-01 +7.3471001779104004e+00 -8.0367292169498594e-01 +1.9773780403794227e+01 +4.7034904438591866e+03 -3.0510362619364890e+05 -1.7184198458603378e+07 
-9.4999999999999805e+00 -5.3661531434652265e-01 +7.3470827121839948e+00 -7.9661633859370473e-01 +2.0200328328112004e+01 +4.5719384202631372e+03 -3.0717865164267260e+05 -1.6611731629528422e+07 
-9.5999999999999801e+00 -5.3661570460317121e-01 +7.3470623479785937e+00 -7.8932499553679425e-01 +2.0695423283268291e+01 +4.4387529574779564e+03 -3.0955500865601387e+05 -1.6038657679005532e+07 
-9.6999999999999797e+00 -5.3661609824956391e-01 +7.3470389836081900e+00 -7.8180980844499981e-01 +2.1263159174144668e+01 +4.3041787960135252e+03 -3.1225414228750457e+05 -1.5466232670169100e+07 
-9.7999999999999794e+00 -5.3661649520937982e-01 +7.3470125173790377e+00 -7.7408170295753120e-01 +2.1907630063885840e+01 +4.1684608334072345e+03 -3.1529749821515864e+05 -1.4895713321129734e+07 
-9.8999999999999808e+00 -5.3661689540618318e-01 +7.3469828476044210e+00 -7.6615160924121339e-01 +2.2632929768521361e+01 +4.0318440293713743e+03 -3.1870652044451359e+05 -1.4328356563910367e+07 
-9.9999999999999805e+00 -5.3661729876350428e-01 +7.3469498726259586e+00 -7.5803046373098915e-01 +2.3443150240703929e+01 +3.8945732807720997e+03 -3.2250264298018126e+05 -1.3765418738663966e+07 
-1.0100000000000000e+01 -5.3661770520375462e-01 +7.3469135518345619e+00 -7.4973737256117834e-01 +2.4340075941227312e+01 +3.7569675441240729e+03 -3.2669514519398037e+05 -1.3208311925991500e+07 
