# multipoles
# s[mm] polynom_b[n=0][T/m^n] polynom_b[n=1][T/m^n] polynom_b[n=2][T/m^n] polynom_b[n=3][T/m^n] polynom_b[n=4][T/m^n] polynom_b[n=5][T/m^n] polynom_b[n=6][T/m^n] 
-0.0000000000000000e+00 -5.6452167974557077e-01 +7.7348496805268105e+00 -6.5778104318213138e-01 -5.7923570541568509e+01 +8.5556875878559567e+03 +1.3801377949791355e+05 -4.6779565349660031e+07 
-1.0000000000000001e-01 -5.6452167034403578e-01 +7.7347940238640103e+00 -6.5783131566975972e-01 -5.6991906007720935e+01 +8.5433781231015109e+03 +1.3459488847167205e+05 -4.6715022405857511e+07 
-2.0000000000000001e-01 -5.6452166607365351e-01 +7.7347344993390701e+00 -6.5745037331419642e-01 -5.6029867253703763e+01 +8.5237088608477970e+03 +1.3125732469268976e+05 -4.6611006991233788e+07 
-2.9999999999999999e-01 -5.6452166623609967e-01 +7.7346716148877448e+00 -6.5668528878009758e-01 -5.5042085381405329e+01 +8.4974501008252410e+03 +1.2799868107371936e+05 -4.6471092748896070e+07 
-4.0000000000000002e-01 -5.6452167013314103e-01 +7.7346058784383240e+00 -6.5558313452046268e-01 -5.4033191299386296e+01 +8.4653721280381869e+03 +1.2481654940130663e+05 -4.6298853233507738e+07 
-5.0000000000000000e-01 -5.6452167706646816e-01 +7.7345377979281240e+00 -6.5419098179869462e-01 -5.3007816196505367e+01 +8.4282452021589725e+03 +1.2170852306625637e+05 -4.6097861879134394e+07 
-5.9999999999999998e-01 -5.6452168633780420e-01 +7.7344678812910113e+00 -6.5255590330884361e-01 -5.1970591170782953e+01 +8.3868395976691772e+03 +1.1867219489481316e+05 -4.5871692161537625e+07 
-6.9999999999999996e-01 -5.6452169724883650e-01 +7.7343966364604864e+00 -6.5072496950430569e-01 -5.0926147324041807e+01 +8.3419255486139718e+03 +1.1570515771352219e+05 -4.5623917372094534e+07 
-8.0000000000000004e-01 -5.6452170910127797e-01 +7.7343245713756898e+00 -6.4874525160482122e-01 -4.9879115937655854e+01 +8.2942733048954051e+03 +1.1280500537510289e+05 -4.5358110879766367e+07 
-9.0000000000000002e-01 -5.6452172119685429e-01 +7.7342521939732594e+00 -6.4666381891495806e-01 -4.8834128221399226e+01 +8.2446530777616590e+03 +1.0996933126381900e+05 -4.5077845859489426e+07 
-1.0000000000000000e+00 -5.6452173283727791e-01 +7.7341800121952513e+00 -6.4452774345860264e-01 -4.7795815556635723e+01 +8.1938351358051605e+03 +1.0719572974602599e+05 -4.4786695767061047e+07 
-1.1000000000000001e+00 -5.6452174332436189e-01 +7.7341085339807449e+00 -6.4238409316800604e-01 -4.6768809233611485e+01 +8.1425896809598116e+03 +1.0448179460063555e+05 -4.4488233762490094e+07 
-1.2000000000000000e+00 -5.6452175195975185e-01 +7.7340382672731103e+00 -6.4027994019150769e-01 -4.5757740680499857e+01 +8.0916869986173670e+03 +1.0182512039176156e+05 -4.4186033397278979e+07 
-1.3000000000000000e+00 -5.6452175804526394e-01 +7.7339697200213848e+00 -6.3826235152595123e-01 -4.4767241487855664e+01 +8.0418972928097119e+03 +9.9223302581119569e+04 -4.3883667866309032e+07 
-1.3999999999999999e+00 -5.6452176088268702e-01 +7.7339034001706999e+00 -6.3637839945547436e-01 -4.3801943125413352e+01 +7.9939908789405763e+03 +9.6673935871184032e+04 -4.3584710904537648e+07 
-1.5000000000000000e+00 -5.6452175977380037e-01 +7.7338398156745196e+00 -6.3467515301801147e-01 -4.2866477312452211e+01 +7.9487380292797743e+03 +9.4174616391575051e+04 -4.3292736069685176e+07 
-1.6000000000000001e+00 -5.6452175402041260e-01 +7.7337794744869903e+00 -6.3319968356648382e-01 -4.1965475774446624e+01 +7.9069090780719198e+03 +9.1722940240122989e+04 -4.3011317240437374e+07 
-1.7000000000000000e+00 -5.6452174292438040e-01 +7.7337228845636501e+00 -6.3199905947269919e-01 -4.1103570278458989e+01 +7.8692743235012567e+03 +8.9316503728927622e+04 -4.2744028150480404e+07 
-1.8000000000000000e+00 -5.6452172578758819e-01 +7.7336705538650614e+00 -6.3112035299192160e-01 -4.0285392720234917e+01 +7.8366041635296497e+03 +8.6952903844099244e+04 -4.2494443048492700e+07 
-1.8999999999999999e+00 -5.6452170191189932e-01 +7.7336229903532470e+00 -6.3061063514367588e-01 -3.9515575036179030e+01 +7.8096689965207006e+03 +8.4629737778790208e+04 -4.2266136217122905e+07 
-2.0000000000000000e+00 -5.6452167059927638e-01 +7.7335807019976617e+00 -6.3051697582436450e-01 -3.8798749362664068e+01 +7.7892392279342994e+03 +8.2344603819035823e+04 -4.2062682012509480e+07 
-2.1000000000000001e+00 -5.6452163138596889e-01 +7.7335441054801910e+00 -6.3087103843821812e-01 -3.8139192019237683e+01 +7.7758143248999695e+03 +8.0098740532986965e+04 -4.1886491333190218e+07 
-2.2000000000000002e+00 -5.6452158475129433e-01 +7.7335132513232381e+00 -6.3164082819468048e-01 -3.7539713600095737e+01 +7.7687890524697796e+03 +7.7907872181361803e+04 -4.1735291274703324e+07 
-2.2999999999999998e+00 -5.6452153141154271e-01 +7.7334880982621552e+00 -6.3277793652843117e-01 -3.7002749127862778e+01 +7.7672769448803647e+03 +7.5791338130457865e+04 -4.1605631521976888e+07 
-2.3999999999999999e+00 -5.6452147208310721e-01 +7.7334686050243038e+00 -6.3423394992391657e-01 -3.6530733357519303e+01 +7.7703914540765882e+03 +7.3768476183624167e+04 -4.1494061396409959e+07 
-2.5000000000000000e+00 -5.6452140748232293e-01 +7.7334547303357306e+00 -6.3596045659238243e-01 -3.6126100970415933e+01 +7.7772460808887627e+03 +7.1858623718520874e+04 -4.1397130490521841e+07 
-2.6000000000000001e+00 -5.6452133832556273e-01 +7.7334464329219639e+00 -6.3790904092486989e-01 -3.5791286584217481e+01 +7.7869542649897003e+03 +7.0081117727343619e+04 -4.1311388134455308e+07 
-2.7000000000000002e+00 -5.6452126532931179e-01 +7.7334436714981623e+00 -6.4003128831226408e-01 -3.5528724473655444e+01 +7.7986294796391649e+03 +6.8455293217881364e+04 -4.1233383856175870e+07 
-2.7999999999999998e+00 -5.6452118920990568e-01 +7.7334464047813443e+00 -6.4227878238543068e-01 -3.5340848916694156e+01 +7.8113851767170527e+03 +6.7000485218073241e+04 -4.1159667116247900e+07 
-2.8999999999999999e+00 -5.6452111068385202e-01 +7.7334545914817596e+00 -6.4460310380790908e-01 -3.5230093940422897e+01 +7.8243347643241532e+03 +6.5736027300511283e+04 -4.1086787200064465e+07 
-3.0000000000000000e+00 -5.6452103046758062e-01 +7.7334681903016085e+00 -6.4695583306567739e-01 -3.5198893280239830e+01 +7.8365916625406107e+03 +6.4681251350609098e+04 -4.1011293496672727e+07 
-3.1000000000000001e+00 -5.6452094927755414e-01 +7.7334871599397124e+00 -6.4928855039817113e-01 -3.5249680516965483e+01 +7.8472692956932833e+03 +6.3855488375468398e+04 -4.0929735442123160e+07 
-3.2000000000000002e+00 -5.6452086783029864e-01 +7.7335114590888505e+00 -6.5155283245457729e-01 -3.5384888986809159e+01 +7.8554810372786160e+03 +6.3278067964860202e+04 -4.0838662284747817e+07 
-3.2999999999999998e+00 -5.6452078684226814e-01 +7.7335410464315881e+00 -6.5370025459447811e-01 -3.5606951669665243e+01 +7.8603402460862453e+03 +6.2968317677891901e+04 -4.0734623234306179e+07 
-3.3999999999999999e+00 -5.6452070703007851e-01 +7.7335758806488339e+00 -6.5568238978613191e-01 -3.5918301413568123e+01 +7.8609602481328538e+03 +6.2945564291392206e+04 -4.0614167388401993e+07 
-3.5000000000000000e+00 -5.6452062911019973e-01 +7.7336159204084156e+00 -6.5745080854674565e-01 -3.6321370625490509e+01 +7.8564543383568998e+03 +6.3229132082202283e+04 -4.0473843748475812e+07 
-3.6000000000000001e+00 -5.6452055379923505e-01 +7.7336611243700757e+00 -6.5895708207123882e-01 -3.6818591395333335e+01 +7.8459358330546293e+03 +6.3838343503953307e+04 -4.0310201451056845e+07 
-3.7000000000000002e+00 -5.6452048181373538e-01 +7.7337114511884142e+00 -6.6015277791547544e-01 -3.7412395582041000e+01 +7.8285179936012137e+03 +6.4792519694888062e+04 -4.0119789421467528e+07 
-3.7999999999999998e+00 -5.6452041387031637e-01 +7.7337668595068925e+00 -6.6098945903877648e-01 -3.8105214631669980e+01 +7.8033140076984137e+03 +6.6110979418171992e+04 -3.9899156285948671e+07 
-3.8999999999999999e+00 -5.6452035068558304e-01 +7.7338273079580109e+00 -6.6141868970193451e-01 -3.8899479589627568e+01 +7.7694371003103079e+03 +6.7813039164246235e+04 -3.9644850896335147e+07 
-4.0000000000000000e+00 -5.6452029297619877e-01 +7.7338927551637822e+00 -6.6139202980300626e-01 -3.9797621106807803e+01 +7.7260004232658448e+03 +6.9918013223557355e+04 -3.9353421795621425e+07 
-4.0999999999999996e+00 -5.6452024137290602e-01 +7.7339630224644758e+00 -6.6088040406133097e-01 -4.0798985678193517e+01 +7.6725178504054702e+03 +7.2432424469183432e+04 -3.9023094979115978e+07 
-4.2000000000000002e+00 -5.6452019615997673e-01 +7.7340373915470559e+00 -6.5992892460906938e-01 -4.1890786082432278e+01 +7.6100315795667566e+03 +7.5311654581972136e+04 -3.8658500833286509e+07 
-4.2999999999999998e+00 -5.6452015753398732e-01 +7.7341150114099841e+00 -6.5860047395611021e-01 -4.3057249518921886e+01 +7.5399480788190622e+03 +7.8498307267812095e+04 -3.8265796965666868e+07 
-4.4000000000000004e+00 -5.6452012569159538e-01 +7.7341950310586336e+00 -6.5695793289916926e-01 -4.4282603512414866e+01 +7.4636737309680193e+03 +8.1934988340195632e+04 -3.7851140464309849e+07 
-4.5000000000000000e+00 -5.6452010082925186e-01 +7.7342765995069298e+00 -6.5506419290618945e-01 -4.5551075960303805e+01 +7.3826150734335206e+03 +8.5564305975952477e+04 -3.7420689052783154e+07 
-4.5999999999999996e+00 -5.6452008314339752e-01 +7.7343588657727604e+00 -6.5298214407596100e-01 -4.6846895005849142e+01 +7.2981785606693420e+03 +8.9328869983978060e+04 -3.6980599940544859e+07 
-4.7000000000000002e+00 -5.6452007283038041e-01 +7.7344409788831454e+00 -6.5077468601271993e-01 -4.8154289213714591e+01 +7.2117707707537102e+03 +9.3171292894433835e+04 -3.6537030804035120e+07 
-4.7999999999999998e+00 -5.6452007008644089e-01 +7.7345220878706069e+00 -6.4850471836808465e-01 -4.9457487459409265e+01 +7.1247982201805662e+03 +9.7034189272915290e+04 -3.6096138895174116e+07 
-4.9000000000000004e+00 -5.6452007510772095e-01 +7.7346013417818931e+00 -6.4623514981182018e-01 -5.0740719184970906e+01 +7.0386675304367909e+03 +1.0086017720392147e+05 -3.5664081823426098e+07 
-5.0000000000000000e+00 -5.6452008809026444e-01 +7.7346778896652308e+00 -6.4402889451742484e-01 -5.1988214062525543e+01 +6.9547853602443884e+03 +1.0459187642266019e+05 -3.5247017233468600e+07 
-5.0999999999999996e+00 -5.6452010923005758e-01 +7.7347508805813208e+00 -6.4194887008346146e-01 -5.3184202298152279e+01 +6.8745583615046507e+03 +1.0817191001837517e+05 -3.4851102584690891e+07 
-5.2000000000000002e+00 -5.6452013872290874e-01 +7.7348194636057688e+00 -6.4005800159621806e-01 -5.4312914722923395e+01 +6.7993932518886613e+03 +1.1154290500119083e+05 -3.4482495486414246e+07 
-5.2999999999999998e+00 -5.6452017676453847e-01 +7.7348827878164883e+00 -6.3841922103728765e-01 -5.5358582435339969e+01 +6.7306968033404546e+03 +1.1464749024744464e+05 -3.4147353642458625e+07 
-5.4000000000000004e+00 -5.6452022355057196e-01 +7.7349400023093740e+00 -6.3709546680941498e-01 -5.6305437262427894e+01 +6.6698758230863241e+03 +1.1742829917052911e+05 -3.3851834738937639e+07 
-5.5000000000000000e+00 -5.6452027927643766e-01 +7.7349902561875137e+00 -6.3614968353479340e-01 -5.7137711457417034e+01 +6.6183371555455969e+03 +1.1982796798244090e+05 -3.3602096466804653e+07 
-5.5999999999999996e+00 -5.6452034413755670e-01 +7.7350326985676556e+00 -6.3564482508365172e-01 -5.7839637897428908e+01 +6.5774877296712366e+03 +1.2178913686604863e+05 -3.3404296724105556e+07 
-5.7000000000000002e+00 -5.6452041832906241e-01 +7.7350664785776972e+00 -6.3564385098643628e-01 -5.8395450020638492e+01 +6.5487344909479143e+03 +1.2325444960907442e+05 -3.3264593293850739e+07 
-5.7999999999999998e+00 -5.6452050204610116e-01 +7.7350907453616191e+00 -6.3620972677138410e-01 -5.8789381963270991e+01 +6.5334843982205402e+03 +1.2416655438205990e+05 -3.3189143803494986e+07 
-5.9000000000000004e+00 -5.6452059548353084e-01 +7.7351046480766783e+00 -6.3740543063945609e-01 -5.9005668516711182e+01 +6.5331445581256185e+03 +1.2446810357180830e+05 -3.3184106389186732e+07 
-5.9999999999999902e+00 -5.6452069883621703e-01 +7.7351073358917199e+00 -6.3929394646259252e-01 -5.9028545028263395e+01 +6.5491220793677912e+03 +1.2410175291793693e+05 -3.3255638984245852e+07 
-6.0999999999999899e+00 -5.6452081221318751e-01 +7.7350982927330634e+00 -6.4190672575071250e-01 -5.8848437955447181e+01 +6.5821879972203596e+03 +1.2303354646662265e+05 -3.3407154548991367e+07 
-6.1999999999999904e+00 -5.6452093539100989e-01 +7.7350783095386246e+00 -6.4516120632031593e-01 -5.8480024956001095e+01 +6.6307915500260033e+03 +1.2132208437047241e+05 -3.3631900472010761e+07 
-6.2999999999999901e+00 -5.6452106806593216e-01 +7.7350484965563400e+00 -6.4894922648209463e-01 -5.7943920870626975e+01 +6.6928548745831904e+03 +1.1904879068494204e+05 -3.3920778437262103e+07 
-6.3999999999999897e+00 -5.6452120993435539e-01 +7.7350099640164904e+00 -6.5316260996873010e-01 -5.7260739891947708e+01 +6.7662999016957292e+03 +1.1629508547070515e+05 -3.4264689297756024e+07 
-6.4999999999999902e+00 -5.6452136069273784e-01 +7.7349638221261756e+00 -6.5769317353463930e-01 -5.6451095415534517e+01 +6.8490484954376225e+03 +1.1314238401821816e+05 -3.4654533726691134e+07 
-6.5999999999999899e+00 -5.6452152003783229e-01 +7.7349111810763764e+00 -6.6243271985984953e-01 -5.5535600239216834e+01 +6.9390223330112776e+03 +1.0967209800546794e+05 -3.5081211686169550e+07 
-6.6999999999999904e+00 -5.6452168766644528e-01 +7.7348531510321887e+00 -6.6727304284502131e-01 -5.4534866261823019e+01 +7.0341430019517129e+03 +1.0596563369922314e+05 -3.5535622875567161e+07 
-6.7999999999999901e+00 -5.6452186327559206e-01 +7.7347908421388452e+00 -6.7210592279953507e-01 -5.3469504664500754e+01 +7.1323319139790883e+03 +1.0210439304067752e+05 -3.6008666335381322e+07 
-6.8999999999999897e+00 -5.6452204656246197e-01 +7.7347253645157270e+00 -6.7682312784188892e-01 -5.2360125722162742e+01 +7.2315103362073078e+03 +9.8169772520669925e+04 -3.6491240605318703e+07 
-6.9999999999999902e+00 -5.6452223722445150e-01 +7.7346578282617582e+00 -6.8131641320003622e-01 -5.1227338953738453e+01 +7.3295993797207730e+03 +9.4243164038626928e+04 -3.6974243673570424e+07 
-7.0999999999999899e+00 -5.6452243495905330e-01 +7.7345893434486905e+00 -6.8547752545823759e-01 -5.0091752916726520e+01 +7.4245200851423315e+03 +9.0405953688495807e+04 -3.7448573393818244e+07 
-7.1999999999999904e+00 -5.6452263946405656e-01 +7.7345210201228252e+00 -6.8919818841244385e-01 -4.8973975259077179e+01 +7.5141931602277255e+03 +8.6739522089520993e+04 -3.7905126253565587e+07 
-7.2999999999999901e+00 -5.6452285043740069e-01 +7.7344539683026632e+00 -6.9237012148675781e-01 -4.7894612636722080e+01 +7.5965393284167558e+03 +8.3325243853932916e+04 -3.8334799024596281e+07 
-7.3999999999999897e+00 -5.6452306757721160e-01 +7.7343892979811022e+00 -6.9488502141227138e-01 -4.6874270772573141e+01 +7.6694789851654205e+03 +8.0244487942376712e+04 -3.8728487138700977e+07 
-7.4999999999999902e+00 -5.6452329058193274e-01 +7.7343281191197599e+00 -6.9663457504423099e-01 -4.5933554286027380e+01 +7.7309324503413982e+03 +7.7578616664627727e+04 -3.9077085910560444e+07 
-7.5999999999999899e+00 -5.6452351915007437e-01 +7.7342715416563115e+00 -6.9751045143922774e-01 -4.5093066895675882e+01 +7.7788198137719291e+03 +7.5408986833073024e+04 -3.9371489790363953e+07 
-7.6999999999999904e+00 -5.6452375298049917e-01 +7.7342206754935310e+00 -6.9740430333538406e-01 -4.4373411097223418e+01 +7.8110609775667899e+03 +7.3816947892683093e+04 -3.9602592599693544e+07 
-7.7999999999999901e+00 -5.6452399177227031e-01 +7.7341766305045256e+00 -6.9620776982978827e-01 -4.3795188306952539e+01 +7.8255756938855511e+03 +7.2883842739288331e+04 -3.9761287676283218e+07 
-7.8999999999999897e+00 -5.6452423522469242e-01 +7.7341405165324462e+00 -6.9381246778759786e-01 -4.3378998846488656e+01 +7.8202834262325696e+03 +7.2691007626055871e+04 -3.9838467275723264e+07 
-7.9999999999999902e+00 -5.6452448303732439e-01 +7.7341134433848184e+00 -6.9011000247304077e-01 -4.3145441841241329e+01 +7.7931035313375496e+03 +7.3319771832608778e+04 -3.9825023367282070e+07 
-8.0999999999999908e+00 -5.6452473494060729e-01 +7.7340962288589461e+00 -6.8503037798447552e-01 -4.3109745132616112e+01 +7.7426099777703967e+03 +7.4829391838376265e+04 -3.9714528023560323e+07 
-8.1999999999999904e+00 -5.6452499075999263e-01 +7.7340885614129773e+00 -6.7864561013447999e-01 -4.3265903531885883e+01 +7.6697858016498185e+03 +7.7190237439151999e+04 -3.9510468562092066e+07 
-8.2999999999999901e+00 -5.6452525033671175e-01 +7.7340898560281897e+00 -6.7106054505498824e-01 -4.3602660668956865e+01 +7.5761668771635877e+03 +8.0350352910989750e+04 -3.9218618803774059e+07 
-8.3999999999999897e+00 -5.6452551351193248e-01 +7.7340995277211269e+00 -6.6238003527280609e-01 -4.4108761147711341e+01 +7.4632891673913145e+03 +8.4257787849562825e+04 -3.8844752932234786e+07 
-8.4999999999999893e+00 -5.6452578012673726e-01 +7.7341169915368395e+00 -6.5270894376900657e-01 -4.4772950336741680e+01 +7.3326888106157803e+03 +8.8860595814271481e+04 -3.8394645917620152e+07 
-8.5999999999999908e+00 -5.6452605002205680e-01 +7.7341416625472599e+00 -6.4215214102651941e-01 -4.5583974337219487e+01 +7.1859020588438570e+03 +9.4106834161836872e+04 -3.7874073210609220e+07 
-8.6999999999999904e+00 -5.6452632303871753e-01 +7.7341729558641523e+00 -6.3081450920780680e-01 -4.6530580341638299e+01 +7.0244653544955609e+03 +9.9944566071571084e+04 -3.7288811102500141e+07 
-8.7999999999999794e+00 -5.6452659901746327e-01 +7.7342102866270919e+00 -6.1880093657130131e-01 -4.7601516294556049e+01 +6.8499152291654864e+03 +1.0632185859599186e+05 -3.6644636255297884e+07 
-8.8999999999999808e+00 -5.6452687779888400e-01 +7.7342530700132990e+00 -6.0621632875666442e-01 -4.8785531167077458e+01 +6.6637885077729434e+03 +1.1318678420912735e+05 -3.5947326645392336e+07 
-8.9999999999999805e+00 -5.6452715922346086e-01 +7.7343007212329571e+00 -5.9316559311652206e-01 -5.0071374841188003e+01 +6.4676220189550240e+03 +1.2048742018449619e+05 -3.5202660211566806e+07 
-9.0999999999999801e+00 -5.6452744313150605e-01 +7.7343526555337565e+00 -5.7975365611112650e-01 -5.1447798205872282e+01 +6.2629529145599945e+03 +1.2817184903863340e+05 -3.4416416341878928e+07 
-9.1999999999999797e+00 -5.6452772936324824e-01 +7.7344082882042340e+00 -5.6608544960498963e-01 -5.2903553290779236e+01 +6.0513184203375013e+03 +1.3618815939954130e+05 -3.3594374722574987e+07 
-9.2999999999999794e+00 -5.6452801775877004e-01 +7.7344670345690192e+00 -5.5226592162578214e-01 -5.4427393098327620e+01 +5.8342560274516190e+03 +1.4448444494479531e+05 -3.2742316209442224e+07 
-9.3999999999999808e+00 -5.6452830815797217e-01 +7.7345283099912496e+00 -5.3840002945925580e-01 -5.6008071681821278e+01 +5.6133033644263514e+03 +1.5300880485498472e+05 -3.1866022233576488e+07 
-9.4999999999999805e+00 -5.6452860040063513e-01 +7.7345915298766208e+00 -5.2459274358125230e-01 -5.7634344275002881e+01 +5.3899982723579269e+03 +1.6170934459947443e+05 -3.0971275157673027e+07 
-9.5999999999999801e+00 -5.6452889432637587e-01 +7.7346561096728843e+00 -5.1094904882166248e-01 -5.9294967261110017e+01 +5.1658788257332944e+03 +1.7053417569139291e+05 -3.0063858372682713e+07 
-9.6999999999999797e+00 -5.6452918977471245e-01 +7.7347214648730551e+00 -4.9757393943917200e-01 -6.0978698262751543e+01 +4.9424832345053264e+03 +1.7943141620186032e+05 -2.9149555821717814e+07 
-9.7999999999999794e+00 -5.6452948658492086e-01 +7.7347870110120116e+00 -4.8457242621285818e-01 -6.2674296058131731e+01 +4.7213499792549237e+03 +1.8834919029179052e+05 -2.8234152645227168e+07 
-9.8999999999999808e+00 -5.6452978459614966e-01 +7.7348521636681422e+00 -4.7204953315186776e-01 -6.4370520608783863e+01 +4.5040177484589922e+03 +1.9723562830552633e+05 -2.7323434881061159e+07 
-9.9999999999999805e+00 -5.6453008364740898e-01 +7.7349163384670785e+00 -4.6011029825150507e-01 -6.6056133101602640e+01 +4.2920254640676076e+03 +2.0603886722351736e+05 -2.6423189594694629e+07 
-1.0100000000000000e+01 -5.6453038362869312e-01 +7.7349789785362075e+00 -4.4884647801282423e-01 -6.7719545517737899e+01 +4.0868372951819333e+03 +2.1470418792321373e+05 -2.5539278970576704e+07 
