# multipoles
# s[mm] polynom_b[n=0][T/m^n] polynom_b[n=1][T/m^n] polynom_b[n=2][T/m^n] polynom_b[n=3][T/m^n] polynom_b[n=4][T/m^n] polynom_b[n=5][T/m^n] polynom_b[n=6][T/m^n] 
+0.0000000000000000e+00 -5.3668617689463383e-01 +7.3522305860151098e+00 -9.2502530743305655e-01 -4.3527832317028498e+01 +6.7476232532161193e+03 -1.0412056204759567e+04 -3.6471165634176485e+07 
+1.0000000000000001e-01 -5.3668634119845826e-01 +7.3522286401494119e+00 -9.2339706818736145e-01 -4.3405833066316575e+01 +6.7501677305210796e+03 -1.1027392648371811e+04 -3.6536519173306018e+07 
+2.0000000000000001e-01 -5.3668651841068271e-01 +7.3522319571074020e+00 -9.2169082599160013e-01 -4.3365984208625619e+01 +6.7550030071606043e+03 -1.1294126053492355e+04 -3.6620797153405592e+07 
+2.9999999999999999e-01 -5.3668670683514930e-01 +7.3522402352278524e+00 -9.1996641119323741e-01 -4.3403809609220161e+01 +6.7625263425496132e+03 -1.1231182324576581e+04 -3.6724252848065563e+07 
+4.0000000000000002e-01 -5.3668690477578929e-01 +7.3522531728472691e+00 -9.1828365588581140e-01 -4.3514833084192325e+01 +6.7731350381404072e+03 -1.0857487584005601e+04 -3.6847139753604241e+07 
+5.0000000000000000e-01 -5.3668711053645624e-01 +7.3522704683050399e+00 -9.1670239288429078e-01 -4.3694578552572182e+01 +6.7872264119383099e+03 -1.0191967298684931e+04 -3.6989711446779542e+07 
+5.9999999999999998e-01 -5.3668732242109640e-01 +7.3522918199420477e+00 -9.1528245099641037e-01 -4.3938569973559716e+01 +6.8051977130241994e+03 -9.2535467044321813e+03 -3.7152221194069535e+07 
+6.9999999999999996e-01 -5.3668753873360042e-01 +7.3523169260963197e+00 -9.1408365992410245e-01 -4.4242331210404352e+01 +6.8274462126922172e+03 -8.0611516331827152e+03 -3.7334922380875833e+07 
+8.0000000000000004e-01 -5.3668775777789768e-01 +7.3523454851137799e+00 -9.1316584849734406e-01 -4.4601386354158969e+01 +6.8543691658130774e+03 -6.6337066174420042e+03 -3.7538068309350699e+07 
+9.0000000000000002e-01 -5.3668797785791544e-01 +7.3523771953407859e+00 -9.1258884623192893e-01 -4.5011259467067411e+01 +6.8863638464024743e+03 -4.9901364927489585e+03 -3.7761912389544196e+07 
+1.0000000000000000e+00 -5.3668819727761574e-01 +7.3524117551286494e+00 -9.1241247840712447e-01 -4.5467474738277716e+01 +6.9238274477597342e+03 -3.1493654308994660e+03 -3.8006707645616993e+07 
+1.1000000000000001e+00 -5.3668841434098669e-01 +7.3524488628357449e+00 -9.1269657442998886e-01 -4.5965556505990811e+01 +6.9671572457594348e+03 -1.1303169358247426e+03 -3.8272707502965391e+07 
+1.2000000000000000e+00 -5.3668862735190581e-01 +7.3524882168234535e+00 -9.1350096047794205e-01 -4.6501029153595340e+01 +7.0167504548065626e+03 +1.0480855890607770e+03 -3.8560165095570110e+07 
+1.3000000000000000e+00 -5.3668883461436201e-01 +7.3525295154647292e+00 -9.1488546212248512e-01 -4.7069417334411796e+01 +7.0730042758738482e+03 +3.3669200629256065e+03 -3.8869333486205190e+07 
+1.3999999999999999e+00 -5.3668903443229987e-01 +7.3525724571332125e+00 -9.1690991068817917e-01 -4.7666245659933260e+01 +7.1363160230210078e+03 +5.8072639381433482e+03 -3.9200466286560267e+07 
+1.5000000000000000e+00 -5.3668922510967532e-01 +7.3526167402191716e+00 -9.1963412851266491e-01 -4.8287039144144316e+01 +7.2070828335796723e+03 +8.3501967009800446e+03 -3.9553816251887009e+07 
+1.6000000000000001e+00 -5.3668940495040285e-01 +7.3526620631181645e+00 -9.2311794684425474e-01 -4.8927322868148266e+01 +7.2857020178994217e+03 +1.0976797910296929e+04 -3.9929636970660739e+07 
+1.7000000000000000e+00 -5.3668957225843894e-01 +7.3527081242349688e+00 -9.2742119000367285e-01 -4.9582622087848293e+01 +7.3725707459310834e+03 +1.3668147794945238e+04 -4.0328181342052653e+07 
+1.8000000000000000e+00 -5.3668972533770587e-01 +7.3527546219870645e+00 -9.3260369034875601e-01 -5.0248462324355479e+01 +7.4680863427306540e+03 +1.6405327737850494e+04 -4.0749703009653069e+07 
+1.8999999999999999e+00 -5.3668986249211259e-01 +7.3528012548079973e+00 -9.3872527387232918e-01 -5.0920369451626499e+01 +7.5726460053000083e+03 +1.9169420751758858e+04 -4.1194454991179816e+07 
+2.0000000000000000e+00 -5.3668998202557994e-01 +7.3528477211371488e+00 -9.4584577060846775e-01 -5.1593869397078556e+01 +7.6866470025251529e+03 +2.1941509724704396e+04 -4.1662690635326765e+07 
+2.1000000000000001e+00 -5.3669008287113895e-01 +7.3528937324361392e+00 -9.5399804361566787e-01 -5.2264392545999492e+01 +7.8102623809869938e+03 +2.4701683160756013e+04 -4.2154256286520965e+07 
+2.2000000000000002e+00 -5.3669016647791457e-01 +7.3529390592985084e+00 -9.6310738719204891e-01 -5.2927263429336854e+01 +7.9427697012104245e+03 +2.7427772238283611e+04 -4.2667370737067290e+07 
+2.2999999999999998e+00 -5.3669023492376444e-01 +7.3529834888711516e+00 -9.7307228300326243e-01 -5.3577849146278737e+01 +8.0832232105018193e+03 +3.0097473605801923e+04 -4.3199847325184137e+07 
+2.3999999999999999e+00 -5.3669029028659165e-01 +7.3530268082905437e+00 -9.8379121280526582e-01 -5.4211516544313803e+01 +8.2306771516670997e+03 +3.2688482657524186e+04 -4.3749499351813018e+07 
+2.5000000000000000e+00 -5.3669033464420701e-01 +7.3530688046954671e+00 -9.9516266228351891e-01 -5.4823632577948217e+01 +8.3841858345119799e+03 +3.5178495594494896e+04 -4.4314140415599719e+07 
+2.6000000000000001e+00 -5.3669037007443077e-01 +7.3531092652130523e+00 -1.0070851154018861e+00 -5.5409563929548604e+01 +8.5428035304885507e+03 +3.7545207316206150e+04 -4.4891583916805945e+07 
+2.7000000000000002e+00 -5.3669039865513779e-01 +7.3531479769572545e+00 -1.0194570615582612e+00 -5.5964676961050401e+01 +8.7055846062055189e+03 +3.9766311137039193e+04 -4.5479643686673783e+07 
+2.7999999999999998e+00 -5.3669042246404219e-01 +7.3531847270390935e+00 -1.0321769894689865e+00 -5.6484338032247912e+01 +8.8715834075320399e+03 +4.1819500702148434e+04 -4.6076133436134793e+07 
+2.8999999999999999e+00 -5.3669044357896223e-01 +7.3532193025557202e+00 -1.0451433903484335e+00 -5.6963913188851478e+01 +9.0398543199106316e+03 +4.3682468209151884e+04 -4.6678867043652214e+07 
+3.0000000000000000e+00 -5.3669046407760057e-01 +7.3532514905900239e+00 -1.0582547590844504e+00 -5.7398768170396139e+01 +9.2094517894546498e+03 +4.5332904523930898e+04 -4.7285658650478654e+07 
+3.1000000000000001e+00 -5.3669048603768010e-01 +7.3532810782142377e+00 -1.0714095900969889e+00 -5.7784268511130783e+01 +9.3794302438398372e+03 +4.6748499753752578e+04 -4.7894322284755073e+07 
+3.2000000000000002e+00 -5.3669051153689618e-01 +7.3533078524822457e+00 -1.0845063831124042e+00 -5.8115779335844550e+01 +9.5488441990536048e+03 +4.7906942149520357e+04 -4.8502672360946484e+07 
+3.2999999999999998e+00 -5.3669054265284655e-01 +7.3533316004328979e+00 -1.0974436396933136e+00 -5.8388665471092295e+01 +9.7167481999401298e+03 +4.8785918789302035e+04 -4.9108523412656084e+07 
+3.3999999999999999e+00 -5.3669058146323689e-01 +7.3533521090893146e+00 -1.1101198624695394e+00 -5.8598291422037427e+01 +9.8821967966201446e+03 +4.9363115451025529e+04 -4.9709689959774844e+07 
+3.5000000000000000e+00 -5.3669063004555817e-01 +7.3533691654528397e+00 -1.1224335604331241e+00 -5.8740021222529776e+01 +1.0044244652502644e+04 +4.9616215832871269e+04 -5.0303987039082855e+07 
+3.6000000000000001e+00 -5.3669069047743045e-01 +7.3533825565048012e+00 -1.1342832407494188e+00 -5.8809218487113633e+01 +1.0201946378163933e+04 +4.9522901865742402e+04 -5.0889229387520000e+07 
+3.7000000000000002e+00 -5.3669076483633260e-01 +7.3533920692094892e+00 -1.1455674176108044e+00 -5.8801246513359224e+01 +1.0354356709525035e+04 +4.9060854361881880e+04 -5.1463232314812921e+07 
+3.7999999999999998e+00 -5.3669085519973081e-01 +7.3533974904999893e+00 -1.1561846082411009e+00 -5.8711467872814076e+01 +1.0500530424635985e+04 +4.8207750666803870e+04 -5.2023811290057689e+07 
+3.8999999999999999e+00 -5.3669096364507929e-01 +7.3533986072952136e+00 -1.1660333303332597e+00 -5.8535244925005777e+01 +1.0639522300345378e+04 +4.6941267702088691e+04 -5.2568781748857774e+07 
+4.0000000000000000e+00 -5.3669109224977518e-01 +7.3533952064801262e+00 -1.1750121097246464e+00 -5.8267939258621624e+01 +1.0770387246919045e+04 +4.5239078783532168e+04 -5.3095959702068426e+07 
+4.0999999999999996e+00 -5.3669124250676603e-01 +7.3533871765506058e+00 -1.1830409243586428e+00 -5.7907017804642237e+01 +1.0892303795759160e+04 +4.3089434597404244e+04 -5.3603078292053230e+07 
+4.2000000000000002e+00 -5.3669141358080397e-01 +7.3533747961599429e+00 -1.1901269457608543e+00 -5.7457752680644823e+01 +1.1004973300608419e+04 +4.0519012718119928e+04 -5.4087680776923425e+07 
+4.2999999999999998e+00 -5.3669160405683569e-01 +7.3533584375009760e+00 -1.1962994652072418e+00 -5.6927214536225591e+01 +1.1108233937042893e+04 +3.7563134860051490e+04 -5.4547292213548787e+07 
+4.4000000000000004e+00 -5.3669181251991560e-01 +7.3533384727718616e+00 -1.2015877756612938e+00 -5.6322474065291480e+01 +1.1201923923072498e+04 +3.4257122535609553e+04 -5.4979437890191428e+07 
+4.5000000000000000e+00 -5.3669203755506012e-01 +7.3533152741728918e+00 -1.2060211655446056e+00 -5.5650601903241949e+01 +1.1285881392443784e+04 +3.0636296414266111e+04 -5.5381642701902762e+07 
+4.5999999999999996e+00 -5.3669227774734041e-01 +7.3532892139123032e+00 -1.2096289215655880e+00 -5.4918668800697574e+01 +1.1359944455699799e+04 +2.6735977325572880e+04 -5.5751431459792957e+07 
+4.7000000000000002e+00 -5.3669253168189712e-01 +7.3532606642066911e+00 -1.2124403261805488e+00 -5.4133745609795675e+01 +1.1423951147260130e+04 +2.2591486100770719e+04 -5.6086328628095552e+07 
+4.7999999999999998e+00 -5.3669279794385649e-01 +7.3532299972816304e+00 -1.2144846586924607e+00 -5.3302903300661164e+01 +1.1477739451319889e+04 +1.8238143644151365e+04 -5.6383858459895663e+07 
+4.9000000000000004e+00 -5.3669307511839126e-01 +7.3531975853653515e+00 -1.2157911978759557e+00 -5.2433212765519940e+01 +1.1521147351371303e+04 +1.3711269751593367e+04 -5.6641545231864803e+07 
+5.0000000000000000e+00 -5.3669336179076232e-01 +7.3531638007002353e+00 -1.2163892130671652e+00 -5.1531745150702420e+01 +1.1554012659976583e+04 +9.0461850238659226e+03 -5.6856912432931751e+07 
+5.0999999999999996e+00 -5.3669365654626722e-01 +7.3531290155364681e+00 -1.2163079745315379e+00 -5.0605571654477494e+01 +1.1576173219467961e+04 +4.2782096173910377e+03 -5.7027483728763916e+07 
+5.2000000000000002e+00 -5.3669395797021957e-01 +7.3530936021371796e+00 -1.2155767455969202e+00 -4.9661763672294718e+01 +1.1587466748054481e+04 -5.5733592721809430e+02 -5.7150782216760695e+07 
+5.2999999999999998e+00 -5.3669426464799452e-01 +7.3530579327718444e+00 -1.2142247877294094e+00 -4.8707392588452350e+01 +1.1587730943021101e+04 -5.4251319548676793e+03 -5.7224330937078178e+07 
+5.4000000000000004e+00 -5.3669457516506314e-01 +7.3530223797279266e+00 -1.2122813556880108e+00 -4.7749530122849499e+01 +1.1576803384749965e+04 -1.0289857681513025e+04 -5.7245652404703602e+07 
+5.5000000000000000e+00 -5.3669488810687915e-01 +7.3529873153008101e+00 -1.2097756992329414e+00 -4.6795248005143542e+01 +1.1554521573793509e+04 -1.5116193182364816e+04 -5.7212268798000798e+07 
+5.5999999999999996e+00 -5.3669520205908228e-01 +7.3529531118003950e+00 -1.2067370633908430e+00 -4.5851618178058949e+01 +1.1520722930417878e+04 -1.9868818198747813e+04 -5.7121701942913800e+07 
+5.7000000000000002e+00 -5.3669551560721074e-01 +7.3529201415498475e+00 -1.2031946892334173e+00 -4.4925712735188043e+01 +1.1475244819590040e+04 -2.4512412582343160e+04 -5.6971473458105743e+07 
+5.7999999999999998e+00 -5.3669582733700250e-01 +7.3528887768905857e+00 -1.1991778117006762e+00 -4.4024604070332735e+01 +1.1417924499716355e+04 -2.9011655430114832e+04 -5.6759104485112637e+07 
+5.9000000000000004e+00 -5.3669613583417697e-01 +7.3528593901743253e+00 -1.1947156578024005e+00 -4.3155364630881778e+01 +1.1348599097112105e+04 -3.3331226573703723e+04 -5.6482115590790130e+07 
+5.9999999999999902e+00 -5.3669643968463621e-01 +7.3528323537723344e+00 -1.1898374510742000e+00 -4.2325067174849572e+01 +1.1267105686786159e+04 -3.7435805198965340e+04 -5.6138027146616325e+07 
+6.0999999999999899e+00 -5.3669673780321880e-01 +7.3528079514821645e+00 -1.1845763019617426e+00 -4.1539329510295630e+01 +1.1173503437467374e+04 -4.1297821224686391e+04 -5.5725748722111300e+07 
+6.1999999999999904e+00 -5.3669703040754213e-01 +7.3527861409773303e+00 -1.1789793251960006e+00 -4.0798702144204903e+01 +1.1068723324330607e+04 -4.4916253129685014e+04 -5.5249645893218070e+07 
+6.2999999999999901e+00 -5.3669731803757603e-01 +7.3527668053742223e+00 -1.1730968095769410e+00 -4.0102657624272069e+01 +1.0953911823260472e+04 -4.8295616186166910e+04 -5.4715433233341895e+07 
+6.3999999999999897e+00 -5.3669760123327293e-01 +7.3527498277907268e+00 -1.1669790414701375e+00 -3.9450668637706045e+01 +1.0830215369894870e+04 -5.1440424587061068e+04 -5.4128825139186464e+07 
+6.4999999999999902e+00 -5.3669788053448519e-01 +7.3527350913558012e+00 -1.1606763122536183e+00 -3.8842208279760470e+01 +1.0698780504892646e+04 -5.4355189869745256e+04 -5.3495536536925979e+07 
+6.5999999999999899e+00 -5.3669815648118668e-01 +7.3527224792020256e+00 -1.1542389101350496e+00 -3.8276749832401897e+01 +1.0560753714259450e+04 -5.7044422207979696e+04 -5.2821282109008536e+07 
+6.6999999999999904e+00 -5.3669842961323433e-01 +7.3527118744667206e+00 -1.1477171265065784e+00 -3.7753766824368135e+01 +1.0417281552060282e+04 -5.9512629988603447e+04 -5.2111776885587819e+07 
+6.7999999999999901e+00 -5.3669870047051749e-01 +7.3527031602985620e+00 -1.1411612514220353e+00 -3.7272733208599504e+01 +1.0269510558967115e+04 -6.1764318809350327e+04 -5.1372735866880111e+07 
+6.8999999999999897e+00 -5.3669896959289998e-01 +7.3526962198470853e+00 -1.1346215760953222e+00 -3.6833123073047844e+01 +1.0118587300853171e+04 -6.3803993118012644e+04 -5.0609874184052423e+07 
+6.9999999999999902e+00 -5.3669923752025284e-01 +7.3526909362742456e+00 -1.1281483930665803e+00 -3.6434410979886295e+01 +9.9656583802819532e+03 -6.5636154224148602e+04 -4.9828907177371927e+07 
+7.0999999999999899e+00 -5.3669950479237805e-01 +7.3526871927463544e+00 -1.1217919957110785e+00 -3.6076071731143358e+01 +9.8118704255326029e+03 -6.7265301656350770e+04 -4.9035550337253138e+07 
+7.1999999999999904e+00 -5.3669977194908192e-01 +7.3526848724386671e+00 -1.1156026781127562e+00 -3.5757580517004698e+01 +9.6583700845862131e+03 -6.8695932256342101e+04 -4.8235519268202014e+07 
+7.2999999999999901e+00 -5.3670003953018364e-01 +7.3526838585337542e+00 -1.1096307349862531e+00 -3.5478412859260033e+01 +9.5063040290935642e+03 -6.9932540526447207e+04 -4.7434529720673531e+07 
+7.3999999999999897e+00 -5.3670030807540314e-01 +7.3526840342206530e+00 -1.1039264614863411e+00 -3.5238044608908915e+01 +9.3568189467377197e+03 -7.0979618581090472e+04 -4.6638297545633145e+07 
+7.4999999999999902e+00 -5.3670057812455763e-01 +7.3526852826977231e+00 -1.0985401559683776e+00 -3.5035952023367138e+01 +9.2110615980070797e+03 -7.1841655703637633e+04 -4.5852538975004993e+07 
+7.5999999999999899e+00 -5.3670085021729852e-01 +7.3526874871707983e+00 -1.0935221155865509e+00 -3.4871611715810189e+01 +9.0701787290768698e+03 -7.2523138633713970e+04 -4.5082970198075064e+07 
+7.6999999999999904e+00 -5.3670112489335475e-01 +7.3526905308572879e+00 -1.0889226392646387e+00 -3.4744500785634095e+01 +8.9353171305243377e+03 -7.3028550771170267e+04 -4.4335307648282275e+07 
+7.7999999999999901e+00 -5.3670140269242372e-01 +7.3526942969785232e+00 -1.0847920279596097e+00 -3.4654096599706747e+01 +8.8076236407852193e+03 -7.3362373432210064e+04 -4.3615268013980582e+07 
+7.8999999999999897e+00 -5.3670168415413877e-01 +7.3526986687668510e+00 -1.0811805823515361e+00 -3.4599877010137646e+01 +8.6882451048590156e+03 -7.3529084545175341e+04 -4.2928568048494041e+07 
+7.9999999999999902e+00 -5.3670196981814600e-01 +7.3527035294626888e+00 -1.0781386059209681e+00 -3.4581320242063867e+01 +8.5783284344162075e+03 -7.3533159236784777e+04 -4.2280924853154868e+07 
+8.0999999999999908e+00 -5.3670226024255907e-01 +7.3527087852352775e+00 -1.0757042027078141e+00 -3.4597746051499570e+01 +8.4788156402022851e+03 -7.3379659180856921e+04 -4.1677183957694754e+07 
+8.1999999999999904e+00 -5.3670255606285699e-01 +7.3527144222584582e+00 -1.0738674188484538e+00 -3.4647725168678889e+01 +8.3898110496051722e+03 -7.3076199619022329e+04 -4.1118628128011167e+07 
+8.2999999999999901e+00 -5.3670285793475336e-01 +7.3527204437254543e+00 -1.0726063972225044e+00 -3.4729606199371538e+01 +8.3112039331869491e+03 -7.2631082974058503e+04 -4.0605626237153754e+07 
+8.3999999999999897e+00 -5.3670316651399308e-01 +7.3527268528196856e+00 -1.0718992812382750e+00 -3.4841737568264911e+01 +8.2428835682755434e+03 -7.2052612038390900e+04 -4.0138547190652378e+07 
+8.4999999999999893e+00 -5.3670348245634303e-01 +7.3527336527098841e+00 -1.0717242156627751e+00 -3.4982467372679167e+01 +8.1847392541473919e+03 -7.1349090968926612e+04 -3.9717759985931598e+07 
+8.5999999999999908e+00 -5.3670380641753634e-01 +7.3527408465533464e+00 -1.0720593439408401e+00 -3.5150143480219093e+01 +8.1366602614540425e+03 -7.0528824701268954e+04 -3.9343633471862778e+07 
+8.6999999999999904e+00 -5.3670413905327408e-01 +7.3527484374959942e+00 -1.0728828183924355e+00 -3.5343113543274335e+01 +8.0985360289230703e+03 -6.9600118828341831e+04 -3.9016537291956276e+07 
+8.7999999999999794e+00 -5.3670448101931290e-01 +7.3527564286694140e+00 -1.0741727848383840e+00 -3.5559724896643317e+01 +8.0702558640835441e+03 -6.8571280226500705e+04 -3.8736840442936100e+07 
+8.8999999999999808e+00 -5.3670483297142679e-01 +7.3527648231935174e+00 -1.0759073923145308e+00 -3.5798324661780136e+01 +8.0517091364422022e+03 -6.7450616368806193e+04 -3.8504912213757046e+07 
+8.9999999999999805e+00 -5.3670519556529728e-01 +7.3527736241689752e+00 -1.0780647951493392e+00 -3.6057259505163366e+01 +8.0427853077733271e+03 -6.6246436780944874e+04 -3.8321122308352150e+07 
+9.0999999999999801e+00 -5.3670556945668813e-01 +7.3527828346908892e+00 -1.0806231426917068e+00 -3.6334876055230794e+01 +8.0433737444932667e+03 -6.4967050557900009e+04 -3.8185839970330395e+07 
+9.1999999999999797e+00 -5.3670595530129639e-01 +7.3527924578308923e+00 -1.0835605932305798e+00 -3.6629520376647143e+01 +8.0533639753577709e+03 -6.3620769424436687e+04 -3.8099435192927279e+07 
+9.2999999999999794e+00 -5.3670635375488696e-01 +7.3528024966499164e+00 -1.0868553018396281e+00 -3.6939538348349188e+01 +8.0726454659947149e+03 -6.2215905511108787e+04 -3.8062277658867814e+07 
+9.3999999999999808e+00 -5.3670676547317442e-01 +7.3528129541940093e+00 -1.0904854242987472e+00 -3.7263275536028218e+01 +8.1011076897543244e+03 -6.0760772103826188e+04 -3.8074737068861939e+07 
+9.4999999999999805e+00 -5.3670719111187215e-01 +7.3528238334932849e+00 -1.0944291213510910e+00 -3.7599077182197846e+01 +8.1386402094495961e+03 -5.9263683637924230e+04 -3.8137183532415800e+07 
+9.5999999999999801e+00 -5.3670763132669108e-01 +7.3528351375548278e+00 -1.0986645553063099e+00 -3.7945287982968097e+01 +8.1851326106111883e+03 -5.7732957031255472e+04 -3.8249987243393660e+07 
+9.6999999999999797e+00 -5.3670808677339865e-01 +7.3528468693801896e+00 -1.1031698865763335e+00 -3.8300252605447120e+01 +8.2404744414367469e+03 -5.6176908645661206e+04 -3.8413518211643614e+07 
+9.7999999999999794e+00 -5.3670855810767593e-01 +7.3528590319426570e+00 -1.1079232810982540e+00 -3.8662315043796504e+01 +8.3045553463565193e+03 -5.4603857978575477e+04 -3.8628146875485584e+07 
+9.8999999999999808e+00 -5.3670904598522751e-01 +7.3528716282021565e+00 -1.1129029062313607e+00 -3.9029819028123342e+01 +8.3772649894363403e+03 -5.3022125339743070e+04 -3.8894243743359342e+07 
+9.9999999999999805e+00 -5.3670955106180140e-01 +7.3528846611061294e+00 -1.1180869294502698e+00 -3.9401108096164478e+01 +8.4584930329470008e+03 -5.1440031171435367e+04 -3.9212179286140442e+07 
+1.0100000000000000e+01 -5.3671007367627366e-01 +7.3528981298874214e+00 -1.1234500451588099e+00 -3.9774770160475008e+01 +8.5479606777132503e+03 -4.9863731039457576e+04 -3.9581270301789641e+07 
