# field on trajectory
# s[mm] rx[mm] ry[mm] rz[mm] bx[T] by[T] bz[T]
0.0000000000000000e+00 +8.1529999999999987e+00 +0.0000000000000000e+00 +0.0000000000000000e+00 -2.8971919355836050e-02 -5.3653616786176650e-01 +5.3102949305727492e-03
-1.0000000000000001e-01 +8.1529997171219826e+00 +0.0000000000000000e+00 -9.9999999999466530e-02 -2.8971820921821045e-02 -5.3653615167800639e-01 +5.3102640964457154e-03
-2.0000000000000001e-01 +8.1529988684879449e+00 +0.0000000000000000e+00 -1.9999999999573226e-01 -2.8971722643177891e-02 -5.3653614337669076e-01 +5.3102352629933076e-03
-3.0000000000000004e-01 +8.1529974540978944e+00 +0.0000000000000000e+00 -2.9999999998559640e-01 -2.8971624461017611e-02 -5.3653614297571228e-01 +5.3102084011330585e-03
-4.0000000000000002e-01 +8.1529954739518313e+00 +0.0000000000000000e+00 -3.9999999996585817e-01 -2.8971526316464317e-02 -5.3653615049296810e-01 +5.3101834817830974e-03
-5.0000000000000000e-01 +8.1529929280497466e+00 +0.0000000000000000e+00 -4.9999999993331673e-01 -2.8971428150654885e-02 -5.3653616594635933e-01 +5.3101604758621617e-03
-5.9999999999999998e-01 +8.1529898163916261e+00 +0.0000000000000000e+00 -5.9999999988477126e-01 -2.8971329904738718e-02 -5.3653618935379199e-01 +5.3101393542896551e-03
-6.9999999999999996e-01 +8.1529861389774432e+00 +0.0000000000000000e+00 -6.9999999981702099e-01 -2.8971231519877495e-02 -5.3653622073317786e-01 +5.3101200879856637e-03
-7.9999999999999993e-01 +8.1529818958071658e+00 +0.0000000000000000e+00 -7.9999999972686520e-01 -2.8971132937244876e-02 -5.3653626010243360e-01 +5.3101026478710048e-03
-8.9999999999999991e-01 +8.1529770868807532e+00 +0.0000000000000000e+00 -8.9999999961110300e-01 -2.8971034098026233e-02 -5.3653630747948322e-01 +5.3100870048672531e-03
-9.9999999999999989e-01 +8.1529717121981555e+00 +0.0000000000000000e+00 -9.9999999946653362e-01 -2.8970934943418375e-02 -5.3653636288225603e-01 +5.3100731298967863e-03
-1.0999999999999999e+00 +8.1529657717593143e+00 +0.0000000000000000e+00 -1.0999999992899563e+00 -2.8970835414629317e-02 -5.3653642632868936e-01 +5.3100609938828034e-03
-1.2000000000000000e+00 +8.1529592655641618e+00 +0.0000000000000000e+00 -1.1999999990781700e+00 -2.8970735452877990e-02 -5.3653649783672741e-01 +5.3100505677493737e-03
-1.3000000000000000e+00 +8.1529521936126237e+00 +0.0000000000000000e+00 -1.2999999988279742e+00 -2.8970634999393931e-02 -5.3653657742432237e-01 +5.3100418224214649e-03
-1.4000000000000001e+00 +8.1529445559046163e+00 +0.0000000000000000e+00 -1.3999999985361680e+00 -2.8970533995417103e-02 -5.3653666510943443e-01 +5.3100347288249873e-03
-1.5000000000000002e+00 +8.1529363524400473e+00 +0.0000000000000000e+00 -1.4999999981995504e+00 -2.8970432382197524e-02 -5.3653676091003288e-01 +5.3100292578868108e-03
-1.6000000000000003e+00 +8.1529275832188155e+00 +0.0000000000000000e+00 -1.5999999978149209e+00 -2.8970330100995076e-02 -5.3653686484409524e-01 +5.3100253805348193e-03
-1.7000000000000004e+00 +8.1529182482408125e+00 +0.0000000000000000e+00 -1.6999999973790785e+00 -2.8970227093079205e-02 -5.3653697692960967e-01 +5.3100230676979328e-03
-1.8000000000000005e+00 +8.1529083475059192e+00 +0.0000000000000000e+00 -1.7999999968888223e+00 -2.8970123299728669e-02 -5.3653709718457376e-01 +5.3100222903061508e-03
-1.9000000000000006e+00 +8.1528978810140114e+00 +0.0000000000000000e+00 -1.8999999963409517e+00 -2.8970018662231228e-02 -5.3653722562699468e-01 +5.3100230192905749e-03
-2.0000000000000004e+00 +8.1528868487649522e+00 +0.0000000000000000e+00 -1.9999999957322658e+00 -2.8969913121883434e-02 -5.3653736227489168e-01 +5.3100252255834628e-03
-2.1000000000000005e+00 +8.1528752507585978e+00 +0.0000000000000000e+00 -2.0999999950595636e+00 -2.8969806723345565e-02 -5.3653750713725967e-01 +5.3100288905405593e-03
-2.2000000000000006e+00 +8.1528630869947953e+00 +0.0000000000000000e+00 -2.1999999943196444e+00 -2.8969699924701265e-02 -5.3653766018696547e-01 +5.3100340372075859e-03
-2.3000000000000007e+00 +8.1528503574733850e+00 +0.0000000000000000e+00 -2.2999999935093074e+00 -2.8969593287380257e-02 -5.3653782138784967e-01 +5.3100406990523857e-03
-2.4000000000000008e+00 +8.1528370621941963e+00 +0.0000000000000000e+00 -2.3999999926253519e+00 -2.8969487372799283e-02 -5.3653799070375741e-01 +5.3100489095423472e-03
-2.5000000000000009e+00 +8.1528232011570516e+00 +0.0000000000000000e+00 -2.4999999916645770e+00 -2.8969382742359870e-02 -5.3653816809854193e-01 +5.3100587021442779e-03
-2.6000000000000010e+00 +8.1528087743617643e+00 +0.0000000000000000e+00 -2.5999999906237816e+00 -2.8969279957445904e-02 -5.3653835353606116e-01 +5.3100701103242472e-03
-2.7000000000000011e+00 +8.1527937818081408e+00 +0.0000000000000000e+00 -2.6999999894997648e+00 -2.8969179579421356e-02 -5.3653854698017944e-01 +5.3100831675474665e-03
-2.8000000000000012e+00 +8.1527782234959751e+00 +0.0000000000000000e+00 -2.7999999882893261e+00 -2.8969082169627947e-02 -5.3653874839476712e-01 +5.3100979072781378e-03
-2.9000000000000012e+00 +8.1527620994250576e+00 +0.0000000000000000e+00 -2.8999999869892643e+00 -2.8968988289382800e-02 -5.3653895774369886e-01 +5.3101143629793205e-03
-3.0000000000000013e+00 +8.1527454095951661e+00 +0.0000000000000000e+00 -2.9999999855963790e+00 -2.8968898499976109e-02 -5.3653917499085613e-01 +5.3101325681127890e-03
-3.1000000000000014e+00 +8.1527281540060734e+00 +0.0000000000000000e+00 -3.0999999841074688e+00 -2.8968813362668797e-02 -5.3653940010012457e-01 +5.3101525561388982e-03
-3.2000000000000015e+00 +8.1527103326575414e+00 +0.0000000000000000e+00 -3.1999999825193330e+00 -2.8968733438690244e-02 -5.3653963303539520e-01 +5.3101743605164431e-03
-3.3000000000000016e+00 +8.1526919455493250e+00 +0.0000000000000000e+00 -3.2999999808287708e+00 -2.8968659289235883e-02 -5.3653987376056356e-01 +5.3101980147025251e-03
-3.4000000000000017e+00 +8.1526729926811718e+00 +0.0000000000000000e+00 -3.3999999790325814e+00 -2.8968591475464902e-02 -5.3654012223953007e-01 +5.3102235521523978e-03
-3.5000000000000018e+00 +8.1526534740528209e+00 +0.0000000000000000e+00 -3.4999999771275636e+00 -2.8968530558497900e-02 -5.3654037843619895e-01 +5.3102510063193454e-03
-3.6000000000000019e+00 +8.1526333896640022e+00 +0.0000000000000000e+00 -3.5999999751105167e+00 -2.8968477099414580e-02 -5.3654064231447951e-01 +5.3102804106545387e-03
-3.7000000000000020e+00 +8.1526127395144385e+00 +0.0000000000000000e+00 -3.6999999729782398e+00 -2.8968431659251417e-02 -5.3654091383828473e-01 +5.3103117986068931e-03
-3.8000000000000020e+00 +8.1525915236038440e+00 +0.0000000000000000e+00 -3.7999999707275323e+00 -2.8968394798999261e-02 -5.3654119297153091e-01 +5.3103452036229295e-03
-3.9000000000000021e+00 +8.1525697419319236e+00 +0.0000000000000000e+00 -3.8999999683551927e+00 -2.8968367079601084e-02 -5.3654147967813903e-01 +5.3103806591466426e-03
-4.0000000000000018e+00 +8.1525473944983773e+00 +0.0000000000000000e+00 -3.9999999658580205e+00 -2.8968349061949637e-02 -5.3654177392203328e-01 +5.3104181986193544e-03
-4.1000000000000014e+00 +8.1525244813028959e+00 +0.0000000000000000e+00 -4.0999999632328148e+00 -2.8968341131103515e-02 -5.3654207559065970e-01 +5.3104578452550927e-03
-4.2000000000000011e+00 +8.1525010023451614e+00 +0.0000000000000000e+00 -4.1999999604763740e+00 -2.8968342968965458e-02 -5.3654238426553758e-01 +5.3104995813675190e-03
-4.3000000000000007e+00 +8.1524769576248488e+00 +0.0000000000000000e+00 -4.2999999575854977e+00 -2.8968354081672299e-02 -5.3654269945168886e-01 +5.3105433790442943e-03
-4.4000000000000004e+00 +8.1524523471416259e+00 +0.0000000000000000e+00 -4.3999999545569848e+00 -2.8968373975385521e-02 -5.3654302065411597e-01 +5.3105892103716933e-03
-4.5000000000000000e+00 +8.1524271708951570e+00 +0.0000000000000000e+00 -4.4999999513876343e+00 -2.8968402156293534e-02 -5.3654334737779930e-01 +5.3106370474345624e-03
-4.5999999999999996e+00 +8.1524014288850957e+00 +0.0000000000000000e+00 -4.5999999480742453e+00 -2.8968438130614046e-02 -5.3654367912769718e-01 +5.3106868623162759e-03
-4.6999999999999993e+00 +8.1523751211110955e+00 +0.0000000000000000e+00 -4.6999999446136167e+00 -2.8968481404596437e-02 -5.3654401540874408e-01 +5.3107386270987269e-03
-4.7999999999999989e+00 +8.1523482475728013e+00 +0.0000000000000000e+00 -4.7999999410025476e+00 -2.8968531484524052e-02 -5.3654435572584847e-01 +5.3107923138622530e-03
-4.8999999999999986e+00 +8.1523208082698559e+00 +0.0000000000000000e+00 -4.8999999372378378e+00 -2.8968587876716610e-02 -5.3654469958389250e-01 +5.3108478946856282e-03
-4.9999999999999982e+00 +8.1522928032018971e+00 +0.0000000000000000e+00 -4.9999999333162854e+00 -2.8968650087532473e-02 -5.3654504648772972e-01 +5.3109053416460139e-03
-5.0999999999999979e+00 +8.1522642323685606e+00 +0.0000000000000000e+00 -5.0999999292346896e+00 -2.8968717623371065e-02 -5.3654539594218376e-01 +5.3109646268189219e-03
-5.1999999999999975e+00 +8.1522350957694787e+00 +0.0000000000000000e+00 -5.1999999249898492e+00 -2.8968789990675172e-02 -5.3654574745204697e-01 +5.3110257222781908e-03
-5.2999999999999972e+00 +8.1522053934042802e+00 +0.0000000000000000e+00 -5.2999999205785633e+00 -2.8968866695933303e-02 -5.3654610052207985e-01 +5.3110886000959315e-03
-5.3999999999999968e+00 +8.1521751252725956e+00 +0.0000000000000000e+00 -5.3999999159976309e+00 -2.8968947245682056e-02 -5.3654645465700779e-01 +5.3111532323425062e-03
-5.4999999999999964e+00 +8.1521442913740518e+00 +0.0000000000000000e+00 -5.4999999112438509e+00 -2.8969031146508402e-02 -5.3654680936152122e-01 +5.3112195910864782e-03
-5.5999999999999961e+00 +8.1521128917082759e+00 +0.0000000000000000e+00 -5.5999999063140224e+00 -2.8969117905052109e-02 -5.3654716414027326e-01 +5.3112876483945868e-03
-5.6999999999999957e+00 +8.1520809262748948e+00 +0.0000000000000000e+00 -5.6999999012049445e+00 -2.8969207028008061e-02 -5.3654751849787929e-01 +5.3113573763317089e-03
-5.7999999999999954e+00 +8.1520483950735372e+00 +0.0000000000000000e+00 -5.7999998959134160e+00 -2.8969298022128564e-02 -5.3654787193891407e-01 +5.3114287469608222e-03
-5.8999999999999950e+00 +8.1520152981038301e+00 +0.0000000000000000e+00 -5.8999998904362352e+00 -2.8969390394225764e-02 -5.3654822396791158e-01 +5.3115017323429612e-03
-5.9999999999999947e+00 +8.1519816353654040e+00 +0.0000000000000000e+00 -5.9999998847702019e+00 -2.8969483651173918e-02 -5.3654857408936307e-01 +5.3115763045371942e-03
-6.0999999999999943e+00 +8.1519474068578894e+00 +0.0000000000000000e+00 -6.0999998789121150e+00 -2.8969577206622070e-02 -5.3654892191552939e-01 +5.3116524248427322e-03
-6.1999999999999940e+00 +8.1519126125809223e+00 +0.0000000000000000e+00 -6.1999998728587729e+00 -2.8969670101091305e-02 -5.3654926748989717e-01 +5.3117300115266310e-03
-6.2999999999999936e+00 +8.1518772525341383e+00 +0.0000000000000000e+00 -6.2999998666069752e+00 -2.8969761281784741e-02 -5.3654961096375009e-01 +5.3118089720999209e-03
-6.3999999999999932e+00 +8.1518413267171770e+00 +0.0000000000000000e+00 -6.3999998601535202e+00 -2.8969849695867557e-02 -5.3654995248835735e-01 +5.3118892140760002e-03
-6.4999999999999929e+00 +8.1518048351296795e+00 +0.0000000000000000e+00 -6.4999998534952068e+00 -2.8969934290465207e-02 -5.3655029221497152e-01 +5.3119706449707878e-03
-6.5999999999999925e+00 +8.1517677777712887e+00 +0.0000000000000000e+00 -6.5999998466288341e+00 -2.8970014012661582e-02 -5.3655063029483141e-01 +5.3120531723028462e-03
-6.6999999999999922e+00 +8.1517301546416494e+00 +0.0000000000000000e+00 -6.6999998395512010e+00 -2.8970087809497006e-02 -5.3655096687915915e-01 +5.3121367035935197e-03
-6.7999999999999918e+00 +8.1516919657404063e+00 +0.0000000000000000e+00 -6.7999998322591066e+00 -2.8970154627966559e-02 -5.3655130211916202e-01 +5.3122211463670702e-03
-6.8999999999999915e+00 +8.1516532110672095e+00 +0.0000000000000000e+00 -6.8999998247493499e+00 -2.8970213415018091e-02 -5.3655163616603108e-01 +5.3123064081508206e-03
-6.9999999999999911e+00 +8.1516138906217073e+00 +0.0000000000000000e+00 -6.9999998170187290e+00 -2.8970263117550400e-02 -5.3655196917094128e-01 +5.3123923964752771e-03
-7.0999999999999908e+00 +8.1515740044035478e+00 +0.0000000000000000e+00 -7.0999998090640437e+00 -2.8970302682411384e-02 -5.3655230128505194e-01 +5.3124790188742730e-03
-7.1999999999999904e+00 +8.1515335524123849e+00 +0.0000000000000000e+00 -7.1999998008820922e+00 -2.8970331056396143e-02 -5.3655263265950537e-01 +5.3125661828851006e-03
-7.2999999999999901e+00 +8.1514925346478684e+00 +0.0000000000000000e+00 -7.2999997924696736e+00 -2.8970347186245173e-02 -5.3655296344542813e-01 +5.3126537960486485e-03
-7.3999999999999897e+00 +8.1514509511096520e+00 +0.0000000000000000e+00 -7.3999997838235867e+00 -2.8970350018642455e-02 -5.3655329379393013e-01 +5.3127417659095382e-03
-7.4999999999999893e+00 +8.1514088017973876e+00 +0.0000000000000000e+00 -7.4999997749406306e+00 -2.8970338500213643e-02 -5.3655362385610406e-01 +5.3128300000162528e-03
-7.5999999999999890e+00 +8.1513660867107305e+00 +0.0000000000000000e+00 -7.5999997658176035e+00 -2.8970311577524149e-02 -5.3655395378302684e-01 +5.3129184059212825e-03
-7.6999999999999886e+00 +8.1513228058493326e+00 +0.0000000000000000e+00 -7.6999997564513052e+00 -2.8970268197077334e-02 -5.3655428372575731e-01 +5.3130068911812472e-03
-7.7999999999999883e+00 +8.1512789592128474e+00 +0.0000000000000000e+00 -7.7999997468385338e+00 -2.8970207305312606e-02 -5.3655461383533731e-01 +5.3130953633570410e-03
-7.8999999999999879e+00 +8.1512345468009286e+00 +0.0000000000000000e+00 -7.8999997369760884e+00 -2.8970127848603613e-02 -5.3655494426279227e-01 +5.3131837300139659e-03
-7.9999999999999876e+00 +8.1511895686132281e+00 +0.0000000000000000e+00 -7.9999997268607679e+00 -2.8970028773256336e-02 -5.3655527515912926e-01 +5.3132718987218613e-03
-8.0999999999999872e+00 +8.1511440246493994e+00 +0.0000000000000000e+00 -8.0999997164893713e+00 -2.8969909505867534e-02 -5.3655560670075608e-01 +5.3133598095388224e-03
-8.1999999999999869e+00 +8.1510979149090943e+00 +0.0000000000000000e+00 -8.1999997058586960e+00 -2.8969771394456740e-02 -5.3655593916576305e-01 +5.3134475324606622e-03
-8.2999999999999865e+00 +8.1510512393919630e+00 +0.0000000000000000e+00 -8.2999996949655426e+00 -2.8969616267442221e-02 -5.3655627285771279e-01 +5.3135351699652323e-03
-8.3999999999999861e+00 +8.1510039980976572e+00 +0.0000000000000000e+00 -8.3999996838067084e+00 -2.8969445953283553e-02 -5.3655660808023253e-01 +5.3136228245276263e-03
-8.4999999999999858e+00 +8.1509561910258217e+00 +0.0000000000000000e+00 -8.4999996723789941e+00 -2.8969262280483053e-02 -5.3655694513701446e-01 +5.3137105986200703e-03
-8.5999999999999854e+00 +8.1509078181761048e+00 +0.0000000000000000e+00 -8.5999996606791971e+00 -2.8969067077587500e-02 -5.3655728433181937e-01 +5.3137985947118160e-03
-8.6999999999999851e+00 +8.1508588795481494e+00 +0.0000000000000000e+00 -8.6999996487041162e+00 -2.8968862173189603e-02 -5.3655762596847822e-01 +5.3138869152690804e-03
-8.7999999999999847e+00 +8.1508093751415984e+00 +0.0000000000000000e+00 -8.7999996364505506e+00 -2.8968649395929507e-02 -5.3655797035089392e-01 +5.3139756627549163e-03
-8.8999999999999844e+00 +8.1507593049560896e+00 +0.0000000000000000e+00 -8.8999996239152992e+00 -2.8968430574496429e-02 -5.3655831778304475e-01 +5.3140649396291317e-03
-8.9999999999999840e+00 +8.1507086689912569e+00 +0.0000000000000000e+00 -8.9999996110951610e+00 -2.8968207537630245e-02 -5.3655866856898593e-01 +5.3141548483482065e-03
-9.0999999999999837e+00 +8.1506574672467327e+00 +0.0000000000000000e+00 -9.0999995979869333e+00 -2.8967982114122923e-02 -5.3655902301285185e-01 +5.3142454913651807e-03
-9.1999999999999833e+00 +8.1506056997221457e+00 +0.0000000000000000e+00 -9.1999995845874167e+00 -2.8967756132820179e-02 -5.3655938141885928e-01 +5.3143369711295694e-03
-9.2999999999999829e+00 +8.1505533664171175e+00 +0.0000000000000000e+00 -9.2999995708934087e+00 -2.8967531422622983e-02 -5.3655974409130702e-01 +5.3144293900872679e-03
-9.3999999999999826e+00 +8.1505004673312698e+00 +0.0000000000000000e+00 -9.3999995569017081e+00 -2.8967309812489121e-02 -5.3656011133458203e-01 +5.3145228506804578e-03
-9.4999999999999822e+00 +8.1504470024642153e+00 +0.0000000000000000e+00 -9.4999995426091139e+00 -2.8967093131434783e-02 -5.3656048345315832e-01 +5.3146174553475112e-03
-9.5999999999999819e+00 +8.1503929718155632e+00 +0.0000000000000000e+00 -9.5999995280124253e+00 -2.8966883208536059e-02 -5.3656086075160103e-01 +5.3147133065228969e-03
-9.6999999999999815e+00 +8.1503383753849192e+00 +0.0000000000000000e+00 -9.6999995131084393e+00 -2.8966681872930510e-02 -5.3656124353456758e-01 +5.3148105066370879e-03
-9.7999999999999812e+00 +8.1502832131718801e+00 +0.0000000000000000e+00 -9.7999994978939569e+00 -2.8966490953818771e-02 -5.3656163210681185e-01 +5.3149091581164718e-03
-9.8999999999999808e+00 +8.1502274851760372e+00 +0.0000000000000000e+00 -9.8999994823657751e+00 -2.8966312280466026e-02 -5.3656202677318332e-01 +5.3150093633832452e-03
-9.9999999999999805e+00 +8.1501711913969785e+00 +0.0000000000000000e+00 -9.9999994665206930e+00 -2.8966147682203593e-02 -5.3656242783863273e-01 +5.3151112248553340e-03
-1.0099999999999980e+01 +8.1501143318342812e+00 +0.0000000000000000e+00 -1.0099999450355510e+01 -2.8965998493271968e-02 -5.3656283548426842e-01 +5.3152148099793748e-03
-1.0199999999999980e+01 +8.1500569064875172e+00 +0.0000000000000000e+00 -1.0199999433867022e+01 -2.8965864067285449e-02 -5.3656324939547595e-01 +5.3153200463334381e-03
-1.0299999999999979e+01 +8.1499989153562513e+00 +0.0000000000000000e+00 -1.0299999417052032e+01 -2.8965743262672327e-02 -5.3656366913368170e-01 +5.3154268265391659e-03
-1.0399999999999979e+01 +8.1499403584400447e+00 +0.0000000000000000e+00 -1.0399999399907335e+01 -2.8965634937841427e-02 -5.3656409426028551e-01 +5.3155350432315647e-03
-1.0499999999999979e+01 +8.1498812357384498e+00 +0.0000000000000000e+00 -1.0499999382429731e+01 -2.8965537951181407e-02 -5.3656452433666213e-01 +5.3156445890593425e-03
-1.0599999999999978e+01 +8.1498215472510154e+00 +0.0000000000000000e+00 -1.0599999364616020e+01 -2.8965451161060148e-02 -5.3656495892415901e-01 +5.3157553566852405e-03
-1.0699999999999978e+01 +8.1497612929772849e+00 +0.0000000000000000e+00 -1.0699999346462997e+01 -2.8965373425824149e-02 -5.3656539758409605e-01 +5.3158672387863606e-03
-1.0799999999999978e+01 +8.1497004729167966e+00 +0.0000000000000000e+00 -1.0799999327967463e+01 -2.8965303603797898e-02 -5.3656583987776474e-01 +5.3159801280545180e-03
-1.0899999999999977e+01 +8.1496390870690885e+00 +0.0000000000000000e+00 -1.0899999309126216e+01 -2.8965240553283214e-02 -5.3656628536642592e-01 +5.3160939171965540e-03
-1.0999999999999977e+01 +8.1495771354336917e+00 +0.0000000000000000e+00 -1.0999999289936055e+01 -2.8965183132558647e-02 -5.3656673361131135e-01 +5.3162084989346742e-03
-1.1099999999999977e+01 +8.1495146180101354e+00 +0.0000000000000000e+00 -1.1099999270393779e+01 -2.8965130199878859e-02 -5.3656718417361937e-01 +5.3163237660067931e-03
-1.1199999999999976e+01 +8.1494515347979473e+00 +0.0000000000000000e+00 -1.1199999250496186e+01 -2.8965080613473988e-02 -5.3656763661451767e-01 +5.3164396111668559e-03
-1.1299999999999976e+01 +8.1493878857966511e+00 +0.0000000000000000e+00 -1.1299999230240074e+01 -2.8965033231548996e-02 -5.3656809049513865e-01 +5.3165559271851704e-03
-1.1399999999999975e+01 +8.1493236710057708e+00 +0.0000000000000000e+00 -1.1399999209622241e+01 -2.8964986912283122e-02 -5.3656854537658205e-01 +5.3166726068487559e-03
-1.1499999999999975e+01 +8.1492588904248286e+00 +0.0000000000000000e+00 -1.1499999188639487e+01 -2.8964940513829130e-02 -5.3656900081991121e-01 +5.3167895429616493e-03
-1.1599999999999975e+01 +8.1491935440533467e+00 +0.0000000000000000e+00 -1.1599999167288610e+01 -2.8964892894312828e-02 -5.3656945638615305e-01 +5.3169066283452722e-03
-1.1699999999999974e+01 +8.1491276318908472e+00 +0.0000000000000000e+00 -1.1699999145566409e+01 -2.8964842911832350e-02 -5.3656991163629808e-01 +5.3170237558387299e-03
