# multipoles
# s[mm] polynom_b[n=0][T/m^n] polynom_b[n=1][T/m^n] polynom_b[n=2][T/m^n] polynom_b[n=3][T/m^n] polynom_b[n=4][T/m^n] polynom_b[n=5][T/m^n] polynom_b[n=6][T/m^n] 
+0.0000000000000000e+00 -5.3690865340534777e-01 +7.3556333435533148e+00 -6.1727961453279456e-01 +5.9141980772455923e+01 +3.4654958197137807e+03 -4.6234082368501916e+05 -1.7419828862590760e+07 
+1.0000000000000001e-01 -5.3690857582834206e-01 +7.3556448421076821e+00 -6.1924335724787860e-01 +5.8611844467235350e+01 +3.5285593691362537e+03 -4.5879453109161032e+05 -1.7734986929395773e+07 
+2.0000000000000001e-01 -5.3690848883087616e-01 +7.3556598951132619e+00 -6.2164558163077377e-01 +5.8024322050040162e+01 +3.5973237934112503e+03 -4.5495051654572744e+05 -1.8076394581929069e+07 
+2.9999999999999999e-01 -5.3690839342751451e-01 +7.3556782302512582e+00 -6.2445408997807461e-01 +5.7385963239727765e+01 +3.6712784035767372e+03 -4.5084797001603898e+05 -1.8441508982534450e+07 
+4.0000000000000002e-01 -5.3690829063285450e-01 +7.3556995752046772e+00 -6.2763668316304944e-01 +5.6703317715048520e+01 +3.7499124864375271e+03 -4.4652608123097313e+05 -1.8827787186314531e+07 
+5.0000000000000000e-01 -5.3690818146141828e-01 +7.3557236576587357e+00 -6.3116116203760886e-01 +5.5982935122696468e+01 +3.8327153318600349e+03 -4.4202403978955257e+05 -1.9232686272656467e+07 
+5.9999999999999998e-01 -5.3690806692779269e-01 +7.3557502053010086e+00 -6.3499532640433121e-01 +5.5231365061715806e+01 +3.9191762102023863e+03 -4.3738103504079918e+05 -1.9653663227274343e+07 
+6.9999999999999996e-01 -5.3690794804666475e-01 +7.3557789458155547e+00 -6.3910697477685419e-01 +5.4455157246179311e+01 +4.0087843718813747e+03 -4.3263625701756793e+05 -2.0088174949830104e+07 
+8.0000000000000004e-01 -5.3690782583252106e-01 +7.3558096068931835e+00 -6.4346391077744014e-01 +5.3660861219674366e+01 +4.1010291660919511e+03 -4.2782889481599163e+05 -2.0533678812728275e+07 
+9.0000000000000002e-01 -5.3690770130000465e-01 +7.3558419162195339e+00 -6.4803393242558904e-01 +5.2855026681574103e+01 +4.1953998347022170e+03 -4.2299813844062400e+05 -2.0987631668696493e+07 
+1.0000000000000000e+00 -5.3690757546371570e-01 +7.3558756014845743e+00 -6.5278484351266264e-01 +5.2044203214679783e+01 +4.2913857326917005e+03 -4.1818317724731291e+05 -2.1447490913071811e+07 
+1.1000000000000001e+00 -5.3690744933820500e-01 +7.3559103903803882e+00 -6.5768444456619501e-01 +5.1234940362199282e+01 +4.3884761527358987e+03 -4.1342320041993505e+05 -2.1910713635992289e+07 
+1.2000000000000000e+00 -5.3690732393809792e-01 +7.3559460105954129e+00 -6.6270054046577498e-01 +5.0433787769601544e+01 +4.4861604729846877e+03 -4.0875739773758763e+05 -2.2374757335312150e+07 
+1.3000000000000000e+00 -5.3690720027792416e-01 +7.3559821898193398e+00 -6.6780093503322346e-01 +4.9647295047496897e+01 +4.5839280498654916e+03 -4.0422495879852492e+05 -2.2837079389929261e+07 
+1.3999999999999999e+00 -5.3690707937225757e-01 +7.3560186557464560e+00 -6.7295343691462262e-01 +4.8882011680323686e+01 +4.6812683329531174e+03 -3.9986507250939118e+05 -2.3295137617520273e+07 
+1.5000000000000000e+00 -5.3690696223568701e-01 +7.3560551360674697e+00 -6.7812585316063678e-01 +4.8144487254434054e+01 +4.7776707420985567e+03 -3.9571692839113128e+05 -2.3746389683674410e+07 
+1.6000000000000001e+00 -5.3690684988271264e-01 +7.3560913584734129e+00 -6.8328599540611423e-01 +4.7441271343668241e+01 +4.8726247821663665e+03 -3.9181971591841494e+05 -2.4188293640712935e+07 
+1.7000000000000000e+00 -5.3690674332780841e-01 +7.3561270506578618e+00 -6.8840167867131097e-01 +4.6778913430618424e+01 +4.9656200223569967e+03 -3.8821262402958644e+05 -2.4618307832870007e+07 
+1.8000000000000000e+00 -5.3690664358556450e-01 +7.3561619403139700e+00 -6.9344071388751516e-01 +4.6163963019342084e+01 +5.0561459550863610e+03 -3.8493484186318703e+05 -2.5033890227913104e+07 
+1.8999999999999999e+00 -5.3690655167036050e-01 +7.3561957551326635e+00 -6.9837092478897378e-01 +4.5602969658896001e+01 +5.1436923138866696e+03 -3.8202555881391856e+05 -2.5432499919434518e+07 
+2.0000000000000000e+00 -5.3690646859671853e-01 +7.3562282228096709e+00 -7.0316013062278626e-01 +4.5102482744023611e+01 +5.2277487444782591e+03 -3.7952396339130006e+05 -2.5811595558403350e+07 
+2.1000000000000001e+00 -5.3690639514881555e-01 +7.3562591132183979e+00 -7.0778112086156619e-01 +4.4667562261487603e+01 +5.3078908026753334e+03 -3.7745945476160618e+05 -2.6169091342452049e+07 
+2.2000000000000002e+00 -5.3690633123839737e-01 +7.3562883556708725e+00 -7.1222540773439669e-01 +4.4297556706489914e+01 +5.3840253558524664e+03 -3.7582379261599242e+05 -2.6504688673324686e+07 
+2.2999999999999998e+00 -5.3690627657056644e-01 +7.3563159171520667e+00 -7.1648891288563255e-01 +4.3990445132919554e+01 +5.4561392060446833e+03 -3.7459968691269727e+05 -2.6818527375790060e+07 
+2.3999999999999999e+00 -5.3690623085048894e-01 +7.3563417646441875e+00 -7.2056755916595550e-01 +4.3744206672092496e+01 +5.5242191747285315e+03 -3.7376984806875762e+05 -2.7110747357872434e+07 
+2.5000000000000000e+00 -5.3690619378320559e-01 +7.3563658651335402e+00 -7.2445727477855204e-01 +4.3556820338167938e+01 +5.5882521826342199e+03 -3.7331698584259837e+05 -2.7381488992897850e+07 
+2.6000000000000001e+00 -5.3690616507384326e-01 +7.3563881855986093e+00 -7.2815397963008621e-01 +4.3426265375546087e+01 +5.6482249886972841e+03 -3.7322381134924351e+05 -2.7630891873998426e+07 
+2.7000000000000002e+00 -5.3690614442745876e-01 +7.3564086930194481e+00 -7.3165360174694505e-01 +4.3350520976981663e+01 +5.7041245036912660e+03 -3.7347303540192184e+05 -2.7859096312998280e+07 
+2.7999999999999998e+00 -5.3690613154915723e-01 +7.3564273543777539e+00 -7.3495206198073015e-01 +4.3327566300002658e+01 +5.7559374950262709e+03 -3.7404736865515081e+05 -2.8066241923073839e+07 
+2.8999999999999999e+00 -5.3690612614397903e-01 +7.3564441366499249e+00 -7.3804528862590979e-01 +4.3355380639945466e+01 +5.8036508710832422e+03 -3.7492952253415721e+05 -2.8252468991558038e+07 
+3.0000000000000000e+00 -5.3690612791700476e-01 +7.3564590068122184e+00 -7.4092920381321159e-01 +4.3431943311575480e+01 +5.8472514166597193e+03 -3.7610220862816938e+05 -2.8417917205117796e+07 
+3.1000000000000001e+00 -5.3690613657328679e-01 +7.3564719318382394e+00 -7.4359973205417740e-01 +4.3555233700298828e+01 +5.8867259557732268e+03 -3.7754813892813638e+05 -2.8562726426014982e+07 
+3.2000000000000002e+00 -5.3690615181788182e-01 +7.3564828786993672e+00 -7.4605279598896623e-01 +4.3723231254925274e+01 +5.9220612722620908e+03 -3.7925002580399177e+05 -2.8687036320035893e+07 
+3.2999999999999998e+00 -5.3690617335581636e-01 +7.3564918143667510e+00 -7.4828432094273500e-01 +4.3933915437293635e+01 +5.9532441956682333e+03 -3.8119058172381419e+05 -2.8790986764806055e+07 
+3.3999999999999999e+00 -5.3690620089214802e-01 +7.3564987058103783e+00 -7.5029022707527593e-01 +4.4185265735127452e+01 +5.9802614527495671e+03 -3.8335251929742150e+05 -2.8874717143993940e+07 
+3.5000000000000000e+00 -5.3690623413190575e-01 +7.3565035199924802e+00 -7.5206643641847293e-01 +4.4475261869704411e+01 +6.0030997976797371e+03 -3.8571855251557624e+05 -2.8938366960226916e+07 
+3.6000000000000001e+00 -5.3690627278014158e-01 +7.3565062238770134e+00 -7.5360886995692022e-01 +4.4801883503101728e+01 +6.0217459581047478e+03 -3.8827139501132892e+05 -2.8982075582335170e+07 
+3.7000000000000002e+00 -5.3690631654183019e-01 +7.3565067844273981e+00 -7.5491344697621710e-01 +4.5163110322890105e+01 +6.0361866243634086e+03 -3.9099376060105895e+05 -2.9005982199275248e+07 
+3.7999999999999998e+00 -5.3690636512201295e-01 +7.3565051685989147e+00 -7.5597608630456581e-01 +4.5556922246786101e+01 +6.0464084689546980e+03 -3.9386836442379688e+05 -2.9010225904167611e+07 
+3.8999999999999999e+00 -5.3690641822572382e-01 +7.3565013433477286e+00 -7.5679270629888684e-01 +4.5981299167894697e+01 +6.0523981488548015e+03 -3.9687792148138263e+05 -2.8994945710349247e+07 
+4.0000000000000000e+00 -5.3690647555793014e-01 +7.3564952756262620e+00 -7.5735922148954560e-01 +4.6434221114787633e+01 +6.0541422431185192e+03 -4.0000514763491321e+05 -2.8960280264333624e+07 
+4.0999999999999996e+00 -5.3690653684577838e-01 +7.3564869831200541e+00 -7.5767254655281646e-01 +4.6912950536734577e+01 +6.0516395274683800e+03 -4.0322976409446017e+05 -2.8906441366810910e+07 
+4.2000000000000002e+00 -5.3690660189725048e-01 +7.3564766689673107e+00 -7.5773438813257388e-01 +4.7412138416294717e+01 +6.0449488717166741e+03 -4.0652048144501803e+05 -2.8833971441807698e+07 
+4.2999999999999998e+00 -5.3690667053902175e-01 +7.3564645786985032e+00 -7.5754780122544996e-01 +4.7925841879840355e+01 +6.0341462853079547e+03 -4.0984347999907599e+05 -2.8743502448950533e+07 
+4.4000000000000004e+00 -5.3690674259769378e-01 +7.3564509578424984e+00 -7.5711583655712777e-01 +4.8448118123078338e+01 +6.0193076982655630e+03 -4.1316494042318978e+05 -2.8635665991109062e+07 
+4.5000000000000000e+00 -5.3690681789999783e-01 +7.3564360519271954e+00 -7.5644154219366933e-01 +4.8973024362693181e+01 +6.0005089961492959e+03 -4.1645104336821724e+05 -2.8511093494054537e+07 
+4.5999999999999996e+00 -5.3690689627256483e-01 +7.3564201064767349e+00 -7.5552796562116675e-01 +4.9494617928399279e+01 +5.9778260578982054e+03 -4.1966797003118240e+05 -2.8370416381836601e+07 
+4.7000000000000002e+00 -5.3690697754220451e-01 +7.3564033670171964e+00 -7.5437814525780322e-01 +5.0006956104305900e+01 +5.9513345937581380e+03 -4.2278190123432881e+05 -2.8214265305542488e+07 
+4.7999999999999998e+00 -5.3690706153564349e-01 +7.3563860790650875e+00 -7.5299511708435962e-01 +5.0504096452415745e+01 +5.9211102756656546e+03 -4.2575901927833073e+05 -2.8043270775246222e+07 
+4.9000000000000004e+00 -5.3690714807970552e-01 +7.3563684881419720e+00 -7.5138191849764302e-01 +5.0980096386285872e+01 +5.8872288070889217e+03 -4.2856550545114785e+05 -2.7858063484885443e+07 
+5.0000000000000000e+00 -5.3690723700123311e-01 +7.3563508397667281e+00 -7.4954157158429568e-01 +5.1429013409874983e+01 +5.8497656084227065e+03 -4.3116754144586209e+05 -2.7659272825115584e+07 
+5.0999999999999996e+00 -5.3690732812713338e-01 +7.3563333794506987e+00 -7.4747710384866795e-01 +5.1844905247149512e+01 +5.8087962071757056e+03 -4.3353131007471925e+05 -2.7447528728991203e+07 
+5.2000000000000002e+00 -5.3690742128432767e-01 +7.3563163527095279e+00 -7.4519153175192121e-01 +5.2221829502887928e+01 +5.7643959315883185e+03 -4.3562299331058434e+05 -2.7223460235332709e+07 
+5.2999999999999998e+00 -5.3690751629978939e-01 +7.3563000050515521e+00 -7.4268786899550898e-01 +5.2553843994787663e+01 +5.7166400636177113e+03 -4.3740877418498334e+05 -2.6987696202057119e+07 
+5.4000000000000004e+00 -5.3690761300051493e-01 +7.3562845819863814e+00 -7.3996912666776793e-01 +5.2835006513576957e+01 +5.6656038431887537e+03 -4.3885483542751096e+05 -2.6740865334276091e+07 
+5.5000000000000000e+00 -5.3690771121356717e-01 +7.3562703290187299e+00 -7.3703830486543753e-01 +5.3059374995720447e+01 +5.6113623098370854e+03 -4.3992736042768124e+05 -2.6483595432467368e+07 
+5.5999999999999996e+00 -5.3690781076612260e-01 +7.3562574916547048e+00 -7.3389840026681163e-01 +5.3221007338557193e+01 +5.5539904490765221e+03 -4.4059253215851146e+05 -2.6216514096909981e+07 
+5.7000000000000002e+00 -5.3690791148530836e-01 +7.3562463153930890e+00 -7.3055240617900574e-01 +5.3313961662224656e+01 +5.4935631895976612e+03 -4.4081653471746645e+05 -2.5940248704506714e+07 
+5.7999999999999998e+00 -5.3690801319834613e-01 +7.3562370457351882e+00 -7.2700330812348768e-01 +5.3332296014722111e+01 +5.4301553225717871e+03 -4.4056555157297058e+05 -2.5655426035026819e+07 
+5.9000000000000004e+00 -5.3690811573252617e-01 +7.3562299281747592e+00 -7.2325408359366050e-01 +5.3270068669762054e+01 +5.3638414956224342e+03 -4.3980576730486471e+05 -2.5362672239381634e+07 
+5.9999999999999902e+00 -5.3690821891520135e-01 +7.3562252081964132e+00 -7.1930770574657543e-01 +5.3121338167373608e+01 +5.2946962982440891e+03 -4.3850336801133340e+05 -2.5062613301132843e+07 
+6.0999999999999899e+00 -5.3690832266083821e-01 +7.3562230666034107e+00 -7.1516848337222250e-01 +5.2882285521206562e+01 +5.2228046773192300e+03 -4.3663802370587393e+05 -2.4755827011051551e+07 
+6.1999999999999904e+00 -5.3690842716650533e-01 +7.3562234622966134e+00 -7.1084581814745518e-01 +5.2556540487102907e+01 +5.1482675807205469e+03 -4.3423705307043553e+05 -2.4442518566572294e+07 
+6.2999999999999901e+00 -5.3690853268625149e-01 +7.3562263064825446e+00 -7.0635031897203016e-01 +5.2149373622364664e+01 +5.0711848292174282e+03 -4.3133835251877166e+05 -2.4122765289525837e+07 
+6.3999999999999897e+00 -5.3690863947404655e-01 +7.3562315103734512e+00 -7.0169260645385345e-01 +5.1666055331213123e+01 +4.9916564765211242e+03 -4.2797981770187640e+05 -2.3796645607351728e+07 
+6.4999999999999902e+00 -5.3690874778389142e-01 +7.3562389851790666e+00 -6.9688329905410273e-01 +5.1111856131815429e+01 +4.9097825425733536e+03 -4.2419934512968874e+05 -2.3464237772933293e+07 
+6.5999999999999899e+00 -5.3690885786975395e-01 +7.3562486421112698e+00 -6.9193302107619803e-01 +5.0492046486671690e+01 +4.8256631647302593e+03 -4.2003483110618446e+05 -2.3125620579165742e+07 
+6.6999999999999904e+00 -5.3690896998556426e-01 +7.3562603923893271e+00 -6.8685240410160375e-01 +4.9811896683706664e+01 +4.7393986322733026e+03 -4.1552417113640858e+05 -2.2780873543023366e+07 
+6.7999999999999901e+00 -5.3690908438525886e-01 +7.3562741472326438e+00 -6.8165208375877206e-01 +4.9076677028475984e+01 +4.6510893159186671e+03 -4.1070526099396730e+05 -2.2430076542556535e+07 
+6.8999999999999897e+00 -5.3690920132267916e-01 +7.3562898178643863e+00 -6.7634269997335283e-01 +4.8291657748364216e+01 +4.5608356796551061e+03 -4.0561599619890912e+05 -2.2073309890784003e+07 
+6.9999999999999902e+00 -5.3690932105171296e-01 +7.3563073155133365e+00 -6.7093489907367743e-01 +4.7462108933565794e+01 +4.4687383188454232e+03 -4.0029427166535106e+05 -2.1710654512169294e+07 
+7.0999999999999899e+00 -5.3690944382616979e-01 +7.3563265514062399e+00 -6.6543933610662420e-01 +4.6593300763648109e+01 +4.3748980035441855e+03 -3.9477798303946393e+05 -2.1342192141630538e+07 
+7.1999999999999904e+00 -5.3690956989985739e-01 +7.3563474367795827e+00 -6.5986666862896959e-01 +4.5690503170335639e+01 +4.2794155610144935e+03 -3.8910502475347300e+05 -2.0968004767847020e+07 
+7.2999999999999901e+00 -5.3690969952657697e-01 +7.3563698828702888e+00 -6.5422756103620949e-01 +4.4758986096672650e+01 +4.1823919616254270e+03 -3.8331329150905792e+05 -2.0588175050425272e+07 
+7.3999999999999897e+00 -5.3690983296000083e-01 +7.3563938009196761e+00 -6.4853268591620195e-01 +4.3804019393117933e+01 +4.0839283373111771e+03 -3.7744067771611747e+05 -2.0202786383778911e+07 
+7.4999999999999902e+00 -5.3690997045388533e-01 +7.3564191021734606e+00 -6.4279272171408308e-01 +4.2830872821887326e+01 +3.9841259467394066e+03 -3.7152507752548152e+05 -1.9811922759108603e+07 
+7.5999999999999899e+00 -5.3691011226184104e-01 +7.3564456978822674e+00 -6.3701835463083034e-01 +4.1844816026085020e+01 +3.8830862069201512e+03 -3.6560438462090428e+05 -1.9415668897616763e+07 
+7.6999999999999904e+00 -5.3691025863751396e-01 +7.3564734993009564e+00 -6.3122027819360993e-01 +4.0851118564974705e+01 +3.7809106798995335e+03 -3.5971649246703234e+05 -1.9014110174199630e+07 
+7.7999999999999901e+00 -5.3691040983450755e-01 +7.3565024176884304e+00 -6.2540919170240439e-01 +3.9855049917212369e+01 +3.6777010550849382e+03 -3.5389929432955576e+05 -1.8607332562433653e+07 
+7.8999999999999897e+00 -5.3691056610637700e-01 +7.3565323643079399e+00 -6.1959580639635203e-01 +3.8861879471086020e+01 +3.5735592589354505e+03 -3.4819068322391540e+05 -1.8195423135034896e+07 
+7.9999999999999902e+00 -5.3691072770657622e-01 +7.3565632504187848e+00 -6.1379084301981546e-01 +3.7876876530791819e+01 +3.4685873980030224e+03 -3.4262855027375114e+05 -1.7778469652487978e+07 
+8.0999999999999908e+00 -5.3691089481767929e-01 +7.3565949502361558e+00 -6.0800783303577788e-01 +3.6905390969245964e+01 +3.3629750987181765e+03 -3.3724813096017920e+05 -1.7357002050253026e+07 
+8.1999999999999904e+00 -5.3691106740027739e-01 +7.3566272175999590e+00 -6.0226623430399318e-01 +3.5952829226388410e+01 +3.2571640136211663e+03 -3.3207488878707314e+05 -1.6932962556758188e+07 
+8.2999999999999901e+00 -5.3691124537161372e-01 +7.3566597819632875e+00 -5.9658603941251886e-01 +3.5024557945162400e+01 +3.1516408142445889e+03 -3.2713199286308925e+05 -1.6508578694260413e+07 
+8.3999999999999897e+00 -5.3691142864879593e-01 +7.3566923727808078e+00 -5.9098724574851358e-01 +3.4125943614609326e+01 +3.0468922397994847e+03 -3.2244261125529162e+05 -1.6086078241348755e+07 
+8.4999999999999893e+00 -5.3691161714896607e-01 +7.3567247195143697e+00 -5.8548985763751082e-01 +3.3262352420745451e+01 +2.9434051370881684e+03 -3.1802991015612660e+05 -1.5667689420841534e+07 
+8.5999999999999908e+00 -5.3691181078911909e-01 +7.3567565516279085e+00 -5.8011388139694353e-01 +3.2439150376974894e+01 +2.8416663597468005e+03 -3.1391705460659956e+05 -1.5255640403534798e+07 
+8.6999999999999904e+00 -5.3691200948627027e-01 +7.3567875985929545e+00 -5.7487933191905138e-01 +3.1661703177088601e+01 +2.7421628986433993e+03 -3.1012720767083240e+05 -1.4852159941451613e+07 
+8.7999999999999794e+00 -5.3691221315731186e-01 +7.3568175898845185e+00 -5.6980622659884705e-01 +3.0935376295167778e+01 +2.6453817616693091e+03 -3.0668353097830829e+05 -1.4459476783228561e+07 
+8.8999999999999808e+00 -5.3691242171902909e-01 +7.3568462549806597e+00 -5.6491459337254912e-01 +3.0265535009079624e+01 +2.5518101286926785e+03 -3.0360918488130369e+05 -1.4079820420473458e+07 
+8.9999999999999805e+00 -5.3691263508826736e-01 +7.3568733233669832e+00 -5.6022446024509254e-01 +2.9657544255787766e+01 +2.4619351516118427e+03 -3.0092732759315491e+05 -1.3715420129537055e+07 
+9.0999999999999801e+00 -5.3691285318167714e-01 +7.3568985245372671e+00 -5.5575586602694105e-01 +2.9116768610804442e+01 +2.3762441525263430e+03 -2.9866111506090034e+05 -1.3368505902031185e+07 
+9.1999999999999797e+00 -5.3691307591585413e-01 +7.3569215879821188e+00 -5.5152885339973257e-01 +2.8648572623723307e+01 +2.2952244950606432e+03 -2.9683370293496427e+05 -1.3041307839629108e+07 
+9.2999999999999794e+00 -5.3691330320741404e-01 +7.3569422432060811e+00 -5.4756346979887183e-01 +2.8258320314412789e+01 +2.2193636030222860e+03 -2.9546824362532340e+05 -1.2736056249191998e+07 
+9.3999999999999808e+00 -5.3691353497277228e-01 +7.3569602197136774e+00 -5.4387977412561717e-01 +2.7951375559457656e+01 +2.1491490812859101e+03 -2.9458788850548130e+05 -1.2454982199285384e+07 
+9.4999999999999805e+00 -5.3691377112830929e-01 +7.3569752470187186e+00 -5.4049782622524467e-01 +2.7733101846506308e+01 +2.0850685164986148e+03 -2.9421578655237943e+05 -1.2200316573613701e+07 
+9.5999999999999801e+00 -5.3691401159039531e-01 +7.3569870546399967e+00 -5.3743769435363453e-01 +2.7608862376926364e+01 +2.0276096236919263e+03 -2.9437508488362783e+05 -1.1974290782803740e+07 
+9.6999999999999797e+00 -5.3691425627518363e-01 +7.3569953721012897e+00 -5.3471945649412411e-01 +2.7584020057623526e+01 +1.9772602610973759e+03 -2.9508892869778757e+05 -1.1779136806023864e+07 
+9.7999999999999794e+00 -5.3691450509887961e-01 +7.3569999289321579e+00 -5.3236319393607634e-01 +2.7663937499999658e+01 +1.9345083138099826e+03 -2.9638046133161022e+05 -1.1617086654934807e+07 
+9.8999999999999808e+00 -5.3691475797753008e-01 +7.3570004546700938e+00 -5.3038899461047750e-01 +2.7853976927021552e+01 +1.8998417564806755e+03 -2.9827282363563194e+05 -1.1490372667716326e+07 
+9.9999999999999805e+00 -5.3691501482699100e-01 +7.3569966789717141e+00 -5.2881694970992221e-01 +2.8159496831409079e+01 +1.8737484253027283e+03 -3.0078913665239041e+05 -1.1401226182798300e+07 
+1.0100000000000000e+01 -5.3691527549688933e-01 +7.3569884778670911e+00 -5.2765994849898734e-01 +2.8582036925040583e+01 +1.8564611577189155e+03 -3.0393226985028380e+05 -1.1350500493363384e+07 
