# field on trajectory
# s[mm] rx[mm] ry[mm] rz[mm] bx[T] by[T] bz[T]
0.0000000000000000e+00 +8.1649999999999991e+00 +0.0000000000000000e+00 +0.0000000000000000e+00 -3.0510989619623570e-02 -5.6433784603523174e-01 +5.5992354248845461e-03
1.0000000000000001e-01 +8.1649997170956308e+00 +0.0000000000000000e+00 +9.9999999999466446e-02 -3.0511087128830203e-02 -5.6433787044278760e-01 +5.5992921376499293e-03
2.0000000000000001e-01 +8.1649988683825061e+00 +0.0000000000000000e+00 +1.9999999999573148e-01 -3.0511178035697660e-02 -5.6433790602215761e-01 +5.5993489862557746e-03
3.0000000000000004e-01 +8.1649974538605896e+00 +0.0000000000000000e+00 +2.9999999998559373e-01 -3.0511263028323968e-02 -5.6433795167335932e-01 +5.5994060187893012e-03
4.0000000000000002e-01 +8.1649954735298369e+00 +0.0000000000000000e+00 +3.9999999996585178e-01 -3.0511342794800399e-02 -5.6433800629641273e-01 +5.5994632833367714e-03
5.0000000000000000e-01 +8.1649929273901911e+00 +0.0000000000000000e+00 +4.9999999993330430e-01 -3.0511418023212576e-02 -5.6433806879133885e-01 +5.5995208279836202e-03
5.9999999999999998e-01 +8.1649898154415919e+00 +0.0000000000000000e+00 +5.9999999988474984e-01 -3.0511489401641716e-02 -5.6433813805816069e-01 +5.5995787008146104e-03
6.9999999999999996e-01 +8.1649861376839699e+00 +0.0000000000000000e+00 +6.9999999981698691e-01 -3.0511557618165767e-02 -5.6433821299690490e-01 +5.5996369499139607e-03
7.9999999999999993e-01 +8.1649818941172487e+00 +0.0000000000000000e+00 +7.9999999972681424e-01 -3.0511623360860524e-02 -5.6433829250759981e-01 +5.5996956233654947e-03
8.9999999999999991e-01 +8.1649770847413503e+00 +0.0000000000000000e+00 +8.9999999961103039e-01 -3.0511687317800830e-02 -5.6433837549027766e-01 +5.5997547692527658e-03
9.9999999999999989e-01 +8.1649717095561911e+00 +0.0000000000000000e+00 +9.9999999946643392e-01 -3.0511750177061748e-02 -5.6433846084497385e-01 +5.5998144356592134e-03
1.0999999999999999e+00 +8.1649657685616859e+00 +0.0000000000000000e+00 +1.0999999992898235e+00 -3.0511812626719689e-02 -5.6433854747172862e-01 +5.5998746706682877e-03
1.2000000000000000e+00 +8.1649592617577476e+00 +0.0000000000000000e+00 +1.1999999990779977e+00 -3.0511875354853606e-02 -5.6433863427058584e-01 +5.5999355223636067e-03
1.3000000000000000e+00 +8.1649521891442891e+00 +0.0000000000000000e+00 +1.2999999988277551e+00 -3.0511939049546119e-02 -5.6433872014159425e-01 +5.5999970388290786e-03
1.4000000000000001e+00 +8.1649445507212253e+00 +0.0000000000000000e+00 +1.3999999985358942e+00 -3.0512004398884712e-02 -5.6433880398480829e-01 +5.6000592681490569e-03
1.5000000000000002e+00 +8.1649363464884726e+00 +0.0000000000000000e+00 +1.4999999981992136e+00 -3.0512072090962888e-02 -5.6433888470028715e-01 +5.6001222584084629e-03
1.6000000000000003e+00 +8.1649275764459510e+00 +0.0000000000000000e+00 +1.5999999978145121e+00 -3.0512142813881298e-02 -5.6433896118809623e-01 +5.6001860576929425e-03
1.7000000000000004e+00 +8.1649182405935825e+00 +0.0000000000000000e+00 +1.6999999973785880e+00 -3.0512217255748930e-02 -5.6433903234830740e-01 +5.6002507140889921e-03
1.8000000000000005e+00 +8.1649083389312977e+00 +0.0000000000000000e+00 +1.7999999968882401e+00 -3.0512296104684290e-02 -5.6433909708099872e-01 +5.6003162756841128e-03
1.9000000000000006e+00 +8.1648978714590310e+00 +0.0000000000000000e+00 +1.8999999963402667e+00 -3.0512380048816509e-02 -5.6433915428625581e-01 +5.6003827905669367e-03
2.0000000000000004e+00 +8.1648868381767272e+00 +0.0000000000000000e+00 +1.9999999957314667e+00 -3.0512469776286515e-02 -5.6433920286417061e-01 +5.6004503068273681e-03
2.1000000000000005e+00 +8.1648752390843367e+00 +0.0000000000000000e+00 +2.0999999950586385e+00 -3.0512565773397782e-02 -5.6433924207069097e-01 +5.6005188634604252e-03
2.2000000000000006e+00 +8.1648630741818202e+00 +0.0000000000000000e+00 +2.1999999943185808e+00 -3.0512667719062875e-02 -5.6433927258515348e-01 +5.6005884630771306e-03
2.3000000000000007e+00 +8.1648503434691477e+00 +0.0000000000000000e+00 +2.2999999935080924e+00 -3.0512775090350729e-02 -5.6433929544274486e-01 +5.6006590991929655e-03
2.4000000000000008e+00 +8.1648370469462979e+00 +0.0000000000000000e+00 +2.3999999926239712e+00 -3.0512887364336570e-02 -5.6433931167865392e-01 +5.6007307653241451e-03
2.5000000000000009e+00 +8.1648231846132528e+00 +0.0000000000000000e+00 +2.4999999916630165e+00 -3.0513004018102155e-02 -5.6433932232807216e-01 +5.6008034549876306e-03
2.6000000000000010e+00 +8.1648087564700038e+00 +0.0000000000000000e+00 +2.5999999906220266e+00 -3.0513124528735856e-02 -5.6433932842619228e-01 +5.6008771617011652e-03
2.7000000000000011e+00 +8.1647937625165437e+00 +0.0000000000000000e+00 +2.6999999894978002e+00 -3.0513248373332857e-02 -5.6433933100820854e-01 +5.6009518789833105e-03
2.8000000000000012e+00 +8.1647782027528724e+00 +0.0000000000000000e+00 +2.7999999882871354e+00 -3.0513375028995256e-02 -5.6433933110931678e-01 +5.6010276003534672e-03
2.9000000000000012e+00 +8.1647620771789882e+00 +0.0000000000000000e+00 +2.8999999869868311e+00 -3.0513503972832253e-02 -5.6433932976471346e-01 +5.6011043193319055e-03
3.0000000000000013e+00 +8.1647453857948928e+00 +0.0000000000000000e+00 +2.9999999855936861e+00 -3.0513634681960330e-02 -5.6433932800959608e-01 +5.6011820294397932e-03
3.1000000000000014e+00 +8.1647281286005899e+00 +0.0000000000000000e+00 +3.0999999841044987e+00 -3.0513766633503289e-02 -5.6433932687916266e-01 +5.6012607241992260e-03
3.2000000000000015e+00 +8.1647103055960795e+00 +0.0000000000000000e+00 +3.1999999825160677e+00 -3.0513899304592546e-02 -5.6433932740861115e-01 +5.6013403971332584e-03
3.3000000000000016e+00 +8.1646919167813632e+00 +0.0000000000000000e+00 +3.2999999808251919e+00 -3.0514032172367176e-02 -5.6433933063313957e-01 +5.6014210417659289e-03
3.4000000000000017e+00 +8.1646729621564376e+00 +0.0000000000000000e+00 +3.3999999790286695e+00 -3.0514164713974112e-02 -5.6433933758794563e-01 +5.6015026516222930e-03
3.5000000000000018e+00 +8.1646534417212955e+00 +0.0000000000000000e+00 +3.4999999771232990e+00 -3.0514296406568286e-02 -5.6433934930822638e-01 +5.6015852202284415e-03
3.6000000000000019e+00 +8.1646333554759263e+00 +0.0000000000000000e+00 +3.5999999751058795e+00 -3.0514426727312777e-02 -5.6433936682917785e-01 +5.6016687411115521e-03
3.7000000000000020e+00 +8.1646127034203140e+00 +0.0000000000000000e+00 +3.6999999729732092e+00 -3.0514555153378975e-02 -5.6433939118599519e-01 +5.6017532077998868e-03
3.8000000000000020e+00 +8.1645914855544337e+00 +0.0000000000000000e+00 +3.7999999707220864e+00 -3.0514681161946750e-02 -5.6433942341387244e-01 +5.6018386138228507e-03
3.9000000000000021e+00 +8.1645697018782535e+00 +0.0000000000000000e+00 +3.8999999683493103e+00 -3.0514804230204522e-02 -5.6433946454800121e-01 +5.6019249527110024e-03
4.0000000000000018e+00 +8.1645473523917325e+00 +0.0000000000000000e+00 +3.9999999658516789e+00 -3.0514923835349549e-02 -5.6433951562357154e-01 +5.6020122179960890e-03
4.1000000000000014e+00 +8.1645244370948209e+00 +0.0000000000000000e+00 +4.0999999632259909e+00 -3.0515039599036186e-02 -5.6433957745033325e-01 +5.6021004294859742e-03
4.2000000000000011e+00 +8.1645009559874566e+00 +0.0000000000000000e+00 +4.1999999604690457e+00 -3.0515151720711089e-02 -5.6433964993628105e-01 +5.6021897120895493e-03
4.3000000000000007e+00 +8.1644769090695686e+00 +0.0000000000000000e+00 +4.2999999575776409e+00 -3.0515260544249367e-02 -5.6433973276396920e-01 +5.6022802169921199e-03
4.4000000000000004e+00 +8.1644522963410733e+00 +0.0000000000000000e+00 +4.3999999545485755e+00 -3.0515366413501773e-02 -5.6433982561595031e-01 +5.6023720953805155e-03
4.5000000000000000e+00 +8.1644271178018801e+00 +0.0000000000000000e+00 +4.4999999513786477e+00 -3.0515469672293006e-02 -5.6433992817477385e-01 +5.6024654984431236e-03
4.5999999999999996e+00 +8.1644013734518861e+00 +0.0000000000000000e+00 +4.5999999480646565e+00 -3.0515570664420056e-02 -5.6434004012298755e-01 +5.6025605773699326e-03
4.6999999999999993e+00 +8.1643750632909811e+00 +0.0000000000000000e+00 +4.6999999446034000e+00 -3.0515669733650354e-02 -5.6434016114313645e-01 +5.6026574833525772e-03
4.7999999999999989e+00 +8.1643481873190424e+00 +0.0000000000000000e+00 +4.7999999409916771e+00 -3.0515767223720170e-02 -5.6434029091776183e-01 +5.6027563675843774e-03
4.8999999999999986e+00 +8.1643207455359423e+00 +0.0000000000000000e+00 +4.8999999372262861e+00 -3.0515863478332822e-02 -5.6434042912940241e-01 +5.6028573812603646e-03
4.9999999999999982e+00 +8.1642927379415440e+00 +0.0000000000000000e+00 +4.9999999333040259e+00 -3.0515958841156980e-02 -5.6434057546059313e-01 +5.6029606755773472e-03
5.0999999999999979e+00 +8.1642641645356999e+00 +0.0000000000000000e+00 +5.0999999292216947e+00 -3.0516053655824969e-02 -5.6434072959386583e-01 +5.6030664017339355e-03
5.1999999999999975e+00 +8.1642350253182574e+00 +0.0000000000000000e+00 +5.1999999249760913e+00 -3.0516148265930951e-02 -5.6434089121174780e-01 +5.6031747109305842e-03
5.2999999999999972e+00 +8.1642053202890548e+00 +0.0000000000000000e+00 +5.2999999205640140e+00 -3.0516243015029337e-02 -5.6434105999676287e-01 +5.6032857543696331e-03
5.3999999999999968e+00 +8.1641750494479250e+00 +0.0000000000000000e+00 +5.3999999159822618e+00 -3.0516338246632968e-02 -5.6434123563143013e-01 +5.6033996832553501e-03
5.4999999999999964e+00 +8.1641442127946924e+00 +0.0000000000000000e+00 +5.4999999112276328e+00 -3.0516434304211436e-02 -5.6434141779826408e-01 +5.6035166487939728e-03
5.5999999999999961e+00 +8.1641128103291738e+00 +0.0000000000000000e+00 +5.5999999062969250e+00 -3.0516531531189342e-02 -5.6434160617977491e-01 +5.6036368021937424e-03
5.6999999999999957e+00 +8.1640808420511828e+00 +0.0000000000000000e+00 +5.6999999011869376e+00 -3.0516630270944575e-02 -5.6434180045846749e-01 +5.6037602946649523e-03
5.7999999999999954e+00 +8.1640483079605257e+00 +0.0000000000000000e+00 +5.7999998958944685e+00 -3.0516730866806636e-02 -5.6434200031684167e-01 +5.6038872774199855e-03
5.8999999999999950e+00 +8.1640152080570036e+00 +0.0000000000000000e+00 +5.8999998904163169e+00 -3.0516833662054800e-02 -5.6434220543739089e-01 +5.6040179016733482e-03
5.9999999999999947e+00 +8.1639815423404105e+00 +0.0000000000000000e+00 +5.9999998847492808e+00 -3.0516938999916553e-02 -5.6434241550260522e-01 +5.6041523186417244e-03
6.0999999999999943e+00 +8.1639473108105385e+00 +0.0000000000000000e+00 +6.0999998788901593e+00 -3.0517047073728279e-02 -5.6434263011272268e-01 +5.6042906200376250e-03
6.1999999999999940e+00 +8.1639125134671726e+00 +0.0000000000000000e+00 +6.1999998728357504e+00 -3.0517157477451831e-02 -5.6434284853900052e-01 +5.6044326595461385e-03
6.2999999999999936e+00 +8.1638771503100944e+00 +0.0000000000000000e+00 +6.2999998665828523e+00 -3.0517269655245378e-02 -5.6434306997043548e-01 +5.6045782313385471e-03
6.3999999999999932e+00 +8.1638412213390836e+00 +0.0000000000000000e+00 +6.3999998601282639e+00 -3.0517383051312050e-02 -5.6434329359600732e-01 +5.6047271295779346e-03
6.4999999999999929e+00 +8.1638047265539182e+00 +0.0000000000000000e+00 +6.4999998534687835e+00 -3.0517497109902314e-02 -5.6434351860467735e-01 +5.6048791484188147e-03
6.5999999999999925e+00 +8.1637676659543725e+00 +0.0000000000000000e+00 +6.5999998466012100e+00 -3.0517611275316152e-02 -5.6434374418538980e-01 +5.6050340820067938e-03
6.6999999999999922e+00 +8.1637300395402228e+00 +0.0000000000000000e+00 +6.6999998395223415e+00 -3.0517724991905380e-02 -5.6434396952706889e-01 +5.6051917244781743e-03
6.7999999999999918e+00 +8.1636918473112434e+00 +0.0000000000000000e+00 +6.7999998322289761e+00 -3.0517837704075908e-02 -5.6434419381861933e-01 +5.6053518699596084e-03
6.8999999999999915e+00 +8.1636530892672123e+00 +0.0000000000000000e+00 +6.8999998247179128e+00 -3.0517948856290000e-02 -5.6434441624892551e-01 +5.6055143125677363e-03
6.9999999999999911e+00 +8.1636137654079057e+00 +0.0000000000000000e+00 +6.9999998169859499e+00 -3.0518057893068558e-02 -5.6434463600685114e-01 +5.6056788464088226e-03
7.0999999999999908e+00 +8.1635738757331051e+00 +0.0000000000000000e+00 +7.0999998090298853e+00 -3.0518164258993351e-02 -5.6434485228123832e-01 +5.6058452655783795e-03
7.1999999999999904e+00 +8.1635334202425955e+00 +0.0000000000000000e+00 +7.1999998008465180e+00 -3.0518267398709331e-02 -5.6434506426090636e-01 +5.6060133641608126e-03
7.2999999999999901e+00 +8.1634923989361656e+00 +0.0000000000000000e+00 +7.2999997924326463e+00 -3.0518366756926884e-02 -5.6434527113465238e-01 +5.6061829362290660e-03
7.3999999999999897e+00 +8.1634508118136111e+00 +0.0000000000000000e+00 +7.3999997837850691e+00 -3.0518461778424044e-02 -5.6434547209124986e-01 +5.6063537758442427e-03
7.4999999999999893e+00 +8.1634086588747294e+00 +0.0000000000000000e+00 +7.4999997749005836e+00 -3.0518551908048870e-02 -5.6434566631944816e-01 +5.6065256770552498e-03
7.5999999999999890e+00 +8.1633659401193288e+00 +0.0000000000000000e+00 +7.5999997657759897e+00 -3.0518636590721605e-02 -5.6434585300797169e-01 +5.6066984338984356e-03
7.6999999999999886e+00 +8.1633226555472227e+00 +0.0000000000000000e+00 +7.6999997564080847e+00 -3.0518715271437007e-02 -5.6434603134552008e-01 +5.6068718403972208e-03
7.7999999999999883e+00 +8.1632788051582335e+00 +0.0000000000000000e+00 +7.7999997467936675e+00 -3.0518787395266578e-02 -5.6434620052076656e-01 +5.6070456905617447e-03
7.8999999999999879e+00 +8.1632343889521923e+00 +0.0000000000000000e+00 +7.8999997369295372e+00 -3.0518852407360880e-02 -5.6434635972235758e-01 +5.6072197783884926e-03
7.9999999999999876e+00 +8.1631894069289430e+00 +0.0000000000000000e+00 +7.9999997268124909e+00 -3.0518909752951750e-02 -5.6434650813891318e-01 +5.6073938978599353e-03
8.0999999999999872e+00 +8.1631438590883381e+00 +0.0000000000000000e+00 +8.0999997164393278e+00 -3.0518959105821929e-02 -5.6434664524061817e-01 +5.6075678659855636e-03
8.1999999999999869e+00 +8.1630977454302407e+00 +0.0000000000000000e+00 +8.1999997058068459e+00 -3.0519001053678118e-02 -5.6434677162403335e-01 +5.6077415919340758e-03
8.2999999999999865e+00 +8.1630510659545248e+00 +0.0000000000000000e+00 +8.2999996949118451e+00 -3.0519036412677260e-02 -5.6434688816733924e-01 +5.6079150079221072e-03
8.3999999999999861e+00 +8.1630038206610767e+00 +0.0000000000000000e+00 +8.3999996837511226e+00 -3.0519065998944685e-02 -5.6434699574874547e-01 +5.6080880461746620e-03
8.4999999999999858e+00 +8.1629560095497880e+00 +0.0000000000000000e+00 +8.4999996723214775e+00 -3.0519090628572689e-02 -5.6434709524648907e-01 +5.6082606389254632e-03
8.5999999999999854e+00 +8.1629076326205627e+00 +0.0000000000000000e+00 +8.5999996606197069e+00 -3.0519111117619260e-02 -5.6434718753883895e-01 +5.6084327184172727e-03
8.6999999999999851e+00 +8.1628586898733086e+00 +0.0000000000000000e+00 +8.6999996486426099e+00 -3.0519128282106758e-02 -5.6434727350409397e-01 +5.6086042169022467e-03
8.7999999999999847e+00 +8.1628091813079404e+00 +0.0000000000000000e+00 +8.7999996363869855e+00 -3.0519142938020553e-02 -5.6434735402058567e-01 +5.6087750666422550e-03
8.8999999999999844e+00 +8.1627591069243799e+00 +0.0000000000000000e+00 +8.8999996238496326e+00 -3.0519155901307736e-02 -5.6434742996667853e-01 +5.6089451999092313e-03
8.9999999999999840e+00 +8.1627084667225507e+00 +0.0000000000000000e+00 +8.9999996110273486e+00 -3.0519167987875802e-02 -5.6434750222077190e-01 +5.6091145489854987e-03
9.0999999999999837e+00 +8.1626572607023835e+00 +0.0000000000000000e+00 +9.0999995979169324e+00 -3.0519180013591326e-02 -5.6434757166130056e-01 +5.6092830461641147e-03
9.1999999999999833e+00 +8.1626054888638109e+00 +0.0000000000000000e+00 +9.1999995845151812e+00 -3.0519192794278619e-02 -5.6434763916673536e-01 +5.6094506237492070e-03
9.2999999999999829e+00 +8.1625531512067653e+00 +0.0000000000000000e+00 +9.2999995708188958e+00 -3.0519207145718437e-02 -5.6434770561558500e-01 +5.6096172140563142e-03
9.3999999999999826e+00 +8.1625002477311828e+00 +0.0000000000000000e+00 +9.3999995568248735e+00 -3.0519223883646637e-02 -5.6434777188639695e-01 +5.6097827494127010e-03
9.4999999999999822e+00 +8.1624467784369976e+00 +0.0000000000000000e+00 +9.4999995425299115e+00 -3.0519243823752873e-02 -5.6434783885775808e-01 +5.6099471621577279e-03
9.5999999999999819e+00 +8.1623927433241441e+00 +0.0000000000000000e+00 +9.5999995279308106e+00 -3.0519267781679255e-02 -5.6434790740829655e-01 +5.6101103846431617e-03
9.6999999999999815e+00 +8.1623381423925565e+00 +0.0000000000000000e+00 +9.6999995130243679e+00 -3.0519296573019050e-02 -5.6434797841668194e-01 +5.6102723492335235e-03
9.7999999999999812e+00 +8.1622829756421638e+00 +0.0000000000000000e+00 +9.7999994978073808e+00 -3.0519331013315353e-02 -5.6434805276162714e-01 +5.6104329883064231e-03
9.8999999999999808e+00 +8.1622272430728930e+00 +0.0000000000000000e+00 +9.8999994822766499e+00 -3.0519371918059750e-02 -5.6434813132188888e-01 +5.6105922342528933e-03
9.9999999999999805e+00 +8.1621709446846697e+00 +0.0000000000000000e+00 +9.9999994664289726e+00 -3.0519420102691014e-02 -5.6434821497626886e-01 +5.6107500194777313e-03
1.0099999999999980e+01 +8.1621140804774086e+00 +0.0000000000000000e+00 +1.0099999450261148e+01 -3.0519476158816148e-02 -5.6434830455634144e-01 +5.6109062921095403e-03
1.0199999999999980e+01 +8.1620566504510244e+00 +0.0000000000000000e+00 +1.0199999433769973e+01 -3.0519539782879964e-02 -5.6434840070463010e-01 +5.6110610631265809e-03
1.0299999999999979e+01 +8.1619986546054211e+00 +0.0000000000000000e+00 +1.0299999416952247e+01 -3.0519610447536233e-02 -5.6434850401643111e-01 +5.6112143592192444e-03
1.0399999999999979e+01 +8.1619400929404957e+00 +0.0000000000000000e+00 +1.0399999399804768e+01 -3.0519687625436994e-02 -5.6434861508708767e-01 +5.6113662070786784e-03
1.0499999999999979e+01 +8.1618809654561399e+00 +0.0000000000000000e+00 +1.0499999382324336e+01 -3.0519770789232577e-02 -5.6434873451199408e-01 +5.6115166333968094e-03
1.0599999999999978e+01 +8.1618212721522365e+00 +0.0000000000000000e+00 +1.0599999364507749e+01 -3.0519859411571613e-02 -5.6434886288659292e-01 +5.6116656648663122e-03
1.0699999999999978e+01 +8.1617610130286575e+00 +0.0000000000000000e+00 +1.0699999346351804e+01 -3.0519952965101071e-02 -5.6434900080637973e-01 +5.6118133281806235e-03
1.0799999999999978e+01 +8.1617001880852680e+00 +0.0000000000000000e+00 +1.0799999327853300e+01 -3.0520050922466322e-02 -5.6434914886690157e-01 +5.6119596500339300e-03
1.0899999999999977e+01 +8.1616387973219204e+00 +0.0000000000000000e+00 +1.0899999309009036e+01 -3.0520152756311082e-02 -5.6434930766375924e-01 +5.6121046571211688e-03
1.0999999999999977e+01 +8.1615768407384568e+00 +0.0000000000000000e+00 +1.0999999289815809e+01 -3.0520257939277519e-02 -5.6434947779260802e-01 +5.6122483761380116e-03
1.1099999999999977e+01 +8.1615143183347083e+00 +0.0000000000000000e+00 +1.1099999270270420e+01 -3.0520365944006249e-02 -5.6434965984915897e-01 +5.6123908337808821e-03
1.1199999999999976e+01 +8.1614512301104956e+00 +0.0000000000000000e+00 +1.1199999250369665e+01 -3.0520476243136335e-02 -5.6434985442917862e-01 +5.6125320567469239e-03
1.1299999999999976e+01 +8.1613875760656249e+00 +0.0000000000000000e+00 +1.1299999230110341e+01 -3.0520588309305402e-02 -5.6435006212849248e-01 +5.6126720717340241e-03
1.1399999999999975e+01 +8.1613233561998904e+00 +0.0000000000000000e+00 +1.1399999209489250e+01 -3.0520701615149557e-02 -5.6435028354298389e-01 +5.6128109054407850e-03
1.1499999999999975e+01 +8.1612585705130716e+00 +0.0000000000000000e+00 +1.1499999188503189e+01 -3.0520815633303482e-02 -5.6435051926859581e-01 +5.6129485845665388e-03
1.1599999999999975e+01 +8.1611932190049359e+00 +0.0000000000000000e+00 +1.1599999167148955e+01 -3.0520929836400458e-02 -5.6435076990133271e-01 +5.6130851358113252e-03
1.1699999999999974e+01 +8.1611273016752328e+00 +0.0000000000000000e+00 +1.1699999145423346e+01 -3.0521043697072398e-02 -5.6435103603725967e-01 +5.6132205858759106e-03
1.1799999999999974e+01 +8.1610608185236959e+00 +0.0000000000000000e+00 +1.1799999123323163e+01 -3.0521156687949819e-02 -5.6435131827250506e-01 +5.6133549614617549e-03
