# multipoles
# s[mm] polynom_b[n=0][T/m^n] polynom_b[n=1][T/m^n] polynom_b[n=2][T/m^n] polynom_b[n=3][T/m^n] polynom_b[n=4][T/m^n] polynom_b[n=5][T/m^n] polynom_b[n=6][T/m^n] 
+0.0000000000000000e+00 -5.9242244579241843e-01 +8.1041889949374806e+00 -2.9195492177451055e-01 +6.1454081663063391e+01 -1.4446803628465061e+03 -5.0830220616333093e+05 -6.2188829177365294e+06 
+1.0000000000000001e-01 -5.9242261272583341e-01 +8.1041674518259743e+00 -2.8739795884935943e-01 +6.1915562816925345e+01 -1.5571779682739693e+03 -5.1052038967426878e+05 -5.7230802511717193e+06 
+2.0000000000000001e-01 -5.9242278534692427e-01 +8.1041431129212533e+00 -2.8251000695711065e-01 +6.2423953431069918e+01 -1.6767335037923099e+03 -5.1294236995838716e+05 -5.1914235059893318e+06 
+2.9999999999999999e-01 -5.9242296316261245e-01 +8.1041162828729441e+00 -2.7732280054130026e-01 +6.2974204793214795e+01 -1.8026542441768072e+03 -5.1554590732111194e+05 -4.6272245462149959e+06 
+4.0000000000000002e-01 -5.9242314567989207e-01 +8.1040872663212351e+00 -2.7186807780055866e-01 +6.3561268465911674e+01 -1.9342473951823604e+03 -5.1830876369246439e+05 -4.0337955591764417e+06 
+5.0000000000000000e-01 -5.9242333240564204e-01 +8.1040563679119462e+00 -2.6617757973836820e-01 +6.4180095853248844e+01 -2.0708201120587460e+03 -5.2120870013605955e+05 -3.4144489660525904e+06 
+5.9999999999999998e-01 -5.9242352284684940e-01 +8.1040238922884686e+00 -2.6028304105966860e-01 +6.4825638438431085e+01 -2.2116796715504365e+03 -5.2422347822958825e+05 -2.7724966049198564e+06 
+6.9999999999999996e-01 -5.9242371651037973e-01 +8.1039901440954036e+00 -2.5421620404178497e-01 +6.5492847663318116e+01 -2.3561332091180502e+03 -5.2733085933264962e+05 -2.1112509778638966e+06 
+8.0000000000000004e-01 -5.9242391290317953e-01 +8.1039554279759667e+00 -2.4800880428884090e-01 +6.6176675006863903e+01 -2.5034879882494747e+03 -5.3050860504057002e+05 -1.4340239750682246e+06 
+9.0000000000000002e-01 -5.9242411153216901e-01 +8.1039200485748584e+00 -2.4169258127738644e-01 +6.6872071892862110e+01 -2.6530511960156682e+03 -5.3373447662025166e+05 -7.4412785567538848e+05 
+1.0000000000000000e+00 -5.9242431190427935e-01 +8.1038843105373406e+00 -2.3529927272806497e-01 +6.7573989723119084e+01 -2.8041300565467154e+03 -5.3698623523110535e+05 -4.4874691581895087e+04 
+1.1000000000000001e+00 -5.9242451352651726e-01 +8.1038485185078670e+00 -2.2886061514560255e-01 +6.8277379907607283e+01 -2.9560318110542780e+03 -5.4024164206250559e+05 +6.6042351233627996e+05 
+1.2000000000000000e+00 -5.9242471590572543e-01 +8.1038129771373839e+00 -2.2240834729249256e-01 +6.8977193645477755e+01 -3.1080636580132605e+03 -5.4347845704866946e+05 +1.3684545501645452e+06 
+1.3000000000000000e+00 -5.9242491854890045e-01 +8.1037779910724961e+00 -2.1597420354032767e-01 +6.9668382241523787e+01 -3.2595328796342901e+03 -5.4667444070141797e+05 +2.0759066184342878e+06 
+1.3999999999999999e+00 -5.9242512096304401e-01 +8.1037438649631728e+00 -2.0958991900864565e-01 +7.0345896890458178e+01 -3.4097467357412747e+03 -5.4980735288830497e+05 +2.7794677883806638e+06 
+1.5000000000000000e+00 -5.9242532265511516e-01 +8.1037109034609358e+00 -2.0328722708125763e-01 +7.1004688693421343e+01 -3.5580125179395595e+03 -5.5285495281892479e+05 +3.4758262817312833e+06 
+1.6000000000000001e+00 -5.9242552313210273e-01 +8.1036794112177510e+00 -1.9709786187247955e-01 +7.1639708716643938e+01 -3.7036375005353707e+03 -5.5579499946557172e+05 +4.1616702334490349e+06 
+1.7000000000000000e+00 -5.9242572190103915e-01 +8.1036496928905812e+00 -1.9105355306280891e-01 +7.2245907850497773e+01 -3.8459290349583234e+03 -5.5860525071096560e+05 +4.8336881290539391e+06 
+1.8000000000000000e+00 -5.9242591846898440e-01 +8.1036220531386309e+00 -1.8518603194006036e-01 +7.2818236883167501e+01 -3.9841944365752174e+03 -5.6126346376783866e+05 +5.4885682743114084e+06 
+1.8999999999999999e+00 -5.9242611234298037e-01 +8.1035967966192537e+00 -1.7952702564789291e-01 +7.3351646608234105e+01 -4.1177410930127335e+03 -5.6374739575878670e+05 +6.1229993044071002e+06 
+2.0000000000000000e+00 -5.9242630303015020e-01 +8.1035742279962850e+00 -1.7410825987351505e-01 +7.3841087583334328e+01 -4.2458764123688088e+03 -5.6603480232938286e+05 +6.7336699384358348e+06 
+2.1000000000000001e+00 -5.9242649022012772e-01 +8.1035545882124609e+00 -1.6895521726869336e-01 +7.4282564295070429e+01 -4.3680325720068995e+03 -5.6810838474400167e+05 +7.3178367479099641e+06 
+2.2000000000000002e+00 -5.9242667433006513e-01 +8.1035378637501339e+00 -1.6406796163913123e-01 +7.4676336321373455e+01 -4.4841467582086516e+03 -5.6997077775808133e+05 +7.8750533451919062e+06 
+2.2999999999999998e+00 -5.9242685595815892e-01 +8.1035239775726406e+00 -1.5944008785664940e-01 +7.5023736855513462e+01 -4.5942839766219840e+03 -5.7162963750958629e+05 +8.4054543772669677e+06 
+2.3999999999999999e+00 -5.9242703570268029e-01 +8.1035128526448670e+00 -1.5506518941594605e-01 +7.5326099015526836e+01 -4.6985092537178234e+03 -5.7309261962690239e+05 +8.9091745764213875e+06 
+2.5000000000000000e+00 -5.9242721416181920e-01 +8.1035044119288493e+00 -1.5093686283219054e-01 +7.5584755967435314e+01 -4.7968875556089451e+03 -5.7436737992318161e+05 +9.3863483812709879e+06 
+2.6000000000000001e+00 -5.9242739193378169e-01 +8.1034985783925535e+00 -1.4704870340105433e-01 +7.5801040684828521e+01 -4.8894838653608931e+03 -5.7546157304948848e+05 +9.8371102949907854e+06 
+2.7000000000000002e+00 -5.9242756961691390e-01 +8.1034952750002098e+00 -1.4339430379651275e-01 +7.5976286218253861e+01 -4.9763632135651242e+03 -5.7638285402491002e+05 +1.0261595042047424e+07 
+2.7999999999999998e+00 -5.9242774780935159e-01 +8.1034944247164837e+00 -1.3996726146063163e-01 +7.6111825569862830e+01 -5.0575905339688034e+03 -5.7713887748846796e+05 +1.0659936869665986e+07 
+2.8999999999999999e+00 -5.9242792710940950e-01 +8.1034959505074919e+00 -1.3676117028514523e-01 +7.6208991674897277e+01 -5.1332308228692073e+03 -5.7773729762436310e+05 +1.1032270309704954e+07 
+3.0000000000000000e+00 -5.9242810811529623e-01 +8.1034997753374984e+00 -1.3376962652225263e-01 +7.6269117490274510e+01 -5.2033490296882173e+03 -5.7818576865830203e+05 +1.1378729666035820e+07 
+3.1000000000000001e+00 -5.9242829142525089e-01 +8.1035058221726892e+00 -1.3098622717370850e-01 +7.6293535887618106e+01 -5.2680100799701422e+03 -5.7849194423529168e+05 +1.1699449102675859e+07 
+3.2000000000000002e+00 -5.9242847763756357e-01 +8.1035140139786073e+00 -1.2840456655577723e-01 +7.6283579719051318e+01 -5.3272789493889059e+03 -5.7866347778293502e+05 +1.1994563020964598e+07 
+3.2999999999999998e+00 -5.9242866735041488e-01 +8.1035242737166335e+00 -1.2601824195145572e-01 +7.6240581936241753e+01 -5.3812205500300324e+03 -5.7870802324400481e+05 +1.2264205497829651e+07 
+3.3999999999999999e+00 -5.9242886116212023e-01 +8.1035365243540269e+00 -1.2382085262842207e-01 +7.6165875273831233e+01 -5.4298997528298196e+03 -5.7863323316358204e+05 +1.2508510407015942e+07 
+3.5000000000000000e+00 -5.9242905967084714e-01 +8.1035506888545594e+00 -1.2180599479498792e-01 +7.6060792555857134e+01 -5.4733814781728352e+03 -5.7844676057581126e+05 +1.2727611832031261e+07 
+3.6000000000000001e+00 -5.9242926347488878e-01 +8.1035666901768924e+00 -1.1996726737384551e-01 +7.5926666697636364e+01 -5.5117305930782095e+03 -5.7815625887072936e+05 +1.2921643597863194e+07 
+3.7000000000000002e+00 -5.9242947317242189e-01 +8.1035844512882509e+00 -1.1829827299563486e-01 +7.5764830354242633e+01 -5.5450118873370538e+03 -5.7776937989015004e+05 +1.3090739141892064e+07 
+3.7999999999999998e+00 -5.9242968936169826e-01 +8.1036038951453389e+00 -1.1679260911294839e-01 +7.5576616434924375e+01 -5.5732902433359359e+03 -5.7729377679765061e+05 +1.3235032326091534e+07 
+3.8999999999999999e+00 -5.9242991264093348e-01 +8.1036249447122604e+00 -1.1544387813052592e-01 +7.5363357611808041e+01 -5.5966304423186630e+03 -5.7673710130918643e+05 +1.3354656510719068e+07 
+4.0000000000000000e+00 -5.9243014360835300e-01 +8.1036475229471296e+00 -1.1424568469895272e-01 +7.5126386687210612e+01 -5.6150972199636335e+03 -5.7610700575289293e+05 +1.3449744831027182e+07 
+4.0999999999999996e+00 -5.9243038279189175e-01 +8.1036715237787647e+00 -1.1318865145991404e-01 +7.4867315588385509e+01 -5.6288249610417261e+03 -5.7541135518609919e+05 +1.3520783523847748e+07 
+4.2000000000000002e+00 -5.9243063044199307e-01 +8.1036967205323851e+00 -1.1225018063955525e-01 +7.4588944709886732e+01 -5.6382444238209782e+03 -5.7465925265956495e+05 +1.3569727721707176e+07 
+4.2999999999999998e+00 -5.9243088674060262e-01 +8.1037228552399370e+00 -1.1140402170616195e-01 +7.4294388918255422e+01 -5.6438653412036210e+03 -5.7386020036610367e+05 +1.3598916023990110e+07 
+4.4000000000000004e+00 -5.9243115186971451e-01 +8.1037496699209424e+00 -1.1062393005318012e-01 +7.3986763425717641e+01 -5.6461973474926936e+03 -5.7302370247791894e+05 +1.3610686588191133e+07 
+4.5000000000000000e+00 -5.9243142601125076e-01 +8.1037769066015191e+00 -1.0988365790810881e-01 +7.3669183263490709e+01 -5.6457501428986188e+03 -5.7215926214755455e+05 +1.3607377891906237e+07 
+4.5999999999999996e+00 -5.9243170934711242e-01 +8.1038043072976436e+00 -1.0915696062466945e-01 +7.3344763749998094e+01 -5.6430333850446732e+03 -5.7127638418698299e+05 +1.3591328243660325e+07 
+4.7000000000000002e+00 -5.9243200205921454e-01 +8.1038316140271061e+00 -1.0841759415009920e-01 +7.3016620157307443e+01 -5.6385567267598390e+03 -5.7038457315967337e+05 +1.3564875935995881e+07 
+4.7999999999999998e+00 -5.9243230432937533e-01 +8.1038585687994846e+00 -1.0763931583232893e-01 +7.2687867992762278e+01 -5.6328298122576971e+03 -5.6949333499665302e+05 +1.3530359256478099e+07 
+4.9000000000000004e+00 -5.9243261633944599e-01 +8.1038849136259028e+00 -1.0679588064354494e-01 +7.2361622725068116e+01 -5.6263623414580052e+03 -5.6861217542834650e+05 +1.3490116774118830e+07 
+5.0000000000000000e+00 -5.9243293827118948e-01 +8.1039103905113858e+00 -1.0586105100873905e-01 +7.2041000007525611e+01 -5.6196638912223352e+03 -5.6775060128487018e+05 +1.3446486508407347e+07 
+5.0999999999999996e+00 -5.9243327030642245e-01 +8.1039347414543119e+00 -1.0480858440744617e-01 +7.1729115686116174e+01 -5.6132441437437565e+03 -5.6691812052179989e+05 +1.3401806998611556e+07 
+5.2000000000000002e+00 -5.9243361262684591e-01 +8.1039577084544536e+00 -1.0361224188616765e-01 +7.1429085588381497e+01 -5.6076127315969943e+03 -5.6612424105695263e+05 +1.3358416581423670e+07 
+5.2999999999999998e+00 -5.9243396541416282e-01 +8.1039790334995807e+00 -1.0224578463173700e-01 +7.1144025883059641e+01 -5.6032793036362818e+03 -5.6537847277618444e+05 +1.3318653707402322e+07 
+5.4000000000000004e+00 -5.9243432885005509e-01 +8.1039984585826232e+00 -1.0068297743577131e-01 +7.0877052615902372e+01 -5.6007534546253428e+03 -5.6469032493280235e+05 +1.3284856593681986e+07 
+5.5000000000000000e+00 -5.9243470311611379e-01 +8.1040157256838743e+00 -9.8897581494275549e-02 +7.0631282200081628e+01 -5.6005448677113463e+03 -5.6406930892002303e+05 +1.3259363914446022e+07 
+5.5999999999999996e+00 -5.9243508839398407e-01 +8.1040305767834688e+00 -9.6863366159834915e-02 +7.0409831075791757e+01 -5.6031630926645521e+03 -5.6352493636127911e+05 +1.3244513752718851e+07 
+5.7000000000000002e+00 -5.9243548486515674e-01 +8.1040427538558006e+00 -9.4554094573273045e-02 +7.0215815862000667e+01 -5.6091178142886156e+03 -5.6306671995654586e+05 +1.3242644861073734e+07 
+5.7999999999999998e+00 -5.9243589271117181e-01 +8.1040519988701387e+00 -9.1943538092241553e-02 +7.0052353340809404e+01 -5.6189185855371788e+03 -5.6270417340065748e+05 +1.3256095414292851e+07 
+5.9000000000000004e+00 -5.9243631211345626e-01 +8.1040580537868099e+00 -8.9005463785456429e-02 +6.9922560577226875e+01 -5.6330750586144641e+03 -5.6244681210442120e+05 +1.3287204086828468e+07 
+5.9999999999999902e+00 -5.9243674325351048e-01 +8.1040606605650982e+00 -8.5713643504295806e-02 +6.9829554688747933e+01 -5.6520968223029886e+03 -5.6230415183268231e+05 +1.3338309308742525e+07 
+6.0999999999999899e+00 -5.9243718608603402e-01 +8.1040596340397464e+00 -8.2053585984980651e-02 +6.9775468160716315e+01 -5.6763338127036141e+03 -5.6228193673012906e+05 +1.3411116259542344e+07 
+6.1999999999999904e+00 -5.9243763966169161e-01 +8.1040550783379164e+00 -7.8060395850164707e-02 +6.9758561056749997e+01 -5.7054638045938609e+03 -5.6237117888046429e+05 +1.3504676056621227e+07 
+6.2999999999999901e+00 -5.9243810280555920e-01 +8.1040471694536205e+00 -7.3782248550857202e-02 +6.9776143493615052e+01 -5.7389880397776114e+03 -5.6255930713773426e+05 +1.3617345639126848e+07 
+6.3999999999999897e+00 -5.9243857434268388e-01 +8.1040360833850915e+00 -6.9267320907615434e-02 +6.9825525596506509e+01 -5.7764077255553248e+03 -5.6283375073078217e+05 +1.3747481754519461e+07 
+6.4999999999999902e+00 -5.9243905309810285e-01 +8.1040219961429205e+00 -6.4563783758263257e-02 +6.9904017245110197e+01 -5.8172241860868544e+03 -5.6318193774693552e+05 +1.3893441714434192e+07 
+6.5999999999999899e+00 -5.9243953789696813e-01 +8.1040050837535613e+00 -5.9719808985983433e-02 +7.0008927999028643e+01 -5.8609387216426467e+03 -5.6359129478109919e+05 +1.4053582702546516e+07 
+6.6999999999999904e+00 -5.9244002756441538e-01 +8.1039855222561137e+00 -5.4783560760800404e-02 +7.0137567183377200e+01 -5.9070527727289218e+03 -5.6404924740811542e+05 +1.4226262551383272e+07 
+6.7999999999999901e+00 -5.9244052092556043e-01 +8.1039634876988611e+00 -4.9803209705677295e-02 +7.0287244004394665e+01 -5.9550676574674244e+03 -5.6454322089290584e+05 +1.4409838509741439e+07 
+6.8999999999999897e+00 -5.9244101680559214e-01 +8.1039391561456231e+00 -4.4826918662111942e-02 +7.0455267351109853e+01 -6.0044848363734336e+03 -5.6506063900104270e+05 +1.4602668488163734e+07 
+6.9999999999999902e+00 -5.9244151402974654e-01 +8.1039127036785619e+00 -3.9902848968010399e-02 +7.0638945746831823e+01 -6.0548057951622113e+03 -5.6558892381132895e+05 +1.4803110505958447e+07 
+7.0999999999999899e+00 -5.9244201142322261e-01 +8.1038843063851562e+00 -3.5079160103853174e-02 +7.0835587708661052e+01 -6.1055320512374128e+03 -5.6611549773990607e+05 +1.5009522721724713e+07 
+7.1999999999999904e+00 -5.9244250781127061e-01 +8.1038541403777256e+00 -3.0404010692597488e-02 +7.1042501196995119e+01 -6.1561651314038563e+03 -5.6662778039675299e+05 +1.5220263321095686e+07 
+7.2999999999999901e+00 -5.9244300201920552e-01 +8.1038223817789863e+00 -2.5925555374137363e-02 +7.1256994033303243e+01 -6.2062066358964476e+03 -5.6711319100949005e+05 +1.5433690829630133e+07 
+7.3999999999999897e+00 -5.9244349287230202e-01 +8.1037892067282868e+00 -2.1691944180968741e-02 +7.1476373736494622e+01 -6.2551582474129482e+03 -5.6755914750176971e+05 +1.5648164152240049e+07 
+7.4999999999999902e+00 -5.9244397919598191e-01 +8.1037547913847181e+00 -1.7751328577890642e-02 +7.1697947425324145e+01 -6.3025216145029053e+03 -5.6795306593114662e+05 +1.5862042010640040e+07 
+7.5999999999999899e+00 -5.9244445981555138e-01 +8.1037193119186419e+00 -1.4151853917983619e-02 +7.1919022075893054e+01 -6.3477984968245428e+03 -5.6828236199311225e+05 +1.6073683642493142e+07 
+7.6999999999999904e+00 -5.9244493355645245e-01 +8.1036829445272769e+00 -1.0941664710798367e-02 +7.2136904060798599e+01 -6.3904906624782880e+03 -5.6853444833002693e+05 +1.6281448303353867e+07 
+7.7999999999999901e+00 -5.9244539924417217e-01 +8.1036458654168353e+00 -8.1689010204904003e-03 +7.2348899700249987e+01 -6.4300999618795613e+03 -5.6869673782299983e+05 +1.6483695635721585e+07 
+7.8999999999999897e+00 -5.9244585570415809e-01 +8.1036082508141742e+00 -5.8817025700730165e-03 +7.2552314911909832e+01 -6.4661282405063957e+03 -5.6875664151913510e+05 +1.6678785226521019e+07 
+7.9999999999999902e+00 -5.9244630176197977e-01 +8.1035702769697373e+00 -4.1282025140313827e-03 +7.2744455130721278e+01 -6.4980774634480276e+03 -5.6870156814494508e+05 +1.6865077220194291e+07 
+8.0999999999999908e+00 -5.9244673664273717e-01 +8.1035321232095132e+00 -2.9417340436778145e-03 +7.2922894487632078e+01 -6.5255683971884619e+03 -5.6852136309130862e+05 +1.7041202549141452e+07 
+8.1999999999999904e+00 -5.9244716116181628e-01 +8.1034939989106896e+00 -2.2978973398279636e-03 +7.3085724049890132e+01 -6.5486839206656232e+03 -5.6821276235127752e+05 +1.7206870040970288e+07 
+8.2999999999999901e+00 -5.9244757653023494e-01 +8.1034561253890871e+00 -2.1582524639944842e-03 +7.3231028868178285e+01 -6.5676179849724367e+03 -5.6777354875624692e+05 +1.7362050604692824e+07 
+8.3999999999999897e+00 -5.9244798395908749e-01 +8.1034187239406155e+00 -2.4843587793429746e-03 +7.3356894381246306e+01 -6.5825645269068245e+03 -5.6720150695895171e+05 +1.7506715037789255e+07 
+8.4999999999999893e+00 -5.9244838465955918e-01 +8.1033820158566510e+00 -3.2377716601813791e-03 +7.3461405989286931e+01 -6.5937175382539081e+03 -5.6649442095224594e+05 +1.7640834367529243e+07 
+8.5999999999999908e+00 -5.9244877984275879e-01 +8.1033462223954871e+00 -4.3800534760580967e-03 +7.3542649861287700e+01 -6.6012708522051889e+03 -5.6565007869949192e+05 +1.7764378825278867e+07 
+8.6999999999999904e+00 -5.9244917071994918e-01 +8.1033115648152858e+00 -5.8727555194885038e-03 +7.3598711983215011e+01 -6.6054184863364135e+03 -5.6466626662526629e+05 +1.7877319475390021e+07 
+8.7999999999999794e+00 -5.9244955850235415e-01 +8.1032782643428778e+00 -7.6774386095296238e-03 +7.3627679035484135e+01 -6.6063542530089480e+03 -5.6354077462840918e+05 +1.7979626368867021e+07 
+8.8999999999999808e+00 -5.9244994440133469e-01 +8.1032465421938795e+00 -9.7556554734499652e-03 +7.3627637823795268e+01 -6.6042720886351344e+03 -5.6227139282256307e+05 +1.8071270096806742e+07 
+8.9999999999999805e+00 -5.9245032962818756e-01 +8.1032166195630886e+00 -1.2068963702888603e-02 +7.3596675549813952e+01 -6.5993658141382766e+03 -5.6085591308418044e+05 +1.8152220667138081e+07 
+9.0999999999999801e+00 -5.9245071539432748e-01 +8.1031887176271766e+00 -1.4578915890609282e-02 +7.3532879712172232e+01 -6.5918293114438429e+03 -5.5929212842519267e+05 +1.8222448317811389e+07 
+9.1999999999999797e+00 -5.9245110291118053e-01 +8.1031630575389908e+00 -1.7247067493840942e-02 +7.3434338275104949e+01 -6.5818563861621296e+03 -5.5757783397783432e+05 +1.8281922896017723e+07 
+9.2999999999999794e+00 -5.9245149339028202e-01 +8.1031398604334566e+00 -2.0034970248934914e-02 +7.3299139488298579e+01 -6.5696408791793101e+03 -5.5571082592880912e+05 +1.8330614353438783e+07 
+9.3999999999999808e+00 -5.9245188804314408e-01 +8.1031193474232897e+00 -2.2904176722461443e-02 +7.3125372020285724e+01 -6.5553765859054465e+03 -5.5368890231564885e+05 +1.8368492378561314e+07 
+9.4999999999999805e+00 -5.9245228808134209e-01 +8.1031017396007066e+00 -2.5816240609129827e-02 +7.2911124857157276e+01 -6.5392572536194039e+03 -5.5150986230444792e+05 +1.8395526393714331e+07 
+9.5999999999999801e+00 -5.9245269471653639e-01 +8.1030872580354867e+00 -2.8732711191611322e-02 +7.2654487407973477e+01 -6.5214766762150666e+03 -5.4917150692920829e+05 +1.8411685976086132e+07 
+9.6999999999999797e+00 -5.9245310916045146e-01 +8.1030761237693198e+00 -3.1615139318206663e-02 +7.2353549629733394e+01 -6.5022285878723769e+03 -5.4667163972053386e+05 +1.8416940375274219e+07 
+9.7999999999999794e+00 -5.9245353262479561e-01 +8.1030685578272550e+00 -3.4425076388889531e-02 +7.2006401692325895e+01 -6.4817066792638452e+03 -5.4400806474470953e+05 +1.8411258580981418e+07 
+9.8999999999999808e+00 -5.9245396632137837e-01 +8.1030647812063847e+00 -3.7124071048072561e-02 +7.1611134303034518e+01 -6.4601046593092278e+03 -5.4117858848473639e+05 +1.8394609614401925e+07 
+9.9999999999999805e+00 -5.9245441146209588e-01 +8.1030650148820271e+00 -3.9673671382330272e-02 +7.1165838483379517e+01 -6.4376162172964578e+03 -5.3818101857704227e+05 +1.8366962352586724e+07 
+1.0100000000000000e+01 -5.9245486906330513e-01 +8.1030694271576209e+00 -4.2039179527685364e-02 +7.0668768096252450e+01 -6.4144635300175350e+03 -5.3501145971617382e+05 +1.8328561474080250e+07 
