# multipoles
# s[mm] polynom_b[n=0][T/m^n] polynom_b[n=1][T/m^n] polynom_b[n=2][T/m^n] polynom_b[n=3][T/m^n] polynom_b[n=4][T/m^n] polynom_b[n=5][T/m^n] polynom_b[n=6][T/m^n] 
-0.0000000000000000e+00 -5.6446746413026050e-01 +7.7313450445799159e+00 -7.4037447086841257e-01 +4.2095601505175786e+00 -2.7238148056639722e+02 -1.9728968038266525e+05 +7.5704581755170962e+06 
-1.0000000000000001e-01 -5.6446758375817108e-01 +7.7313542082352704e+00 -7.4136919688435232e-01 +4.0174736874848334e+00 -2.3354078602594461e+02 -1.9642497381936174e+05 +7.3514239255744219e+06 
-2.0000000000000001e-01 -5.6446770655398792e-01 +7.7313621806603168e+00 -7.4244275312116170e-01 +3.8301767685292276e+00 -1.9208621481428477e+02 -1.9556421350472147e+05 +7.1198187125350311e+06 
-2.9999999999999999e-01 -5.6446783314549276e-01 +7.7313691342188484e+00 -7.4357639686458477e-01 +3.6461080251359670e+00 -1.4818961661535383e+02 -1.9470474075166989e+05 +6.8760038791928533e+06 
-4.0000000000000002e-01 -5.6446796416047773e-01 +7.7313752412804337e+00 -7.4475138568730881e-01 +3.4637059138106134e+00 -1.0202283480233085e+02 -1.9384389584610061e+05 +6.6203407328325659e+06 
-5.0000000000000000e-01 -5.6446810022665439e-01 +7.7313806742099596e+00 -7.4594897644150271e-01 +3.2814089898815602e+00 -5.3757727983332941e+01 -1.9297901955132745e+05 +6.3531906582646249e+06 
-5.9999999999999998e-01 -5.6446824197178114e-01 +7.7313856053741734e+00 -7.4715042702818357e-01 +3.0976557394196340e+00 -3.5661321515257116e+00 -1.9210745218542879e+05 +6.0749149240633771e+06 
-6.9999999999999996e-01 -5.6446839002371485e-01 +7.7313902071349272e+00 -7.4833699374088791e-01 +2.9108847654175958e+00 +4.8380086529484593e+01 -1.9122653467970551e+05 +5.7858749431203678e+06 
-8.0000000000000004e-01 -5.6446854501011468e-01 +7.7313946518596071e+00 -7.4948993649965956e-01 +2.7195344787272617e+00 +1.0190913568882989e+02 -1.9033360676064412e+05 +5.4864317634386681e+06 
-9.0000000000000002e-01 -5.6446870755877920e-01 +7.7313991119084875e+00 -7.5059051194191917e-01 +2.5220434687122437e+00 +1.5684915899039785e+02 -1.8942600910997507e+05 +5.1769467445057612e+06 
-1.0000000000000000e+00 -5.6446887829751791e-01 +7.7314037596420970e+00 -7.5161997591546525e-01 +2.3168502963780790e+00 +2.1302829219591675e+02 -1.8850108218381859e+05 +4.8577812659020917e+06 
-1.1000000000000001e+00 -5.6446905785404122e-01 +7.7314087674209366e+00 -7.5255958624843688e-01 +2.1023934754329661e+00 +2.7027471053562294e+02 -1.8755616602464096e+05 +4.5292965168043533e+06 
-1.2000000000000000e+00 -5.6446924685616073e-01 +7.7314143075975306e+00 -7.5339060268876112e-01 +1.8771117341401395e+00 +3.2841662908529935e+02 -1.8658860186056021e+05 +4.1918534919002638e+06 
-1.3000000000000000e+00 -5.6446944593161141e-01 +7.7314205525318949e+00 -7.5409428123240663e-01 +1.6394435378682559e+00 +3.8728219851593548e+02 -1.8559572926586159e+05 +3.8458134764815816e+06 
-1.3999999999999999e+00 -5.6446965570820629e-01 +7.7314276745697352e+00 -7.5465187945357814e-01 +1.3878277374893628e+00 +4.4669960445181573e+02 -1.8457488994901875e+05 +3.4915375813699290e+06 
-1.5000000000000000e+00 -5.6446987681376037e-01 +7.7314358460648522e+00 -7.5504465534584364e-01 +1.1207029066343102e+00 +5.0649704637509660e+02 -1.8352342388448570e+05 +3.1293868400787902e+06 
-1.6000000000000001e+00 -5.6447010987606150e-01 +7.7314452393578108e+00 -7.5525386405715766e-01 +8.3650797049274739e-01 +5.6650267449218495e+02 -1.8243867297753575e+05 +2.7597225136094312e+06 
-1.7000000000000000e+00 -5.6447035552285962e-01 +7.7314560267924941e+00 -7.5526076661325903e-01 +5.3368170524528002e-01 +6.2654475923995017e+02 -1.8131797810777376e+05 +2.3829052732912139e+06 
-1.8000000000000000e+00 -5.6447061438205226e-01 +7.7314683807054472e+00 -7.5504661750703639e-01 +2.1066307350684521e-01 +6.8645145589423134e+02 -1.8015868114383053e+05 +1.9992963217139302e+06 
-1.8999999999999999e+00 -5.6447088708139714e-01 +7.7314824734316590e+00 -7.5459267562988208e-01 -1.3410897573351030e-01 +7.4605100976404469e+02 -1.7895812368836591e+05 +1.6092564225342930e+06 
-2.0000000000000000e+00 -5.6447117424880100e-01 +7.7314984773011295e+00 -7.5388019629365499e-01 -5.0219538859656343e-01 +8.0517160462496702e+02 -1.7771364782438378e+05 +1.2131466224097817e+06 
-2.1000000000000001e+00 -5.6447147616161109e-01 +7.7315165043594423e+00 -7.5290354242240110e-01 -8.9427251671586239e-01 +8.6374142212818651e+02 -1.7642563244764920e+05 +8.1119073603889078e+05 
-2.2000000000000002e+00 -5.6447179176141060e-01 +7.7315364327671272e+00 -7.5170619782301351e-01 -1.3075042507402042e+00 +9.2205686063934081e+02 -1.7510689557253601e+05 +4.0313679058231844e+05 
-2.2999999999999998e+00 -5.6447211967148536e-01 +7.7315580839665525e+00 -7.5034315612315483e-01 -1.7381838636277220e+00 +9.8049907639846799e+02 -1.7377342541642609e+05 -1.1369721372484548e+04 
-2.3999999999999999e+00 -5.6447245851521244e-01 +7.7315812794014738e+00 -7.4886940952688552e-01 -2.1826046156838950e+00 +1.0394491948592829e+03 -1.7244121047795317e+05 -4.3268314960080624e+05 
-2.5000000000000000e+00 -5.6447280691585433e-01 +7.7316058405275250e+00 -7.4733995475281989e-01 -2.6370600742904191e+00 +1.0992884293951931e+03 -1.7112623764098936e+05 -8.6115826255675429e+05 
-2.6000000000000001e+00 -5.6447316349671794e-01 +7.7316315888001350e+00 -7.4580978597006653e-01 -3.0978437383746469e+00 +1.1603979382246516e+03 -1.6984449443263811e+05 -1.2971495448854789e+06 
-2.7000000000000002e+00 -5.6447352688109786e-01 +7.7316583456894659e+00 -7.4433389943814210e-01 -3.5612494698864392e+00 +1.2231589212828458e+03 -1.6861196653639548e+05 -1.7410116810893370e+06 
-2.7999999999999998e+00 -5.6447389569226203e-01 +7.7316859326659451e+00 -7.4296729373005310e-01 -4.0235710595429959e+00 +1.2879526131196362e+03 -1.6744464034987934e+05 -2.1930994927673978e+06 
-2.8999999999999999e+00 -5.6447426855349103e-01 +7.7317141712167041e+00 -7.4176496657274038e-01 -4.4811027102711911e+00 +1.3551602321213045e+03 -1.6635850017942226e+05 -2.6537677193747251e+06 
-3.0000000000000000e+00 -5.6447464408803394e-01 +7.7317428828305887e+00 -7.4078191904196000e-01 -4.9301385815764727e+00 +1.4251630552417701e+03 -1.6536953093124388e+05 -3.1233713631087337e+06 
-3.1000000000000001e+00 -5.6447502091913826e-01 +7.7317718890135687e+00 -7.4007315190142575e-01 -5.3669732312487790e+00 +1.4983423455036459e+03 -1.6449371559431104e+05 -3.6022653351554275e+06 
-3.2000000000000002e+00 -5.6447539767002686e-01 +7.7318010112787565e+00 -7.3969366912174461e-01 -5.7879013188651092e+00 +1.5750794230772858e+03 -1.6374703697204811e+05 -4.0908048034088933e+06 
-3.2999999999999998e+00 -5.6447577296393558e-01 +7.7318300711507870e+00 -7.3969847227829721e-01 -6.1892177340959336e+00 +1.6557555543587287e+03 -1.6314547693698635e+05 -4.5893446559099946e+06 
-3.3999999999999999e+00 -5.6447614542404012e-01 +7.7318588901708747e+00 -7.4014257015138185e-01 -6.5672177230049238e+00 +1.7407521348343773e+03 -1.6270501577386807e+05 -5.0982403698731102e+06 
-3.5000000000000000e+00 -5.6447651367352847e-01 +7.7318872898877320e+00 -7.4108096953045532e-01 -6.9181966158000705e+00 +1.8304505161587822e+03 -1.6244163378484434e+05 -5.6178471953118984e+06 
-3.6000000000000001e+00 -5.6447687633559185e-01 +7.7319150918687658e+00 -7.4256867961180717e-01 -7.2384501544510167e+00 +1.9252320852074361e+03 -1.6237130938637111e+05 -6.1485205180874849e+06 
-3.7000000000000002e+00 -5.6447723203331535e-01 +7.7319421176980576e+00 -7.4466071181950544e-01 -7.5242744232280581e+00 +2.0254782621228164e+03 -1.6251001955673847e+05 -6.6906158541904977e+06 
-3.7999999999999998e+00 -5.6447757938983700e-01 +7.7319681889680005e+00 -7.4741208075656373e-01 -7.7719655897120914e+00 +2.1315705180193600e+03 -1.6287374137668838e+05 -7.2444889351779418e+06 
-3.8999999999999999e+00 -5.6447791702830652e-01 +7.7319931272935580e+00 -7.5087779865108795e-01 -7.9778203255194970e+00 +2.2438902663466583e+03 -1.6347844959194184e+05 -7.8104951798795639e+06 
-4.0000000000000000e+00 -5.6447824357173826e-01 +7.7320167543071880e+00 -7.5511288430856960e-01 -8.1381355826649440e+00 +2.3628190451673963e+03 -1.6434011814159315e+05 -8.3889906028098781e+06 
-4.0999999999999996e+00 -5.6447855800499180e-01 +7.7320389264285714e+00 -7.6014979049157505e-01 -8.2501851663870749e+00 +2.4885041491035986e+03 -1.6546944901322003e+05 -8.9797528116290495e+06 
-4.2000000000000002e+00 -5.6447886063166886e-01 +7.7320596316993715e+00 -7.6593924036133587e-01 -8.3151225240094622e+00 +2.6202548391600349e+03 -1.6685560405974579e+05 -9.5805366444736905e+06 
-4.2999999999999998e+00 -5.6447915205609200e-01 +7.7320788892755390e+00 -7.7241344854208949e-01 -8.3350588374348629e+00 +2.7571931723762650e+03 -1.6848230158311012e+05 -1.0188657191352110e+07 
-4.4000000000000004e+00 -5.6447943288244318e-01 +7.7320967183088714e+00 -7.7950463231320477e-01 -8.3121051471392349e+00 +2.8984412469388863e+03 -1.7033326055556437e+05 -1.0801429720991656e+07 
-4.5000000000000000e+00 -5.6447970371504663e-01 +7.7321131379346202e+00 -7.8714500455696124e-01 -8.2483719729998626e+00 +3.0431210746183287e+03 -1.7239220286957212e+05 -1.1416169093657212e+07 
-4.5999999999999996e+00 -5.6447996515809729e-01 +7.7321281672875841e+00 -7.9526677908666510e-01 -8.1459698102058038e+00 +3.1903546763405639e+03 -1.7464285035185204e+05 -1.2030190202117955e+07 
-4.7000000000000002e+00 -5.6448021781591107e-01 +7.7321418254826684e+00 -8.0380216778214675e-01 -8.0070085444716028e+00 +3.3392640296113127e+03 -1.7706892820293299e+05 -1.2640807725272350e+07 
-4.7999999999999998e+00 -5.6448046229270366e-01 +7.7321541316285156e+00 -8.1268337983175831e-01 -7.8335978682235270e+00 +3.4889710515962956e+03 -1.7965416251571916e+05 -1.3245336041651791e+07 
-4.9000000000000004e+00 -5.6448069919280630e-01 +7.7321651048168407e+00 -8.2184262362517591e-01 -7.6278469524222761e+00 +3.6385976432822345e+03 -1.8238228220794749e+05 -1.3841089464328341e+07 
-5.0000000000000000e+00 -5.6448092912042314e-01 +7.7321747641299465e+00 -8.3121210743610863e-01 -7.3918646813847637e+00 +3.7872656894319971e+03 -1.8523701760388666e+05 -1.4425382205360217e+07 
-5.0999999999999996e+00 -5.6448115267990739e-01 +7.7321831286302070e+00 -8.4072403446479038e-01 -7.1277593513894608e+00 +3.9340969744181962e+03 -1.8820210214915720e+05 -1.4995528001243411e+07 
-5.2000000000000002e+00 -5.6448137047551616e-01 +7.7321902173708779e+00 -8.5031060758358967e-01 -6.8376389658900782e+00 +4.0782132650882650e+03 -1.9126127074613774e+05 -1.5548840491493961e+07 
-5.2999999999999998e+00 -5.6448158311153207e-01 +7.7321960493856006e+00 -8.5990402945475586e-01 -6.5236109568215612e+00 +4.2187363204568510e+03 -1.9439826127433282e+05 -1.6082633282851381e+07 
-5.4000000000000004e+00 -5.6448179119227504e-01 +7.7322006436908248e+00 -8.6943649609309404e-01 -6.1877822448953594e+00 +4.3547877609635507e+03 -1.9759681424985218e+05 -1.6594219307017611e+07 
-5.5000000000000000e+00 -5.6448199532200838e-01 +7.7322040192870514e+00 -8.7884020620240577e-01 -5.8322592715669543e+00 +4.4854892516461305e+03 -2.0084067265099109e+05 -1.7080911707436286e+07 
-5.5999999999999996e+00 -5.6448219610511319e-01 +7.7322061951556620e+00 -8.8804735299808468e-01 -5.4591479208670082e+00 +4.6099623449767187e+03 -2.0411358229995938e+05 -1.7540023087468054e+07 
-5.7000000000000002e+00 -5.6448239414589341e-01 +7.7322071902589604e+00 -8.9699012713144266e-01 -5.0705535176653074e+00 +4.7273285350184915e+03 -2.0739929187924444e+05 -1.7968865765966143e+07 
-5.7999999999999998e+00 -5.6448259004867030e-01 +7.7322070235347988e+00 -9.0560071904164607e-01 -4.6685806692548937e+00 +4.8367093004495455e+03 -2.1068155383692606e+05 -1.8364751976381082e+07 
-5.9000000000000004e+00 -5.6448278441780764e-01 +7.7322057139082441e+00 -9.1381131242849323e-01 -4.2553336081578435e+00 +4.9372259843837910e+03 -2.1394412236755434e+05 -1.8724993308846418e+07 
-5.9999999999999902e+00 -5.6448297785764379e-01 +7.7322032802726035e+00 -9.2155409464537008e-01 -3.8329157881005025e+00 +5.0279999827081547e+03 -2.1717075512482194e+05 -1.9046901542284589e+07 
-6.0999999999999899e+00 -5.6448317097830814e-01 +7.7321997548893844e+00 -9.2877777436229736e-01 -3.4034348702881441e+00 +5.1084104904204214e+03 -2.2034623112097054e+05 -1.9328650490072876e+07 
-6.1999999999999904e+00 -5.6448336440445002e-01 +7.7321952246343919e+00 -9.3548961111325069e-01 -2.9689182686055653e+00 +5.1787456393580396e+03 -2.2346070796189873e+05 -1.9571434383140910e+07 
-6.2999999999999901e+00 -5.6448355876242062e-01 +7.7321897900061378e+00 -9.4170987113062710e-01 -2.5313528445151339e+00 +5.2394941388560110e+03 -2.2650593215059378e+05 -1.9777107697266154e+07 
-6.3999999999999897e+00 -5.6448375467859857e-01 +7.7321835515081325e+00 -9.4745881713826496e-01 -2.0927256943426809e+00 +5.2911446336612325e+03 -2.2947364877784543e+05 -1.9947524613223277e+07 
-6.4999999999999902e+00 -5.6448395277936192e-01 +7.7321766096458306e+00 -9.5275671284738139e-01 -1.6550240607389792e+00 +5.3341857972352946e+03 -2.3235560205748756e+05 -2.0084539482903045e+07 
-6.5999999999999899e+00 -5.6448415369112515e-01 +7.7321690649372439e+00 -9.5762381816632181e-01 -1.2202356541485291e+00 +5.3691062399282764e+03 -2.3514353343041887e+05 -2.0190006389634117e+07 
-6.6999999999999904e+00 -5.6448435804029962e-01 +7.7321610178897986e+00 -9.6208039337309670e-01 -7.9034797975776250e-01 +5.3963945821768402e+03 -2.3782918548371433e+05 -2.0265779480246376e+07 
-6.7999999999999901e+00 -5.6448456645334188e-01 +7.7321525690289317e+00 -9.6614669783614704e-01 -3.6734917550771445e-01 +5.4165394392460657e+03 -2.4040429708170838e+05 -2.0313712916503683e+07 
-6.8999999999999897e+00 -5.6448477955665022e-01 +7.7321438188778542e+00 -9.6984298801279711e-01 +4.6772576213010619e-02 +5.4300293789284615e+03 -2.4286060679937477e+05 -2.0335660664543297e+07 
-6.9999999999999902e+00 -5.6448499797670826e-01 +7.7321348679670381e+00 -9.7318952108241341e-01 +4.5002875826098343e-01 +5.4373529911445630e+03 -2.4518985119163714e+05 -2.0333476823694564e+07 
-7.0999999999999899e+00 -5.6448522233999254e-01 +7.7321258168305684e+00 -9.7620655223828268e-01 +8.4043063151543884e-01 +5.4389988388989404e+03 -2.4738376550432594e+05 -2.0309015404578332e+07 
-7.1999999999999904e+00 -5.6448545327301114e-01 +7.7321167660126155e+00 -9.7891433371395609e-01 +1.2159890274591774e+00 +5.4354554385461497e+03 -2.4943408239835472e+05 -2.0264130227494087e+07 
-7.2999999999999901e+00 -5.6448569140229365e-01 +7.7321078160595000e+00 -9.8133311913565480e-01 +1.5747145912407541e+00 +5.4272113426503047e+03 -2.5133253343498384e+05 -2.0200675319901712e+07 
-7.3999999999999897e+00 -5.6448593735431729e-01 +7.7320990675219718e+00 -9.8348315918755902e-01 +1.9146176934271186e+00 +5.4147550595950061e+03 -2.5307084849785196e+05 -2.0120504538225129e+07 
-7.4999999999999902e+00 -5.6448619175570813e-01 +7.7320906209615812e+00 -9.8538470107106124e-01 +2.2337082579217471e+00 +5.3985750447340997e+03 -2.5464075485133199e+05 -2.0025471530550756e+07 
-7.5999999999999899e+00 -5.6448645523295793e-01 +7.7320825769435588e+00 -9.8705799517830506e-01 +2.5299959435035015e+00 +5.3791598220355236e+03 -2.5603397813003737e+05 -1.9917430300767586e+07 
-7.6999999999999904e+00 -5.6448672841269754e-01 +7.7320750360432040e+00 -9.8852328662800415e-01 +2.8014899700503419e+00 +5.3569978309246344e+03 -2.5724224137471130e+05 -1.9798234500142131e+07 
-7.7999999999999901e+00 -5.6448701192153328e-01 +7.7320680988391501e+00 -9.8980082057680485e-01 +3.0461993029791761e+00 +5.3325775223434184e+03 -2.5825726609071970e+05 -1.9669737873511210e+07 
-7.8999999999999897e+00 -5.6448730638612765e-01 +7.7320618659209641e+00 -9.9091084003990404e-01 +3.2621324306990269e+00 +5.3063873197443645e+03 -2.5907077095880799e+05 -1.9533794077046171e+07 
-7.9999999999999902e+00 -5.6448761243304002e-01 +7.7320564378875485e+00 -9.9187358831118266e-01 +3.4472975479797565e+00 +5.2789156626412632e+03 -2.5967447346657285e+05 -1.9392256931662317e+07 
-8.0999999999999908e+00 -5.6448793039967149e-01 +7.7320518684934392e+00 -9.9270885860252189e-01 +3.6005866904013231e+00 +5.2505868990040872e+03 -2.6006429550361395e+05 -1.9246677123624213e+07 
-8.1999999999999904e+00 -5.6448825966764182e-01 +7.7320480399476139e+00 -9.9343281655913773e-01 +3.7240156377341269e+00 +5.2215741171493673e+03 -2.6025046271579672e+05 -1.9097420132897876e+07 
-8.2999999999999901e+00 -5.6448859942144503e-01 +7.7320447954311815e+00 -9.9406036964597821e-01 +3.8202888618744120e+00 +5.1919894224170639e+03 -2.6024624560230720e+05 -1.8944565682751663e+07 
-8.3999999999999897e+00 -5.6448894884547252e-01 +7.7320419781289917e+00 -9.9460642505764507e-01 +3.8921107652458740e+00 +5.1619448976271851e+03 -2.6006491452036242e+05 -1.8788193335693687e+07 
-8.4999999999999893e+00 -5.6448930712420420e-01 +7.7320394312353420e+00 -9.9508589104350753e-01 +3.9421855173340021e+00 +5.1315526330426474e+03 -2.5971973873918332e+05 -1.8628382649520274e+07 
-8.5999999999999908e+00 -5.6448967344196799e-01 +7.7320369979534744e+00 -9.9551367785032263e-01 +3.9732170545702559e+00 +5.1009247374414317e+03 -2.5922398640909939e+05 -1.8465213212021898e+07 
-8.6999999999999904e+00 -5.6449004698316296e-01 +7.7320345214929525e+00 -9.9590469903259748e-01 +3.9879091855891029e+00 +5.0701733674408970e+03 -2.5859092525970275e+05 -1.8298764788579579e+07 
-8.7999999999999794e+00 -5.6449042693211171e-01 +7.7320318450739709e+00 -9.9627386457619727e-01 +3.9889654442220506e+00 +5.0394105961273426e+03 -2.5783382167903229e+05 -1.8129116698741280e+07 
-8.8999999999999808e+00 -5.6449081247307520e-01 +7.7320288119248657e+00 -9.9663608959974781e-01 +3.9790891784344904e+00 +5.0087485762827700e+03 -2.5696594128619236e+05 -1.7956348585389812e+07 
-8.9999999999999805e+00 -5.6449120279036358e-01 +7.7320252652825889e+00 -9.9700629074910718e-01 +3.9609835234568638e+00 +4.9782994699131705e+03 -2.5600054874232496e+05 -1.7780540073327959e+07 
-9.0999999999999801e+00 -5.6449159706819363e-01 +7.7320210483900755e+00 -9.9739938386962290e-01 +3.9373515016301655e+00 +4.9481754093959080e+03 -2.5495090839738067e+05 -1.7601770597829483e+07 
-9.1999999999999797e+00 -5.6449199449074150e-01 +7.7320160045043398e+00 -9.9783028637729687e-01 +3.9108957671764375e+00 +4.9184885341476484e+03 -2.5383028275590434e+05 -1.7420119558685802e+07 
-9.2999999999999794e+00 -5.6449239424220632e-01 +7.7320099768889214e+00 -9.9831392098596905e-01 +3.8843188358514800e+00 +4.8893510680429954e+03 -2.5265193384012740e+05 -1.7235666704123717e+07 
-9.3999999999999808e+00 -5.6449279550669507e-01 +7.7320028088214983e+00 -9.9886520868004047e-01 +3.8603228747976224e+00 +4.8608751821132873e+03 -2.5142912201146982e+05 -1.7048491466509093e+07 
-9.4999999999999805e+00 -5.6449319746828353e-01 +7.7319943435829979e+00 -9.9949907113591507e-01 +3.8416100016393346e+00 +4.8331730400671076e+03 -2.5017510765604529e+05 -1.6858673179611146e+07 
-9.5999999999999801e+00 -5.6449359931105958e-01 +7.7319844244708333e+00 -1.0002304361070888e+00 +3.8308819131344776e+00 +4.8063568990162566e+03 -2.4890314906275424e+05 -1.6666291550059114e+07 
-9.6999999999999797e+00 -5.6449400021898666e-01 +7.7319728947879218e+00 -1.0010742299376998e+00 +3.8308402093093630e+00 +4.7805389711808830e+03 -2.4762650434286066e+05 -1.6471426012913801e+07 
-9.7999999999999794e+00 -5.6449439937610424e-01 +7.7319595978533524e+00 -1.0020453807741714e+00 +3.8441860822935818e+00 +4.7558314817399269e+03 -2.4635842960131529e+05 -1.6274155994516410e+07 
-9.8999999999999808e+00 -5.6449479596630803e-01 +7.7319443769916001e+00 -1.0031588202377024e+00 +3.8736206181967274e+00 +4.7323466965405369e+03 -2.4511218067674784e+05 -1.6074561036986511e+07 
-9.9999999999999805e+00 -5.6449518917366914e-01 +7.7319270755459089e+00 -1.0044294686710133e+00 +3.9218450712803135e+00 +4.7101967353355476e+03 -2.4390101805882822e+05 -1.5872720320866685e+07 
-1.0100000000000000e+01 -5.6449557853343024e-01 +7.7319075961894432e+00 -1.0058620833800516e+00 +3.9911249764472547e+00 +4.6893799187034447e+03 -2.4273848866620255e+05 -1.5668449165965555e+07 
