# field on trajectory
# s[mm] rx[mm] ry[mm] rz[mm] bx[T] by[T] bz[T]
0.0000000000000000e+00 +7.9199999999999999e+00 +0.0000000000000000e+00 +0.0000000000000000e+00 -3.0612454309133424e-02 -5.6623180146159480e-01 +5.6186058227520388e-03
1.0000000000000001e-01 +7.9199997170799499e+00 +0.0000000000000000e+00 +9.9999999999466377e-02 -3.0612550789636251e-02 -5.6623182051292020e-01 +5.6186627491038570e-03
2.0000000000000001e-01 +7.9199988683197846e+00 +0.0000000000000000e+00 +1.9999999999573101e-01 -3.0612640131953819e-02 -5.6623185072515247e-01 +5.6187197623437969e-03
3.0000000000000004e-01 +7.9199974537194748e+00 +0.0000000000000000e+00 +2.9999999998559213e-01 -3.0612723064052168e-02 -5.6623189102890481e-01 +5.6187769143684532e-03
4.0000000000000002e-01 +7.9199954732789797e+00 +0.0000000000000000e+00 +3.9999999996584801e-01 -3.0612800313891887e-02 -5.6623194035479063e-01 +5.6188342570742790e-03
5.0000000000000000e-01 +7.9199929269982503e+00 +0.0000000000000000e+00 +4.9999999993329691e-01 -3.0612872609428753e-02 -5.6623199763342491e-01 +5.6188918423576185e-03
5.9999999999999998e-01 +7.9199898148772299e+00 +0.0000000000000000e+00 +5.9999999988473707e-01 -3.0612940678614406e-02 -5.6623206179542485e-01 +5.6189497221147558e-03
6.9999999999999996e-01 +7.9199861369158535e+00 +0.0000000000000000e+00 +6.9999999981696670e-01 -3.0613005249397057e-02 -5.6623213177141152e-01 +5.6190079482419317e-03
7.9999999999999993e-01 +7.9199818931140529e+00 +0.0000000000000000e+00 +7.9999999972678404e-01 -3.0613067049722085e-02 -5.6623220649201012e-01 +5.6190665726353851e-03
8.9999999999999991e-01 +7.9199770834717524e+00 +0.0000000000000000e+00 +8.9999999961098731e-01 -3.0613126807532788e-02 -5.6623228488785182e-01 +5.6191256471913994e-03
9.9999999999999989e-01 +7.9199717079888750e+00 +0.0000000000000000e+00 +9.9999999946637486e-01 -3.0613185250771006e-02 -5.6623236588957393e-01 +5.6191852238063221e-03
1.0999999999999999e+00 +7.9199657666653387e+00 +0.0000000000000000e+00 +1.0999999992897449e+00 -3.0613243107377813e-02 -5.6623244842782183e-01 +5.6192453543766107e-03
1.2000000000000000e+00 +7.9199592595010619e+00 +0.0000000000000000e+00 +1.1999999990778956e+00 -3.0613301105294161e-02 -5.6623253143324948e-01 +5.6193060907988564e-03
1.3000000000000000e+00 +7.9199521864959621e+00 +0.0000000000000000e+00 +1.2999999988276252e+00 -3.0613359972461597e-02 -5.6623261383652013e-01 +5.6193674849698335e-03
1.4000000000000001e+00 +7.9199445476499575e+00 +0.0000000000000000e+00 +1.3999999985357319e+00 -3.0613420436822896e-02 -5.6623269456830827e-01 +5.6194295887865234e-03
1.5000000000000002e+00 +7.9199363429629672e+00 +0.0000000000000000e+00 +1.4999999981990140e+00 -3.0613483226322739e-02 -5.6623277255929938e-01 +5.6194924541461523e-03
1.6000000000000003e+00 +7.9199275724349141e+00 +0.0000000000000000e+00 +1.5999999978142698e+00 -3.0613549068908379e-02 -5.6623284674019281e-01 +5.6195561329462308e-03
1.7000000000000004e+00 +7.9199182360657243e+00 +0.0000000000000000e+00 +1.6999999973782975e+00 -3.0613618692530355e-02 -5.6623291604170067e-01 +5.6196206770845842e-03
1.8000000000000005e+00 +7.9199083338553287e+00 +0.0000000000000000e+00 +1.7999999968878952e+00 -3.0613692825143087e-02 -5.6623297939455053e-01 +5.6196861384593877e-03
1.9000000000000006e+00 +7.9198978658036649e+00 +0.0000000000000000e+00 +1.8999999963398613e+00 -3.0613772194705614e-02 -5.6623303572948536e-01 +5.6197525689692055e-03
2.0000000000000004e+00 +7.9198868319106763e+00 +0.0000000000000000e+00 +1.9999999957309940e+00 -3.0613857529182231e-02 -5.6623308397726557e-01 +5.6198200205130186e-03
2.1000000000000005e+00 +7.9198752321763157e+00 +0.0000000000000000e+00 +2.0999999950580914e+00 -3.0613949351055818e-02 -5.6623312341510468e-01 +5.6198885354987313e-03
2.2000000000000006e+00 +7.9198630666005441e+00 +0.0000000000000000e+00 +2.1999999943179520e+00 -3.0614047360866488e-02 -5.6623315470597513e-01 +5.6199581183685931e-03
2.3000000000000007e+00 +7.9198503351833303e+00 +0.0000000000000000e+00 +2.2999999935073738e+00 -3.0614151053674366e-02 -5.6623317885928759e-01 +5.6200287640738597e-03
2.4000000000000008e+00 +7.9198370379246503e+00 +0.0000000000000000e+00 +2.3999999926231550e+00 -3.0614259924547704e-02 -5.6623319688445517e-01 +5.6201004675663696e-03
2.5000000000000009e+00 +7.9198231748244865e+00 +0.0000000000000000e+00 +2.4999999916620941e+00 -3.0614373468563584e-02 -5.6623320979089120e-01 +5.6201732237985795e-03
2.6000000000000010e+00 +7.9198087458828264e+00 +0.0000000000000000e+00 +2.5999999906209887e+00 -3.0614491180808605e-02 -5.6623321858800879e-01 +5.6202470277236100e-03
2.7000000000000011e+00 +7.9197937510996610e+00 +0.0000000000000000e+00 +2.6999999894966376e+00 -3.0614612556379536e-02 -5.6623322428521961e-01 +5.6203218742952692e-03
2.8000000000000012e+00 +7.9197781904749860e+00 +0.0000000000000000e+00 +2.7999999882858391e+00 -3.0614737090384037e-02 -5.6623322789193287e-01 +5.6203977584681035e-03
2.9000000000000012e+00 +7.9197620640087978e+00 +0.0000000000000000e+00 +2.8999999869853910e+00 -3.0614864277941342e-02 -5.6623323041755480e-01 +5.6204746751974217e-03
3.0000000000000013e+00 +7.9197453717010946e+00 +0.0000000000000000e+00 +2.9999999855920918e+00 -3.0614993614183003e-02 -5.6623323287148775e-01 +5.6205526194393531e-03
3.1000000000000014e+00 +7.9197281135518738e+00 +0.0000000000000000e+00 +3.0999999841027397e+00 -3.0615124594253442e-02 -5.6623323626312871e-01 +5.6206315861508545e-03
3.2000000000000015e+00 +7.9197102895611327e+00 +0.0000000000000000e+00 +3.1999999825141332e+00 -3.0615256713310789e-02 -5.6623324160186916e-01 +5.6207115702897768e-03
3.3000000000000016e+00 +7.9196918997288668e+00 +0.0000000000000000e+00 +3.2999999808230700e+00 -3.0615389466527511e-02 -5.6623324989709345e-01 +5.6207925668148835e-03
3.4000000000000017e+00 +7.9196729440550682e+00 +0.0000000000000000e+00 +3.3999999790263487e+00 -3.0615522349091078e-02 -5.6623326215817882e-01 +5.6208745706858992e-03
3.5000000000000018e+00 +7.9196534225397244e+00 +0.0000000000000000e+00 +3.4999999771207673e+00 -3.0615654856204714e-02 -5.6623327939449242e-01 +5.6209575768635354e-03
3.6000000000000019e+00 +7.9196333351828194e+00 +0.0000000000000000e+00 +3.5999999751031244e+00 -3.0615786483088034e-02 -5.6623330261539340e-01 +5.6210415803095446e-03
3.7000000000000020e+00 +7.9196126819843311e+00 +0.0000000000000000e+00 +3.6999999729702178e+00 -3.0615916724977772e-02 -5.6623333283022970e-01 +5.6211265759867363e-03
3.8000000000000020e+00 +7.9195914629442292e+00 +0.0000000000000000e+00 +3.7999999707188459e+00 -3.0616045077128441e-02 -5.6623337104833793e-01 +5.6212125588590333e-03
3.9000000000000021e+00 +7.9195696780624756e+00 +0.0000000000000000e+00 +3.8999999683458069e+00 -3.0616171034813087e-02 -5.6623341827904228e-01 +5.6212995238914994e-03
4.0000000000000018e+00 +7.9195473273390249e+00 +0.0000000000000000e+00 +3.9999999658478993e+00 -3.0616294093323899e-02 -5.6623347553165382e-01 +5.6213874660503765e-03
4.1000000000000014e+00 +7.9195244107738194e+00 +0.0000000000000000e+00 +4.0999999632219213e+00 -3.0616413876357235e-02 -5.6623354359293143e-01 +5.6214764065505973e-03
4.2000000000000011e+00 +7.9195009283667925e+00 +0.0000000000000000e+00 +4.1999999604646705e+00 -3.0616530521153297e-02 -5.6623362235947028e-01 +5.6215664715982038e-03
4.3000000000000007e+00 +7.9194768801178661e+00 +0.0000000000000000e+00 +4.2999999575729460e+00 -3.0616644293317580e-02 -5.6623371150532209e-01 +5.6216578136477459e-03
4.4000000000000004e+00 +7.9194522660269522e+00 +0.0000000000000000e+00 +4.3999999545435449e+00 -3.0616755458430962e-02 -5.6623381070453616e-01 +5.6217505851547485e-03
4.5000000000000000e+00 +7.9194270860939522e+00 +0.0000000000000000e+00 +4.4999999513732662e+00 -3.0616864282047875e-02 -5.6623391963115755e-01 +5.6218449385757345e-03
4.5999999999999996e+00 +7.9194013403187578e+00 +0.0000000000000000e+00 +4.5999999480589082e+00 -3.0616971029694341e-02 -5.6623403795922800e-01 +5.6219410263682297e-03
4.6999999999999993e+00 +7.9193750287012525e+00 +0.0000000000000000e+00 +4.6999999445972689e+00 -3.0617075966866070e-02 -5.6623416536278526e-01 +5.6220390009907887e-03
4.7999999999999989e+00 +7.9193481512413086e+00 +0.0000000000000000e+00 +4.7999999409851464e+00 -3.0617179359026688e-02 -5.6623430151586351e-01 +5.6221390149030197e-03
4.8999999999999986e+00 +7.9193207079387919e+00 +0.0000000000000000e+00 +4.8999999372193388e+00 -3.0617281471605660e-02 -5.6623444609249218e-01 +5.6222412205655815e-03
4.9999999999999982e+00 +7.9192926987935586e+00 +0.0000000000000000e+00 +4.9999999332966443e+00 -3.0617382569996535e-02 -5.6623459876669613e-01 +5.6223457704402211e-03
5.0999999999999979e+00 +7.9192641238054566e+00 +0.0000000000000000e+00 +5.0999999292138609e+00 -3.0617482919554986e-02 -5.6623475921249644e-01 +5.6224528169897814e-03
5.1999999999999975e+00 +7.9192349829743272e+00 +0.0000000000000000e+00 +5.1999999249677868e+00 -3.0617582785596939e-02 -5.6623492710390888e-01 +5.6225625126782187e-03
5.2999999999999972e+00 +7.9192052763000031e+00 +0.0000000000000000e+00 +5.2999999205552211e+00 -3.0617682433396669e-02 -5.6623510211494477e-01 +5.6226750099706213e-03
5.3999999999999968e+00 +7.9191750037823105e+00 +0.0000000000000000e+00 +5.3999999159729608e+00 -3.0617782128184879e-02 -5.6623528391960976e-01 +5.6227904613332250e-03
5.4999999999999964e+00 +7.9191441654210690e+00 +0.0000000000000000e+00 +5.4999999112178051e+00 -3.0617882135146855e-02 -5.6623547219190473e-01 +5.6229090192334366e-03
5.5999999999999961e+00 +7.9191127612160912e+00 +0.0000000000000000e+00 +5.5999999062865511e+00 -3.0617982719420532e-02 -5.6623566660582514e-01 +5.6230308361398451e-03
5.6999999999999957e+00 +7.9190807911671843e+00 +0.0000000000000000e+00 +5.6999999011759970e+00 -3.0618084146094605e-02 -5.6623586683536076e-01 +5.6231560645222389e-03
5.7999999999999954e+00 +7.9190482552741486e+00 +0.0000000000000000e+00 +5.7999998958829417e+00 -3.0618186680206660e-02 -5.6623607255449537e-01 +5.6232848568516219e-03
5.8999999999999950e+00 +7.9190151535367796e+00 +0.0000000000000000e+00 +5.8999998904041835e+00 -3.0618290586741211e-02 -5.6623628343720733e-01 +5.6234173656002414e-03
5.9999999999999947e+00 +7.9189814859548679e+00 +0.0000000000000000e+00 +5.9999998847365195e+00 -3.0618396130627883e-02 -5.6623649915746865e-01 +5.6235537432415914e-03
6.0999999999999943e+00 +7.9189472525281994e+00 +0.0000000000000000e+00 +6.0999998788767487e+00 -3.0618503455744000e-02 -5.6623671930533703e-01 +5.6236940801288379e-03
6.1999999999999940e+00 +7.9189124532565547e+00 +0.0000000000000000e+00 +6.1999998728216683e+00 -3.0618612221957456e-02 -5.6623694313523110e-01 +5.6238382181265680e-03
6.2999999999999936e+00 +7.9188770881397117e+00 +0.0000000000000000e+00 +6.2999998665680774e+00 -3.0618721968171111e-02 -5.6623716981765326e-01 +5.6239859369713275e-03
6.3999999999999932e+00 +7.9188411571774449e+00 +0.0000000000000000e+00 +6.3999998601127732e+00 -3.0618832233329226e-02 -5.6623739852309785e-01 +5.6241370163926975e-03
6.4999999999999929e+00 +7.9188046603695268e+00 +0.0000000000000000e+00 +6.4999998534525547e+00 -3.0618942556419559e-02 -5.6623762842205128e-01 +5.6242912361130068e-03
6.5999999999999925e+00 +7.9187675977157292e+00 +0.0000000000000000e+00 +6.5999998465842191e+00 -3.0619052476475412e-02 -5.6623785868499088e-01 +5.6244483758470199e-03
6.6999999999999922e+00 +7.9187299692158231e+00 +0.0000000000000000e+00 +6.6999998395045655e+00 -3.0619161532577779e-02 -5.6623808848238522e-01 +5.6246082153016469e-03
6.7999999999999918e+00 +7.9186917748695800e+00 +0.0000000000000000e+00 +6.7999998322103909e+00 -3.0619269263857454e-02 -5.6623831698469496e-01 +5.6247705341756389e-03
6.8999999999999915e+00 +7.9186530146767735e+00 +0.0000000000000000e+00 +6.8999998246984946e+00 -3.0619375209497087e-02 -5.6623854336237056e-01 +5.6249351121592812e-03
6.9999999999999911e+00 +7.9186136886371781e+00 +0.0000000000000000e+00 +6.9999998169656736e+00 -3.0619478908733296e-02 -5.6623876678585339e-01 +5.6251017289341036e-03
7.0999999999999908e+00 +7.9185737967505716e+00 +0.0000000000000000e+00 +7.0999998090087271e+00 -3.0619579900858770e-02 -5.6623898642557535e-01 +5.6252701641725730e-03
7.1999999999999904e+00 +7.9185333390167365e+00 +0.0000000000000000e+00 +7.1999998008244521e+00 -3.0619677725224375e-02 -5.6623920145195838e-01 +5.6254401975378010e-03
7.2999999999999901e+00 +7.9184923154354587e+00 +0.0000000000000000e+00 +7.2999997924096469e+00 -3.0619771921241247e-02 -5.6623941103541497e-01 +5.6256116086832288e-03
7.3999999999999897e+00 +7.9184507260065304e+00 +0.0000000000000000e+00 +7.3999997837611105e+00 -3.0619862028382856e-02 -5.6623961434634618e-01 +5.6257841772523430e-03
7.4999999999999893e+00 +7.9184085707297500e+00 +0.0000000000000000e+00 +7.4999997748756400e+00 -3.0619947586187163e-02 -5.6623981055514383e-01 +5.6259576828783676e-03
7.5999999999999890e+00 +7.9183658496049230e+00 +0.0000000000000000e+00 +7.5999997657500336e+00 -3.0620028134258653e-02 -5.6623999883218867e-01 +5.6261319051839672e-03
7.6999999999999886e+00 +7.9183225626318618e+00 +0.0000000000000000e+00 +7.6999997563810894e+00 -3.0620103212270485e-02 -5.6624017834785012e-01 +5.6263066237809429e-03
7.7999999999999883e+00 +7.9182787098103899e+00 +0.0000000000000000e+00 +7.7999997467656055e+00 -3.0620172359966565e-02 -5.6624034827248670e-01 +5.6264816182699309e-03
7.8999999999999879e+00 +7.9182342911403376e+00 +0.0000000000000000e+00 +7.8999997369003800e+00 -3.0620235117163632e-02 -5.6624050777644630e-01 +5.6266566682401167e-03
7.9999999999999876e+00 +7.9181893066215476e+00 +0.0000000000000000e+00 +7.9999997267822112e+00 -3.0620291023753358e-02 -5.6624065603006424e-01 +5.6268315532689182e-03
8.0999999999999872e+00 +7.9181437562538735e+00 +0.0000000000000000e+00 +8.0999997164078970e+00 -3.0620339822855346e-02 -5.6624079249505910e-01 +5.6270060806673855e-03
8.1999999999999869e+00 +7.9180976400371801e+00 +0.0000000000000000e+00 +8.1999997057742355e+00 -3.0620382070241339e-02 -5.6624091779873575e-01 +5.6271801687243928e-03
8.2999999999999865e+00 +7.9180509579713432e+00 +0.0000000000000000e+00 +8.2999996948780250e+00 -3.0620418524814775e-02 -5.6624103285981675e-01 +5.6273537634805217e-03
8.3999999999999861e+00 +7.9180037100562490e+00 +0.0000000000000000e+00 +8.3999996837160644e+00 -3.0620449945446146e-02 -5.6624113859704639e-01 +5.6275268109838138e-03
8.4999999999999858e+00 +7.9179558962917946e+00 +0.0000000000000000e+00 +8.4999996722851492e+00 -3.0620477090971723e-02 -5.6624123592919229e-01 +5.6276992572900659e-03
8.5999999999999854e+00 +7.9179075166778832e+00 +0.0000000000000000e+00 +8.5999996605820801e+00 -3.0620500720192154e-02 -5.6624132577504427e-01 +5.6278710484631341e-03
8.6999999999999851e+00 +7.9178585712144267e+00 +0.0000000000000000e+00 +8.6999996486036544e+00 -3.0620521591871220e-02 -5.6624140905341758e-01 +5.6280421305752362e-03
8.7999999999999847e+00 +7.9178090599013435e+00 +0.0000000000000000e+00 +8.7999996363466693e+00 -3.0620540464734464e-02 -5.6624148668315255e-01 +5.6282124497072433e-03
8.8999999999999844e+00 +7.9177589827385573e+00 +0.0000000000000000e+00 +8.8999996238079238e+00 -3.0620558097467911e-02 -5.6624155958311473e-01 +5.6283819519489901e-03
8.9999999999999840e+00 +7.9177083397259969e+00 +0.0000000000000000e+00 +8.9999996109842151e+00 -3.0620575248716694e-02 -5.6624162867219674e-01 +5.6285505833995626e-03
9.0999999999999837e+00 +7.9176571308635948e+00 +0.0000000000000000e+00 +9.0999995978723422e+00 -3.0620592677083780e-02 -5.6624169486931863e-01 +5.6287182901676039e-03
9.1999999999999833e+00 +7.9176053561512862e+00 +0.0000000000000000e+00 +9.1999995844691043e+00 -3.0620611141128622e-02 -5.6624175909342878e-01 +5.6288850183716186e-03
9.2999999999999829e+00 +7.9175530155890090e+00 +0.0000000000000000e+00 +9.2999995707712984e+00 -3.0620631399365873e-02 -5.6624182226350439e-01 +5.6290507141402574e-03
9.3999999999999826e+00 +7.9175001091767010e+00 +0.0000000000000000e+00 +9.3999995567757217e+00 -3.0620654210264022e-02 -5.6624188529855313e-01 +5.6292153236126323e-03
9.4999999999999822e+00 +7.9174466369143008e+00 +0.0000000000000000e+00 +9.4999995424791734e+00 -3.0620680332244087e-02 -5.6624194911761250e-01 +5.6293787929386071e-03
9.5999999999999819e+00 +7.9173925988017473e+00 +0.0000000000000000e+00 +9.5999995278784507e+00 -3.0620710523678311e-02 -5.6624201463975210e-01 +5.6295410682790934e-03
9.6999999999999815e+00 +7.9173379948389755e+00 +0.0000000000000000e+00 +9.6999995129703525e+00 -3.0620745542888822e-02 -5.6624208278407351e-01 +5.6297020958063623e-03
9.7999999999999812e+00 +7.9172828250259197e+00 +0.0000000000000000e+00 +9.7999994977516760e+00 -3.0620786148146339e-02 -5.6624215446971138e-01 +5.6298618217043329e-03
9.8999999999999808e+00 +7.9172270893625099e+00 +0.0000000000000000e+00 +9.8999994822192203e+00 -3.0620833097668818e-02 -5.6624223061583434e-01 +5.6300201921688766e-03
9.9999999999999805e+00 +7.9171707878486712e+00 +0.0000000000000000e+00 +9.9999994663697827e+00 -3.0620887149620128e-02 -5.6624231214164533e-01 +5.6301771534081058e-03
1.0099999999999980e+01 +7.9171139204843239e+00 +0.0000000000000000e+00 +1.0099999450200162e+01 -3.0620948848804511e-02 -5.6624239991921255e-01 +5.6303326650286806e-03
1.0199999999999980e+01 +7.9170564872693827e+00 +0.0000000000000000e+00 +1.0199999433707156e+01 -3.0621017886759916e-02 -5.6624249463195653e-01 +5.6304867401908596e-03
1.0299999999999979e+01 +7.9169984882037543e+00 +0.0000000000000000e+00 +1.0299999416887562e+01 -3.0621093741713911e-02 -5.6624259691616485e-01 +5.6306394054430851e-03
1.0399999999999979e+01 +7.9169399232873383e+00 +0.0000000000000000e+00 +1.0399999399738180e+01 -3.0621175891900294e-02 -5.6624270740816529e-01 +5.6307906873345843e-03
1.0499999999999979e+01 +7.9168807925200264e+00 +0.0000000000000000e+00 +1.0499999382255806e+01 -3.0621263815559314e-02 -5.6624282674432724e-01 +5.6309406124153511e-03
1.0599999999999978e+01 +7.9168210959017014e+00 +0.0000000000000000e+00 +1.0599999364437240e+01 -3.0621356990937876e-02 -5.6624295556106152e-01 +5.6310892072361394e-03
1.0699999999999978e+01 +7.9167608334322352e+00 +0.0000000000000000e+00 +1.0699999346279279e+01 -3.0621454896289840e-02 -5.6624309449482213e-01 +5.6312364983484749e-03
1.0799999999999978e+01 +7.9167000051114922e+00 +0.0000000000000000e+00 +1.0799999327778721e+01 -3.0621557009876236e-02 -5.6624324418210681e-01 +5.6313825123046387e-03
1.0899999999999977e+01 +7.9166386109393239e+00 +0.0000000000000000e+00 +1.0899999308932363e+01 -3.0621662809965519e-02 -5.6624340525945749e-01 +5.6315272756576815e-03
1.0999999999999977e+01 +7.9165766509155713e+00 +0.0000000000000000e+00 +1.0999999289737005e+01 -3.0621771774833807e-02 -5.6624357836346151e-01 +5.6316708149614031e-03
1.1099999999999977e+01 +7.9165141250400639e+00 +0.0000000000000000e+00 +1.1099999270189445e+01 -3.0621883382765155e-02 -5.6624376413075306e-01 +5.6318131567703652e-03
1.1199999999999976e+01 +7.9164510333126179e+00 +0.0000000000000000e+00 +1.1199999250286480e+01 -3.0621997112051765e-02 -5.6624396319801218e-01 +5.6319543276398803e-03
1.1299999999999976e+01 +7.9163873757330361e+00 +0.0000000000000000e+00 +1.1299999230024907e+01 -3.0622112440994265e-02 -5.6624417620196854e-01 +5.6320943541260226e-03
1.1399999999999975e+01 +7.9163231523011071e+00 +0.0000000000000000e+00 +1.1399999209401525e+01 -3.0622228847901913e-02 -5.6624440377939900e-01 +5.6322332627856027e-03
1.1499999999999975e+01 +7.9162583630166061e+00 +0.0000000000000000e+00 +1.1499999188413133e+01 -3.0622345811092914e-02 -5.6624464656713069e-01 +5.6323710801761909e-03
1.1599999999999975e+01 +7.9161930078792926e+00 +0.0000000000000000e+00 +1.1599999167056527e+01 -3.0622462808894604e-02 -5.6624490520204163e-01 +5.6325078328561002e-03
1.1699999999999974e+01 +7.9161270868889098e+00 +0.0000000000000000e+00 +1.1699999145328507e+01 -3.0622579319643725e-02 -5.6624518032106008e-01 +5.6326435473843858e-03
1.1799999999999974e+01 +7.9160606000451850e+00 +0.0000000000000000e+00 +1.1799999123225868e+01 -3.0622694821686676e-02 -5.6624547256116753e-01 +5.6327782503208489e-03
