# field on trajectory
# s[mm] rx[mm] ry[mm] rz[mm] bx[T] by[T] bz[T]
0.0000000000000000e+00 +7.9199999999999999e+00 +0.0000000000000000e+00 +0.0000000000000000e+00 -2.8139577256470594e-02 -5.3835509823131100e-01 +5.3291418700048858e-03
1.0000000000000001e-01 +7.9199997170497598e+00 +0.0000000000000000e+00 +9.9999999999466266e-02 -2.8139710788366312e-02 -5.3835523687659370e-01 +5.3291655639793514e-03
2.0000000000000001e-01 +7.9199988681989408e+00 +0.0000000000000000e+00 +1.9999999999573009e-01 -2.8139838045254315e-02 -5.3835537641975972e-01 +5.3291882562619165e-03
3.0000000000000004e-01 +7.9199974534473974e+00 +0.0000000000000000e+00 +2.9999999998558902e-01 -2.8139959089593197e-02 -5.3835551720489694e-01 +5.3292101819265008e-03
4.0000000000000002e-01 +7.9199954727949802e+00 +0.0000000000000000e+00 +3.9999999996584068e-01 -2.8140073983837621e-02 -5.3835565957610465e-01 +5.3292315760507620e-03
5.0000000000000000e-01 +7.9199929262415409e+00 +0.0000000000000000e+00 +4.9999999993328259e-01 -2.8140182790437597e-02 -5.3835580387749282e-01 +5.3292526737156003e-03
5.9999999999999998e-01 +7.9199898137869269e+00 +0.0000000000000000e+00 +5.9999999988471231e-01 -2.8140285571837818e-02 -5.3835595045318185e-01 +5.3292737100047423e-03
6.9999999999999996e-01 +7.9199861354309853e+00 +0.0000000000000000e+00 +6.9999999981692740e-01 -2.8140382390476917e-02 -5.3835609964730113e-01 +5.3292949200042508e-03
7.9999999999999993e-01 +7.9199818911735580e+00 +0.0000000000000000e+00 +7.9999999972672531e-01 -2.8140473308786773e-02 -5.3835625180398927e-01 +5.3293165388020904e-03
8.9999999999999991e-01 +7.9199770810144861e+00 +0.0000000000000000e+00 +8.9999999961090371e-01 -2.8140558389191741e-02 -5.3835640726739131e-01 +5.3293388014876561e-03
9.9999999999999989e-01 +7.9199717049536060e+00 +0.0000000000000000e+00 +9.9999999946626006e-01 -2.8140637694108045e-02 -5.3835656638166074e-01 +5.3293619431513221e-03
1.0999999999999999e+00 +7.9199657629907509e+00 +0.0000000000000000e+00 +1.0999999992895919e+00 -2.8140711285942945e-02 -5.3835672949095648e-01 +5.3293861988839859e-03
1.2000000000000000e+00 +7.9199592551257494e+00 +0.0000000000000000e+00 +1.1999999990776968e+00 -2.8140779227094133e-02 -5.3835689693944344e-01 +5.3294118037766139e-03
1.3000000000000000e+00 +7.9199521813584255e+00 +0.0000000000000000e+00 +1.2999999988273725e+00 -2.8140841579948943e-02 -5.3835706907129111e-01 +5.3294389929197774e-03
1.4000000000000001e+00 +7.9199445416885981e+00 +0.0000000000000000e+00 +1.3999999985354163e+00 -2.8140898406883677e-02 -5.3835724623067305e-01 +5.3294680014032017e-03
1.5000000000000002e+00 +7.9199363361160815e+00 +0.0000000000000000e+00 +1.4999999981986258e+00 -2.8140949770262866e-02 -5.3835742876176595e-01 +5.3294990643153054e-03
1.6000000000000003e+00 +7.9199275646406848e+00 +0.0000000000000000e+00 +1.5999999978137984e+00 -2.8140995732438605e-02 -5.3835761700874885e-01 +5.3295324167427468e-03
1.7000000000000004e+00 +7.9199182272622091e+00 +0.0000000000000000e+00 +1.6999999973777318e+00 -2.8141036355749764e-02 -5.3835781131580285e-01 +5.3295682937699578e-03
1.8000000000000005e+00 +7.9199083239804509e+00 +0.0000000000000000e+00 +1.7999999968872233e+00 -2.8141071702521354e-02 -5.3835801202711009e-01 +5.3296069304787077e-03
1.9000000000000006e+00 +7.9198978547951997e+00 +0.0000000000000000e+00 +1.8999999963390706e+00 -2.8141101835063759e-02 -5.3835821948685225e-01 +5.3296485619476223e-03
2.0000000000000004e+00 +7.9198868197062380e+00 +0.0000000000000000e+00 +1.9999999957300711e+00 -2.8141126815672050e-02 -5.3835843403921124e-01 +5.3296934232517435e-03
2.1000000000000005e+00 +7.9198752187133401e+00 +0.0000000000000000e+00 +2.0999999950570225e+00 -2.8141146853974796e-02 -5.3835865610193068e-01 +5.3297417149889758e-03
2.2000000000000006e+00 +7.9198630518162734e+00 +0.0000000000000000e+00 +2.1999999943167223e+00 -2.8141162748988972e-02 -5.3835888638700402e-01 +5.3297934998618526e-03
2.3000000000000007e+00 +7.9198503190147953e+00 +0.0000000000000000e+00 +2.2999999935059678e+00 -2.8141175447083853e-02 -5.3835912567998023e-01 +5.3298488060991535e-03
2.4000000000000008e+00 +7.9198370203086554e+00 +0.0000000000000000e+00 +2.3999999926215563e+00 -2.8141185894634789e-02 -5.3835937476639995e-01 +5.3299076619294210e-03
2.5000000000000009e+00 +7.9198231556975918e+00 +0.0000000000000000e+00 +2.4999999916602857e+00 -2.8141195038024844e-02 -5.3835963443179213e-01 +5.3299700955810013e-03
2.6000000000000010e+00 +7.9198087251813325e+00 +0.0000000000000000e+00 +2.5999999906189535e+00 -2.8141203823646602e-02 -5.3835990546167556e-01 +5.3300361352821204e-03
2.7000000000000011e+00 +7.9197937287595925e+00 +0.0000000000000000e+00 +2.6999999894943567e+00 -2.8141213197903789e-02 -5.3836018864155422e-01 +5.3301058092609403e-03
2.8000000000000012e+00 +7.9197781664320743e+00 +0.0000000000000000e+00 +2.7999999882832931e+00 -2.8141224107213047e-02 -5.3836048475691811e-01 +5.3301791457456065e-03
2.9000000000000012e+00 +7.9197620381984670e+00 +0.0000000000000000e+00 +2.8999999869825599e+00 -2.8141237498005608e-02 -5.3836079459324249e-01 +5.3302561729643280e-03
3.0000000000000013e+00 +7.9197453440584464e+00 +0.0000000000000000e+00 +2.9999999855889548e+00 -2.8141254316729016e-02 -5.3836111893598404e-01 +5.3303369191454227e-03
3.1000000000000014e+00 +7.9197280840116706e+00 +0.0000000000000000e+00 +3.0999999840992754e+00 -2.8141275509848844e-02 -5.3836145857058215e-01 +5.3304214125173850e-03
3.2000000000000015e+00 +7.9197102580577843e+00 +0.0000000000000000e+00 +3.1999999825103189e+00 -2.8141302023850356e-02 -5.3836181428245589e-01 +5.3305096813089353e-03
3.3000000000000016e+00 +7.9196918661964135e+00 +0.0000000000000000e+00 +3.2999999808188827e+00 -2.8141334805240305e-02 -5.3836218685700366e-01 +5.3306017537490995e-03
3.4000000000000017e+00 +7.9196729084271675e+00 +0.0000000000000000e+00 +3.3999999790217643e+00 -2.8141374800548579e-02 -5.3836257707960122e-01 +5.3306976580672488e-03
3.5000000000000018e+00 +7.9196533847496360e+00 +0.0000000000000000e+00 +3.4999999771157611e+00 -2.8141422956329910e-02 -5.3836298573560082e-01 +5.3307974224931706e-03
3.6000000000000019e+00 +7.9196332951633899e+00 +0.0000000000000000e+00 +3.5999999750976701e+00 -2.8141480219165606e-02 -5.3836341361033013e-01 +5.3309010752571251e-03
3.7000000000000020e+00 +7.9196126396679807e+00 +0.0000000000000000e+00 +3.6999999729642892e+00 -2.8141547535665275e-02 -5.3836386148908977e-01 +5.3310086445899074e-03
3.8000000000000020e+00 +7.9195914182629377e+00 +0.0000000000000000e+00 +3.7999999707124155e+00 -2.8141625852468481e-02 -5.3836433015715301e-01 +5.3311201587229028e-03
3.9000000000000021e+00 +7.9195696309477697e+00 +0.0000000000000000e+00 +3.8999999683388467e+00 -2.8141716116246523e-02 -5.3836482039976474e-01 +5.3312356458881582e-03
4.0000000000000018e+00 +7.9195472777219607e+00 +0.0000000000000000e+00 +3.9999999658403795e+00 -2.8141819273704075e-02 -5.3836533300213862e-01 +5.3313551343184178e-03
4.1000000000000014e+00 +7.9195243585849733e+00 +0.0000000000000000e+00 +4.0999999632138122e+00 -2.8141935939487040e-02 -5.3836586841576617e-01 +5.3314786031618466e-03
4.2000000000000011e+00 +7.9195008735362453e+00 +0.0000000000000000e+00 +4.1999999604559415e+00 -2.8142065399883603e-02 -5.3836642575735216e-01 +5.3316058352253538e-03
4.3000000000000007e+00 +7.9194768225751924e+00 +0.0000000000000000e+00 +4.2999999575635641e+00 -2.8142206609076775e-02 -5.3836700380992308e-01 +5.3317365642302026e-03
4.4000000000000004e+00 +7.9194522057012069e+00 +0.0000000000000000e+00 +4.3999999545334783e+00 -2.8142358521233250e-02 -5.3836760135652362e-01 +5.3318705238973628e-03
4.5000000000000000e+00 +7.9194270229136619e+00 +0.0000000000000000e+00 +4.4999999513624811e+00 -2.8142520090502096e-02 -5.3836821718021766e-01 +5.3320074479475104e-03
4.5999999999999996e+00 +7.9194012742119115e+00 +0.0000000000000000e+00 +4.5999999480473690e+00 -2.8142690271013255e-02 -5.3836885006409252e-01 +5.3321470701010168e-03
4.6999999999999993e+00 +7.9193749595952907e+00 +0.0000000000000000e+00 +4.6999999445849401e+00 -2.8142868016876137e-02 -5.3836949879125806e-01 +5.3322891240779394e-03
4.7999999999999989e+00 +7.9193480790631190e+00 +0.0000000000000000e+00 +4.7999999409719916e+00 -2.8143052282178182e-02 -5.3837016214484967e-01 +5.3324333435980130e-03
4.8999999999999986e+00 +7.9193206326146992e+00 +0.0000000000000000e+00 +4.8999999372053207e+00 -2.8143242020983495e-02 -5.3837083890802961e-01 +5.3325794623806473e-03
4.9999999999999982e+00 +7.9192926202493217e+00 +0.0000000000000000e+00 +4.9999999332817238e+00 -2.8143436187331287e-02 -5.3837152786398867e-01 +5.3327272141449012e-03
5.0999999999999979e+00 +7.9192640419662634e+00 +0.0000000000000000e+00 +5.0999999291979989e+00 -2.8143633735234590e-02 -5.3837222779594851e-01 +5.3328763326094975e-03
5.1999999999999975e+00 +7.9192348977647891e+00 +0.0000000000000000e+00 +5.1999999249509434e+00 -2.8143833618678758e-02 -5.3837293748716131e-01 +5.3330265514927996e-03
5.2999999999999972e+00 +7.9192051876441543e+00 +0.0000000000000000e+00 +5.2999999205373536e+00 -2.8144034791620011e-02 -5.3837365572091411e-01 +5.3331776045128006e-03
5.3999999999999968e+00 +7.9191749116036041e+00 +0.0000000000000000e+00 +5.3999999159540266e+00 -2.8144236207984112e-02 -5.3837438128052872e-01 +5.3333292253871355e-03
5.4999999999999964e+00 +7.9191440696423783e+00 +0.0000000000000000e+00 +5.4999999111977598e+00 -2.8144436821664839e-02 -5.3837511294936413e-01 +5.3334811478330428e-03
5.5999999999999961e+00 +7.9191126617597076e+00 +0.0000000000000000e+00 +5.5999999062653512e+00 -2.8144635586522613e-02 -5.3837584951081774e-01 +5.3336331055673820e-03
5.6999999999999957e+00 +7.9190806879548195e+00 +0.0000000000000000e+00 +5.6999999011535962e+00 -2.8144831456383045e-02 -5.3837658974832692e-01 +5.3337848323066111e-03
5.7999999999999954e+00 +7.9190481482269375e+00 +0.0000000000000000e+00 +5.7999998958592931e+00 -2.8145023385035550e-02 -5.3837733244537156e-01 +5.3339360617667827e-03
5.8999999999999950e+00 +7.9190150425752810e+00 +0.0000000000000000e+00 +5.8999998903792390e+00 -2.8145210326231889e-02 -5.3837807638547519e-01 +5.3340865276635448e-03
5.9999999999999947e+00 +7.9189813709990702e+00 +0.0000000000000000e+00 +5.9999998847102303e+00 -2.8145391233684737e-02 -5.3837882035220563e-01 +5.3342359637121115e-03
6.0999999999999943e+00 +7.9189471334975234e+00 +0.0000000000000000e+00 +6.0999998788490641e+00 -2.8145565275330960e-02 -5.3837956326603709e-01 +5.3343841847726921e-03
6.1999999999999940e+00 +7.9189123300698609e+00 +0.0000000000000000e+00 +6.1999998727925378e+00 -2.8145732476148370e-02 -5.3838030459490149e-01 +5.3345313302880486e-03
6.2999999999999936e+00 +7.9188769607153047e+00 +0.0000000000000000e+00 +6.2999998665374477e+00 -2.8145893075397582e-02 -5.3838104394357411e-01 +5.3346776208471605e-03
6.3999999999999932e+00 +7.9188410254330792e+00 +0.0000000000000000e+00 +6.3999998600805919e+00 -2.8146047312362289e-02 -5.3838178091680688e-01 +5.3348232770393279e-03
6.4999999999999929e+00 +7.9188045242224110e+00 +0.0000000000000000e+00 +6.4999998534187666e+00 -2.8146195426350364e-02 -5.3838251511932778e-01 +5.3349685194541844e-03
6.5999999999999925e+00 +7.9187674570825290e+00 +0.0000000000000000e+00 +6.5999998465487684e+00 -2.8146337656695140e-02 -5.3838324615583966e-01 +5.3351135686817317e-03
6.6999999999999922e+00 +7.9187298240126660e+00 +0.0000000000000000e+00 +6.6999998394673952e+00 -2.8146474242756535e-02 -5.3838397363101809e-01 +5.3352586453123555e-03
6.7999999999999918e+00 +7.9186916250120589e+00 +0.0000000000000000e+00 +6.7999998321714434e+00 -2.8146605423922211e-02 -5.3838469714951220e-01 +5.3354039699368399e-03
6.8999999999999915e+00 +7.9186528600799475e+00 +0.0000000000000000e+00 +6.8999998246577103e+00 -2.8146731439608816e-02 -5.3838541631594095e-01 +5.3355497631463961e-03
6.9999999999999911e+00 +7.9186135292155786e+00 +0.0000000000000000e+00 +6.9999998169229922e+00 -2.8146852529263064e-02 -5.3838613073489361e-01 +5.3356962455326845e-03
7.0999999999999908e+00 +7.9185736324182017e+00 +0.0000000000000000e+00 +7.0999998089640863e+00 -2.8146968932363035e-02 -5.3838684001092807e-01 +5.3358436376878234e-03
7.1999999999999904e+00 +7.9185331696870724e+00 +0.0000000000000000e+00 +7.1999998007777899e+00 -2.8147080888419235e-02 -5.3838754374856967e-01 +5.3359921602044265e-03
7.2999999999999901e+00 +7.9184921410214519e+00 +0.0000000000000000e+00 +7.2999997923608992e+00 -2.8147188636975851e-02 -5.3838824155231002e-01 +5.3361420336756147e-03
7.3999999999999897e+00 +7.9184505464206092e+00 +0.0000000000000000e+00 +7.3999997837102116e+00 -2.8147292417611873e-02 -5.3838893302660562e-01 +5.3362934786950322e-03
7.4999999999999893e+00 +7.9184083858838177e+00 +0.0000000000000000e+00 +7.4999997748225233e+00 -2.8147392469942325e-02 -5.3838961777587724e-01 +5.3364467158568771e-03
7.5999999999999890e+00 +7.9183656594103597e+00 +0.0000000000000000e+00 +7.5999997656946316e+00 -2.8147489033619369e-02 -5.3839029540450778e-01 +5.3366019657559178e-03
7.6999999999999886e+00 +7.9183223669995240e+00 +0.0000000000000000e+00 +7.6999997563233338e+00 -2.8147582348333540e-02 -5.3839096551684196e-01 +5.3367594489875086e-03
7.7999999999999883e+00 +7.9182785086506078e+00 +0.0000000000000000e+00 +7.7999997467054261e+00 -2.8147672653814897e-02 -5.3839162771718452e-01 +5.3369193861476224e-03
7.8999999999999879e+00 +7.9182340843629166e+00 +0.0000000000000000e+00 +7.8999997368377057e+00 -2.8147760189834177e-02 -5.3839228160979935e-01 +5.3370819978328567e-03
7.9999999999999876e+00 +7.9181890941357640e+00 +0.0000000000000000e+00 +7.9999997267169691e+00 -2.8147845196204020e-02 -5.3839292679890849e-01 +5.3372475046404707e-03
8.0999999999999872e+00 +7.9181435379684739e+00 +0.0000000000000000e+00 +8.0999997163400135e+00 -2.8147927899097872e-02 -5.3839356311155795e-01 +5.3374160591384175e-03
8.1999999999999869e+00 +7.9180974158603785e+00 +0.0000000000000000e+00 +8.1999997057036360e+00 -2.8148008469986007e-02 -5.3839419126625832e-01 +5.3375875417745709e-03
8.2999999999999865e+00 +7.9180507278108188e+00 +0.0000000000000000e+00 +8.2999996948046313e+00 -2.8148087066651169e-02 -5.3839481220442553e-01 +5.3377617649700984e-03
8.3999999999999861e+00 +7.9180034738191436e+00 +0.0000000000000000e+00 +8.3999996836397983e+00 -2.8148163846866015e-02 -5.3839542686751896e-01 +5.3379385411510098e-03
8.4999999999999858e+00 +7.9179556538847082e+00 +0.0000000000000000e+00 +8.4999996722059343e+00 -2.8148238968392688e-02 -5.3839603619704168e-01 +5.3381176827483031e-03
8.5999999999999854e+00 +7.9179072680068732e+00 +0.0000000000000000e+00 +8.5999996604998348e+00 -2.8148312588982299e-02 -5.3839664113454333e-01 +5.3382990021980953e-03
8.6999999999999851e+00 +7.9178583161850051e+00 +0.0000000000000000e+00 +8.6999996485182969e+00 -2.8148384866374443e-02 -5.3839724262162059e-01 +5.3384823119417783e-03
8.7999999999999847e+00 +7.9178087984184726e+00 +0.0000000000000000e+00 +8.7999996362581161e+00 -2.8148455958296726e-02 -5.3839784159991866e-01 +5.3386674244261523e-03
8.8999999999999844e+00 +7.9177587147066468e+00 +0.0000000000000000e+00 +8.8999996237160914e+00 -2.8148526022464277e-02 -5.3839843901113305e-01 +5.3388541521035681e-03
8.9999999999999840e+00 +7.9177080650489025e+00 +0.0000000000000000e+00 +8.9999996108890183e+00 -2.8148595216579270e-02 -5.3839903579701087e-01 +5.3390423074320724e-03
9.0999999999999837e+00 +7.9176568494446133e+00 +0.0000000000000000e+00 +9.0999995977736940e+00 -2.8148663698330429e-02 -5.3839963289935200e-01 +5.3392317028755493e-03
9.1999999999999833e+00 +7.9176050678931533e+00 +0.0000000000000000e+00 +9.1999995843669140e+00 -2.8148731625392512e-02 -5.3840023126001124e-01 +5.3394221509038553e-03
9.2999999999999829e+00 +7.9175527203938945e+00 +0.0000000000000000e+00 +9.2999995706654754e+00 -2.8148799155425924e-02 -5.3840083182089959e-01 +5.3396134639929716e-03
9.3999999999999826e+00 +7.9174998069462079e+00 +0.0000000000000000e+00 +9.3999995566661756e+00 -2.8148866446076105e-02 -5.3840143552398423e-01 +5.3398054546251426e-03
9.4999999999999822e+00 +7.9174463275494604e+00 +0.0000000000000000e+00 +9.4999995423658117e+00 -2.8148933654973167e-02 -5.3840204331129260e-01 +5.3399979352890111e-03
9.5999999999999819e+00 +7.9173922822030152e+00 +0.0000000000000000e+00 +9.5999995277611792e+00 -2.8149000939731317e-02 -5.3840265612491134e-01 +5.3401907184797703e-03
9.6999999999999815e+00 +7.9173376709062291e+00 +0.0000000000000000e+00 +9.6999995128490752e+00 -2.8149068457948439e-02 -5.3840327490698958e-01 +5.3403836166992964e-03
9.7999999999999812e+00 +7.9172824936584529e+00 +0.0000000000000000e+00 +9.7999994976262972e+00 -2.8149136367205545e-02 -5.3840390059973908e-01 +5.3405764424563013e-03
9.8999999999999808e+00 +7.9172267504590312e+00 +0.0000000000000000e+00 +9.8999994820896404e+00 -2.8149204825066360e-02 -5.3840453414543643e-01 +5.3407690082664635e-03
9.9999999999999805e+00 +7.9171704413072996e+00 +0.0000000000000000e+00 +9.9999994662359022e+00 -2.8149273989076809e-02 -5.3840517648642450e-01 +5.3409611266525782e-03
1.0099999999999980e+01 +7.9171135662025849e+00 +0.0000000000000000e+00 +1.0099999450061880e+01 -2.8149343943136559e-02 -5.3840582829687755e-01 +5.3411526564523006e-03
1.0199999999999980e+01 +7.9170561251442040e+00 +0.0000000000000000e+00 +1.0199999433564368e+01 -2.8149414476608809e-02 -5.3840648917803413e-01 +5.3413436417384958e-03
1.0299999999999979e+01 +7.9169981181314633e+00 +0.0000000000000000e+00 +1.0299999416740166e+01 -2.8149485305203795e-02 -5.3840715846282938e-01 +5.3415341728851084e-03
1.0399999999999979e+01 +7.9169395451636619e+00 +0.0000000000000000e+00 +1.0399999399586068e+01 -2.8149556144608245e-02 -5.3840783548412618e-01 +5.3417243402564272e-03
1.0499999999999979e+01 +7.9168804062400895e+00 +0.0000000000000000e+00 +1.0499999382098872e+01 -2.8149626710484797e-02 -5.3840851957471314e-01 +5.3419142342068125e-03
1.0599999999999978e+01 +7.9168207013600291e+00 +0.0000000000000000e+00 +1.0599999364275375e+01 -2.8149696718471413e-02 -5.3840921006730202e-01 +5.3421039450804305e-03
1.0699999999999978e+01 +7.9167604305227570e+00 +0.0000000000000000e+00 +1.0699999346112371e+01 -2.8149765884180857e-02 -5.3840990629452634e-01 +5.3422935632109689e-03
1.0799999999999978e+01 +7.9166995937275439e+00 +0.0000000000000000e+00 +1.0799999327606658e+01 -2.8149833923200043e-02 -5.3841060758893944e-01 +5.3424831789213867e-03
1.0899999999999977e+01 +7.9166381909736536e+00 +0.0000000000000000e+00 +1.0899999308755032e+01 -2.8149900551089554e-02 -5.3841131328301195e-01 +5.3426728825236277e-03
1.0999999999999977e+01 +7.9165762222603471e+00 +0.0000000000000000e+00 +1.0999999289554289e+01 -2.8149965483383017e-02 -5.3841202270913036e-01 +5.3428627643183528e-03
1.1099999999999977e+01 +7.9165136875868800e+00 +0.0000000000000000e+00 +1.1099999270001227e+01 -2.8150028435586515e-02 -5.3841273519959487e-01 +5.3430529145946709e-03
1.1199999999999976e+01 +7.9164505869525064e+00 +0.0000000000000000e+00 +1.1199999250092642e+01 -2.8150089123178089e-02 -5.3841345008661690e-01 +5.3432434236298692e-03
1.1299999999999976e+01 +7.9163869203564756e+00 +0.0000000000000000e+00 +1.1299999229825328e+01 -2.8150147261607073e-02 -5.3841416670231790e-01 +5.3434343816891397e-03
1.1399999999999975e+01 +7.9163226877980373e+00 +0.0000000000000000e+00 +1.1399999209196086e+01 -2.8150202566293619e-02 -5.3841488437872675e-01 +5.3436258790253060e-03
1.1499999999999975e+01 +7.9162578892764390e+00 +0.0000000000000000e+00 +1.1499999188201707e+01 -2.8150254752628053e-02 -5.3841560244777853e-01 +5.3438180058785652e-03
1.1599999999999975e+01 +7.9161925247909286e+00 +0.0000000000000000e+00 +1.1599999166838991e+01 -2.8150303535970339e-02 -5.3841632024131125e-01 +5.3440108524761953e-03
1.1699999999999974e+01 +7.9161265943407528e+00 +0.0000000000000000e+00 +1.1699999145104734e+01 -2.8150348631649516e-02 -5.3841703709106503e-01 +5.3442045090323076e-03
1.1799999999999974e+01 +7.9160600979251612e+00 +0.0000000000000000e+00 +1.1799999122995731e+01 -2.8150389754963114e-02 -5.3841775232867994e-01 +5.3443990657475581e-03
