# multipoles
# s[mm] polynom_b[n=0][T/m^n] polynom_b[n=1][T/m^n] polynom_b[n=2][T/m^n] polynom_b[n=3][T/m^n] polynom_b[n=4][T/m^n] polynom_b[n=5][T/m^n] polynom_b[n=6][T/m^n] 
-0.0000000000000000e+00 -5.3701115681791523e-01 +7.3603500597520179e+00 -4.9553758134283149e-01 -1.8082700573137490e+01 +3.0301625608907834e+03 -1.6036628945167779e+05 -1.6386498396507846e+07 
-1.0000000000000001e-01 -5.3701122129111245e-01 +7.3603835546840131e+00 -4.9282599884251094e-01 -1.8719070867943394e+01 +2.9641385776693814e+03 -1.5740382964507042e+05 -1.6047399716321601e+07 
-2.0000000000000001e-01 -5.3701130146267673e-01 +7.3604180625236211e+00 -4.8944074847028268e-01 -1.9382263023583157e+01 +2.8896363758487064e+03 -1.5432439835600546e+05 -1.5677959992864132e+07 
-2.9999999999999999e-01 -5.3701139619764060e-01 +7.3604533955979434e+00 -4.8544662943785732e-01 -2.0068432253807284e+01 +2.8075970677836553e+03 -1.5114295608602464e+05 -1.5282227971977899e+07 
-4.0000000000000002e-01 -5.3701150436117140e-01 +7.3604893662315192e+00 -4.8090843634490127e-01 -2.0773733721127922e+01 +2.7189616805356877e+03 -1.4787446353853098e+05 -1.4864251998090606e+07 
-5.0000000000000000e-01 -5.3701162481834708e-01 +7.3605257867470790e+00 -4.7589096455018737e-01 -2.1494322554683212e+01 +2.6246712535122597e+03 -1.4453388152837538e+05 -1.4428080469605383e+07 
-5.9999999999999998e-01 -5.3701175643429022e-01 +7.3605624694611906e+00 -4.7045901079753943e-01 -2.2226353713265581e+01 +2.5256668560298745e+03 -1.4113617179568941e+05 -1.3977761937592728e+07 
-6.9999999999999996e-01 -5.3701189807407579e-01 +7.3605992266951530e+00 -4.6467737053588676e-01 -2.2965982309357681e+01 +2.4228895288895419e+03 -1.3769629510385951e+05 -1.3517344807619654e+07 
-8.0000000000000004e-01 -5.3701204860281104e-01 +7.3606358707587525e+00 -4.5861083874133007e-01 -2.3709363126986531e+01 +2.3172803050493435e+03 -1.3422921405984205e+05 -1.3050877451555641e+07 
-9.0000000000000002e-01 -5.3701220688557638e-01 +7.3606722139713137e+00 -4.5232421297355468e-01 -2.4452651231291174e+01 +2.2097802610084527e+03 -1.3074988957823257e+05 -1.2582408435024599e+07 
-1.0000000000000000e+00 -5.3701237178748729e-01 +7.3607080686449420e+00 -4.4588228631913168e-01 -2.5192001477685181e+01 +2.1013303880535964e+03 -1.2727328373420401e+05 -1.2115985920770319e+07 
-1.1000000000000001e+00 -5.3701254217366889e-01 +7.3607432470951180e+00 -4.3934985688055428e-01 -2.5923568818277293e+01 +1.9928717666427999e+03 -1.2381435798852070e+05 -1.1655658478524869e+07 
-1.2000000000000000e+00 -5.3701271690912500e-01 +7.3607775616318190e+00 -4.3279172083221984e-01 -2.6643508042712149e+01 +1.8853454384521192e+03 -1.2038807468733744e+05 -1.1205474492447205e+07 
-1.3000000000000000e+00 -5.3701289485895953e-01 +7.3608108245744885e+00 -4.2627267444785533e-01 -2.7347974203706666e+01 +1.7796924397652833e+03 -1.1700939461300438e+05 -1.0769482303147027e+07 
-1.3999999999999999e+00 -5.3701307488825467e-01 +7.3608428482385726e+00 -4.1985751634655566e-01 -2.8033122231501657e+01 +1.6768538465498239e+03 -1.1369327920751616e+05 -1.0351730429369284e+07 
-1.5000000000000000e+00 -5.3701325586204929e-01 +7.3608734449397000e+00 -4.1361104272069643e-01 -2.8695107044713779e+01 +1.5777706787195305e+03 -1.1045468994580914e+05 -9.9562670998518243e+06 
-1.6000000000000001e+00 -5.3701343664537549e-01 +7.3609024270027952e+00 -4.0759805381326747e-01 -2.9330083802610609e+01 +1.4833840299679764e+03 -1.0730858691058442e+05 -9.5871408899148572e+06 
-1.7000000000000000e+00 -5.3701361610328346e-01 +7.3609296067459340e+00 -4.0188334648132790e-01 -2.9934207469900926e+01 +1.3946349181826226e+03 -1.0426993120963618e+05 -9.2483999857664909e+06 
-1.8000000000000000e+00 -5.3701379310080533e-01 +7.3609547964974222e+00 -3.9653172234528167e-01 -3.0503633265103730e+01 +1.3124644444563003e+03 -1.0135368251149707e+05 -8.9440929555552118e+06 
-1.8999999999999999e+00 -5.3701396650291744e-01 +7.3609778085857789e+00 -3.9160798221820742e-01 -3.1034516392263630e+01 +1.2378136811697370e+03 -9.8574800530173321e+04 -8.6782681977726128e+06 
-2.0000000000000000e+00 -5.3701413517464103e-01 +7.3609984553454506e+00 -3.8717692720602515e-01 -3.1523012194136900e+01 +1.1716236993771970e+03 -9.5948244165871860e+04 -8.4549740915190913e+06 
-2.1000000000000001e+00 -5.3701429829898417e-01 +7.3610166044606435e+00 -3.8328903569017553e-01 -3.1966084857215257e+01 +1.1146307710452697e+03 -9.3486788471256717e+04 -8.2772658297360409e+06 
-2.2000000000000002e+00 -5.3701445633103395e-01 +7.3610323457738858e+00 -3.7993829535495188e-01 -3.2363910776585598e+01 +1.0667639041536640e+03 -9.1194926344702501e+04 -8.1442596491020536e+06 
-2.2999999999999998e+00 -5.3701461004367446e-01 +7.3610458248699340e+00 -3.7710477804632431e-01 -3.2717463543062323e+01 +1.0277533726917031e+03 -8.9075195876657453e+04 -8.0540956790241376e+06 
-2.3999999999999999e+00 -5.3701476020980621e-01 +7.3610571873362778e+00 -3.7476856056740787e-01 -3.3027716858151528e+01 +9.9732954283366269e+02 -8.7130134539255087e+04 -8.0049144748081258e+06 
-2.5000000000000000e+00 -5.3701490760233384e-01 +7.3610665787619105e+00 -3.7290971303599585e-01 -3.3295644501782967e+01 +9.7522265604300401e+02 -8.5362279380567808e+04 -7.9948559981418410e+06 
-2.6000000000000001e+00 -5.3701505299411967e-01 +7.3610741447374659e+00 -3.7150831106318799e-01 -3.3522220333708738e+01 +9.6116305575490230e+02 -8.3774167038364161e+04 -8.0220606803813437e+06 
-2.7000000000000002e+00 -5.3701519715813983e-01 +7.3610800308575284e+00 -3.7054443043465607e-01 -3.3708418382542362e+01 +9.5488109370054735e+02 -8.2368333182760980e+04 -8.0846689971922506e+06 
-2.7999999999999998e+00 -5.3701534086722436e-01 +7.3610843827170429e+00 -3.6999814586574292e-01 -3.3855212720982010e+01 +9.5610710254706601e+02 -8.1147313316956308e+04 -8.1808213266135734e+06 
-2.8999999999999999e+00 -5.3701548489431283e-01 +7.3610873459175670e+00 -3.6984953595724845e-01 -3.3963577672404625e+01 +9.6457149314564515e+02 -8.0113641523892147e+04 -8.3086584197941441e+06 
-3.0000000000000000e+00 -5.3701563001228680e-01 +7.3610890660601536e+00 -3.7007867736530403e-01 -3.4034487595924055e+01 +9.8000464132767047e+02 -7.9269851754895222e+04 -8.4663208547333572e+06 
-3.1000000000000001e+00 -5.3701577699403946e-01 +7.3610896887504396e+00 -3.7066564988011658e-01 -3.4068917048782168e+01 +1.0021369875298847e+03 -7.8618476869513222e+04 -8.6519495170181356e+06 
-3.2000000000000002e+00 -5.3701592661251274e-01 +7.3610893595931675e+00 -3.7159053138497661e-01 -3.4067840616364222e+01 +1.0306989400031559e+03 -7.8162049661893237e+04 -8.8636851373356208e+06 
-3.2999999999999998e+00 -5.3701607964055487e-01 +7.3610882242019047e+00 -3.7283340347949373e-01 -3.4032233215663730e+01 +1.0654209869282292e+03 -7.7903101066656673e+04 -9.0996688355897348e+06 
-3.3999999999999999e+00 -5.3701623685115796e-01 +7.3610864281909363e+00 -3.7437434695960314e-01 -3.3963069852374780e+01 +1.1060336022183446e+03 -7.7844161602969107e+04 -9.3580416523251198e+06 
-3.5000000000000000e+00 -5.3701639901715437e-01 +7.3610841171763468e+00 -3.7619344434731489e-01 -3.3861325659788100e+01 +1.1522673014580855e+03 -7.7987761148004836e+04 -9.6369448338513132e+06 
-3.6000000000000001e+00 -5.3701656691151289e-01 +7.3610814367783854e+00 -3.7827077979585644e-01 -3.3727975974400529e+01 +1.2038526414451046e+03 -7.8336428498714711e+04 -9.9345198315357827e+06 
-3.7000000000000002e+00 -5.3701674130714638e-01 +7.3610785326222752e+00 -3.8058643536620684e-01 -3.3563996354489795e+01 +1.2605201421523172e+03 -7.8892691289812748e+04 -1.0248907912099166e+07 
-3.7999999999999998e+00 -5.3701692297697279e-01 +7.3610755503340775e+00 -3.8312049806954751e-01 -3.3370362476029868e+01 +1.3220004295852943e+03 -7.9659076576758584e+04 -1.0578250859178307e+07 
-3.8999999999999999e+00 -5.3701711269393448e-01 +7.3610726355443044e+00 -3.8585305385037011e-01 -3.3148050237905615e+01 +1.3880241197273540e+03 -8.0638110243268631e+04 -1.0920690416965522e+07 
-4.0000000000000000e+00 -5.3701731123100116e-01 +7.3610699338910335e+00 -3.8876418996433104e-01 -3.2898035846927662e+01 +1.4583218596937886e+03 -8.1832316555260186e+04 -1.1274368474489814e+07 
-4.0999999999999996e+00 -5.3701751917193796e-01 +7.3610675616123702e+00 -3.9183318251303378e-01 -3.2621493800668091e+01 +1.5325596872638796e+03 -8.3241000331018440e+04 -1.1637281741426334e+07 
-4.2000000000000002e+00 -5.3701773634837413e-01 +7.3610655112110699e+00 -3.9503460438074089e-01 -3.2320356964529580e+01 +1.6101375363195859e+03 -8.4849725390163745e+04 -1.2006872793806171e+07 
-4.2999999999999998e+00 -5.3701796240502708e-01 +7.3610637427256345e+00 -3.9834146371514373e-01 -3.1996741939080898e+01 +1.6903865762010821e+03 -8.6640382211278833e+04 -1.2380452510807592e+07 
-4.4000000000000004e+00 -5.3701819698671749e-01 +7.3610622161969932e+00 -4.0172676856896217e-01 -3.1652765317225970e+01 +1.7726379741538310e+03 -8.8594861392563340e+04 -1.2755331776302896e+07 
-4.5000000000000000e+00 -5.3701843973818741e-01 +7.3610608916607116e+00 -4.0516352542710249e-01 -3.1290543476398678e+01 +1.8562228651962973e+03 -9.0695054807112669e+04 -1.3128821332893923e+07 
-4.5999999999999996e+00 -5.3701869030418137e-01 +7.3610597291513349e+00 -4.0862474292639317e-01 -3.0912192677561190e+01 +1.9404724232427920e+03 -9.2922855087354852e+04 -1.3498232120355142e+07 
-4.7000000000000002e+00 -5.3701894832951980e-01 +7.3610586886987344e+00 -4.1208342258747843e-01 -3.0519828958556072e+01 +2.0247176871293693e+03 -9.5260156230475113e+04 -1.3860874455460053e+07 
-4.7999999999999998e+00 -5.3701921345893178e-01 +7.3610577303269613e+00 -4.1551256900097855e-01 -3.0115568103450293e+01 +2.1082897473785993e+03 -9.7688853757989782e+04 -1.4214058903625542e+07 
-4.9000000000000004e+00 -5.3701948533719246e-01 +7.3610568140615760e+00 -4.1888518333765107e-01 -2.9701525836293957e+01 +2.1905196314702371e+03 -1.0019084362082300e+05 -1.4555095758482344e+07 
-5.0000000000000000e+00 -5.3701976360905745e-01 +7.3610558999201450e+00 -4.2217426761020982e-01 -2.9279817541836586e+01 +2.2707383771141344e+03 -1.0274802382495358e+05 -1.4881295369189803e+07 
-5.0999999999999996e+00 -5.3702004791933933e-01 +7.3610549479169185e+00 -4.2535281866977748e-01 -2.8852558408193179e+01 +2.3482769223877431e+03 -1.0534229355971588e+05 -1.5189967631696530e+07 
-5.2000000000000002e+00 -5.3702033791277293e-01 +7.3610539180594925e+00 -4.2839383470114362e-01 -2.8421863310425415e+01 +2.4224662267427561e+03 -1.0795555391708443e+05 -1.5478422559065454e+07 
-5.2999999999999998e+00 -5.3702063323413618e-01 +7.3610527703541679e+00 -4.3127031060345300e-01 -2.7989846960610318e+01 +2.4926371876041189e+03 -1.1056970702165902e+05 -1.5743969897563957e+07 
-5.4000000000000004e+00 -5.3702093352822611e-01 +7.3610514647976686e+00 -4.3395523993896340e-01 -2.7558623669165915e+01 +2.5581206688796146e+03 -1.1316665739395384e+05 -1.5983919240604317e+07 
-5.5000000000000000e+00 -5.3702123843976968e-01 +7.3610499613848352e+00 -4.3642161338651875e-01 -2.7130307561256632e+01 +2.6182474786049056e+03 -1.1572831070107604e+05 -1.6195579943341378e+07 
-5.5999999999999996e+00 -5.3702154761360943e-01 +7.3610482201012530e+00 -4.3864242232974321e-01 -2.6707012345663827e+01 +2.6723484359667113e+03 -1.1823657512666260e+05 -1.6376261438158793e+07 
-5.7000000000000002e+00 -5.3702186069444791e-01 +7.3610462009315381e+00 -4.4059065319105228e-01 -2.6290851566723543e+01 +2.7197542599055582e+03 -1.2067335986405949e+05 -1.6523272698001089e+07 
-5.7999999999999998e+00 -5.3702217732712032e-01 +7.3610438638469695e+00 -4.4223929045301363e-01 -2.5883938223355972e+01 +2.7597956291560422e+03 -1.2302057737343082e+05 -1.6633922529365676e+07 
-5.9000000000000004e+00 -5.3702249715635941e-01 +7.3610411688195443e+00 -4.4356131618972738e-01 -2.5488385182065961e+01 +2.7918031728081874e+03 -1.2526014095938570e+05 -1.6705519526187025e+07 
-5.9999999999999902e+00 -5.3702281982701605e-01 +7.3610380758063627e+00 -4.4452971186996554e-01 -2.5106304710811859e+01 +2.8151075045645166e+03 -1.2737396745278027e+05 -1.6735372233901981e+07 
-6.0999999999999899e+00 -5.3702314500163284e-01 +7.3610345658936387e+00 -4.4512642810207770e-01 -2.4739647025301121e+01 +2.8292497697753788e+03 -1.2934662568409856e+05 -1.6721741911336655e+07 
-6.1999999999999904e+00 -5.3702347240917248e-01 +7.3610307156221397e+00 -4.4537093978152459e-01 -2.4389962755627707e+01 +2.8346226796274559e+03 -1.3117267241423094e+05 -1.6666668551583234e+07 
-6.2999999999999901e+00 -5.3702380179382492e-01 +7.3610266281013939e+00 -4.4529255304856258e-01 -2.4058759286429979e+01 +2.8318350218610158e+03 -1.3284905094597279e+05 -1.6573131317390690e+07 
-6.3999999999999897e+00 -5.3702413289974849e-01 +7.3610224064469003e+00 -4.4492057605172497e-01 -2.3747544158844047e+01 +2.8214956368998874e+03 -1.3437270369851022e+05 -1.6444109647759188e+07 
-6.4999999999999902e+00 -5.3702446547111060e-01 +7.3610181537691881e+00 -4.4428430953273240e-01 -2.3457824781479385e+01 +2.8042132314354176e+03 -1.3574057375923349e+05 -1.6282582355671093e+07 
-6.5999999999999899e+00 -5.3702479925214375e-01 +7.3610139731862034e+00 -4.4341306047085566e-01 -2.3191108772308890e+01 +2.7805966420477025e+03 -1.3694960295386348e+05 -1.6091528892639238e+07 
-6.6999999999999904e+00 -5.3702513398705198e-01 +7.3610099678128975e+00 -4.4233613066104965e-01 -2.2948903667397147e+01 +2.7512546196992025e+03 -1.3799673349930340e+05 -1.5873928325531736e+07 
-6.7999999999999901e+00 -5.3702546942007989e-01 +7.3610062407677104e+00 -4.4108282073422278e-01 -2.2732717114064581e+01 +2.7167959037017135e+03 -1.3887890686941933e+05 -1.5632759685190525e+07 
-6.8999999999999897e+00 -5.3702580529547173e-01 +7.3610028951679300e+00 -4.3968243298407544e-01 -2.2544056726340262e+01 +2.6778292784994014e+03 -1.3959306466173611e+05 -1.5371002239271482e+07 
-6.9999999999999902e+00 -5.3702614135753834e-01 +7.3610000341393693e+00 -4.3816426543255876e-01 -2.2384430373839837e+01 +2.6349634586016218e+03 -1.4013614689608125e+05 -1.5091634941994259e+07 
-7.0999999999999899e+00 -5.3702647735054398e-01 +7.3609977608013715e+00 -4.3655761667377740e-01 -2.2255345745927457e+01 +2.5888071847110832e+03 -1.4050509454749100e+05 -1.4797636900118498e+07 
-7.1999999999999904e+00 -5.3702681301879396e-01 +7.3609961782812130e+00 -4.3489178470186873e-01 -2.2158310776537530e+01 +2.5399691980748867e+03 -1.4069684705579895e+05 -1.4491987240762476e+07 
-7.2999999999999901e+00 -5.3702714810665353e-01 +7.3609953897042670e+00 -4.3319606455019954e-01 -2.2094833355820356e+01 +2.4890581978625037e+03 -1.4070834400792414e+05 -1.4177664915246582e+07 
-7.3999999999999897e+00 -5.3702748235840547e-01 +7.3609954981983972e+00 -4.3149975277395430e-01 -2.2066421450349555e+01 +2.4366829261460307e+03 -1.4053652446445188e+05 -1.3857649101658929e+07 
-7.4999999999999902e+00 -5.3702781551852019e-01 +7.3609966068961237e+00 -4.2983214084420729e-01 -2.2074583184501126e+01 +2.3834520444758414e+03 -1.4017832642652863e+05 -1.3534918622444250e+07 
-7.5999999999999899e+00 -5.3702814733129545e-01 +7.3609988189299163e+00 -4.2822252319759441e-01 -2.2120826688816720e+01 +2.3299742863273368e+03 -1.3963068776306580e+05 -1.3212452667493207e+07 
-7.6999999999999904e+00 -5.3702847754117655e-01 +7.3610022374341453e+00 -4.2670019044385599e-01 -2.2206660170413617e+01 +2.2768583265702359e+03 -1.3889054575903996e+05 -1.2893230169790074e+07 
-7.7999999999999901e+00 -5.3702880589263746e-01 +7.3610069655477615e+00 -4.2529443105235987e-01 -2.2333591984435916e+01 +2.2247128155402893e+03 -1.3795483672103620e+05 -1.2580229971171394e+07 
-7.8999999999999897e+00 -5.3702913213009795e-01 +7.3610131064080715e+00 -4.2403453541740793e-01 -2.2503130454019093e+01 +2.1741464577150200e+03 -1.3682049701218816e+05 -1.2276431200214645e+07 
-7.9999999999999902e+00 -5.3702945599807095e-01 +7.3610207631590692e+00 -4.2294979077403960e-01 -2.2716784131608634e+01 +2.1257679149799978e+03 -1.3548446140632092e+05 -1.1984812802240018e+07 
-8.0999999999999908e+00 -5.3702977738262525e-01 +7.3610299814751770e+00 -4.2206440828744263e-01 -2.2974740239147767e+01 +2.0801273378581109e+03 -1.3394927994295649e+05 -1.1708100961525165e+07 
-8.1999999999999904e+00 -5.3703009673290236e-01 +7.3610405807270629e+00 -4.2137969679281334e-01 -2.3271945166025233e+01 +2.0374794029364832e+03 -1.3224006591703813e+05 -1.1447754637008781e+07 
-8.2999999999999901e+00 -5.3703041463774825e-01 +7.3610523243597141e+00 -4.2089060669119960e-01 -2.3602040986174046e+01 +1.9979897772204238e+03 -1.3038759995495333e+05 -1.1204852009574361e+07 
-8.3999999999999897e+00 -5.3703073168597315e-01 +7.3610649758157791e+00 -4.2059209500714945e-01 -2.3958669833940437e+01 +1.9618242287158562e+03 -1.2842266197636769e+05 -1.0980471663138064e+07 
-8.4999999999999893e+00 -5.3703104846638750e-01 +7.3610782985276790e+00 -4.2047912121341480e-01 -2.4335473697659090e+01 +1.9291485455055276e+03 -1.2637603237661516e+05 -1.0775692188312003e+07 
-8.5999999999999908e+00 -5.3703136556768338e-01 +7.3610920559291708e+00 -4.2054665043750383e-01 -2.4726094742893196e+01 +1.9001285901106610e+03 -1.2427849019942169e+05 -1.0591592426236248e+07 
-8.6999999999999904e+00 -5.3703168357853892e-01 +7.3611060114463491e+00 -4.2078965220592790e-01 -2.5124175058888387e+01 +1.8749302811914961e+03 -1.2216081458303824e+05 -1.0429251391314916e+07 
-8.7999999999999794e+00 -5.3703200308757726e-01 +7.3611199284991766e+00 -4.2120310099610114e-01 -2.5523356717404294e+01 +1.8537195998895268e+03 -1.2005378438040234e+05 -1.0289748294243718e+07 
-8.8999999999999808e+00 -5.3703232468337569e-01 +7.3611335705007495e+00 -4.2178197834891806e-01 -2.5917281747623022e+01 +1.8366626265262234e+03 -1.1798817832148801e+05 -1.0174162704303890e+07 
-8.9999999999999805e+00 -5.3703264895441682e-01 +7.3611467008657234e+00 -4.2252127020448010e-01 -2.6299592375731336e+01 +1.8239254970729676e+03 -1.1599477363973994e+05 -1.0083574360721026e+07 
-9.0999999999999801e+00 -5.3703297648915871e-01 +7.3611590829960143e+00 -4.2341596627737910e-01 -2.6663930638330040e+01 +1.8156743805236479e+03 -1.1410434823828565e+05 -1.0019063038125252e+07 
-9.1999999999999797e+00 -5.3703330787598269e-01 +7.3611704802900180e+00 -4.2446106463122896e-01 -2.7003938633015551e+01 +1.8120755716721756e+03 -1.1234767928721932e+05 -9.9817089996303823e+06 
-9.2999999999999794e+00 -5.3703364370324735e-01 +7.3611806561411575e+00 -4.2565156745707661e-01 -2.7313258492144065e+01 +1.8132954072712905e+03 -1.1075554332986445e+05 -9.9725925908899065e+06 
-9.3999999999999808e+00 -5.3703398455918872e-01 +7.3611893739370045e+00 -4.2698248394028249e-01 -2.7585532357192609e+01 +1.8195003214144278e+03 -1.0935871644473860e+05 -9.9927945039298013e+06 
-9.4999999999999805e+00 -5.3703433103201059e-01 +7.3611963970567560e+00 -4.2844882868375583e-01 -2.7814402313308189e+01 +1.8308568125622839e+03 -1.0818797459511737e+05 -1.0043395611560158e+07 
-9.5999999999999801e+00 -5.3703468370983798e-01 +7.3612014888761532e+00 -4.3004562389026141e-01 -2.7993510529760364e+01 +1.8475314838864392e+03 -1.0727409283168369e+05 -1.0125477157103525e+07 
-9.6999999999999797e+00 -5.3703504318077244e-01 +7.3612044127635068e+00 -4.3176789643816899e-01 -2.8116499157430862e+01 +1.8696909891141092e+03 -1.0664784585112378e+05 -1.0240120498826221e+07 
-9.7999999999999794e+00 -5.3703541003278255e-01 +7.3612049320802901e+00 -4.3361068092834260e-01 -2.8177010346616491e+01 +1.8975020879103556e+03 -1.0634000789655236e+05 -1.0388407366224010e+07 
-9.8999999999999808e+00 -5.3703578485380765e-01 +7.3612028101806937e+00 -4.3556901691025629e-01 -2.8168686240013667e+01 +1.9311315920817854e+03 -1.0638135278102216e+05 -1.0571419601584487e+07 
-9.9999999999999805e+00 -5.3703616823170242e-01 +7.3611978104160771e+00 -4.3763795519188420e-01 -2.8085169113522134e+01 +1.9707464798163837e+03 -1.0680265323741442e+05 -1.0790239702634849e+07 
-1.0100000000000000e+01 -5.3703656062988203e-01 +7.3611897929588963e+00 -4.3980873574815366e-01 -2.7922443398330234e+01 +2.0163332054597258e+03 -1.0762330883924731e+05 -1.1044916926536407e+07 
