# multipoles
# s[mm] polynom_b[n=0][T/m^n] polynom_b[n=1][T/m^n] polynom_b[n=2][T/m^n] polynom_b[n=3][T/m^n] polynom_b[n=4][T/m^n] polynom_b[n=5][T/m^n] polynom_b[n=6][T/m^n] 
-0.0000000000000000e+00 -5.9307129152298599e-01 +8.1010130108913945e+00 -1.6155412508809888e+00 +6.0977833320113632e+01 +1.2343060215401074e+04 -5.1813927418797970e+05 -5.8367672155581348e+07 
-1.0000000000000001e-01 -5.9307155459114425e-01 +8.1010294049480116e+00 -1.6132292149936778e+00 +6.1112571597689090e+01 +1.2316715526742091e+04 -5.2001903154601285e+05 -5.8244811601690017e+07 
-2.0000000000000001e-01 -5.9307181819064736e-01 +8.1010458280353923e+00 -1.6116311358134814e+00 +6.1252791763652219e+01 +1.2300216913105787e+04 -5.2186936457815097e+05 -5.8160334694539115e+07 
-2.9999999999999999e-01 -5.9307208163704428e-01 +8.1010623257631185e+00 -1.6107069835748871e+00 +6.1395057121475439e+01 +1.2292931358391452e+04 -5.2367408505952964e+05 -5.8111968189478360e+07 
-4.0000000000000002e-01 -5.9307234424591515e-01 +8.1010789437390773e+00 -1.6104167269201011e+00 +6.1535931062792251e+01 +1.2294225815989066e+04 -5.2541700537186221e+05 -5.8097438699356675e+07 
-5.0000000000000000e-01 -5.9307260533269102e-01 +8.1010957275829334e+00 -1.6107203421632541e+00 +6.1671976639134932e+01 +1.2303467383861998e+04 -5.2708193591163401e+05 -5.8114473523804009e+07 
-5.9999999999999998e-01 -5.9307286421294581e-01 +8.1011127229066044e+00 -1.6115777944385052e+00 +6.1799757165182584e+01 +1.2320022942302036e+04 -5.2865268867613608e+05 -5.8160798916989259e+07 
-6.9999999999999996e-01 -5.9307312020228975e-01 +8.1011299753302399e+00 -1.6129490557256265e+00 +6.1915835706125499e+01 +1.2343259504630767e+04 -5.3011307414739579e+05 -5.8234141777519286e+07 
-8.0000000000000004e-01 -5.9307337261618820e-01 +8.1011475304781353e+00 -1.6147940936130127e+00 +6.2016775266113640e+01 +1.2372543997645233e+04 -5.3144690256039053e+05 -5.8332228588665508e+07 
-9.0000000000000002e-01 -5.9307362077021197e-01 +8.1011654339672585e+00 -1.6170728769366962e+00 +6.2099139060901571e+01 +1.2407243374550115e+04 -5.3263798532207974e+05 -5.8452785973606139e+07 
-1.0000000000000000e+00 -5.9307386397993589e-01 +8.1011837314233155e+00 -1.6197453740309993e+00 +6.2159490080384316e+01 +1.2446724578615385e+04 -5.3367013252583682e+05 -5.8593540509878300e+07 
-1.1000000000000001e+00 -5.9307410156086438e-01 +8.1012024684673456e+00 -1.6227715504817188e+00 +6.2194391473276333e+01 +1.2490354504318610e+04 -5.3452715517491777e+05 -5.8752218561840020e+07 
-1.2000000000000000e+00 -5.9307433282860789e-01 +8.1012216907242571e+00 -1.6261113735000694e+00 +6.2200406309369122e+01 +1.2537500079925929e+04 -5.3519286380999780e+05 -5.8926546666728698e+07 
-1.3000000000000000e+00 -5.9307455709867896e-01 +8.1012414438175231e+00 -1.6297248065687291e+00 +6.2174097717544470e+01 +1.2587528162985092e+04 -5.3565106926576234e+05 -5.9114251035294816e+07 
-1.3999999999999999e+00 -5.9307477368667161e-01 +8.1012617733679235e+00 -1.6335718150475405e+00 +6.2112028927721987e+01 +1.2639805656522694e+04 -5.3588558291225403e+05 -5.9313058127018720e+07 
-1.5000000000000000e+00 -5.9307498190818342e-01 +8.1012827249932240e+00 -1.6376123622983181e+00 +6.2010763302330979e+01 +1.2693699424902723e+04 -5.3588021688613913e+05 -5.9520694225879453e+07 
-1.6000000000000001e+00 -5.9307518107877555e-01 +8.1013043443175068e+00 -1.6418064092013840e+00 +6.1866864029120265e+01 +1.2748576294555482e+04 -5.3561878220511274e+05 -5.9734885468011580e+07 
-1.7000000000000000e+00 -5.9307537051400705e-01 +8.1013266769558925e+00 -1.6461139162882747e+00 +6.1676894594123034e+01 +1.2803803091043477e+04 -5.3508509157963481e+05 -5.9953358011972181e+07 
-1.8000000000000000e+00 -5.9307554952949504e-01 +8.1013497685204285e+00 -1.6504948473968215e+00 +6.1437418601306462e+01 +1.2858746707406055e+04 -5.3426295832840644e+05 -6.0173838358496331e+07 
-1.8999999999999999e+00 -5.9307571744080745e-01 +8.1013736646227112e+00 -1.6549091573652630e+00 +6.1144999703991445e+01 +1.2912773875549839e+04 -5.3313619599339238e+05 -6.0394052280366167e+07 
-2.0000000000000000e+00 -5.9307587356358316e-01 +8.1013984108727080e+00 -1.6593168069535180e+00 +6.0796201620831269e+01 +1.2965251449362542e+04 -5.3168861833986640e+05 -6.0611726162780076e+07 
-2.1000000000000001e+00 -5.9307601757280259e-01 +8.1014240009956175e+00 -1.6636815242996599e+00 +6.0389310167295029e+01 +1.3015666702252218e+04 -5.2991200670193206e+05 -6.0825055637297645e+07 
-2.2000000000000002e+00 -5.9307615051318252e-01 +8.1014502371468193e+00 -1.6679808329761181e+00 +5.9929128593921170e+01 +1.3063945625440014e+04 -5.2782862436787167e+05 -6.1033930835331336e+07 
-2.2999999999999998e+00 -5.9307627375563698e-01 +8.1014768772952284e+00 -1.6721954116118647e+00 +5.9422002636416778e+01 +1.3110113895946937e+04 -5.2546802604388061e+05 -6.1238622929475531e+07 
-2.3999999999999999e+00 -5.9307638867115875e-01 +8.1015036794087205e+00 -1.6763059390134016e+00 +5.8874278027594450e+01 +1.3154197187986190e+04 -5.2285976633436623e+05 -6.1439403067309260e+07 
-2.5000000000000000e+00 -5.9307649663064499e-01 +8.1015304014502085e+00 -1.6802930936066238e+00 +5.8292300573399991e+01 +1.3196221158534401e+04 -5.2003340010273672e+05 -6.1636542292230241e+07 
-2.6000000000000001e+00 -5.9307659900501508e-01 +8.1015568013815571e+00 -1.6841375542755117e+00 +5.7682416059513201e+01 +1.3236211468007203e+04 -5.1701848197975539e+05 -6.1830311653361134e+07 
-2.7000000000000002e+00 -5.9307669716516231e-01 +8.1015826371550439e+00 -1.6878200019353229e+00 +5.7050970485533341e+01 +1.3274193805827790e+04 -5.1384456771547673e+05 -6.2020982316552766e+07 
-2.7999999999999998e+00 -5.9307679248195988e-01 +8.1016076667304731e+00 -1.6913211189141355e+00 +5.6404309543399954e+01 +1.3310193877523488e+04 -5.1054121108358249e+05 -6.2208825498578086e+07 
-2.8999999999999999e+00 -5.9307688632626698e-01 +8.1016316480542852e+00 -1.6946215884200919e+00 +5.5748779238184689e+01 +1.3344237395792832e+04 -5.0713796754105174e+05 -6.2394112427562021e+07 
-3.0000000000000000e+00 -5.9307698006893550e-01 +8.1016543390729225e+00 -1.6977020929693640e+00 +5.5090725481679790e+01 +1.3376350045611376e+04 -5.0366439182776859e+05 -6.2577114164261937e+07 
-3.1000000000000001e+00 -5.9307707508076069e-01 +8.1016754977297918e+00 -1.7005433213783783e+00 +5.4436494179401578e+01 +1.3406557620367426e+04 -5.0015003848767950e+05 -6.2758102256348580e+07 
-3.2000000000000002e+00 -5.9307717273255633e-01 +8.1016948819608334e+00 -1.7031259585665484e+00 +5.3792431339467427e+01 +1.3434885824175755e+04 -4.9662446245013969e+05 -6.2937347788540319e+07 
-3.2999999999999998e+00 -5.9307727439507929e-01 +8.1017122497001299e+00 -1.7054306953962330e+00 +5.3164882923751428e+01 +1.3461360460583232e+04 -4.9311721821976767e+05 -6.3115122285144597e+07 
-3.3999999999999999e+00 -5.9307738143907407e-01 +8.1017273588771044e+00 -1.7074382229780567e+00 +5.2560194898005939e+01 +1.3486007320719122e+04 -4.8965786009854329e+05 -6.3291697165055074e+07 
-3.5000000000000000e+00 -5.9307749523525644e-01 +8.1017399674159964e+00 -1.7091292342110034e+00 +5.1984713262526988e+01 +1.3508852210990432e+04 -4.8627594240794098e+05 -6.3467343872498631e+07 
-3.6000000000000001e+00 -5.9307761715434915e-01 +8.1017498332336384e+00 -1.7104844238189170e+00 +5.1444784088695243e+01 +1.3529920957212842e+04 -4.8300101964608394e+05 -6.3642333902607352e+07 
-3.7000000000000002e+00 -5.9307774856693141e-01 +8.1017567142452602e+00 -1.7114844911734099e+00 +5.0946753354659592e+01 +1.3549239449565337e+04 -4.7986264555509208e+05 -6.3816938994202167e+07 
-3.7999999999999998e+00 -5.9307789084365292e-01 +8.1017603683618642e+00 -1.7121101373426830e+00 +5.0496967013513711e+01 +1.3566833597661003e+04 -4.7689037350149086e+05 -6.3991430943423852e+07 
-3.8999999999999999e+00 -5.9307804535513986e-01 +8.1017605534830270e+00 -1.7123420637849105e+00 +5.0101771189375953e+01 +1.3582729290289395e+04 -4.7411375759740494e+05 -6.4166081371458560e+07 
-4.0000000000000000e+00 -5.9307821347187140e-01 +8.1017570275121766e+00 -1.7121609764766261e+00 +4.9767511765372419e+01 +1.3596952476035207e+04 -4.7156235066076351e+05 -6.4341162139480613e+07 
-4.0999999999999996e+00 -5.9307839626390813e-01 +8.1017496259441035e+00 -1.7115567598713435e+00 +4.9499208522430266e+01 +1.3609514263868699e+04 -4.6926112241178314e+05 -6.4516602177774258e+07 
-4.2000000000000002e+00 -5.9307859370880289e-01 +8.1017384567582802e+00 -1.7105545651128871e+00 +4.9297424025954413e+01 +1.3620403945661554e+04 -4.6722006148706743e+05 -6.4691194992279261e+07 
-4.2999999999999998e+00 -5.9307880553598991e-01 +8.1017236876919352e+00 -1.7091879880997336e+00 +4.9161791409304477e+01 +1.3629612897533463e+04 -4.6544614439815731e+05 -6.4863500147318006e+07 
-4.4000000000000004e+00 -5.9307903147480578e-01 +8.1017054864829525e+00 -1.7074906240131895e+00 +4.9091943845016736e+01 +1.3637132486623101e+04 -4.6394634824131225e+05 -6.5032077156993344e+07 
-4.5000000000000000e+00 -5.9307927125470594e-01 +8.1016840208849512e+00 -1.7054960688231338e+00 +4.9087514188416044e+01 +1.3642954096310303e+04 -4.6272764885338239e+05 -6.5195485598546542e+07 
-4.5999999999999996e+00 -5.9307952460501101e-01 +8.1016594586557851e+00 -1.7032379225875953e+00 +4.9148135257207002e+01 +1.3647069190840297e+04 -4.6179702229630580e+05 -6.5352285418886639e+07 
-4.7000000000000002e+00 -5.9307979125519084e-01 +8.1016319675695634e+00 -1.7007497831087712e+00 +4.9273439513096143e+01 +1.3649469198125440e+04 -4.6116144309800939e+05 -6.5501036389243476e+07 
-4.7999999999999998e+00 -5.9308007093455961e-01 +8.1016017154046889e+00 -1.6980652548247506e+00 +4.9463059429201031e+01 +1.3650145675693790e+04 -4.6082788645793247e+05 -6.5640298881973907e+07 
-4.9000000000000004e+00 -5.9308036337258774e-01 +8.1015688699525832e+00 -1.6952179393367917e+00 +4.9716627239415544e+01 +1.3649090133521369e+04 -4.6080332680426206e+05 -6.5768633036917351e+07 
-5.0000000000000000e+00 -5.9308066829860406e-01 +8.1015335990166104e+00 -1.6922414432016004e+00 +5.0033774965972391e+01 +1.3646294179807774e+04 -4.6109473794479494e+05 -6.5884599444289163e+07 
-5.0999999999999996e+00 -5.9308098544208199e-01 +8.1014960704165535e+00 -1.6891693716895186e+00 +5.0414134309873972e+01 +1.3641749405618546e+04 -4.6170909250734653e+05 -6.5986758607725412e+07 
-5.2000000000000002e+00 -5.9308131453239232e-01 +8.1014564519775920e+00 -1.6860353345769701e+00 +5.0857336971072073e+01 +1.3635447495255119e+04 -4.6265336380142160e+05 -6.6073671463296853e+07 
-5.2999999999999998e+00 -5.9308165529893242e-01 +8.1014149115462413e+00 -1.6828729442774495e+00 +5.1363014207646856e+01 +1.3627380190518652e+04 -4.6393452333081141e+05 -6.6143899213084124e+07 
-5.4000000000000004e+00 -5.9308200747113671e-01 +8.1013716169768415e+00 -1.6797158111517183e+00 +5.1930797222061635e+01 +1.3617539202347494e+04 -4.6555954302503745e+05 -6.6196002901931055e+07 
-5.5000000000000000e+00 -5.9308237077839632e-01 +8.1013267361429708e+00 -1.6765975503258279e+00 +5.2560316848084227e+01 +1.3605916342094464e+04 -4.6753539348434110e+05 -6.6228544046210282e+07 
-5.5999999999999996e+00 -5.9308274495018654e-01 +8.1012804369324449e+00 -1.6735517799825528e+00 +5.3251203697438420e+01 +1.3592503488215665e+04 -4.6986904484061181e+05 -6.6240084473777719e+07 
-5.7000000000000002e+00 -5.9308312971594257e-01 +8.1012328872478108e+00 -1.6706121155037263e+00 +5.4003088157654986e+01 +1.3577292475575006e+04 -4.7256746678565990e+05 -6.6229185793907546e+07 
-5.7999999999999998e+00 -5.9308352480507109e-01 +8.1011842550121926e+00 -1.6678121823030039e+00 +5.4815600236396364e+01 +1.3560275339481817e+04 -4.7563762772649928e+05 -6.6194410561644472e+07 
-5.9000000000000004e+00 -5.9308392994705805e-01 +8.1011347081622098e+00 -1.6651855995403924e+00 +5.5688369760528296e+01 +1.3541444009752055e+04 -4.7908649591410474e+05 -6.6134320827749997e+07 
-5.9999999999999902e+00 -5.9308434487134909e-01 +8.1010844146537000e+00 -1.6627659921376934e+00 +5.6621026413734825e+01 +1.3520790551479085e+04 -4.8292103993813967e+05 -6.6047479315072589e+07 
-6.0999999999999899e+00 -5.9308476920421282e-01 +8.1010335689125963e+00 -1.6605807432833013e+00 +5.7611741439102374e+01 +1.3498355094400358e+04 -4.8713928324697522e+05 -6.5933112395793229e+07 
-6.1999999999999904e+00 -5.9308520222467664e-01 +8.1009824598628413e+00 -1.6586350894660336e+00 +5.8653021631272679e+01 +1.3474369175703643e+04 -4.9170427004019491e+05 -6.5792934988608599e+07 
-6.2999999999999901e+00 -5.9308564313895307e-01 +8.1009313976318982e+00 -1.6569293568426349e+00 +5.9736005906720138e+01 +1.3449112339388264e+04 -4.9657055555696506e+05 -6.5629249681565516e+07 
-6.3999999999999897e+00 -5.9308609115333732e-01 +8.1008806923503247e+00 -1.6554638628826710e+00 +6.0851833065102355e+01 +1.3422863992079685e+04 -5.0169269405626343e+05 -6.5444358492357202e+07 
-6.4999999999999902e+00 -5.9308654547414330e-01 +8.1008306541448700e+00 -1.6542389238341613e+00 +6.1991641970155278e+01 +1.3395903537513423e+04 -5.0702523978923686e+05 -6.5240563485954389e+07 
-6.5999999999999899e+00 -5.9308700530778613e-01 +8.1007815931331280e+00 -1.6532548453833869e+00 +6.3146571727939218e+01 +1.3368510210191962e+04 -5.1252274808949191e+05 -6.5020166016958356e+07 
-6.6999999999999904e+00 -5.9308746986072980e-01 +8.1007338194393448e+00 -1.6525119285566070e+00 +6.4307761197876360e+01 +1.3340963181934125e+04 -5.1813977243619208e+05 -6.4785467219964832e+07 
-6.7999999999999901e+00 -5.9308793833950912e-01 +8.1006876431718808e+00 -1.6520104706374343e+00 +6.5466349653156840e+01 +1.3313541580391553e+04 -5.2383086828264809e+05 -6.4538768102848649e+07 
-6.8999999999999897e+00 -5.9308840995067091e-01 +8.1006433744392332e+00 -1.6517507584412474e+00 +6.6613476333900081e+01 +1.3286524365736232e+04 -5.2955059051067487e+05 -6.4282368971135356e+07 
-6.9999999999999902e+00 -5.9308888390089598e-01 +8.1006013233473944e+00 -1.6517330749643717e+00 +6.7740280484114805e+01 +1.3260190457793660e+04 -5.3525349351030472e+05 -6.4018570037448108e+07 
-7.0999999999999899e+00 -5.9308935939691187e-01 +8.1005617999928869e+00 -1.6519576947393211e+00 +6.8837901578921048e+01 +1.3234818642233799e+04 -5.4089413256467658e+05 -6.3749670960217394e+07 
-7.1999999999999904e+00 -5.9308983564553330e-01 +8.1005251144686152e+00 -1.6524248840427751e+00 +6.9897479143072403e+01 +1.3210687585425365e+04 -5.4642706273960089e+05 -6.3477970943578668e+07 
-7.2999999999999901e+00 -5.9309031185365779e-01 +8.1004915768619217e+00 -1.6531349039398091e+00 +7.0910152806160525e+01 +1.3188075885862576e+04 -5.5180683918947622e+05 -6.3205768966919772e+07 
-7.3999999999999897e+00 -5.9309078722818087e-01 +8.1004614972532742e+00 -1.6540880067718722e+00 +7.1867062330868933e+01 +1.3167262011343686e+04 -5.5698801728639193e+05 -6.2935363495940708e+07 
-7.4999999999999902e+00 -5.9309126097620457e-01 +8.1004351857165915e+00 -1.6552844351863163e+00 +7.2759347609458402e+01 +1.3148524278451016e+04 -5.6192515259350115e+05 -6.2669052381629802e+07 
-7.5999999999999899e+00 -5.9309173230479462e-01 +8.1004129523191803e+00 -1.6567244245429062e+00 +7.3578148655650807e+01 +1.3132140906600322e+04 -5.6657280077974254e+05 -6.2409133138699584e+07 
-7.6999999999999904e+00 -5.9309220042115784e-01 +8.1003951071216083e+00 -1.6584082047013713e+00 +7.4314605615054631e+01 +1.3118390043301963e+04 -5.7088551768523443e+05 -6.2157903044585235e+07 
-7.7999999999999901e+00 -5.9309266453262821e-01 +8.1003819601758025e+00 -1.6603359886637050e+00 +7.4959858808697177e+01 +1.3107549558464008e+04 -5.7481785952138854e+05 -6.1917658188619517e+07 
-7.8999999999999897e+00 -5.9309312384658153e-01 +8.1003738215304057e+00 -1.6625079895987191e+00 +7.5505048571382346e+01 +1.3099897360674933e+04 -5.7832438191264402e+05 -6.1690694955506176e+07 
-7.9999999999999902e+00 -5.9309357757057768e-01 +8.1003710011683232e+00 -1.6649244076742673e+00 +7.5941316428625925e+01 +1.3095711163396205e+04 -5.8135964494251623e+05 -6.1479308878808677e+07 
-8.0999999999999908e+00 -5.9309402523835431e-01 +8.1003736526911094e+00 -1.6675805785931179e+00 +7.6263271826414055e+01 +1.3095192302087202e+04 -5.8389415941902658e+05 -6.1285422506233573e+07 
-8.1999999999999904e+00 -5.9309446744422323e-01 +8.1003814220944026e+00 -1.6704513160310208e+00 +7.6477055123090992e+01 +1.3098184256353046e+04 -5.8595175756839896e+05 -6.1109255276655309e+07 
-8.2999999999999901e+00 -5.9309490499750273e-01 +8.1003938522052437e+00 -1.6735062965472536e+00 +7.6591208979793606e+01 +1.3104434439410188e+04 -5.8756741980881291e+05 -6.0950575445336141e+07 
-8.3999999999999897e+00 -5.9309533870742204e-01 +8.1004104858334980e+00 -1.6767151927523642e+00 +7.6614276476134009e+01 +1.3113690156838487e+04 -5.8877612844781205e+05 -6.0809150693445846e+07 
-8.4999999999999893e+00 -5.9309576938319430e-01 +8.1004308657750528e+00 -1.6800476888765916e+00 +7.6554801009784697e+01 +1.3125698892243236e+04 -5.8961286705538235e+05 -6.0684749460340202e+07 
-8.5999999999999908e+00 -5.9309619783384404e-01 +8.1004545348059924e+00 -1.6834734737933288e+00 +7.6421326473477492e+01 +1.3140208181103353e+04 -5.9011262151383422e+05 -6.0577140361033447e+07 
-8.6999999999999904e+00 -5.9309662486844072e-01 +8.1004810356885422e+00 -1.6869622406883285e+00 +7.6222397070250494e+01 +1.3156965602713479e+04 -5.9031037889331556e+05 -6.0486092145952255e+07 
-8.7999999999999794e+00 -5.9309705129584500e-01 +8.1005099111632060e+00 -1.6904836926712985e+00 +7.5966557540439169e+01 +1.3175718879573153e+04 -5.9024112877491466e+05 -6.0411374151612237e+07 
-8.8999999999999808e+00 -5.9309747792484646e-01 +8.1005407039547261e+00 -1.6940075365388421e+00 +7.5662352998980111e+01 +1.3196215762731777e+04 -5.8993986230347585e+05 -6.0352755769802637e+07 
-8.9999999999999805e+00 -5.9309790556422570e-01 +8.1005729567703764e+00 -1.6975034862169538e+00 +7.5318328955346374e+01 +1.3218204093749951e+04 -5.8944157222913834e+05 -6.0310006730957292e+07 
-9.0999999999999801e+00 -5.9309833502257392e-01 +8.1006062122954905e+00 -1.7009412621155866e+00 +7.4943031468354562e+01 +1.3241431789070826e+04 -5.8878125386384560e+05 -6.0282897025059499e+07 
-9.1999999999999797e+00 -5.9309876710836085e-01 +8.1006400131928746e+00 -1.7042905950687508e+00 +7.4545007141328284e+01 +1.3265646920061614e+04 -5.8799390497730521e+05 -6.0271197293451823e+07 
-9.2999999999999794e+00 -5.9309920263006899e-01 +8.1006739021121863e+00 -1.7075212191946891e+00 +7.4132802866569151e+01 +1.3290597570656033e+04 -5.8711452435471152e+05 -6.0274678137618676e+07 
-9.3999999999999808e+00 -5.9309964239595558e-01 +8.1007074216804416e+00 -1.7106028797999022e+00 +7.3714966080363368e+01 +1.3316031984740224e+04 -5.8617811321996164e+05 -6.0293110810165480e+07 
-9.4999999999999805e+00 -5.9310008721418506e-01 +8.1007401144963609e+00 -1.7135053274150209e+00 +7.3300044925965892e+01 +1.3341698454719246e+04 -5.8521967615651351e+05 -6.0326266694437511e+07 
-9.5999999999999801e+00 -5.9310053789289396e-01 +8.1007715231464292e+00 -1.7161983214759378e+00 +7.2896587797713707e+01 +1.3367345392254625e+04 -5.8427421848564025e+05 -6.0373917641326733e+07 
-9.6999999999999797e+00 -5.9310099523997928e-01 +8.1008011901890367e+00 -1.7186516297370658e+00 +7.2513143789761500e+01 +1.3392721309619115e+04 -5.8337674883682968e+05 -6.0435835862256415e+07 
-9.7999999999999794e+00 -5.9310146006333730e-01 +8.1008286581606583e+00 -1.7208350283905327e+00 +7.2158262514072177e+01 +1.3417574824328995e+04 -5.8256227806749183e+05 -6.0511793957557067e+07 
-9.8999999999999808e+00 -5.9310193317064208e-01 +8.1008534695791337e+00 -1.7227183035503455e+00 +7.1840494005612868e+01 +1.3441654685786518e+04 -5.8186581870611222e+05 -6.0601565041495241e+07 
-9.9999999999999805e+00 -5.9310241536937724e-01 +8.1008751670202894e+00 -1.7242712422257092e+00 +7.1568387083799507e+01 +1.3464709546575919e+04 -5.8132237652928254e+05 -6.0704921525630355e+07 
-1.0100000000000000e+01 -5.9310290726658532e-01 +8.1008934246548030e+00 -1.7254686923701823e+00 +7.1348177472057387e+01 +1.3486465615681373e+04 -5.8095757587587228e+05 -6.0821171054273635e+07 
