# trajectory
# s[mm] rx[mm] ry[mm] rz[mm] px[rad] py[rad] pz[rad]
0.0000000000000000e+00 +7.9199999999999999e+00 +0.0000000000000000e+00 +0.0000000000000000e+00 +0.0000000000000000e+00 +0.0000000000000000e+00 +1.0000000000000000e+00
1.0000000000000001e-01 +7.9199997170759939e+00 +0.0000000000000000e+00 +9.9999999999466349e-02 -5.6584801507046995e-06 +0.0000000000000000e+00 +9.9999999998399081e-01
2.0000000000000001e-01 +7.9199988683039608e+00 +0.0000000000000000e+00 +1.9999999999573087e-01 -1.1316960551001862e-05 +0.0000000000000000e+00 +9.9999999993596322e-01
3.0000000000000004e-01 +7.9199974536838731e+00 +0.0000000000000000e+00 +2.9999999998559168e-01 -1.6975441248745854e-05 +0.0000000000000000e+00 +9.9999999985591725e-01
4.0000000000000002e-01 +7.9199954732156987e+00 +0.0000000000000000e+00 +3.9999999996584701e-01 -2.2633922290732635e-05 +0.0000000000000000e+00 +9.9999999974385279e-01
5.0000000000000000e-01 +7.9199929268994014e+00 +0.0000000000000000e+00 +4.9999999993329497e-01 -2.8292403722699880e-05 +0.0000000000000000e+00 +9.9999999959976993e-01
5.9999999999999998e-01 +7.9199898147349392e+00 +0.0000000000000000e+00 +5.9999999988473374e-01 -3.3950885589327103e-05 +0.0000000000000000e+00 +9.9999999942366868e-01
6.9999999999999996e-01 +7.9199861367222670e+00 +0.0000000000000000e+00 +6.9999999981696148e-01 -3.9609367934235711e-05 +0.0000000000000000e+00 +9.9999999921554894e-01
7.9999999999999993e-01 +7.9199818928613350e+00 +0.0000000000000000e+00 +7.9999999972677627e-01 -4.5267850799989073e-05 +0.0000000000000000e+00 +9.9999999897541081e-01
8.9999999999999991e-01 +7.9199770831520881e+00 +0.0000000000000000e+00 +8.9999999961097632e-01 -5.0926334228092515e-05 +0.0000000000000000e+00 +9.9999999870325418e-01
9.9999999999999989e-01 +7.9199717075944687e+00 +0.0000000000000000e+00 +9.9999999946635976e-01 -5.6584818258993324e-05 +0.0000000000000000e+00 +9.9999999839907916e-01
1.0999999999999999e+00 +7.9199657661884144e+00 +0.0000000000000000e+00 +1.0999999992897247e+00 -6.2243302932080686e-05 +0.0000000000000000e+00 +9.9999999806288564e-01
1.2000000000000000e+00 +7.9199592589338597e+00 +0.0000000000000000e+00 +1.1999999990778694e+00 -6.7901788285685654e-05 +0.0000000000000000e+00 +9.9999999769467363e-01
1.3000000000000000e+00 +7.9199521858307333e+00 +0.0000000000000000e+00 +1.2999999988275921e+00 -7.3560274357081006e-05 +0.0000000000000000e+00 +9.9999999729444311e-01
1.4000000000000001e+00 +7.9199445468789627e+00 +0.0000000000000000e+00 +1.3999999985356908e+00 -7.9218761182481141e-05 +0.0000000000000000e+00 +9.9999999686219398e-01
1.5000000000000002e+00 +7.9199363420784703e+00 +0.0000000000000000e+00 +1.4999999981989636e+00 -8.4877248797041909e-05 +0.0000000000000000e+00 +9.9999999639792636e-01
1.6000000000000003e+00 +7.9199275714291755e+00 +0.0000000000000000e+00 +1.5999999978142088e+00 -9.0535737234860440e-05 +0.0000000000000000e+00 +9.9999999590164024e-01
1.7000000000000004e+00 +7.9199182349309947e+00 +0.0000000000000000e+00 +1.6999999973782243e+00 -9.6194226528974921e-05 +0.0000000000000000e+00 +9.9999999537333550e-01
1.8000000000000005e+00 +7.9199083325838400e+00 +0.0000000000000000e+00 +1.7999999968878084e+00 -1.0185271671136433e-04 +0.0000000000000000e+00 +9.9999999481301216e-01
1.9000000000000006e+00 +7.9198978643876217e+00 +0.0000000000000000e+00 +1.8999999963397594e+00 -1.0751120781294819e-04 +0.0000000000000000e+00 +9.9999999422067021e-01
2.0000000000000004e+00 +7.9198868303422456e+00 +0.0000000000000000e+00 +1.9999999957308752e+00 -1.1316969986358625e-04 +0.0000000000000000e+00 +9.9999999359630964e-01
2.1000000000000005e+00 +7.9198752304476159e+00 +0.0000000000000000e+00 +2.0999999950579538e+00 -1.1882819289213218e-04 +0.0000000000000000e+00 +9.9999999293993036e-01
2.2000000000000006e+00 +7.9198630647036330e+00 +0.0000000000000000e+00 +2.1999999943177939e+00 -1.2448668692702745e-04 +0.0000000000000000e+00 +9.9999999225153247e-01
2.3000000000000007e+00 +7.9198503331101957e+00 +0.0000000000000000e+00 +2.2999999935071931e+00 -1.3014518199689533e-04 +0.0000000000000000e+00 +9.9999999153111585e-01
2.4000000000000008e+00 +7.9198370356671983e+00 +0.0000000000000000e+00 +2.3999999926229498e+00 -1.3580367813059490e-04 +0.0000000000000000e+00 +9.9999999077868051e-01
2.5000000000000009e+00 +7.9198231723745334e+00 +0.0000000000000000e+00 +2.4999999916618618e+00 -1.4146217535722095e-04 +0.0000000000000000e+00 +9.9999998999422646e-01
2.6000000000000010e+00 +7.9198087432320898e+00 +0.0000000000000000e+00 +2.5999999906207276e+00 -1.4712067370610399e-04 +0.0000000000000000e+00 +9.9999998917775368e-01
2.7000000000000011e+00 +7.9197937482397540e+00 +0.0000000000000000e+00 +2.6999999894963453e+00 -1.5277917320681022e-04 +0.0000000000000000e+00 +9.9999998832926207e-01
2.8000000000000012e+00 +7.9197781873974096e+00 +0.0000000000000000e+00 +2.7999999882855127e+00 -1.5843767388914147e-04 +0.0000000000000000e+00 +9.9999998744875174e-01
2.9000000000000012e+00 +7.9197620607049366e+00 +0.0000000000000000e+00 +2.8999999869850281e+00 -1.6409617578313522e-04 +0.0000000000000000e+00 +9.9999998653622257e-01
3.0000000000000013e+00 +7.9197453681622116e+00 +0.0000000000000000e+00 +2.9999999855916899e+00 -1.6975467891906459e-04 +0.0000000000000000e+00 +9.9999998559167447e-01
3.1000000000000014e+00 +7.9197281097691103e+00 +0.0000000000000000e+00 +3.0999999841022960e+00 -1.7541318332743838e-04 +0.0000000000000000e+00 +9.9999998461510753e-01
3.2000000000000015e+00 +7.9197102855255030e+00 +0.0000000000000000e+00 +3.1999999825136443e+00 -1.8107168903900106e-04 +0.0000000000000000e+00 +9.9999998360652165e-01
3.3000000000000016e+00 +7.9196918954312583e+00 +0.0000000000000000e+00 +3.2999999808225331e+00 -1.8673019608473278e-04 +0.0000000000000000e+00 +9.9999998256591682e-01
3.4000000000000017e+00 +7.9196729394862411e+00 +0.0000000000000000e+00 +3.3999999790257602e+00 -1.9238870449584948e-04 +0.0000000000000000e+00 +9.9999998149329306e-01
3.5000000000000018e+00 +7.9196534176903128e+00 +0.0000000000000000e+00 +3.4999999771201242e+00 -1.9804721430380284e-04 +0.0000000000000000e+00 +9.9999998038865034e-01
3.6000000000000019e+00 +7.9196333300433324e+00 +0.0000000000000000e+00 +3.5999999751024232e+00 -2.0370572554028040e-04 +0.0000000000000000e+00 +9.9999997925198858e-01
3.7000000000000020e+00 +7.9196126765451558e+00 +0.0000000000000000e+00 +3.6999999729694548e+00 -2.0936423823720565e-04 +0.0000000000000000e+00 +9.9999997808330776e-01
3.8000000000000020e+00 +7.9195914571956347e+00 +0.0000000000000000e+00 +3.7999999707180172e+00 -2.1502275242673801e-04 +0.0000000000000000e+00 +9.9999997688260778e-01
3.9000000000000021e+00 +7.9195696719946191e+00 +0.0000000000000000e+00 +3.8999999683449089e+00 -2.2068126814127299e-04 +0.0000000000000000e+00 +9.9999997564988874e-01
4.0000000000000018e+00 +7.9195473209419545e+00 +0.0000000000000000e+00 +3.9999999658469276e+00 -2.2633978541344225e-04 +0.0000000000000000e+00 +9.9999997438515054e-01
4.1000000000000014e+00 +7.9195244040374835e+00 +0.0000000000000000e+00 +4.0999999632208715e+00 -2.3199830427633909e-04 +0.0000000000000000e+00 +9.9999997308839317e-01
4.2000000000000011e+00 +7.9195009212810454e+00 +0.0000000000000000e+00 +4.1999999604635390e+00 -2.3765682476599735e-04 +0.0000000000000000e+00 +9.9999997175961652e-01
4.3000000000000007e+00 +7.9194768726724751e+00 +0.0000000000000000e+00 +4.2999999575717274e+00 -2.4331534692387038e-04 +0.0000000000000000e+00 +9.9999997039882060e-01
4.4000000000000004e+00 +7.9194522582116038e+00 +0.0000000000000000e+00 +4.3999999545422357e+00 -2.4897387079705658e-04 +0.0000000000000000e+00 +9.9999996900600541e-01
4.5000000000000000e+00 +7.9194270778982574e+00 +0.0000000000000000e+00 +4.4999999513718612e+00 -2.5463239643829948e-04 +0.0000000000000000e+00 +9.9999996758117082e-01
4.5999999999999996e+00 +7.9194013317322556e+00 +0.0000000000000000e+00 +4.5999999480574028e+00 -2.6029092390598795e-04 +0.0000000000000000e+00 +9.9999996612431685e-01
4.6999999999999993e+00 +7.9193750197134127e+00 +0.0000000000000000e+00 +4.6999999445956577e+00 -2.6594945326415654e-04 +0.0000000000000000e+00 +9.9999996463544349e-01
4.7999999999999989e+00 +7.9193481418415370e+00 +0.0000000000000000e+00 +4.7999999409834242e+00 -2.7160798458248541e-04 +0.0000000000000000e+00 +9.9999996311455064e-01
4.8999999999999986e+00 +7.9193206981164286e+00 +0.0000000000000000e+00 +4.8999999372175003e+00 -2.7726651793630075e-04 +0.0000000000000000e+00 +9.9999996156163828e-01
4.9999999999999982e+00 +7.9192926885378796e+00 +0.0000000000000000e+00 +4.9999999332946841e+00 -2.8292505340657496e-04 +0.0000000000000000e+00 +9.9999995997670632e-01
5.0999999999999979e+00 +7.9192641131056742e+00 +0.0000000000000000e+00 +5.0999999292117737e+00 -2.8858359107992673e-04 +0.0000000000000000e+00 +9.9999995835975464e-01
5.1999999999999975e+00 +7.9192349718195869e+00 +0.0000000000000000e+00 +5.1999999249655673e+00 -2.9424213104862150e-04 +0.0000000000000000e+00 +9.9999995671078323e-01
5.2999999999999972e+00 +7.9192052646793840e+00 +0.0000000000000000e+00 +5.2999999205528630e+00 -2.9990067341057163e-04 +0.0000000000000000e+00 +9.9999995502979200e-01
5.3999999999999968e+00 +7.9191749916848213e+00 +0.0000000000000000e+00 +5.3999999159704588e+00 -3.0555921826933658e-04 +0.0000000000000000e+00 +9.9999995331678093e-01
5.4999999999999964e+00 +7.9191441528356430e+00 +0.0000000000000000e+00 +5.4999999112151521e+00 -3.1121776573412327e-04 +0.0000000000000000e+00 +9.9999995157174992e-01
5.5999999999999961e+00 +7.9191127481315835e+00 +0.0000000000000000e+00 +5.5999999062837418e+00 -3.1687631591978632e-04 +0.0000000000000000e+00 +9.9999994979469886e-01
5.6999999999999957e+00 +7.9190807775723639e+00 +0.0000000000000000e+00 +5.6999999011730251e+00 -3.2253486894682847e-04 +0.0000000000000000e+00 +9.9999994798562775e-01
5.7999999999999954e+00 +7.9190482411576948e+00 +0.0000000000000000e+00 +5.7999998958798002e+00 -3.2819342494140065e-04 +0.0000000000000000e+00 +9.9999994614453636e-01
5.8999999999999950e+00 +7.9190151388872723e+00 +0.0000000000000000e+00 +5.8999998904008653e+00 -3.3385198403530254e-04 +0.0000000000000000e+00 +9.9999994427142469e-01
5.9999999999999947e+00 +7.9189814707607802e+00 +0.0000000000000000e+00 +5.9999998847330183e+00 -3.3951054636598274e-04 +0.0000000000000000e+00 +9.9999994236629264e-01
6.0999999999999943e+00 +7.9189472367778873e+00 +0.0000000000000000e+00 +6.0999998788730565e+00 -3.4516911207583585e-04 +0.0000000000000000e+00 +9.9999994042914009e-01
6.1999999999999940e+00 +7.9189124369382480e+00 +0.0000000000000000e+00 +6.1999998728177790e+00 -3.5082768130446603e-04 +0.0000000000000000e+00 +9.9999993845996693e-01
6.2999999999999936e+00 +7.9188770712415044e+00 +0.0000000000000000e+00 +6.2999998665639829e+00 -3.5648625418095036e-04 +0.0000000000000000e+00 +9.9999993645877305e-01
6.3999999999999932e+00 +7.9188411396872862e+00 +0.0000000000000000e+00 +6.3999998601084664e+00 -3.6214483082313518e-04 +0.0000000000000000e+00 +9.9999993442555835e-01
6.4999999999999929e+00 +7.9188046422752105e+00 +0.0000000000000000e+00 +6.4999998534480277e+00 -3.6780341133763582e-04 +0.0000000000000000e+00 +9.9999993236032281e-01
6.5999999999999925e+00 +7.9187675790048857e+00 +0.0000000000000000e+00 +6.5999998465794638e+00 -3.7346199581983648e-04 +0.0000000000000000e+00 +9.9999993026306622e-01
6.6999999999999922e+00 +7.9187299498759112e+00 +0.0000000000000000e+00 +6.6999998394995730e+00 -3.7912058435388986e-04 +0.0000000000000000e+00 +9.9999992813378846e-01
6.7999999999999918e+00 +7.9186917548878775e+00 +0.0000000000000000e+00 +6.7999998322051534e+00 -3.8477917701271679e-04 +0.0000000000000000e+00 +9.9999992597248955e-01
6.8999999999999915e+00 +7.9186529940403689e+00 +0.0000000000000000e+00 +6.8999998246930030e+00 -3.9043777385800615e-04 +0.0000000000000000e+00 +9.9999992377916924e-01
6.9999999999999911e+00 +7.9186136673329646e+00 +0.0000000000000000e+00 +6.9999998169599200e+00 -3.9609637494021426e-04 +0.0000000000000000e+00 +9.9999992155382755e-01
7.0999999999999908e+00 +7.9185737747652380e+00 +0.0000000000000000e+00 +7.0999998090027017e+00 -4.0175498029856481e-04 +0.0000000000000000e+00 +9.9999991929646437e-01
7.1999999999999904e+00 +7.9185333163367613e+00 +0.0000000000000000e+00 +7.1999998008181461e+00 -4.0741358996104841e-04 +0.0000000000000000e+00 +9.9999991700707969e-01
7.2999999999999901e+00 +7.9184922920471017e+00 +0.0000000000000000e+00 +7.2999997924030504e+00 -4.1307220394442217e-04 +0.0000000000000000e+00 +9.9999991468567329e-01
7.3999999999999897e+00 +7.9184507018958277e+00 +0.0000000000000000e+00 +7.3999997837542129e+00 -4.1873082225420946e-04 +0.0000000000000000e+00 +9.9999991233224517e-01
7.4999999999999893e+00 +7.9184085458825066e+00 +0.0000000000000000e+00 +7.4999997748684315e+00 -4.2438944488469945e-04 +0.0000000000000000e+00 +9.9999990994679522e-01
7.5999999999999890e+00 +7.9183658240067070e+00 +0.0000000000000000e+00 +7.5999997657425045e+00 -4.3004807181894677e-04 +0.0000000000000000e+00 +9.9999990752932344e-01
7.6999999999999886e+00 +7.9183225362679996e+00 +0.0000000000000000e+00 +7.6999997563732290e+00 -4.3570670302877100e-04 +0.0000000000000000e+00 +9.9999990507982972e-01
7.7999999999999883e+00 +7.9182786826659592e+00 +0.0000000000000000e+00 +7.7999997467574032e+00 -4.4136533847475635e-04 +0.0000000000000000e+00 +9.9999990259831406e-01
7.8999999999999879e+00 +7.9182342632001648e+00 +0.0000000000000000e+00 +7.8999997368918242e+00 -4.4702397810625116e-04 +0.0000000000000000e+00 +9.9999990008477635e-01
7.9999999999999876e+00 +7.9181892778702005e+00 +0.0000000000000000e+00 +7.9999997267732903e+00 -4.5268262186136751e-04 +0.0000000000000000e+00 +9.9999989753921648e-01
8.0999999999999872e+00 +7.9181437266756571e+00 +0.0000000000000000e+00 +8.0999997163985995e+00 -4.5834126966745825e-04 +0.0000000000000000e+00 +9.9999989496163455e-01
8.1999999999999869e+00 +7.9180976096161340e+00 +0.0000000000000000e+00 +8.1999997057645491e+00 -4.6399992144636917e-04 +0.0000000000000000e+00 +9.9999989235203046e-01
8.2999999999999865e+00 +7.9180509266912376e+00 +0.0000000000000000e+00 +8.2999996948679371e+00 -4.6965857711969158e-04 +0.0000000000000000e+00 +9.9999988971040421e-01
8.3999999999999861e+00 +7.9180036779005825e+00 +0.0000000000000000e+00 +8.3999996837055626e+00 -4.7531723660924002e-04 +0.0000000000000000e+00 +9.9999988703675569e-01
8.4999999999999858e+00 +7.9179558632437912e+00 +0.0000000000000000e+00 +8.4999996722742210e+00 -4.8097589983705239e-04 +0.0000000000000000e+00 +9.9999988433108500e-01
8.5999999999999854e+00 +7.9179074827204934e+00 +0.0000000000000000e+00 +8.5999996605707114e+00 -4.8663456672539025e-04 +0.0000000000000000e+00 +9.9999988159339204e-01
8.6999999999999851e+00 +7.9178585363303267e+00 +0.0000000000000000e+00 +8.6999996485918309e+00 -4.9229323719673891e-04 +0.0000000000000000e+00 +9.9999987882367680e-01
8.7999999999999847e+00 +7.9178090240729366e+00 +0.0000000000000000e+00 +8.7999996363343786e+00 -4.9795191117380758e-04 +0.0000000000000000e+00 +9.9999987602193918e-01
8.8999999999999844e+00 +7.9177589459479769e+00 +0.0000000000000000e+00 +8.8999996237951517e+00 -5.0361058857952966e-04 +0.0000000000000000e+00 +9.9999987318817929e-01
8.9999999999999840e+00 +7.9177083019551091e+00 +0.0000000000000000e+00 +8.9999996109709475e+00 -5.0926926933706298e-04 +0.0000000000000000e+00 +9.9999987032239701e-01
9.0999999999999837e+00 +7.9176570920940010e+00 +0.0000000000000000e+00 +9.0999995978585630e+00 -5.1492795336979000e-04 +0.0000000000000000e+00 +9.9999986742459235e-01
9.1999999999999833e+00 +7.9176053163643285e+00 +0.0000000000000000e+00 +9.1999995844547975e+00 -5.2058664060131794e-04 +0.0000000000000000e+00 +9.9999986449476530e-01
9.2999999999999829e+00 +7.9175529747657762e+00 +0.0000000000000000e+00 +9.2999995707564480e+00 -5.2624533095547901e-04 +0.0000000000000000e+00 +9.9999986153291587e-01
9.3999999999999826e+00 +7.9175000672980360e+00 +0.0000000000000000e+00 +9.3999995567603136e+00 -5.3190402435633090e-04 +0.0000000000000000e+00 +9.9999985853904405e-01
9.4999999999999822e+00 +7.9174465939608059e+00 +0.0000000000000000e+00 +9.4999995424631898e+00 -5.3756272072815684e-04 +0.0000000000000000e+00 +9.9999985551314985e-01
9.5999999999999819e+00 +7.9173925547537936e+00 +0.0000000000000000e+00 +9.5999995278618755e+00 -5.4322141999546569e-04 +0.0000000000000000e+00 +9.9999985245523315e-01
9.6999999999999815e+00 +7.9173379496767131e+00 +0.0000000000000000e+00 +9.6999995129531680e+00 -5.4888012208299255e-04 +0.0000000000000000e+00 +9.9999984936529407e-01
9.7999999999999812e+00 +7.9172827787292857e+00 +0.0000000000000000e+00 +9.7999994977338662e+00 -5.5453882691569871e-04 +0.0000000000000000e+00 +9.9999984624333249e-01
9.8999999999999808e+00 +7.9172270419112412e+00 +0.0000000000000000e+00 +9.8999994822007675e+00 -5.6019753441877227e-04 +0.0000000000000000e+00 +9.9999984308934853e-01
9.9999999999999805e+00 +7.9171707392223158e+00 +0.0000000000000000e+00 +9.9999994663506691e+00 -5.6585624451762804e-04 +0.0000000000000000e+00 +9.9999983990334207e-01
1.0099999999999980e+01 +7.9171138706622539e+00 +0.0000000000000000e+00 +1.0099999450180368e+01 -5.7151495713824720e-04 +0.0000000000000000e+00 +9.9999983668531311e-01
1.0199999999999980e+01 +7.9170564362308067e+00 +0.0000000000000000e+00 +1.0199999433686664e+01 -5.7717367221090906e-04 +0.0000000000000000e+00 +9.9999983343526178e-01
1.0299999999999979e+01 +7.9169984359277326e+00 +0.0000000000000000e+00 +1.0299999416866353e+01 -5.8283238967392261e-04 +0.0000000000000000e+00 +9.9999983015318794e-01
1.0399999999999979e+01 +7.9169398697527944e+00 +0.0000000000000000e+00 +1.0399999399716233e+01 -5.8849110947396561e-04 +0.0000000000000000e+00 +9.9999982683909161e-01
1.0499999999999979e+01 +7.9168807377057613e+00 +0.0000000000000000e+00 +1.0499999382233103e+01 -5.9414983156608474e-04 +0.0000000000000000e+00 +9.9999982349297278e-01
1.0599999999999978e+01 +7.9168210397864058e+00 +0.0000000000000000e+00 +1.0599999364413760e+01 -5.9980855591369590e-04 +0.0000000000000000e+00 +9.9999982011483146e-01
1.0699999999999978e+01 +7.9167607759945042e+00 +0.0000000000000000e+00 +1.0699999346255002e+01 -6.0546728248858390e-04 +0.0000000000000000e+00 +9.9999981670466764e-01
1.0799999999999978e+01 +7.9166999463298344e+00 +0.0000000000000000e+00 +1.0799999327753627e+01 -6.1112601127090275e-04 +0.0000000000000000e+00 +9.9999981326248122e-01
1.0899999999999977e+01 +7.9166385507921770e+00 +0.0000000000000000e+00 +1.0899999308906430e+01 -6.1678474224917575e-04 +0.0000000000000000e+00 +9.9999980978827230e-01
1.0999999999999977e+01 +7.9165765893813118e+00 +0.0000000000000000e+00 +1.0999999289710212e+01 -6.2244347542029545e-04 +0.0000000000000000e+00 +9.9999980628204066e-01
1.1099999999999977e+01 +7.9165140620970194e+00 +0.0000000000000000e+00 +1.1099999270161771e+01 -6.2810221078952371e-04 +0.0000000000000000e+00 +9.9999980274378641e-01
1.1199999999999976e+01 +7.9164509689390803e+00 +0.0000000000000000e+00 +1.1199999250257902e+01 -6.3376094837049176e-04 +0.0000000000000000e+00 +9.9999979917350945e-01
1.1299999999999976e+01 +7.9163873099072708e+00 +0.0000000000000000e+00 +1.1299999229995404e+01 -6.3941968818520057e-04 +0.0000000000000000e+00 +9.9999979557120977e-01
1.1399999999999975e+01 +7.9163230850013671e+00 +0.0000000000000000e+00 +1.1399999209371076e+01 -6.4507843026402048e-04 +0.0000000000000000e+00 +9.9999979193688726e-01
1.1499999999999975e+01 +7.9162582942211408e+00 +0.0000000000000000e+00 +1.1499999188381715e+01 -6.5073717464569144e-04 +0.0000000000000000e+00 +9.9999978827054181e-01
1.1599999999999975e+01 +7.9161929375663593e+00 +0.0000000000000000e+00 +1.1599999167024118e+01 -6.5639592137732333e-04 +0.0000000000000000e+00 +9.9999978457217342e-01
1.1699999999999974e+01 +7.9161270150367846e+00 +0.0000000000000000e+00 +1.1699999145295083e+01 -6.6205467051439555e-04 +0.0000000000000000e+00 +9.9999978084178198e-01
1.1799999999999974e+01 +7.9160605266321733e+00 +0.0000000000000000e+00 +1.1799999123191407e+01 -6.6771342212075763e-04 +0.0000000000000000e+00 +9.9999977707936749e-01
