# multipoles
# s[mm] polynom_b[n=0][T/m^n] polynom_b[n=1][T/m^n] polynom_b[n=2][T/m^n] polynom_b[n=3][T/m^n] polynom_b[n=4][T/m^n] polynom_b[n=5][T/m^n] polynom_b[n=6][T/m^n] 
+0.0000000000000000e+00 -5.6504483814731898e-01 +7.7367739097665895e+00 -3.6933650636939447e-01 -6.9566792396584176e-01 +2.7106919082276062e+02 -2.0778619376501426e+05 -7.6470478900315324e+06 
+1.0000000000000001e-01 -5.6504449376107735e-01 +7.7367426878054077e+00 -3.7840627947397409e-01 +1.0199221954832882e-01 +4.6010794540503156e+02 -2.1262016230830966e+05 -8.5645254559525978e+06 
+2.0000000000000001e-01 -5.6504414075928111e-01 +7.7367130929740462e+00 -3.8850331529622922e-01 +8.3417869975198677e-01 +6.6762715793610357e+02 -2.1701303186758020e+05 -9.5677083313860111e+06 
+2.9999999999999999e-01 -5.6504378052577253e-01 +7.7366851204014164e+00 -3.9947480169292582e-01 +1.5024938310490814e+00 +8.9096759169275936e+02 -2.2097774177982233e+05 -1.0644740895201426e+07 
+4.0000000000000002e-01 -5.6504341444442630e-01 +7.7366587652204579e+00 -4.1116792385809486e-01 +2.1085398057707345e+00 +1.1274699603786698e+03 -2.2452723061518997e+05 -1.1783767304133302e+07 
+5.0000000000000000e-01 -5.6504304389904902e-01 +7.7366340225671655e+00 -4.2342986508449548e-01 +2.6539187190301439e+00 +1.3744749404952047e+03 -2.2767443631036495e+05 -1.2972931542365823e+07 
+5.9999999999999998e-01 -5.6504267027350175e-01 +7.7366108875760142e+00 -4.3610780865966686e-01 +3.1402327066439168e+00 +1.6293232088194563e+03 -2.3043229698656403e+05 -1.4200377603578577e+07 
+6.9999999999999996e-01 -5.6504229495175606e-01 +7.7365893553803007e+00 -4.4904893449862876e-01 +3.5690839354313924e+00 +1.8893553779200270e+03 -2.3281375090549458e+05 -1.5454249181083065e+07 
+8.0000000000000004e-01 -5.6504191931761449e-01 +7.7365694211146669e+00 -4.6210042208080226e-01 +3.9420745311218006e+00 +2.1519120492929933e+03 -2.3483173604134115e+05 -1.6722689914664699e+07 
+9.0000000000000002e-01 -5.6504154475500412e-01 +7.7365510799056860e+00 -4.7510944980863251e-01 +4.2608068539570070e+00 +2.4143338074340313e+03 -2.3649919170420003e+05 -1.7993843375623751e+07 
+1.0000000000000000e+00 -5.6504117264785703e-01 +7.7365343268805793e+00 -4.8792319535330791e-01 +4.5268832543205013e+00 +2.6739612214972640e+03 -2.3782905713533019e+05 -1.9255853061779976e+07 
+1.1000000000000001e+00 -5.6504080438003468e-01 +7.7365191571595053e+00 -5.0038883433303716e-01 +4.7419062894242128e+00 +2.9281348189668852e+03 -2.3883427276294940e+05 -2.0496862267469008e+07 
+1.2000000000000000e+00 -5.6504044133551778e-01 +7.7365055658573461e+00 -5.1235354181304416e-01 +4.9074786830949195e+00 +3.1741951201564448e+03 -2.3952777999365807e+05 -2.1705014264407646e+07 
+1.3000000000000000e+00 -5.6504008489819524e-01 +7.7364935480782711e+00 -5.2366449029281603e-01 +5.0252034770771621e+00 +3.4094825946469678e+03 -2.3992252207670282e+05 -2.2868452076879106e+07 
+1.3999999999999999e+00 -5.6503973645203442e-01 +7.7364830989252820e+00 -5.3416885320485563e-01 +5.0966837647553076e+00 +3.6313377308552103e+03 -2.4003144259593161e+05 -2.3975318821222540e+07 
+1.5000000000000000e+00 -5.6503939738100639e-01 +7.7364742134844171e+00 -5.4371380347832932e-01 +5.1235231488153339e+00 +3.8371010062651271e+03 -2.3986748811820295e+05 -2.5013757556915455e+07 
+1.6000000000000001e+00 -5.6503906906904633e-01 +7.7364668868341724e+00 -5.5214651161610184e-01 +5.1073254584470549e+00 +4.0241128521353826e+03 -2.3944360654111451e+05 -2.5971911120020509e+07 
+1.7000000000000000e+00 -5.6503875290010019e-01 +7.7364611140440500e+00 -5.5931414736498164e-01 +5.0496948202938157e+00 +4.1897136870817340e+03 -2.3877274757711129e+05 -2.6837922287537519e+07 
+1.8000000000000000e+00 -5.6503845025819488e-01 +7.7364568901702100e+00 -5.6506388081938563e-01 +4.9522357637739862e+00 +4.3312439356544974e+03 -2.3786786331431192e+05 -2.7599933858898964e+07 
+1.8999999999999999e+00 -5.6503816252725803e-01 +7.7364542102501339e+00 -5.6924288059637385e-01 +4.8165533846618427e+00 +4.4460439927161397e+03 -2.3674190919342739e+05 -2.8246088481706023e+07 
+2.0000000000000000e+00 -5.6503789109134728e-01 +7.7364530693114881e+00 -5.7169831379699354e-01 +4.6442530862928662e+00 +4.5314542268220193e+03 -2.3540784250222897e+05 -2.8764528678611826e+07 
+2.1000000000000001e+00 -5.6503763690288278e-01 +7.7364534136879177e+00 -5.7232863276301083e-01 +4.4377996624557330e+00 +4.5856678205937296e+03 -2.3388254501448834e+05 -2.9147040635571025e+07 
+2.2000000000000002e+00 -5.6503739926591501e-01 +7.7364550110028070e+00 -5.7122763644220687e-01 +4.2028375917762304e+00 +4.6101272694784693e+03 -2.3219760971198752e+05 -2.9399295796797082e+07 
+2.2999999999999998e+00 -5.6503717709085122e-01 +7.7364575879339421e+00 -5.6853564750384844e-01 +3.9457463059569071e+00 +4.6070491734453235e+03 -2.3038807742588804e+05 -2.9530274202360809e+07 
+2.3999999999999999e+00 -5.6503696928816649e-01 +7.7364608711692968e+00 -5.6439298931986237e-01 +3.6729049560997127e+00 +4.5786501381848066e+03 -2.2848898749143101e+05 -2.9548955896849349e+07 
+2.5000000000000000e+00 -5.6503677476824099e-01 +7.7364645873937921e+00 -5.5893998729253436e-01 +3.3906927968152245e+00 +4.5271468100118209e+03 -2.2653537999125486e+05 -2.9464321118823107e+07 
+2.6000000000000001e+00 -5.6503659244145610e-01 +7.7364684633074656e+00 -5.5231696863892510e-01 +3.1054886631740333e+00 +4.4547558601163355e+03 -2.2456229273185600e+05 -2.9285350196544584e+07 
+2.7000000000000002e+00 -5.6503642121819753e-01 +7.7364722256099814e+00 -5.4466426037313032e-01 +2.8236714258545836e+00 +4.3636939558550721e+03 -2.2260476392600127e+05 -2.9021023434434775e+07 
+2.7999999999999998e+00 -5.6503626000878959e-01 +7.7364756010116666e+00 -5.3612219648833859e-01 +2.5516196575930823e+00 +4.2561778930531173e+03 -2.2069783021918693e+05 -2.8680321733578648e+07 
+2.8999999999999999e+00 -5.6503610772355073e-01 +7.7364783162377213e+00 -5.2683111090749346e-01 +2.2957115205093532e+00 +4.1344244594627598e+03 -2.1887652607518277e+05 -2.8272225933139008e+07 
+3.0000000000000000e+00 -5.6503596327278105e-01 +7.7364800980150479e+00 -5.1693133962649795e-01 +2.0623251519106951e+00 +4.0006504794652360e+03 -2.1717588604181798e+05 -2.7805717033603389e+07 
+3.1000000000000001e+00 -5.6503582556672349e-01 +7.7364806730938396e+00 -5.0656322535542064e-01 +1.8578380244219412e+00 +3.8570729021122966e+03 -2.1563094100359522e+05 -2.7289776616084050e+07 
+3.2000000000000002e+00 -5.6503569351560590e-01 +7.7364797682290201e+00 -4.9586711107960307e-01 +1.6886274995324915e+00 +3.7059086705308314e+03 -2.1427672145177564e+05 -2.6733386198095180e+07 
+3.2999999999999998e+00 -5.6503556602963401e-01 +7.7364771101938388e+00 -4.8498334290034922e-01 +1.5610704277658372e+00 +3.5493747871960031e+03 -2.1314825515518000e+05 -2.6145527572569828e+07 
+3.3999999999999999e+00 -5.6503544201894118e-01 +7.7364724257768165e+00 -4.7405227447319870e-01 +1.4815432364106471e+00 +3.3896883889707087e+03 -2.1228056768629199e+05 -2.5535183142683491e+07 
+3.5000000000000000e+00 -5.6503532039365623e-01 +7.7364654417840146e+00 -4.6321425970145957e-01 +1.4564218621149165e+00 +3.2290666125761345e+03 -2.1170868202328047e+05 -2.4911335289397720e+07 
+3.6000000000000001e+00 -5.6503520006385044e-01 +7.7364558850388550e+00 -4.5260966237726380e-01 +1.4920817649006606e+00 +3.0697267778670325e+03 -2.1146761867902192e+05 -2.4282967246730845e+07 
+3.7000000000000002e+00 -5.6503507993953683e-01 +7.7364434823842485e+00 -4.4237884158131829e-01 +1.5948978546197130e+00 +2.9138861048173840e+03 -2.1159239524679867e+05 -2.3659061738958009e+07 
+3.7999999999999998e+00 -5.6503495893069045e-01 +7.7364279606861199e+00 -4.3266217136523039e-01 +1.7712444064831858e+00 +2.7637620932454993e+03 -2.1211802597025951e+05 -2.3048602799817719e+07 
+3.8999999999999999e+00 -5.6503483594726933e-01 +7.7364090468289506e+00 -4.2360002646493894e-01 +2.0274951673532531e+00 +2.6215722476884407e+03 -2.1307952230536749e+05 -2.2460574458236042e+07 
+4.0000000000000000e+00 -5.6503470989912385e-01 +7.7363864677290257e+00 -4.1533278289340264e-01 +2.3700230946702185e+00 +2.4895340954518974e+03 -2.1451189171779458e+05 -2.1903960844155423e+07 
+4.0999999999999996e+00 -5.6503457990058581e-01 +7.7363600944971900e+00 -4.0797031250153892e-01 +2.8021619919621403e+00 +2.3693922993941396e+03 -2.1643439901832640e+05 -2.1385928310547724e+07 
+4.2000000000000002e+00 -5.6503444582437101e-01 +7.7363303156197141e+00 -4.0151292877542849e-01 +3.3161666739583389e+00 +2.2612029962018323e+03 -2.1880813113429362e+05 -2.0907205757055439e+07 
+4.2999999999999998e+00 -5.6503430771918461e-01 +7.7362976356699740e+00 -3.9593634895480384e-01 +3.9017653362565263e+00 +2.1646456931260486e+03 -2.2158072249494542e+05 -2.0467099805210419e+07 
+4.4000000000000004e+00 -5.6503416563370090e-01 +7.7362625592165495e+00 -3.9121628122813545e-01 +4.5486863468988910e+00 +2.0793997341293266e+03 -2.2469980848185101e+05 -2.0064916324797053e+07 
+4.5000000000000000e+00 -5.6503401961673416e-01 +7.7362255908337811e+00 -3.8732843294312430e-01 +5.2466579157815456e+00 +2.0051444624563885e+03 -2.2811302341982204e+05 -1.9699961222979773e+07 
+4.5999999999999996e+00 -5.6503386971704928e-01 +7.7361872350897887e+00 -3.8424850592040327e-01 +5.9854084579867646e+00 +1.9415591337797221e+03 -2.3176800272644125e+05 -1.9371540040183060e+07 
+4.7000000000000002e+00 -5.6503371598358276e-01 +7.7361479965554496e+00 -3.8195219686213866e-01 +6.7546663297018901e+00 +1.8883229207795780e+03 -2.3561238133683798e+05 -1.9078957961802859e+07 
+4.7999999999999998e+00 -5.6503355846523717e-01 +7.7361083797997896e+00 -3.8041519468464607e-01 +7.5441599586270289e+00 +1.8451148612318457e+03 -2.3959379445967308e+05 -1.8821519568345789e+07 
+4.9000000000000004e+00 -5.6503339721106816e-01 +7.7360688893872354e+00 -3.7961318677807582e-01 +8.3436179219360440e+00 +1.8116139882834241e+03 -2.4365987798938761e+05 -1.8598529486511894e+07 
+5.0000000000000000e+00 -5.6503323227009539e-01 +7.7360300298822278e+00 -3.7952185304526581e-01 +9.1427688221677634e+00 +1.7874992062756871e+03 -2.4775826781493195e+05 -1.8409291768894378e+07 
+5.0999999999999996e+00 -5.6503306369155137e-01 +7.7359923058483622e+00 -3.8011686405202011e-01 +9.9313413114365243e+00 +1.7724492632268687e+03 -2.5183659993598322e+05 -1.8253109784256134e+07 
+5.2000000000000002e+00 -5.6503289152463432e-01 +7.7359562218428870e+00 -3.8137388716340637e-01 +1.0699064228724072e+01 +1.7661428672633642e+03 -2.5584251118178814e+05 -1.8129286770423766e+07 
+5.2999999999999998e+00 -5.6503271581865855e-01 +7.7359222824229850e+00 -3.8326858189975183e-01 +1.1435666452685023e+01 +1.7682585983869685e+03 -2.5972363844599063e+05 -1.8037125416760262e+07 
+5.4000000000000004e+00 -5.6503253662304009e-01 +7.7358909921397006e+00 -3.8577659813333798e-01 +1.2130877052397645e+01 +1.7784748747076385e+03 -2.6342761947232852e+05 -1.7975927703422852e+07 
+5.5000000000000000e+00 -5.6503235398723761e-01 +7.7358628555445428e+00 -3.8887358085644308e-01 +1.2774425099168106e+01 +1.7964700455199136e+03 -2.6690209175692464e+05 -1.7944995350076396e+07 
+5.5999999999999996e+00 -5.6503216796089228e-01 +7.7358383771788208e+00 -3.9253516595156956e-01 +1.3356039995633962e+01 +1.8219223118015959e+03 -2.7009469450437487e+05 -1.7943629444061819e+07 
+5.7000000000000002e+00 -5.6503197859366427e-01 +7.7358180615856389e+00 -3.9673698026641707e-01 +1.3865451097167183e+01 +1.8545097258165099e+03 -2.7295306632518989e+05 -1.7971130429813962e+07 
+5.7999999999999998e+00 -5.6503178593534920e-01 +7.7358024132983862e+00 -4.0145464121858354e-01 +1.4292388070516793e+01 +1.8939101894522532e+03 -2.7542484737169294e+05 -1.8026798119582877e+07 
+5.9000000000000004e+00 -5.6503159003582204e-01 +7.7357919368477743e+00 -4.0666375989788611e-01 +1.4626580679270882e+01 +1.9398015078646624e+03 -2.7745767805394914e+05 -1.8109931933544017e+07 
+5.9999999999999902e+00 -5.6503139094510946e-01 +7.7357871367294821e+00 -4.1233993912687827e-01 +1.4857759415342818e+01 +1.9918613633511115e+03 -2.7899920192637463e+05 -1.8219830777788270e+07 
+6.0999999999999899e+00 -5.6503118893116744e-01 +7.7357883064619166e+00 -4.1845309398743102e-01 +1.4979741657447633e+01 +2.0497255041885205e+03 -2.8001700734131748e+05 -1.8355600598897435e+07 
+6.1999999999999904e+00 -5.6503098499296656e-01 +7.7357950137602742e+00 -4.2494944977524707e-01 +1.5000424383274689e+01 +2.1128099431359656e+03 -2.8054800112281123e+05 -1.8515316434153423e+07 
+6.2999999999999901e+00 -5.6503078028256770e-01 +7.7358066701365527e+00 -4.3176922337074608e-01 +1.4930738160795546e+01 +2.1804666249284537e+03 -2.8064416643043206e+05 -1.8696748565514814e+07 
+6.3999999999999897e+00 -5.6503057595195727e-01 +7.7358226870791400e+00 -4.3885263713931372e-01 +1.4781614111155967e+01 +2.2520475735927998e+03 -2.8035748928530735e+05 -1.8897667591128994e+07 
+6.4999999999999902e+00 -5.6503037315299354e-01 +7.7358424760695206e+00 -4.4613992601286329e-01 +1.4563983431291049e+01 +2.3269050276732041e+03 -2.7973995581683354e+05 -1.9115845068192683e+07 
+6.5999999999999899e+00 -5.6503017303746084e-01 +7.7358654485688518e+00 -4.5357132958647023e-01 +1.4288777769354381e+01 +2.4043912854820874e+03 -2.7884355440775957e+05 -1.9349052767563701e+07 
+6.6999999999999904e+00 -5.6502997675706834e-01 +7.7358910160222294e+00 -4.6108709336961190e-01 +1.3966929099401046e+01 +2.4838587330149080e+03 -2.7772027497280651e+05 -1.9595062814798672e+07 
+6.7999999999999901e+00 -5.6502978546343297e-01 +7.7359185898606553e+00 -4.6862747303277175e-01 +1.3609369654109500e+01 +2.5646599175630272e+03 -2.7642210852597567e+05 -1.9851648024652150e+07 
+6.8999999999999897e+00 -5.6502960030798843e-01 +7.7359475814944005e+00 -4.7613273195141081e-01 +1.3227032124569563e+01 +2.6461475018454016e+03 -2.7500104837986489e+05 -2.0116581682332180e+07 
+6.9999999999999902e+00 -5.6502942244215537e-01 +7.7359774023155934e+00 -4.8354314153073658e-01 +1.2830849566739188e+01 +2.7276742731547247e+03 -2.7350908954721183e+05 -2.0387637597266264e+07 
+7.0999999999999899e+00 -5.6502925301720197e-01 +7.7360074636974865e+00 -4.9079898293628488e-01 +1.2431755413653613e+01 +2.8085931662438420e+03 -2.7199822878374206e+05 -2.0662590184454165e+07 
+7.1999999999999904e+00 -5.6502909318429950e-01 +7.7360371769993534e+00 -4.9784054494158853e-01 +1.2040683344727036e+01 +2.8882572308146187e+03 -2.7052046387491451e+05 -2.0939214333054356e+07 
+7.2999999999999901e+00 -5.6502894409451199e-01 +7.7360659535517637e+00 -5.0460812781478914e-01 +1.1668567694968154e+01 +2.9660196975967647e+03 -2.6912779595957743e+05 -2.1215285698932629e+07 
+7.3999999999999897e+00 -5.6502880689869439e-01 +7.7360932046702109e+00 -5.1104204166602440e-01 +1.1326343059917717e+01 +3.0412339477267624e+03 -2.6787222723500425e+05 -2.1488580562928151e+07 
+7.4999999999999902e+00 -5.6502868274770846e-01 +7.7361183416478463e+00 -5.1708260435063835e-01 +1.1024944487085474e+01 +3.1132534726042177e+03 -2.6680576202554262e+05 -2.1756875638820078e+07 
+7.5999999999999899e+00 -5.6502857279213636e-01 +7.7361407757522054e+00 -5.2267014855976290e-01 +1.0775307593294164e+01 +3.1814320044586561e+03 -2.6598040752552386e+05 -2.2017948681392457e+07 
+7.6999999999999904e+00 -5.6502847818254165e-01 +7.7361599182332768e+00 -5.2774501392101081e-01 +1.0588368298908552e+01 +3.2451233696655777e+03 -2.6544817216875870e+05 -2.2269577801592018e+07 
+7.7999999999999901e+00 -5.6502840006930599e-01 +7.7361751803154615e+00 -5.3224755321494299e-01 +1.0475063064200286e+01 +3.3036816028687936e+03 -2.6526106701170956e+05 -2.2509541995752327e+07 
+7.8999999999999897e+00 -5.6502833960269161e-01 +7.7361859731981824e+00 -5.3611813084209359e-01 +1.0446328870352936e+01 +3.3564609141172546e+03 -2.6547110563356674e+05 -2.2735620981145233e+07 
+7.9999999999999902e+00 -5.6502829793264553e-01 +7.7361917081315621e+00 -5.3929712029720511e-01 +1.0513101366514526e+01 +3.4028155789350267e+03 -2.6613029451961268e+05 -2.2945594571863692e+07 
+8.0999999999999908e+00 -5.6502827583324433e-01 +7.7361920203790486e+00 -5.4174063025614905e-01 +1.0681580102573918e+01 +3.4422282206451628e+03 -2.6726735146526661e+05 -2.3137511215673748e+07 
+8.1999999999999904e+00 -5.6502827287087731e-01 +7.7361872731682579e+00 -5.4346180200678618e-01 +1.0942795690681876e+01 +3.4747149700929695e+03 -2.6883675447234703e+05 -2.3310839832830910e+07 
+8.2999999999999901e+00 -5.6502828836988284e-01 +7.7361779777498922e+00 -5.4448659105369046e-01 +1.1284742275703609e+01 +3.5004242367984434e+03 -2.7077819468479109e+05 -2.3465449776386734e+07 
+8.3999999999999897e+00 -5.6502832165456185e-01 +7.7361646453848776e+00 -5.4484094906491543e-01 +1.1695413780294768e+01 +3.5195043864840363e+03 -2.7303136233912653e+05 -2.3601210280549731e+07 
+8.4999999999999893e+00 -5.6502837204947931e-01 +7.7361477873341933e+00 -5.4455081124896765e-01 +1.2162804231532517e+01 +3.5321035058512798e+03 -2.7553594874845893e+05 -2.3717989353755914e+07 
+8.5999999999999908e+00 -5.6502843887918797e-01 +7.7361279148753033e+00 -5.4364210330097917e-01 +1.2674907241000948e+01 +3.5383695359603475e+03 -2.7823164316976868e+05 -2.3815654416940220e+07 
+8.6999999999999904e+00 -5.6502852146847748e-01 +7.7361055392952398e+00 -5.4214073800744922e-01 +1.3219716270462166e+01 +3.5384502107406347e+03 -2.8105813454504340e+05 -2.3894072022170052e+07 
+8.7999999999999794e+00 -5.6502861914217528e-01 +7.7360811718865223e+00 -5.4007261560702435e-01 +1.3785224714476785e+01 +3.5324930587996646e+03 -2.8395511186764995e+05 -2.3953107843789410e+07 
+8.8999999999999808e+00 -5.6502873122524089e-01 +7.7360553239542158e+00 -5.3746362304156392e-01 +1.4359425695392776e+01 +3.5206453980571118e+03 -2.8686226301593945e+05 -2.3992626680479731e+07 
+8.9999999999999805e+00 -5.6502885704281891e-01 +7.7360285068164920e+00 -5.3433963747163205e-01 +1.4930312082201114e+01 +3.5030543972914088e+03 -2.8971927495349600e+05 -2.4012492732474569e+07 
+9.0999999999999801e+00 -5.6502899592016664e-01 +7.7360012317990785e+00 -5.3072651511495594e-01 +1.5485876632105647e+01 +3.4798668702792411e+03 -2.9246583450625464e+05 -2.4012568638667393e+07 
+9.1999999999999797e+00 -5.6502914718262043e-01 +7.7359740102407430e+00 -5.2665010508517529e-01 +1.6014111833439895e+01 +3.4512295361236083e+03 -2.9504162746898265e+05 -2.3992716710929170e+07 
+9.2999999999999794e+00 -5.6502931015577063e-01 +7.7359473534944536e+00 -5.2213623900487616e-01 +1.6503009890424309e+01 +3.4172888249112066e+03 -2.9738633856096951e+05 -2.3952798014691927e+07 
+9.3999999999999808e+00 -5.6502948416527699e-01 +7.7359217729210519e+00 -5.1721073263888961e-01 +1.6940562904006232e+01 +3.3781909097782868e+03 -2.9943965248650732e+05 -2.3892672526957229e+07 
+9.4999999999999805e+00 -5.6502966853692627e-01 +7.7358977798979742e+00 -5.1189938975024152e-01 +1.7314762616258548e+01 +3.3340817816904537e+03 -3.0114125243920577e+05 -2.3812199494575821e+07 
+9.5999999999999801e+00 -5.6502986259674104e-01 +7.7358758858125629e+00 -5.0622799816387376e-01 +1.7613600619055337e+01 +3.2851071720578575e+03 -3.0243082136902167e+05 -2.3711237061845072e+07 
+9.6999999999999797e+00 -5.6503006567084313e-01 +7.7358566020689059e+00 -5.0022232412248036e-01 +1.7825068153349587e+01 +3.2314124556396973e+03 -3.0324804080852360e+05 -2.3589641833201379e+07 
+9.7999999999999794e+00 -5.6503027708555875e-01 +7.7358404400839715e+00 -4.9390812508589971e-01 +1.7937156222322031e+01 +3.1731428821284562e+03 -3.0353259154531633e+05 -2.3447269946533192e+07 
+9.8999999999999808e+00 -5.6503049616734047e-01 +7.7358279112876476e+00 -4.8731113747728139e-01 +1.7937855609112894e+01 +3.1104433578856556e+03 -3.0322415377997927e+05 -2.3283976071839195e+07 
+9.9999999999999805e+00 -5.6503072224282413e-01 +7.7358195270346828e+00 -4.8045709042423101e-01 +1.7815159512218983e+01 +3.0434588022214962e+03 -3.0226242103868275e+05 -2.3099615254764300e+07 
+1.0100000000000000e+01 -5.6503095447761831e-01 +7.7358156189462832e+00 -4.7337996339098626e-01 +1.7561864376596095e+01 +2.9724680948098662e+03 -3.0061205769928172e+05 -2.2894672228729844e+07 
