# trajectory
# s[mm] rx[mm] ry[mm] rz[mm] px[rad] py[rad] pz[rad]
0.0000000000000000e+00 +8.1649999999999991e+00 +0.0000000000000000e+00 +0.0000000000000000e+00 +0.0000000000000000e+00 +0.0000000000000000e+00 +1.0000000000000000e+00
1.0000000000000001e-01 +8.1649997167208390e+00 +0.0000000000000000e+00 +9.9999999999465017e-02 -5.6655831740158503e-06 +0.0000000000000000e+00 +9.9999999998395062e-01
2.0000000000000001e-01 +8.1649988668833728e+00 +0.0000000000000000e+00 +1.9999999999572016e-01 -1.1331166124432621e-05 +0.0000000000000000e+00 +9.9999999993580235e-01
3.0000000000000004e-01 +8.1649974504876237e+00 +0.0000000000000000e+00 +2.9999999998555554e-01 -1.6996748820499631e-05 +0.0000000000000000e+00 +9.9999999985555532e-01
4.0000000000000002e-01 +8.1649954675336183e+00 +0.0000000000000000e+00 +3.9999999996576130e-01 -2.2662331229652465e-05 +0.0000000000000000e+00 +9.9999999974320941e-01
5.0000000000000000e-01 +8.1649929180213885e+00 +0.0000000000000000e+00 +4.9999999993312749e-01 -2.8327913317512881e-05 +0.0000000000000000e+00 +9.9999999959876473e-01
5.9999999999999998e-01 +8.1649898019509664e+00 +0.0000000000000000e+00 +5.9999999988444430e-01 -3.3993495047888755e-05 +0.0000000000000000e+00 +9.9999999942222118e-01
6.9999999999999996e-01 +8.1649861193223909e+00 +0.0000000000000000e+00 +6.9999999981650185e-01 -3.9659076382774056e-05 +0.0000000000000000e+00 +9.9999999921357885e-01
7.9999999999999993e-01 +8.1649818701357031e+00 +0.0000000000000000e+00 +7.9999999972609015e-01 -4.5324657282348864e-05 +0.0000000000000000e+00 +9.9999999897283776e-01
8.9999999999999991e-01 +8.1649770543909490e+00 +0.0000000000000000e+00 +8.9999999960999943e-01 -5.0990237704979437e-05 +0.0000000000000000e+00 +9.9999999869999789e-01
9.9999999999999989e-01 +8.1649716720881784e+00 +0.0000000000000000e+00 +9.9999999946501972e-01 -5.6655817607218276e-05 +0.0000000000000000e+00 +9.9999999839505926e-01
1.0999999999999999e+00 +8.1649657232274464e+00 +0.0000000000000000e+00 +1.0999999992879412e+00 -6.2321396943804271e-05 +0.0000000000000000e+00 +9.9999999805802187e-01
1.2000000000000000e+00 +8.1649592078088098e+00 +0.0000000000000000e+00 +1.1999999990755541e+00 -6.7986975667662855e-05 +0.0000000000000000e+00 +9.9999999768888570e-01
1.3000000000000000e+00 +8.1649521258323343e+00 +0.0000000000000000e+00 +1.2999999988246485e+00 -7.3652553729906185e-05 +0.0000000000000000e+00 +9.9999999728765077e-01
1.4000000000000001e+00 +8.1649444772980875e+00 +0.0000000000000000e+00 +1.3999999985320144e+00 -7.9318131079833377e-05 +0.0000000000000000e+00 +9.9999999685431717e-01
1.5000000000000002e+00 +8.1649362622061439e+00 +0.0000000000000000e+00 +1.4999999981944421e+00 -8.4983707664930801e-05 +0.0000000000000000e+00 +9.9999999638888482e-01
1.6000000000000003e+00 +8.1649274805565817e+00 +0.0000000000000000e+00 +1.5999999978087214e+00 -9.0649283430872351e-05 +0.0000000000000000e+00 +9.9999999589135380e-01
1.7000000000000004e+00 +8.1649181323494862e+00 +0.0000000000000000e+00 +1.6999999973716426e+00 -9.6314858321519802e-05 +0.0000000000000000e+00 +9.9999999536172413e-01
1.8000000000000005e+00 +8.1649082175849479e+00 +0.0000000000000000e+00 +1.7999999968799960e+00 -1.0198043227892317e-04 +0.0000000000000000e+00 +9.9999999479999579e-01
1.9000000000000006e+00 +8.1648977362630628e+00 +0.0000000000000000e+00 +1.8999999963305718e+00 -1.0764600524332115e-04 +0.0000000000000000e+00 +9.9999999420616881e-01
2.0000000000000004e+00 +8.1648866883839339e+00 +0.0000000000000000e+00 +1.9999999957201600e+00 -1.1331157715314152e-04 +0.0000000000000000e+00 +9.9999999358024327e-01
2.1000000000000005e+00 +8.1648750739476696e+00 +0.0000000000000000e+00 +2.0999999950455503e+00 -1.1897714794520597e-04 +0.0000000000000000e+00 +9.9999999292221919e-01
2.2000000000000006e+00 +8.1648628929543836e+00 +0.0000000000000000e+00 +2.1999999943035338e+00 -1.2464271755697776e-04 +0.0000000000000000e+00 +9.9999999223209657e-01
2.3000000000000007e+00 +8.1648501454041984e+00 +0.0000000000000000e+00 +2.2999999934908999e+00 -1.3030828592880923e-04 +0.0000000000000000e+00 +9.9999999150987540e-01
2.4000000000000008e+00 +8.1648368312972401e+00 +0.0000000000000000e+00 +2.3999999926044389e+00 -1.3597385300414606e-04 +0.0000000000000000e+00 +9.9999999075555568e-01
2.5000000000000009e+00 +8.1648229506336421e+00 +0.0000000000000000e+00 +2.4999999916409412e+00 -1.4163941872952728e-04 +0.0000000000000000e+00 +9.9999998996913753e-01
2.6000000000000010e+00 +8.1648085034135409e+00 +0.0000000000000000e+00 +2.5999999905971967e+00 -1.4730498305458520e-04 +0.0000000000000000e+00 +9.9999998915062094e-01
2.7000000000000011e+00 +8.1647934896370788e+00 +0.0000000000000000e+00 +2.6999999894699953e+00 -1.5297054593204536e-04 +0.0000000000000000e+00 +9.9999998830000603e-01
2.8000000000000012e+00 +8.1647779093044033e+00 +0.0000000000000000e+00 +2.7999999882561277e+00 -1.5863610731772638e-04 +0.0000000000000000e+00 +9.9999998741729268e-01
2.9000000000000012e+00 +8.1647617624156652e+00 +0.0000000000000000e+00 +2.8999999869523840e+00 -1.6430166717053989e-04 +0.0000000000000000e+00 +9.9999998650248101e-01
3.0000000000000013e+00 +8.1647450489710209e+00 +0.0000000000000000e+00 +2.9999999855555544e+00 -1.6996722545249040e-04 +0.0000000000000000e+00 +9.9999998555557101e-01
3.1000000000000014e+00 +8.1647277689706286e+00 +0.0000000000000000e+00 +3.0999999840624284e+00 -1.7563278212867503e-04 +0.0000000000000000e+00 +9.9999998457656281e-01
3.2000000000000015e+00 +8.1647099224146498e+00 +0.0000000000000000e+00 +3.1999999824697967e+00 -1.8129833716728336e-04 +0.0000000000000000e+00 +9.9999998356545639e-01
3.3000000000000016e+00 +8.1646915093032497e+00 +0.0000000000000000e+00 +3.2999999807744498e+00 -1.8696389053959723e-04 +0.0000000000000000e+00 +9.9999998252225175e-01
3.4000000000000017e+00 +8.1646725296365972e+00 +0.0000000000000000e+00 +3.3999999789731774e+00 -1.9262944221999046e-04 +0.0000000000000000e+00 +9.9999998144694890e-01
3.5000000000000018e+00 +8.1646529834148627e+00 +0.0000000000000000e+00 +3.4999999770627697e+00 -1.9829499218592851e-04 +0.0000000000000000e+00 +9.9999998033954796e-01
3.6000000000000019e+00 +8.1646328706382185e+00 +0.0000000000000000e+00 +3.5999999750400171e+00 -2.0396054041796829e-04 +0.0000000000000000e+00 +9.9999997920004891e-01
3.7000000000000020e+00 +8.1646121913068388e+00 +0.0000000000000000e+00 +3.6999999729017095e+00 -2.0962608689975771e-04 +0.0000000000000000e+00 +9.9999997802845175e-01
3.8000000000000020e+00 +8.1645909454208976e+00 +0.0000000000000000e+00 +3.7999999706446372e+00 -2.1529163161803543e-04 +0.0000000000000000e+00 +9.9999997682475661e-01
3.9000000000000021e+00 +8.1645691329805743e+00 +0.0000000000000000e+00 +3.8999999682655906e+00 -2.2095717456263042e-04 +0.0000000000000000e+00 +9.9999997558896336e-01
4.0000000000000018e+00 +8.1645467539860448e+00 +0.0000000000000000e+00 +3.9999999657613596e+00 -2.2662271572646150e-04 +0.0000000000000000e+00 +9.9999997432107224e-01
4.1000000000000014e+00 +8.1645238084374885e+00 +0.0000000000000000e+00 +4.0999999631287345e+00 -2.3228825510585951e-04 +0.0000000000000000e+00 +9.9999997302108312e-01
4.2000000000000011e+00 +8.1645002963350830e+00 +0.0000000000000000e+00 +4.1999999603645062e+00 -2.3795379270411427e-04 +0.0000000000000000e+00 +9.9999997168899613e-01
4.3000000000000007e+00 +8.1644762176790060e+00 +0.0000000000000000e+00 +4.2999999574654639e+00 -2.4361932853502163e-04 +0.0000000000000000e+00 +9.9999997032481125e-01
4.4000000000000004e+00 +8.1644515724694333e+00 +0.0000000000000000e+00 +4.3999999544283988e+00 -2.4928486262320584e-04 +0.0000000000000000e+00 +9.9999996892852849e-01
4.5000000000000000e+00 +8.1644263607065373e+00 +0.0000000000000000e+00 +4.4999999512500999e+00 -2.5495039500411925e-04 +0.0000000000000000e+00 +9.9999996750014786e-01
4.5999999999999996e+00 +8.1644005823904866e+00 +0.0000000000000000e+00 +4.5999999479273583e+00 -2.6061592572404192e-04 +0.0000000000000000e+00 +9.9999996603966934e-01
4.6999999999999993e+00 +8.1643742375214448e+00 +0.0000000000000000e+00 +4.6999999444569642e+00 -2.6628145484008150e-04 +0.0000000000000000e+00 +9.9999996454709306e-01
4.7999999999999989e+00 +8.1643473260995698e+00 +0.0000000000000000e+00 +4.7999999408357077e+00 -2.7194698242017279e-04 +0.0000000000000000e+00 +9.9999996302241900e-01
4.8999999999999986e+00 +8.1643198481250092e+00 +0.0000000000000000e+00 +4.8999999370603788e+00 -2.7761250854307760e-04 +0.0000000000000000e+00 +9.9999996146564707e-01
4.9999999999999982e+00 +8.1642918035979068e+00 +0.0000000000000000e+00 +4.9999999331277678e+00 -2.8327803329838432e-04 +0.0000000000000000e+00 +9.9999995987677737e-01
5.0999999999999979e+00 +8.1642631925183924e+00 +0.0000000000000000e+00 +5.0999999290346647e+00 -2.8894355678650753e-04 +0.0000000000000000e+00 +9.9999995825580990e-01
5.1999999999999975e+00 +8.1642340148865884e+00 +0.0000000000000000e+00 +5.1999999247778597e+00 -2.9460907911868782e-04 +0.0000000000000000e+00 +9.9999995660274454e-01
5.2999999999999972e+00 +8.1642042707026032e+00 +0.0000000000000000e+00 +5.2999999203541437e+00 -3.0027460041699136e-04 +0.0000000000000000e+00 +9.9999995491758142e-01
5.3999999999999968e+00 +8.1641739599665346e+00 +0.0000000000000000e+00 +5.3999999157603060e+00 -3.0594012081430950e-04 +0.0000000000000000e+00 +9.9999995320032042e-01
5.4999999999999964e+00 +8.1641430826784660e+00 +0.0000000000000000e+00 +5.4999999109931377e+00 -3.1160564045435850e-04 +0.0000000000000000e+00 +9.9999995145096154e-01
5.5999999999999961e+00 +8.1641116388384649e+00 +0.0000000000000000e+00 +5.5999999060494288e+00 -3.1727115949167902e-04 +0.0000000000000000e+00 +9.9999994966950467e-01
5.6999999999999957e+00 +8.1640796284465829e+00 +0.0000000000000000e+00 +5.6999999009259685e+00 -3.2293667809163586e-04 +0.0000000000000000e+00 +9.9999994785594992e-01
5.7999999999999954e+00 +8.1640470515028554e+00 +0.0000000000000000e+00 +5.7999998956195480e+00 -3.2860219643041745e-04 +0.0000000000000000e+00 +9.9999994601029707e-01
5.8999999999999950e+00 +8.1640139080072984e+00 +0.0000000000000000e+00 +5.8999998901269572e+00 -3.3426771469503554e-04 +0.0000000000000000e+00 +9.9999994413254623e-01
5.9999999999999947e+00 +8.1639801979599120e+00 +0.0000000000000000e+00 +5.9999998844449873e+00 -3.3993323308332461e-04 +0.0000000000000000e+00 +9.9999994222269717e-01
6.0999999999999943e+00 +8.1639459213606713e+00 +0.0000000000000000e+00 +6.0999998785704275e+00 -3.4559875180287909e-04 +0.0000000000000000e+00 +9.9999994028074990e-01
6.1999999999999940e+00 +8.1639110782095337e+00 +0.0000000000000000e+00 +6.1999998725000678e+00 -3.5126427105936566e-04 +0.0000000000000000e+00 +9.9999993830670431e-01
6.2999999999999936e+00 +8.1638756685064351e+00 +0.0000000000000000e+00 +6.2999998662306984e+00 -3.5692979104483594e-04 +0.0000000000000000e+00 +9.9999993630056039e-01
6.3999999999999932e+00 +8.1638396922512939e+00 +0.0000000000000000e+00 +6.3999998597591095e+00 -3.6259531193666466e-04 +0.0000000000000000e+00 +9.9999993426231804e-01
6.4999999999999929e+00 +8.1638031494440124e+00 +0.0000000000000000e+00 +6.4999998530820919e+00 -3.6826083389755022e-04 +0.0000000000000000e+00 +9.9999993219197714e-01
6.5999999999999925e+00 +8.1637660400844752e+00 +0.0000000000000000e+00 +6.5999998461964351e+00 -3.7392635707551549e-04 +0.0000000000000000e+00 +9.9999993008953758e-01
6.6999999999999922e+00 +8.1637283641725524e+00 +0.0000000000000000e+00 +6.6999998390989290e+00 -3.7959188160390840e-04 +0.0000000000000000e+00 +9.9999992795499937e-01
6.7999999999999918e+00 +8.1636901217081057e+00 +0.0000000000000000e+00 +6.7999998317863648e+00 -3.8525740760140268e-04 +0.0000000000000000e+00 +9.9999992578836250e-01
6.8999999999999915e+00 +8.1636513126909804e+00 +0.0000000000000000e+00 +6.8999998242555316e+00 -3.9092293517199863e-04 +0.0000000000000000e+00 +9.9999992358962675e-01
6.9999999999999911e+00 +8.1636119371210150e+00 +0.0000000000000000e+00 +6.9999998165032205e+00 -3.9658846440502395e-04 +0.0000000000000000e+00 +9.9999992135879212e-01
7.0999999999999908e+00 +8.1635719949980405e+00 +0.0000000000000000e+00 +7.0999998085262206e+00 -4.0225399537513441e-04 +0.0000000000000000e+00 +9.9999991909585861e-01
7.1999999999999904e+00 +8.1635314863218795e+00 +0.0000000000000000e+00 +7.1999998003213221e+00 -4.0791952814231484e-04 +0.0000000000000000e+00 +9.9999991680082612e-01
7.2999999999999901e+00 +8.1634904110923507e+00 +0.0000000000000000e+00 +7.2999997918853161e+00 -4.1358506275188009e-04 +0.0000000000000000e+00 +9.9999991447369463e-01
7.3999999999999897e+00 +8.1634487693092677e+00 +0.0000000000000000e+00 +7.3999997832149917e+00 -4.1925059923447565e-04 +0.0000000000000000e+00 +9.9999991211446404e-01
7.4999999999999893e+00 +8.1634065609724420e+00 +0.0000000000000000e+00 +7.4999997743071392e+00 -4.2491613760607888e-04 +0.0000000000000000e+00 +9.9999990972313435e-01
7.5999999999999890e+00 +8.1633637860816837e+00 +0.0000000000000000e+00 +7.5999997651585485e+00 -4.3058167786799988e-04 +0.0000000000000000e+00 +9.9999990729970545e-01
7.6999999999999886e+00 +8.1633204446368062e+00 +0.0000000000000000e+00 +7.6999997557660098e+00 -4.3624722000688241e-04 +0.0000000000000000e+00 +9.9999990484417745e-01
7.7999999999999883e+00 +8.1632765366376212e+00 +0.0000000000000000e+00 +7.7999997461263133e+00 -4.4191276399470504e-04 +0.0000000000000000e+00 +9.9999990235655023e-01
7.8999999999999879e+00 +8.1632320620839476e+00 +0.0000000000000000e+00 +7.8999997362362491e+00 -4.4757830978878226e-04 +0.0000000000000000e+00 +9.9999989983682380e-01
7.9999999999999876e+00 +8.1631870209756059e+00 +0.0000000000000000e+00 +7.9999997260926072e+00 -4.5324385733176541e-04 +0.0000000000000000e+00 +9.9999989728499816e-01
8.0999999999999872e+00 +8.1631414133124256e+00 +0.0000000000000000e+00 +8.0999997156921779e+00 -4.5890940655262085e-04 +0.0000000000000000e+00 +9.9999989470107331e-01
8.1999999999999869e+00 +8.1630952390942415e+00 +0.0000000000000000e+00 +8.1999997050317521e+00 -4.6457495737737805e-04 +0.0000000000000000e+00 +9.9999989208504925e-01
8.2999999999999865e+00 +8.1630484983208991e+00 +0.0000000000000000e+00 +8.2999996941081182e+00 -4.7024050973987636e-04 +0.0000000000000000e+00 +9.9999988943692597e-01
8.3999999999999861e+00 +8.1630011909922455e+00 +0.0000000000000000e+00 +8.3999996829180663e+00 -4.7590606358274211e-04 +0.0000000000000000e+00 +9.9999988675670348e-01
8.4999999999999858e+00 +8.1629533171081352e+00 +0.0000000000000000e+00 +8.4999996714583883e+00 -4.8157161885738800e-04 +0.0000000000000000e+00 +9.9999988404438178e-01
8.5999999999999854e+00 +8.1629048766684278e+00 +0.0000000000000000e+00 +8.5999996597258725e+00 -4.8723717552401298e-04 +0.0000000000000000e+00 +9.9999988129996087e-01
8.6999999999999851e+00 +8.1628558696729847e+00 +0.0000000000000000e+00 +8.6999996477173109e+00 -4.9290273355160176e-04 +0.0000000000000000e+00 +9.9999987852344074e-01
8.7999999999999847e+00 +8.1628062961216727e+00 +0.0000000000000000e+00 +8.7999996354294918e+00 -4.9856829291792452e-04 +0.0000000000000000e+00 +9.9999987571482141e-01
8.8999999999999844e+00 +8.1627561560143569e+00 +0.0000000000000000e+00 +8.8999996228592053e+00 -5.0423385360953644e-04 +0.0000000000000000e+00 +9.9999987287410286e-01
8.9999999999999840e+00 +8.1627054493509057e+00 +0.0000000000000000e+00 +8.9999996100032416e+00 -5.0989941562177763e-04 +0.0000000000000000e+00 +9.9999987000128499e-01
9.0999999999999837e+00 +8.1626541761311877e+00 +0.0000000000000000e+00 +9.0999995968583924e+00 -5.1556497895877216e-04 +0.0000000000000000e+00 +9.9999986709636790e-01
9.1999999999999833e+00 +8.1626023363550697e+00 +0.0000000000000000e+00 +9.1999995834214463e+00 -5.2123054363342812e-04 +0.0000000000000000e+00 +9.9999986415935149e-01
9.2999999999999829e+00 +8.1625499300224167e+00 +0.0000000000000000e+00 +9.2999995696891933e+00 -5.2689610966743703e-04 +0.0000000000000000e+00 +9.9999986119023565e-01
9.3999999999999826e+00 +8.1624969571330901e+00 +0.0000000000000000e+00 +9.3999995556584235e+00 -5.3256167709127332e-04 +0.0000000000000000e+00 +9.9999985818902049e-01
9.4999999999999822e+00 +8.1624434176869496e+00 +0.0000000000000000e+00 +9.4999995413259271e+00 -5.3822724594419389e-04 +0.0000000000000000e+00 +9.9999985515570589e-01
9.5999999999999819e+00 +8.1623893116838513e+00 +0.0000000000000000e+00 +9.5999995266884941e+00 -5.4389281627423790e-04 +0.0000000000000000e+00 +9.9999985209029174e-01
9.6999999999999815e+00 +8.1623346391236442e+00 +0.0000000000000000e+00 +9.6999995117429147e+00 -5.4955838813822578e-04 +0.0000000000000000e+00 +9.9999984899277805e-01
9.7999999999999812e+00 +8.1622794000061702e+00 +0.0000000000000000e+00 +9.7999994964859791e+00 -5.5522396160175903e-04 +0.0000000000000000e+00 +9.9999984586316482e-01
9.8999999999999808e+00 +8.1622235943312678e+00 +0.0000000000000000e+00 +9.8999994809144773e+00 -5.6088953673921987e-04 +0.0000000000000000e+00 +9.9999984270145192e-01
9.9999999999999805e+00 +8.1621672220987644e+00 +0.0000000000000000e+00 +9.9999994650251995e+00 -5.6655511363377020e-04 +0.0000000000000000e+00 +9.9999983950763927e-01
1.0099999999999980e+01 +8.1621102833084791e+00 +0.0000000000000000e+00 +1.0099999448814936e+01 -5.7222069237693174e-04 +0.0000000000000000e+00 +9.9999983628172673e-01
1.0199999999999980e+01 +8.1620527779602234e+00 +0.0000000000000000e+00 +1.0199999432280475e+01 -5.7788627306396782e-04 +0.0000000000000000e+00 +9.9999983302371431e-01
1.0299999999999979e+01 +8.1619947060537985e+00 +0.0000000000000000e+00 +1.0299999415418608e+01 -5.8355185578926494e-04 +0.0000000000000000e+00 +9.9999982973360191e-01
1.0399999999999979e+01 +8.1619360675889947e+00 +0.0000000000000000e+00 +1.0399999398226125e+01 -5.8921744064591261e-04 +0.0000000000000000e+00 +9.9999982641138940e-01
1.0499999999999979e+01 +8.1618768625655953e+00 +0.0000000000000000e+00 +1.0499999380699816e+01 -5.9488302772570264e-04 +0.0000000000000000e+00 +9.9999982305707669e-01
1.0599999999999978e+01 +8.1618170909833729e+00 +0.0000000000000000e+00 +1.0599999362836471e+01 -6.0054861711912838e-04 +0.0000000000000000e+00 +9.9999981967066365e-01
1.0699999999999978e+01 +8.1617567528420913e+00 +0.0000000000000000e+00 +1.0699999344632879e+01 -6.0621420891538433e-04 +0.0000000000000000e+00 +9.9999981625215029e-01
1.0799999999999978e+01 +8.1616958481415072e+00 +0.0000000000000000e+00 +1.0799999326085830e+01 -6.1187980320236504e-04 +0.0000000000000000e+00 +9.9999981280153638e-01
1.0899999999999977e+01 +8.1616343768813664e+00 +0.0000000000000000e+00 +1.0899999307192115e+01 -6.1754540006666474e-04 +0.0000000000000000e+00 +9.9999980931882193e-01
1.0999999999999977e+01 +8.1615723390614061e+00 +0.0000000000000000e+00 +1.0999999287948524e+01 -6.2321099959357644e-04 +0.0000000000000000e+00 +9.9999980580400682e-01
1.1099999999999977e+01 +8.1615097346813563e+00 +0.0000000000000000e+00 +1.1099999268351846e+01 -6.2887660186709121e-04 +0.0000000000000000e+00 +9.9999980225709095e-01
1.1199999999999976e+01 +8.1614465637409381e+00 +0.0000000000000000e+00 +1.1199999248398871e+01 -6.3454220696989758e-04 +0.0000000000000000e+00 +9.9999979867807420e-01
1.1299999999999976e+01 +8.1613828262398656e+00 +0.0000000000000000e+00 +1.1299999228086390e+01 -6.4020781498338054e-04 +0.0000000000000000e+00 +9.9999979506695647e-01
1.1399999999999975e+01 +8.1613185221778419e+00 +0.0000000000000000e+00 +1.1399999207411193e+01 -6.4587342598762087e-04 +0.0000000000000000e+00 +9.9999979142373774e-01
1.1499999999999975e+01 +8.1612536515545653e+00 +0.0000000000000000e+00 +1.1499999186370069e+01 -6.5153904006139444e-04 +0.0000000000000000e+00 +9.9999978774841780e-01
1.1599999999999975e+01 +8.1611882143697247e+00 +0.0000000000000000e+00 +1.1599999164959806e+01 -6.5720465728217128e-04 +0.0000000000000000e+00 +9.9999978404099654e-01
1.1699999999999974e+01 +8.1611222106230024e+00 +0.0000000000000000e+00 +1.1699999143177198e+01 -6.6287027772611476e-04 +0.0000000000000000e+00 +9.9999978030147396e-01
1.1799999999999974e+01 +8.1610556403140713e+00 +0.0000000000000000e+00 +1.1799999121019033e+01 -6.6853590146808079e-04 +0.0000000000000000e+00 +9.9999977652984995e-01
