# field on trajectory
# s[mm] rx[mm] ry[mm] rz[mm] bx[T] by[T] bz[T]
0.0000000000000000e+00 +8.1529999999999987e+00 +0.0000000000000000e+00 +0.0000000000000000e+00 -2.9945789155919781e-02 -5.6436575011255241e-01 +5.6224715171500983e-03
-1.0000000000000001e-01 +8.1529997171273436e+00 +0.0000000000000000e+00 -9.9999999999466557e-02 -2.9945719152113064e-02 -5.6436559614602266e-01 +5.6225255199755120e-03
-2.0000000000000001e-01 +8.1529988685094796e+00 +0.0000000000000000e+00 -1.9999999999573242e-01 -2.9945648049176935e-02 -5.6436544300889901e-01 +5.6225778552118182e-03
-3.0000000000000004e-01 +8.1529974541465595e+00 +0.0000000000000000e+00 -2.9999999998559695e-01 -2.9945576148121007e-02 -5.6436529145227965e-01 +5.6226288300348943e-03
-4.0000000000000002e-01 +8.1529954740387360e+00 +0.0000000000000000e+00 -3.9999999996585944e-01 -2.9945503749948484e-02 -5.6436514222727130e-01 +5.6226787516198895e-03
-5.0000000000000000e-01 +8.1529929281861584e+00 +0.0000000000000000e+00 -4.9999999993331923e-01 -2.9945431155655799e-02 -5.6436499608498902e-01 +5.6227279271411712e-03
-5.9999999999999998e-01 +8.1529898165889723e+00 +0.0000000000000000e+00 -5.9999999988477570e-01 -2.9945358666232467e-02 -5.6436485377655488e-01 +5.6227766637722710e-03
-6.9999999999999996e-01 +8.1529861392473215e+00 +0.0000000000000000e+00 -6.9999999981702810e-01 -2.9945286582660772e-02 -5.6436471605309702e-01 +5.6228252686858268e-03
-7.9999999999999993e-01 +8.1529818961613447e+00 +0.0000000000000000e+00 -7.9999999972687585e-01 -2.9945215205915549e-02 -5.6436458366574938e-01 +5.6228740490535311e-03
-8.9999999999999991e-01 +8.1529770873311733e+00 +0.0000000000000000e+00 -8.9999999961111821e-01 -2.9945144836963911e-02 -5.6436445736564900e-01 +5.6229233120460602e-03
-9.9999999999999989e-01 +8.1529717127569352e+00 +0.0000000000000000e+00 -9.9999999946655460e-01 -2.9945075776765005e-02 -5.6436433790393603e-01 +5.6229733648330447e-03
-1.0999999999999999e+00 +8.1529657724387494e+00 +0.0000000000000000e+00 -1.0999999992899843e+00 -2.9945008326269798e-02 -5.6436422603175318e-01 +5.6230245145829916e-03
-1.2000000000000000e+00 +8.1529592663767296e+00 +0.0000000000000000e+00 -1.1999999990782066e+00 -2.9944942786420771e-02 -5.6436412250024404e-01 +5.6230770684632357e-03
-1.3000000000000000e+00 +8.1529521945709789e+00 +0.0000000000000000e+00 -1.2999999988280211e+00 -2.9944879458151687e-02 -5.6436402806055130e-01 +5.6231313336398865e-03
-1.4000000000000001e+00 +8.1529445570215913e+00 +0.0000000000000000e+00 -1.3999999985362268e+00 -2.9944818642387409e-02 -5.6436394346381868e-01 +5.6231876172777731e-03
-1.5000000000000002e+00 +8.1529363537286521e+00 +0.0000000000000000e+00 -1.4999999981996233e+00 -2.9944760640043536e-02 -5.6436386946118555e-01 +5.6232462265403812e-03
-1.6000000000000003e+00 +8.1529275846922360e+00 +0.0000000000000000e+00 -1.5999999978150099e+00 -2.9944705752026221e-02 -5.6436380680378928e-01 +5.6233074685898025e-03
-1.7000000000000004e+00 +8.1529182499124069e+00 +0.0000000000000000e+00 -1.6999999973791859e+00 -2.9944654279231937e-02 -5.6436375624276336e-01 +5.6233716505866846e-03
-1.8000000000000005e+00 +8.1529083493892145e+00 +0.0000000000000000e+00 -1.7999999968889506e+00 -2.9944606522547157e-02 -5.6436371852923561e-01 +5.6234390796901564e-03
-1.9000000000000006e+00 +8.1528978831226961e+00 +0.0000000000000000e+00 -1.8999999963411036e+00 -2.9944562782848180e-02 -5.6436369441432843e-01 +5.6235100630577994e-03
-2.0000000000000004e+00 +8.1528868511128785e+00 +0.0000000000000000e+00 -1.9999999957324439e+00 -2.9944523361000834e-02 -5.6436368464915587e-01 +5.6235849078455687e-03
-2.1000000000000005e+00 +8.1528752533597704e+00 +0.0000000000000000e+00 -2.0999999950597710e+00 -2.9944488362651938e-02 -5.6436368971024731e-01 +5.6236638388845895e-03
-2.2000000000000006e+00 +8.1528630898633665e+00 +0.0000000000000000e+00 -2.1999999943198842e+00 -2.9944457112609082e-02 -5.6436370897581523e-01 +5.6237467517125895e-03
-2.3000000000000007e+00 +8.1528503606236491e+00 +0.0000000000000000e+00 -2.2999999935095832e+00 -2.9944428740475156e-02 -5.6436374154949498e-01 +5.6238334595451909e-03
-2.4000000000000008e+00 +8.1528370656405862e+00 +0.0000000000000000e+00 -2.3999999926256668e+00 -2.9944402375859342e-02 -5.6436378653492580e-01 +5.6239237755996221e-03
-2.5000000000000009e+00 +8.1528232049141316e+00 +0.0000000000000000e+00 -2.4999999916649349e+00 -2.9944377148378724e-02 -5.6436384303574960e-01 +5.6240175130950034e-03
-2.6000000000000010e+00 +8.1528087784442302e+00 +0.0000000000000000e+00 -2.5999999906241862e+00 -2.9944352187659722e-02 -5.6436391015561227e-01 +5.6241144852526214e-03
-2.7000000000000011e+00 +8.1527937862308164e+00 +0.0000000000000000e+00 -2.6999999895002205e+00 -2.9944326623339741e-02 -5.6436398699816359e-01 +5.6242145052962361e-03
-2.8000000000000012e+00 +8.1527782282738119e+00 +0.0000000000000000e+00 -2.7999999882898368e+00 -2.9944299585068598e-02 -5.6436407266705724e-01 +5.6243173864523530e-03
-2.9000000000000012e+00 +8.1527621045731333e+00 +0.0000000000000000e+00 -2.8999999869898350e+00 -2.9944270202510084e-02 -5.6436416626595232e-01 +5.6244229419505206e-03
-3.0000000000000013e+00 +8.1527454151286847e+00 +0.0000000000000000e+00 -2.9999999855970136e+00 -2.9944237605343520e-02 -5.6436426689851282e-01 +5.6245309850236121e-03
-3.1000000000000014e+00 +8.1527281599403683e+00 +0.0000000000000000e+00 -3.0999999841081727e+00 -2.9944200923265260e-02 -5.6436437366840808e-01 +5.6246413289081270e-03
-3.2000000000000015e+00 +8.1527103390080757e+00 +0.0000000000000000e+00 -3.1999999825201111e+00 -2.9944159285990223e-02 -5.6436448567931330e-01 +5.6247537868444617e-03
-3.3000000000000016e+00 +8.1526919523316970e+00 +0.0000000000000000e+00 -3.2999999808296283e+00 -2.9944111823253461e-02 -5.6436460203491046e-01 +5.6248681720772117e-03
-3.4000000000000017e+00 +8.1526729999111147e+00 +0.0000000000000000e+00 -3.3999999790335238e+00 -2.9944057664811615e-02 -5.6436472183888742e-01 +5.6249842978554482e-03
-3.5000000000000018e+00 +8.1526534817462117e+00 +0.0000000000000000e+00 -3.4999999771285966e+00 -2.9943995940444550e-02 -5.6436484419493993e-01 +5.6251019774330177e-03
-3.6000000000000019e+00 +8.1526333978368637e+00 +0.0000000000000000e+00 -3.5999999751116460e+00 -2.9943925779956804e-02 -5.6436496820677062e-01 +5.6252210240688230e-03
-3.7000000000000020e+00 +8.1526127481829480e+00 +0.0000000000000000e+00 -3.6999999729794717e+00 -2.9943846313179145e-02 -5.6436509297808979e-01 +5.6253412510271147e-03
-3.8000000000000020e+00 +8.1525915327843403e+00 +0.0000000000000000e+00 -3.7999999707288725e+00 -2.9943756669970130e-02 -5.6436521761261615e-01 +5.6254624715777780e-03
-3.9000000000000021e+00 +8.1525697516409164e+00 +0.0000000000000000e+00 -3.8999999683566480e+00 -2.9943655980217629e-02 -5.6436534121407700e-01 +5.6255844989966299e-03
-4.0000000000000018e+00 +8.1525474047525535e+00 +0.0000000000000000e+00 -3.9999999658595975e+00 -2.9943543373840309e-02 -5.6436546288620837e-01 +5.6257071465656795e-03
-4.1000000000000014e+00 +8.1525244921191291e+00 +0.0000000000000000e+00 -4.0999999632345201e+00 -2.9943418386213484e-02 -5.6436558193193120e-01 +5.6258302464669016e-03
-4.2000000000000011e+00 +8.1525010137405260e+00 +0.0000000000000000e+00 -4.1999999604782152e+00 -2.9943282174430180e-02 -5.6436569845086793e-01 +5.6259537064602986e-03
-4.3000000000000007e+00 +8.1524769696166270e+00 +0.0000000000000000e+00 -4.2999999575874819e+00 -2.9943136301002253e-02 -5.6436581274180686e-01 +5.6260774531992006e-03
-4.4000000000000004e+00 +8.1524523597473202e+00 +0.0000000000000000e+00 -4.3999999545591200e+00 -2.9942982328430623e-02 -5.6436592510352324e-01 +5.6262014133359687e-03
-4.5000000000000000e+00 +8.1524271841324918e+00 +0.0000000000000000e+00 -4.4999999513899285e+00 -2.9942821819204182e-02 -5.6436603583477729e-01 +5.6263255135218333e-03
-4.5999999999999996e+00 +8.1524014427720317e+00 +0.0000000000000000e+00 -4.5999999480767064e+00 -2.9942656335798647e-02 -5.6436614523431528e-01 +5.6264496804067175e-03
-4.6999999999999993e+00 +8.1523751356658316e+00 +0.0000000000000000e+00 -4.6999999446162537e+00 -2.9942487440675392e-02 -5.6436625360086623e-01 +5.6265738406390637e-03
-4.7999999999999989e+00 +8.1523482628137831e+00 +0.0000000000000000e+00 -4.7999999410053693e+00 -2.9942316696280412e-02 -5.6436636123314432e-01 +5.6266979208656588e-03
-4.8999999999999986e+00 +8.1523208242157796e+00 +0.0000000000000000e+00 -4.8999999372408523e+00 -2.9942145665043059e-02 -5.6436646842984306e-01 +5.6268218477314603e-03
-4.9999999999999982e+00 +8.1522928198717146e+00 +0.0000000000000000e+00 -4.9999999333195024e+00 -2.9941975909375029e-02 -5.6436657548963953e-01 +5.6269455478794184e-03
-5.0999999999999979e+00 +8.1522642497814815e+00 +0.0000000000000000e+00 -5.0999999292381188e+00 -2.9941808991669143e-02 -5.6436668271119006e-01 +5.6270689479503153e-03
-5.1999999999999975e+00 +8.1522351139449736e+00 +0.0000000000000000e+00 -5.1999999249935005e+00 -2.9941646474298273e-02 -5.6436679039313098e-01 +5.6271919745825719e-03
-5.2999999999999972e+00 +8.1522054123620844e+00 +0.0000000000000000e+00 -5.2999999205824473e+00 -2.9941489919614147e-02 -5.6436689883407654e-01 +5.6273145544120939e-03
-5.3999999999999968e+00 +8.1521751450327056e+00 +0.0000000000000000e+00 -5.3999999160017573e+00 -2.9941340889946263e-02 -5.6436700833261888e-01 +5.6274366140720740e-03
-5.4999999999999964e+00 +8.1521443119567287e+00 +0.0000000000000000e+00 -5.4999999112482305e+00 -2.9941200947600732e-02 -5.6436711918732652e-01 +5.6275580801928432e-03
-5.5999999999999961e+00 +8.1521129131340437e+00 +0.0000000000000000e+00 -5.5999999063186667e+00 -2.9941071654859146e-02 -5.6436723169674397e-01 +5.6276788794016805e-03
-5.6999999999999957e+00 +8.1520809485645387e+00 +0.0000000000000000e+00 -5.6999999012098650e+00 -2.9940954573977416e-02 -5.6436734615939077e-01 +5.6277989383226434e-03
-5.7999999999999954e+00 +8.1520484182480999e+00 +0.0000000000000000e+00 -5.7999998959186243e+00 -2.9940851267184675e-02 -5.6436746287375950e-01 +5.6279181835763911e-03
-5.8999999999999950e+00 +8.1520153221846101e+00 +0.0000000000000000e+00 -5.8999998904417437e+00 -2.9940763296682105e-02 -5.6436758213831628e-01 +5.6280365417800170e-03
-5.9999999999999947e+00 +8.1519816603739521e+00 +0.0000000000000000e+00 -5.9999998847760230e+00 -2.9940692224641817e-02 -5.6436770425149962e-01 +5.6281539395468773e-03
-6.0999999999999943e+00 +8.1519474328160051e+00 +0.0000000000000000e+00 -6.0999998789182603e+00 -2.9940639238284984e-02 -5.6436782960258802e-01 +5.6282703407809056e-03
-6.1999999999999940e+00 +8.1519126395106429e+00 +0.0000000000000000e+00 -6.1999998728652566e+00 -2.9940604025133117e-02 -5.6436795894432468e-01 +5.6283858585608054e-03
-6.2999999999999936e+00 +8.1518772804577377e+00 +0.0000000000000000e+00 -6.2999998666138097e+00 -2.9940585897807126e-02 -5.6436809312032676e-01 +5.6285006432564913e-03
-6.3999999999999932e+00 +8.1518413556571563e+00 +0.0000000000000000e+00 -6.3999998601607198e+00 -2.9940584168956650e-02 -5.6436823297421923e-01 +5.6286148452342668e-03
-6.4999999999999929e+00 +8.1518048651087600e+00 +0.0000000000000000e+00 -6.4999998535027856e+00 -2.9940598151261329e-02 -5.6436837934963613e-01 +5.6287286148566694e-03
-6.5999999999999925e+00 +8.1517678088124015e+00 +0.0000000000000000e+00 -6.5999998466368064e+00 -2.9940627157432117e-02 -5.6436853309021884e-01 +5.6288421024823267e-03
-6.6999999999999922e+00 +8.1517301867679297e+00 +0.0000000000000000e+00 -6.6999998395595819e+00 -2.9940670500212475e-02 -5.6436869503961962e-01 +5.6289554584658171e-03
-6.7999999999999918e+00 +8.1516919989751813e+00 +0.0000000000000000e+00 -6.7999998322679103e+00 -2.9940727492379717e-02 -5.6436886604149950e-01 +5.6290688331575222e-03
-6.8999999999999915e+00 +8.1516532454339874e+00 +0.0000000000000000e+00 -6.8999998247585914e+00 -2.9940797446746222e-02 -5.6436904693953083e-01 +5.6291823769034893e-03
-6.9999999999999911e+00 +8.1516139261441669e+00 +0.0000000000000000e+00 -6.9999998170284252e+00 -2.9940879676160756e-02 -5.6436923857739729e-01 +5.6292962400452812e-03
-7.0999999999999908e+00 +8.1515740411055297e+00 +0.0000000000000000e+00 -7.0999998090742098e+00 -2.9940973493509680e-02 -5.6436944179879367e-01 +5.6294105729198440e-03
-7.1999999999999904e+00 +8.1515335903178734e+00 +0.0000000000000000e+00 -7.1999998008927450e+00 -2.9941078211718292e-02 -5.6436965744742751e-01 +5.6295255258593481e-03
-7.2999999999999901e+00 +8.1514925737809829e+00 +0.0000000000000000e+00 -7.2999997924808300e+00 -2.9941193143752053e-02 -5.6436988636701935e-01 +5.6296412491910579e-03
-7.3999999999999897e+00 +8.1514509914946309e+00 +0.0000000000000000e+00 -7.3999997838352636e+00 -2.9941317602617850e-02 -5.6437012940130282e-01 +5.6297578932371847e-03
-7.4999999999999893e+00 +8.1514088434585741e+00 +0.0000000000000000e+00 -7.4999997749528449e+00 -2.9941450901365314e-02 -5.6437038739402590e-01 +5.6298756083147366e-03
-7.5999999999999890e+00 +8.1513661296725548e+00 +0.0000000000000000e+00 -7.5999997658303737e+00 -2.9941592353088076e-02 -5.6437066118895129e-01 +5.6299945447353863e-03
-7.6999999999999886e+00 +8.1513228501362995e+00 +0.0000000000000000e+00 -7.6999997564646483e+00 -2.9941741270925012e-02 -5.6437095162985695e-01 +5.6301148528053180e-03
-7.7999999999999883e+00 +8.1512790048495187e+00 +0.0000000000000000e+00 -7.7999997468524684e+00 -2.9941896968061554e-02 -5.6437125956053624e-01 +5.6302366828250910e-03
-7.8999999999999879e+00 +8.1512345938119051e+00 +0.0000000000000000e+00 -7.8999997369906332e+00 -2.9942058757730945e-02 -5.6437158582479996e-01 +5.6303601850894863e-03
-7.9999999999999876e+00 +8.1511896170231335e+00 +0.0000000000000000e+00 -7.9999997268759415e+00 -2.9942225953215502e-02 -5.6437193126647422e-01 +5.6304855098873712e-03
-8.0999999999999872e+00 +8.1511440744828594e+00 +0.0000000000000000e+00 -8.0999997165051933e+00 -2.9942397822951345e-02 -5.6437229638300612e-01 +5.6306127573145159e-03
-8.1999999999999869e+00 +8.1510979661907168e+00 +0.0000000000000000e+00 -8.1999997058751859e+00 -2.9942573455802549e-02 -5.6437268028626730e-01 +5.6307418267140617e-03
-8.2999999999999865e+00 +8.1510512921463238e+00 +0.0000000000000000e+00 -8.2999996949827199e+00 -2.9942751895688811e-02 -5.6437308174177980e-01 +5.6308725672443828e-03
-8.3999999999999861e+00 +8.1510040523492790e+00 +0.0000000000000000e+00 -8.3999996838245945e+00 -2.9942932186471934e-02 -5.6437349951512250e-01 +5.6310048280679191e-03
-8.4999999999999858e+00 +8.1509562467991650e+00 +0.0000000000000000e+00 -8.4999996723976068e+00 -2.9943113371953840e-02 -5.6437393237193423e-01 +5.6311384583513629e-03
-8.5999999999999854e+00 +8.1509078754955500e+00 +0.0000000000000000e+00 -8.5999996606985576e+00 -2.9943294495874535e-02 -5.6437437907791488e-01 +5.6312733072658256e-03
-8.6999999999999851e+00 +8.1508589384379864e+00 +0.0000000000000000e+00 -8.6999996487242459e+00 -2.9943474601910096e-02 -5.6437483839882729e-01 +5.6314092239869995e-03
-8.7999999999999847e+00 +8.1508094356260177e+00 +0.0000000000000000e+00 -8.7999996364714690e+00 -2.9943652733670632e-02 -5.6437530910049938e-01 +5.6315460576953393e-03
-8.8999999999999844e+00 +8.1507593670591731e+00 +0.0000000000000000e+00 -8.8999996239370276e+00 -2.9943827934698242e-02 -5.6437578994882442e-01 +5.6316836575762159e-03
-8.9999999999999840e+00 +8.1507087327369714e+00 +0.0000000000000000e+00 -8.9999996111177207e+00 -2.9943999248465063e-02 -5.6437627970976501e-01 +5.6318218728200952e-03
-9.0999999999999837e+00 +8.1506575326589239e+00 +0.0000000000000000e+00 -9.0999995980103456e+00 -2.9944165718371170e-02 -5.6437677714935208e-01 +5.6319605526227055e-03
-9.1999999999999833e+00 +8.1506057668245333e+00 +0.0000000000000000e+00 -9.1999995846117031e+00 -2.9944326387742595e-02 -5.6437728103368945e-01 +5.6320995461852062e-03
-9.2999999999999829e+00 +8.1505534352332969e+00 +0.0000000000000000e+00 -9.2999995709185921e+00 -2.9944480299829289e-02 -5.6437779012895350e-01 +5.6322387027143584e-03
-9.3999999999999826e+00 +8.1505005378847049e+00 +0.0000000000000000e+00 -9.3999995569278099e+00 -2.9944626497803120e-02 -5.6437830320139526e-01 +5.6323778714226953e-03
-9.4999999999999822e+00 +8.1504470747782456e+00 +0.0000000000000000e+00 -9.4999995426361572e+00 -2.9944764024755852e-02 -5.6437881901734344e-01 +5.6325169015286882e-03
-9.5999999999999819e+00 +8.1503930459134040e+00 +0.0000000000000000e+00 -9.5999995280404313e+00 -2.9944891923697096e-02 -5.6437933634320336e-01 +5.6326556422569181e-03
-9.6999999999999815e+00 +8.1503384512896631e+00 +0.0000000000000000e+00 -9.6999995131374313e+00 -2.9945009237552316e-02 -5.6437985394546220e-01 +5.6327939428382516e-03
-9.7999999999999812e+00 +8.1502832909065059e+00 +0.0000000000000000e+00 -9.7999994979239577e+00 -2.9945115009160788e-02 -5.6438037059068791e-01 +5.6329316525099947e-03
-9.8999999999999808e+00 +8.1502275647634175e+00 +0.0000000000000000e+00 -9.8999994823968080e+00 -2.9945208281273637e-02 -5.6438088504553185e-01 +5.6330686205160827e-03
-9.9999999999999805e+00 +8.1501712728598825e+00 +0.0000000000000000e+00 -9.9999994665527812e+00 -2.9945288096551715e-02 -5.6438139607673166e-01 +5.6332046961072415e-03
-1.0099999999999980e+01 +8.1501144151953913e+00 +0.0000000000000000e+00 -1.0099999450388676e+01 -2.9945353761104555e-02 -5.6438190267124100e-01 +5.6333397651921399e-03
-1.0199999999999980e+01 +8.1500569917694374e+00 +0.0000000000000000e+00 -1.0199999433901292e+01 -2.9945405635175629e-02 -5.6438240469656220e-01 +5.6334738602906269e-03
-1.0299999999999979e+01 +8.1499990025815183e+00 +0.0000000000000000e+00 -1.0299999417087427e+01 -2.9945444342594420e-02 -5.6438290224021914e-01 +5.6336070505756805e-03
-1.0399999999999979e+01 +8.1499404476311383e+00 +0.0000000000000000e+00 -1.0399999399943882e+01 -2.9945470507240366e-02 -5.6438339538959803e-01 +5.6337394052206891e-03
-1.0499999999999979e+01 +8.1498813269178054e+00 +0.0000000000000000e+00 -1.0499999382467452e+01 -2.9945484753044392e-02 -5.6438388423194286e-01 +5.6338709933994591e-03
-1.0599999999999978e+01 +8.1498216404410311e+00 +0.0000000000000000e+00 -1.0599999364654940e+01 -2.9945487703990383e-02 -5.6438436885435272e-01 +5.6340018842862029e-03
-1.0699999999999978e+01 +8.1497613882003321e+00 +0.0000000000000000e+00 -1.0699999346503143e+01 -2.9945479984116698e-02 -5.6438484934377808e-01 +5.6341321470555440e-03
-1.0799999999999978e+01 +8.1497005701952272e+00 +0.0000000000000000e+00 -1.0799999328008859e+01 -2.9945462217517663e-02 -5.6438532578701561e-01 +5.6342618508825092e-03
-1.0899999999999977e+01 +8.1496391864252420e+00 +0.0000000000000000e+00 -1.0899999309168887e+01 -2.9945435028345027e-02 -5.6438579827070601e-01 +5.6343910649425356e-03
-1.0999999999999977e+01 +8.1495772368899040e+00 +0.0000000000000000e+00 -1.0999999289980027e+01 -2.9945399040809572e-02 -5.6438626688132965e-01 +5.6345198584114671e-03
-1.1099999999999977e+01 +8.1495147215887460e+00 +0.0000000000000000e+00 -1.1099999270439076e+01 -2.9945354879182453e-02 -5.6438673170520270e-01 +5.6346483004655465e-03
-1.1199999999999976e+01 +8.1494516405213027e+00 +0.0000000000000000e+00 -1.1199999250542835e+01 -2.9945303167796838e-02 -5.6438719282847394e-01 +5.6347764602814191e-03
-1.1299999999999976e+01 +8.1493879936871156e+00 +0.0000000000000000e+00 -1.1299999230288101e+01 -2.9945244531049301e-02 -5.6438765033712002e-01 +5.6349044070361344e-03
-1.1399999999999975e+01 +8.1493237810857266e+00 +0.0000000000000000e+00 -1.1399999209671675e+01 -2.9945179593401403e-02 -5.6438810431694253e-01 +5.6350322099071376e-03
-1.1499999999999975e+01 +8.1492590027166845e+00 +0.0000000000000000e+00 -1.1499999188690353e+01 -2.9945108979381102e-02 -5.6438855485356421e-01 +5.6351599380722690e-03
-1.1599999999999975e+01 +8.1491936585795379e+00 +0.0000000000000000e+00 -1.1599999167340936e+01 -2.9945033313584293e-02 -5.6438900203242492e-01 +5.6352876607097683e-03
-1.1699999999999974e+01 +8.1491277486738412e+00 +0.0000000000000000e+00 -1.1699999145620222e+01 -2.9944953220676307e-02 -5.6438944593877804e-01 +5.6354154469982643e-03
