# field on trajectory
# s[mm] rx[mm] ry[mm] rz[mm] bx[T] by[T] bz[T]
0.0000000000000000e+00 +8.1530000000000005e+00 +0.0000000000000000e+00 +0.0000000000000000e+00 -3.2431321881781779e-02 -5.9266008164009809e-01 +5.8855411894511737e-03
1.0000000000000001e-01 +8.1529997163961507e+00 +0.0000000000000000e+00 +9.9999999999463796e-02 -3.2431394848055697e-02 -5.9266000647709305e-01 +5.8855862802730807e-03
2.0000000000000001e-01 +8.1529988655856904e+00 +0.0000000000000000e+00 +1.9999999999571000e-01 -3.2431464176482835e-02 -5.9265993802074712e-01 +5.8856326982278471e-03
2.9999999999999999e-01 +8.1529974475670297e+00 +0.0000000000000000e+00 +2.9999999998552201e-01 -3.2431530650524981e-02 -5.9265987612481175e-01 +5.8856805306046842e-03
4.0000000000000002e-01 +8.1529954623438208e+00 +0.0000000000000000e+00 +3.9999999996568297e-01 -3.2431595053636068e-02 -5.9265982064298917e-01 +5.8857298646907965e-03
5.0000000000000000e-01 +8.1529929099124292e+00 +0.0000000000000000e+00 +4.9999999993297400e-01 -3.2431658169268476e-02 -5.9265977142903525e-01 +5.8857807877726832e-03
5.9999999999999998e-01 +8.1529897902728408e+00 +0.0000000000000000e+00 +5.9999999988417896e-01 -3.2431720780869339e-02 -5.9265972833667324e-01 +5.8858333871355311e-03
6.9999999999999996e-01 +8.1529861034287006e+00 +0.0000000000000000e+00 +6.9999999981608096e-01 -3.2431783671881431e-02 -5.9265969121959317e-01 +5.8858877500634846e-03
8.0000000000000004e-01 +8.1529818493763706e+00 +0.0000000000000000e+00 +7.9999999972546199e-01 -3.2431847625748751e-02 -5.9265965993154290e-01 +5.8859439638408390e-03
9.0000000000000002e-01 +8.1529770281158598e+00 +0.0000000000000000e+00 +8.9999999960910604e-01 -3.2431913425912749e-02 -5.9265963432624047e-01 +5.8860021157514106e-03
1.0000000000000000e+00 +8.1529716396507901e+00 +0.0000000000000000e+00 +9.9999999946379403e-01 -3.2431981855813356e-02 -5.9265961425737446e-01 +5.8860622930788226e-03
1.1000000000000001e+00 +8.1529656839775306e+00 +0.0000000000000000e+00 +1.0999999992863101e+00 -3.2432053698894459e-02 -5.9265959957869541e-01 +5.8861245831076893e-03
1.2000000000000000e+00 +8.1529591610960797e+00 +0.0000000000000000e+00 +1.1999999990734400e+00 -3.2432129738600213e-02 -5.9265959014392688e-01 +5.8861890731229920e-03
1.3000000000000000e+00 +8.1529520710100805e+00 +0.0000000000000000e+00 +1.2999999988219599e+00 -3.2432210758375962e-02 -5.9265958580676692e-01 +5.8862558504103523e-03
1.3999999999999999e+00 +8.1529444137122500e+00 +0.0000000000000000e+00 +1.3999999985286500e+00 -3.2432297541675328e-02 -5.9265958642100847e-01 +5.8863250022575340e-03
1.5000000000000000e+00 +8.1529361892135093e+00 +0.0000000000000000e+00 +1.4999999981903001e+00 -3.2432390871948887e-02 -5.9265959184030303e-01 +5.8863966159523069e-03
1.6000000000000001e+00 +8.1529273975065699e+00 +0.0000000000000000e+00 +1.5999999978037001e+00 -3.2432491532660333e-02 -5.9265960191845757e-01 +5.8864707787857368e-03
1.7000000000000000e+00 +8.1529180385914497e+00 +0.0000000000000000e+00 +1.6999999973656199e+00 -3.2432600307276745e-02 -5.9265961650922938e-01 +5.8865475780503522e-03
1.8000000000000000e+00 +8.1529081124681397e+00 +0.0000000000000000e+00 +1.7999999968728499e+00 -3.2432717979272545e-02 -5.9265963546638556e-01 +5.8866271010410507e-03
1.8999999999999999e+00 +8.1528976191402798e+00 +0.0000000000000000e+00 +1.8999999963221601e+00 -3.2432845332128965e-02 -5.9265965864367565e-01 +5.8867094350550497e-03
2.0000000000000000e+00 +8.1528865586042194e+00 +0.0000000000000000e+00 +1.9999999957103500e+00 -3.2432983149339407e-02 -5.9265968589492046e-01 +5.8867946673930938e-03
2.1000000000000001e+00 +8.1528749308599799e+00 +0.0000000000000000e+00 +2.0999999950341901e+00 -3.2433131948592257e-02 -5.9265971704769260e-01 +5.8868828694060545e-03
2.2000000000000002e+00 +8.1528627359111905e+00 +0.0000000000000000e+00 +2.1999999942904802e+00 -3.2433291184328861e-02 -5.9265975182461428e-01 +5.8869740486360263e-03
2.2999999999999998e+00 +8.1528499737542006e+00 +0.0000000000000000e+00 +2.2999999934759798e+00 -3.2433460045186678e-02 -5.9265978992213986e-01 +5.8870681966741055e-03
2.3999999999999999e+00 +8.1528366443890299e+00 +0.0000000000000000e+00 +2.3999999925874800e+00 -3.2433637719808478e-02 -5.9265983103669861e-01 +5.8871653051120274e-03
2.5000000000000000e+00 +8.1528227478193003e+00 +0.0000000000000000e+00 +2.4999999916217801e+00 -3.2433823396842462e-02 -5.9265987486469596e-01 +5.8872653655421226e-03
2.6000000000000001e+00 +8.1528082840413791e+00 +0.0000000000000000e+00 +2.5999999905756401e+00 -3.2434016264947331e-02 -5.9265992110260013e-01 +5.8873683695582100e-03
2.7000000000000002e+00 +8.1527932530552807e+00 +0.0000000000000000e+00 +2.6999999894458502e+00 -3.2434215512787891e-02 -5.9265996944685451e-01 +5.8874743087546384e-03
2.7999999999999998e+00 +8.1527776548646198e+00 +0.0000000000000000e+00 +2.7999999882291999e+00 -3.2434420329035402e-02 -5.9266001959387893e-01 +5.8875831747262838e-03
2.8999999999999999e+00 +8.1527614894657692e+00 +0.0000000000000000e+00 +2.8999999869224702e+00 -3.2434629902372510e-02 -5.9266007124015507e-01 +5.8876949590694018e-03
3.0000000000000000e+00 +8.1527447568587394e+00 +0.0000000000000000e+00 +2.9999999855224302e+00 -3.2434843421488870e-02 -5.9266012408214075e-01 +5.8878096533807071e-03
3.1000000000000001e+00 +8.1527274570471508e+00 +0.0000000000000000e+00 +3.0999999840258798e+00 -3.2435060075081582e-02 -5.9266017781626823e-01 +5.8879272492573416e-03
3.2000000000000002e+00 +8.1527095900273707e+00 +0.0000000000000000e+00 +3.1999999824295902e+00 -3.2435279051860000e-02 -5.9266023213903307e-01 +5.8880477382977428e-03
3.2999999999999998e+00 +8.1526911557994008e+00 +0.0000000000000000e+00 +3.2999999807303602e+00 -3.2435499540541472e-02 -5.9266028674690563e-01 +5.8881711121007169e-03
3.3999999999999999e+00 +8.1526721543668792e+00 +0.0000000000000000e+00 +3.3999999789249502e+00 -3.2435720729851673e-02 -5.9266034133633150e-01 +5.8882973622654093e-03
3.5000000000000000e+00 +8.1526525857261696e+00 +0.0000000000000000e+00 +3.4999999770101602e+00 -3.2435941808529468e-02 -5.9266039560381889e-01 +5.8884264803921700e-03
3.6000000000000001e+00 +8.1526324498772702e+00 +0.0000000000000000e+00 +3.5999999749827598e+00 -3.2436161965322688e-02 -5.9266044924585082e-01 +5.8885584580816337e-03
3.7000000000000002e+00 +8.1526117468238208e+00 +0.0000000000000000e+00 +3.6999999728395401e+00 -3.2436380388988370e-02 -5.9266050195888464e-01 +5.8886932869346821e-03
3.7999999999999998e+00 +8.1525904765621799e+00 +0.0000000000000000e+00 +3.7999999705772902e+00 -3.2436596268297757e-02 -5.9266055343944113e-01 +5.8888309585533203e-03
3.8999999999999999e+00 +8.1525686390959908e+00 +0.0000000000000000e+00 +3.8999999681927799e+00 -3.2436808792030342e-02 -5.9266060338398552e-01 +5.8889714645394336e-03
4.0000000000000000e+00 +8.1525462344179704e+00 +0.0000000000000000e+00 +3.9999999656827998e+00 -3.2437017148981992e-02 -5.9266065148907554e-01 +5.8891147964962864e-03
4.0999999999999996e+00 +8.1525232625354001e+00 +0.0000000000000000e+00 +4.0999999630441302e+00 -3.2437220747206431e-02 -5.9266069769759833e-01 +5.8892609217162896e-03
4.2000000000000002e+00 +8.1524997234482708e+00 +0.0000000000000000e+00 +4.1999999602735496e+00 -3.2437419871770456e-02 -5.9266074293827220e-01 +5.8894097102514817e-03
4.2999999999999998e+00 +8.1524756171529607e+00 +0.0000000000000000e+00 +4.2999999573678496e+00 -3.2437615026975633e-02 -5.9266078838628644e-01 +5.8895610078415692e-03
4.4000000000000004e+00 +8.1524509436494608e+00 +0.0000000000000000e+00 +4.3999999543238104e+00 -3.2437806717098318e-02 -5.9266083521679647e-01 +5.8897146602230133e-03
4.5000000000000000e+00 +8.1524257029377605e+00 +0.0000000000000000e+00 +4.4999999511382098e+00 -3.2437995446389478e-02 -5.9266088460495259e-01 +5.8898705131290733e-03
4.5999999999999996e+00 +8.1523998950215208e+00 +0.0000000000000000e+00 +4.5999999478078299e+00 -3.2438181719071417e-02 -5.9266093772586947e-01 +5.8900284122893262e-03
4.7000000000000002e+00 +8.1523735198970808e+00 +0.0000000000000000e+00 +4.6999999443294600e+00 -3.2438366039340728e-02 -5.9266099575471665e-01 +5.8901882034303509e-03
4.7999999999999998e+00 +8.1523465775644599e+00 +0.0000000000000000e+00 +4.7999999406998803e+00 -3.2438548911361817e-02 -5.9266105986662676e-01 +5.8903497322745999e-03
4.9000000000000004e+00 +8.1523190680272801e+00 +0.0000000000000000e+00 +4.8999999369158704e+00 -3.2438730839265309e-02 -5.9266113123669673e-01 +5.8905128445401952e-03
5.0000000000000000e+00 +8.1522909912819195e+00 +0.0000000000000000e+00 +4.9999999329742204e+00 -3.2438912327150897e-02 -5.9266121104007508e-01 +5.8906773859416228e-03
5.0999999999999996e+00 +8.1522623473319999e+00 +0.0000000000000000e+00 +5.0999999288717000e+00 -3.2439093879079409e-02 -5.9266130045184262e-01 +5.8908432021882980e-03
5.2000000000000002e+00 +8.1522331361738907e+00 +0.0000000000000000e+00 +5.1999999246051098e+00 -3.2439275999077311e-02 -5.9266140064713224e-01 +5.8910101389855769e-03
5.2999999999999998e+00 +8.1522033578075899e+00 +0.0000000000000000e+00 +5.2999999201712198e+00 -3.2439459191130338e-02 -5.9266151280103718e-01 +5.8911780420336235e-03
5.4000000000000004e+00 +8.1521730122331100e+00 +0.0000000000000000e+00 +5.3999999155668199e+00 -3.2439643959183244e-02 -5.9266163808864225e-01 +5.8913467570275088e-03
5.5000000000000000e+00 +8.1521420994540694e+00 +0.0000000000000000e+00 +5.4999999107886799e+00 -3.2439830807136666e-02 -5.9266177768499273e-01 +5.8915161296566876e-03
5.5999999999999996e+00 +8.1521106194668391e+00 +0.0000000000000000e+00 +5.5999999058335996e+00 -3.2440020238849877e-02 -5.9266193276518209e-01 +5.8916860056056966e-03
5.7000000000000002e+00 +8.1520785722750606e+00 +0.0000000000000000e+00 +5.6999999006983604e+00 -3.2440212758132983e-02 -5.9266210450423440e-01 +5.8918562305527323e-03
5.7999999999999998e+00 +8.1520459578750906e+00 +0.0000000000000000e+00 +5.7999998953797300e+00 -3.2440408868751339e-02 -5.9266229407722093e-01 +5.8920266501706403e-03
5.9000000000000004e+00 +8.1520127762669308e+00 +0.0000000000000000e+00 +5.8999998898744996e+00 -3.2440609074419188e-02 -5.9266250265917197e-01 +5.8921971101258096e-03
5.9999999999999902e+00 +8.1519790274505795e+00 +0.0000000000000000e+00 +5.9999998841794504e+00 -3.2440813878799483e-02 -5.9266273142510550e-01 +5.8923674560782411e-03
6.0999999999999899e+00 +8.1519447114296799e+00 +0.0000000000000000e+00 +6.0999998782913698e+00 -3.2441023556047902e-02 -5.9266298108136328e-01 +5.8925375602746832e-03
6.1999999999999904e+00 +8.1519098282005906e+00 +0.0000000000000000e+00 +6.1999998722070400e+00 -3.2441237462484673e-02 -5.9266325045979962e-01 +5.8927074013334730e-03
6.2999999999999901e+00 +8.1518743777669407e+00 +0.0000000000000000e+00 +6.2999998659232403e+00 -3.2441454725000159e-02 -5.9266353792356641e-01 +5.8928769844672092e-03
6.3999999999999897e+00 +8.1518383601214701e+00 +0.0000000000000000e+00 +6.3999998594367504e+00 -3.2441674470526004e-02 -5.9266384183589904e-01 +5.8930463148912978e-03
6.4999999999999902e+00 +8.1518017752750893e+00 +0.0000000000000000e+00 +6.4999998527443603e+00 -3.2441895826024865e-02 -5.9266416055987969e-01 +5.8932153978216630e-03
6.5999999999999899e+00 +8.1517646232205205e+00 +0.0000000000000000e+00 +6.5999998458428504e+00 -3.2442117918507589e-02 -5.9266449245873198e-01 +5.8933842384779151e-03
6.6999999999999904e+00 +8.1517269039541098e+00 +0.0000000000000000e+00 +6.6999998387290001e+00 -3.2442339875026031e-02 -5.9266483589564412e-01 +5.8935528420816733e-03
6.7999999999999901e+00 +8.1516886174867995e+00 +0.0000000000000000e+00 +6.7999998313996004e+00 -3.2442560822670295e-02 -5.9266518923368006e-01 +5.8937212138557927e-03
6.8999999999999897e+00 +8.1516497638112906e+00 +0.0000000000000000e+00 +6.8999998238514202e+00 -3.2442779888584503e-02 -5.9266555083604444e-01 +5.8938893590272318e-03
6.9999999999999902e+00 +8.1516103429239593e+00 +0.0000000000000000e+00 +6.9999998160812602e+00 -3.2442996199959551e-02 -5.9266591906590671e-01 +5.8940572828253702e-03
7.0999999999999899e+00 +8.1515703548320708e+00 +0.0000000000000000e+00 +7.0999998080858804e+00 -3.2443208884031884e-02 -5.9266629228634060e-01 +5.8942249904815466e-03
7.1999999999999904e+00 +8.1515297995356395e+00 +0.0000000000000000e+00 +7.1999997998620904e+00 -3.2443417068093200e-02 -5.9266666886047192e-01 +5.8943924872307107e-03
7.2999999999999901e+00 +8.1514886770310095e+00 +0.0000000000000000e+00 +7.2999997914066501e+00 -3.2443619879490758e-02 -5.9266704715144902e-01 +5.8945597783112477e-03
7.3999999999999897e+00 +8.1514469873182005e+00 +0.0000000000000000e+00 +7.3999997827163604e+00 -3.2443816445626265e-02 -5.9266742552238372e-01 +5.8947268689645404e-03
7.4999999999999902e+00 +8.1514047304008308e+00 +0.0000000000000000e+00 +7.4999997737879900e+00 -3.2444005893957878e-02 -5.9266780233635163e-01 +5.8948937644350777e-03
7.5999999999999899e+00 +8.1513619062752696e+00 +0.0000000000000000e+00 +7.5999997646183202e+00 -3.2444187352006583e-02 -5.9266817595647847e-01 +5.8950604699715111e-03
7.6999999999999904e+00 +8.1513185149451601e+00 +0.0000000000000000e+00 +7.6999997552041499e+00 -3.2444359947352161e-02 -5.9266854474582431e-01 +5.8952269908255960e-03
7.7999999999999901e+00 +8.1512745564032194e+00 +0.0000000000000000e+00 +7.7999997455422498e+00 -3.2444522807642637e-02 -5.9266890706753050e-01 +5.8953933322538291e-03
7.8999999999999897e+00 +8.1512300306567305e+00 +0.0000000000000000e+00 +7.8999997356294100e+00 -3.2444675060585584e-02 -5.9266926128461106e-01 +5.8955594995154740e-03
7.9999999999999902e+00 +8.1511849377056897e+00 +0.0000000000000000e+00 +7.9999997254624002e+00 -3.2444815833959209e-02 -5.9266960576013228e-01 +5.8957254978745247e-03
8.0999999999999908e+00 +8.1511392775464593e+00 +0.0000000000000000e+00 +8.0999997150380096e+00 -3.2444944593276175e-02 -5.9266993928554335e-01 +5.8958913374309013e-03
8.1999999999999904e+00 +8.1510930501790408e+00 +0.0000000000000000e+00 +8.1999997043530293e+00 -3.2445062154749321e-02 -5.9267026236572262e-01 +5.8960570476132542e-03
8.2999999999999901e+00 +8.1510462556034309e+00 +0.0000000000000000e+00 +8.2999996934042404e+00 -3.2445169672237116e-02 -5.9267057593391548e-01 +5.8962226626832369e-03
8.3999999999999897e+00 +8.1509988938232691e+00 +0.0000000000000000e+00 +8.3999996821884100e+00 -3.2445268299563464e-02 -5.9267088092333697e-01 +5.8963882169035826e-03
8.4999999999999893e+00 +8.1509509648349194e+00 +0.0000000000000000e+00 +8.4999996707023406e+00 -3.2445359190521009e-02 -5.9267117826725835e-01 +5.8965537445389909e-03
8.5999999999999908e+00 +8.1509024686420197e+00 +0.0000000000000000e+00 +8.5999996589427994e+00 -3.2445443498863753e-02 -5.9267146889889089e-01 +5.8967192798550054e-03
8.6999999999999904e+00 +8.1508534052409196e+00 +0.0000000000000000e+00 +8.6999996469065692e+00 -3.2445522378311879e-02 -5.9267175375150283e-01 +5.8968848571192313e-03
8.7999999999999794e+00 +8.1508037746316404e+00 +0.0000000000000000e+00 +8.7999996345904599e+00 -3.2445596982545982e-02 -5.9267203375833177e-01 +5.8970505106004847e-03
8.8999999999999808e+00 +8.1507535768178094e+00 +0.0000000000000000e+00 +8.8999996219912205e+00 -3.2445668465205746e-02 -5.9267230985258446e-01 +5.8972162745688228e-03
8.9999999999999805e+00 +8.1507028117957798e+00 +0.0000000000000000e+00 +8.9999996091056396e+00 -3.2445737979893308e-02 -5.9267258296752434e-01 +5.8973821832964948e-03
9.0999999999999801e+00 +8.1506514795655693e+00 +0.0000000000000000e+00 +9.0999995959305195e+00 -3.2445806680167430e-02 -5.9267285403638437e-01 +5.8975482710570647e-03
9.1999999999999797e+00 +8.1505995801308000e+00 +0.0000000000000000e+00 +9.1999995824626293e+00 -3.2445875719542196e-02 -5.9267312399236705e-01 +5.8977145721254703e-03
9.2999999999999794e+00 +8.1505471134878498e+00 +0.0000000000000000e+00 +9.2999995686987500e+00 -3.2445946251490360e-02 -5.9267339376873163e-01 +5.8978811207789352e-03
9.3999999999999808e+00 +8.1504940796366991e+00 +0.0000000000000000e+00 +9.3999995546356701e+00 -3.2446019429437561e-02 -5.9267366429870738e-01 +5.8980479512961374e-03
9.4999999999999805e+00 +8.1504404785773694e+00 +0.0000000000000000e+00 +9.4999995402701707e+00 -3.2446096406762485e-02 -5.9267393651552147e-01 +5.8982150979575206e-03
9.5999999999999801e+00 +8.1503863103171206e+00 +0.0000000000000000e+00 +9.5999995255990296e+00 -3.2446178336792648e-02 -5.9267421135234200e-01 +5.8983825950447467e-03
9.6999999999999797e+00 +8.1503315748450404e+00 +0.0000000000000000e+00 +9.6999995106190298e+00 -3.2446266372813809e-02 -5.9267448974248127e-01 +5.8985504768428315e-03
9.7999999999999794e+00 +8.1502762721684103e+00 +0.0000000000000000e+00 +9.7999994953269702e+00 -3.2446361668053425e-02 -5.9267477261910539e-01 +5.8987187776371871e-03
9.8999999999999808e+00 +8.1502204022835905e+00 +0.0000000000000000e+00 +9.8999994797196091e+00 -3.2446465375691597e-02 -5.9267506091546596e-01 +5.8988875317160412e-03
9.9999999999999805e+00 +8.1501639651905897e+00 +0.0000000000000000e+00 +9.9999994637937508e+00 -3.2446578648853794e-02 -5.9267535556478457e-01 +5.8990567733692972e-03
1.0100000000000000e+01 +8.1501069608966592e+00 +0.0000000000000000e+00 +1.0099999447546200e+01 -3.2446702266049669e-02 -5.9267565733619865e-01 +5.8992265333846121e-03
1.0199999999999999e+01 +8.1500493893909205e+00 +0.0000000000000000e+00 +1.0199999430973600e+01 -3.2446835507503352e-02 -5.9267596634287656e-01 +5.8993968285379651e-03
1.0300000000000001e+01 +8.1499912506769796e+00 +0.0000000000000000e+00 +1.0299999414073000e+01 -3.2446977278860402e-02 -5.9267628253382232e-01 +5.8995676721013178e-03
1.0400000000000000e+01 +8.1499325447584905e+00 +0.0000000000000000e+00 +1.0399999396840901e+01 -3.2447126485769244e-02 -5.9267660585802162e-01 +5.8997390773474698e-03
1.0500000000000000e+01 +8.1498732716317992e+00 +0.0000000000000000e+00 +1.0499999379274200e+01 -3.2447282033884431e-02 -5.9267693626449947e-01 +5.8999110575506854e-03
1.0600000000000000e+01 +8.1498134313005703e+00 +0.0000000000000000e+00 +1.0599999361369800e+01 -3.2447442828860702e-02 -5.9267727370220269e-01 +5.9000836259854948e-03
1.0699999999999999e+01 +8.1497530237611500e+00 +0.0000000000000000e+00 +1.0699999343124301e+01 -3.2447607776359341e-02 -5.9267761812011754e-01 +5.9002567959278995e-03
1.0800000000000001e+01 +8.1496920490171796e+00 +0.0000000000000000e+00 +1.0799999324534600e+01 -3.2447775782042172e-02 -5.9267796946715079e-01 +5.9004305806541826e-03
1.0900000000000000e+01 +8.1496305070650106e+00 +0.0000000000000000e+00 +1.0899999305597399e+01 -3.2447945751577903e-02 -5.9267832769224782e-01 +5.9006049934421292e-03
1.1000000000000000e+01 +8.1495683979046607e+00 +0.0000000000000000e+00 +1.0999999286309500e+01 -3.2448116590637656e-02 -5.9267869274430340e-01 +5.9007800475701123e-03
1.1100000000000000e+01 +8.1495057215361193e+00 +0.0000000000000000e+00 +1.1099999266667700e+01 -3.2448287204896807e-02 -5.9267906457219111e-01 +5.9009557563174256e-03
1.1199999999999999e+01 +8.1494424779630208e+00 +0.0000000000000000e+00 +1.1199999246668799e+01 -3.2448456500033473e-02 -5.9267944312473331e-01 +5.9011321329639696e-03
1.1300000000000001e+01 +8.1493786671817396e+00 +0.0000000000000000e+00 +1.1299999226309600e+01 -3.2448623381733467e-02 -5.9267982835078947e-01 +5.9013091907911784e-03
1.1400000000000000e+01 +8.1493142891922599e+00 +0.0000000000000000e+00 +1.1399999205586900e+01 -3.2448786755685681e-02 -5.9268022019916655e-01 +5.9014869430811245e-03
1.1500000000000000e+01 +8.1492493440018698e+00 +0.0000000000000000e+00 +1.1499999184497300e+01 -3.2448945527580916e-02 -5.9268061861859078e-01 +5.9016654031162118e-03
1.1600000000000000e+01 +8.1491838315996592e+00 +0.0000000000000000e+00 +1.1599999163037801e+01 -3.2449098603122672e-02 -5.9268102355791152e-01 +5.9018445841813082e-03
1.1699999999999999e+01 +8.1491177519928897e+00 +0.0000000000000000e+00 +1.1699999141205099e+01 -3.2449244888012069e-02 -5.9268143496580827e-01 +5.9020244995607440e-03
1.1800000000000001e+01 +8.1490511051779304e+00 +0.0000000000000000e+00 +1.1799999118996000e+01 -3.2449383287960223e-02 -5.9268185279102381e-01 +5.9022051625407098e-03
