# trajectory
# s[mm] rx[mm] ry[mm] rz[mm] px[rad] py[rad] pz[rad]
0.0000000000000000e+00 +7.9199999999999999e+00 +0.0000000000000000e+00 +0.0000000000000000e+00 +0.0000000000000000e+00 +0.0000000000000000e+00 +1.0000000000000000e+00
1.0000000000000001e-01 +7.9199997170296452e+00 +0.0000000000000000e+00 +9.9999999999466169e-02 -5.6594069859597805e-06 +0.0000000000000000e+00 +9.9999999998398559e-01
2.0000000000000001e-01 +7.9199988681186211e+00 +0.0000000000000000e+00 +1.9999999999572948e-01 -1.1318813403916819e-05 +0.0000000000000000e+00 +9.9999999993594224e-01
3.0000000000000004e-01 +7.9199974532669808e+00 +0.0000000000000000e+00 +2.9999999998558702e-01 -1.6978219332527132e-05 +0.0000000000000000e+00 +9.9999999985587007e-01
4.0000000000000002e-01 +7.9199954724747688e+00 +0.0000000000000000e+00 +3.9999999996583591e-01 -2.2637624848203913e-05 +0.0000000000000000e+00 +9.9999999974376896e-01
5.0000000000000000e-01 +7.9199929257420223e+00 +0.0000000000000000e+00 +4.9999999993327321e-01 -2.8297030025117694e-05 +0.0000000000000000e+00 +9.9999999959963903e-01
5.9999999999999998e-01 +7.9199898130687725e+00 +0.0000000000000000e+00 +5.9999999988469610e-01 -3.3956434935196465e-05 +0.0000000000000000e+00 +9.9999999942348028e-01
6.9999999999999996e-01 +7.9199861344550415e+00 +0.0000000000000000e+00 +6.9999999981690164e-01 -3.9615839648125807e-05 +0.0000000000000000e+00 +9.9999999921529259e-01
7.9999999999999993e-01 +7.9199818899008472e+00 +0.0000000000000000e+00 +7.9999999972668701e-01 -4.5275244231348954e-05 +0.0000000000000000e+00 +9.9999999897507608e-01
8.9999999999999991e-01 +7.9199770794061974e+00 +0.0000000000000000e+00 +8.9999999961084920e-01 -5.0934648750066889e-05 +0.0000000000000000e+00 +9.9999999870283074e-01
9.9999999999999989e-01 +7.9199717029710968e+00 +0.0000000000000000e+00 +9.9999999946618545e-01 -5.6594053267238386e-05 +0.0000000000000000e+00 +9.9999999839855658e-01
1.0999999999999999e+00 +7.9199657605955416e+00 +0.0000000000000000e+00 +1.0999999992894929e+00 -6.2253457843580026e-05 +0.0000000000000000e+00 +9.9999999806225348e-01
1.2000000000000000e+00 +7.9199592522795239e+00 +0.0000000000000000e+00 +1.1999999990775685e+00 -6.7912862537566242e-05 +0.0000000000000000e+00 +9.9999999769392156e-01
1.3000000000000000e+00 +7.9199521780230286e+00 +0.0000000000000000e+00 +1.2999999988272095e+00 -7.3572267405429254e-05 +0.0000000000000000e+00 +9.9999999729356071e-01
1.4000000000000001e+00 +7.9199445378260354e+00 +0.0000000000000000e+00 +1.3999999985352130e+00 -7.9231672501159091e-05 +0.0000000000000000e+00 +9.9999999686117103e-01
1.5000000000000002e+00 +7.9199363316885192e+00 +0.0000000000000000e+00 +1.4999999981983760e+00 -8.4891077876503488e-05 +0.0000000000000000e+00 +9.9999999639675241e-01
1.6000000000000003e+00 +7.9199275596104490e+00 +0.0000000000000000e+00 +1.5999999978134958e+00 -9.0550483580967864e-05 +0.0000000000000000e+00 +9.9999999590030497e-01
1.7000000000000004e+00 +7.9199182215917903e+00 +0.0000000000000000e+00 +1.6999999973773694e+00 -9.6209889661815178e-05 +0.0000000000000000e+00 +9.9999999537182860e-01
1.8000000000000005e+00 +7.9199083176325029e+00 +0.0000000000000000e+00 +1.7999999968867939e+00 -1.0186929616406586e-04 +0.0000000000000000e+00 +9.9999999481132329e-01
1.9000000000000006e+00 +7.9198978477325426e+00 +0.0000000000000000e+00 +1.8999999963385665e+00 -1.0752870313049762e-04 +0.0000000000000000e+00 +9.9999999421878905e-01
2.0000000000000004e+00 +7.9198868118918604e+00 +0.0000000000000000e+00 +1.9999999957294841e+00 -1.1318811060164537e-04 +0.0000000000000000e+00 +9.9999999359422587e-01
2.1000000000000005e+00 +7.9198752101104040e+00 +0.0000000000000000e+00 +2.0999999950563439e+00 -1.1884751861561278e-04 +0.0000000000000000e+00 +9.9999999293763375e-01
2.2000000000000006e+00 +7.9198630423881182e+00 +0.0000000000000000e+00 +2.1999999943159430e+00 -1.2450692720600225e-04 +0.0000000000000000e+00 +9.9999999224901259e-01
2.3000000000000007e+00 +7.9198503087249428e+00 +0.0000000000000000e+00 +2.2999999935050788e+00 -1.3016633639984475e-04 +0.0000000000000000e+00 +9.9999999152836250e-01
2.4000000000000008e+00 +7.9198370091208172e+00 +0.0000000000000000e+00 +2.3999999926205482e+00 -1.3582574621741171e-04 +0.0000000000000000e+00 +9.9999999077568336e-01
2.5000000000000009e+00 +7.9198231435756785e+00 +0.0000000000000000e+00 +2.4999999916591480e+00 -1.4148515667221484e-04 +0.0000000000000000e+00 +9.9999998999097528e-01
2.6000000000000010e+00 +7.9198087120894618e+00 +0.0000000000000000e+00 +2.5999999906176754e+00 -1.4714456777100614e-04 +0.0000000000000000e+00 +9.9999998917423816e-01
2.7000000000000011e+00 +7.9197937146621031e+00 +0.0000000000000000e+00 +2.6999999894929276e+00 -1.5280397951377778e-04 +0.0000000000000000e+00 +9.9999998832547199e-01
2.8000000000000012e+00 +7.9197781512935377e+00 +0.0000000000000000e+00 +2.7999999882817019e+00 -1.5846339189376209e-04 +0.0000000000000000e+00 +9.9999998744467677e-01
2.9000000000000012e+00 +7.9197620219837033e+00 +0.0000000000000000e+00 +2.8999999869807951e+00 -1.6412280489743142e-04 +0.0000000000000000e+00 +9.9999998653185251e-01
3.0000000000000013e+00 +7.9197453267325377e+00 +0.0000000000000000e+00 +2.9999999855870048e+00 -1.6978221850449813e-04 +0.0000000000000000e+00 +9.9999998558699921e-01
3.1000000000000014e+00 +7.9197280655399824e+00 +0.0000000000000000e+00 +3.0999999840971273e+00 -1.7544163268791446e-04 +0.0000000000000000e+00 +9.9999998461011685e-01
3.2000000000000015e+00 +7.9197102384059814e+00 +0.0000000000000000e+00 +3.1999999825079604e+00 -1.8110104741387250e-04 +0.0000000000000000e+00 +9.9999998360120534e-01
3.3000000000000016e+00 +7.9196918453304823e+00 +0.0000000000000000e+00 +3.2999999808163007e+00 -1.8676046264180405e-04 +0.0000000000000000e+00 +9.9999998256026479e-01
3.4000000000000017e+00 +7.9196728863134380e+00 +0.0000000000000000e+00 +3.3999999790189457e+00 -1.9241987832438061e-04 +0.0000000000000000e+00 +9.9999998148729519e-01
3.5000000000000018e+00 +7.9196533613548041e+00 +0.0000000000000000e+00 +3.4999999771126924e+00 -1.9807929440751322e-04 +0.0000000000000000e+00 +9.9999998038229654e-01
3.6000000000000019e+00 +7.9196332704545451e+00 +0.0000000000000000e+00 +3.5999999750943377e+00 -2.0373871083035247e-04 +0.0000000000000000e+00 +9.9999997924526884e-01
3.7000000000000020e+00 +7.9196126136126290e+00 +0.0000000000000000e+00 +3.6999999729606787e+00 -2.0939812752528833e-04 +0.0000000000000000e+00 +9.9999997807621210e-01
3.8000000000000020e+00 +7.9195913908290327e+00 +0.0000000000000000e+00 +3.7999999707085124e+00 -2.1505754441795009e-04 +0.0000000000000000e+00 +9.9999997687512632e-01
3.9000000000000021e+00 +7.9195696021037412e+00 +0.0000000000000000e+00 +3.8999999683346362e+00 -2.2071696142720625e-04 +0.0000000000000000e+00 +9.9999997564201148e-01
4.0000000000000018e+00 +7.9195472474367463e+00 +0.0000000000000000e+00 +3.9999999658358472e+00 -2.2637637846516446e-04 +0.0000000000000000e+00 +9.9999997437686761e-01
4.1000000000000014e+00 +7.9195243268280500e+00 +0.0000000000000000e+00 +4.0999999632089423e+00 -2.3203579543773522e-04 +0.0000000000000000e+00 +9.9999997307969479e-01
4.2000000000000011e+00 +7.9195008402776637e+00 +0.0000000000000000e+00 +4.1999999604507190e+00 -2.3769521225083378e-04 +0.0000000000000000e+00 +9.9999997175049293e-01
4.3000000000000007e+00 +7.9194767877856078e+00 +0.0000000000000000e+00 +4.2999999575579739e+00 -2.4335462881658218e-04 +0.0000000000000000e+00 +9.9999997038926214e-01
4.4000000000000004e+00 +7.9194521693519109e+00 +0.0000000000000000e+00 +4.3999999545275044e+00 -2.4901404505387327e-04 +0.0000000000000000e+00 +9.9999996899600241e-01
4.5000000000000000e+00 +7.9194269849766101e+00 +0.0000000000000000e+00 +4.4999999513561075e+00 -2.5467346088837084e-04 +0.0000000000000000e+00 +9.9999996757071385e-01
4.5999999999999996e+00 +7.9194012346597491e+00 +0.0000000000000000e+00 +4.5999999480405798e+00 -2.6033287625250979e-04 +0.0000000000000000e+00 +9.9999996611339637e-01
4.6999999999999993e+00 +7.9193749184013775e+00 +0.0000000000000000e+00 +4.6999999445777192e+00 -2.6599229108549642e-04 +0.0000000000000000e+00 +9.9999996462405005e-01
4.7999999999999989e+00 +7.9193480362015514e+00 +0.0000000000000000e+00 +4.7999999409643221e+00 -2.7165170533330861e-04 +0.0000000000000000e+00 +9.9999996310267492e-01
4.8999999999999986e+00 +7.9193205880603319e+00 +0.0000000000000000e+00 +4.8999999371971867e+00 -2.7731111894869603e-04 +0.0000000000000000e+00 +9.9999996154927107e-01
4.9999999999999982e+00 +7.9192925739777840e+00 +0.0000000000000000e+00 +4.9999999332731093e+00 -2.8297053189118036e-04 +0.0000000000000000e+00 +9.9999995996383839e-01
5.0999999999999979e+00 +7.9192639939539768e+00 +0.0000000000000000e+00 +5.0999999291888871e+00 -2.8862994412705555e-04 +0.0000000000000000e+00 +9.9999995834637700e-01
5.1999999999999975e+00 +7.9192348479889825e+00 +0.0000000000000000e+00 +5.1999999249413174e+00 -2.9428935562938823e-04 +0.0000000000000000e+00 +9.9999995669688679e-01
5.2999999999999972e+00 +7.9192051360828755e+00 +0.0000000000000000e+00 +5.2999999205271973e+00 -2.9994876637801771e-04 +0.0000000000000000e+00 +9.9999995501536787e-01
5.3999999999999968e+00 +7.9191748582357322e+00 +0.0000000000000000e+00 +5.3999999159433232e+00 -3.0560817635955659e-04 +0.0000000000000000e+00 +9.9999995330182023e-01
5.4999999999999964e+00 +7.9191440144476291e+00 +0.0000000000000000e+00 +5.4999999111864932e+00 -3.1126758556739085e-04 +0.0000000000000000e+00 +9.9999995155624399e-01
5.5999999999999961e+00 +7.9191126047186442e+00 +0.0000000000000000e+00 +5.5999999062535046e+00 -3.1692699400168026e-04 +0.0000000000000000e+00 +9.9999994977863904e-01
5.6999999999999957e+00 +7.9190806290488540e+00 +0.0000000000000000e+00 +5.6999999011411537e+00 -3.2258640166935872e-04 +0.0000000000000000e+00 +9.9999994796900549e-01
5.7999999999999954e+00 +7.9190480874383349e+00 +0.0000000000000000e+00 +5.7999998958462378e+00 -3.2824580858413456e-04 +0.0000000000000000e+00 +9.9999994612734322e-01
5.8999999999999950e+00 +7.9190149798871614e+00 +0.0000000000000000e+00 +5.8999998903655548e+00 -3.3390521476649095e-04 +0.0000000000000000e+00 +9.9999994425365235e-01
5.9999999999999947e+00 +7.9189813063954055e+00 +0.0000000000000000e+00 +5.9999998846959013e+00 -3.3956462024368621e-04 +0.0000000000000000e+00 +9.9999994234793277e-01
6.0999999999999943e+00 +7.9189470669631357e+00 +0.0000000000000000e+00 +6.0999998788340744e+00 -3.4522402504974818e-04 +0.0000000000000000e+00 +9.9999994041018458e-01
6.1999999999999940e+00 +7.9189122615904166e+00 +0.0000000000000000e+00 +6.1999998727768713e+00 -3.5088342922540735e-04 +0.0000000000000000e+00 +9.9999993844040780e-01
6.2999999999999936e+00 +7.9188768902773097e+00 +0.0000000000000000e+00 +6.2999998665210883e+00 -3.5654283281802987e-04 +0.0000000000000000e+00 +9.9999993643860230e-01
6.3999999999999932e+00 +7.9188409530238708e+00 +0.0000000000000000e+00 +6.3999998600635237e+00 -3.6220223588161150e-04 +0.0000000000000000e+00 +9.9999993440476820e-01
6.4999999999999929e+00 +7.9188044498301489e+00 +0.0000000000000000e+00 +6.4999998534009746e+00 -3.6786163847677788e-04 +0.0000000000000000e+00 +9.9999993233890538e-01
6.5999999999999925e+00 +7.9187673806961882e+00 +0.0000000000000000e+00 +6.5999998465302374e+00 -3.7352104067078470e-04 +0.0000000000000000e+00 +9.9999993024101386e-01
6.6999999999999922e+00 +7.9187297456220254e+00 +0.0000000000000000e+00 +6.6999998394481093e+00 -3.7918044253751771e-04 +0.0000000000000000e+00 +9.9999992811109362e-01
6.7999999999999918e+00 +7.9186915446076886e+00 +0.0000000000000000e+00 +6.7999998321513884e+00 -3.8483984415749298e-04 +0.0000000000000000e+00 +9.9999992594914466e-01
6.8999999999999915e+00 +7.9186527776531985e+00 +0.0000000000000000e+00 +6.8999998246368710e+00 -3.9049924561785704e-04 +0.0000000000000000e+00 +9.9999992375516689e-01
6.9999999999999911e+00 +7.9186134447585665e+00 +0.0000000000000000e+00 +6.9999998169013544e+00 -3.9615864701238700e-04 +0.0000000000000000e+00 +9.9999992152916028e-01
7.0999999999999908e+00 +7.9185735459237945e+00 +0.0000000000000000e+00 +7.0999998089416358e+00 -4.0181804844149080e-04 +0.0000000000000000e+00 +9.9999991927112486e-01
7.1999999999999904e+00 +7.9185330811488734e+00 +0.0000000000000000e+00 +7.1999998007545116e+00 -4.0747745001220730e-04 +0.0000000000000000e+00 +9.9999991698106061e-01
7.2999999999999901e+00 +7.9184920504337839e+00 +0.0000000000000000e+00 +7.2999997923367799e+00 -4.1313685183820646e-04 +0.0000000000000000e+00 +9.9999991465896743e-01
7.3999999999999897e+00 +7.9184504537784939e+00 +0.0000000000000000e+00 +7.3999997836852378e+00 -4.1879625403978946e-04 +0.0000000000000000e+00 +9.9999991230484520e-01
7.4999999999999893e+00 +7.9184082911829599e+00 +0.0000000000000000e+00 +7.4999997747966818e+00 -4.2445565674388894e-04 +0.0000000000000000e+00 +9.9999990991869392e-01
7.5999999999999890e+00 +7.9183655626471241e+00 +0.0000000000000000e+00 +7.5999997656679090e+00 -4.3011506008406919e-04 +0.0000000000000000e+00 +9.9999990750051349e-01
7.6999999999999886e+00 +7.9183222681709173e+00 +0.0000000000000000e+00 +7.6999997562957168e+00 -4.3577446420052626e-04 +0.0000000000000000e+00 +9.9999990505030389e-01
7.7999999999999883e+00 +7.9182784077542534e+00 +0.0000000000000000e+00 +7.7999997466769022e+00 -4.4143386924008814e-04 +0.0000000000000000e+00 +9.9999990256806504e-01
7.8999999999999879e+00 +7.9182339813970328e+00 +0.0000000000000000e+00 +7.8999997368082626e+00 -4.4709327535621496e-04 +0.0000000000000000e+00 +9.9999990005379680e-01
7.9999999999999876e+00 +7.9181889890991402e+00 +0.0000000000000000e+00 +7.9999997266865943e+00 -4.5275268270899915e-04 +0.0000000000000000e+00 +9.9999989750749907e-01
8.0999999999999872e+00 +7.9181434308604439e+00 +0.0000000000000000e+00 +8.0999997163086945e+00 -4.5841209146446193e-04 +0.0000000000000000e+00 +9.9999989492917185e-01
8.1999999999999869e+00 +7.9180973066807949e+00 +0.0000000000000000e+00 +8.1999997056713614e+00 -4.6407150178681179e-04 +0.0000000000000000e+00 +9.9999989231881503e-01
8.2999999999999865e+00 +7.9180506165600288e+00 +0.0000000000000000e+00 +8.2999996947713903e+00 -4.6973091383070242e-04 +0.0000000000000000e+00 +9.9999988967642839e-01
8.3999999999999861e+00 +7.9180033604979663e+00 +0.0000000000000000e+00 +8.3999996836055786e+00 -4.7539032774052820e-04 +0.0000000000000000e+00 +9.9999988700201192e-01
8.4999999999999858e+00 +7.9179555384944136e+00 +0.0000000000000000e+00 +8.4999996721707252e+00 -4.8104974365042297e-04 +0.0000000000000000e+00 +9.9999988429556552e-01
8.5999999999999854e+00 +7.9179071505491647e+00 +0.0000000000000000e+00 +8.5999996604636255e+00 -4.8670916168425923e-04 +0.0000000000000000e+00 +9.9999988155708908e-01
8.6999999999999851e+00 +7.9178581966620021e+00 +0.0000000000000000e+00 +8.6999996484810769e+00 -4.9236858195564706e-04 +0.0000000000000000e+00 +9.9999987878658247e-01
8.7999999999999847e+00 +7.9178086768326956e+00 +0.0000000000000000e+00 +8.7999996362198747e+00 -4.9802800456793324e-04 +0.0000000000000000e+00 +9.9999987598404572e-01
8.8999999999999844e+00 +7.9177585910610073e+00 +0.0000000000000000e+00 +8.8999996236768180e+00 -5.0368742961419974e-04 +0.0000000000000000e+00 +9.9999987314947869e-01
8.9999999999999840e+00 +7.9177079393466894e+00 +0.0000000000000000e+00 +8.9999996108487021e+00 -5.0934685717726313e-04 +0.0000000000000000e+00 +9.9999987028288129e-01
9.0999999999999837e+00 +7.9176567216894860e+00 +0.0000000000000000e+00 +9.0999995977323263e+00 -5.1500628732967311e-04 +0.0000000000000000e+00 +9.9999986738425339e-01
9.1999999999999833e+00 +7.9176049380891351e+00 +0.0000000000000000e+00 +9.1999995843244857e+00 -5.2066572013371147e-04 +0.0000000000000000e+00 +9.9999986445359490e-01
9.2999999999999829e+00 +7.9175525885453695e+00 +0.0000000000000000e+00 +9.2999995706219778e+00 -5.2632515564139074e-04 +0.0000000000000000e+00 +9.9999986149090581e-01
9.3999999999999826e+00 +7.9174996730579155e+00 +0.0000000000000000e+00 +9.3999995566215997e+00 -5.3198459389445303e-04 +0.0000000000000000e+00 +9.9999985849618600e-01
9.4999999999999822e+00 +7.9174461916264978e+00 +0.0000000000000000e+00 +9.4999995423201469e+00 -5.3764403492436894e-04 +0.0000000000000000e+00 +9.9999985546943548e-01
9.5999999999999819e+00 +7.9173921442508375e+00 +0.0000000000000000e+00 +9.5999995277144183e+00 -5.4330347875233603e-04 +0.0000000000000000e+00 +9.9999985241065414e-01
9.6999999999999815e+00 +7.9173375309306540e+00 +0.0000000000000000e+00 +9.6999995128012095e+00 -5.4896292538927764e-04 +0.0000000000000000e+00 +9.9999984931984198e-01
9.7999999999999812e+00 +7.9172823516656665e+00 +0.0000000000000000e+00 +9.7999994975773177e+00 -5.5462237483584124e-04 +0.0000000000000000e+00 +9.9999984619699889e-01
9.8999999999999808e+00 +7.9172266064555936e+00 +0.0000000000000000e+00 +9.8999994820395401e+00 -5.6028182708239751e-04 +0.0000000000000000e+00 +9.9999984304212486e-01
9.9999999999999805e+00 +7.9171702953001573e+00 +0.0000000000000000e+00 +9.9999994661846738e+00 -5.6594128210903853e-04 +0.0000000000000000e+00 +9.9999983985521979e-01
1.0099999999999980e+01 +7.9171134181990803e+00 +0.0000000000000000e+00 +1.0099999450009516e+01 -5.7160073988651557e-04 +0.0000000000000000e+00 +9.9999983663628378e-01
1.0199999999999980e+01 +7.9170559751520893e+00 +0.0000000000000000e+00 +1.0199999433510863e+01 -5.7726020038656825e-04 +0.0000000000000000e+00 +9.9999983338531673e-01
1.0299999999999979e+01 +7.9169979661589132e+00 +0.0000000000000000e+00 +1.0299999416685511e+01 -5.8291966359225514e-04 +0.0000000000000000e+00 +9.9999983010231852e-01
1.0399999999999979e+01 +7.9169393912192811e+00 +0.0000000000000000e+00 +1.0399999399530259e+01 -5.8857912949889348e-04 +0.0000000000000000e+00 +9.9999982678728916e-01
1.0499999999999979e+01 +7.9168802503329232e+00 +0.0000000000000000e+00 +1.0499999382041901e+01 -5.9423859811406031e-04 +0.0000000000000000e+00 +9.9999982344022864e-01
1.0599999999999978e+01 +7.9168205434995675e+00 +0.0000000000000000e+00 +1.0599999364217236e+01 -5.9989806945759318e-04 +0.0000000000000000e+00 +9.9999982006113697e-01
1.0699999999999978e+01 +7.9167602707189397e+00 +0.0000000000000000e+00 +1.0699999346053060e+01 -6.0555754356159109e-04 +0.0000000000000000e+00 +9.9999981665001392e-01
1.0799999999999978e+01 +7.9166994319907618e+00 +0.0000000000000000e+00 +1.0799999327546171e+01 -6.1121702047041535e-04 +0.0000000000000000e+00 +9.9999981320685949e-01
1.0899999999999977e+01 +7.9166380273147503e+00 +0.0000000000000000e+00 +1.0899999308693365e+01 -6.1687650024069070e-04 +0.0000000000000000e+00 +9.9999980973167357e-01
1.0999999999999977e+01 +7.9165760566906158e+00 +0.0000000000000000e+00 +1.0999999289491440e+01 -6.2253598294130616e-04 +0.0000000000000000e+00 +9.9999980622445617e-01
1.1099999999999977e+01 +7.9165135201180616e+00 +0.0000000000000000e+00 +1.1099999269937189e+01 -6.2819546865341611e-04 +0.0000000000000000e+00 +9.9999980268520705e-01
1.1199999999999976e+01 +7.9164504175967814e+00 +0.0000000000000000e+00 +1.1199999250027414e+01 -6.3385495747044114e-04 +0.0000000000000000e+00 +9.9999979911392622e-01
1.1299999999999976e+01 +7.9163867491264606e+00 +0.0000000000000000e+00 +1.1299999229758908e+01 -6.3951444949806951e-04 +0.0000000000000000e+00 +9.9999979551061347e-01
1.1399999999999975e+01 +7.9163225147067715e+00 +0.0000000000000000e+00 +1.1399999209128470e+01 -6.4517394485425796e-04 +0.0000000000000000e+00 +9.9999979187526866e-01
1.1499999999999975e+01 +7.9162577143373749e+00 +0.0000000000000000e+00 +1.1499999188132895e+01 -6.5083344366923272e-04 +0.0000000000000000e+00 +9.9999978820789170e-01
1.1599999999999975e+01 +7.9161923480179182e+00 +0.0000000000000000e+00 +1.1599999166768981e+01 -6.5649294608549082e-04 +0.0000000000000000e+00 +9.9999978450848248e-01
1.1699999999999974e+01 +7.9161264157480327e+00 +0.0000000000000000e+00 +1.1699999145033525e+01 -6.6215245225780136e-04 +0.0000000000000000e+00 +9.9999978077704077e-01
1.1799999999999974e+01 +7.9160599175273356e+00 +0.0000000000000000e+00 +1.1799999122923323e+01 -6.6781196235320638e-04 +0.0000000000000000e+00 +9.9999977701356646e-01
