# multipoles
# s[mm] polynom_b[n=0][T/m^n] polynom_b[n=1][T/m^n] polynom_b[n=2][T/m^n] polynom_b[n=3][T/m^n] polynom_b[n=4][T/m^n] polynom_b[n=5][T/m^n] polynom_b[n=6][T/m^n] 
+0.0000000000000000e+00 -5.6504910812139786e-01 +7.7316276629963401e+00 -4.5864814149902428e-01 -3.9570678341876906e+01 +1.4842435134432255e+03 -1.5962777848970192e+04 -1.1742765259021573e+07 
+1.0000000000000001e-01 -5.6504898082638522e-01 +7.7316145085758725e+00 -4.5953665934734728e-01 -3.9465466612463807e+01 +1.5142614030988866e+03 -1.6411151334470229e+04 -1.1880413041594168e+07 
+2.0000000000000001e-01 -5.6504886632899221e-01 +7.7316051637378553e+00 -4.5949027652520130e-01 -3.9446432784102491e+01 +1.5271817030002744e+03 -1.6380988426912161e+04 -1.1938855512696527e+07 
+2.9999999999999999e-01 -5.6504876396831827e-01 +7.7315993634058371e+00 -4.5857994996015633e-01 -3.9507678506291924e+01 +1.5243439776777523e+03 -1.5905438323859284e+04 -1.1924554107839694e+07 
+4.0000000000000002e-01 -5.6504867308361739e-01 +7.7315968425041142e+00 -4.5687663027742359e-01 -3.9643305430198595e+01 +1.5070876745512173e+03 -1.5017650276317094e+04 -1.1843969713734018e+07 
+5.0000000000000000e-01 -5.6504859301404642e-01 +7.7315973359513137e+00 -4.5445126983304068e-01 -3.9847415049826438e+01 +1.4767522742464218e+03 -1.3750774432999095e+04 -1.1703563377358980e+07 
+5.9999999999999998e-01 -5.6504852309886078e-01 +7.7316005786703128e+00 -4.5137481593424161e-01 -4.0114108967044729e+01 +1.4346771639588837e+03 -1.2137960356289601e+04 -1.1509795710676603e+07 
+6.9999999999999996e-01 -5.6504846267722530e-01 +7.7316063055753483e+00 -4.4771822036270087e-01 -4.0437488526747266e+01 +1.3822018164379658e+03 -1.0212359109949624e+04 -1.1269127733806312e+07 
+8.0000000000000004e-01 -5.6504841108839465e-01 +7.7316142515823651e+00 -4.4355242757885677e-01 -4.0811655126197984e+01 +1.3206655671361714e+03 -8.0071214345968883e+03 -1.0988019819029141e+07 
+9.0000000000000002e-01 -5.6504836767157074e-01 +7.7316241516043132e+00 -4.3894838831269484e-01 -4.1230710061474468e+01 +1.2514078697627790e+03 -5.5553986802051359e+03 -1.0672932900520431e+07 
+1.0000000000000000e+00 -5.6504833176599800e-01 +7.7316357405529761e+00 -4.3397704802639880e-01 -4.1688754602418697e+01 +1.1757680776559564e+03 -2.8903423030088434e+03 -1.0330327432942882e+07 
+1.1000000000000001e+00 -5.6504830271097461e-01 +7.7316487533452838e+00 -4.2870935300866408e-01 -4.2179890157768000e+01 +1.0950855643791911e+03 -4.5102956511496075e+01 -9.9666639796226006e+06 
+1.2000000000000000e+00 -5.6504827984563988e-01 +7.7316629248859075e+00 -4.2321625136779706e-01 -4.2698217781722867e+01 +1.0106997344792683e+03 +2.9471666853816992e+03 -9.5884032408526186e+06 
+1.3000000000000000e+00 -5.6504826250925944e-01 +7.7316779900909012e+00 -4.1756868931939101e-01 -4.3237838853226052e+01 +9.2394995702145479e+02 +6.0533158587858061e+03 -9.2020057483276576e+06 
+1.3999999999999999e+00 -5.6504825004106507e-01 +7.7316936838721499e+00 -4.1183761742111585e-01 -4.3792854639309461e+01 +8.3617568448140412e+02 +9.2401932170069485e+03 -8.8139324322206341e+06 
+1.5000000000000000e+00 -5.6504824178026047e-01 +7.7317097411369202e+00 -4.0609398233478589e-01 -4.4357366263579671e+01 +7.4871629382878268e+02 +1.2474646605373771e+04 -8.4306438575136364e+06 
+1.6000000000000001e+00 -5.6504823706603124e-01 +7.7317258968005360e+00 -4.0040873647409547e-01 -4.4925475086000255e+01 +6.6291127101475467e+02 +1.5723525301600184e+04 -8.0586011043171287e+06 
+1.7000000000000000e+00 -5.6504823523757253e-01 +7.7317418857742339e+00 -3.9485283062844229e-01 -4.5491282356478472e+01 +5.8010007066936532e+02 +1.8953678031445514e+04 -7.7042651010518745e+06 
+1.8000000000000000e+00 -5.6504823563408546e-01 +7.7317574429739349e+00 -3.8949721797682696e-01 -4.6048889448778404e+01 +5.0162219000484316e+02 +2.2131954264968448e+04 -7.3740969682995295e+06 
+1.8999999999999999e+00 -5.6504823759470935e-01 +7.7317723033114136e+00 -3.8441285219098997e-01 -4.6592397636339477e+01 +4.2881713656795347e+02 +2.5225203023830320e+04 -7.0745578752212189e+06 
+2.0000000000000000e+00 -5.6504824045859880e-01 +7.7317862017052299e+00 -3.7967069187619551e-01 -4.7115908377154227e+01 +3.6302451149200527e+02 +2.8200274435485637e+04 -6.8121094329676237e+06 
+2.1000000000000001e+00 -5.6504824365194972e-01 +7.7317989031761654e+00 -3.7532826945029946e-01 -4.7614035015257038e+01 +3.0530070491281714e+02 +3.1027072915407458e+04 -6.5917407513602516e+06 
+2.2000000000000002e+00 -5.6504824695259992e-01 +7.7318102890409168e+00 -3.7138939231703855e-01 -4.8083298584324247e+01 +2.5556745666684148e+02 +3.3686782815062608e+04 -6.4125487501127757e+06 
+2.2999999999999998e+00 -5.6504825022691008e-01 +7.7318202686728554e+00 -3.6784442980590387e-01 -4.8520662324462961e+01 +2.1346229004220078e+02 +3.6163176814137332e+04 -6.2721559880326092e+06 
+2.3999999999999999e+00 -5.6504825334127629e-01 +7.7318287514407293e+00 -3.6468375355955163e-01 -4.8923089333905061e+01 +1.7862276932538498e+02 +3.8440026716413537e+04 -6.1681852087872596e+06 
+2.5000000000000000e+00 -5.6504825616204923e-01 +7.7318356467228035e+00 -3.6189773418247312e-01 -4.9287542976438736e+01 +1.5068643842348177e+02 +4.0501105795968033e+04 -6.0982590516889812e+06 
+2.6000000000000001e+00 -5.6504825855554497e-01 +7.7318408638972507e+00 -3.5947674615532033e-01 -4.9610986602445941e+01 +1.2929090836385350e+02 +4.2330187188305492e+04 -6.0600004529221114e+06 
+2.7000000000000002e+00 -5.6504826038817324e-01 +7.7318443123428304e+00 -3.5741116625815317e-01 -4.9890383551503312e+01 +1.1407383136176787e+02 +4.3911043827750349e+04 -6.0510325336645842e+06 
+2.7999999999999998e+00 -5.6504826152617038e-01 +7.7318459014492866e+00 -3.5569137209515728e-01 -5.0122697492503669e+01 +1.0467287328327579e+02 +4.5227450541383936e+04 -6.0689784687732961e+06 
+2.8999999999999999e+00 -5.6504826183589141e-01 +7.7318455405998980e+00 -3.5430774304593088e-01 -5.0304891865805416e+01 +1.0072572431167927e+02 +4.6263180644783555e+04 -6.1114615185234947e+06 
+3.0000000000000000e+00 -5.6504826118358464e-01 +7.7318431391881788e+00 -3.5325066184898263e-01 -5.0433930408358329e+01 +1.0187013690117548e+02 +4.7002009107412508e+04 -6.1761052277745456e+06 
+3.1000000000000001e+00 -5.6504825943551162e-01 +7.7318386066122420e+00 -3.5251051302264302e-01 -5.0506776966936769e+01 +1.0774389490918709e+02 +4.7427711388898337e+04 -6.2605332807059567e+06 
+3.2000000000000002e+00 -5.6504825645795198e-01 +7.7318318522682654e+00 -3.5207768188298821e-01 -5.0520395314021847e+01 +1.1798478788286332e+02 +4.7524062380904405e+04 -6.3623693544010986e+06 
+3.2999999999999998e+00 -5.6504825211705112e-01 +7.7318227855672186e+00 -3.5194255987603634e-01 -5.0471749632136088e+01 +1.3223071797033984e+02 +4.7274839209478116e+04 -6.4792376455471795e+06 
+3.3999999999999999e+00 -5.6504824627910921e-01 +7.7318113159130606e+00 -3.5209553671480953e-01 -5.0357803877727562e+01 +1.5011954868739548e+02 +4.6663817526869279e+04 -6.6087621448513912e+06 
+3.5000000000000000e+00 -5.6504823881020017e-01 +7.7317973527261490e+00 -3.5252700894041705e-01 -5.0175522465377561e+01 +1.7128926608502627e+02 +4.5674775484577433e+04 -6.7485673988005845e+06 
+3.6000000000000001e+00 -5.6504822957655232e-01 +7.7317808054236838e+00 -3.5322737186760739e-01 -4.9921869691174102e+01 +1.9537783100346542e+02 +4.4291490356562441e+04 -6.8962778215456465e+06 
+3.7000000000000002e+00 -5.6504821844427267e-01 +7.7317615834331201e+00 -3.5418702452435269e-01 -4.9593810129952509e+01 +2.2202326289465287e+02 +4.2497740865437925e+04 -7.0495180660745185e+06 
+3.7999999999999998e+00 -5.6504820527944188e-01 +7.7317395961826607e+00 -3.5539637300050619e-01 -4.9188308345273420e+01 +2.5086370968765203e+02 +4.0277305441859913e+04 -7.2059133725110218e+06 
+3.8999999999999999e+00 -5.6504818994817219e-01 +7.7317147531118016e+00 -3.5684581947925825e-01 -4.8702329212867255e+01 +2.8153724205927864e+02 +3.7613964149447544e+04 -7.3630885982323810e+06 
+4.0000000000000000e+00 -5.6504817231653104e-01 +7.7316869636683947e+00 -3.5852577488929288e-01 -4.8132837817031294e+01 +3.1368208436398589e+02 +3.4491498015207042e+04 -7.5186692889709501e+06 
+4.0999999999999996e+00 -5.6504815234863948e-01 +7.7316562211413133e+00 -3.6042447560485841e-01 -4.7479146544488515e+01 +3.4695834412090198e+02 +3.0906378029765488e+04 -7.6706072922136383e+06 
+4.2000000000000002e+00 -5.6504813041278656e-01 +7.7316228594502583e+00 -3.6252210578627397e-01 -4.6750168338002929e+01 +3.8114480248875361e+02 +2.6907416510789673e+04 -7.8183449430047460e+06 
+4.2999999999999998e+00 -5.6504810698124819e-01 +7.7315872990673560e+00 -3.6479699067550542e-01 -4.5957272358685536e+01 +4.1605773795409289e+02 +2.2556924777005366e+04 -7.9617446743558161e+06 
+4.4000000000000004e+00 -5.6504808252646832e-01 +7.7315499604654283e+00 -3.6722744917864791e-01 -4.5111827799351374e+01 +4.5151331827309855e+02 +1.7917214440198499e+04 -8.1006684310470857e+06 
+4.5000000000000000e+00 -5.6504805752083076e-01 +7.7315112641117594e+00 -3.6979179753628455e-01 -4.4225203709132643e+01 +4.8732767060885391e+02 +1.3050596390012859e+04 -8.2349780071380306e+06 
+4.5999999999999996e+00 -5.6504803243683677e-01 +7.7314716304669444e+00 -3.7246834223971526e-01 -4.3308768942323049e+01 +5.2331675217932150e+02 +8.0193804681143993e+03 -8.3645344429634409e+06 
+4.7000000000000002e+00 -5.6504800774704300e-01 +7.7314314799861839e+00 -3.7523538614862301e-01 -4.2373892220882730e+01 +5.5929645913367403e+02 +2.8858758994570044e+03 -8.4891985273023881e+06 
+4.7999999999999998e+00 -5.6504798392402611e-01 +7.7313912331240937e+00 -3.7807122457681269e-01 -4.1431942260243979e+01 +5.9508256297992455e+02 -2.2876080103850463e+03 -8.6088305210152622e+06 
+4.9000000000000004e+00 -5.6504796144045244e-01 +7.7313513103190337e+00 -3.8095414512478548e-01 -4.0494287319084151e+01 +6.3049069875714554e+02 -7.4387644657908722e+03 -8.7232900826253369e+06 
+5.0000000000000000e+00 -5.6504794076905518e-01 +7.7313121320125315e+00 -3.8386242824100286e-01 -3.9572295757934739e+01 +6.6533638244286465e+02 -1.2505285952322783e+04 -8.8324363675906826e+06 
+5.0999999999999996e+00 -5.6504792238267842e-01 +7.7312741186306821e+00 -3.8677434490052753e-01 -3.8677335516125844e+01 +6.9943496512349839e+02 -1.7424867211046698e+04 -8.9361278079152964e+06 
+5.2000000000000002e+00 -5.6504790675417338e-01 +7.7312376906021063e+00 -3.8966815925569881e-01 -3.7820774618432274e+01 +7.3260168539481526e+02 -2.2135202344735600e+04 -9.0342223672398925e+06 
+5.2999999999999998e+00 -5.6504789435647595e-01 +7.7312032683378424e+00 -3.9252212922477980e-01 -3.7013980605706358e+01 +7.6465167934684894e+02 -2.6573988063201505e+04 -9.1265775861256905e+06 
+5.4000000000000004e+00 -5.6504788566268005e-01 +7.7311712722459784e+00 -3.9531449760725962e-01 -3.6268320948495543e+01 +7.9539981484826910e+02 -3.0678921319680489e+04 -9.2130498036526404e+06 
+5.5000000000000000e+00 -5.6504788114585336e-01 +7.7311421227227317e+00 -3.9802350142485182e-01 -3.5595162797655114e+01 +8.2466087050765748e+02 -3.4387700713185935e+04 -9.2934950125433840e+06 
+5.5999999999999996e+00 -5.6504788127927585e-01 +7.7311162401614730e+00 -4.0062736919559622e-01 -3.5005873239996546e+01 +8.5224947875458372e+02 -3.7638025031734847e+04 -9.3677685768535566e+06 
+5.7000000000000002e+00 -5.6504788653619598e-01 +7.7310940449347978e+00 -4.0310431398723467e-01 -3.4511818788891460e+01 +8.7798000260827791e+02 -4.0367596157537730e+04 -9.4357246699759793e+06 
+5.7999999999999998e+00 -5.6504789739005312e-01 +7.7310759574216972e+00 -4.0543254343252355e-01 -3.4124366171002706e+01 +9.0166671942291680e+02 -4.2514114505613623e+04 -9.4972171316418648e+06 
+5.9000000000000004e+00 -5.6504791431430679e-01 +7.7310623979744868e+00 -4.0759025055806103e-01 -3.3854881362593915e+01 +9.2312365656198699e+02 -4.4015284624751795e+04 -9.5520987136773095e+06 
+5.9999999999999902e+00 -5.6504793778262796e-01 +7.7310537869406568e+00 -4.0955561999872125e-01 -3.3714730230285774e+01 +9.4216469796820161e+02 -4.4808811436801188e+04 -9.6002215566006750e+06 
+6.0999999999999899e+00 -5.6504796810956803e-01 +7.7310504165356635e+00 -4.1131725079152015e-01 -3.3711875367332496e+01 +9.5872009737613462e+02 -4.4850893111552869e+04 -9.6417470837599766e+06 
+6.1999999999999904e+00 -5.6504800494608654e-01 +7.7310520626632648e+00 -4.1290408704777876e-01 -3.3840420522370216e+01 +9.7312494894255292e+02 -4.4173576279387911e+04 -9.6777023511092532e+06 
+6.2999999999999901e+00 -5.6504804777019235e-01 +7.7310583708762373e+00 -4.1435483086703523e-01 -3.4090931129116512e+01 +9.8579997698050488e+02 -4.2828412570676170e+04 -9.7092342547682580e+06 
+6.3999999999999897e+00 -5.6504809605982376e-01 +7.7310689867431535e+00 -4.1570818885128202e-01 -3.4453972996369160e+01 +9.9716597706095638e+02 -4.0866951786927806e+04 -9.7374899759489559e+06 
+6.4999999999999902e+00 -5.6504814929279978e-01 +7.7310835558492208e+00 -4.1700287475221104e-01 -3.4920112362869688e+01 +1.0076438696888417e+03 -3.8340741496835530e+04 -9.7636172477753237e+06 
+6.5999999999999899e+00 -5.6504820694701241e-01 +7.7311017237816841e+00 -4.1827760641438233e-01 -3.5479915450889251e+01 +1.0176546390892344e+03 -3.5301329692164705e+04 -9.7887640522370655e+06 
+6.6999999999999904e+00 -5.6504826850020029e-01 +7.7311231361454773e+00 -4.1957110969579364e-01 -3.6123948925020613e+01 +1.0276194097785474e+03 -3.1800262129836334e+04 -9.8140789904759824e+06 
+6.7999999999999901e+00 -5.6504833343006777e-01 +7.7311474385594083e+00 -4.2092211755588665e-01 -3.6842779777412041e+01 +1.0379594277767958e+03 -2.7889083006221572e+04 -9.8407111890228409e+06 
+6.8999999999999897e+00 -5.6504840121426303e-01 +7.7311742766548743e+00 -4.2236936892144961e-01 -3.7626975292851078e+01 +1.0490960368116857e+03 -2.3619335161640782e+04 -9.8698101792133767e+06 
+6.9999999999999902e+00 -5.6504847133038683e-01 +7.7312032960740087e+00 -4.2395161120893371e-01 -3.8467102990291835e+01 +1.0614507258320000e+03 -1.9042560433128652e+04 -9.9025261209082473e+06 
+7.0999999999999899e+00 -5.6504854325592835e-01 +7.7312341424827684e+00 -4.2570759791674795e-01 -3.9353730997111306e+01 +1.0754450849340819e+03 -1.4210297512761776e+04 -9.9400095976858418e+06 
+7.1999999999999904e+00 -5.6504861646830784e-01 +7.7312664615487234e+00 -4.2767609395564393e-01 -4.0277427401839304e+01 +1.0915009058674952e+03 -9.1740857097649950e+03 -9.9834120911878888e+06 
+7.2999999999999901e+00 -5.6504869044493733e-01 +7.7312998989651742e+00 -4.2989586737277929e-01 -4.1228760957075785e+01 +1.1100400191359331e+03 -3.9854608676191101e+03 -1.0033885189923357e+07 
+7.3999999999999897e+00 -5.6504876466303156e-01 +7.7313341004386853e+00 -4.3240569949414481e-01 -4.2198300711588956e+01 +1.1314844930975846e+03 +1.3040424708593330e+03 -1.0092581554603590e+07 
+7.4999999999999902e+00 -5.6504883859987620e-01 +7.7313687116915037e+00 -4.3524437947682876e-01 -4.3176616075017137e+01 +1.1562565260612082e+03 +6.6428914276049354e+03 -1.0160654389136022e+07 
+7.5999999999999899e+00 -5.6504891173250515e-01 +7.7314033784645906e+00 -4.3845070491988880e-01 -4.4154276916267236e+01 +1.1847784528910556e+03 +1.1979555376971868e+04 -1.0239257460942470e+07 
+7.6999999999999904e+00 -5.6504898353797717e-01 +7.7314377465138922e+00 -4.4206348431677756e-01 -4.5121853428190889e+01 +1.2174728034469119e+03 +1.7262505081517855e+04 -1.0329545407985788e+07 
+7.7999999999999901e+00 -5.6504905349327994e-01 +7.7314714616152607e+00 -4.4612153308060731e-01 -4.6069916293462626e+01 +1.2547622135160532e+03 +2.2440213714646990e+04 -1.0432673279173659e+07 
+7.8999999999999897e+00 -5.6504912107521110e-01 +7.7315041695625766e+00 -4.5066368222750042e-01 -4.6989036612980264e+01 +1.2970695935905824e+03 +2.7461156392155430e+04 -1.0549797344594400e+07 
+7.9999999999999902e+00 -5.6504918576057128e-01 +7.7315355161709665e+00 -4.5572876853692229e-01 -4.7869785991054719e+01 +1.3448179488451503e+03 +3.2273810656427027e+04 -1.0682074259303343e+07 
+8.0999999999999908e+00 -5.6504924734897211e-01 +7.7315652115388085e+00 -4.6133563589152149e-01 -4.8704258166046039e+01 +1.3982077960469289e+03 +3.6834623421344106e+04 -1.0829982791425407e+07 
+8.1999999999999904e+00 -5.6504930694769717e-01 +7.7315932312129645e+00 -4.6742446354694150e-01 -4.9491146071290949e+01 +1.4565907184388382e+03 +4.1135304256605035e+04 -1.0991523453305205e+07 
+8.2999999999999901e+00 -5.6504936599504818e-01 +7.7316196194368061e+00 -4.7391608674375579e-01 -5.0230928623092375e+01 +1.5191173425716800e+03 +4.5177276710426828e+04 -1.1164143337561028e+07 
+8.3999999999999897e+00 -5.6504942592935148e-01 +7.7316444204261741e+00 -4.8073134144551505e-01 -5.0924084163448825e+01 +1.5849383130388853e+03 +4.8961961779283978e+04 -1.1345289631802715e+07 
+8.4999999999999893e+00 -5.6504948818899314e-01 +7.7316676783721521e+00 -4.8779106101234637e-01 -5.1571090526453354e+01 +1.6532042300381650e+03 +5.2490778278058591e+04 -1.1532409318600863e+07 
+8.5999999999999908e+00 -5.6504955421225089e-01 +7.7316894374388347e+00 -4.9501608585927681e-01 -5.2172424977107021e+01 +1.7230658290532326e+03 +5.5765142502585026e+04 -1.1722950022971489e+07 
+8.6999999999999904e+00 -5.6504962543747272e-01 +7.7317097417557603e+00 -5.0232725168543835e-01 -5.2728564010505430e+01 +1.7936737569415684e+03 +5.8786467117334993e+04 -1.1914358945560090e+07 
+8.7999999999999794e+00 -5.6504970330301774e-01 +7.7317286354301800e+00 -5.0964539421682831e-01 -5.3239983697641748e+01 +1.8641786691806221e+03 +6.1556163149296357e+04 -1.2104083344745716e+07 
+8.8999999999999808e+00 -5.6504978924721172e-01 +7.7317461625302872e+00 -5.1689135729021496e-01 -5.3707159219249661e+01 +1.9337313739776916e+03 +6.4075637342032263e+04 -1.2289571194876041e+07 
+8.9999999999999805e+00 -5.6504988470839823e-01 +7.7317623671002460e+00 -5.2398597634478916e-01 -5.4130565299298581e+01 +2.0014825237746604e+03 +6.6346294665363486e+04 -1.2468269735016651e+07 
+9.0999999999999801e+00 -5.6504999112489063e-01 +7.7317772931463491e+00 -5.3085009518198245e-01 -5.4510675819175404e+01 +2.0665829342842621e+03 +6.8369536131597037e+04 -1.2637626986772595e+07 
+9.1999999999999797e+00 -5.6505010993503824e-01 +7.7317909846449506e+00 -5.3740455419469735e-01 -5.4847964043505378e+01 +2.1281833605783372e+03 +7.0146760098813887e+04 -1.2795090687474882e+07 
+9.2999999999999794e+00 -5.6505024257720793e-01 +7.7318034855347051e+00 -5.4357019558487651e-01 -5.5142902409315909e+01 +2.1854345935181013e+03 +7.1679361097723580e+04 -1.2938108744257549e+07 
+9.3999999999999808e+00 -5.6505039048971739e-01 +7.7318148397194202e+00 -5.4926786207477485e-01 -5.5395962619262356e+01 +2.2374874393238561e+03 +7.2968730396943298e+04 -1.3064129144686503e+07 
+9.4999999999999805e+00 -5.6505055511091651e-01 +7.7318250910705331e+00 -5.5441839679729588e-01 -5.5607615713960072e+01 +2.2834927163486391e+03 +7.4016256443586302e+04 -1.3170599940667439e+07 
+9.5999999999999801e+00 -5.6505073787915105e-01 +7.7318342834165268e+00 -5.5894264433905438e-01 -5.5778331766918072e+01 +2.3226012723947583e+03 +7.4823323097025059e+04 -1.3254969321428940e+07 
+9.6999999999999797e+00 -5.6505094023278413e-01 +7.7318424605528948e+00 -5.6276145157696267e-01 -5.5908580193474023e+01 +2.3539640048764409e+03 +7.5391311481640980e+04 -1.3314685724504480e+07 
+9.7999999999999794e+00 -5.6505116361014884e-01 +7.7318496662337797e+00 -5.6579566335568665e-01 -5.5998829508726963e+01 +2.3767317754759292e+03 +7.5721598594997573e+04 -1.3347197417661970e+07 
+9.8999999999999808e+00 -5.6505140944961318e-01 +7.7318559441730592e+00 -5.6796612466970198e-01 -5.6049547359623638e+01 +2.3900554531052821e+03 +7.5815557496753157e+04 -1.3349952707878552e+07 
+9.9999999999999805e+00 -5.6505167918954990e-01 +7.7318613380480388e+00 -5.6919368465748843e-01 -5.6061200680664115e+01 +2.3930859864674089e+03 +7.5674558212887816e+04 -1.3320400288585056e+07 
+1.0100000000000000e+01 -5.6505197376549288e-01 +7.7318659041542039e+00 -5.6942408647105358e-01 -5.6034952405494693e+01 +2.3852383100037018e+03 +7.5303882081798205e+04 -1.3256798757935910e+07 
