# field on trajectory
# s[mm] rx[mm] ry[mm] rz[mm] bx[T] by[T] bz[T]
0.0000000000000000e+00 +8.1529999999999987e+00 +0.0000000000000000e+00 +0.0000000000000000e+00 -3.2017077905663834e-02 -5.9308957626319336e-01 +5.9291480387335151e-03
-1.0000000000000001e-01 +8.1529997166766002e+00 +0.0000000000000000e+00 -9.9999999999464836e-02 -3.2016869302179965e-02 -5.9309002936530086e-01 +5.9291702471073442e-03
-2.0000000000000001e-01 +8.1529988667061168e+00 +0.0000000000000000e+00 -1.9999999999571880e-01 -3.2016667590462213e-02 -5.9309048802199915e-01 +5.9291948792391524e-03
-3.0000000000000004e-01 +8.1529974500881099e+00 +0.0000000000000000e+00 -2.9999999998555099e-01 -3.2016471961285903e-02 -5.9309095152132052e-01 +5.9292218571149746e-03
-4.0000000000000002e-01 +8.1529954668221354e+00 +0.0000000000000000e+00 -3.9999999996575047e-01 -3.2016281605428833e-02 -5.9309141915130459e-01 +5.9292511027209385e-03
-5.0000000000000000e-01 +8.1529929169077491e+00 +0.0000000000000000e+00 -4.9999999993310640e-01 -3.2016095713670999e-02 -5.9309189020000241e-01 +5.9292825380432195e-03
-5.9999999999999998e-01 +8.1529898003444981e+00 +0.0000000000000000e+00 -5.9999999988440778e-01 -3.2015913476794042e-02 -5.9309236395547338e-01 +5.9293160850679870e-03
-6.9999999999999996e-01 +8.1529861171319329e+00 +0.0000000000000000e+00 -6.9999999981644367e-01 -3.2015734085580887e-02 -5.9309283970578841e-01 +5.9293516657813322e-03
-7.9999999999999993e-01 +8.1529818672695971e+00 +0.0000000000000000e+00 -7.9999999972600322e-01 -3.2015556730815277e-02 -5.9309331673902932e-01 +5.9293892021692251e-03
-8.9999999999999991e-01 +8.1529770507570358e+00 +0.0000000000000000e+00 -8.9999999960987542e-01 -3.2015380603281303e-02 -5.9309379434328990e-01 +5.9294286162174508e-03
-9.9999999999999989e-01 +8.1529716675937927e+00 +0.0000000000000000e+00 -9.9999999946484941e-01 -3.2015204893763097e-02 -5.9309427180667618e-01 +5.9294698299115515e-03
-1.0999999999999999e+00 +8.1529657177794128e+00 +0.0000000000000000e+00 -1.0999999992877141e+00 -3.2015028793044228e-02 -5.9309474841730736e-01 +5.9295127652367694e-03
-1.2000000000000000e+00 +8.1529592013134398e+00 +0.0000000000000000e+00 -1.1999999990752586e+00 -3.2014851491907380e-02 -5.9309522346331600e-01 +5.9295573441779980e-03
-1.3000000000000000e+00 +8.1529521181954205e+00 +0.0000000000000000e+00 -1.2999999988242719e+00 -3.2014672181133880e-02 -5.9309569623284786e-01 +5.9296034887196996e-03
-1.4000000000000001e+00 +8.1529444684249039e+00 +0.0000000000000000e+00 -1.3999999985315432e+00 -3.2014490051503280e-02 -5.9309616601406545e-01 +5.9296511208458847e-03
-1.5000000000000002e+00 +8.1529362520014406e+00 +0.0000000000000000e+00 -1.4999999981938614e+00 -3.2014304293792893e-02 -5.9309663209514485e-01 +5.9297001625400218e-03
-1.6000000000000003e+00 +8.1529274689245863e+00 +0.0000000000000000e+00 -1.5999999978080155e+00 -3.2014114098777413e-02 -5.9309709376427855e-01 +5.9297505357850016e-03
-1.7000000000000004e+00 +8.1529181191939006e+00 +0.0000000000000000e+00 -1.6999999973707944e+00 -3.2013918657228385e-02 -5.9309755030967548e-01 +5.9298021625630616e-03
-1.8000000000000005e+00 +8.1529082028089466e+00 +0.0000000000000000e+00 -1.7999999968789873e+00 -3.2013717159913892e-02 -5.9309800101956156e-01 +5.9298549648557491e-03
-1.9000000000000006e+00 +8.1528977197692942e+00 +0.0000000000000000e+00 -1.8999999963293828e+00 -3.2013508797598025e-02 -5.9309844518218069e-01 +5.9299088646438463e-03
-2.0000000000000004e+00 +8.1528866700745208e+00 +0.0000000000000000e+00 -1.9999999957187702e+00 -3.2013292761040514e-02 -5.9309888208579387e-01 +5.9299637839073174e-03
-2.1000000000000005e+00 +8.1528750537242072e+00 +0.0000000000000000e+00 -2.0999999950439383e+00 -3.2013068510660339e-02 -5.9309931131959548e-01 +5.9300196367085868e-03
-2.2000000000000006e+00 +8.1528628707179447e+00 +0.0000000000000000e+00 -2.1999999943016761e+00 -3.2012836585529503e-02 -5.9309973367644186e-01 +5.9300763054429256e-03
-2.3000000000000007e+00 +8.1528501210553319e+00 +0.0000000000000000e+00 -2.2999999934887727e+00 -3.2012597794384180e-02 -5.9310015025009299e-01 +5.9301336645894345e-03
-2.4000000000000008e+00 +8.1528368047359692e+00 +0.0000000000000000e+00 -2.3999999926020172e+00 -3.2012352945961220e-02 -5.9310056213429707e-01 +5.9301915886279559e-03
-2.5000000000000009e+00 +8.1528229217594621e+00 +0.0000000000000000e+00 -2.4999999916381981e+00 -3.2012102848998268e-02 -5.9310097042278365e-01 +5.9302499520391917e-03
-2.6000000000000010e+00 +8.1528084721254235e+00 +0.0000000000000000e+00 -2.5999999905941045e+00 -3.2011848312234262e-02 -5.9310137620926384e-01 +5.9303086293048327e-03
-2.7000000000000011e+00 +8.1527934558334643e+00 +0.0000000000000000e+00 -2.6999999894665256e+00 -3.2011590144409428e-02 -5.9310178058742558e-01 +5.9303674949076693e-03
-2.8000000000000012e+00 +8.1527778728831990e+00 +0.0000000000000000e+00 -2.7999999882522504e+00 -3.2011329154265668e-02 -5.9310218465093212e-01 +5.9304264233317264e-03
-2.9000000000000012e+00 +8.1527617232742422e+00 +0.0000000000000000e+00 -2.8999999869480670e+00 -3.2011066150546739e-02 -5.9310258949341832e-01 +5.9304852890623679e-03
-3.0000000000000013e+00 +8.1527450070062084e+00 +0.0000000000000000e+00 -2.9999999855507653e+00 -3.2010801941998603e-02 -5.9310299620848816e-01 +5.9305439665864393e-03
-3.1000000000000014e+00 +8.1527277240787086e+00 +0.0000000000000000e+00 -3.0999999840571335e+00 -3.2010537337369464e-02 -5.9310340588971144e-01 +5.9306023303923681e-03
-3.2000000000000015e+00 +8.1527098744913520e+00 +0.0000000000000000e+00 -3.1999999824639609e+00 -3.2010273145410245e-02 -5.9310381963062231e-01 +5.9306602549703026e-03
-3.3000000000000016e+00 +8.1526914582437442e+00 +0.0000000000000000e+00 -3.2999999807680362e+00 -3.2010010174874676e-02 -5.9310423852471417e-01 +5.9307176148122162e-03
-3.4000000000000017e+00 +8.1526724753354838e+00 +0.0000000000000000e+00 -3.3999999789661484e+00 -3.2009749234519567e-02 -5.9310466366543912e-01 +5.9307742844120501e-03
-3.5000000000000018e+00 +8.1526529257661675e+00 +0.0000000000000000e+00 -3.4999999770550865e+00 -3.2009491133105097e-02 -5.9310509614620288e-01 +5.9308301382658100e-03
-3.6000000000000019e+00 +8.1526328095353815e+00 +0.0000000000000000e+00 -3.5999999750316389e+00 -3.2009236679395002e-02 -5.9310553706036473e-01 +5.9308850508717143e-03
-3.7000000000000020e+00 +8.1526121266427047e+00 +0.0000000000000000e+00 -3.6999999728925950e+00 -3.2008986682156848e-02 -5.9310598750123167e-01 +5.9309388967302892e-03
-3.8000000000000020e+00 +8.1525908770877074e+00 +0.0000000000000000e+00 -3.7999999706347434e+00 -3.2008741950162262e-02 -5.9310644856205741e-01 +5.9309915503445122e-03
-3.9000000000000021e+00 +8.1525690608699488e+00 +0.0000000000000000e+00 -3.8999999682548729e+00 -3.2008503292187164e-02 -5.9310692133603915e-01 +5.9310428862199187e-03
-4.0000000000000018e+00 +8.1525466779889797e+00 +0.0000000000000000e+00 -3.9999999657497725e+00 -3.2008271517012014e-02 -5.9310740691631525e-01 +5.9310927788647355e-03
-4.1000000000000014e+00 +8.1525237284443364e+00 +0.0000000000000000e+00 -4.0999999631162307e+00 -3.2008047275949220e-02 -5.9310790616117737e-01 +5.9311411376900278e-03
-4.2000000000000011e+00 +8.1525002122355428e+00 +0.0000000000000000e+00 -4.1999999603510361e+00 -3.2007830590419159e-02 -5.9310841898974731e-01 +5.9311880117092035e-03
-4.3000000000000007e+00 +8.1524761293621086e+00 +0.0000000000000000e+00 -4.2999999574509786e+00 -3.2007621324359567e-02 -5.9310894508636847e-01 +5.9312334848362876e-03
-4.4000000000000004e+00 +8.1524514798235330e+00 +0.0000000000000000e+00 -4.3999999544128459e+00 -3.2007419341696736e-02 -5.9310948413539755e-01 +5.9312776409855515e-03
-4.5000000000000000e+00 +8.1524262636193008e+00 +0.0000000000000000e+00 -4.4999999512334270e+00 -3.2007224506344877e-02 -5.9311003582120669e-01 +5.9313205640714713e-03
-4.5999999999999996e+00 +8.1524004807488861e+00 +0.0000000000000000e+00 -4.5999999479095113e+00 -3.2007036682205371e-02 -5.9311059982818504e-01 +5.9313623380086921e-03
-4.6999999999999993e+00 +8.1523741312117508e+00 +0.0000000000000000e+00 -4.6999999444378870e+00 -3.2006855733166049e-02 -5.9311117584074025e-01 +5.9314030467119850e-03
-4.7999999999999989e+00 +8.1523472150073459e+00 +0.0000000000000000e+00 -4.7999999408153426e+00 -3.2006681523100572e-02 -5.9311176354330175e-01 +5.9314427740962032e-03
-4.8999999999999986e+00 +8.1523197321351120e+00 +0.0000000000000000e+00 -4.8999999370386673e+00 -3.2006513915867660e-02 -5.9311236262032030e-01 +5.9314816040762454e-03
-4.9999999999999982e+00 +8.1522916825944751e+00 +0.0000000000000000e+00 -4.9999999331046494e+00 -3.2006352775310443e-02 -5.9311297275627184e-01 +5.9315196205670133e-03
-5.0999999999999979e+00 +8.1522630663848545e+00 +0.0000000000000000e+00 -5.0999999290100781e+00 -3.2006197965255757e-02 -5.9311359363565785e-01 +5.9315569074833690e-03
-5.1999999999999975e+00 +8.1522338835056587e+00 +0.0000000000000000e+00 -5.1999999247517419e+00 -3.2006049349513392e-02 -5.9311422494300847e-01 +5.9315935487400965e-03
-5.2999999999999972e+00 +8.1522041339562836e+00 +0.0000000000000000e+00 -5.2999999203264299e+00 -3.2005906791875503e-02 -5.9311486636288346e-01 +5.9316296282518654e-03
-5.3999999999999968e+00 +8.1521738177361183e+00 +0.0000000000000000e+00 -5.3999999157309295e+00 -3.2005770156115818e-02 -5.9311551757987468e-01 +5.9316652299331810e-03
-5.4999999999999964e+00 +8.1521429348445427e+00 +0.0000000000000000e+00 -5.4999999109620310e+00 -3.2005639305988973e-02 -5.9311617827860641e-01 +5.9317004376983531e-03
-5.5999999999999961e+00 +8.1521114852809262e+00 +0.0000000000000000e+00 -5.5999999060165218e+00 -3.2005514105229872e-02 -5.9311684814373944e-01 +5.9317353354614490e-03
-5.6999999999999957e+00 +8.1520794690446277e+00 +0.0000000000000000e+00 -5.6999999008911910e+00 -3.2005394417552895e-02 -5.9311752685997121e-01 +5.9317700071362519e-03
-5.7999999999999954e+00 +8.1520468861350022e+00 +0.0000000000000000e+00 -5.7999998955828271e+00 -3.2005280106651254e-02 -5.9311821411203802e-01 +5.9318045366362282e-03
-5.8999999999999950e+00 +8.1520137365513925e+00 +0.0000000000000000e+00 -5.8999998900882185e+00 -3.2005171036196343e-02 -5.9311890958471714e-01 +5.9318390078744810e-03
-5.9999999999999947e+00 +8.1519800202931361e+00 +0.0000000000000000e+00 -5.9999998844041542e+00 -3.2005067069836954e-02 -5.9311961296282900e-01 +5.9318735047637116e-03
-6.0999999999999943e+00 +8.1519457373595632e+00 +0.0000000000000000e+00 -6.0999998785274228e+00 -3.2004968020186736e-02 -5.9312032379743607e-01 +5.9319081013543768e-03
-6.1999999999999940e+00 +8.1519108877499935e+00 +0.0000000000000000e+00 -6.1999998724548124e+00 -3.2004873495805025e-02 -5.9312104110442343e-01 +5.9319428322488739e-03
-6.2999999999999936e+00 +8.1518754714637449e+00 +0.0000000000000000e+00 -6.2999998661831116e+00 -3.2004783054265074e-02 -5.9312176376588654e-01 +5.9319777221865386e-03
-6.3999999999999932e+00 +8.1518394885001264e+00 +0.0000000000000000e+00 -6.3999998597091095e+00 -3.2004696253172080e-02 -5.9312249066392542e-01 +5.9320127959053628e-03
-6.4999999999999929e+00 +8.1518029388584470e+00 +0.0000000000000000e+00 -6.4999998530295935e+00 -3.2004612650164820e-02 -5.9312322068064982e-01 +5.9320480781419526e-03
-6.5999999999999925e+00 +8.1517658225380085e+00 +0.0000000000000000e+00 -6.5999998461413529e+00 -3.2004531802917083e-02 -5.9312395269817664e-01 +5.9320835936314299e-03
-6.6999999999999922e+00 +8.1517281395381129e+00 +0.0000000000000000e+00 -6.6999998390411761e+00 -3.2004453269139248e-02 -5.9312468559863196e-01 +5.9321193671073771e-03
-6.7999999999999918e+00 +8.1516898898580621e+00 +0.0000000000000000e+00 -6.7999998317258523e+00 -3.2004376606579732e-02 -5.9312541826414800e-01 +5.9321554233017666e-03
-6.8999999999999915e+00 +8.1516510734971579e+00 +0.0000000000000000e+00 -6.8999998241921690e+00 -3.2004301373026491e-02 -5.9312614957686804e-01 +5.9321917869448850e-03
-6.9999999999999911e+00 +8.1516116904547022e+00 +0.0000000000000000e+00 -6.9999998164369144e+00 -3.2004227126308619e-02 -5.9312687841894274e-01 +5.9322284827652569e-03
-7.0999999999999908e+00 +8.1515717407300006e+00 +0.0000000000000000e+00 -7.0999998084568778e+00 -3.2004153424297757e-02 -5.9312760367253181e-01 +5.9322655354895866e-03
-7.1999999999999904e+00 +8.1515312243223601e+00 +0.0000000000000000e+00 -7.1999998002488477e+00 -3.2004079824909618e-02 -5.9312832421980399e-01 +5.9323029698426849e-03
-7.2999999999999901e+00 +8.1514901412310952e+00 +0.0000000000000000e+00 -7.2999997918096113e+00 -3.2004005886105566e-02 -5.9312903894293811e-01 +5.9323408105473813e-03
-7.3999999999999897e+00 +8.1514484914555236e+00 +0.0000000000000000e+00 -7.3999997831359581e+00 -3.2003931165894006e-02 -5.9312974672412111e-01 +5.9323790823244725e-03
-7.4999999999999893e+00 +8.1514062749949705e+00 +0.0000000000000000e+00 -7.4999997742246762e+00 -3.2003855222331984e-02 -5.9313044644555069e-01 +5.9324178098926466e-03
-7.5999999999999890e+00 +8.1513634918487679e+00 +0.0000000000000000e+00 -7.5999997650725541e+00 -3.2003777613526706e-02 -5.9313113698943398e-01 +5.9324570179683997e-03
-7.6999999999999886e+00 +8.1513201420162584e+00 +0.0000000000000000e+00 -7.6999997556763802e+00 -3.2003697897636921e-02 -5.9313181723798836e-01 +5.9324967312659824e-03
-7.7999999999999883e+00 +8.1512762254967939e+00 +0.0000000000000000e+00 -7.7999997460329427e+00 -3.2003615632874557e-02 -5.9313248607344116e-01 +5.9325369744973088e-03
-7.8999999999999879e+00 +8.1512317422897382e+00 +0.0000000000000000e+00 -7.8999997361390299e+00 -3.2003530377506188e-02 -5.9313314237802972e-01 +5.9325777723719057e-03
-7.9999999999999876e+00 +8.1511866923944645e+00 +0.0000000000000000e+00 -7.9999997259914304e+00 -3.2003441689854500e-02 -5.9313378503400338e-01 +5.9326191495968272e-03
-8.0999999999999872e+00 +8.1511410758103597e+00 +0.0000000000000000e+00 -8.0999997155869323e+00 -3.2003349184036300e-02 -5.9313441335283990e-01 +5.9326611384155894e-03
-8.1999999999999869e+00 +8.1510948925368254e+00 +0.0000000000000000e+00 -8.1999997049223250e+00 -3.2003252697142694e-02 -5.9313502836291987e-01 +5.9327038012250153e-03
-8.2999999999999865e+00 +8.1510481425732753e+00 +0.0000000000000000e+00 -8.2999996939943959e+00 -3.2003152121972196e-02 -5.9313563152186233e-01 +5.9327472079573652e-03
-8.3999999999999861e+00 +8.1510008259191338e+00 +0.0000000000000000e+00 -8.3999996827999333e+00 -3.2003047351284002e-02 -5.9313622428729840e-01 +5.9327914285409932e-03
-8.4999999999999858e+00 +8.1509529425738361e+00 +0.0000000000000000e+00 -8.4999996713357255e+00 -3.2002938277796454e-02 -5.9313680811687242e-01 +5.9328365329002737e-03
-8.5999999999999854e+00 +8.1509044925368279e+00 +0.0000000000000000e+00 -8.5999996595985611e+00 -3.2002824794185633e-02 -5.9313738446824182e-01 +5.9328825909554673e-03
-8.6999999999999851e+00 +8.1508554758075586e+00 +0.0000000000000000e+00 -8.6999996475852281e+00 -3.2002706793083847e-02 -5.9313795479907727e-01 +5.9329296726226355e-03
-8.7999999999999847e+00 +8.1508058923854847e+00 +0.0000000000000000e+00 -8.7999996352925152e+00 -3.2002584167078137e-02 -5.9313852056706318e-01 +5.9329778478135302e-03
-8.8999999999999844e+00 +8.1507557422700661e+00 +0.0000000000000000e+00 -8.8999996227172105e+00 -3.2002456808708848e-02 -5.9313908322989739e-01 +5.9330271864354864e-03
-8.9999999999999840e+00 +8.1507050254607680e+00 +0.0000000000000000e+00 -8.9999996098561024e+00 -3.2002324610468182e-02 -5.9313964424529175e-01 +5.9330777583913195e-03
-9.0999999999999837e+00 +8.1506537419570559e+00 +0.0000000000000000e+00 -9.0999995967059792e+00 -3.2002187464798687e-02 -5.9314020507097276e-01 +5.9331296335792191e-03
-9.1999999999999833e+00 +8.1506018917583951e+00 +0.0000000000000000e+00 -9.1999995832636294e+00 -3.2002045264091783e-02 -5.9314076716468145e-01 +5.9331828818926539e-03
-9.2999999999999829e+00 +8.1505494748642491e+00 +0.0000000000000000e+00 -9.2999995695258413e+00 -3.2001897900686326e-02 -5.9314133198417296e-01 +5.9332375732202500e-03
-9.3999999999999826e+00 +8.1504964912740814e+00 +0.0000000000000000e+00 -9.3999995554894031e+00 -3.2001745266867082e-02 -5.9314190098721797e-01 +5.9332937774456964e-03
-9.4999999999999822e+00 +8.1504429409873502e+00 +0.0000000000000000e+00 -9.4999995411511016e+00 -3.2001587254863399e-02 -5.9314247563160194e-01 +5.9333515644476456e-03
-9.5999999999999819e+00 +8.1503888240035067e+00 +0.0000000000000000e+00 -9.5999995265077267e+00 -3.2001423756847530e-02 -5.9314305737512629e-01 +5.9334110040995952e-03
-9.6999999999999815e+00 +8.1503341403219984e+00 +0.0000000000000000e+00 -9.6999995115560669e+00 -3.2001254664933393e-02 -5.9314364767560745e-01 +5.9334721662697978e-03
-9.7999999999999812e+00 +8.1502788899422605e+00 +0.0000000000000000e+00 -9.7999994962929105e+00 -3.2001079871174919e-02 -5.9314424799087817e-01 +5.9335351208211363e-03
-9.8999999999999808e+00 +8.1502230728637226e+00 +0.0000000000000000e+00 -9.8999994807150440e+00 -3.2000899267564678e-02 -5.9314485977878761e-01 +5.9335999376110421e-03
-9.9999999999999805e+00 +8.1501666890858022e+00 +0.0000000000000000e+00 -9.9999994648192576e+00 -3.2000712746032445e-02 -5.9314548449719995e-01 +5.9336666864913713e-03
-1.0099999999999980e+01 +8.1501097386079042e+00 +0.0000000000000000e+00 -1.0099999448602338e+01 -3.2000520373231311e-02 -5.9314612333270034e-01 +5.9337353965088994e-03
-1.0199999999999980e+01 +8.1500522214294193e+00 +0.0000000000000000e+00 -1.0199999432061073e+01 -3.2000322914935014e-02 -5.9314677638664670e-01 +5.9338059335094237e-03
-1.0299999999999979e+01 +8.1499941375497258e+00 +0.0000000000000000e+00 -1.0299999415192252e+01 -3.2000121311711004e-02 -5.9314744348900983e-01 +5.9338781225463421e-03
-1.0399999999999979e+01 +8.1499354869681877e+00 +0.0000000000000000e+00 -1.0399999397992662e+01 -3.1999916504133634e-02 -5.9314812446966869e-01 +5.9339517886829053e-03
-1.0499999999999979e+01 +8.1498762696841567e+00 +0.0000000000000000e+00 -1.0499999380459093e+01 -3.1999709432784386e-02 -5.9314881915840889e-01 +5.9340267569924898e-03
-1.0599999999999978e+01 +8.1498164856969719e+00 +0.0000000000000000e+00 -1.0599999362588331e+01 -3.1999501038252179e-02 -5.9314952738491833e-01 +5.9341028525588700e-03
-1.0699999999999978e+01 +8.1497561350059584e+00 +0.0000000000000000e+00 -1.0699999344377167e+01 -3.1999292261133766e-02 -5.9315024897878688e-01 +5.9341799004764993e-03
-1.0799999999999978e+01 +8.1496952176104269e+00 +0.0000000000000000e+00 -1.0799999325822386e+01 -3.1999084042033957e-02 -5.9315098376950282e-01 +5.9342577258507771e-03
-1.0899999999999977e+01 +8.1496337335096793e+00 +0.0000000000000000e+00 -1.0899999306920776e+01 -3.1998877321565991e-02 -5.9315173158645029e-01 +5.9343361537983284e-03
-1.0999999999999977e+01 +8.1495716827030016e+00 +0.0000000000000000e+00 -1.0999999287669127e+01 -3.1998673040351817e-02 -5.9315249225890854e-01 +5.9344150094472773e-03
-1.1099999999999977e+01 +8.1495090651896707e+00 +0.0000000000000000e+00 -1.1099999268064225e+01 -3.1998472139022467e-02 -5.9315326561604742e-01 +5.9344941179375228e-03
-1.1199999999999976e+01 +8.1494458809689476e+00 +0.0000000000000000e+00 -1.1199999248102861e+01 -3.1998275558218291e-02 -5.9315405148692635e-01 +5.9345733044210095e-03
-1.1299999999999976e+01 +8.1493821300400846e+00 +0.0000000000000000e+00 -1.1299999227781820e+01 -3.1998084238589332e-02 -5.9315484970049182e-01 +5.9346523940620082e-03
-1.1399999999999975e+01 +8.1493178124023213e+00 +0.0000000000000000e+00 -1.1399999207097892e+01 -3.1997899120795613e-02 -5.9315566008557452e-01 +5.9347312120373837e-03
-1.1499999999999975e+01 +8.1492529280548869e+00 +0.0000000000000000e+00 -1.1499999186047862e+01 -3.1997721145507460e-02 -5.9315648247088770e-01 +5.9348095835368864e-03
-1.1599999999999975e+01 +8.1491874769969961e+00 +0.0000000000000000e+00 -1.1599999164628521e+01 -3.1997551253405802e-02 -5.9315731668502403e-01 +5.9348873337634013e-03
-1.1699999999999974e+01 +8.1491214592278531e+00 +0.0000000000000000e+00 -1.1699999142836656e+01 -3.1997390385182477e-02 -5.9315816255645448e-01 +5.9349642879332537e-03
