# multipoles
# s[mm] polynom_b[n=0][T/m^n] polynom_b[n=1][T/m^n] polynom_b[n=2][T/m^n] polynom_b[n=3][T/m^n] polynom_b[n=4][T/m^n] polynom_b[n=5][T/m^n] polynom_b[n=6][T/m^n] 
+0.0000000000000000e+00 -5.6666978880316166e-01 +7.8090727456338067e+00 -5.3453278537488469e+00 -1.9271108009593866e+02 -3.0843255378223121e+03 -1.9302846119895450e+04 +1.1543335721752744e+06 
+1.0000000000000001e-01 -5.6666979144066909e-01 +7.8090729080569927e+00 -5.3452582823249042e+00 -1.9271673309591188e+02 -3.0861782290219599e+03 -1.9265628197095019e+04 +1.1662138297071967e+06 
+2.0000000000000001e-01 -5.6666979924563032e-01 +7.8090733541305246e+00 -5.3450667647972310e+00 -1.9273220608999398e+02 -3.0912770177337534e+03 -1.9163768274151127e+04 +1.1989190250982086e+06 
+3.0000000000000004e-01 -5.6666981205666123e-01 +7.8090740220675983e+00 -5.3447791041275448e+00 -1.9275527037689312e+02 -3.0989327564958853e+03 -1.9011954555521756e+04 +1.2480442667995794e+06 
+4.0000000000000002e-01 -5.6666982971240565e-01 +7.8090748500781615e+00 -5.3444210975393354e+00 -1.9278369710000996e+02 -3.1084564614298702e+03 -1.8824876621361935e+04 +1.3091858027411995e+06 
+5.0000000000000000e-01 -5.6666985205149301e-01 +7.8090757763729330e+00 -5.3440185459828706e+00 -1.9281525745004686e+02 -3.1191590368220482e+03 -1.8617223591689919e+04 +1.3779390826146319e+06 
+5.9999999999999998e-01 -5.6666987891254550e-01 +7.8090767391622480e+00 -5.3435972506923415e+00 -1.9284772260056229e+02 -3.1303513883828741e+03 -1.8403684739069300e+04 +1.4498996000350271e+06 
+6.9999999999999996e-01 -5.6666991013421320e-01 +7.8090776766574308e+00 -5.3431830086201346e+00 -1.9287886375947775e+02 -3.1413445348357664e+03 -1.8198949062439970e+04 +1.5206636078180938e+06 
+7.9999999999999993e-01 -5.6666994555511552e-01 +7.8090785270713372e+00 -5.3428016214141500e+00 -1.9290645222835101e+02 -3.1514493729186438e+03 -1.8017704666535359e+04 +1.5858265505711157e+06 
+8.9999999999999991e-01 -5.6666998501388199e-01 +7.8090792286144559e+00 -5.3424788894055624e+00 -1.9292825919474859e+02 -3.1599768355985752e+03 -1.7874640652715625e+04 +1.6409841294113474e+06 
+9.9999999999999989e-01 -5.6667002834914271e-01 +7.8090797195025186e+00 -5.3422406119644723e+00 -1.9294205609433945e+02 -3.1662378901686375e+03 -1.7784443929816360e+04 +1.6817323120818837e+06 
+1.0999999999999999e+00 -5.6667007543500714e-01 +7.8090799568651645e+00 -5.3421065509695458e+00 -1.9294631011414472e+02 -3.1697067341468278e+03 -1.7757152163686485e+04 +1.7047033925040758e+06 
+1.2000000000000000e+00 -5.6667012628711566e-01 +7.8090799730824569e+00 -5.3420725196398413e+00 -1.9294225645027433e+02 -3.1705036840650232e+03 -1.7784282073058519e+04 +1.7106288115080330e+06 
+1.3000000000000000e+00 -5.6667018095639510e-01 +7.8090798192520960e+00 -5.3421283951046608e+00 -1.9293181882499229e+02 -3.1689088649791061e+03 -1.7852737010147153e+04 +1.7012531024047942e+06 
+1.4000000000000001e+00 -5.6667023949379136e-01 +7.8090795464709624e+00 -5.3422640519791385e+00 -1.9291692092623450e+02 -3.1652024596554274e+03 -1.7949420614010814e+04 +1.6783211460035504e+06 
+1.5000000000000002e+00 -5.6667030195024881e-01 +7.8090792058341849e+00 -5.3424693646351473e+00 -1.9289948635223340e+02 -3.1596646611920701e+03 -1.8061237340984739e+04 +1.6435779018578997e+06 
+1.6000000000000003e+00 -5.6667036837669404e-01 +7.8090788484383706e+00 -5.3427342109408134e+00 -1.9288143876983906e+02 -3.1525755624409439e+03 -1.8175091056300513e+04 +1.5987676243380278e+06 
+1.7000000000000004e+00 -5.6667043882408041e-01 +7.8090785253769068e+00 -5.3430484641198079e+00 -1.9286470168160210e+02 -3.1442153775708148e+03 -1.8277887116264272e+04 +1.5456353641817744e+06 
+1.8000000000000005e+00 -5.6667051334334295e-01 +7.8090782877462965e+00 -5.3434020008972309e+00 -1.9285119872236547e+02 -3.1348642226151119e+03 -1.8356529781436966e+04 +1.4859254886907868e+06 
+1.9000000000000006e+00 -5.6667059198543068e-01 +7.8090781866377554e+00 -5.3437846961778286e+00 -1.9284285329683598e+02 -3.1248022502561348e+03 -1.8397925266693495e+04 +1.4213825532609972e+06 
+2.0000000000000004e+00 -5.6667067480127975e-01 +7.8090782731452517e+00 -5.3441864263057983e+00 -1.9284158889686535e+02 -3.1143095786746976e+03 -1.8388979189387923e+04 +1.3537508860282656e+06 
+2.1000000000000005e+00 -5.6667076185101051e-01 +7.8090785828554621e+00 -5.3445968644900006e+00 -1.9284876083478517e+02 -3.1036663720063134e+03 -1.8320460670421708e+04 +1.2848087046518852e+06 
+2.2000000000000006e+00 -5.6667085323210797e-01 +7.8090790894124895e+00 -5.3450045271492641e+00 -1.9286345097955035e+02 -3.0931646192553608e+03 -1.8198667060610649e+04 +1.2165502463645728e+06 
+2.3000000000000007e+00 -5.6667094905157644e-01 +7.8090797509842931e+00 -5.3453975530237479e+00 -1.9288417212733310e+02 -3.0831022316775789e+03 -1.8033800325902150e+04 +1.1510442552329104e+06 
+2.4000000000000008e+00 -5.6667104941640967e-01 +7.8090805257381906e+00 -5.3457640824477819e+00 -1.9290943706911469e+02 -3.0737770809851013e+03 -1.7836062416052369e+04 +1.0903592300230702e+06 
+2.5000000000000009e+00 -5.6667115443362770e-01 +7.8090813718431917e+00 -5.3460922512293063e+00 -1.9293775864457467e+02 -3.0654871679934940e+03 -1.7615654970920259e+04 +1.0365645825876653e+06 
+2.6000000000000010e+00 -5.6667126421022174e-01 +7.8090822474650254e+00 -5.3463701994205639e+00 -1.9296764958416105e+02 -3.0585303879239009e+03 -1.7382780466893077e+04 +9.9172905478085356e+05 
+2.7000000000000011e+00 -5.6667137885320329e-01 +7.8090831107734839e+00 -5.3465860638704559e+00 -1.9299762278001228e+02 -3.0532047225914325e+03 -1.7147640086655763e+04 +9.5792198628078331e+05 
+2.8000000000000012e+00 -5.6667149846956433e-01 +7.8090839199311120e+00 -5.3467279840324311e+00 -1.9302619083536877e+02 -3.0498080989718155e+03 -1.6920437375502272e+04 +9.3721242336127744e+05 
+2.9000000000000012e+00 -5.6667162316631026e-01 +7.8090846331069566e+00 -5.3467840968838427e+00 -1.9305186662922443e+02 -3.0486385138401388e+03 -1.6711373618202968e+04 +9.3166990629785217e+05 
+3.0000000000000013e+00 -5.6667175305044504e-01 +7.8090852084671205e+00 -5.3467425392923147e+00 -1.9307316292640215e+02 -3.0499939774751301e+03 -1.6530651022488990e+04 +9.4336412715998129e+05 
+3.1000000000000014e+00 -5.6667188818811198e-01 +7.8090856123931278e+00 -5.3465966260045139e+00 -1.9308883997196679e+02 -3.0540297716995710e+03 -1.6387026382785723e+04 +9.7333853685920418e+05 
+3.2000000000000015e+00 -5.6667202848120368e-01 +7.8090858452443950e+00 -5.3463607190243803e+00 -1.9309870983122289e+02 -3.0603202599725682e+03 -1.6282858065832892e+04 +1.0184666385719995e+06 
+3.3000000000000016e+00 -5.6667217379036694e-01 +7.8090859161565378e+00 -5.3460545243250674e+00 -1.9310286308320536e+02 -3.0682920829400605e+03 -1.6218750593425846e+04 +1.0745630073098135e+06 
+3.4000000000000017e+00 -5.6667232397621459e-01 +7.8090858342620662e+00 -5.3456977536531278e+00 -1.9310139017653324e+02 -3.0773717245474295e+03 -1.6195309507807320e+04 +1.1374411450722045e+06 
+3.5000000000000018e+00 -5.6667247889938299e-01 +7.8090856086978899e+00 -5.3453101157138914e+00 -1.9309438175646810e+02 -3.0869857380986391e+03 -1.6213138603052124e+04 +1.2029149648415751e+06 
+3.6000000000000019e+00 -5.6667263842048876e-01 +7.8090852485978708e+00 -5.3449113219763023e+00 -1.9308192833986561e+02 -3.0965606053434562e+03 -1.6272842673858768e+04 +1.2667978942385118e+06 
+3.7000000000000020e+00 -5.6667280240014262e-01 +7.8090847630967986e+00 -5.3445210859748347e+00 -1.9306412049276125e+02 -3.1055227383962642e+03 -1.6375025979478463e+04 +1.3249028232742446e+06 
+3.8000000000000020e+00 -5.6667297069897060e-01 +7.8090841613308948e+00 -5.3441591190161386e+00 -1.9304104883361714e+02 -3.1132986025888495e+03 -1.6520292307899468e+04 +1.3730429638078292e+06 
+3.9000000000000021e+00 -5.6667314317757267e-01 +7.8090834524327679e+00 -5.3438451370337434e+00 -1.9301280385916667e+02 -3.1193145329369459e+03 -1.6709246228041309e+04 +1.4070306087086475e+06 
+4.0000000000000018e+00 -5.6667331969657275e-01 +7.8090826455375169e+00 -5.3435988524074025e+00 -1.9297947614898487e+02 -3.1229969494152551e+03 -1.6942491635080889e+04 +1.4226785679748706e+06 
+4.1000000000000014e+00 -5.6667350013981599e-01 +7.8090817544694202e+00 -5.3434348688967663e+00 -1.9294140835939132e+02 -3.1239466752978565e+03 -1.7218268128858454e+04 +1.4171675328692207e+06 
+4.2000000000000011e+00 -5.6667368448428368e-01 +7.8090808090321753e+00 -5.3433474248854687e+00 -1.9289979522310387e+02 -3.1224572202090108e+03 -1.7526864664578716e+04 +1.3931003728915707e+06 
+4.3000000000000007e+00 -5.6667387273029313e-01 +7.8090798423462555e+00 -5.3433256824087207e+00 -1.9285600627661486e+02 -3.1189942277356758e+03 -1.7856951167094863e+04 +1.3544252080671820e+06 
+4.4000000000000004e+00 -5.6667406487815353e-01 +7.8090788875315180e+00 -5.3433588047200349e+00 -1.9281141103028833e+02 -3.1140233117509465e+03 -1.8197197831654004e+04 +1.3050899705733892e+06 
+4.5000000000000000e+00 -5.6667426092820372e-01 +7.8090779777161927e+00 -5.3434359497226263e+00 -1.9276737933803821e+02 -3.1080102299734722e+03 -1.8536272088376289e+04 +1.2490435626031884e+06 
+4.5999999999999996e+00 -5.6667446088074924e-01 +7.8090771460259143e+00 -5.3435462808614602e+00 -1.9272528093286439e+02 -3.1014205951217000e+03 -1.8862842482713368e+04 +1.1902339240797546e+06 
+4.6999999999999993e+00 -5.6667466473614103e-01 +7.8090764255961744e+00 -5.3436789542874141e+00 -1.9268648595995037e+02 -3.0947202099106207e+03 -1.9165574209663388e+04 +1.1326102561872390e+06 
+4.7999999999999989e+00 -5.6667487249472870e-01 +7.8090758495586812e+00 -5.3438231256656037e+00 -1.9265236439107730e+02 -3.0883748977509326e+03 -1.9433134025998042e+04 +1.0801219291031463e+06 
+4.8999999999999986e+00 -5.6667508415683387e-01 +7.8090754510582805e+00 -5.3439679556338255e+00 -1.9262428673957231e+02 -3.0828503482941801e+03 -1.9654184307212181e+04 +1.0367174124731978e+06 
+4.9999999999999982e+00 -5.6667529972284680e-01 +7.8090752632364477e+00 -5.3441025929911863e+00 -1.9260362335756409e+02 -3.0786125670065708e+03 -1.9817388925313255e+04 +1.0063472968630943e+06 
+5.0999999999999979e+00 -5.6667551921250792e-01 +7.8090753086736058e+00 -5.3442188796466930e+00 -1.9259130727934965e+02 -3.0759916425697879e+03 -1.9915108161906006e+04 +9.9176856216088787e+05 
+5.1999999999999975e+00 -5.6667574272445376e-01 +7.8090755719890907e+00 -5.3443187926744740e+00 -1.9258674852526281e+02 -3.0747963639698478e+03 -1.9952327843572453e+04 +9.9113938679888332e+05 
+5.2999999999999972e+00 -5.6667597037743711e-01 +7.8090760293578150e+00 -5.3444066889042379e+00 -1.9258903161158833e+02 -3.0747104179824905e+03 -1.9936662732857905e+04 +1.0015083765634035e+06 
+5.3999999999999968e+00 -5.6667620229016935e-01 +7.8090766569550487e+00 -5.3444869319172748e+00 -1.9259724108081758e+02 -3.0754173177827001e+03 -1.9875727354198756e+04 +1.0199230122534469e+06 
+5.4999999999999964e+00 -5.6667643858137695e-01 +7.8090774309473217e+00 -5.3445638832548559e+00 -1.9261046110094833e+02 -3.0766006289969259e+03 -1.9777139406157065e+04 +1.0434311341191981e+06 
+5.5999999999999961e+00 -5.6667667936977884e-01 +7.8090783274948663e+00 -5.3446419048217191e+00 -1.9262777559150788e+02 -3.0779439200826705e+03 -1.9648518628337992e+04 +1.0690806657141100e+06 
+5.6999999999999957e+00 -5.6667692477409626e-01 +7.8090793227554078e+00 -5.3447253585906820e+00 -1.9264826835204823e+02 -3.0791307567126992e+03 -1.9497485838870671e+04 +1.0939195266787754e+06 
+5.7999999999999954e+00 -5.6667717491305281e-01 +7.8090803928769770e+00 -5.3448186053346634e+00 -1.9267102278028838e+02 -3.0798447459406871e+03 -1.9331665225470540e+04 +1.1149959640064843e+06 
+5.8999999999999950e+00 -5.6667742990535652e-01 +7.8090815140041601e+00 -5.3449260086485584e+00 -1.9269512213259478e+02 -3.0797694216294476e+03 -1.9158682159675263e+04 +1.1293577607847957e+06 
+5.9999999999999947e+00 -5.6667768986972533e-01 +7.8090826622735028e+00 -5.3450519301776804e+00 -1.9271964933715063e+02 -3.0785883785786382e+03 -1.8986164743147525e+04 +1.1340531652323122e+06 
+6.0999999999999943e+00 -5.6667795488763140e-01 +7.8090838143978116e+00 -5.3451984700446094e+00 -1.9274379534292129e+02 -3.0760981351468226e+03 -1.8820472188785636e+04 +1.1270895933354069e+06 
+6.1999999999999940e+00 -5.6667822488919761e-01 +7.8090849443566102e+00 -5.3453591565955652e+00 -1.9276696841288430e+02 -3.0725299039053407e+03 -1.8664822377180008e+04 +1.1101731131341197e+06 
+6.2999999999999936e+00 -5.6667849976615059e-01 +7.8090860242078506e+00 -5.3455254750500609e+00 -1.9278857877370677e+02 -3.0682200203059674e+03 -1.8522118075851547e+04 +1.0859058549497605e+06 
+6.3999999999999932e+00 -5.6667877941020062e-01 +7.8090870260155665e+00 -5.3456889134230385e+00 -1.9280803690925853e+02 -3.0635047387046225e+03 -1.8395259788275340e+04 +1.0568893470679771e+06 
+6.4999999999999929e+00 -5.6667906371303489e-01 +7.8090879218402627e+00 -5.3458409637358590e+00 -1.9282475314367196e+02 -3.0587202007501542e+03 -1.8287149266941786e+04 +1.0257243065945036e+06 
+6.5999999999999925e+00 -5.6667935256635460e-01 +7.8090886837499278e+00 -5.3459731157231003e+00 -1.9283813814382233e+02 -3.0542026030158127e+03 -1.8200685166437430e+04 +9.9501176279482257e+05 
+6.6999999999999922e+00 -5.6667964586183794e-01 +7.8090892838157169e+00 -5.3460768624706017e+00 -1.9284760268954227e+02 -3.0502880484673574e+03 -1.8138765143475939e+04 +9.6735206111769215e+05 
+6.7999999999999918e+00 -5.6667994349115480e-01 +7.8090896941109049e+00 -5.3461436994244096e+00 -1.9285255767620137e+02 -3.0473125650139259e+03 -1.8104285645411521e+04 +9.4534496452139958e+05 
+6.8999999999999915e+00 -5.6668024534595940e-01 +7.8090898867148164e+00 -5.3461651234589924e+00 -1.9285241423727021e+02 -3.0456121445981721e+03 -1.8100141051136092e+04 +9.3158995912209852e+05 
+6.9999999999999911e+00 -5.6668055131790096e-01 +7.8090898337079082e+00 -5.3461326334017496e+00 -1.9284658356533402e+02 -3.0455227122562505e+03 -1.8129225052718797e+04 +9.2868599032899993e+05 
+7.0999999999999908e+00 -5.6668086132745998e-01 +7.8090895207999278e+00 -5.3460410563749994e+00 -1.9283473010161595e+02 -3.0472616104854387e+03 -1.8193227852526164e+04 +9.3836284804093919e+05 
+7.1999999999999904e+00 -5.6668117541249408e-01 +7.8090889933766352e+00 -5.3458988009879169e+00 -1.9281769877382621e+02 -3.0505706346700890e+03 -1.8287743243267916e+04 +9.5889210503546789e+05 
+7.2999999999999901e+00 -5.6668149364067844e-01 +7.8090883130375710e+00 -5.3457177624902386e+00 -1.9279667048675557e+02 -3.0550716297425920e+03 -1.8406531034164844e+04 +9.8767970119822421e+05 
+7.3999999999999897e+00 -5.6668181607969059e-01 +7.8090875413804444e+00 -5.3455098363957418e+00 -1.9277282606287088e+02 -3.0603864417296923e+03 -1.8543351920908859e+04 +1.0221316657590405e+06 
+7.4999999999999893e+00 -5.6668214279725204e-01 +7.8090867400055783e+00 -5.3452869111985546e+00 -1.9274734644209161e+02 -3.0661371064553664e+03 -1.8691965755326626e+04 +1.0596553588441284e+06 
+7.5999999999999890e+00 -5.6668247386106430e-01 +7.8090859705100710e+00 -5.3450608785529070e+00 -1.9272141243352198e+02 -3.0719455896884951e+03 -1.8846133669184594e+04 +1.0976577774808009e+06 
+7.6999999999999886e+00 -5.6668280933887649e-01 +7.8090852944874305e+00 -5.3448436237732917e+00 -1.9269620470722688e+02 -3.0774340220440254e+03 -1.8999618082399029e+04 +1.1335470648795888e+06 
+7.7999999999999883e+00 -5.6668314929845143e-01 +7.8090847735364521e+00 -5.3446470295075743e+00 -1.9267290415591489e+02 -3.0822246189990092e+03 -1.9146179768405284e+04 +1.1647320403682049e+06 
+7.8999999999999879e+00 -5.6668349380755190e-01 +7.8090844692473054e+00 -5.3444829792039110e+00 -1.9265269131528257e+02 -3.0859395786003024e+03 -1.9279582661285804e+04 +1.1886214780532571e+06 
+7.9999999999999876e+00 -5.6668384293399221e-01 +7.8090844432162587e+00 -5.3443633479753823e+00 -1.9263674699705811e+02 -3.0882013331439744e+03 -1.9393588549671749e+04 +1.2026258310901993e+06 
+8.0999999999999872e+00 -5.6668419672876380e-01 +7.8090847401297019e+00 -5.3442962289067637e+00 -1.9262601072156858e+02 -3.0887545544090203e+03 -1.9482936096767724e+04 +1.2049914287785869e+06 
+8.1999999999999869e+00 -5.6668455517542060e-01 +7.8090853319531899e+00 -5.3442736598086791e+00 -1.9262030624914564e+02 -3.0878462463352525e+03 -1.9547224437447901e+04 +1.1973620349993967e+06 
+8.2999999999999865e+00 -5.6668491824071654e-01 +7.8090861711628259e+00 -5.3442833953411482e+00 -1.9261914148877150e+02 -3.0858534230340715e+03 -1.9587499339318227e+04 +1.1822515120204543e+06 
+8.3999999999999861e+00 -5.6668528589140221e-01 +7.8090872102388884e+00 -5.3443131898806788e+00 -1.9262202453369750e+02 -3.0831530999672464e+03 -1.9604804816705018e+04 +1.1621736486420033e+06 
+8.4999999999999858e+00 -5.6668565809421079e-01 +7.8090884016554929e+00 -5.3443508011598624e+00 -1.9262846318416675e+02 -3.0801221816137768e+03 -1.9600187251477317e+04 +1.1396413416786669e+06 
+8.5999999999999854e+00 -5.6668603481586544e-01 +7.8090896978930893e+00 -5.3443839870214527e+00 -1.9263796552149756e+02 -3.0771375729599340e+03 -1.9574690410752366e+04 +1.1171674446969063e+06 
+8.6999999999999851e+00 -5.6668641602304992e-01 +7.8090910514287710e+00 -5.3444005121999218e+00 -1.9265003944210915e+02 -3.0745759740932122e+03 -1.9529359554993847e+04 +1.0972632854562965e+06 
+8.7999999999999847e+00 -5.6668680168246288e-01 +7.8090924147400962e+00 -5.3443881381264822e+00 -1.9266419287307343e+02 -3.0728141644133275e+03 -1.9465239416478773e+04 +1.0824406219454764e+06 
+8.8999999999999844e+00 -5.6668719176075688e-01 +7.8090937403081764e+00 -5.3443346332522390e+00 -1.9267993386335326e+02 -3.0722287279215752e+03 -1.9383373589383165e+04 +1.0752098005406342e+06 
+8.9999999999999840e+00 -5.6668758622458193e-01 +7.8090949806095207e+00 -5.3442277659765720e+00 -1.9269677026234035e+02 -3.0731962353669915e+03 -1.9284807059271196e+04 +1.0780809546479241e+06 
+9.0999999999999837e+00 -5.6668798504357165e-01 +7.8090960949211983e+00 -5.3440596110705867e+00 -1.9271413852401028e+02 -3.0759640683042526e+03 -1.9171615673416305e+04 +1.0927163449860227e+06 
+9.1999999999999833e+00 -5.6668838819712819e-01 +7.8090970746719419e+00 -5.3438403625391260e+00 -1.9273133361384777e+02 -3.0802534848619566e+03 -1.9049208787974880e+04 +1.1173555066259389e+06 
+9.2999999999999829e+00 -5.6668879566637609e-01 +7.8090979205699993e+00 -5.3435850212055653e+00 -1.9274764877749752e+02 -3.0856503507974089e+03 -1.8923647126360927e+04 +1.1493646451457499e+06 
+9.3999999999999826e+00 -5.6668920743244644e-01 +7.8090986333294534e+00 -5.3433085873205952e+00 -1.9276237748837502e+02 -3.0917405632274267e+03 -1.8800989756051320e+04 +1.1861103052157718e+06 
+9.4999999999999822e+00 -5.6668962347646534e-01 +7.8090992136651485e+00 -5.3430260613738918e+00 -1.9277481328072247e+02 -3.0981100402044976e+03 -1.8687295338745545e+04 +1.2249593450425065e+06 
+9.5999999999999819e+00 -5.6669004377958831e-01 +7.8090996622951243e+00 -5.3427524383462668e+00 -1.9278424982458060e+02 -3.1043448714902756e+03 -1.8588621610520513e+04 +1.2632799402296061e+06 
+9.6999999999999815e+00 -5.6669046832297332e-01 +7.8090999799364038e+00 -5.3425027128900773e+00 -1.9278998077312446e+02 -3.1100311760796349e+03 -1.8511026574223095e+04 +1.2984406126114230e+06 
+9.7999999999999812e+00 -5.6669089708777276e-01 +7.8091001673120255e+00 -5.3422918801042538e+00 -1.9279130001646968e+02 -3.1147550879606965e+03 -1.8460566534220743e+04 +1.3278101614606287e+06 
+9.8999999999999808e+00 -5.6669133005514793e-01 +7.8091002251432879e+00 -5.3421349333978938e+00 -1.9278750142561347e+02 -3.1181028120202654e+03 -1.8443297982156913e+04 +1.3487580391871864e+06 
+9.9999999999999805e+00 -5.6669176720629544e-01 +7.8091001541580818e+00 -5.3420468595215445e+00 -1.9277787912696226e+02 -3.1196607600751836e+03 -1.8465275680775580e+04 +1.3586552680702643e+06 
+1.0099999999999980e+01 -5.6669220853348556e-01 +7.8090999620970578e+00 -5.3420376265082146e+00 -1.9276211850244118e+02 -3.1191542937404902e+03 -1.8529806374491622e+04 +1.3557593490798275e+06 
