# field on trajectory
# s[mm] rx[mm] ry[mm] rz[mm] bx[T] by[T] bz[T]
-0.0000000000000000e+00 +8.1530000000000094e+00 +0.0000000000000000e+00 -0.0000000000000000e+00 -2.9726601536685614e-02 -5.6446804980676102e-01 +5.6386258297358247e-03
-1.0000000000000001e-01 +8.1529997163925092e+00 +0.0000000000000000e+00 -9.9999999999463796e-02 -2.9726468756805215e-02 -5.6446814560431435e-01 +5.6385743468181865e-03
-2.0000000000000001e-01 +8.1529988655711296e+00 +0.0000000000000000e+00 -1.9999999999571000e-01 -2.9726345008006409e-02 -5.6446824435034171e-01 +5.6385236448200492e-03
-2.9999999999999999e-01 +8.1529974475415692e+00 +0.0000000000000000e+00 -2.9999999998552201e-01 -2.9726229909728910e-02 -5.6446834656720835e-01 +5.6384736148093655e-03
-4.0000000000000002e-01 +8.1529954622965306e+00 +0.0000000000000000e+00 -3.9999999996568197e-01 -2.9726123081414015e-02 -5.6446845277737734e-01 +5.6384241478534616e-03
-5.0000000000000000e-01 +8.1529929098396696e+00 +0.0000000000000000e+00 -4.9999999993297300e-01 -2.9726024142494648e-02 -5.6446856350322494e-01 +5.6383751350171304e-03
-5.9999999999999998e-01 +8.1529897901673394e+00 +0.0000000000000000e+00 -5.9999999988417696e-01 -2.9725932712403209e-02 -5.6446867926718169e-01 +5.6383264673640701e-03
-6.9999999999999996e-01 +8.1529861032831796e+00 +0.0000000000000000e+00 -6.9999999981607697e-01 -2.9725848410565654e-02 -5.6446880059162252e-01 +5.6382780359557280e-03
-8.0000000000000004e-01 +8.1529818491871993e+00 +0.0000000000000000e+00 -7.9999999972545699e-01 -2.9725770856406181e-02 -5.6446892799894943e-01 +5.6382297318521594e-03
-9.0000000000000002e-01 +8.1529770278793894e+00 +0.0000000000000000e+00 -8.9999999960909804e-01 -2.9725699669345906e-02 -5.6446906201156555e-01 +5.6381814461117317e-03
-1.0000000000000000e+00 +8.1529716393597500e+00 +0.0000000000000000e+00 -9.9999999946378304e-01 -2.9725634468803021e-02 -5.6446920315187576e-01 +5.6381330697911260e-03
-1.1000000000000001e+00 +8.1529656836210105e+00 +0.0000000000000000e+00 -1.0999999992862901e+00 -2.9725574874196029e-02 -5.6446935194234427e-01 +5.6380844939459118e-03
-1.2000000000000000e+00 +8.1529591606740706e+00 +0.0000000000000000e+00 -1.1999999990734200e+00 -2.9725520504933205e-02 -5.6446950890529690e-01 +5.6380356096285104e-03
-1.3000000000000000e+00 +8.1529520705153100e+00 +0.0000000000000000e+00 -1.2999999988219300e+00 -2.9725470980426476e-02 -5.6446967456317687e-01 +5.6379863078907921e-03
-1.3999999999999999e+00 +8.1529444131410909e+00 +0.0000000000000000e+00 -1.3999999985286200e+00 -2.9725425920085549e-02 -5.6446984943843204e-01 +5.6379364797829283e-03
-1.5000000000000000e+00 +8.1529361885550298e+00 +0.0000000000000000e+00 -1.4999999981902701e+00 -2.9725384943314975e-02 -5.6447003405345975e-01 +5.6378860163527993e-03
-1.6000000000000001e+00 +8.1529273967571498e+00 +0.0000000000000000e+00 -1.5999999978036501e+00 -2.9725347669518877e-02 -5.6447022893069154e-01 +5.6378348086468487e-03
-1.7000000000000000e+00 +8.1529180377474404e+00 +0.0000000000000000e+00 -1.6999999973655600e+00 -2.9725313718099632e-02 -5.6447043459256663e-01 +5.6377827477098073e-03
-1.8000000000000000e+00 +8.1529081115222706e+00 +0.0000000000000000e+00 -1.7999999968727800e+00 -2.9725282708459554e-02 -5.6447065156156051e-01 +5.6377297245849703e-03
-1.8999999999999999e+00 +8.1528976180852606e+00 +0.0000000000000000e+00 -1.8999999963220899e+00 -2.9725254259996475e-02 -5.6447088036010107e-01 +5.6376756303133197e-03
-2.0000000000000000e+00 +8.1528865574327902e+00 +0.0000000000000000e+00 -1.9999999957102601e+00 -2.9725227992110012e-02 -5.6447112151068179e-01 +5.6376203559346848e-03
-2.1000000000000001e+00 +8.1528749295721408e+00 +0.0000000000000000e+00 -2.0999999950340902e+00 -2.9725203547885715e-02 -5.6447137525542290e-01 +5.6375638702749866e-03
-2.2000000000000002e+00 +8.1528627344960096e+00 +0.0000000000000000e+00 -2.1999999942903599e+00 -2.9725180665183277e-02 -5.6447164071536249e-01 +5.6375064533157595e-03
-2.2999999999999998e+00 +8.1528499722080596e+00 +0.0000000000000000e+00 -2.2999999934758399e+00 -2.9725159105555420e-02 -5.6447191673115160e-01 +5.6374484628285764e-03
-2.3999999999999999e+00 +8.1528366427046404e+00 +0.0000000000000000e+00 -2.3999999925873299e+00 -2.9725138630565529e-02 -5.6447220214349281e-01 +5.6373902565885368e-03
-2.5000000000000000e+00 +8.1528227459894005e+00 +0.0000000000000000e+00 -2.4999999916215998e+00 -2.9725119001782437e-02 -5.6447249579302605e-01 +5.6373321923735885e-03
-2.6000000000000001e+00 +8.1528082820659602e+00 +0.0000000000000000e+00 -2.5999999905754398e+00 -2.9725099980784559e-02 -5.6447279652038529e-01 +5.6372746279655722e-03
-2.7000000000000002e+00 +8.1527932509234198e+00 +0.0000000000000000e+00 -2.6999999894456299e+00 -2.9725081329166878e-02 -5.6447310316630850e-01 +5.6372179211518474e-03
-2.7999999999999998e+00 +8.1527776525726896e+00 +0.0000000000000000e+00 -2.7999999882289601e+00 -2.9725062808526749e-02 -5.6447341457135658e-01 +5.6371624297228530e-03
-2.8999999999999999e+00 +8.1527614870065008e+00 +0.0000000000000000e+00 -2.8999999869222002e+00 -2.9725044180481573e-02 -5.6447372957622088e-01 +5.6371085114757654e-03
-3.0000000000000000e+00 +8.1527447542284808e+00 +0.0000000000000000e+00 -2.9999999855221300e+00 -2.9725025206657683e-02 -5.6447404702149850e-01 +5.6370565242126530e-03
-3.1000000000000001e+00 +8.1527274542386294e+00 +0.0000000000000000e+00 -3.0999999840255499e+00 -2.9725005648697355e-02 -5.6447436574780152e-01 +5.6370068257420919e-03
-3.2000000000000002e+00 +8.1527095870333106e+00 +0.0000000000000000e+00 -3.1999999824292300e+00 -2.9724985268259792e-02 -5.6447468459575934e-01 +5.6369597738796405e-03
-3.2999999999999998e+00 +8.1526911526198091e+00 +0.0000000000000000e+00 -3.2999999807299600e+00 -2.9724963827016032e-02 -5.6447500240590154e-01 +5.6369157264471413e-03
-3.3999999999999999e+00 +8.1526721509872004e+00 +0.0000000000000000e+00 -3.3999999789245101e+00 -2.9724941086662113e-02 -5.6447531801888506e-01 +5.6368750412754999e-03
-3.5000000000000000e+00 +8.1526525821464002e+00 +0.0000000000000000e+00 -3.4999999770096801e+00 -2.9724916808903282e-02 -5.6447563027518188e-01 +5.6368380762019813e-03
-3.6000000000000001e+00 +8.1526324460901396e+00 +0.0000000000000000e+00 -3.5999999749822500e+00 -2.9724890755471748e-02 -5.6447593801538776e-01 +5.6368051890738373e-03
-3.7000000000000002e+00 +8.1526117428220495e+00 +0.0000000000000000e+00 -3.6999999728389801e+00 -2.9724862688115462e-02 -5.6447624007999742e-01 +5.6367767377464816e-03
-3.7999999999999998e+00 +8.1525904723421299e+00 +0.0000000000000000e+00 -3.7999999705766800e+00 -2.9724832368605226e-02 -5.6447653530951480e-01 +5.6367530800850935e-03
-3.8999999999999999e+00 +8.1525686346503807e+00 +0.0000000000000000e+00 -3.8999999681921298e+00 -2.9724799558734086e-02 -5.6447682254442411e-01 +5.6367345739648063e-03
-4.0000000000000000e+00 +8.1525462297431694e+00 +0.0000000000000000e+00 -3.9999999656820902e+00 -2.9724764020319899e-02 -5.6447710062521717e-01 +5.6367215772714554e-03
-4.0999999999999996e+00 +8.1525232576241304e+00 +0.0000000000000000e+00 -4.0999999630433699e+00 -2.9724725528964973e-02 -5.6447736867002407e-01 +5.6367143399740621e-03
-4.2000000000000002e+00 +8.1524997182896204e+00 +0.0000000000000000e+00 -4.1999999602727298e+00 -2.9724683915344403e-02 -5.6447762690787862e-01 +5.6367126803396018e-03
-4.2999999999999998e+00 +8.1524756117469206e+00 +0.0000000000000000e+00 -4.2999999573669703e+00 -2.9724639023894061e-02 -5.6447787584544629e-01 +5.6367163087043259e-03
-4.4000000000000004e+00 +8.1524509379887604e+00 +0.0000000000000000e+00 -4.3999999543228601e+00 -2.9724590699055226e-02 -5.6447811598950659e-01 +5.6367249354014499e-03
-4.5000000000000000e+00 +8.1524256970187707e+00 +0.0000000000000000e+00 -4.4999999511372000e+00 -2.9724538785263443e-02 -5.6447834784675677e-01 +5.6367382707586833e-03
-4.5999999999999996e+00 +8.1523998888369498e+00 +0.0000000000000000e+00 -4.5999999478067499e+00 -2.9724483126954068e-02 -5.6447857192392614e-01 +5.6367560250989487e-03
-4.7000000000000002e+00 +8.1523735134396702e+00 +0.0000000000000000e+00 -4.6999999443283098e+00 -2.9724423568561607e-02 -5.6447878872777446e-01 +5.6367779087399079e-03
-4.7999999999999998e+00 +8.1523465708305594e+00 +0.0000000000000000e+00 -4.7999999406986600e+00 -2.9724359954514723e-02 -5.6447899876500951e-01 +5.6368036319926779e-03
-4.9000000000000004e+00 +8.1523190610096208e+00 +0.0000000000000000e+00 -4.8999999369145701e+00 -2.9724292129240097e-02 -5.6447920254237205e-01 +5.6368329051622165e-03
-5.0000000000000000e+00 +8.1522909839768491e+00 +0.0000000000000000e+00 -4.9999999329728402e+00 -2.9724219937160484e-02 -5.6447940056660650e-01 +5.6368654385466144e-03
-5.0999999999999996e+00 +8.1522623397286207e+00 +0.0000000000000000e+00 -5.0999999288702398e+00 -2.9724143222695568e-02 -5.6447959334449205e-01 +5.6369009424369126e-03
-5.2000000000000002e+00 +8.1522331282685592e+00 +0.0000000000000000e+00 -5.1999999246035600e+00 -2.9724061830256897e-02 -5.6447978138275623e-01 +5.6369391271158071e-03
-5.2999999999999998e+00 +8.1522033495966806e+00 +0.0000000000000000e+00 -5.2999999201695802e+00 -2.9723975604251874e-02 -5.6447996518816190e-01 +5.6369797028580472e-03
-5.4000000000000004e+00 +8.1521730037093203e+00 +0.0000000000000000e+00 -5.3999999155650800e+00 -2.9723884389083171e-02 -5.6448014526750612e-01 +5.6370223799300069e-03
-5.5000000000000000e+00 +8.1521420906137791e+00 +0.0000000000000000e+00 -5.4999999107868396e+00 -2.9723788029142124e-02 -5.6448032212750965e-01 +5.6370668685880691e-03
-5.5999999999999996e+00 +8.1521106102991308e+00 +0.0000000000000000e+00 -5.5999999058316599e+00 -2.9723686368820348e-02 -5.6448049627504104e-01 +5.6371128790804843e-03
-5.7000000000000002e+00 +8.1520785627762997e+00 +0.0000000000000000e+00 -5.6999999006963096e+00 -2.9723579252492392e-02 -5.6448066821680865e-01 +5.6371601216437641e-03
-5.7999999999999998e+00 +8.1520459480379905e+00 +0.0000000000000000e+00 -5.7999998953775700e+00 -2.9723466524531963e-02 -5.6448083845966945e-01 +5.6372083065053900e-03
-5.9000000000000004e+00 +8.1520127660915005e+00 +0.0000000000000000e+00 -5.8999998898722197e+00 -2.9723348029297644e-02 -5.6448100751037766e-01 +5.6372571438807742e-03
-5.9999999999999902e+00 +8.1519790169259103e+00 +0.0000000000000000e+00 -5.9999998841770603e+00 -2.9723223611146102e-02 -5.6448117587583890e-01 +5.6373063439754201e-03
-6.0999999999999899e+00 +8.1519447005521197e+00 +0.0000000000000000e+00 -6.0999998782888598e+00 -2.9723093258513075e-02 -5.6448134409376971e-01 +5.6373556816755044e-03
-6.1999999999999904e+00 +8.1519098169665103e+00 +0.0000000000000000e+00 -6.1999998722044003e+00 -2.9722957536219501e-02 -5.6448151282590275e-01 +5.6374051906389255e-03
-6.2999999999999901e+00 +8.1518743661654298e+00 +0.0000000000000000e+00 -6.2999998659204701e+00 -2.9722817153158228e-02 -5.6448168276495525e-01 +5.6374549692196300e-03
-6.3999999999999897e+00 +8.1518383481488907e+00 +0.0000000000000000e+00 -6.3999998594338496e+00 -2.9722672818190379e-02 -5.6448185460362987e-01 +5.6375051157740320e-03
-6.4999999999999902e+00 +8.1518017629241495e+00 +0.0000000000000000e+00 -6.4999998527413201e+00 -2.9722525240142607e-02 -5.6448202903458733e-01 +5.6375557286608901e-03
-6.5999999999999899e+00 +8.1517646104839496e+00 +0.0000000000000000e+00 -6.5999998458396698e+00 -2.9722375127814945e-02 -5.6448220675061644e-01 +5.6376069062432114e-03
-6.6999999999999904e+00 +8.1517268908319203e+00 +0.0000000000000000e+00 -6.6999998387256703e+00 -2.9722223189968824e-02 -5.6448238844443588e-01 +5.6376587468863768e-03
-6.7999999999999901e+00 +8.1516886039680703e+00 +0.0000000000000000e+00 -6.7999998313961196e+00 -2.9722070135331978e-02 -5.6448257480880981e-01 +5.6377113489594812e-03
-6.8999999999999897e+00 +8.1516497498923908e+00 +0.0000000000000000e+00 -6.8999998238477902e+00 -2.9721916672595536e-02 -5.6448276653651797e-01 +5.6377648108351924e-03
-6.9999999999999902e+00 +8.1516103286012402e+00 +0.0000000000000000e+00 -6.9999998160774597e+00 -2.9721763510414417e-02 -5.6448296432038625e-01 +5.6378192308902163e-03
-7.0999999999999899e+00 +8.1515703400982602e+00 +0.0000000000000000e+00 -7.0999998080819298e+00 -2.9721611357401281e-02 -5.6448316885320093e-01 +5.6378747075045811e-03
-7.1999999999999904e+00 +8.1515297843834595e+00 +0.0000000000000000e+00 -7.1999997998579603e+00 -2.9721460922130023e-02 -5.6448338082779537e-01 +5.6379313390626778e-03
-7.2999999999999901e+00 +8.1514886614531896e+00 +0.0000000000000000e+00 -7.2999997914023496e+00 -2.9721312913134377e-02 -5.6448360093705019e-01 +5.6379892239534230e-03
-7.3999999999999897e+00 +8.1514469713147300e+00 +0.0000000000000000e+00 -7.3999997827118804e+00 -2.9721168038900545e-02 -5.6448382987378043e-01 +5.6380484605692647e-03
-7.4999999999999902e+00 +8.1514047139571595e+00 +0.0000000000000000e+00 -7.4999997737833199e+00 -2.9721027007878174e-02 -5.6448406833096221e-01 +5.6381091473086606e-03
-7.5999999999999899e+00 +8.1513618893914099e+00 +0.0000000000000000e+00 -7.5999997646134698e+00 -2.9720890528462243e-02 -5.6448431700142254e-01 +5.6381713825730557e-03
-7.6999999999999904e+00 +8.1513184976138309e+00 +0.0000000000000000e+00 -7.6999997551991104e+00 -2.9720759309007062e-02 -5.6448457657812334e-01 +5.6382352647699561e-03
-7.7999999999999901e+00 +8.1512745386207808e+00 +0.0000000000000000e+00 -7.7999997455370096e+00 -2.9720634057818881e-02 -5.6448484775404806e-01 +5.6383008923119142e-03
-7.8999999999999897e+00 +8.1512300124159101e+00 +0.0000000000000000e+00 -7.8999997356239602e+00 -2.9720515483151525e-02 -5.6448513122214483e-01 +5.6383683636161246e-03
-7.9999999999999902e+00 +8.1511849189955701e+00 +0.0000000000000000e+00 -7.9999997254567399e+00 -2.9720404293211291e-02 -5.6448542767544208e-01 +5.6384377771057500e-03
-8.0999999999999908e+00 +8.1511392583670403e+00 +0.0000000000000000e+00 -8.0999997150321406e+00 -2.9720301069605323e-02 -5.6448573757083187e-01 +5.6385091998703901e-03
-8.1999999999999904e+00 +8.1510930305230396e+00 +0.0000000000000000e+00 -8.1999997043469399e+00 -2.9720205887757190e-02 -5.6448606042102134e-01 +5.6385825736498425e-03
-8.2999999999999901e+00 +8.1510462354672200e+00 +0.0000000000000000e+00 -8.2999996933979094e+00 -2.9720118696593040e-02 -5.6448639550253443e-01 +5.6386578088426145e-03
-8.3999999999999897e+00 +8.1509988731995708e+00 +0.0000000000000000e+00 -8.3999996821818605e+00 -2.9720039445104079e-02 -5.6448674209189975e-01 +5.6387348158450949e-03
-8.4999999999999893e+00 +8.1509509437164507e+00 +0.0000000000000000e+00 -8.4999996706955496e+00 -2.9719968082348752e-02 -5.6448709946565023e-01 +5.6388135050514793e-03
-8.5999999999999908e+00 +8.1509024470215099e+00 +0.0000000000000000e+00 -8.5999996589357703e+00 -2.9719904557450463e-02 -5.6448746690023621e-01 +5.6388937868527885e-03
-8.6999999999999904e+00 +8.1508533831147396e+00 +0.0000000000000000e+00 -8.6999996468993004e+00 -2.9719848819604325e-02 -5.6448784367210991e-01 +5.6389755716376782e-03
-8.7999999999999794e+00 +8.1508037519961398e+00 +0.0000000000000000e+00 -8.7999996345829192e+00 -2.9719800818077943e-02 -5.6448822905769647e-01 +5.6390587697920458e-03
-8.8999999999999808e+00 +8.1507535536620708e+00 +0.0000000000000000e+00 -8.8999996219834205e+00 -2.9719760502215132e-02 -5.6448862233342123e-01 +5.6391432916992491e-03
-8.9999999999999805e+00 +8.1507027881161793e+00 +0.0000000000000000e+00 -8.9999996090975891e+00 -2.9719727821433638e-02 -5.6448902277562440e-01 +5.6392290477391303e-03
-9.0999999999999801e+00 +8.1506514553584601e+00 +0.0000000000000000e+00 -9.0999995959221902e+00 -2.9719702725231917e-02 -5.6448942966064342e-01 +5.6393159482888231e-03
-9.1999999999999797e+00 +8.1505995553889097e+00 +0.0000000000000000e+00 -9.1999995824540193e+00 -2.9719685163189846e-02 -5.6448984226478671e-01 +5.6394039037223542e-03
-9.2999999999999794e+00 +8.1505470882038900e+00 +0.0000000000000000e+00 -9.2999995686898593e+00 -2.9719675084972572e-02 -5.6449025986435786e-01 +5.6394928244108654e-03
-9.3999999999999808e+00 +8.1504940538070496e+00 +0.0000000000000000e+00 -9.3999995546264898e+00 -2.9719672440328079e-02 -5.6449068173557260e-01 +5.6395826207216422e-03
-9.4999999999999805e+00 +8.1504404521983798e+00 +0.0000000000000000e+00 -9.4999995402606903e+00 -2.9719677179094080e-02 -5.6449110715464035e-01 +5.6396732030189033e-03
-9.5999999999999801e+00 +8.1503862833778804e+00 +0.0000000000000000e+00 -9.5999995255892507e+00 -2.9719689251198736e-02 -5.6449153539773833e-01 +5.6397644816634316e-03
-9.6999999999999797e+00 +8.1503315473419207e+00 +0.0000000000000000e+00 -9.6999995106089507e+00 -2.9719708606664393e-02 -5.6449196574103455e-01 +5.6398563670127574e-03
-9.7999999999999794e+00 +8.1502762440941297e+00 +0.0000000000000000e+00 -9.7999994953165697e+00 -2.9719735195605317e-02 -5.6449239746060653e-01 +5.6399487694202277e-03
-9.8999999999999808e+00 +8.1502203736345091e+00 +0.0000000000000000e+00 -9.8999994797088906e+00 -2.9719768968234452e-02 -5.6449282983252247e-01 +5.6400415992357627e-03
-9.9999999999999805e+00 +8.1501639359594300e+00 +0.0000000000000000e+00 -9.9999994637827001e+00 -2.9719809874865714e-02 -5.6449326213284046e-01 +5.6401347668057844e-03
-1.0100000000000000e+01 +8.1501069310761505e+00 +0.0000000000000000e+00 -1.0099999447534801e+01 -2.9719857715266581e-02 -5.6449369386864712e-01 +5.6402281822077113e-03
-1.0199999999999999e+01 +8.1500493589774106e+00 +0.0000000000000000e+00 -1.0199999430961901e+01 -2.9719911686668002e-02 -5.6449412547173150e-01 +5.6403217544594049e-03
-1.0300000000000001e+01 +8.1499912196668394e+00 +0.0000000000000000e+00 -1.0299999414060901e+01 -2.9719970835579857e-02 -5.6449455760495371e-01 +5.6404153923104144e-03
-1.0400000000000000e+01 +8.1499325131444493e+00 +0.0000000000000000e+00 -1.0399999396828500e+01 -2.9720034208427677e-02 -5.6449499093120081e-01 +5.6405090045073981e-03
-1.0500000000000000e+01 +8.1498732394065900e+00 +0.0000000000000000e+00 -1.0499999379261400e+01 -2.9720100851550260e-02 -5.6449542611338888e-01 +5.6406024997940826e-03
-1.0600000000000000e+01 +8.1498133984568994e+00 +0.0000000000000000e+00 -1.0599999361356600e+01 -2.9720169811192704e-02 -5.6449586381437722e-01 +5.6406957869103201e-03
-1.0699999999999999e+01 +8.1497529902953794e+00 +0.0000000000000000e+00 -1.0699999343110701e+01 -2.9720240133508651e-02 -5.6449630469705492e-01 +5.6407887745929088e-03
-1.0800000000000001e+01 +8.1496920149220404e+00 +0.0000000000000000e+00 -1.0799999324520600e+01 -2.9720310864556287e-02 -5.6449674942431005e-01 +5.6408813715752249e-03
-1.0900000000000000e+01 +8.1496304723332305e+00 +0.0000000000000000e+00 -1.0899999305583000e+01 -2.9720381050297572e-02 -5.6449719865905990e-01 +5.6409734865874774e-03
-1.1000000000000000e+01 +8.1495683625325892e+00 +0.0000000000000000e+00 -1.0999999286294800e+01 -2.9720449736591263e-02 -5.6449765306416610e-01 +5.6410650283557585e-03
-1.1100000000000000e+01 +8.1495056855201309e+00 +0.0000000000000000e+00 -1.1099999266652601e+01 -2.9720515969195119e-02 -5.6449811330251976e-01 +5.6411559056028680e-03
-1.1199999999999999e+01 +8.1494424412958306e+00 +0.0000000000000000e+00 -1.1199999246653300e+01 -2.9720578793761936e-02 -5.6449858003701181e-01 +5.6412460270479550e-03
-1.1300000000000001e+01 +8.1493786298560700e+00 +0.0000000000000000e+00 -1.1299999226293700e+01 -2.9720637255838789e-02 -5.6449905393056354e-01 +5.6413353014067545e-03
-1.1400000000000000e+01 +8.1493142512044905e+00 +0.0000000000000000e+00 -1.1399999205570500e+01 -2.9720690400859996e-02 -5.6449953564603961e-01 +5.6414236373906494e-03
-1.1500000000000000e+01 +8.1492493053447106e+00 +0.0000000000000000e+00 -1.1499999184480499e+01 -2.9720737274147858e-02 -5.6450002584630699e-01 +5.6415109437072076e-03
-1.1600000000000000e+01 +8.1491837922658306e+00 +0.0000000000000000e+00 -1.1599999163020600e+01 -2.9720776920916337e-02 -5.6450052519434635e-01 +5.6415971290612651e-03
-1.1699999999999999e+01 +8.1491177119787608e+00 +0.0000000000000000e+00 -1.1699999141187400e+01 -2.9720808386253426e-02 -5.6450103435297050e-01 +5.6416821021519868e-03
