# field on trajectory
# s[mm] rx[mm] ry[mm] rz[mm] bx[T] by[T] bz[T]
0.0000000000000000e+00 +8.1529999999999987e+00 +0.0000000000000000e+00 +0.0000000000000000e+00 -2.9638264129066935e-02 -5.6479440032466233e-01 +5.5632001642415413e-03
-1.0000000000000001e-01 +8.1529997169124027e+00 +0.0000000000000000e+00 -9.9999999999465725e-02 -2.9638197428802446e-02 -5.6479479873695282e-01 +5.5631716018701106e-03
-2.0000000000000001e-01 +8.1529988676493428e+00 +0.0000000000000000e+00 -1.9999999999572593e-01 -2.9638112259196221e-02 -5.6479522894228906e-01 +5.5631443539414811e-03
-3.0000000000000004e-01 +8.1529974522103892e+00 +0.0000000000000000e+00 -2.9999999998557503e-01 -2.9638010115093680e-02 -5.6479568791368207e-01 +5.5631184530401884e-03
-4.0000000000000002e-01 +8.1529954705950818e+00 +0.0000000000000000e+00 -3.9999999996580748e-01 -2.9637892491334621e-02 -5.6479617262415260e-01 +5.5630939317516557e-03
-5.0000000000000000e-01 +8.1529929228029339e+00 +0.0000000000000000e+00 -4.9999999993321770e-01 -2.9637760882753692e-02 -5.6479668004673100e-01 +5.5630708226622706e-03
-5.9999999999999998e-01 +8.1529898088334392e+00 +0.0000000000000000e+00 -5.9999999988460007e-01 -2.9637616784180844e-02 -5.6479720715445247e-01 +5.5630491583594224e-03
-6.9999999999999996e-01 +8.1529861286860683e+00 +0.0000000000000000e+00 -6.9999999981674910e-01 -2.9637461690441940e-02 -5.6479775092035700e-01 +5.5630289714315865e-03
-7.9999999999999993e-01 +8.1529818823602760e+00 +0.0000000000000000e+00 -7.9999999972645908e-01 -2.9637297096359178e-02 -5.6479830831748512e-01 +5.5630102944683691e-03
-8.9999999999999991e-01 +8.1529770698555044e+00 +0.0000000000000000e+00 -8.9999999961052446e-01 -2.9637124496751658e-02 -5.6479887631887638e-01 +5.5629931600605659e-03
-9.9999999999999989e-01 +8.1529716911711851e+00 +0.0000000000000000e+00 -9.9999999946573970e-01 -2.9636945386435846e-02 -5.6479945189756797e-01 +5.5629776008002257e-03
-1.0999999999999999e+00 +8.1529657463067409e+00 +0.0000000000000000e+00 -1.0999999992888991e+00 -2.9636761260226078e-02 -5.6480003202659090e-01 +5.5629636492807218e-03
-1.2000000000000000e+00 +8.1529592352615907e+00 +0.0000000000000000e+00 -1.1999999990767971e+00 -2.9636573612935153e-02 -5.6480061367896850e-01 +5.5629513380967876e-03
-1.3000000000000000e+00 +8.1529521580351521e+00 +0.0000000000000000e+00 -1.2999999988262279e+00 -2.9636383939374702e-02 -5.6480119382771388e-01 +5.5629406998445917e-03
-1.4000000000000001e+00 +8.1529445146268440e+00 +0.0000000000000000e+00 -1.3999999985339859e+00 -2.9636193734355793e-02 -5.6480176944582761e-01 +5.5629317671217924e-03
-1.5000000000000002e+00 +8.1529363050360892e+00 +0.0000000000000000e+00 -1.4999999981968655e+00 -2.9636004492689421e-02 -5.6480233750629572e-01 +5.5629245725276081e-03
-1.6000000000000003e+00 +8.1529275292623211e+00 +0.0000000000000000e+00 -1.5999999978116608e+00 -2.9635817709187010e-02 -5.6480289498208769e-01 +5.5629191486628593e-03
-1.7000000000000004e+00 +8.1529181873049783e+00 +0.0000000000000000e+00 -1.6999999973751665e+00 -2.9635634878660905e-02 -5.6480343884615281e-01 +5.5629155281300422e-03
-1.8000000000000005e+00 +8.1529082791635190e+00 +0.0000000000000000e+00 -1.7999999968841767e+00 -2.9635457495924885e-02 -5.6480396607141892e-01 +5.5629137435333808e-03
-1.9000000000000006e+00 +8.1528978048374139e+00 +0.0000000000000000e+00 -1.8999999963354854e+00 -2.9635287055794702e-02 -5.6480447363079034e-01 +5.5629138274788884e-03
-2.0000000000000004e+00 +8.1528867643261531e+00 +0.0000000000000000e+00 -1.9999999957258874e+00 -2.9635125053088528e-02 -5.6480495849714452e-01 +5.5629158125744338e-03
-2.1000000000000005e+00 +8.1528751576292535e+00 +0.0000000000000000e+00 -2.0999999950521766e+00 -2.9634972606652495e-02 -5.6480541834935183e-01 +5.5629197243156226e-03
-2.2000000000000006e+00 +8.1528629847462533e+00 +0.0000000000000000e+00 -2.1999999943111477e+00 -2.9634829331433042e-02 -5.6480585369034819e-01 +5.5629255597425577e-03
-2.3000000000000007e+00 +8.1528502456767171e+00 +0.0000000000000000e+00 -2.2999999934995947e+00 -2.9634694466397125e-02 -5.6480626572908743e-01 +5.5629333087808489e-03
-2.4000000000000008e+00 +8.1528369404202312e+00 +0.0000000000000000e+00 -2.3999999926143119e+00 -2.9634567250506297e-02 -5.6480665567452459e-01 +5.5629429613553889e-03
-2.5000000000000009e+00 +8.1528230689764065e+00 +0.0000000000000000e+00 -2.4999999916520936e+00 -2.9634446922716100e-02 -5.6480702473561617e-01 +5.5629545073901153e-03
-2.6000000000000010e+00 +8.1528086313448718e+00 +0.0000000000000000e+00 -2.5999999906097342e+00 -2.9634332721975635e-02 -5.6480737412132265e-01 +5.5629679368077939e-03
-2.7000000000000011e+00 +8.1527936275252788e+00 +0.0000000000000000e+00 -2.6999999894840276e+00 -2.9634223887227081e-02 -5.6480770504060906e-01 +5.5629832395298097e-03
-2.8000000000000012e+00 +8.1527780575172955e+00 +0.0000000000000000e+00 -2.7999999882717681e+00 -2.9634119657405204e-02 -5.6480801870244624e-01 +5.5630004054759178e-03
-2.9000000000000012e+00 +8.1527619213206073e+00 +0.0000000000000000e+00 -2.8999999869697501e+00 -2.9634019271436832e-02 -5.6480831631581296e-01 +5.5630194245640538e-03
-3.0000000000000013e+00 +8.1527452189349159e+00 +0.0000000000000000e+00 -2.9999999855747683e+00 -2.9633921968240454e-02 -5.6480859908969638e-01 +5.5630402867100871e-03
-3.1000000000000014e+00 +8.1527279503599388e+00 +0.0000000000000000e+00 -3.0999999840836163e+00 -2.9633826986725634e-02 -5.6480886823309440e-01 +5.5630629818276050e-03
-3.2000000000000015e+00 +8.1527101155954078e+00 +0.0000000000000000e+00 -3.1999999824930887e+00 -2.9633733565792585e-02 -5.6480912495501545e-01 +5.5630874998277057e-03
-3.3000000000000016e+00 +8.1526917146410653e+00 +0.0000000000000000e+00 -3.2999999807999796e+00 -2.9633640944331654e-02 -5.6480937046448143e-01 +5.5631138306187541e-03
-3.4000000000000017e+00 +8.1526727474966645e+00 +0.0000000000000000e+00 -3.3999999790010831e+00 -2.9633548361222874e-02 -5.6480960597052854e-01 +5.5631419641061757e-03
-3.5000000000000018e+00 +8.1526532141619708e+00 +0.0000000000000000e+00 -3.4999999770931938e+00 -2.9633455055335434e-02 -5.6480983268220797e-01 +5.5631718901922225e-03
-3.6000000000000019e+00 +8.1526331146367585e+00 +0.0000000000000000e+00 -3.5999999750731058e+00 -2.9633360265527223e-02 -5.6481005180858812e-01 +5.5632035987757704e-03
-3.7000000000000020e+00 +8.1526124489208076e+00 +0.0000000000000000e+00 -3.6999999729376132e+00 -2.9633263230644323e-02 -5.6481026455875549e-01 +5.5632370797520691e-03
-3.8000000000000020e+00 +8.1525912170139048e+00 +0.0000000000000000e+00 -3.7999999706835101e+00 -2.9633163189520532e-02 -5.6481047214181601e-01 +5.5632723230125492e-03
-3.9000000000000021e+00 +8.1525694189158422e+00 +0.0000000000000000e+00 -3.8999999683075912e+00 -2.9633059380976885e-02 -5.6481067576689648e-01 +5.5633093184445752e-03
-4.0000000000000018e+00 +8.1525470546264174e+00 +0.0000000000000000e+00 -3.9999999658066505e+00 -2.9632951043821160e-02 -5.6481087664314622e-01 +5.5633480559312432e-03
-4.1000000000000014e+00 +8.1525241241454296e+00 +0.0000000000000000e+00 -4.0999999631774822e+00 -2.9632837621426041e-02 -5.6481107580777756e-01 +5.5633885309236773e-03
-4.2000000000000011e+00 +8.1525006274726799e+00 +0.0000000000000000e+00 -4.1999999604168803e+00 -2.9632719375470278e-02 -5.6481127361017380e-01 +5.5634307611604648e-03
-4.3000000000000007e+00 +8.1524765646079711e+00 +0.0000000000000000e+00 -4.2999999575216394e+00 -2.9632596772210879e-02 -5.6481147022775391e-01 +5.5634747699534817e-03
-4.4000000000000004e+00 +8.1524519355511060e+00 +0.0000000000000000e+00 -4.3999999544885533e+00 -2.9632470277905665e-02 -5.6481166583792919e-01 +5.5635205806159648e-03
-4.5000000000000000e+00 +8.1524267403018893e+00 +0.0000000000000000e+00 -4.4999999513144164e+00 -2.9632340358813593e-02 -5.6481186061810340e-01 +5.5635682164626669e-03
-4.5999999999999996e+00 +8.1524009788601273e+00 +0.0000000000000000e+00 -4.5999999479960234e+00 -2.9632207481195216e-02 -5.6481205474567076e-01 +5.5636177008099759e-03
-4.6999999999999993e+00 +8.1523746512256245e+00 +0.0000000000000000e+00 -4.6999999445301679e+00 -2.9632072111313069e-02 -5.6481224839801758e-01 +5.5636690569760804e-03
-4.7999999999999989e+00 +8.1523477573981893e+00 +0.0000000000000000e+00 -4.7999999409136445e+00 -2.9631934715432070e-02 -5.6481244175252032e-01 +5.5637223082810909e-03
-4.8999999999999986e+00 +8.1523202973776279e+00 +0.0000000000000000e+00 -4.8999999371432468e+00 -2.9631795759819921e-02 -5.6481263498654399e-01 +5.5637774780471919e-03
-4.9999999999999982e+00 +8.1522922711637484e+00 +0.0000000000000000e+00 -4.9999999332157694e+00 -2.9631655710747499e-02 -5.6481282827744439e-01 +5.5638345895987762e-03
-5.0999999999999979e+00 +8.1522636787563574e+00 +0.0000000000000000e+00 -5.0999999291280069e+00 -2.9631515034489259e-02 -5.6481302180256421e-01 +5.5638936662625905e-03
-5.1999999999999975e+00 +8.1522345201552611e+00 +0.0000000000000000e+00 -5.1999999248767530e+00 -2.9631374197323632e-02 -5.6481321573923515e-01 +5.5639547313678745e-03
-5.2999999999999972e+00 +8.1522047953602659e+00 +0.0000000000000000e+00 -5.2999999204588022e+00 -2.9631233665533434e-02 -5.6481341026477572e-01 +5.5640178082465019e-03
-5.3999999999999968e+00 +8.1521745043711782e+00 +0.0000000000000000e+00 -5.3999999158709482e+00 -2.9631093905406268e-02 -5.6481360555649085e-01 +5.5640829202331212e-03
-5.4999999999999964e+00 +8.1521436471878044e+00 +0.0000000000000000e+00 -5.4999999111099855e+00 -2.9630955383234906e-02 -5.6481380179167207e-01 +5.5641500906652916e-03
-5.5999999999999961e+00 +8.1521122238099473e+00 +0.0000000000000000e+00 -5.5999999061727088e+00 -2.9630818565317692e-02 -5.6481399914759656e-01 +5.5642193428836377e-03
-5.6999999999999957e+00 +8.1520802342374097e+00 +0.0000000000000000e+00 -5.6999999010559117e+00 -2.9630683917958967e-02 -5.6481419780152531e-01 +5.5642907002319778e-03
-5.7999999999999954e+00 +8.1520476784699945e+00 +0.0000000000000000e+00 -5.7999998957563879e+00 -2.9630551907469414e-02 -5.6481439793070443e-01 +5.5643641860574642e-03
-5.8999999999999950e+00 +8.1520145565075026e+00 +0.0000000000000000e+00 -5.8999998902709319e+00 -2.9630423000166502e-02 -5.6481459971236425e-01 +5.5644398237107368e-03
-5.9999999999999947e+00 +8.1519808683497317e+00 +0.0000000000000000e+00 -5.9999998845963383e+00 -2.9630297662374905e-02 -5.6481480332371703e-01 +5.5645176365460465e-03
-6.0999999999999943e+00 +8.1519466139964791e+00 +0.0000000000000000e+00 -6.0999998787294007e+00 -2.9630176258505347e-02 -5.6481500906656534e-01 +5.5645976310891906e-03
-6.1999999999999940e+00 +8.1519117934475407e+00 +0.0000000000000000e+00 -6.1999998726669139e+00 -2.9630058745295503e-02 -5.6481521774113241e-01 +5.5646797465392101e-03
-6.2999999999999936e+00 +8.1518764067027067e+00 +0.0000000000000000e+00 -6.2999998664056713e+00 -2.9629944977586496e-02 -5.6481543027225189e-01 +5.5647639052625927e-03
-6.3999999999999932e+00 +8.1518404537617659e+00 +0.0000000000000000e+00 -6.3999998599424677e+00 -2.9629834810247779e-02 -5.6481564758476066e-01 +5.5648500296251778e-03
-6.4999999999999929e+00 +8.1518039346245015e+00 +0.0000000000000000e+00 -6.4999998532740966e+00 -2.9629728098178241e-02 -5.6481587060350003e-01 +5.5649380419921400e-03
-6.5999999999999925e+00 +8.1517668492906896e+00 +0.0000000000000000e+00 -6.5999998463973526e+00 -2.9629624696307366e-02 -5.6481610025331563e-01 +5.5650278647279214e-03
-6.6999999999999922e+00 +8.1517291977601030e+00 +0.0000000000000000e+00 -6.6999998393090303e+00 -2.9629524459596424e-02 -5.6481633745905779e-01 +5.5651194201961967e-03
-6.7999999999999918e+00 +8.1516909800325035e+00 +0.0000000000000000e+00 -6.7999998320059234e+00 -2.9629427243039564e-02 -5.6481658314558181e-01 +5.5652126307598349e-03
-6.8999999999999915e+00 +8.1516521961076478e+00 +0.0000000000000000e+00 -6.8999998244848255e+00 -2.9629332901665022e-02 -5.6481683823774831e-01 +5.5653074187808462e-03
-6.9999999999999911e+00 +8.1516128459852801e+00 +0.0000000000000000e+00 -6.9999998167425312e+00 -2.9629241290536217e-02 -5.6481710366042348e-01 +5.5654037066203447e-03
-7.0999999999999908e+00 +8.1515729296651358e+00 +0.0000000000000000e+00 -7.0999998087758343e+00 -2.9629152264752920e-02 -5.6481738033847917e-01 +5.5655014166384933e-03
-7.1999999999999904e+00 +8.1515324471469395e+00 +0.0000000000000000e+00 -7.1999998005815291e+00 -2.9629065679452456e-02 -5.6481766919679344e-01 +5.5656004711944779e-03
-7.2999999999999901e+00 +8.1514913984304016e+00 +0.0000000000000000e+00 -7.2999997921564095e+00 -2.9628981389810776e-02 -5.6481797116025045e-01 +5.5657007926464483e-03
-7.3999999999999897e+00 +8.1514497835152202e+00 +0.0000000000000000e+00 -7.3999997834972699e+00 -2.9628899251043644e-02 -5.6481828715374172e-01 +5.5658023033514871e-03
-7.4999999999999893e+00 +8.1514076024010809e+00 +0.0000000000000000e+00 -7.4999997746009042e+00 -2.9628819118407812e-02 -5.6481861810216460e-01 +5.5659049256655485e-03
-7.5999999999999890e+00 +8.1513648550876532e+00 +0.0000000000000000e+00 -7.5999997654641058e+00 -2.9628740847202118e-02 -5.6481896493042472e-01 +5.5660085819434369e-03
-7.6999999999999886e+00 +8.1513215415745908e+00 +0.0000000000000000e+00 -7.6999997560836695e+00 -2.9628664292768694e-02 -5.6481932856343486e-01 +5.5661131945387455e-03
-7.7999999999999883e+00 +8.1512776618615295e+00 +0.0000000000000000e+00 -7.7999997464563897e+00 -2.9628589310494068e-02 -5.6481970992611519e-01 +5.5662186858038186e-03
-7.8999999999999879e+00 +8.1512332159480891e+00 +0.0000000000000000e+00 -7.8999997365790593e+00 -2.9628515755810349e-02 -5.6482010994339404e-01 +5.5663249780897135e-03
-7.9999999999999876e+00 +8.1511882038338701e+00 +0.0000000000000000e+00 -7.9999997264484728e+00 -2.9628443484196357e-02 -5.6482052954020812e-01 +5.5664319937461532e-03
-8.0999999999999872e+00 +8.1511426255184531e+00 +0.0000000000000000e+00 -8.0999997160614239e+00 -2.9628372366458190e-02 -5.6482096937523552e-01 +5.5665396706813756e-03
-8.1999999999999869e+00 +8.1510964810013995e+00 +0.0000000000000000e+00 -8.1999997054147080e+00 -2.9628302334548953e-02 -5.6482142904209176e-01 +5.5666480090444436e-03
-8.2999999999999865e+00 +8.1510497702822491e+00 +0.0000000000000000e+00 -8.2999996945051180e+00 -2.9628233335695447e-02 -5.6482190786815056e-01 +5.5667570245490801e-03
-8.3999999999999861e+00 +8.1510024933605241e+00 +0.0000000000000000e+00 -8.3999996833294475e+00 -2.9628165317112830e-02 -5.6482240518081983e-01 +5.5668667329141939e-03
-8.4999999999999858e+00 +8.1509546502357271e+00 +0.0000000000000000e+00 -8.4999996718844901e+00 -2.9628098226003988e-02 -5.6482292030754178e-01 +5.5669771498640386e-03
-8.5999999999999854e+00 +8.1509062409073429e+00 +0.0000000000000000e+00 -8.5999996601670397e+00 -2.9628032009558769e-02 -5.6482345257579292e-01 +5.5670882911283415e-03
-8.6999999999999851e+00 +8.1508572653748388e+00 +0.0000000000000000e+00 -8.6999996481738915e+00 -2.9627966614953309e-02 -5.6482400131308796e-01 +5.5672001724424861e-03
-8.7999999999999847e+00 +8.1508077236376675e+00 +0.0000000000000000e+00 -8.7999996359018393e+00 -2.9627901989349358e-02 -5.6482456584697704e-01 +5.5673128095476473e-03
-8.8999999999999844e+00 +8.1507576156952659e+00 +0.0000000000000000e+00 -8.8999996233476750e+00 -2.9627838079893561e-02 -5.6482514550505003e-01 +5.5674262181909491e-03
-8.9999999999999840e+00 +8.1507069415470532e+00 +0.0000000000000000e+00 -8.9999996105081941e+00 -2.9627774833716744e-02 -5.6482573961493532e-01 +5.5675404141256168e-03
-9.0999999999999837e+00 +8.1506557011924343e+00 +0.0000000000000000e+00 -9.0999995973801902e+00 -2.9627712197933257e-02 -5.6482634750430194e-01 +5.5676554131111238e-03
-9.1999999999999833e+00 +8.1506038946308035e+00 +0.0000000000000000e+00 -9.1999995839604569e+00 -2.9627650119640230e-02 -5.6482696850086023e-01 +5.5677712309133570e-03
-9.2999999999999829e+00 +8.1505515218615390e+00 +0.0000000000000000e+00 -9.2999995702457880e+00 -2.9627588545916940e-02 -5.6482760193236248e-01 +5.5678878833047623e-03
-9.3999999999999826e+00 +8.1504985828840084e+00 +0.0000000000000000e+00 -9.3999995562329772e+00 -2.9627527423824036e-02 -5.6482824712660440e-01 +5.5680053860644859e-03
-9.4999999999999822e+00 +8.1504450776975670e+00 +0.0000000000000000e+00 -9.4999995419188181e+00 -2.9627466700402894e-02 -5.6482890341142578e-01 +5.5681237549785540e-03
-9.5999999999999819e+00 +8.1503910063015574e+00 +0.0000000000000000e+00 -9.5999995273001044e+00 -2.9627406322674930e-02 -5.6482957011471202e-01 +5.5682430058399948e-03
-9.6999999999999815e+00 +8.1503363686953136e+00 +0.0000000000000000e+00 -9.6999995123736298e+00 -2.9627346237640847e-02 -5.6483024656439440e-01 +5.5683631544490098e-03
-9.7999999999999812e+00 +8.1502811648781588e+00 +0.0000000000000000e+00 -9.7999994971361879e+00 -2.9627286392279999e-02 -5.6483093208845159e-01 +5.5684842166131322e-03
-9.8999999999999808e+00 +8.1502253948494090e+00 +0.0000000000000000e+00 -9.8999994815845724e+00 -2.9627226733549665e-02 -5.6483162601491022e-01 +5.5686062081473555e-03
-9.9999999999999805e+00 +8.1501690586083679e+00 +0.0000000000000000e+00 -9.9999994657155771e+00 -2.9627167208384351e-02 -5.6483232767184621e-01 +5.5687291448743024e-03
-1.0099999999999980e+01 +8.1501121561543357e+00 +0.0000000000000000e+00 -1.0099999449525995e+01 -2.9627107739341824e-02 -5.6483303630288118e-01 +5.5688530415441695e-03
-1.0199999999999980e+01 +8.1500546874866053e+00 +0.0000000000000000e+00 -1.0199999433012621e+01 -2.9627048151546268e-02 -5.6483375081362563e-01 +5.5689779085885058e-03
-1.0299999999999979e+01 +8.1499966526044609e+00 +0.0000000000000000e+00 -1.0299999416172248e+01 -2.9626988245757706e-02 -5.6483447002513176e-01 +5.5691037553509829e-03
-1.0399999999999979e+01 +8.1499380515071831e+00 +0.0000000000000000e+00 -1.0399999399001670e+01 -2.9626927822727082e-02 -5.6483519275838789e-01 +5.5692305911659865e-03
-1.0499999999999979e+01 +8.1498788841940488e+00 +0.0000000000000000e+00 -1.0499999381497680e+01 -2.9626866683195960e-02 -5.6483591783431730e-01 +5.5693584253583605e-03
-1.0599999999999978e+01 +8.1498191506643352e+00 +0.0000000000000000e+00 -1.0599999363657073e+01 -2.9626804627896245e-02 -5.6483664407377820e-01 +5.5694872672431197e-03
-1.0699999999999978e+01 +8.1497588509173156e+00 +0.0000000000000000e+00 -1.0699999345476639e+01 -2.9626741457549798e-02 -5.6483737029755920e-01 +5.5696171261252090e-03
-1.0799999999999978e+01 +8.1496979849522635e+00 +0.0000000000000000e+00 -1.0799999326953175e+01 -2.9626676972868249e-02 -5.6483809532637907e-01 +5.5697480112992187e-03
-1.0899999999999977e+01 +8.1496365527684542e+00 +0.0000000000000000e+00 -1.0899999308083475e+01 -2.9626610974552634e-02 -5.6483881798088509e-01 +5.5698799320491408e-03
-1.0999999999999977e+01 +8.1495745543651648e+00 +0.0000000000000000e+00 -1.0999999288864329e+01 -2.9626543263293070e-02 -5.6483953708165113e-01 +5.5700128976480827e-03
-1.1099999999999977e+01 +8.1495119897416775e+00 +0.0000000000000000e+00 -1.1099999269292534e+01 -2.9626473639768513e-02 -5.6484025144917482e-01 +5.5701469173580105e-03
-1.1199999999999976e+01 +8.1494488588972782e+00 +0.0000000000000000e+00 -1.1199999249364881e+01 -2.9626401904646427e-02 -5.6484095990387784e-01 +5.5702820004294926e-03
-1.1299999999999976e+01 +8.1493851618312583e+00 +0.0000000000000000e+00 -1.1299999229078164e+01 -2.9626327858582477e-02 -5.6484166126610236e-01 +5.5704181561014171e-03
-1.1399999999999975e+01 +8.1493208985429177e+00 +0.0000000000000000e+00 -1.1399999208429177e+01 -2.9626251302220231e-02 -5.6484235435611041e-01 +5.5705553936007445e-03
-1.1499999999999975e+01 +8.1492560690315621e+00 +0.0000000000000000e+00 -1.1499999187414714e+01 -2.9626172036190928e-02 -5.6484303799408198e-01 +5.5706937221422313e-03
-1.1599999999999975e+01 +8.1491906732965109e+00 +0.0000000000000000e+00 -1.1599999166031568e+01 -2.9626089861113033e-02 -5.6484371100011199e-01 +5.5708331509281622e-03
-1.1699999999999974e+01 +8.1491247113370893e+00 +0.0000000000000000e+00 -1.1699999144276530e+01 -2.9626004577592069e-02 -5.6484437219421024e-01 +5.5709736891480979e-03
