# field on trajectory
# s[mm] rx[mm] ry[mm] rz[mm] bx[T] by[T] bz[T]
-0.0000000000000000e+00 +8.1530000000000094e+00 +0.0000000000000000e+00 -0.0000000000000000e+00 -2.8068765877715059e-02 -5.3689089609395968e-01 +5.4073734107210518e-03
-1.0000000000000001e-01 +8.1529997159377707e+00 +0.0000000000000000e+00 -1.0008006405070299e-01 -2.8068843946912073e-02 -5.3689092242322511e-01 +5.4073564812165990e-03
-2.0000000000000001e-01 +8.1529988637557800e+00 +0.0000000000000000e+00 -2.0016012809818201e-01 -2.8068936740203273e-02 -5.3689095853171143e-01 +5.4073406905660202e-03
-2.9999999999999999e-01 +8.1529974434524792e+00 +0.0000000000000000e+00 -3.0024019213920999e-01 -2.8069042989587071e-02 -5.3689100470471507e-01 +5.4073260432019625e-03
-4.0000000000000002e-01 +8.1529954550242092e+00 +0.0000000000000000e+00 -4.0032025617056399e-01 -2.8069161427061222e-02 -5.3689106122753139e-01 +5.4073125435583598e-03
-5.0000000000000000e-01 +8.1529928984782600e+00 +0.0000000000000000e+00 -5.0040032018901703e-01 -2.8069290784617482e-02 -5.3689112838536057e-01 +5.4073001960693329e-03
-5.9999999999999998e-01 +8.1529897738146193e+00 +0.0000000000000000e+00 -6.0048038419134497e-01 -2.8069429794248417e-02 -5.3689120646344590e-01 +5.4072890051705506e-03
-6.9999999999999996e-01 +8.1529860810223909e+00 +0.0000000000000000e+00 -7.0056044817432195e-01 -2.8069577187948540e-02 -5.3689129574710370e-01 +5.4072789752994191e-03
-8.0000000000000004e-01 +8.1529818201124709e+00 +0.0000000000000000e+00 -8.0064051213472498e-01 -2.8069731697701217e-02 -5.3689139652148454e-01 +5.4072701108924762e-03
-9.0000000000000002e-01 +8.1529769910812302e+00 +0.0000000000000000e+00 -9.0072057606932698e-01 -2.8069892055492561e-02 -5.3689150907184457e-01 +5.4072624163881275e-03
-1.0000000000000000e+00 +8.1529715939250291e+00 +0.0000000000000000e+00 -1.0008006399749001e+00 -2.8070056993305524e-02 -5.3689163368344273e-01 +5.4072558962254564e-03
-1.1000000000000001e+00 +8.1529656286511507e+00 +0.0000000000000000e+00 -1.1008807038482300e+00 -2.8070225243115230e-02 -5.3689177064146121e-01 +5.4072505548432891e-03
-1.2000000000000000e+00 +8.1529590952522994e+00 +0.0000000000000000e+00 -1.2009607676860801e+00 -2.8070395536898756e-02 -5.3689192023119814e-01 +5.4072463966821022e-03
-1.3000000000000000e+00 +8.1529519937357708e+00 +0.0000000000000000e+00 -1.3010408314852300e+00 -2.8070566606623350e-02 -5.3689208273785527e-01 +5.4072434261816906e-03
-1.3999999999999999e+00 +8.1529443240979198e+00 +0.0000000000000000e+00 -1.4011208952424601e+00 -2.8070737184256143e-02 -5.3689225844672850e-01 +5.4072416477830591e-03
-1.5000000000000000e+00 +8.1529360863350995e+00 +0.0000000000000000e+00 -1.5012009589545301e+00 -2.8070906001759616e-02 -5.3689244764313193e-01 +5.4072410659275110e-03
-1.6000000000000001e+00 +8.1529272804509691e+00 +0.0000000000000000e+00 -1.6012810226182299e+00 -2.8071071791088417e-02 -5.3689265061234603e-01 +5.4072416850560042e-03
-1.7000000000000000e+00 +8.1529179064491508e+00 +0.0000000000000000e+00 -1.7013610862303301e+00 -2.8071233284191911e-02 -5.3689286763967492e-01 +5.4072435096096348e-03
-1.8000000000000000e+00 +8.1529079643223703e+00 +0.0000000000000000e+00 -1.8014411497875999e+00 -2.8071389213018164e-02 -5.3689309901052951e-01 +5.4072465440304189e-03
-1.8999999999999999e+00 +8.1528974540779000e+00 +0.0000000000000000e+00 -1.9015212132868200e+00 -2.8071538309503739e-02 -5.3689334501024422e-01 +5.4072507927592330e-03
-2.0000000000000000e+00 +8.1528863757084800e+00 +0.0000000000000000e+00 -2.0016012767247702e+00 -2.8071679305585604e-02 -5.3689360592429147e-01 +5.4072562602379233e-03
-2.1000000000000001e+00 +8.1528747292177304e+00 +0.0000000000000000e+00 -2.1016813400982199e+00 -2.8071811171374195e-02 -5.3689388183590159e-01 +5.4072629304474183e-03
-2.2000000000000002e+00 +8.1528625146056601e+00 +0.0000000000000000e+00 -2.2017614034039301e+00 -2.8071933785077233e-02 -5.3689417205745171e-01 +5.4072707093633316e-03
-2.2999999999999998e+00 +8.1528497318759001e+00 +0.0000000000000000e+00 -2.3018414666387002e+00 -2.8072047241288357e-02 -5.3689447571760052e-01 +5.4072794843732057e-03
-2.3999999999999999e+00 +8.1528363810211903e+00 +0.0000000000000000e+00 -2.4019215297993002e+00 -2.8072151634611402e-02 -5.3689479194508105e-01 +5.4072891428647383e-03
-2.5000000000000000e+00 +8.1528224620451493e+00 +0.0000000000000000e+00 -2.5020015928824901e+00 -2.8072247059652812e-02 -5.3689511986854077e-01 +5.4072995722239947e-03
-2.6000000000000001e+00 +8.1528079749477893e+00 +0.0000000000000000e+00 -2.6020816558850601e+00 -2.8072333611028431e-02 -5.3689545861664367e-01 +5.4073106598364253e-03
-2.7000000000000002e+00 +8.1527929197291105e+00 +0.0000000000000000e+00 -2.7021617188037701e+00 -2.8072411383363013e-02 -5.3689580731804321e-01 +5.4073222930864822e-03
-2.7999999999999998e+00 +8.1527772963891003e+00 +0.0000000000000000e+00 -2.8022417816354102e+00 -2.8072480471291350e-02 -5.3689616510138038e-01 +5.4073343593575096e-03
-2.8999999999999999e+00 +8.1527611049277802e+00 +0.0000000000000000e+00 -2.9023218443767500e+00 -2.8072540969459200e-02 -5.3689653109528157e-01 +5.4073467460316405e-03
-3.0000000000000000e+00 +8.1527443453451305e+00 +0.0000000000000000e+00 -3.0024019070245598e+00 -2.8072592972524419e-02 -5.3689690442835603e-01 +5.4073593404896925e-03
-3.1000000000000001e+00 +8.1527270176411495e+00 +0.0000000000000000e+00 -3.1024819695756198e+00 -2.8072636575157853e-02 -5.3689728422919558e-01 +5.4073720301110609e-03
-3.2000000000000002e+00 +8.1527091218158603e+00 +0.0000000000000000e+00 -3.2025620320267101e+00 -2.8072671872044493e-02 -5.3689766962637053e-01 +5.4073847022736172e-03
-3.2999999999999998e+00 +8.1526906578692397e+00 +0.0000000000000000e+00 -3.3026420943745900e+00 -2.8072698957884452e-02 -5.3689805974842952e-01 +5.4073972443535968e-03
-3.3999999999999999e+00 +8.1526716258013003e+00 +0.0000000000000000e+00 -3.4027221566160502e+00 -2.8072717927393926e-02 -5.3689845372389655e-01 +5.4074095437254997e-03
-3.5000000000000000e+00 +8.1526520256120403e+00 +0.0000000000000000e+00 -3.5028022187478500e+00 -2.8072728875306350e-02 -5.3689885068127041e-01 +5.4074214877619896e-03
-3.6000000000000001e+00 +8.1526318572978198e+00 +0.0000000000000000e+00 -3.6028822807667802e+00 -2.8072731896374728e-02 -5.3689924974904701e-01 +5.4074329638340544e-03
-3.7000000000000002e+00 +8.1526111208659096e+00 +0.0000000000000000e+00 -3.7029623426696099e+00 -2.8072727085367052e-02 -5.3689965005561369e-01 +5.4074438593097948e-03
-3.7999999999999998e+00 +8.1525898163126804e+00 +0.0000000000000000e+00 -3.8030424044531101e+00 -2.8072714537075782e-02 -5.3690005072940439e-01 +5.4074540615559920e-03
-3.8999999999999999e+00 +8.1525679436344909e+00 +0.0000000000000000e+00 -3.9031224661140600e+00 -2.8072694346314681e-02 -5.3690045089882099e-01 +5.4074634579371669e-03
-4.0000000000000000e+00 +8.1525455028386205e+00 +0.0000000000000000e+00 -4.0032025276492398e+00 -2.8072666607919180e-02 -5.3690084969215057e-01 +5.4074719358163294e-03
-4.0999999999999996e+00 +8.1525224939177896e+00 +0.0000000000000000e+00 -4.1032825890554099e+00 -2.8072631538904276e-02 -5.3690124631828762e-01 +5.4074794394776615e-03
-4.2000000000000002e+00 +8.1524989168792708e+00 +0.0000000000000000e+00 -4.2033626503293604e+00 -2.8072589800215524e-02 -5.3690164027868792e-01 +5.4074861200746442e-03
-4.2999999999999998e+00 +8.1524747717157897e+00 +0.0000000000000000e+00 -4.3034427114678504e+00 -2.8072542153604871e-02 -5.3690203114138069e-01 +5.4074921757448742e-03
-4.4000000000000004e+00 +8.1524500584346207e+00 +0.0000000000000000e+00 -4.4035227724676700e+00 -2.8072489360797228e-02 -5.3690241847428666e-01 +5.4074978046271538e-03
-4.5000000000000000e+00 +8.1524247770285001e+00 +0.0000000000000000e+00 -4.5036028333255800e+00 -2.8072432183500157e-02 -5.3690280184543215e-01 +5.4075032048639471e-03
-4.5999999999999996e+00 +8.1523989275046898e+00 +0.0000000000000000e+00 -4.6036828940383696e+00 -2.8072371383390901e-02 -5.3690318082273480e-01 +5.4075085745992728e-03
-4.7000000000000002e+00 +8.1523725098559208e+00 +0.0000000000000000e+00 -4.7037629546028104e+00 -2.8072307722126089e-02 -5.3690355497421882e-01 +5.4075141119811678e-03
-4.7999999999999998e+00 +8.1523455240894709e+00 +0.0000000000000000e+00 -4.8038430150156701e+00 -2.8072241961328796e-02 -5.3690392386780117e-01 +5.4075200151595913e-03
-4.9000000000000004e+00 +8.1523179701980606e+00 +0.0000000000000000e+00 -4.9039230752737302e+00 -2.8072174862598227e-02 -5.3690428707150528e-01 +5.4075264822888748e-03
-5.0000000000000000e+00 +8.1522898481889605e+00 +0.0000000000000000e+00 -5.0040031353737602e+00 -2.8072107187496722e-02 -5.3690464415324879e-01 +5.4075337115256231e-03
-5.0999999999999996e+00 +8.1522611580549000e+00 +0.0000000000000000e+00 -5.1040831953125396e+00 -2.8072039697559555e-02 -5.3690499468105657e-01 +5.4075419010311760e-03
-5.2000000000000002e+00 +8.1522318997995207e+00 +0.0000000000000000e+00 -5.2041632550868497e+00 -2.8071973154283274e-02 -5.3690533822287412e-01 +5.4075512489697875e-03
-5.2999999999999998e+00 +8.1522020734228100e+00 +0.0000000000000000e+00 -5.3042433146934496e+00 -2.8071908319129847e-02 -5.3690567434667613e-01 +5.4075619535099541e-03
-5.4000000000000004e+00 +8.1521716789247893e+00 +0.0000000000000000e+00 -5.4043233741291203e+00 -2.8071845953523484e-02 -5.3690600262043853e-01 +5.4075742128242878e-03
-5.5000000000000000e+00 +8.1521407163090807e+00 +0.0000000000000000e+00 -5.5044034333906504e+00 -2.8071786818847734e-02 -5.3690632261211269e-01 +5.4075882250894354e-03
-5.5999999999999996e+00 +8.1521091855684098e+00 +0.0000000000000000e+00 -5.6044834924747899e+00 -2.8071731676449448e-02 -5.3690663388973370e-01 +5.4076041884873732e-03
-5.7000000000000002e+00 +8.1520770867064094e+00 +0.0000000000000000e+00 -5.7045635513783299e+00 -2.8071681287628616e-02 -5.3690693602125850e-01 +5.4076223012038908e-03
-5.7999999999999998e+00 +8.1520444197231008e+00 +0.0000000000000000e+00 -5.8046436100980499e+00 -2.8071636413642444e-02 -5.3690722857467532e-01 +5.4076427614298964e-03
-5.9000000000000004e+00 +8.1520111846184609e+00 +0.0000000000000000e+00 -5.9047236686307096e+00 -2.8071597815702332e-02 -5.3690751111797497e-01 +5.4076657673613271e-03
-5.9999999999999902e+00 +8.1519773813925003e+00 +0.0000000000000000e+00 -6.0048037269731003e+00 -2.8071566254957651e-02 -5.3690778321918697e-01 +5.4076915171905179e-03
-6.0999999999999899e+00 +8.1519430100452208e+00 +0.0000000000000000e+00 -6.1048837851219799e+00 -2.8071542341242709e-02 -5.3690804478932919e-01 +5.4077201176126266e-03
-6.1999999999999904e+00 +8.1519080705766100e+00 +0.0000000000000000e+00 -6.2049638430741396e+00 -2.8071526160261095e-02 -5.3690829692780373e-01 +5.4077513582891350e-03
-6.2999999999999901e+00 +8.1518725629866804e+00 +0.0000000000000000e+00 -6.3050439008263499e+00 -2.8071517684297762e-02 -5.3690854099123264e-01 +5.4077849602654502e-03
-6.3999999999999897e+00 +8.1518364872754301e+00 +0.0000000000000000e+00 -6.4051239583753699e+00 -2.8071516885657909e-02 -5.3690877833625827e-01 +5.4078206445872332e-03
-6.4999999999999902e+00 +8.1517998434428591e+00 +0.0000000000000000e+00 -6.5052040157180002e+00 -2.8071523736668109e-02 -5.3690901031954508e-01 +5.4078581323003614e-03
-6.5999999999999899e+00 +8.1517626314889604e+00 +0.0000000000000000e+00 -6.6052840728510001e+00 -2.8071538209677584e-02 -5.3690923829778026e-01 +5.4078971444508966e-03
-6.6999999999999904e+00 +8.1517248514137499e+00 +0.0000000000000000e+00 -6.7053641297711399e+00 -2.8071560277059437e-02 -5.3690946362767467e-01 +5.4079374020850491e-03
-6.7999999999999901e+00 +8.1516865032135701e+00 +0.0000000000000000e+00 -6.8054441864752100e+00 -2.8071589911213290e-02 -5.3690968766599145e-01 +5.4079786262494151e-03
-6.8999999999999897e+00 +8.1516475868957095e+00 +0.0000000000000000e+00 -6.9055242429599701e+00 -2.8071627084560721e-02 -5.3690991176943781e-01 +5.4080205379898137e-03
-6.9999999999999902e+00 +8.1516081024565192e+00 +0.0000000000000000e+00 -7.0056042992222096e+00 -2.8071671769555218e-02 -5.3691013729482895e-01 +5.4080628583529494e-03
-7.0999999999999899e+00 +8.1515680498960101e+00 +0.0000000000000000e+00 -7.1056843552586999e+00 -2.8071723938677504e-02 -5.3691036559898087e-01 +5.4081053083852425e-03
-7.1999999999999904e+00 +8.1515274292141804e+00 +0.0000000000000000e+00 -7.2057644110662000e+00 -2.8071783564438315e-02 -5.3691059803873753e-01 +5.4081476091330724e-03
-7.2999999999999901e+00 +8.1514862404073902e+00 +0.0000000000000000e+00 -7.3058444666415099e+00 -2.8071850619380979e-02 -5.3691083597099931e-01 +5.4081894816430300e-03
-7.3999999999999897e+00 +8.1514444834829192e+00 +0.0000000000000000e+00 -7.4059245219813796e+00 -2.8071925076076979e-02 -5.3691108075261773e-01 +5.4082306469607445e-03
-7.4999999999999902e+00 +8.1514021584334806e+00 +0.0000000000000000e+00 -7.5060045770826100e+00 -2.8072006907137126e-02 -5.3691133374058186e-01 +5.4082708261328346e-03
-7.5999999999999899e+00 +8.1513592652663593e+00 +0.0000000000000000e+00 -7.6060846319419504e+00 -2.8072096085201385e-02 -5.3691159629180663e-01 +5.4083097402046034e-03
-7.6999999999999904e+00 +8.1513158039779192e+00 +0.0000000000000000e+00 -7.7061646865561997e+00 -2.8072192582950069e-02 -5.3691186976332050e-01 +5.4083471102219808e-03
-7.7999999999999901e+00 +8.1512717745681602e+00 +0.0000000000000000e+00 -7.8062447409221098e+00 -2.8072296373099385e-02 -5.3691215551215965e-01 +5.4083826572303689e-03
-7.8999999999999897e+00 +8.1512271770334301e+00 +0.0000000000000000e+00 -7.9063247950364799e+00 -2.8072407428405426e-02 -5.3691245489542161e-01 +5.4084161022751607e-03
-7.9999999999999902e+00 +8.1511820113773901e+00 +0.0000000000000000e+00 -8.0064048488960609e+00 -2.8072525721625441e-02 -5.3691276927007725e-01 +5.4084471664237587e-03
-8.0999999999999908e+00 +8.1511362776036496e+00 +0.0000000000000000e+00 -8.1064849024976393e+00 -2.8072651061109361e-02 -5.3691309948383603e-01 +5.4084756758669330e-03
-8.1999999999999904e+00 +8.1510899757086008e+00 +0.0000000000000000e+00 -8.2065649558379903e+00 -2.8072782711924330e-02 -5.3691344470181546e-01 +5.4085018041117256e-03
-8.2999999999999901e+00 +8.1510431056885899e+00 +0.0000000000000000e+00 -8.3066450089139003e+00 -2.8072919827108703e-02 -5.3691380374210140e-01 +5.4085257962893886e-03
-8.3999999999999897e+00 +8.1509956675508892e+00 +0.0000000000000000e+00 -8.4067250617221205e+00 -2.8073061559718268e-02 -5.3691417542268793e-01 +5.4085478975250834e-03
-8.4999999999999893e+00 +8.1509476612882299e+00 +0.0000000000000000e+00 -8.5068051142594392e+00 -2.8073207062836707e-02 -5.3691455856166392e-01 +5.4085683529396661e-03
-8.5999999999999908e+00 +8.1508990869078808e+00 +0.0000000000000000e+00 -8.6068851665226305e+00 -2.8073355489564820e-02 -5.3691495197699823e-01 +5.4085874076472522e-03
-8.6999999999999904e+00 +8.1508499444025801e+00 +0.0000000000000000e+00 -8.7069652185084596e+00 -2.8073505993032464e-02 -5.3691535448675443e-01 +5.4086053067572987e-03
-8.7999999999999794e+00 +8.1508002337759500e+00 +0.0000000000000000e+00 -8.8070452702137203e+00 -2.8073657726389117e-02 -5.3691576490890136e-01 +5.4086222953724462e-03
-8.8999999999999808e+00 +8.1507499550316407e+00 +0.0000000000000000e+00 -8.9071253216351796e+00 -2.8073809842808731e-02 -5.3691618206139335e-01 +5.4086386185891767e-03
-8.9999999999999805e+00 +8.1506991081623692e+00 +0.0000000000000000e+00 -9.0072053727696098e+00 -2.8073961495494553e-02 -5.3691660476225089e-01 +5.4086545214984986e-03
-9.0999999999999801e+00 +8.1506476931717806e+00 +0.0000000000000000e+00 -9.1072854236137797e+00 -2.8074111837671171e-02 -5.3691703182939843e-01 +5.4086702491840605e-03
-9.1999999999999797e+00 +8.1505957100635005e+00 +0.0000000000000000e+00 -9.2073654741644795e+00 -2.8074260022589306e-02 -5.3691746208074431e-01 +5.4086860467228116e-03
-9.2999999999999794e+00 +8.1505431588302599e+00 +0.0000000000000000e+00 -9.3074455244184708e+00 -2.8074405203530661e-02 -5.3691789433426140e-01 +5.4087021591856842e-03
-9.3999999999999808e+00 +8.1504900394757005e+00 +0.0000000000000000e+00 -9.4075255743725297e+00 -2.8074546533799934e-02 -5.3691832740782341e-01 +5.4087188316357003e-03
-9.4999999999999805e+00 +8.1504363520034495e+00 +0.0000000000000000e+00 -9.5076056240234408e+00 -2.8074683166729703e-02 -5.3691876011928885e-01 +5.4087363091286523e-03
-9.5999999999999801e+00 +8.1503820964062506e+00 +0.0000000000000000e+00 -9.6076856733679694e+00 -2.8074814255685199e-02 -5.3691919128657684e-01 +5.4087548367137703e-03
-9.6999999999999797e+00 +8.1503272726913600e+00 +0.0000000000000000e+00 -9.7077657224029004e+00 -2.8074938954054905e-02 -5.3691961972748059e-01 +5.4087746594315388e-03
-9.7999999999999794e+00 +8.1502718808515109e+00 +0.0000000000000000e+00 -9.8078457711250007e+00 -2.8075056415262582e-02 -5.3692004425988205e-01 +5.4087960223158102e-03
-9.8999999999999808e+00 +8.1502159208903304e+00 +0.0000000000000000e+00 -9.9079258195310498e+00 -2.8075165792757779e-02 -5.3692046370156254e-01 +5.4088191703916171e-03
-9.9999999999999805e+00 +8.1501593928078400e+00 +0.0000000000000000e+00 -1.0008005867617801e+01 -2.8075266240162339e-02 -5.3692087687050172e-01 +5.4088443486500675e-03
-1.0100000000000000e+01 +8.1501022966040200e+00 +0.0000000000000000e+00 -1.0108085915382100e+01 -2.8075357255479761e-02 -5.3692128305643971e-01 +5.4088717380382859e-03
-1.0199999999999999e+01 +8.1500446322825209e+00 +0.0000000000000000e+00 -1.0208165962820599e+01 -2.8075439421842201e-02 -5.3692168303575372e-01 +5.4089013177081339e-03
-1.0300000000000001e+01 +8.1499863998360507e+00 +0.0000000000000000e+00 -1.0308246009930199e+01 -2.8075513535550798e-02 -5.3692207787697876e-01 +5.4089330271674674e-03
-1.0400000000000000e+01 +8.1499275992682705e+00 +0.0000000000000000e+00 -1.0408326056707599e+01 -2.8075580392847251e-02 -5.3692246864852833e-01 +5.4089668059286939e-03
-1.0500000000000000e+01 +8.1498682305791608e+00 +0.0000000000000000e+00 -1.0508406103149600e+01 -2.8075640789917925e-02 -5.3692285641880144e-01 +5.4090025935100705e-03
-1.0600000000000000e+01 +8.1498082937723701e+00 +0.0000000000000000e+00 -1.0608486149253000e+01 -2.8075695522889518e-02 -5.3692324225612953e-01 +5.4090403294353041e-03
-1.0699999999999999e+01 +8.1497477888406102e+00 +0.0000000000000000e+00 -1.0708566195014500e+01 -2.8075745387833115e-02 -5.3692362722887954e-01 +5.4090799532348303e-03
-1.0800000000000001e+01 +8.1496867157875403e+00 +0.0000000000000000e+00 -1.0808646240430900e+01 -2.8075791180754196e-02 -5.3692401240529453e-01 +5.4091214044442943e-03
-1.0900000000000000e+01 +8.1496250746131391e+00 +0.0000000000000000e+00 -1.0908726285499000e+01 -2.8075833697596711e-02 -5.3692439885359955e-01 +5.4091646226058368e-03
-1.1000000000000000e+01 +8.1495628653174208e+00 +0.0000000000000000e+00 -1.1008806330215601e+01 -2.8075873734240107e-02 -5.3692478764197349e-01 +5.4092095472679626e-03
-1.1100000000000000e+01 +8.1495000879040198e+00 +0.0000000000000000e+00 -1.1108886374577500e+01 -2.8075912086496346e-02 -5.3692517983852028e-01 +5.4092561179854394e-03
-1.1199999999999999e+01 +8.1494367423620098e+00 +0.0000000000000000e+00 -1.1208966418581401e+01 -2.8075949550115505e-02 -5.3692557651140460e-01 +5.4093042743208640e-03
-1.1300000000000001e+01 +8.1493728287059604e+00 +0.0000000000000000e+00 -1.1309046462224000e+01 -2.8075986920768486e-02 -5.3692597872855263e-01 +5.4093539558417014e-03
-1.1400000000000000e+01 +8.1493083469249505e+00 +0.0000000000000000e+00 -1.1409126505502300e+01 -2.8076024994065484e-02 -5.3692638755802991e-01 +5.4094051021244347e-03
-1.1500000000000000e+01 +8.1492432970226201e+00 +0.0000000000000000e+00 -1.1509206548412800e+01 -2.8076064565538673e-02 -5.3692680406774196e-01 +5.4094576527515831e-03
-1.1600000000000000e+01 +8.1491776789989707e+00 +0.0000000000000000e+00 -1.1609286590952600e+01 -2.8076106430647802e-02 -5.3692722932556980e-01 +5.4095115473133020e-03
-1.1699999999999999e+01 +8.1491114928576298e+00 +0.0000000000000000e+00 -1.1709366633118099e+01 -2.8076151384775830e-02 -5.3692766439931461e-01 +5.4095667254069691e-03
