# multipoles
# s[mm] polynom_b[n=0][T/m^n] polynom_b[n=1][T/m^n] polynom_b[n=2][T/m^n] polynom_b[n=3][T/m^n] polynom_b[n=4][T/m^n] polynom_b[n=5][T/m^n] polynom_b[n=6][T/m^n] 
-0.0000000000000000e+00 -5.3689375771533554e-01 +7.3497358299812490e+00 -9.1200073779637192e-01 -7.2763267243349773e+01 +5.5367042897381853e+03 +1.8330830268748532e+05 -3.0120713459210709e+07 
-1.0000000000000001e-01 -5.3689379705681506e-01 +7.3497603588461473e+00 -9.1891755727401447e-01 -7.2992007721872326e+01 +5.6244891275207774e+03 +1.8440785087359385e+05 -3.0436419632048398e+07 
-2.0000000000000001e-01 -5.3689385357092190e-01 +7.3497807323222952e+00 -9.2585355776308920e-01 -7.3128556344704350e+01 +5.7180741858884403e+03 +1.8506194263775946e+05 -3.0792562618307080e+07 
-2.9999999999999999e-01 -5.3689392675945469e-01 +7.3497972685216544e+00 -9.3275856480487551e-01 -7.3182294133609190e+01 +5.8163089513870691e+03 +1.8532061231995051e+05 -3.1183228359117419e+07 
-4.0000000000000002e-01 -5.3689401612423659e-01 +7.3498102855545078e+00 -9.3958240191427123e-01 -7.3162602091696399e+01 +5.9180428671940563e+03 +1.8523389428569938e+05 -3.1602502579942938e+07 
-5.0000000000000000e-01 -5.3689412116697344e-01 +7.3498201015265545e+00 -9.4627489651982966e-01 -7.3078861122760387e+01 +6.0221254452934754e+03 +1.8485182246356507e+05 -3.2044471321093157e+07 
-5.9999999999999998e-01 -5.3689424138943176e-01 +7.3498270345471450e+00 -9.5278587513930491e-01 -7.2940452266658880e+01 +6.1274061792204548e+03 +1.8422443169742316e+05 -3.2503220534379125e+07 
-6.9999999999999996e-01 -5.3689437629345804e-01 +7.3498314027124740e+00 -9.5906516365779682e-01 -7.2756756206095162e+01 +6.2327345491381893e+03 +1.8340175486001241e+05 -3.2972836108984951e+07 
-8.0000000000000004e-01 -5.3689452538070503e-01 +7.3498335241235182e+00 -9.6506259167025554e-01 -7.2537153788107844e+01 +6.3369601021405279e+03 +1.8243382588184447e+05 -3.3447404247377373e+07 
-9.0000000000000002e-01 -5.3689468815294406e-01 +7.3498337168760379e+00 -9.7072798649460879e-01 -7.2291025721517400e+01 +6.4389323402635146e+03 +1.8137067795095715e+05 -3.3921010938740522e+07 
-1.0000000000000000e+00 -5.3689486411197840e-01 +7.3498322990614655e+00 -9.7601117145843275e-01 -7.2027752605881048e+01 +6.5375006923682085e+03 +1.8026234368282175e+05 -3.4387741837243386e+07 
-1.1000000000000001e+00 -5.3689505275948479e-01 +7.3498295887677667e+00 -9.8086197520221730e-01 -7.1756714956264759e+01 +6.6315146881384044e+03 +1.7915885526592232e+05 -3.4841683082984693e+07 
-1.2000000000000000e+00 -5.3689525359728041e-01 +7.3498259040833407e+00 -9.8523022177996833e-01 -7.1487293303028039e+01 +6.7198237710753401e+03 +1.7811024498950830e+05 -3.5276920415470883e+07 
-1.3000000000000000e+00 -5.3689546612707817e-01 +7.3498215630872847e+00 -9.8906573436781076e-01 -7.1228867912680286e+01 +6.8012773704923720e+03 +1.7716654362939115e+05 -3.5687539522745103e+07 
-1.3999999999999999e+00 -5.3689568985069291e-01 +7.3498168838601163e+00 -9.9231833308162098e-01 -7.0990819093233284e+01 +6.8747248590401323e+03 +1.7637778220426521e+05 -3.6067625835721582e+07 
-1.5000000000000000e+00 -5.3689592426993704e-01 +7.3498121844787017e+00 -9.9493783833103289e-01 -7.0782527045085544e+01 +6.9390156223001113e+03 +1.7579399109346740e+05 -3.6411264876003474e+07 
-1.6000000000000001e+00 -5.3689616888659342e-01 +7.3498077830117632e+00 -9.9687406691659552e-01 -7.0613371724394938e+01 +6.9929989787865879e+03 +1.7546519922046681e+05 -3.6712541860429645e+07 
-1.7000000000000000e+00 -5.3689642320246522e-01 +7.3498039975315939e+00 -9.9807683278854609e-01 -7.0492733177003075e+01 +7.0355241986761430e+03 +1.7544143597147174e+05 -3.6965541802812465e+07 
-1.8000000000000000e+00 -5.3689668671946222e-01 +7.3498011461014459e+00 -9.9849594647982964e-01 -7.0429991174507919e+01 +7.0654404935480106e+03 +1.7577272908519339e+05 -3.7164349466244929e+07 
-1.8999999999999999e+00 -5.3689695893939426e-01 +7.3497995467850394e+00 -9.9808121729762955e-01 -7.0434525490903468e+01 +7.0815970591136656e+03 +1.7650910625185218e+05 -3.7303049571760908e+07 
-2.0000000000000000e+00 -5.3689723936422729e-01 +7.3497995176348763e+00 -9.9678244839994978e-01 -7.0515715548964366e+01 +7.0828429815668305e+03 +1.7770059302103365e+05 -3.7375726349664703e+07 
-2.1000000000000001e+00 -5.3689752752732278e-01 +7.3498012930655916e+00 -9.9457001341980189e-01 -7.0680056881161434e+01 +7.0684386336242887e+03 +1.7938080252568171e+05 -3.7378434369784690e+07 
-2.2000000000000002e+00 -5.3689782307431644e-01 +7.3498047956785726e+00 -9.9149274438449919e-01 -7.0923190238713886e+01 +7.0391976551506614e+03 +1.8152152868658380e+05 -3.7314639343410902e+07 
-2.2999999999999998e+00 -5.3689812567562945e-01 +7.3498098754526744e+00 -9.8761819150873298e-01 -7.1238202564455136e+01 +6.9963005711995902e+03 +1.8408001061404956e+05 -3.7189550353168696e+07 
-2.3999999999999999e+00 -5.3689843500179302e-01 +7.3498163823608529e+00 -9.8301390170144742e-01 -7.1618180641229486e+01 +6.9409278465571861e+03 +1.8701348648869389e+05 -3.7008376195842125e+07 
-2.5000000000000000e+00 -5.3689875072324544e-01 +7.3498241663772115e+00 -9.7774742355549671e-01 -7.2056211279107998e+01 +6.8742599761253414e+03 +1.9027919459546296e+05 -3.6776325798237853e+07 
-2.6000000000000001e+00 -5.3689907251044089e-01 +7.3498330774808158e+00 -9.7188630731277725e-01 -7.2545381451825719e+01 +6.7974774871915824e+03 +1.9383437418401355e+05 -3.6498608234948985e+07 
-2.7000000000000002e+00 -5.3689940003382841e-01 +7.3498429656531359e+00 -9.6549810435626338e-01 -7.3078778192757042e+01 +6.7117609277960028e+03 +1.9763626478121715e+05 -3.6180432665364608e+07 
-2.7999999999999998e+00 -5.3689973296384452e-01 +7.3498536808715098e+00 -9.5865036780225155e-01 -7.3649488442849929e+01 +6.6182908782246714e+03 +2.0164210540701629e+05 -3.5827008389086448e+07 
-2.8999999999999999e+00 -5.3690007097090753e-01 +7.3498650731250246e+00 -9.5141065351734821e-01 -7.4250599467512359e+01 +6.5182479690488899e+03 +2.0580913687312929e+05 -3.5443544924467266e+07 
-3.0000000000000000e+00 -5.3690041372543229e-01 +7.3498769923973768e+00 -9.4384651838428490e-01 -7.4875198399155963e+01 +6.4128128503402168e+03 +2.1009459923229099e+05 -3.5035251869331136e+07 
-3.1000000000000001e+00 -5.3690076089780869e-01 +7.3498892886835181e+00 -9.3602552277170292e-01 -7.5516372696079955e+01 +6.3031662340739022e+03 +2.1445573437475506e+05 -3.4607339085396782e+07 
-3.2000000000000002e+00 -5.3690111215842440e-01 +7.3499018119766015e+00 -9.2801522805892267e-01 -7.6167209777853856e+01 +6.1904888529814862e+03 +2.1884978393982409e+05 -3.4165016521003500e+07 
-3.2999999999999998e+00 -5.3690146717763454e-01 +7.3499144122762035e+00 -9.1988320004752433e-01 -7.6820797256897094e+01 +6.0759615171264941e+03 +2.2323399065144206e+05 -3.3713494452772073e+07 
-3.3999999999999999e+00 -5.3690182562576838e-01 +7.3499269395893432e+00 -9.1169700908473728e-01 -7.7470222964468135e+01 +5.9607651261115388e+03 +2.2756559844467483e+05 -3.3257983571200773e+07 
-3.5000000000000000e+00 -5.3690218717314764e-01 +7.3499392439231226e+00 -9.0352422652573183e-01 -7.8108574753851030e+01 +5.8460805909332576e+03 +2.3180185137237603e+05 -3.2803694576544419e+07 
-3.6000000000000001e+00 -5.3690255149010624e-01 +7.3499511752946853e+00 -8.9543242658700350e-01 -7.8728940774960591e+01 +5.7330888759474346e+03 +2.3589999515158884e+05 -3.2355838396840382e+07 
-3.7000000000000002e+00 -5.3690291824684666e-01 +7.3499625837231486e+00 -8.8748919097676982e-01 -7.9324409239349109e+01 +5.6229710851642049e+03 +2.3981727580246981e+05 -3.1919626589652073e+07 
-3.7999999999999998e+00 -5.3690328711364865e-01 +7.3499733192377397e+00 -8.7976210231574914e-01 -7.9888068672651130e+01 +5.5169083349972634e+03 +2.4351094114441506e+05 -3.1500270731553916e+07 
-3.8999999999999999e+00 -5.3690365776073823e-01 +7.3499832318736127e+00 -8.7231875097599465e-01 -8.0413007775050218e+01 +5.4160818860780646e+03 +2.4693823994337430e+05 -3.1102983048508663e+07 
-4.0000000000000000e+00 -5.3690402985825258e-01 +7.3499921716774379e+00 -8.6522672876590079e-01 -8.0892315610846325e+01 +5.3216730158645005e+03 +2.5005642303165683e+05 -3.0732975790225476e+07 
-4.0999999999999996e+00 -5.3690440301545361e-01 +7.3500000234637399e+00 -8.5854329738206181e-01 -8.1320527369522551e+01 +5.2346242699526883e+03 +2.5283189981084512e+05 -3.0394300550150953e+07 
-4.2000000000000002e+00 -5.3690477662828440e-01 +7.3500067894721175e+00 -8.5228780565399065e-01 -8.1697235814592375e+01 +5.1550213169639501e+03 +2.5526345895962714e+05 -3.0086893676828913e+07 
-4.2999999999999998e+00 -5.3690515004624528e-01 +7.3500124966182572e+00 -8.4647090222776555e-01 -8.2023139882153814e+01 +5.0827575377221337e+03 +2.5735705508873472e+05 -2.9809779809567761e+07 
-4.4000000000000004e+00 -5.3690552261876090e-01 +7.3500171718319303e+00 -8.4110323197776915e-01 -8.2298938846241441e+01 +5.0177262402611595e+03 +2.5911864456911417e+05 -2.9561983237751532e+07 
-4.5000000000000000e+00 -5.3690589369533037e-01 +7.3500208420409914e+00 -8.3619544385639666e-01 -8.2525331848577480e+01 +4.9598208065050749e+03 +2.6055418280023729e+05 -2.9342528591405295e+07 
-4.5999999999999996e+00 -5.3690626262535890e-01 +7.3500235341872662e+00 -8.3175818581881067e-01 -8.2703018354661211e+01 +4.9089346000464184e+03 +2.6166962683413565e+05 -2.9150440415036887e+07 
-4.7000000000000002e+00 -5.3690662875835360e-01 +7.3500252752171065e+00 -8.2780210677046262e-01 -8.2832697884945929e+01 +4.8649610029938785e+03 +2.6247093384184525e+05 -2.8984743342609331e+07 
-4.7999999999999998e+00 -5.3690699144371090e-01 +7.3500260920847156e+00 -8.2433785611151855e-01 -8.2915070090743257e+01 +4.8277934012616570e+03 +2.6296406149251509e+05 -2.8844462010870911e+07 
-4.9000000000000004e+00 -5.3690735003092749e-01 +7.3500260117490201e+00 -8.2137608453407940e-01 -8.2950834672747249e+01 +4.7973252074481352e+03 +2.6315496751452819e+05 -2.8728621191238191e+07 
-5.0000000000000000e+00 -5.3690770386941178e-01 +7.3500250611830653e+00 -8.1892744097503989e-01 -8.2940691642402584e+01 +4.7734497989009369e+03 +2.6304961117427831e+05 -2.8636245483116377e+07 
-5.0999999999999996e+00 -5.3690805230864258e-01 +7.3500232673614478e+00 -8.1700257875369298e-01 -8.2885340959652424e+01 +4.7560606344893140e+03 +2.6265395119146234e+05 -2.8566359872069221e+07 
-5.2000000000000002e+00 -5.3690839469806673e-01 +7.3500206572708313e+00 -8.1561214587993647e-01 -8.2785482822878933e+01 +4.7450510704941562e+03 +2.6197394738014479e+05 -2.8517988851672959e+07 
-5.2999999999999998e+00 -5.3690873038710973e-01 +7.3500172579069094e+00 -8.1476679651089368e-01 -8.2641817589792410e+01 +4.7403145792463247e+03 +2.6101556021363923e+05 -2.8490157470034175e+07 
-5.4000000000000004e+00 -5.3690905872521222e-01 +7.3500130962729031e+00 -8.1447718318964546e-01 -8.2455045716257686e+01 +4.7417445995662993e+03 +2.5978475042145114e+05 -2.8481890609973282e+07 
-5.5000000000000000e+00 -5.3690937906179814e-01 +7.3500081993829509e+00 -8.1475395755818758e-01 -8.2225867863559685e+01 +4.7492345527420021e+03 +2.5828747964771214e+05 -2.8492213074774213e+07 
-5.5999999999999996e+00 -5.3690969074635897e-01 +7.3500025942589895e+00 -8.1560777320341316e-01 -8.1954984792271176e+01 +4.7626778945912101e+03 +2.5652970978585177e+05 -2.8520149828551114e+07 
-5.7000000000000002e+00 -5.3690999312831644e-01 +7.3499963079321580e+00 -8.1704928288372169e-01 -8.1643097403511874e+01 +4.7819680655996362e+03 +2.5451740322530048e+05 -2.8564725768957458e+07 
-5.7999999999999998e+00 -5.3691028555712406e-01 +7.3499893674473142e+00 -8.1908913869110689e-01 -8.1290906869680086e+01 +4.8069984889404004e+03 +2.5225652360785165e+05 -2.8624965703670882e+07 
-5.9000000000000004e+00 -5.3691056738220322e-01 +7.3499817998561712e+00 -8.2173799723299923e-01 -8.0899114426457587e+01 +4.8376626732596087e+03 +2.4975303460448878e+05 -2.8699894851439245e+07 
-5.9999999999999902e+00 -5.3691083795305516e-01 +7.3499736322169040e+00 -8.2500650951056698e-01 -8.0468421347938843e+01 +4.8738540378568932e+03 +2.4701289964049196e+05 -2.8788538058745936e+07 
-6.0999999999999899e+00 -5.3691109702683171e-01 +7.3499649051959857e+00 -8.2889093025000526e-01 -8.0000170006534759e+01 +4.9153770388948005e+03 +2.4404528125128106e+05 -2.8889862603791326e+07 
-6.1999999999999904e+00 -5.3691134577603339e-01 +7.3499557204895858e+00 -8.3333777520390873e-01 -7.9498402972371309e+01 +4.9617446845939485e+03 +2.4087308310009199e+05 -2.9002721977500293e+07 
-6.2999999999999901e+00 -5.3691158568031039e-01 +7.3499461960894665e+00 -8.3828282927195219e-01 -7.8967854649165346e+01 +5.0124110829847696e+03 +2.3752277236175741e+05 -2.9125966910457071e+07 
-6.3999999999999897e+00 -5.3691181821932521e-01 +7.3499364499712030e+00 -8.4366187583334951e-01 -7.8413259117571513e+01 +5.0668303211512657e+03 +2.3402081486904845e+05 -2.9258448067221250e+07 
-6.4999999999999902e+00 -5.3691204487275568e-01 +7.3499266000940136e+00 -8.4941069599834973e-01 -7.7839350150605853e+01 +5.1244564534834253e+03 +2.3039367527408502e+05 -2.9399016000635453e+07 
-6.5999999999999899e+00 -5.3691226712031681e-01 +7.3499167643977232e+00 -8.5546506638829223e-01 -7.7250861132880729e+01 +5.1847434617757672e+03 +2.2666781660105797e+05 -2.9546520969042920e+07 
-6.6999999999999904e+00 -5.3691248644173428e-01 +7.3499070608013302e+00 -8.6176076125774226e-01 -7.6652525021099095e+01 +5.2471452874354482e+03 +2.2286970002923775e+05 -2.9699813066412058e+07 
-6.7999999999999901e+00 -5.3691270431680482e-01 +7.3498976072107576e+00 -8.6823354995925961e-01 -7.6049074583445929e+01 +5.3111157967773752e+03 +2.1902578632682518e+05 -2.9857742096230786e+07 
-6.8999999999999897e+00 -5.3691292222525544e-01 +7.3498885215030327e+00 -8.7481919997782154e-01 -7.5445241941883722e+01 +5.3761088298958057e+03 +2.1516253320864050e+05 -3.0019157779490698e+07 
-6.9999999999999902e+00 -5.3691314164692872e-01 +7.3498799215385153e+00 -8.8145347373568939e-01 -7.4845758940416630e+01 +5.4415781395409122e+03 +2.1130639751187596e+05 -3.0182909464743748e+07 
-7.0999999999999899e+00 -5.3691336406168122e-01 +7.3498719251558429e+00 -8.8807212876176989e-01 -7.4255357005444054e+01 +5.5069774013276383e+03 +2.0748383440787572e+05 -3.0347846194500517e+07 
-7.1999999999999904e+00 -5.3691359094937008e-01 +7.3498646501686888e+00 -8.9461092211716176e-01 -7.3678767052892340e+01 +5.5717602956903120e+03 +2.0372129688034236e+05 -3.0512817093230326e+07 
-7.2999999999999901e+00 -5.3691382378995423e-01 +7.3498582143680986e+00 -9.0100560098424776e-01 -7.3120719571394247e+01 +5.6353803252728703e+03 +2.0004523624924055e+05 -3.0676670484785415e+07 
-7.3999999999999897e+00 -5.3691406406329745e-01 +7.3498527355164995e+00 -9.0719191422563161e-01 -7.2585944451709238e+01 +5.6972910408144489e+03 +1.9648210120013237e+05 -3.0838254988439430e+07 
-7.4999999999999902e+00 -5.3691431324944261e-01 +7.3498483313583511e+00 -9.1310560137593344e-01 -7.2079171309381053e+01 +5.7569458283085960e+03 +1.9305833969690627e+05 -3.0996418494323127e+07 
-7.5999999999999899e+00 -5.3691457282833976e-01 +7.3498451196055896e+00 -9.1868239915089212e-01 -7.1605129063265849e+01 +5.8137980330959635e+03 +1.8980039654241822e+05 -3.1150008758809052e+07 
-7.6999999999999904e+00 -5.3691484428006953e-01 +7.3498432179459403e+00 -9.2385803892224450e-01 -7.1168546182339384e+01 +5.8673009196920839e+03 +1.8673471484040283e+05 -3.1297873230608713e+07 
-7.7999999999999901e+00 -5.3691512908469596e-01 +7.3498427440355423e+00 -9.2856824911589964e-01 -7.0774150496742479e+01 +5.9169077052856283e+03 +1.8388773496148796e+05 -3.1438859182659067e+07 
-7.8999999999999897e+00 -5.3691542872238551e-01 +7.3498438155079109e+00 -9.3274874889050263e-01 -7.0426669439266135e+01 +5.9620714489866832e+03 +1.8128589590871241e+05 -3.1571813208393026e+07 
-7.9999999999999902e+00 -5.3691574467313385e-01 +7.3498465499637033e+00 -9.3633526355539787e-01 -7.0130829930954775e+01 +6.0022452992952594e+03 +1.7895563575517084e+05 -3.1695582233055484e+07 
-8.0999999999999908e+00 -5.3691607789408735e-01 +7.3498510191997077e+00 -9.3928748124718220e-01 -6.9890075476183526e+01 +6.0371248719728583e+03 +1.7691755827095738e+05 -3.1809692973866545e+07 
-8.1999999999999904e+00 -5.3691642761293923e-01 +7.3498571280087592e+00 -9.4164239891925894e-01 -6.9703015791163196e+01 +6.0671512184519197e+03 +1.7516940782220772e+05 -3.1915660368801687e+07 
-8.2999999999999901e+00 -5.3691679270015358e-01 +7.3498647432561377e+00 -9.4345254000499201e-01 -6.9567132517705261e+01 +6.0929061768342253e+03 +1.7370344272546077e+05 -3.2015347516514070e+07 
-8.3999999999999897e+00 -5.3691717202606437e-01 +7.3498737318129690e+00 -9.4477043190261212e-01 -6.9479907371510592e+01 +6.1149716355456530e+03 +1.7251192139717180e+05 -3.2110617696466632e+07 
-8.4999999999999893e+00 -5.3691756446112426e-01 +7.3498839605684898e+00 -9.4564859832502524e-01 -6.9438822472121629e+01 +6.1339293868523810e+03 +1.7158710420106785e+05 -3.2203333667155541e+07 
-8.5999999999999908e+00 -5.3691796887564758e-01 +7.3498952964280146e+00 -9.4613956483655692e-01 -6.9441360286247715e+01 +6.1503612353273802e+03 +1.7092125310258774e+05 -3.2295358193681117e+07 
-8.6999999999999904e+00 -5.3691838414005877e-01 +7.3499076063055844e+00 -9.4629585438592079e-01 -6.9485003411542252e+01 +6.1648489082768629e+03 +1.7050663042490612e+05 -3.2388553606167376e+07 
-8.7999999999999794e+00 -5.3691880912468160e-01 +7.3499207571410903e+00 -9.4616998969818544e-01 -6.9567235067507141e+01 +6.1779740994926851e+03 +1.7033550165990289e+05 -3.2484782005789179e+07 
-8.8999999999999808e+00 -5.3691924269981695e-01 +7.3499346158827485e+00 -9.4581449417311669e-01 -6.9685538584227274e+01 +6.1903184882317364e+03 +1.7040013250236624e+05 -3.2585905358679082e+07 
-8.9999999999999805e+00 -5.3691968373586862e-01 +7.3499490494998359e+00 -9.4528188628572762e-01 -6.9837397759453708e+01 +6.2024636343795146e+03 +1.7069279087949236e+05 -3.2693785002036247e+07 
-9.0999999999999801e+00 -5.3692013110310710e-01 +7.3499639249764650e+00 -9.4462468773544839e-01 -7.0020296687598744e+01 +6.2149911233778575e+03 +1.7120574597869939e+05 -3.2810282307751313e+07 
-9.1999999999999797e+00 -5.3692058367180306e-01 +7.3499791093177897e+00 -9.4389541826688139e-01 -7.0231719920724998e+01 +6.2284824765644789e+03 +1.7193126912618399e+05 -3.2937258277732827e+07 
-9.2999999999999794e+00 -5.3692104031228782e-01 +7.3499944695461705e+00 -9.4314659717151417e-01 -7.0469152360119281e+01 +6.2435191758643532e+03 +1.7286163317123419e+05 -3.3076573653769221e+07 
-9.3999999999999808e+00 -5.3692149989480631e-01 +7.3500098727015413e+00 -9.4243074163305340e-01 -7.0730079262015522e+01 +6.2606826272514008e+03 +1.7398911249183008e+05 -3.3230088726756621e+07 
-9.4999999999999805e+00 -5.3692196128958736e-01 +7.3500251858476009e+00 -9.4180036834354963e-01 -7.1011986408661528e+01 +6.2805541980466569e+03 +1.7530598395767109e+05 -3.3399663535094552e+07 
-9.5999999999999801e+00 -5.3692242336689444e-01 +7.3500402760653669e+00 -9.4130799650765518e-01 -7.1312359924645349e+01 +6.3037152676175274e+03 +1.7680452588692665e+05 -3.3587158087315939e+07 
-9.6999999999999797e+00 -5.3692288499693352e-01 +7.3500550104557574e+00 -9.4100613644253917e-01 -7.1628686335058816e+01 +6.3307470111058337e+03 +1.7847701831661284e+05 -3.3794431333174810e+07 
-9.7999999999999794e+00 -5.3692334504989769e-01 +7.3500692561456482e+00 -9.4094731031137691e-01 -7.1958452752677942e+01 +6.3622307937663163e+03 +1.8031574412168239e+05 -3.4023343043310486e+07 
-9.8999999999999808e+00 -5.3692380239597948e-01 +7.3500828802804090e+00 -9.4118402710335136e-01 -7.2299146635384631e+01 +6.3987476931196443e+03 +1.8231298753852473e+05 -3.4275751527535476e+07 
-9.9999999999999805e+00 -5.3692425590552684e-01 +7.3500957500331126e+00 -9.4176878462082259e-01 -7.2648255462960478e+01 +6.4408786213740050e+03 +1.8446102881758224e+05 -3.4553514642005660e+07 
-1.0100000000000000e+01 -5.3692470482504984e-01 +7.3501077503493688e+00 -9.4273165231527445e-01 -7.3002927171084494e+01 +6.4888630429103705e+03 +1.8674686174198237e+05 -3.4857092156749375e+07 
