# field on trajectory
# s[mm] rx[mm] ry[mm] rz[mm] bx[T] by[T] bz[T]
-0.0000000000000000e+00 +8.1530000000000094e+00 +0.0000000000000000e+00 -0.0000000000000000e+00 -3.0777532755965883e-02 -5.9254666338210515e-01 +5.9970481064222292e-03
-1.0000000000000001e-01 +8.1529997159377707e+00 +0.0000000000000000e+00 -1.0008006405070299e-01 -3.0777384635807457e-02 -5.9254674964527332e-01 +5.9970346597420154e-03
-2.0000000000000001e-01 +8.1529988637557800e+00 +0.0000000000000000e+00 -2.0016012809818201e-01 -3.0777231808492383e-02 -5.9254683393699148e-01 +5.9970227076054537e-03
-2.9999999999999999e-01 +8.1529974434524792e+00 +0.0000000000000000e+00 -3.0024019213920999e-01 -3.0777074955582948e-02 -5.9254691558077799e-01 +5.9970121689185731e-03
-4.0000000000000002e-01 +8.1529954550242092e+00 +0.0000000000000000e+00 -4.0032025617056399e-01 -3.0776914758651172e-02 -5.9254699390016707e-01 +5.9970029625900029e-03
-5.0000000000000000e-01 +8.1529928984782600e+00 +0.0000000000000000e+00 -5.0040032018901703e-01 -3.0776751899270968e-02 -5.9254706821859870e-01 +5.9969950075295870e-03
-5.9999999999999998e-01 +8.1529897738146193e+00 +0.0000000000000000e+00 -6.0048038419134497e-01 -3.0776587059024779e-02 -5.9254713785956603e-01 +5.9969882226495533e-03
-6.9999999999999996e-01 +8.1529860810223909e+00 +0.0000000000000000e+00 -7.0056044817432195e-01 -3.0776420919503365e-02 -5.9254720214663759e-01 +5.9969825268645057e-03
-8.0000000000000004e-01 +8.1529818201124709e+00 +0.0000000000000000e+00 -8.0064051213472498e-01 -3.0776254162289036e-02 -5.9254726040319072e-01 +5.9969778390883913e-03
-9.0000000000000002e-01 +8.1529769910812302e+00 +0.0000000000000000e+00 -9.0072057606932698e-01 -3.0776087468970502e-02 -5.9254731195270105e-01 +5.9969740782371784e-03
-1.0000000000000000e+00 +8.1529715939250291e+00 +0.0000000000000000e+00 -1.0008006399749001e+00 -3.0775921521134390e-02 -5.9254735611862319e-01 +5.9969711632273468e-03
-1.1000000000000001e+00 +8.1529656286511507e+00 +0.0000000000000000e+00 -1.1008807038482300e+00 -3.0775757000358436e-02 -5.9254739222429609e-01 +5.9969690129746452e-03
-1.2000000000000000e+00 +8.1529590952522994e+00 +0.0000000000000000e+00 -1.2009607676860801e+00 -3.0775594588221381e-02 -5.9254741959314872e-01 +5.9969675463958970e-03
-1.3000000000000000e+00 +8.1529519937357708e+00 +0.0000000000000000e+00 -1.3010408314852300e+00 -3.0775434966287752e-02 -5.9254743754845718e-01 +5.9969666824062490e-03
-1.3999999999999999e+00 +8.1529443240979198e+00 +0.0000000000000000e+00 -1.4011208952424601e+00 -3.0775278816117808e-02 -5.9254744541355131e-01 +5.9969663399209667e-03
-1.5000000000000000e+00 +8.1529360863350995e+00 +0.0000000000000000e+00 -1.5012009589545301e+00 -3.0775126819260708e-02 -5.9254744251171942e-01 +5.9969664378542193e-03
-1.6000000000000001e+00 +8.1529272804509691e+00 +0.0000000000000000e+00 -1.6012810226182299e+00 -3.0774979657249336e-02 -5.9254742816614803e-01 +5.9969668951181361e-03
-1.7000000000000000e+00 +8.1529179064491508e+00 +0.0000000000000000e+00 -1.7013610862303301e+00 -3.0774838011601861e-02 -5.9254740169997566e-01 +5.9969676306230978e-03
-1.8000000000000000e+00 +8.1529079643223703e+00 +0.0000000000000000e+00 -1.8014411497875999e+00 -3.0774702563824894e-02 -5.9254736243637807e-01 +5.9969685632783216e-03
-1.8999999999999999e+00 +8.1528974540779000e+00 +0.0000000000000000e+00 -1.9015212132868200e+00 -3.0774573995400088e-02 -5.9254730969835945e-01 +5.9969696119894162e-03
-2.0000000000000000e+00 +8.1528863757084800e+00 +0.0000000000000000e+00 -2.0016012767247702e+00 -3.0774452987794486e-02 -5.9254724280898519e-01 +5.9969706956606210e-03
-2.1000000000000001e+00 +8.1528747292177304e+00 +0.0000000000000000e+00 -2.1016813400982199e+00 -3.0774339944373102e-02 -5.9254716157595744e-01 +5.9969717660807069e-03
-2.2000000000000002e+00 +8.1528625146056601e+00 +0.0000000000000000e+00 -2.2017614034039301e+00 -3.0774234208300673e-02 -5.9254706765525100e-01 +5.9969729004265898e-03
-2.2999999999999998e+00 +8.1528497318759001e+00 +0.0000000000000000e+00 -2.3018414666387002e+00 -3.0774134870115745e-02 -5.9254696314320621e-01 +5.9969742057518196e-03
-2.3999999999999999e+00 +8.1528363810211903e+00 +0.0000000000000000e+00 -2.4019215297993002e+00 -3.0774041020363421e-02 -5.9254685013623665e-01 +5.9969757891097219e-03
-2.5000000000000000e+00 +8.1528224620451493e+00 +0.0000000000000000e+00 -2.5020015928824901e+00 -3.0773951749586480e-02 -5.9254673073065511e-01 +5.9969777575515446e-03
-2.6000000000000001e+00 +8.1528079749477893e+00 +0.0000000000000000e+00 -2.6020816558850601e+00 -3.0773866148333086e-02 -5.9254660702279371e-01 +5.9969802181276304e-03
-2.7000000000000002e+00 +8.1527929197291105e+00 +0.0000000000000000e+00 -2.7021617188037701e+00 -3.0773783307156230e-02 -5.9254648110897712e-01 +5.9969832778870675e-03
-2.7999999999999998e+00 +8.1527772963891003e+00 +0.0000000000000000e+00 -2.8022417816354102e+00 -3.0773702316614804e-02 -5.9254635508552356e-01 +5.9969870438776780e-03
-2.8999999999999999e+00 +8.1527611049277802e+00 +0.0000000000000000e+00 -2.9023218443767500e+00 -3.0773622267274661e-02 -5.9254623104874737e-01 +5.9969916231459586e-03
-3.0000000000000000e+00 +8.1527443453451305e+00 +0.0000000000000000e+00 -3.0024019070245598e+00 -3.0773542249709792e-02 -5.9254611109496291e-01 +5.9969971227370579e-03
-3.1000000000000001e+00 +8.1527270176411495e+00 +0.0000000000000000e+00 -3.1024819695756198e+00 -3.0773461354503293e-02 -5.9254599732048385e-01 +5.9970036496947371e-03
-3.2000000000000002e+00 +8.1527091218158603e+00 +0.0000000000000000e+00 -3.2025620320267101e+00 -3.0773378672248518e-02 -5.9254589182162765e-01 +5.9970113110613347e-03
-3.2999999999999998e+00 +8.1526906578692397e+00 +0.0000000000000000e+00 -3.3026420943745900e+00 -3.0773293293550136e-02 -5.9254579669471652e-01 +5.9970202138777294e-03
-3.3999999999999999e+00 +8.1526716258013003e+00 +0.0000000000000000e+00 -3.4027221566160502e+00 -3.0773204309025262e-02 -5.9254571403608047e-01 +5.9970304651833116e-03
-3.5000000000000000e+00 +8.1526520256120403e+00 +0.0000000000000000e+00 -3.5028022187478500e+00 -3.0773110809304484e-02 -5.9254564594205905e-01 +5.9970421720159347e-03
-3.6000000000000001e+00 +8.1526318572978198e+00 +0.0000000000000000e+00 -3.6028822807667802e+00 -3.0773011885034646e-02 -5.9254559450903288e-01 +5.9970554414121866e-03
-3.7000000000000002e+00 +8.1526111208659096e+00 +0.0000000000000000e+00 -3.7029623426696099e+00 -3.0772906626873275e-02 -5.9254556183330842e-01 +5.9970703804061590e-03
-3.7999999999999998e+00 +8.1525898163126804e+00 +0.0000000000000000e+00 -3.8030424044531101e+00 -3.0772794125499627e-02 -5.9254555001129583e-01 +5.9970870960311951e-03
-3.8999999999999999e+00 +8.1525679436344909e+00 +0.0000000000000000e+00 -3.9031224661140600e+00 -3.0772673471610820e-02 -5.9254556113942491e-01 +5.9971056953189803e-03
-4.0000000000000000e+00 +8.1525455028386205e+00 +0.0000000000000000e+00 -4.0032025276492398e+00 -3.0772543755927154e-02 -5.9254559731403755e-01 +5.9971262852966997e-03
-4.0999999999999996e+00 +8.1525224939177896e+00 +0.0000000000000000e+00 -4.1032825890554099e+00 -3.0772404378817394e-02 -5.9254565997948727e-01 +5.9971489100600472e-03
-4.2000000000000002e+00 +8.1524989168792708e+00 +0.0000000000000000e+00 -4.2033626503293604e+00 -3.0772255865901703e-02 -5.9254574821003969e-01 +5.9971733849951267e-03
-4.2999999999999998e+00 +8.1524747717157897e+00 +0.0000000000000000e+00 -4.3034427114678504e+00 -3.0772098998348849e-02 -5.9254586054189884e-01 +5.9971994735497618e-03
-4.4000000000000004e+00 +8.1524500584346207e+00 +0.0000000000000000e+00 -4.4035227724676700e+00 -3.0771934557312922e-02 -5.9254599551121556e-01 +5.9972269391716819e-03
-4.5000000000000000e+00 +8.1524247770285001e+00 +0.0000000000000000e+00 -4.5036028333255800e+00 -3.0771763323945968e-02 -5.9254615165432634e-01 +5.9972555453110489e-03
-4.5999999999999996e+00 +8.1523989275046898e+00 +0.0000000000000000e+00 -4.6036828940383696e+00 -3.0771586079384041e-02 -5.9254632750752179e-01 +5.9972850554181698e-03
-4.7000000000000002e+00 +8.1523725098559208e+00 +0.0000000000000000e+00 -4.7037629546028104e+00 -3.0771403604759821e-02 -5.9254652160728727e-01 +5.9973152329460527e-03
-4.7999999999999998e+00 +8.1523455240894709e+00 +0.0000000000000000e+00 -4.8038430150156701e+00 -3.0771216681188741e-02 -5.9254673249007062e-01 +5.9973458413481078e-03
-4.9000000000000004e+00 +8.1523179701980606e+00 +0.0000000000000000e+00 -4.9039230752737302e+00 -3.0771026089781554e-02 -5.9254695869252205e-01 +5.9973766440807033e-03
-5.0000000000000000e+00 +8.1522898481889605e+00 +0.0000000000000000e+00 -5.0040031353737602e+00 -3.0770832611630380e-02 -5.9254719875126249e-01 +5.9974074046008595e-03
-5.0999999999999996e+00 +8.1522611580549000e+00 +0.0000000000000000e+00 -5.1040831953125396e+00 -3.0770637027821453e-02 -5.9254745120312413e-01 +5.9974378863688208e-03
-5.2000000000000002e+00 +8.1522318997995207e+00 +0.0000000000000000e+00 -5.2041632550868497e+00 -3.0770440119422732e-02 -5.9254771458494693e-01 +5.9974678528460458e-03
-5.2999999999999998e+00 +8.1522020734228100e+00 +0.0000000000000000e+00 -5.3042433146934496e+00 -3.0770242667489931e-02 -5.9254798743370218e-01 +5.9974970674965648e-03
-5.4000000000000004e+00 +8.1521716789247893e+00 +0.0000000000000000e+00 -5.4043233741291203e+00 -3.0770045453064193e-02 -5.9254826828646601e-01 +5.9975252937867858e-03
-5.5000000000000000e+00 +8.1521407163090807e+00 +0.0000000000000000e+00 -5.5044034333906504e+00 -3.0769849257169826e-02 -5.9254855568039433e-01 +5.9975522951853490e-03
-5.5999999999999996e+00 +8.1521091855684098e+00 +0.0000000000000000e+00 -5.6044834924747899e+00 -3.0769654860820259e-02 -5.9254884815284525e-01 +5.9975778351644372e-03
-5.7000000000000002e+00 +8.1520770867064094e+00 +0.0000000000000000e+00 -5.7045635513783299e+00 -3.0769463045007418e-02 -5.9254914424120575e-01 +5.9976016771981170e-03
-5.7999999999999998e+00 +8.1520444197231008e+00 +0.0000000000000000e+00 -5.8046436100980499e+00 -3.0769274590707715e-02 -5.9254944248301411e-01 +5.9976235847636478e-03
-5.9000000000000004e+00 +8.1520111846184609e+00 +0.0000000000000000e+00 -5.9047236686307096e+00 -3.0769090278879790e-02 -5.9254974141593442e-01 +5.9976433213413498e-03
-5.9999999999999902e+00 +8.1519773813925003e+00 +0.0000000000000000e+00 -6.0048037269731003e+00 -3.0768910890454221e-02 -5.9255003957778163e-01 +5.9976606504222292e-03
-6.0999999999999899e+00 +8.1519430100452208e+00 +0.0000000000000000e+00 -6.1048837851219799e+00 -3.0768737106797645e-02 -5.9255033572381810e-01 +5.9976754138749023e-03
-6.1999999999999904e+00 +8.1519080705766100e+00 +0.0000000000000000e+00 -6.2049638430741396e+00 -3.0768569264374889e-02 -5.9255062936231973e-01 +5.9976877251206847e-03
-6.2999999999999901e+00 +8.1518725629866804e+00 +0.0000000000000000e+00 -6.3050439008263499e+00 -3.0768407625036218e-02 -5.9255092016447675e-01 +5.9976977563526851e-03
-6.3999999999999897e+00 +8.1518364872754301e+00 +0.0000000000000000e+00 -6.4051239583753699e+00 -3.0768252450670549e-02 -5.9255120780141557e-01 +5.9977056797634798e-03
-6.4999999999999902e+00 +8.1517998434428591e+00 +0.0000000000000000e+00 -6.5052040157180002e+00 -3.0768104003207054e-02 -5.9255149194419554e-01 +5.9977116675450698e-03
-6.5999999999999899e+00 +8.1517626314889604e+00 +0.0000000000000000e+00 -6.6052840728510001e+00 -3.0767962544616816e-02 -5.9255177226380229e-01 +5.9977158918888447e-03
-6.6999999999999904e+00 +8.1517248514137499e+00 +0.0000000000000000e+00 -6.7053641297711399e+00 -3.0767828336914448e-02 -5.9255204843114717e-01 +5.9977185249855515e-03
-6.7999999999999901e+00 +8.1516865032135701e+00 +0.0000000000000000e+00 -6.8054441864752100e+00 -3.0767701642161423e-02 -5.9255232011709147e-01 +5.9977197390255720e-03
-6.8999999999999897e+00 +8.1516475868957095e+00 +0.0000000000000000e+00 -6.9055242429599701e+00 -3.0767582722460982e-02 -5.9255258699232272e-01 +5.9977197061976528e-03
-6.9999999999999902e+00 +8.1516081024565192e+00 +0.0000000000000000e+00 -7.0056042992222096e+00 -3.0767471839969834e-02 -5.9255284872753011e-01 +5.9977185986907124e-03
-7.0999999999999899e+00 +8.1515680498960101e+00 +0.0000000000000000e+00 -7.1056843552586999e+00 -3.0767369256893076e-02 -5.9255310499328195e-01 +5.9977165886925810e-03
-7.1999999999999904e+00 +8.1515274292141804e+00 +0.0000000000000000e+00 -7.2057644110662000e+00 -3.0767275235487505e-02 -5.9255335546005050e-01 +5.9977138483902773e-03
-7.2999999999999901e+00 +8.1514862404073902e+00 +0.0000000000000000e+00 -7.3058444666415099e+00 -3.0767190038064916e-02 -5.9255359979823752e-01 +5.9977105499702619e-03
-7.3999999999999897e+00 +8.1514444834829192e+00 +0.0000000000000000e+00 -7.4059245219813796e+00 -3.0767113926987059e-02 -5.9255383767805359e-01 +5.9977068656172049e-03
-7.4999999999999902e+00 +8.1514021584334806e+00 +0.0000000000000000e+00 -7.5060045770826100e+00 -3.0767047164678964e-02 -5.9255406876971928e-01 +5.9977029675160670e-03
-7.5999999999999899e+00 +8.1513592652663593e+00 +0.0000000000000000e+00 -7.6060846319419504e+00 -3.0766990013617192e-02 -5.9255429274322602e-01 +5.9976990278496380e-03
-7.6999999999999904e+00 +8.1513158039779192e+00 +0.0000000000000000e+00 -7.7061646865561997e+00 -3.0766942736343127e-02 -5.9255450926853748e-01 +5.9976952188006182e-03
-7.7999999999999901e+00 +8.1512717745681602e+00 +0.0000000000000000e+00 -7.8062447409221098e+00 -3.0766905595457996e-02 -5.9255471801546988e-01 +5.9976917125503819e-03
-7.8999999999999897e+00 +8.1512271770334301e+00 +0.0000000000000000e+00 -7.9063247950364799e+00 -3.0766878853627753e-02 -5.9255491865374432e-01 +5.9976886812795355e-03
-7.9999999999999902e+00 +8.1511820113773901e+00 +0.0000000000000000e+00 -8.0064048488960609e+00 -3.0766862773527567e-02 -5.9255511085299195e-01 +5.9976862971639908e-03
-8.0999999999999908e+00 +8.1511362776036496e+00 +0.0000000000000000e+00 -8.1064849024976393e+00 -3.0766857378180516e-02 -5.9255529472264790e-01 +5.9976847186530647e-03
-8.1999999999999904e+00 +8.1510899757086008e+00 +0.0000000000000000e+00 -8.2065649558379903e+00 -3.0766861898630624e-02 -5.9255547182560997e-01 +5.9976840588510730e-03
-8.2999999999999901e+00 +8.1510431056885899e+00 +0.0000000000000000e+00 -8.3066450089139003e+00 -3.0766875402534082e-02 -5.9255564402450145e-01 +5.9976844215167508e-03
-8.3999999999999897e+00 +8.1509956675508892e+00 +0.0000000000000000e+00 -8.4067250617221205e+00 -3.0766896957482540e-02 -5.9255581318182959e-01 +5.9976859104153690e-03
-8.4999999999999893e+00 +8.1509476612882299e+00 +0.0000000000000000e+00 -8.5068051142594392e+00 -3.0766925631012482e-02 -5.9255598116018893e-01 +5.9976886293210416e-03
-8.5999999999999908e+00 +8.1508990869078808e+00 +0.0000000000000000e+00 -8.6068851665226305e+00 -3.0766960490589773e-02 -5.9255614982202542e-01 +5.9976926820145453e-03
-8.6999999999999904e+00 +8.1508499444025801e+00 +0.0000000000000000e+00 -8.7069652185084596e+00 -3.0767000603620781e-02 -5.9255632102987288e-01 +5.9976981722859651e-03
-8.7999999999999794e+00 +8.1508002337759500e+00 +0.0000000000000000e+00 -8.8070452702137203e+00 -3.0767045037438510e-02 -5.9255649664614440e-01 +5.9977052039327777e-03
-8.8999999999999808e+00 +8.1507499550316407e+00 +0.0000000000000000e+00 -8.9071253216351796e+00 -3.0767092859305428e-02 -5.9255667853322103e-01 +5.9977138807609885e-03
-8.9999999999999805e+00 +8.1506991081623692e+00 +0.0000000000000000e+00 -9.0072053727696098e+00 -3.0767143136416295e-02 -5.9255686855354028e-01 +5.9977243065862688e-03
-9.0999999999999801e+00 +8.1506476931717806e+00 +0.0000000000000000e+00 -9.1072854236137797e+00 -3.0767194935885939e-02 -5.9255706856941592e-01 +5.9977365852323470e-03
-9.1999999999999797e+00 +8.1505957100635005e+00 +0.0000000000000000e+00 -9.2073654741644795e+00 -3.0767247324752098e-02 -5.9255728044312961e-01 +5.9977508205321436e-03
-9.2999999999999794e+00 +8.1505431588302599e+00 +0.0000000000000000e+00 -9.3074455244184708e+00 -3.0767299369978258e-02 -5.9255750603701562e-01 +5.9977671163288981e-03
-9.3999999999999808e+00 +8.1504900394757005e+00 +0.0000000000000000e+00 -9.4075255743725297e+00 -3.0767350138441420e-02 -5.9255774721328447e-01 +5.9977855764745671e-03
-9.4999999999999805e+00 +8.1504363520034495e+00 +0.0000000000000000e+00 -9.5076056240234408e+00 -3.0767398696934969e-02 -5.9255800583411133e-01 +5.9978063048309648e-03
-9.5999999999999801e+00 +8.1503820964062506e+00 +0.0000000000000000e+00 -9.6076856733679694e+00 -3.0767444112171485e-02 -5.9255828376172248e-01 +5.9978294052708920e-03
-9.6999999999999797e+00 +8.1503272726913600e+00 +0.0000000000000000e+00 -9.7077657224029004e+00 -3.0767485450768867e-02 -5.9255858285818919e-01 +5.9978549816762095e-03
-9.7999999999999794e+00 +8.1502718808515109e+00 +0.0000000000000000e+00 -9.8078457711250007e+00 -3.0767521779261561e-02 -5.9255890498566299e-01 +5.9978831379405217e-03
-9.8999999999999808e+00 +8.1502159208903304e+00 +0.0000000000000000e+00 -9.9079258195310498e+00 -3.0767552164086664e-02 -5.9255925200616899e-01 +5.9979139779672468e-03
-9.9999999999999805e+00 +8.1501593928078400e+00 +0.0000000000000000e+00 -1.0008005867617801e+01 -3.0767575671715317e-02 -5.9255962578146171e-01 +5.9979476056462762e-03
-1.0100000000000000e+01 +8.1501022966040200e+00 +0.0000000000000000e+00 -1.0108085915382100e+01 -3.0767591680332423e-02 -5.9256002753650017e-01 +5.9979840639904809e-03
-1.0199999999999999e+01 +8.1500446322825209e+00 +0.0000000000000000e+00 -1.0208165962820599e+01 -3.0767600550655656e-02 -5.9256045648964717e-01 +5.9980232041399956e-03
-1.0300000000000001e+01 +8.1499863998360507e+00 +0.0000000000000000e+00 -1.0308246009930199e+01 -3.0767602836484473e-02 -5.9256091146517564e-01 +5.9980648395203057e-03
-1.0400000000000000e+01 +8.1499275992682705e+00 +0.0000000000000000e+00 -1.0408326056707599e+01 -3.0767599091633461e-02 -5.9256139128736485e-01 +5.9981087835385069e-03
-1.0500000000000000e+01 +8.1498682305791608e+00 +0.0000000000000000e+00 -1.0508406103149600e+01 -3.0767589869939833e-02 -5.9256189478062304e-01 +5.9981548495840736e-03
-1.0600000000000000e+01 +8.1498082937723701e+00 +0.0000000000000000e+00 -1.0608486149253000e+01 -3.0767575725260735e-02 -5.9256242076942978e-01 +5.9982028510277494e-03
-1.0699999999999999e+01 +8.1497477888406102e+00 +0.0000000000000000e+00 -1.0708566195014500e+01 -3.0767557211480671e-02 -5.9256296807845688e-01 +5.9982526012222958e-03
-1.0800000000000001e+01 +8.1496867157875403e+00 +0.0000000000000000e+00 -1.0808646240430900e+01 -3.0767534882502202e-02 -5.9256353553239383e-01 +5.9983039135001999e-03
-1.0900000000000000e+01 +8.1496250746131391e+00 +0.0000000000000000e+00 -1.0908726285499000e+01 -3.0767509292253366e-02 -5.9256412195606978e-01 +5.9983566011744044e-03
-1.1000000000000000e+01 +8.1495628653174208e+00 +0.0000000000000000e+00 -1.1008806330215601e+01 -3.0767480994686729e-02 -5.9256472617442491e-01 +5.9984104775375365e-03
-1.1100000000000000e+01 +8.1495000879040198e+00 +0.0000000000000000e+00 -1.1108886374577500e+01 -3.0767450543778371e-02 -5.9256534701248453e-01 +5.9984653558611172e-03
-1.1199999999999999e+01 +8.1494367423620098e+00 +0.0000000000000000e+00 -1.1208966418581401e+01 -3.0767418493537022e-02 -5.9256598329550869e-01 +5.9985210493966115e-03
-1.1300000000000001e+01 +8.1493728287059604e+00 +0.0000000000000000e+00 -1.1309046462224000e+01 -3.0767385397986392e-02 -5.9256663384867192e-01 +5.9985773713716163e-03
-1.1400000000000000e+01 +8.1493083469249505e+00 +0.0000000000000000e+00 -1.1409126505502300e+01 -3.0767351811189229e-02 -5.9256729749747628e-01 +5.9986341349936214e-03
-1.1500000000000000e+01 +8.1492432970226201e+00 +0.0000000000000000e+00 -1.1509206548412800e+01 -3.0767318287229700e-02 -5.9256797306743170e-01 +5.9986911534462076e-03
-1.1600000000000000e+01 +8.1491776789989707e+00 +0.0000000000000000e+00 -1.1609286590952600e+01 -3.0767285380222446e-02 -5.9256865938420544e-01 +5.9987482398900800e-03
-1.1699999999999999e+01 +8.1491114928576298e+00 +0.0000000000000000e+00 -1.1709366633118099e+01 -3.0767253644309940e-02 -5.9256935527356502e-01 +5.9988052074619966e-03
