# field on trajectory
# s[mm] rx[mm] ry[mm] rz[mm] bx[T] by[T] bz[T]
-0.0000000000000000e+00 +8.1530000000000094e+00 +0.0000000000000000e+00 -0.0000000000000000e+00 -3.0777532755965883e-02 -5.9254666338210515e-01 +5.9970481064222292e-03
-1.0000000000000001e-01 +8.1529997163925092e+00 +0.0000000000000000e+00 -9.9999999999463796e-02 -3.0777384756275609e-02 -5.9254674957695685e-01 +5.9970346698911695e-03
-2.0000000000000001e-01 +8.1529988655711296e+00 +0.0000000000000000e+00 -1.9999999999571000e-01 -3.0777232056414035e-02 -5.9254683380407469e-01 +5.9970227255784544e-03
-2.9999999999999999e-01 +8.1529974475415692e+00 +0.0000000000000000e+00 -2.9999999998552201e-01 -3.0777075336305647e-02 -5.9254691538854010e-01 +5.9970121925839708e-03
-4.0000000000000002e-01 +8.1529954622965306e+00 +0.0000000000000000e+00 -3.9999999996568197e-01 -3.0776915275889643e-02 -5.9254699365553842e-01 +5.9970029900111143e-03
-5.0000000000000000e-01 +8.1529929098396696e+00 +0.0000000000000000e+00 -4.9999999993297300e-01 -3.0776752555107145e-02 -5.9254706793016321e-01 +5.9969950369644790e-03
-5.9999999999999998e-01 +8.1529897901673394e+00 +0.0000000000000000e+00 -5.9999999988417696e-01 -3.0776587853907716e-02 -5.9254713753755717e-01 +5.9969882525510452e-03
-6.9999999999999996e-01 +8.1529861032831796e+00 +0.0000000000000000e+00 -6.9999999981607697e-01 -3.0776421852240970e-02 -5.9254720180279496e-01 +5.9969825558786631e-03
-8.0000000000000004e-01 +8.1529818491871993e+00 +0.0000000000000000e+00 -7.9999999972545699e-01 -3.0776255230059720e-02 -5.9254726005096414e-01 +5.9969778660566159e-03
-9.0000000000000002e-01 +8.1529770278793894e+00 +0.0000000000000000e+00 -8.9999999960909804e-01 -3.0776088667316490e-02 -5.9254731160713370e-01 +5.9969741021950237e-03
-1.0000000000000000e+00 +8.1529716393597500e+00 +0.0000000000000000e+00 -9.9999999946378304e-01 -3.0775922843961762e-02 -5.9254735579635098e-01 +5.9969711834044984e-03
-1.1000000000000001e+00 +8.1529656836210105e+00 +0.0000000000000000e+00 -1.0999999992862901e+00 -3.0775758439945511e-02 -5.9254739194369621e-01 +5.9969690287964535e-03
-1.2000000000000000e+00 +8.1529591606740706e+00 +0.0000000000000000e+00 -1.1999999990734200e+00 -3.0775596135203722e-02 -5.9254741937407318e-01 +5.9969675574806395e-03
-1.3000000000000000e+00 +8.1529520705153100e+00 +0.0000000000000000e+00 -1.2999999988219300e+00 -3.0775436609671539e-02 -5.9254743741247029e-01 +5.9969666885675644e-03
-1.3999999999999999e+00 +8.1529444131410909e+00 +0.0000000000000000e+00 -1.3999999985286200e+00 -3.0775280543274913e-02 -5.9254744538383985e-01 +5.9969663411669569e-03
-1.5000000000000000e+00 +8.1529361885550298e+00 +0.0000000000000000e+00 -1.4999999981902701e+00 -3.0775128615925379e-02 -5.9254744261303538e-01 +5.9969664343868445e-03
-1.6000000000000001e+00 +8.1529273967571498e+00 +0.0000000000000000e+00 -1.5999999978036501e+00 -3.0774981507523249e-02 -5.9254742842489483e-01 +5.9969668873341249e-03
-1.7000000000000000e+00 +8.1529180377474404e+00 +0.0000000000000000e+00 -1.6999999973655600e+00 -3.0774839897954223e-02 -5.9254740214421064e-01 +5.9969676191139690e-03
-1.8000000000000000e+00 +8.1529081115222706e+00 +0.0000000000000000e+00 -1.7999999968727800e+00 -3.0774704467089201e-02 -5.9254736309575418e-01 +5.9969685488297829e-03
-1.8999999999999999e+00 +8.1528976180852606e+00 +0.0000000000000000e+00 -1.8999999963220899e+00 -3.0774575894777501e-02 -5.9254731060418175e-01 +5.9969695955819869e-03
-2.0000000000000000e+00 +8.1528865574327902e+00 +0.0000000000000000e+00 -1.9999999957102601e+00 -3.0774454860851702e-02 -5.9254724399415282e-01 +5.9969706784689060e-03
-2.1000000000000001e+00 +8.1528749295721408e+00 +0.0000000000000000e+00 -2.0999999950340902e+00 -3.0774341780605691e-02 -5.9254716305131583e-01 +5.9969717478692546e-03
-2.2000000000000002e+00 +8.1528627344960096e+00 +0.0000000000000000e+00 -2.1999999942903599e+00 -3.0774236011277319e-02 -5.9254706940595236e-01 +5.9969728792977472e-03
-2.2999999999999998e+00 +8.1528499722080596e+00 +0.0000000000000000e+00 -2.2999999934758399e+00 -3.0774136645586082e-02 -5.9254696514937499e-01 +5.9969741795512354e-03
-2.3999999999999999e+00 +8.1528366427046404e+00 +0.0000000000000000e+00 -2.3999999925873299e+00 -3.0774042776256338e-02 -5.9254685237294136e-01 +5.9969757554260445e-03
-2.5000000000000000e+00 +8.1528227459894005e+00 +0.0000000000000000e+00 -2.4999999916215998e+00 -3.0773953496011718e-02 -5.9254673316793727e-01 +5.9969777137167217e-03
-2.6000000000000001e+00 +8.1528082820659602e+00 +0.0000000000000000e+00 -2.5999999905754398e+00 -3.0773867897579597e-02 -5.9254660962563821e-01 +5.9969801612166137e-03
-2.7000000000000002e+00 +8.1527932509234198e+00 +0.0000000000000000e+00 -2.6999999894456299e+00 -3.0773785073698785e-02 -5.9254648383743025e-01 +5.9969832047190386e-03
-2.7999999999999998e+00 +8.1527776525726896e+00 +0.0000000000000000e+00 -2.7999999882289601e+00 -3.0773704117103940e-02 -5.9254635789451604e-01 +5.9969869510142224e-03
-2.8999999999999999e+00 +8.1527614870065008e+00 +0.0000000000000000e+00 -2.8999999869222002e+00 -3.0773624120545007e-02 -5.9254623388824212e-01 +5.9969915068925888e-03
-3.0000000000000000e+00 +8.1527447542284808e+00 +0.0000000000000000e+00 -2.9999999855221300e+00 -3.0773544176774956e-02 -5.9254611390986600e-01 +5.9969969791423168e-03
-3.1000000000000001e+00 +8.1527274542386294e+00 +0.0000000000000000e+00 -3.0999999840255499e+00 -3.0773463378557516e-02 -5.9254600005067426e-01 +5.9970034745504986e-03
-3.2000000000000002e+00 +8.1527095870333106e+00 +0.0000000000000000e+00 -3.1999999824292300e+00 -3.0773380818668296e-02 -5.9254589440198657e-01 +5.9970110999031170e-03
-3.2999999999999998e+00 +8.1526911526198091e+00 +0.0000000000000000e+00 -3.2999999807299600e+00 -3.0773295589889123e-02 -5.9254579905503868e-01 +5.9970199619837879e-03
-3.3999999999999999e+00 +8.1526721509872004e+00 +0.0000000000000000e+00 -3.3999999789245101e+00 -3.0773206785022558e-02 -5.9254571610122220e-01 +5.9970301675761565e-03
-3.5000000000000000e+00 +8.1526525821464002e+00 +0.0000000000000000e+00 -3.4999999770096801e+00 -3.0773113496874553e-02 -5.9254564763176032e-01 +5.9970418234605270e-03
-3.6000000000000001e+00 +8.1526324460901396e+00 +0.0000000000000000e+00 -3.5999999749822500e+00 -3.0773014818273891e-02 -5.9254559573803556e-01 +5.9970550364171543e-03
-3.7000000000000002e+00 +8.1526117428220495e+00 +0.0000000000000000e+00 -3.6999999728389801e+00 -3.0772909842059978e-02 -5.9254556251135604e-01 +5.9970699132237959e-03
-3.7999999999999998e+00 +8.1525904723421299e+00 +0.0000000000000000e+00 -3.7999999705766800e+00 -3.0772797661090551e-02 -5.9254555004307552e-01 +5.9970865606568721e-03
-3.8999999999999999e+00 +8.1525686346503807e+00 +0.0000000000000000e+00 -3.8999999681921298e+00 -3.0772677368241096e-02 -5.9254556042456541e-01 +5.9971050854911410e-03
-4.0000000000000000e+00 +8.1525462297431694e+00 +0.0000000000000000e+00 -3.9999999656820902e+00 -3.0772548056407570e-02 -5.9254559574724786e-01 +5.9971255944999639e-03
-4.0999999999999996e+00 +8.1525232576241304e+00 +0.0000000000000000e+00 -4.0999999630433699e+00 -3.0772409099564260e-02 -5.9254565751053301e-01 +5.9971481373282910e-03
-4.2000000000000002e+00 +8.1524997182896204e+00 +0.0000000000000000e+00 -4.1999999602727298e+00 -3.0772260995947997e-02 -5.9254574484602340e-01 +5.9971725351163178e-03
-4.2999999999999998e+00 +8.1524756117469206e+00 +0.0000000000000000e+00 -4.2999999573669703e+00 -3.0772104524847882e-02 -5.9254585629331402e-01 +5.9971985518779188e-03
-4.4000000000000004e+00 +8.1524509379887604e+00 +0.0000000000000000e+00 -4.3999999543228601e+00 -3.0771940465551650e-02 -5.9254599039218137e-01 +5.9972259516292512e-03
-4.5000000000000000e+00 +8.1524256970187707e+00 +0.0000000000000000e+00 -4.4999999511372000e+00 -3.0771769597333399e-02 -5.9254614568238118e-01 +5.9972544983867915e-03
-4.5999999999999996e+00 +8.1523998888369498e+00 +0.0000000000000000e+00 -4.5999999478067499e+00 -3.0771592699459647e-02 -5.9254632070377022e-01 +5.9972839561686720e-03
-4.7000000000000002e+00 +8.1523735134396702e+00 +0.0000000000000000e+00 -4.6999999443283098e+00 -3.0771410551188559e-02 -5.9254651399631186e-01 +5.9973140889947978e-03
-4.7999999999999998e+00 +8.1523465708305594e+00 +0.0000000000000000e+00 -4.7999999406986600e+00 -3.0771223931764461e-02 -5.9254672409998921e-01 +5.9973446608860793e-03
-4.9000000000000004e+00 +8.1523190610096208e+00 +0.0000000000000000e+00 -4.8999999369145701e+00 -3.0771033620422033e-02 -5.9254694955490006e-01 +5.9973754358654523e-03
-5.0000000000000000e+00 +8.1522909839768491e+00 +0.0000000000000000e+00 -4.9999999329728402e+00 -3.0770840396384121e-02 -5.9254718890122993e-01 +5.9974061779577304e-03
-5.0999999999999996e+00 +8.1522623397286207e+00 +0.0000000000000000e+00 -5.0999999288702398e+00 -3.0770645038862648e-02 -5.9254744067928622e-01 +5.9974366511900013e-03
-5.2000000000000002e+00 +8.1522331282685592e+00 +0.0000000000000000e+00 -5.1999999246035600e+00 -3.0770448327053092e-02 -5.9254770342941465e-01 +5.9974666195908889e-03
-5.2999999999999998e+00 +8.1522033495966806e+00 +0.0000000000000000e+00 -5.2999999201695802e+00 -3.0770251040138686e-02 -5.9254797569208950e-01 +5.9974958471915455e-03
-5.4000000000000004e+00 +8.1521730037093203e+00 +0.0000000000000000e+00 -5.3999999155650800e+00 -3.0770053957289902e-02 -5.9254825600792094e-01 +5.9975240980258172e-03
-5.5000000000000000e+00 +8.1521420906137791e+00 +0.0000000000000000e+00 -5.4999999107868396e+00 -3.0769857857657044e-02 -5.9254854291753811e-01 +5.9975511361291456e-03
-5.5999999999999996e+00 +8.1521106102991308e+00 +0.0000000000000000e+00 -5.5999999058316599e+00 -3.0769663520383003e-02 -5.9254883496183175e-01 +5.9975767255411134e-03
-5.7000000000000002e+00 +8.1520785627762997e+00 +0.0000000000000000e+00 -5.6999999006963096e+00 -3.0769471724584226e-02 -5.9254913068163162e-01 +5.9976006303022614e-03
-5.7999999999999998e+00 +8.1520459480379905e+00 +0.0000000000000000e+00 -5.7999998953775700e+00 -3.0769283249368420e-02 -5.9254942861803639e-01 +5.9976226144575302e-03
-5.9000000000000004e+00 +8.1520127660915005e+00 +0.0000000000000000e+00 -5.8999998898722197e+00 -3.0769098873818884e-02 -5.9254972731215227e-01 +5.9976424420536724e-03
-5.9999999999999902e+00 +8.1519790169259103e+00 +0.0000000000000000e+00 -5.9999998841770603e+00 -3.0768919377008916e-02 -5.9255002530536260e-01 +5.9976598771421122e-03
-6.0999999999999899e+00 +8.1519447005521197e+00 +0.0000000000000000e+00 -6.0999998782888598e+00 -3.0768745451673064e-02 -5.9255032132742624e-01 +5.9976747517295828e-03
-6.1999999999999904e+00 +8.1519098169665103e+00 +0.0000000000000000e+00 -6.1999998722044003e+00 -3.0768577445311546e-02 -5.9255061486197702e-01 +5.9976871696424544e-03
-6.2999999999999901e+00 +8.1518743661654298e+00 +0.0000000000000000e+00 -6.2999998659204701e+00 -3.0768415619146530e-02 -5.9255090558102641e-01 +5.9976973026612335e-03
-6.3999999999999897e+00 +8.1518383481488907e+00 +0.0000000000000000e+00 -6.3999998594338496e+00 -3.0768260234436916e-02 -5.9255119315649318e-01 +5.9977053225655887e-03
-6.4999999999999902e+00 +8.1518017629241495e+00 +0.0000000000000000e+00 -6.4999998527413201e+00 -3.0768111552478342e-02 -5.9255147726016877e-01 +5.9977114011340168e-03
-6.5999999999999899e+00 +8.1517646104839496e+00 +0.0000000000000000e+00 -6.5999998458396698e+00 -3.0767969834614807e-02 -5.9255175756389222e-01 +5.9977157101456183e-03
-6.6999999999999904e+00 +8.1517268908319203e+00 +0.0000000000000000e+00 -6.6999998387256703e+00 -3.0767835342228610e-02 -5.9255203373933774e-01 +5.9977184213779429e-03
-6.7999999999999901e+00 +8.1516886039680703e+00 +0.0000000000000000e+00 -6.7999998313961196e+00 -3.0767708336748644e-02 -5.9255230545813053e-01 +5.9977197066081768e-03
-6.8999999999999897e+00 +8.1516497498923908e+00 +0.0000000000000000e+00 -6.8999998238477902e+00 -3.0767589079650399e-02 -5.9255257239181180e-01 +5.9977197376127941e-03
-6.9999999999999902e+00 +8.1516103286012402e+00 +0.0000000000000000e+00 -6.9999998160774597e+00 -3.0767477832459228e-02 -5.9255283421186555e-01 +5.9977186861678291e-03
-7.0999999999999899e+00 +8.1515703400982602e+00 +0.0000000000000000e+00 -7.0999998080819298e+00 -3.0767374856746941e-02 -5.9255309058962535e-01 +5.9977167240479363e-03
-7.1999999999999904e+00 +8.1515297843834595e+00 +0.0000000000000000e+00 -7.1999997998579603e+00 -3.0767280414138464e-02 -5.9255334119635927e-01 +5.9977140230272575e-03
-7.2999999999999901e+00 +8.1514886614531896e+00 +0.0000000000000000e+00 -7.2999997914023496e+00 -3.0767194766313476e-02 -5.9255358570326566e-01 +5.9977107548793915e-03
-7.3999999999999897e+00 +8.1514469713147300e+00 +0.0000000000000000e+00 -7.3999997827118804e+00 -3.0767118175001332e-02 -5.9255382378135157e-01 +5.9977070913761451e-03
-7.4999999999999902e+00 +8.1514047139571595e+00 +0.0000000000000000e+00 -7.4999997737833199e+00 -3.0767050901996038e-02 -5.9255405510166503e-01 +5.9977032042899253e-03
-7.5999999999999899e+00 +8.1513618893914099e+00 +0.0000000000000000e+00 -7.5999997646134698e+00 -3.0766993209139535e-02 -5.9255427933496507e-01 +5.9976992653903655e-03
-7.6999999999999904e+00 +8.1513184976138309e+00 +0.0000000000000000e+00 -7.6999997551991104e+00 -3.0766945358339980e-02 -5.9255449615201461e-01 +5.9976954464473200e-03
-7.7999999999999901e+00 +8.1512745386207808e+00 +0.0000000000000000e+00 -7.7999997455370096e+00 -3.0766907611566720e-02 -5.9255470522345832e-01 +5.9976919192296285e-03
-7.8999999999999897e+00 +8.1512300124159101e+00 +0.0000000000000000e+00 -7.8999997356239602e+00 -3.0766880230848538e-02 -5.9255490621975837e-01 +5.9976888555044556e-03
-7.9999999999999902e+00 +8.1511849189955701e+00 +0.0000000000000000e+00 -7.9999997254567399e+00 -3.0766863478281996e-02 -5.9255509881130941e-01 +5.9976864270384735e-03
-8.0999999999999908e+00 +8.1511392583670403e+00 +0.0000000000000000e+00 -8.0999997150321406e+00 -3.0766857417318643e-02 -5.9255528303295590e-01 +5.9976847942190548e-03
-8.1999999999999904e+00 +8.1510930305230396e+00 +0.0000000000000000e+00 -8.1999997043469399e+00 -3.0766861316612153e-02 -5.9255546037824947e-01 +5.9976840719269120e-03
-8.2999999999999901e+00 +8.1510462354672200e+00 +0.0000000000000000e+00 -8.2999996933979094e+00 -3.0766874246055037e-02 -5.9255563270528966e-01 +5.9976843636708804e-03
-8.3999999999999897e+00 +8.1509988731995708e+00 +0.0000000000000000e+00 -8.3999996821818605e+00 -3.0766895275482233e-02 -5.9255580187217771e-01 +5.9976857729674930e-03
-8.4999999999999893e+00 +8.1509509437164507e+00 +0.0000000000000000e+00 -8.4999996706955496e+00 -3.0766923474668879e-02 -5.9255596973701419e-01 +5.9976884033411931e-03
-8.5999999999999908e+00 +8.1509024470215099e+00 +0.0000000000000000e+00 -8.5999996589357703e+00 -3.0766957913323185e-02 -5.9255613815781072e-01 +5.9976923583236500e-03
-8.6999999999999904e+00 +8.1508533831147396e+00 +0.0000000000000000e+00 -8.6999996468993004e+00 -3.0766997661089205e-02 -5.9255630899257683e-01 +5.9976977414548816e-03
-8.7999999999999794e+00 +8.1508037519961398e+00 +0.0000000000000000e+00 -8.7999996345829192e+00 -3.0767041787543005e-02 -5.9255648409929218e-01 +5.9977046562831706e-03
-8.8999999999999808e+00 +8.1507535536620708e+00 +0.0000000000000000e+00 -8.8999996219834205e+00 -3.0767089362192170e-02 -5.9255666533593265e-01 +5.9977132063655991e-03
-8.9999999999999805e+00 +8.1507027881161793e+00 +0.0000000000000000e+00 -8.9999996090975891e+00 -3.0767139454468604e-02 -5.9255685456038232e-01 +5.9977234952673427e-03
-9.0999999999999801e+00 +8.1506514553584601e+00 +0.0000000000000000e+00 -9.0999995959221902e+00 -3.0767191133731362e-02 -5.9255705363052225e-01 +5.9977356265628005e-03
-9.1999999999999797e+00 +8.1505995553889097e+00 +0.0000000000000000e+00 -9.1999995824540193e+00 -3.0767243469262809e-02 -5.9255726440419954e-01 +5.9977497038355317e-03
-9.2999999999999794e+00 +8.1505470882038900e+00 +0.0000000000000000e+00 -9.2999995686898593e+00 -3.0767295530268125e-02 -5.9255748873925529e-01 +5.9977658306787484e-03
-9.3999999999999808e+00 +8.1504940538070496e+00 +0.0000000000000000e+00 -9.3999995546264898e+00 -3.0767346385868106e-02 -5.9255772849343780e-01 +5.9977841106946522e-03
-9.4999999999999805e+00 +8.1504404521983798e+00 +0.0000000000000000e+00 -9.4999995402606903e+00 -3.0767395105102006e-02 -5.9255798552448735e-01 +5.9978046474955414e-03
-9.5999999999999801e+00 +8.1503862833778804e+00 +0.0000000000000000e+00 -9.5999995255892507e+00 -3.0767440756923743e-02 -5.9255826169010950e-01 +5.9978275447037438e-03
-9.6999999999999797e+00 +8.1503315473419207e+00 +0.0000000000000000e+00 -9.6999995106089507e+00 -3.0767482410201316e-02 -5.9255855884800102e-01 +5.9978529059521316e-03
-9.7999999999999794e+00 +8.1502762440941297e+00 +0.0000000000000000e+00 -9.7999994953165697e+00 -3.0767519133709720e-02 -5.9255887885576275e-01 +5.9978808348834269e-03
-9.8999999999999808e+00 +8.1502203736345091e+00 +0.0000000000000000e+00 -9.8999994797088906e+00 -3.0767549996133726e-02 -5.9255922357098589e-01 +5.9979114351513497e-03
-9.9999999999999805e+00 +8.1501639359594300e+00 +0.0000000000000000e+00 -9.9999994637827001e+00 -3.0767574066065742e-02 -5.9255959485125287e-01 +5.9979448104208041e-03
-1.0100000000000000e+01 +8.1501069310761505e+00 +0.0000000000000000e+00 -1.0099999447534801e+01 -3.0767590659329866e-02 -5.9255999404893034e-01 +5.9979810160694638e-03
-1.0199999999999999e+01 +8.1500493589774106e+00 +0.0000000000000000e+00 -1.0199999430961901e+01 -3.0767600081045461e-02 -5.9256042049612401e-01 +5.9980199142852120e-03
-1.0300000000000001e+01 +8.1499912196668394e+00 +0.0000000000000000e+00 -1.0299999414060901e+01 -3.0767602883677306e-02 -5.9256087301983074e-01 +5.9980613189414365e-03
-1.0400000000000000e+01 +8.1499325131444493e+00 +0.0000000000000000e+00 -1.0399999396828500e+01 -3.0767599619711910e-02 -5.9256135044717106e-01 +5.9981050438944533e-03
-1.0500000000000000e+01 +8.1498732394065900e+00 +0.0000000000000000e+00 -1.0499999379261400e+01 -3.0767590841658234e-02 -5.9256185160539299e-01 +5.9981509029830397e-03
-1.0600000000000000e+01 +8.1498133984568994e+00 +0.0000000000000000e+00 -1.0599999361356600e+01 -3.0767577102043395e-02 -5.9256237532178702e-01 +5.9981987100270473e-03
-1.0699999999999999e+01 +8.1497529902953794e+00 +0.0000000000000000e+00 -1.0699999343110701e+01 -3.0767558953418400e-02 -5.9256292042377523e-01 +5.9982482788278396e-03
-1.0800000000000001e+01 +8.1496920149220404e+00 +0.0000000000000000e+00 -1.0799999324520600e+01 -3.0767536948357203e-02 -5.9256348573888662e-01 +5.9982994231675127e-03
-1.0900000000000000e+01 +8.1496304723332305e+00 +0.0000000000000000e+00 -1.0899999305583000e+01 -3.0767511639459056e-02 -5.9256407009478806e-01 +5.9983519568087259e-03
-1.1000000000000000e+01 +8.1495683625325892e+00 +0.0000000000000000e+00 -1.0999999286294800e+01 -3.0767483579344276e-02 -5.9256467231919807e-01 +5.9984056934933158e-03
-1.1100000000000000e+01 +8.1495056855201309e+00 +0.0000000000000000e+00 -1.1099999266652601e+01 -3.0767453320659915e-02 -5.9256529123997947e-01 +5.9984604469427386e-03
-1.1199999999999999e+01 +8.1494424412958306e+00 +0.0000000000000000e+00 -1.1199999246653300e+01 -3.0767421416078831e-02 -5.9256592568511057e-01 +5.9985160308572835e-03
-1.1300000000000001e+01 +8.1493786298560700e+00 +0.0000000000000000e+00 -1.1299999226293700e+01 -3.0767388418302049e-02 -5.9256657448271943e-01 +5.9985722589159084e-03
-1.1400000000000000e+01 +8.1493142512044905e+00 +0.0000000000000000e+00 -1.1399999205570500e+01 -3.0767354880054491e-02 -5.9256723646099585e-01 +5.9986289447748510e-03
-1.1500000000000000e+01 +8.1492493053447106e+00 +0.0000000000000000e+00 -1.1499999184480499e+01 -3.0767321354089015e-02 -5.9256791044825508e-01 +5.9986859020677678e-03
-1.1600000000000000e+01 +8.1491837922658306e+00 +0.0000000000000000e+00 -1.1599999163020600e+01 -3.0767288393193790e-02 -5.9256859527305672e-01 +5.9987429444064710e-03
-1.1699999999999999e+01 +8.1491177119787608e+00 +0.0000000000000000e+00 -1.1699999141187400e+01 -3.0767256550176314e-02 -5.9256928976391410e-01 +5.9987998853774215e-03
