# field on trajectory
# s[mm] rx[mm] ry[mm] rz[mm] bx[T] by[T] bz[T]
-0.0000000000000000e+00 +8.1530000000000094e+00 +0.0000000000000000e+00 -0.0000000000000000e+00 -3.0886527184454657e-02 -5.6477627942316966e-01 +5.5867980485184579e-03
-1.0000000000000001e-01 +8.1529997163925092e+00 +0.0000000000000000e+00 -9.9999999999463796e-02 -3.0886481173210186e-02 -5.6477631929487293e-01 +5.5867010759582504e-03
-2.0000000000000001e-01 +8.1529988655711296e+00 +0.0000000000000000e+00 -1.9999999999571000e-01 -3.0886443742224212e-02 -5.6477636760317362e-01 +5.5866102677635168e-03
-2.9999999999999999e-01 +8.1529974475415692e+00 +0.0000000000000000e+00 -2.9999999998552201e-01 -3.0886414099305148e-02 -5.6477642364496372e-01 +5.5865254814037634e-03
-4.0000000000000002e-01 +8.1529954622965306e+00 +0.0000000000000000e+00 -3.9999999996568197e-01 -3.0886391452270859e-02 -5.6477648671723213e-01 +5.5864465743505204e-03
-5.0000000000000000e-01 +8.1529929098396696e+00 +0.0000000000000000e+00 -4.9999999993297300e-01 -3.0886375008939034e-02 -5.6477655611688116e-01 +5.5863734040752936e-03
-5.9999999999999998e-01 +8.1529897901673394e+00 +0.0000000000000000e+00 -5.9999999988417696e-01 -3.0886363977135154e-02 -5.6477663114086873e-01 +5.5863058280508221e-03
-6.9999999999999996e-01 +8.1529861032831796e+00 +0.0000000000000000e+00 -6.9999999981607697e-01 -3.0886357564686762e-02 -5.6477671108609706e-01 +5.5862437037497758e-03
-8.0000000000000004e-01 +8.1529818491871993e+00 +0.0000000000000000e+00 -7.9999999972545699e-01 -3.0886354979428338e-02 -5.6477679524949920e-01 +5.5861868886454367e-03
-9.0000000000000002e-01 +8.1529770278793894e+00 +0.0000000000000000e+00 -8.9999999960909804e-01 -3.0886355429200159e-02 -5.6477688292801120e-01 +5.5861352402112431e-03
-1.0000000000000000e+00 +8.1529716393597500e+00 +0.0000000000000000e+00 -9.9999999946378304e-01 -3.0886358121848648e-02 -5.6477697341857314e-01 +5.5860886159206213e-03
-1.1000000000000001e+00 +8.1529656836210105e+00 +0.0000000000000000e+00 -1.0999999992862901e+00 -3.0886362265229717e-02 -5.6477706601818978e-01 +5.5860468732473962e-03
-1.2000000000000000e+00 +8.1529591606740706e+00 +0.0000000000000000e+00 -1.1999999990734200e+00 -3.0886367067198599e-02 -5.6477716002373068e-01 +5.5860098696636079e-03
-1.3000000000000000e+00 +8.1529520705153100e+00 +0.0000000000000000e+00 -1.2999999988219300e+00 -3.0886371735623721e-02 -5.6477725473218832e-01 +5.5859774626419289e-03
-1.3999999999999999e+00 +8.1529444131410909e+00 +0.0000000000000000e+00 -1.3999999985286200e+00 -3.0886375478381085e-02 -5.6477734944056535e-01 +5.5859495096543454e-03
-1.5000000000000000e+00 +8.1529361885550298e+00 +0.0000000000000000e+00 -1.4999999981902701e+00 -3.0886377503351548e-02 -5.6477744344582015e-01 +5.5859258681714135e-03
-1.6000000000000001e+00 +8.1529273967571498e+00 +0.0000000000000000e+00 -1.5999999978036501e+00 -3.0886377018425691e-02 -5.6477753604495151e-01 +5.5859063956629536e-03
-1.7000000000000000e+00 +8.1529180377474404e+00 +0.0000000000000000e+00 -1.6999999973655600e+00 -3.0886373231502721e-02 -5.6477762653497454e-01 +5.5858909495975989e-03
-1.8000000000000000e+00 +8.1529081115222706e+00 +0.0000000000000000e+00 -1.7999999968727800e+00 -3.0886365350492290e-02 -5.6477771421294720e-01 +5.5858793874428957e-03
-1.8999999999999999e+00 +8.1528976180852606e+00 +0.0000000000000000e+00 -1.8999999963220899e+00 -3.0886352583310333e-02 -5.6477779837588948e-01 +5.5858715666643015e-03
-2.0000000000000000e+00 +8.1528865574327902e+00 +0.0000000000000000e+00 -1.9999999957102601e+00 -3.0886334137885444e-02 -5.6477787832089565e-01 +5.5858673447261404e-03
-2.1000000000000001e+00 +8.1528749295721408e+00 +0.0000000000000000e+00 -2.0999999950340902e+00 -3.0886309354227828e-02 -5.6477795354096794e-01 +5.5858666142771154e-03
-2.2000000000000002e+00 +8.1528627344960096e+00 +0.0000000000000000e+00 -2.1999999942903599e+00 -3.0886278100663380e-02 -5.6477802431312041e-01 +5.5858694087141929e-03
-2.2999999999999998e+00 +8.1528499722080596e+00 +0.0000000000000000e+00 -2.2999999934758399e+00 -3.0886240377584088e-02 -5.6477809111025190e-01 +5.5858757966204455e-03
-2.3999999999999999e+00 +8.1528366427046404e+00 +0.0000000000000000e+00 -2.3999999925873299e+00 -3.0886196185376642e-02 -5.6477815440531332e-01 +5.5858858465796151e-03
-2.5000000000000000e+00 +8.1528227459894005e+00 +0.0000000000000000e+00 -2.4999999916215998e+00 -3.0886145524414675e-02 -5.6477821467119116e-01 +5.5858996271750507e-03
-2.6000000000000001e+00 +8.1528082820659602e+00 +0.0000000000000000e+00 -2.5999999905754398e+00 -3.0886088395060296e-02 -5.6477827238076450e-01 +5.5859172069903590e-03
-2.7000000000000002e+00 +8.1527932509234198e+00 +0.0000000000000000e+00 -2.6999999894456299e+00 -3.0886024797668450e-02 -5.6477832800701488e-01 +5.5859386546106178e-03
-2.7999999999999998e+00 +8.1527776525726896e+00 +0.0000000000000000e+00 -2.7999999882289601e+00 -3.0885954732570275e-02 -5.6477838202274300e-01 +5.5859640386196020e-03
-2.8999999999999999e+00 +8.1527614870065008e+00 +0.0000000000000000e+00 -2.8999999869222002e+00 -3.0885878200088080e-02 -5.6477843490087709e-01 +5.5859934276030051e-03
-3.0000000000000000e+00 +8.1527447542284808e+00 +0.0000000000000000e+00 -2.9999999855221300e+00 -3.0885795200521735e-02 -5.6477848711424716e-01 +5.5860268901462362e-03
-3.1000000000000001e+00 +8.1527274542386294e+00 +0.0000000000000000e+00 -3.0999999840255499e+00 -3.0885705734153047e-02 -5.6477853913569398e-01 +5.5860644948356308e-03
-3.2000000000000002e+00 +8.1527095870333106e+00 +0.0000000000000000e+00 -3.1999999824292300e+00 -3.0885609801244204e-02 -5.6477859143806941e-01 +5.5861063102585345e-03
-3.2999999999999998e+00 +8.1526911526198091e+00 +0.0000000000000000e+00 -3.2999999807299600e+00 -3.0885507402030131e-02 -5.6477864449412096e-01 +5.5861524050022414e-03
-3.3999999999999999e+00 +8.1526721509872004e+00 +0.0000000000000000e+00 -3.3999999789245101e+00 -3.0885398536728979e-02 -5.6477869877671627e-01 +5.5862028476563498e-03
-3.5000000000000000e+00 +8.1526525821464002e+00 +0.0000000000000000e+00 -3.4999999770096801e+00 -3.0885283205523906e-02 -5.6477875475853145e-01 +5.5862577068097104e-03
-3.6000000000000001e+00 +8.1526324460901396e+00 +0.0000000000000000e+00 -3.5999999749822500e+00 -3.0885161408578124e-02 -5.6477881291235865e-01 +5.5863170510536339e-03
-3.7000000000000002e+00 +8.1526117428220495e+00 +0.0000000000000000e+00 -3.6999999728389801e+00 -3.0885033146021170e-02 -5.6477887371088054e-01 +5.5863809489796867e-03
-3.7999999999999998e+00 +8.1525904723421299e+00 +0.0000000000000000e+00 -3.7999999705766800e+00 -3.0884898417953412e-02 -5.6477893762678066e-01 +5.5864494691809184e-03
-3.8999999999999999e+00 +8.1525686346503807e+00 +0.0000000000000000e+00 -3.8999999681921298e+00 -3.0884757224442918e-02 -5.6477900513271306e-01 +5.5865226802516528e-03
-4.0000000000000000e+00 +8.1525462297431694e+00 +0.0000000000000000e+00 -3.9999999656820902e+00 -3.0884609565525332e-02 -5.6477907670133043e-01 +5.5866006507878400e-03
-4.0999999999999996e+00 +8.1525232576241304e+00 +0.0000000000000000e+00 -4.0999999630433699e+00 -3.0884455439877560e-02 -5.6477915281587698e-01 +5.5866834024437288e-03
-4.2000000000000002e+00 +8.1524997182896204e+00 +0.0000000000000000e+00 -4.1999999602727298e+00 -3.0884294840879015e-02 -5.6477923400235763e-01 +5.5867707691051524e-03
-4.2999999999999998e+00 +8.1524756117469206e+00 +0.0000000000000000e+00 -4.2999999573669703e+00 -3.0884127760595310e-02 -5.6477932079738102e-01 +5.5868625377159149e-03
-4.4000000000000004e+00 +8.1524509379887604e+00 +0.0000000000000000e+00 -4.3999999543228601e+00 -3.0883954191114924e-02 -5.6477941373768081e-01 +5.5869584952224867e-03
-4.5000000000000000e+00 +8.1524256970187707e+00 +0.0000000000000000e+00 -4.4999999511372000e+00 -3.0883774124540152e-02 -5.6477951335991849e-01 +5.5870584285721064e-03
-4.5999999999999996e+00 +8.1523998888369498e+00 +0.0000000000000000e+00 -4.5999999478067499e+00 -3.0883587552994800e-02 -5.6477962020079953e-01 +5.5871621247139758e-03
-4.7000000000000002e+00 +8.1523735134396702e+00 +0.0000000000000000e+00 -4.6999999443283098e+00 -3.0883394468625678e-02 -5.6477973479707189e-01 +5.5872693705993339e-03
-4.7999999999999998e+00 +8.1523465708305594e+00 +0.0000000000000000e+00 -4.7999999406986600e+00 -3.0883194863599726e-02 -5.6477985768544525e-01 +5.5873799531806888e-03
-4.9000000000000004e+00 +8.1523190610096208e+00 +0.0000000000000000e+00 -4.8999999369145701e+00 -3.0882988730110032e-02 -5.6477998940267415e-01 +5.5874936594127117e-03
-5.0000000000000000e+00 +8.1522909839768491e+00 +0.0000000000000000e+00 -4.9999999329728402e+00 -3.0882776060376014e-02 -5.6478013048553288e-01 +5.5876102762520618e-03
-5.0999999999999996e+00 +8.1522623397286207e+00 +0.0000000000000000e+00 -5.0999999288702398e+00 -3.0882556846646404e-02 -5.6478028147084369e-01 +5.5877295906577125e-03
-5.2000000000000002e+00 +8.1522331282685592e+00 +0.0000000000000000e+00 -5.1999999246035600e+00 -3.0882331081196351e-02 -5.6478044289539397e-01 +5.5878513895901922e-03
-5.2999999999999998e+00 +8.1522033495966806e+00 +0.0000000000000000e+00 -5.2999999201695802e+00 -3.0882098756333520e-02 -5.6478061529602197e-01 +5.5879754600124875e-03
-5.4000000000000004e+00 +8.1521730037093203e+00 +0.0000000000000000e+00 -5.3999999155650800e+00 -3.0881859864399685e-02 -5.6478079920961710e-01 +5.5881015888901405e-03
-5.5000000000000000e+00 +8.1521420906137791e+00 +0.0000000000000000e+00 -5.4999999107868396e+00 -3.0881614397766221e-02 -5.6478099517300961e-01 +5.5882295631901552e-03
-5.5999999999999996e+00 +8.1521106102991308e+00 +0.0000000000000000e+00 -5.5999999058316599e+00 -3.0881362348847807e-02 -5.6478120372319607e-01 +5.5883591698833749e-03
-5.7000000000000002e+00 +8.1520785627762997e+00 +0.0000000000000000e+00 -5.6999999006963096e+00 -3.0881103710087402e-02 -5.6478142539703136e-01 +5.5884901959413922e-03
-5.7999999999999998e+00 +8.1520459480379905e+00 +0.0000000000000000e+00 -5.7999998953775700e+00 -3.0880838473974381e-02 -5.6478166073153890e-01 +5.5886224283397817e-03
-5.9000000000000004e+00 +8.1520127660915005e+00 +0.0000000000000000e+00 -5.8999998898722197e+00 -3.0880566633032566e-02 -5.6478191026365876e-01 +5.5887556540555865e-03
-5.9999999999999902e+00 +8.1519790169259103e+00 +0.0000000000000000e+00 -5.9999998841770603e+00 -3.0880288179835430e-02 -5.6478217453050295e-01 +5.5888896600699792e-03
-6.0999999999999899e+00 +8.1519447005521197e+00 +0.0000000000000000e+00 -6.0999998782888598e+00 -3.0880003326175281e-02 -5.6478245388357451e-01 +5.5890242761413161e-03
-6.1999999999999904e+00 +8.1519098169665103e+00 +0.0000000000000000e+00 -6.1999998722044003e+00 -3.0879713160614341e-02 -5.6478274793262129e-01 +5.5891595031360162e-03
-6.2999999999999901e+00 +8.1518743661654298e+00 +0.0000000000000000e+00 -6.2999998659204701e+00 -3.0879418990886462e-02 -5.6478305610190904e-01 +5.5892953846967235e-03
-6.3999999999999897e+00 +8.1518383481488907e+00 +0.0000000000000000e+00 -6.3999998594338496e+00 -3.0879122124703420e-02 -5.6478337781565990e-01 +5.5894319644652322e-03
-6.4999999999999902e+00 +8.1518017629241495e+00 +0.0000000000000000e+00 -6.4999998527413201e+00 -3.0878823869752322e-02 -5.6478371249802484e-01 +5.5895692860821562e-03
-6.5999999999999899e+00 +8.1517646104839496e+00 +0.0000000000000000e+00 -6.5999998458396698e+00 -3.0878525533703596e-02 -5.6478405957325062e-01 +5.5897073931885574e-03
-6.6999999999999904e+00 +8.1517268908319203e+00 +0.0000000000000000e+00 -6.6999998387256703e+00 -3.0878228424199336e-02 -5.6478441846548300e-01 +5.5898463294238934e-03
-6.7999999999999901e+00 +8.1516886039680703e+00 +0.0000000000000000e+00 -6.7999998313961196e+00 -3.0877933848858265e-02 -5.6478478859887760e-01 +5.5899861384270918e-03
-6.8999999999999897e+00 +8.1516497498923908e+00 +0.0000000000000000e+00 -6.8999998238477902e+00 -3.0877643115273173e-02 -5.6478516939757184e-01 +5.5901268638362056e-03
-6.9999999999999902e+00 +8.1516103286012402e+00 +0.0000000000000000e+00 -6.9999998160774597e+00 -3.0877357531011295e-02 -5.6478556028571125e-01 +5.5902685492886300e-03
-7.0999999999999899e+00 +8.1515703400982602e+00 +0.0000000000000000e+00 -7.0999998080819298e+00 -3.0877078403608725e-02 -5.6478596068736553e-01 +5.5904112384201760e-03
-7.1999999999999904e+00 +8.1515297843834595e+00 +0.0000000000000000e+00 -7.1999997998579603e+00 -3.0876807040573894e-02 -5.6478637002661158e-01 +5.5905549748658740e-03
-7.2999999999999901e+00 +8.1514886614531896e+00 +0.0000000000000000e+00 -7.2999997914023496e+00 -3.0876544749386448e-02 -5.6478678772753255e-01 +5.5906998022598993e-03
-7.3999999999999897e+00 +8.1514469713147300e+00 +0.0000000000000000e+00 -7.3999997827118804e+00 -3.0876292837490153e-02 -5.6478721321410430e-01 +5.5908457642343751e-03
-7.4999999999999902e+00 +8.1514047139571595e+00 +0.0000000000000000e+00 -7.4999997737833199e+00 -3.0876052612303896e-02 -5.6478764591042119e-01 +5.5909929044215831e-03
-7.5999999999999899e+00 +8.1513618893914099e+00 +0.0000000000000000e+00 -7.5999997646134698e+00 -3.0875825381203949e-02 -5.6478808524038371e-01 +5.5911412664507590e-03
-7.6999999999999904e+00 +8.1513184976138309e+00 +0.0000000000000000e+00 -7.6999997551991104e+00 -3.0875612451538040e-02 -5.6478853062798084e-01 +5.5912908939508930e-03
-7.7999999999999901e+00 +8.1512745386207808e+00 +0.0000000000000000e+00 -7.7999997455370096e+00 -3.0875415130618235e-02 -5.6478898149717627e-01 +5.5914418305495128e-03
-7.8999999999999897e+00 +8.1512300124159101e+00 +0.0000000000000000e+00 -7.8999997356239602e+00 -3.0875234725716766e-02 -5.6478943727185016e-01 +5.5915941198720507e-03
-7.9999999999999902e+00 +8.1511849189955701e+00 +0.0000000000000000e+00 -7.9999997254567399e+00 -3.0875072544071062e-02 -5.6478989737591245e-01 +5.5917478055429190e-03
-8.0999999999999908e+00 +8.1511392583670403e+00 +0.0000000000000000e+00 -8.0999997150321406e+00 -3.0874929521785627e-02 -5.6479036123722026e-01 +5.5919029176970817e-03
-8.1999999999999904e+00 +8.1510930305230396e+00 +0.0000000000000000e+00 -8.1999997043469399e+00 -3.0874805110582191e-02 -5.6479082829996885e-01 +5.5920594325213312e-03
-8.2999999999999901e+00 +8.1510462354672200e+00 +0.0000000000000000e+00 -8.2999996933979094e+00 -3.0874698391100314e-02 -5.6479129801235239e-01 +5.5922173127144082e-03
-8.3999999999999897e+00 +8.1509988731995708e+00 +0.0000000000000000e+00 -8.3999996821818605e+00 -3.0874608444005008e-02 -5.6479176982262236e-01 +5.5923765209754603e-03
-8.4999999999999893e+00 +8.1509509437164507e+00 +0.0000000000000000e+00 -8.4999996706955496e+00 -3.0874534349987662e-02 -5.6479224317908916e-01 +5.5925370200040452e-03
-8.5999999999999908e+00 +8.1509024470215099e+00 +0.0000000000000000e+00 -8.5999996589357703e+00 -3.0874475189762347e-02 -5.6479271753003846e-01 +5.5926987724992418e-03
-8.6999999999999904e+00 +8.1508533831147396e+00 +0.0000000000000000e+00 -8.6999996468993004e+00 -3.0874430044071251e-02 -5.6479319232381608e-01 +5.5928617411605298e-03
-8.7999999999999794e+00 +8.1508037519961398e+00 +0.0000000000000000e+00 -8.7999996345829192e+00 -3.0874397993683977e-02 -5.6479366700880163e-01 +5.5930258886874810e-03
-8.8999999999999808e+00 +8.1507535536620708e+00 +0.0000000000000000e+00 -8.8999996219834205e+00 -3.0874378119400005e-02 -5.6479414103343750e-01 +5.5931911777800398e-03
-8.9999999999999805e+00 +8.1507027881161793e+00 +0.0000000000000000e+00 -8.9999996090975891e+00 -3.0874369502044984e-02 -5.6479461384614482e-01 +5.5933575711376539e-03
-9.0999999999999801e+00 +8.1506514553584601e+00 +0.0000000000000000e+00 -9.0999995959221902e+00 -3.0874371222476164e-02 -5.6479508489540886e-01 +5.5935250314601411e-03
-9.1999999999999797e+00 +8.1505995553889097e+00 +0.0000000000000000e+00 -9.1999995824540193e+00 -3.0874382361581746e-02 -5.6479555362975287e-01 +5.5936935214473881e-03
-9.2999999999999794e+00 +8.1505470882038900e+00 +0.0000000000000000e+00 -9.2999995686898593e+00 -3.0874402000283265e-02 -5.6479601949776703e-01 +5.5938630037996274e-03
-9.3999999999999808e+00 +8.1504940538070496e+00 +0.0000000000000000e+00 -9.3999995546264898e+00 -3.0874429219531943e-02 -5.6479648194802368e-01 +5.5940334412165676e-03
-9.4999999999999805e+00 +8.1504404521983798e+00 +0.0000000000000000e+00 -9.4999995402606903e+00 -3.0874463100314078e-02 -5.6479694042916340e-01 +5.5942047963982574e-03
-9.5999999999999801e+00 +8.1503862833778804e+00 +0.0000000000000000e+00 -9.5999995255892507e+00 -3.0874502723650474e-02 -5.6479739438986942e-01 +5.5943770320447906e-03
-9.6999999999999797e+00 +8.1503315473419207e+00 +0.0000000000000000e+00 -9.6999995106089507e+00 -3.0874547170598707e-02 -5.6479784327889415e-01 +5.5945501108565707e-03
-9.7999999999999794e+00 +8.1502762440941297e+00 +0.0000000000000000e+00 -9.7999994953165697e+00 -3.0874595522249606e-02 -5.6479828654497755e-01 +5.5947239955334719e-03
-9.8999999999999808e+00 +8.1502203736345091e+00 +0.0000000000000000e+00 -9.8999994797088906e+00 -3.0874646859732558e-02 -5.6479872363693184e-01 +5.5948986487756591e-03
-9.9999999999999805e+00 +8.1501639359594300e+00 +0.0000000000000000e+00 -9.9999994637827001e+00 -3.0874700264216442e-02 -5.6479915400364245e-01 +5.5950740332836087e-03
-1.0100000000000000e+01 +8.1501069310761505e+00 +0.0000000000000000e+00 -1.0099999447534801e+01 -3.0874754845673768e-02 -5.6479957743475484e-01 +5.5952501259096780e-03
-1.0199999999999999e+01 +8.1500493589774106e+00 +0.0000000000000000e+00 -1.0199999430961901e+01 -3.0874809829173046e-02 -5.6479999508328227e-01 +5.5954269601157895e-03
-1.0300000000000001e+01 +8.1499912196668394e+00 +0.0000000000000000e+00 -1.0299999414060901e+01 -3.0874864468508751e-02 -5.6480040844299029e-01 +5.5956045835066177e-03
-1.0400000000000000e+01 +8.1499325131444493e+00 +0.0000000000000000e+00 -1.0399999396828500e+01 -3.0874918017428785e-02 -5.6480081900770007e-01 +5.5957830436764349e-03
-1.0500000000000000e+01 +8.1498732394065900e+00 +0.0000000000000000e+00 -1.0499999379261400e+01 -3.0874969729633144e-02 -5.6480122827128743e-01 +5.5959623882088525e-03
-1.0600000000000000e+01 +8.1498133984568994e+00 +0.0000000000000000e+00 -1.0599999361356600e+01 -3.0875018858768227e-02 -5.6480163772760072e-01 +5.5961426646757000e-03
-1.0699999999999999e+01 +8.1497529902953794e+00 +0.0000000000000000e+00 -1.0699999343110701e+01 -3.0875064658430026e-02 -5.6480204887054297e-01 +5.5963239206376202e-03
-1.0800000000000001e+01 +8.1496920149220404e+00 +0.0000000000000000e+00 -1.0799999324520600e+01 -3.0875106382161416e-02 -5.6480246319404737e-01 +5.5965062036435259e-03
-1.0900000000000000e+01 +8.1496304723332305e+00 +0.0000000000000000e+00 -1.0899999305583000e+01 -3.0875143283452412e-02 -5.6480288219210306e-01 +5.5966895612306273e-03
-1.1000000000000000e+01 +8.1495683625325892e+00 +0.0000000000000000e+00 -1.0999999286294800e+01 -3.0875174615734319e-02 -5.6480330735867335e-01 +5.5968740409233055e-03
-1.1100000000000000e+01 +8.1495056855201309e+00 +0.0000000000000000e+00 -1.1099999266652601e+01 -3.0875199632383103e-02 -5.6480374018777912e-01 +5.5970596902337154e-03
-1.1199999999999999e+01 +8.1494424412958306e+00 +0.0000000000000000e+00 -1.1199999246653300e+01 -3.0875217586716582e-02 -5.6480418217347184e-01 +5.5972465566612381e-03
-1.1300000000000001e+01 +8.1493786298560700e+00 +0.0000000000000000e+00 -1.1299999226293700e+01 -3.0875227731994661e-02 -5.6480463480986176e-01 +5.5974346876925098e-03
-1.1400000000000000e+01 +8.1493142512044905e+00 +0.0000000000000000e+00 -1.1399999205570500e+01 -3.0875229321413570e-02 -5.6480509959103387e-01 +5.5976241308002888e-03
-1.1500000000000000e+01 +8.1492493053447106e+00 +0.0000000000000000e+00 -1.1499999184480499e+01 -3.0875221608107642e-02 -5.6480557801110554e-01 +5.5978149334437854e-03
-1.1600000000000000e+01 +8.1491837922658306e+00 +0.0000000000000000e+00 -1.1599999163020600e+01 -3.0875203845154107e-02 -5.6480607156433826e-01 +5.5980071430695375e-03
-1.1699999999999999e+01 +8.1491177119787608e+00 +0.0000000000000000e+00 -1.1699999141187400e+01 -3.0875175285556729e-02 -5.6480658174485765e-01 +5.5982008071082797e-03
