# field on trajectory
# s[mm] rx[mm] ry[mm] rz[mm] bx[T] by[T] bz[T]
0.0000000000000000e+00 +8.1529999999999987e+00 +0.0000000000000000e+00 +0.0000000000000000e+00 -2.8389021574710061e-02 -5.3670562026709601e-01 +5.3731985709487042e-03
1.0000000000000001e-01 +8.1529997170326123e+00 +0.0000000000000000e+00 +9.9999999999466210e-02 -2.8389190508548750e-02 -5.3670577611719261e-01 +5.3732999048009926e-03
2.0000000000000001e-01 +8.1529988681303411e+00 +0.0000000000000000e+00 +1.9999999999572959e-01 -2.8389358488481065e-02 -5.3670595269265620e-01 +5.3734017078177557e-03
3.0000000000000004e-01 +8.1529974532929987e+00 +0.0000000000000000e+00 +2.9999999998558735e-01 -2.8389525288031296e-02 -5.3670614932518890e-01 +5.3735039817958043e-03
4.0000000000000002e-01 +8.1529954725203773e+00 +0.0000000000000000e+00 +3.9999999996583657e-01 -2.8389690680717544e-02 -5.3670636534649008e-01 +5.3736067285341613e-03
5.0000000000000000e-01 +8.1529929258122493e+00 +0.0000000000000000e+00 +4.9999999993327449e-01 -2.8389854440052251e-02 -5.3670660008825322e-01 +5.3737099498337333e-03
5.9999999999999998e-01 +8.1529898131683680e+00 +0.0000000000000000e+00 +5.9999999988469832e-01 -2.8390016339543009e-02 -5.3670685288217146e-01 +5.3738136474970194e-03
6.9999999999999996e-01 +8.1529861345884669e+00 +0.0000000000000000e+00 +6.9999999981690508e-01 -2.8390176152693000e-02 -5.3670712305993418e-01 +5.3739178233278145e-03
7.9999999999999993e-01 +8.1529818900722599e+00 +0.0000000000000000e+00 +7.9999999972669200e-01 -2.8390333653001816e-02 -5.3670740995323141e-01 +5.3740224791308982e-03
8.9999999999999991e-01 +8.1529770796194470e+00 +0.0000000000000000e+00 +8.9999999961085630e-01 -2.8390488613965939e-02 -5.3670771289375185e-01 +5.3741276167117331e-03
9.9999999999999989e-01 +8.1529717032297064e+00 +0.0000000000000000e+00 +9.9999999946619500e-01 -2.8390640809079454e-02 -5.3670803121318622e-01 +5.3742332378761623e-03
1.0999999999999999e+00 +8.1529657609027044e+00 +0.0000000000000000e+00 +1.0999999992895053e+00 -2.8390790011834657e-02 -5.3670836424322577e-01 +5.3743393444301030e-03
1.2000000000000000e+00 +8.1529592526380910e+00 +0.0000000000000000e+00 +1.1999999990775843e+00 -2.8390935995722687e-02 -5.3670871131556486e-01 +5.3744459381792594e-03
1.3000000000000000e+00 +8.1529521784354984e+00 +0.0000000000000000e+00 +1.2999999988272291e+00 -2.8391078534234178e-02 -5.3670907176190130e-01 +5.3745530209287984e-03
1.4000000000000001e+00 +8.1529445382945482e+00 +0.0000000000000000e+00 +1.3999999985352369e+00 -2.8391217400859883e-02 -5.3670944491393724e-01 +5.3746605944830590e-03
1.5000000000000002e+00 +8.1529363322148463e+00 +0.0000000000000000e+00 +1.4999999981984047e+00 -2.8391352369091294e-02 -5.3670983010338047e-01 +5.3747686606452523e-03
1.6000000000000003e+00 +8.1529275601959874e+00 +0.0000000000000000e+00 +1.5999999978135298e+00 -2.8391483212421270e-02 -5.3671022666194379e-01 +5.3748772212171437e-03
1.7000000000000004e+00 +8.1529182222375525e+00 +0.0000000000000000e+00 +1.6999999973774089e+00 -2.8391609704344688e-02 -5.3671063392134777e-01 +5.3749862779987698e-03
1.8000000000000005e+00 +8.1529083183391133e+00 +0.0000000000000000e+00 +1.7999999968868394e+00 -2.8391731618359086e-02 -5.3671105121332097e-01 +5.3750958327881231e-03
1.9000000000000006e+00 +8.1528978485002312e+00 +0.0000000000000000e+00 +1.8999999963386183e+00 -2.8391848727965265e-02 -5.3671147786960061e-01 +5.3752058873808442e-03
2.0000000000000004e+00 +8.1528868127204550e+00 +0.0000000000000000e+00 +1.9999999957295427e+00 -2.8391960806667910e-02 -5.3671191322193268e-01 +5.3753164435699340e-03
2.1000000000000005e+00 +8.1528752109993281e+00 +0.0000000000000000e+00 +2.0999999950564097e+00 -2.8392067711826410e-02 -5.3671235658001659e-01 +5.3754274970733377e-03
2.2000000000000006e+00 +8.1528630433363816e+00 +0.0000000000000000e+00 +2.1999999943160162e+00 -2.8392169636205049e-02 -5.3671280716533420e-01 +5.3755390193179313e-03
2.3000000000000007e+00 +8.1528503097311411e+00 +0.0000000000000000e+00 +2.2999999935051592e+00 -2.8392266856422068e-02 -5.3671326417732645e-01 +5.3756509756567343e-03
2.4000000000000008e+00 +8.1528370101831253e+00 +0.0000000000000000e+00 +2.3999999926206357e+00 -2.8392359649099693e-02 -5.3671372681545249e-01 +5.3757633314410573e-03
2.5000000000000009e+00 +8.1528231446918475e+00 +0.0000000000000000e+00 +2.4999999916592430e+00 -2.8392448290864583e-02 -5.3671419427919287e-01 +5.3758760520204261e-03
2.6000000000000010e+00 +8.1528087132568157e+00 +0.0000000000000000e+00 +2.5999999906177780e+00 -2.8392533058348185e-02 -5.3671466576805005e-01 +5.3759891027424971e-03
2.7000000000000011e+00 +8.1527937158775323e+00 +0.0000000000000000e+00 +2.6999999894930378e+00 -2.8392614228187136e-02 -5.3671514048154911e-01 +5.3761024489529614e-03
2.8000000000000012e+00 +8.1527781525534966e+00 +0.0000000000000000e+00 +2.7999999882818192e+00 -2.8392692077023662e-02 -5.3671561761924069e-01 +5.3762160559954657e-03
2.9000000000000012e+00 +8.1527620232842075e+00 +0.0000000000000000e+00 +2.8999999869809190e+00 -2.8392766881505951e-02 -5.3671609638070117e-01 +5.3763298892115204e-03
3.0000000000000013e+00 +8.1527453280691606e+00 +0.0000000000000000e+00 +2.9999999855871344e+00 -2.8392838918288560e-02 -5.3671657596553490e-01 +5.3764439139404119e-03
3.1000000000000014e+00 +8.1527280669078497e+00 +0.0000000000000000e+00 +3.0999999840972623e+00 -2.8392908464032821e-02 -5.3671705557337557e-01 +5.3765580955191222e-03
3.2000000000000015e+00 +8.1527102397997702e+00 +0.0000000000000000e+00 +3.1999999825080998e+00 -2.8392975795407178e-02 -5.3671753440388748e-01 +5.3766723992822348e-03
3.3000000000000016e+00 +8.1526918467444176e+00 +0.0000000000000000e+00 +3.2999999808164437e+00 -2.8393041189087666e-02 -5.3671801165676725e-01 +5.3767867905618535e-03
3.4000000000000017e+00 +8.1526728877412911e+00 +0.0000000000000000e+00 +3.3999999790190913e+00 -2.8393104921758200e-02 -5.3671848653174459e-01 +5.3769012346875080e-03
3.5000000000000018e+00 +8.1526533627898878e+00 +0.0000000000000000e+00 +3.4999999771128394e+00 -2.8393167270111052e-02 -5.3671895822858484e-01 +5.3770156969860762e-03
3.6000000000000019e+00 +8.1526332718897123e+00 +0.0000000000000000e+00 +3.5999999750944847e+00 -2.8393228510847211e-02 -5.3671942594708943e-01 +5.3771301427816926e-03
3.7000000000000020e+00 +8.1526126150402725e+00 +0.0000000000000000e+00 +3.6999999729608239e+00 -2.8393288920676767e-02 -5.3671988888709843e-01 +5.3772445373956581e-03
3.8000000000000020e+00 +8.1525913922410815e+00 +0.0000000000000000e+00 +3.7999999707086545e+00 -2.8393348776319320e-02 -5.3672034624849041e-01 +5.3773588461463557e-03
3.9000000000000021e+00 +8.1525696034916564e+00 +0.0000000000000000e+00 +3.8999999683347730e+00 -2.8393408354504379e-02 -5.3672079723118582e-01 +5.3774730343491717e-03
4.0000000000000018e+00 +8.1525472487915227e+00 +0.0000000000000000e+00 +3.9999999658359764e+00 -2.8393467931971721e-02 -5.3672124103514685e-01 +5.3775870673163952e-03
4.1000000000000014e+00 +8.1525243281402151e+00 +0.0000000000000000e+00 +4.0999999632090613e+00 -2.8393527702823218e-02 -5.3672167710032281e-01 +5.3777009080776894e-03
4.2000000000000011e+00 +8.1525008415372717e+00 +0.0000000000000000e+00 +4.1999999604508256e+00 -2.8393587530567727e-02 -5.3672210582645308e-01 +5.3778145105436628e-03
4.3000000000000007e+00 +8.1524767889822431e+00 +0.0000000000000000e+00 +4.2999999575580654e+00 -2.8393647196050583e-02 -5.3672252785319119e-01 +5.3779278263478463e-03
4.4000000000000004e+00 +8.1524521704746835e+00 +0.0000000000000000e+00 +4.3999999545275772e+00 -2.8393706480098816e-02 -5.3672294382014896e-01 +5.3780408071269145e-03
4.5000000000000000e+00 +8.1524269860141558e+00 +0.0000000000000000e+00 +4.4999999513561582e+00 -2.8393765163519855e-02 -5.3672335436689544e-01 +5.3781534045209498e-03
4.5999999999999996e+00 +8.1524012356002284e+00 +0.0000000000000000e+00 +4.5999999480406055e+00 -2.8393823027100293e-02 -5.3672376013295164e-01 +5.3782655701737391e-03
4.6999999999999993e+00 +8.1523749192324733e+00 +0.0000000000000000e+00 +4.6999999445777156e+00 -2.8393879851604575e-02 -5.3672416175778792e-01 +5.3783772557330477e-03
4.7999999999999989e+00 +8.1523480369104675e+00 +0.0000000000000000e+00 +4.7999999409642857e+00 -2.8393935417773731e-02 -5.3672455988082102e-01 +5.3784884128508931e-03
4.8999999999999986e+00 +8.1523205886337937e+00 +0.0000000000000000e+00 +4.8999999371971130e+00 -2.8393989506324064e-02 -5.3672495514140961e-01 +5.3785989931838269e-03
4.9999999999999982e+00 +8.1522925744020345e+00 +0.0000000000000000e+00 +4.9999999332729939e+00 -2.8394041897945872e-02 -5.3672534817885109e-01 +5.3787089483932149e-03
5.0999999999999979e+00 +8.1522639942147777e+00 +0.0000000000000000e+00 +5.0999999291887246e+00 -2.8394092373302197e-02 -5.3672573963237880e-01 +5.3788182301455194e-03
5.1999999999999975e+00 +8.1522348480716094e+00 +0.0000000000000000e+00 +5.1999999249411024e+00 -2.8394140713027524e-02 -5.3672613014115766e-01 +5.3789267901125735e-03
5.2999999999999972e+00 +8.1522051359721193e+00 +0.0000000000000000e+00 +5.2999999205269246e+00 -2.8394186697726448e-02 -5.3672652034428170e-01 +5.3790345799718574e-03
5.3999999999999968e+00 +8.1521748579158970e+00 +0.0000000000000000e+00 +5.3999999159429874e+00 -2.8394230107972471e-02 -5.3672691088076885e-01 +5.3791415514067862e-03
5.4999999999999964e+00 +8.1521440139025323e+00 +0.0000000000000000e+00 +5.4999999111860882e+00 -2.8394270724306656e-02 -5.3672730238956012e-01 +5.3792476561069875e-03
5.5999999999999961e+00 +8.1521126039316130e+00 +0.0000000000000000e+00 +5.5999999062530232e+00 -2.8394308327236377e-02 -5.3672769550951382e-01 +5.3793528457685728e-03
5.6999999999999957e+00 +8.1520806280027251e+00 +0.0000000000000000e+00 +5.6999999011405897e+00 -2.8394342697233978e-02 -5.3672809087940310e-01 +5.3794570720944275e-03
5.7999999999999954e+00 +8.1520480861154532e+00 +0.0000000000000000e+00 +5.7999998958455841e+00 -2.8394373614735586e-02 -5.3672848913791260e-01 +5.3795602867944799e-03
5.8999999999999950e+00 +8.1520149782693778e+00 +0.0000000000000000e+00 +5.8999998903648034e+00 -2.8394400860139741e-02 -5.3672889092363496e-01 +5.3796624415859973e-03
5.9999999999999947e+00 +8.1519813044640763e+00 +0.0000000000000000e+00 +5.9999998846950442e+00 -2.8394424213806117e-02 -5.3672929687506643e-01 +5.3797634881938439e-03
6.0999999999999943e+00 +8.1519470646991223e+00 +0.0000000000000000e+00 +6.0999998788331027e+00 -2.8394443591459324e-02 -5.3672970754117377e-01 +5.3798633966665767e-03
6.1999999999999940e+00 +8.1519122589740824e+00 +0.0000000000000000e+00 +6.1999998727757761e+00 -2.8394459450426880e-02 -5.3673012311313328e-01 +5.3799622103212381e-03
6.2999999999999936e+00 +8.1518768872885214e+00 +0.0000000000000000e+00 +6.2999998665198618e+00 -2.8394472383462217e-02 -5.3673054369269024e-01 +5.3800599907904154e-03
6.3999999999999932e+00 +8.1518409496419952e+00 +0.0000000000000000e+00 +6.3999998600621559e+00 -2.8394482983345421e-02 -5.3673096938159792e-01 +5.3801567997054343e-03
6.4999999999999929e+00 +8.1518044460340580e+00 +0.0000000000000000e+00 +6.4999998533994550e+00 -2.8394491842884836e-02 -5.3673140028162170e-01 +5.3802526986962591e-03
6.5999999999999925e+00 +8.1517673764642549e+00 +0.0000000000000000e+00 +6.5999998465285561e+00 -2.8394499554918372e-02 -5.3673183649453837e-01 +5.3803477493913820e-03
6.6999999999999922e+00 +8.1517297409321277e+00 +0.0000000000000000e+00 +6.6999998394462557e+00 -2.8394506712315026e-02 -5.3673227812213853e-01 +5.3804420134177210e-03
6.7999999999999918e+00 +8.1516915394372109e+00 +0.0000000000000000e+00 +6.7999998321493509e+00 -2.8394513907976201e-02 -5.3673272526622617e-01 +5.3805355524005069e-03
6.8999999999999915e+00 +8.1516527719790357e+00 +0.0000000000000000e+00 +6.8999998246346381e+00 -2.8394521734837287e-02 -5.3673317802862119e-01 +5.3806284279631824e-03
6.9999999999999911e+00 +8.1516134385571259e+00 +0.0000000000000000e+00 +6.9999998168989137e+00 -2.8394530785868958e-02 -5.3673363651115980e-01 +5.3807207017272964e-03
7.0999999999999908e+00 +8.1515735391709985e+00 +0.0000000000000000e+00 +7.0999998089389749e+00 -2.8394541654078689e-02 -5.3673410081569572e-01 +5.3808124353123881e-03
7.1999999999999904e+00 +8.1515330738201666e+00 +0.0000000000000000e+00 +7.1999998007516179e+00 -2.8394554932512164e-02 -5.3673457104410216e-01 +5.3809036903358946e-03
7.2999999999999901e+00 +8.1514920425041346e+00 +0.0000000000000000e+00 +7.2999997923336393e+00 -2.8394571214254670e-02 -5.3673504729827137e-01 +5.3809945284130321e-03
7.3999999999999897e+00 +8.1514504452223999e+00 +0.0000000000000000e+00 +7.3999997836818361e+00 -2.8394591092432579e-02 -5.3673552968011728e-01 +5.3810850111566883e-03
7.4999999999999893e+00 +8.1514082819744580e+00 +0.0000000000000000e+00 +7.4999997747930047e+00 -2.8394615160214753e-02 -5.3673601829157480e-01 +5.3811752001773237e-03
7.5999999999999890e+00 +8.1513655527597937e+00 +0.0000000000000000e+00 +7.5999997656639415e+00 -2.8394644010813978e-02 -5.3673651323460414e-01 +5.3812651570828568e-03
7.6999999999999886e+00 +8.1513222575778865e+00 +0.0000000000000000e+00 +7.6999997562914437e+00 -2.8394678237488379e-02 -5.3673701461118806e-01 +5.3813549434785606e-03
7.7999999999999883e+00 +8.1512783964282089e+00 +0.0000000000000000e+00 +7.7999997466723077e+00 -2.8394718433542895e-02 -5.3673752252333584e-01 +5.3814446209669515e-03
7.8999999999999879e+00 +8.1512339693102280e+00 +0.0000000000000000e+00 +7.8999997368033297e+00 -2.8394765192330643e-02 -5.3673803707308321e-01 +5.3815342511476854e-03
7.9999999999999876e+00 +8.1511889762234020e+00 +0.0000000000000000e+00 +7.9999997266813061e+00 -2.8394819107254398e-02 -5.3673855836249351e-01 +5.3816238956174425e-03
8.0999999999999872e+00 +8.1511434171671819e+00 +0.0000000000000000e+00 +8.0999997163030333e+00 -2.8394880593372779e-02 -5.3673908646521551e-01 +5.3817136095533182e-03
8.1999999999999869e+00 +8.1510972921410119e+00 +0.0000000000000000e+00 +8.1999997056653093e+00 -2.8394949352195421e-02 -5.3673962134115405e-01 +5.3818034224645782e-03
8.2999999999999865e+00 +8.1510506011443304e+00 +0.0000000000000000e+00 +8.2999996947649297e+00 -2.8395024906846054e-02 -5.3674016292180460e-01 +5.3818933574450454e-03
8.3999999999999861e+00 +8.1510033441765675e+00 +0.0000000000000000e+00 +8.3999996835986899e+00 -2.8395106780457046e-02 -5.3674071113869992e-01 +5.3819834375901428e-03
8.4999999999999858e+00 +8.1509555212371474e+00 +0.0000000000000000e+00 +8.4999996721633888e+00 -2.8395194496169496e-02 -5.3674126592341109e-01 +5.3820736859969244e-03
8.5999999999999854e+00 +8.1509071323254858e+00 +0.0000000000000000e+00 +8.5999996604558202e+00 -2.8395287577133263e-02 -5.3674182720754959e-01 +5.3821641257641483e-03
8.6999999999999851e+00 +8.1508581774409929e+00 +0.0000000000000000e+00 +8.6999996484727831e+00 -2.8395385546507078e-02 -5.3674239492276632e-01 +5.3822547799922864e-03
8.7999999999999847e+00 +8.1508086565830720e+00 +0.0000000000000000e+00 +8.7999996362110728e+00 -2.8395487927458590e-02 -5.3674296900075535e-01 +5.3823456717835925e-03
8.8999999999999844e+00 +8.1507585697511189e+00 +0.0000000000000000e+00 +8.8999996236674850e+00 -2.8395594243164395e-02 -5.3674354937325408e-01 +5.3824368242421225e-03
8.9999999999999840e+00 +8.1507079169445227e+00 +0.0000000000000000e+00 +8.9999996108388167e+00 -2.8395704016810176e-02 -5.3674413597204440e-01 +5.3825282604737946e-03
9.0999999999999837e+00 +8.1506566981626669e+00 +0.0000000000000000e+00 +9.0999995977218635e+00 -2.8395816771590750e-02 -5.3674472872895418e-01 +5.3826200035864292e-03
9.1999999999999833e+00 +8.1506049134049281e+00 +0.0000000000000000e+00 +9.1999995843134226e+00 -2.8395932030710089e-02 -5.3674532757585880e-01 +5.3827120766897834e-03
9.2999999999999829e+00 +8.1505525626706774e+00 +0.0000000000000000e+00 +9.2999995706102911e+00 -2.8396049317381482e-02 -5.3674593244468194e-01 +5.3828045028956068e-03
9.3999999999999826e+00 +8.1504996459592771e+00 +0.0000000000000000e+00 +9.3999995566092647e+00 -2.8396168154827539e-02 -5.3674654326739712e-01 +5.3828973053176793e-03
9.4999999999999822e+00 +8.1504461632700860e+00 +0.0000000000000000e+00 +9.4999995423071404e+00 -2.8396288066280286e-02 -5.3674715997602884e-01 +5.3829905070718444e-03
9.5999999999999819e+00 +8.1503921146024556e+00 +0.0000000000000000e+00 +9.5999995277007137e+00 -2.8396408574981238e-02 -5.3674778250265409e-01 +5.3830841312760740e-03
9.6999999999999815e+00 +8.1503374999557305e+00 +0.0000000000000000e+00 +9.6999995127867802e+00 -2.8396529204181491e-02 -5.3674841077940338e-01 +5.3831782010504963e-03
9.7999999999999812e+00 +8.1502823193292500e+00 +0.0000000000000000e+00 +9.7999994975621370e+00 -2.8396649477141749e-02 -5.3674904473846208e-01 +5.3832727395174453e-03
9.8999999999999808e+00 +8.1502265727223477e+00 +0.0000000000000000e+00 +9.8999994820235813e+00 -2.8396768917132463e-02 -5.3674968431207182e-01 +5.3833677698015055e-03
9.9999999999999805e+00 +8.1501702601343506e+00 +0.0000000000000000e+00 +9.9999994661679086e+00 -2.8396887047433868e-02 -5.3675032943253165e-01 +5.3834633150295526e-03
1.0099999999999980e+01 +8.1501133815645801e+00 +0.0000000000000000e+00 +1.0099999449991916e+01 -2.8397003535919098e-02 -5.3675097997868693e-01 +5.3835593737906534e-03
1.0199999999999980e+01 +8.1500559370123522e+00 +0.0000000000000000e+00 +1.0199999433492398e+01 -2.8397118628802433e-02 -5.3675163561535000e-01 +5.3836558465134689e-03
1.0299999999999979e+01 +8.1499979264769777e+00 +0.0000000000000000e+00 +1.0299999416666152e+01 -2.8397232716867657e-02 -5.3675229595376972e-01 +5.3837526090864743e-03
1.0399999999999979e+01 +8.1499393499577621e+00 +0.0000000000000000e+00 +1.0399999399509975e+01 -2.8397346190877169e-02 -5.3675296060513500e-01 +5.3838495373987397e-03
1.0499999999999979e+01 +8.1498802074540073e+00 +0.0000000000000000e+00 +1.0499999382020661e+01 -2.8397459441571370e-02 -5.3675362918057157e-01 +5.3839465073399154e-03
1.0599999999999978e+01 +8.1498204989650098e+00 +0.0000000000000000e+00 +1.0599999364195007e+01 -2.8397572859667895e-02 -5.3675430129114243e-01 +5.3840433948002470e-03
1.0699999999999978e+01 +8.1497602244900609e+00 +0.0000000000000000e+00 +1.0699999346029809e+01 -2.8397686835860962e-02 -5.3675497654784432e-01 +5.3841400756705600e-03
1.0799999999999978e+01 +8.1496993840284535e+00 +0.0000000000000000e+00 +1.0799999327521865e+01 -2.8397801760820657e-02 -5.3675565456160668e-01 +5.3842364258422631e-03
1.0899999999999977e+01 +8.1496379775794736e+00 +0.0000000000000000e+00 +1.0899999308667971e+01 -2.8397918025192266e-02 -5.3675633494329056e-01 +5.3843323212073363e-03
1.0999999999999977e+01 +8.1495760051424053e+00 +0.0000000000000000e+00 +1.0999999289464920e+01 -2.8398036019595542e-02 -5.3675701730368641e-01 +5.3844276376583400e-03
1.1099999999999977e+01 +8.1495134667165310e+00 +0.0000000000000000e+00 +1.1099999269909512e+01 -2.8398156134624059e-02 -5.3675770125351208e-01 +5.3845222510883941e-03
1.1199999999999976e+01 +8.1494503623011312e+00 +0.0000000000000000e+00 +1.1199999249998541e+01 -2.8398278760844449e-02 -5.3675838640341189e-01 +5.3846160373911926e-03
1.1299999999999976e+01 +8.1493866918954865e+00 +0.0000000000000000e+00 +1.1299999229728803e+01 -2.8398404288795785e-02 -5.3675907236395481e-01 +5.3847088724609899e-03
1.1399999999999975e+01 +8.1493224554988757e+00 +0.0000000000000000e+00 +1.1399999209097095e+01 -2.8398533108988832e-02 -5.3675975874563253e-01 +5.3848006321926007e-03
1.1499999999999975e+01 +8.1492576531105758e+00 +0.0000000000000000e+00 +1.1499999188100212e+01 -2.8398665611905332e-02 -5.3676044515885757e-01 +5.3848911924813843e-03
1.1599999999999975e+01 +8.1491922847298657e+00 +0.0000000000000000e+00 +1.1599999166734950e+01 -2.8398802187997389e-02 -5.3676113121396263e-01 +5.3849804292232665e-03
1.1699999999999974e+01 +8.1491263503560241e+00 +0.0000000000000000e+00 +1.1699999144998106e+01 -2.8398943227686678e-02 -5.3676181652119770e-01 +5.3850682183147107e-03
1.1799999999999974e+01 +8.1490598499883315e+00 +0.0000000000000000e+00 +1.1799999122886476e+01 -2.8399089121363772e-02 -5.3676250069072950e-01 +5.3851544356527227e-03
