# trajectory
# s[mm] rx[mm] ry[mm] rz[mm] px[rad] py[rad] pz[rad]
0.0000000000000000e+00 +7.9199999999999999e+00 +0.0000000000000000e+00 +0.0000000000000000e+00 +0.0000000000000000e+00 +0.0000000000000000e+00 +1.0000000000000000e+00
-1.0000000000000001e-01 +7.9199997168637299e+00 +0.0000000000000000e+00 -9.9999999999465558e-02 +5.6627254831907537e-06 +0.0000000000000000e+00 +9.9999999998396683e-01
-2.0000000000000001e-01 +7.9199988674548916e+00 +0.0000000000000000e+00 -1.9999999999572449e-01 +1.1325451338089905e-05 +0.0000000000000000e+00 +9.9999999993586708e-01
-3.0000000000000004e-01 +7.9199974517734555e+00 +0.0000000000000000e+00 -2.9999999998557014e-01 +1.6988177414764317e-05 +0.0000000000000000e+00 +9.9999999985570087e-01
-4.0000000000000002e-01 +7.9199954698194057e+00 +0.0000000000000000e+00 -3.9999999996579583e-01 +2.2650903578878808e-05 +0.0000000000000000e+00 +9.9999999974346820e-01
-5.0000000000000000e-01 +7.9199929215927405e+00 +0.0000000000000000e+00 -4.9999999993319488e-01 +2.8313629711696420e-05 +0.0000000000000000e+00 +9.9999999959916908e-01
-5.9999999999999998e-01 +7.9199898070934678e+00 +0.0000000000000000e+00 -5.9999999988456076e-01 +3.3976355710078690e-05 +0.0000000000000000e+00 +9.9999999942280349e-01
-6.9999999999999996e-01 +7.9199861263216054e+00 +0.0000000000000000e+00 -6.9999999981668670e-01 +3.9639081486485865e-05 +0.0000000000000000e+00 +9.9999999921437144e-01
-7.9999999999999993e-01 +7.9199818792771799e+00 +0.0000000000000000e+00 -7.9999999972636615e-01 +4.5301806968977147e-05 +0.0000000000000000e+00 +9.9999999897387293e-01
-8.9999999999999991e-01 +7.9199770659602233e+00 +0.0000000000000000e+00 -8.9999999961039245e-01 +5.0964532101210880e-05 +0.0000000000000000e+00 +9.9999999870130807e-01
-9.9999999999999989e-01 +7.9199716863707730e+00 +0.0000000000000000e+00 -9.9999999946555895e-01 +5.6627256842444738e-05 +0.0000000000000000e+00 +9.9999999839667675e-01
-1.0999999999999999e+00 +7.9199657405088688e+00 +0.0000000000000000e+00 -1.0999999992886589e+00 +6.2289981167535903e-05 +0.0000000000000000e+00 +9.9999999805997897e-01
-1.2000000000000000e+00 +7.9199592283745535e+00 +0.0000000000000000e+00 -1.1999999990764858e+00 +6.7952705066941208e-05 +0.0000000000000000e+00 +9.9999999769121473e-01
-1.3000000000000000e+00 +7.9199521499678696e+00 +0.0000000000000000e+00 -1.2999999988258331e+00 +7.3615428546717270e-05 +0.0000000000000000e+00 +9.9999999729038413e-01
-1.4000000000000001e+00 +7.9199445052888580e+00 +0.0000000000000000e+00 -1.3999999985334939e+00 +7.9278151628520621e-05 +0.0000000000000000e+00 +9.9999999685748708e-01
-1.5000000000000002e+00 +7.9199362943375560e+00 +0.0000000000000000e+00 -1.4999999981962617e+00 +8.4940874349607768e-05 +0.0000000000000000e+00 +9.9999999639252368e-01
-1.6000000000000003e+00 +7.9199275171139982e+00 +0.0000000000000000e+00 -1.5999999978109298e+00 +9.0603596762835314e-05 +0.0000000000000000e+00 +9.9999999589549382e-01
-1.7000000000000004e+00 +7.9199181736182114e+00 +0.0000000000000000e+00 -1.6999999973742916e+00 +9.6266318936660017e-05 +0.0000000000000000e+00 +9.9999999536639761e-01
-1.8000000000000005e+00 +7.9199082638502158e+00 +0.0000000000000000e+00 -1.7999999968831404e+00 +1.0192904095513881e-04 +0.0000000000000000e+00 +9.9999999480523494e-01
-1.9000000000000006e+00 +7.9198977878100223e+00 +0.0000000000000000e+00 -1.8999999963342697e+00 +1.0759176291792886e-04 +0.0000000000000000e+00 +9.9999999421200592e-01
-2.0000000000000004e+00 +7.9198867454976307e+00 +0.0000000000000000e+00 -1.9999999957244727e+00 +1.1325448494028755e-04 +0.0000000000000000e+00 +9.9999999358671043e-01
-2.1000000000000005e+00 +7.9198751369130278e+00 +0.0000000000000000e+00 -2.0999999950505428e+00 +1.1891720715268339e-04 +0.0000000000000000e+00 +9.9999999292934849e-01
-2.2000000000000006e+00 +7.9198629620561887e+00 +0.0000000000000000e+00 -2.1999999943092736e+00 +1.2457992969651599e-04 +0.0000000000000000e+00 +9.9999999223992009e-01
-2.3000000000000007e+00 +7.9198502209270725e+00 +0.0000000000000000e+00 -2.2999999934974582e+00 +1.3024265271983579e-04 +0.0000000000000000e+00 +9.9999999151842522e-01
-2.4000000000000008e+00 +7.9198369135256232e+00 +0.0000000000000000e+00 -2.3999999926118898e+00 +1.3590537637695482e-04 +0.0000000000000000e+00 +9.9999999076486390e-01
-2.5000000000000009e+00 +7.9198230398517699e+00 +0.0000000000000000e+00 -2.4999999916493620e+00 +1.4156810082844641e-04 +0.0000000000000000e+00 +9.9999998997923600e-01
-2.6000000000000010e+00 +7.9198085999054255e+00 +0.0000000000000000e+00 -2.5999999906066682e+00 +1.4723082624114485e-04 +0.0000000000000000e+00 +9.9999998916154154e-01
-2.7000000000000011e+00 +7.9197935936864843e+00 +0.0000000000000000e+00 -2.6999999894806015e+00 +1.5289355278814509e-04 +0.0000000000000000e+00 +9.9999998831178039e-01
-2.8000000000000012e+00 +7.9197780211948245e+00 +0.0000000000000000e+00 -2.7999999882679552e+00 +1.5855628064880234e-04 +0.0000000000000000e+00 +9.9999998742995255e-01
-2.9000000000000012e+00 +7.9197618824303051e+00 +0.0000000000000000e+00 -2.8999999869655229e+00 +1.6421901000873167e-04 +0.0000000000000000e+00 +9.9999998651605804e-01
-3.0000000000000013e+00 +7.9197451773927670e+00 +0.0000000000000000e+00 -2.9999999855700978e+00 +1.6988174105980752e-04 +0.0000000000000000e+00 +9.9999998557009673e-01
-3.1000000000000014e+00 +7.9197279060820307e+00 +0.0000000000000000e+00 -3.0999999840784733e+00 +1.7554447400016328e-04 +0.0000000000000000e+00 +9.9999998459206851e-01
-3.2000000000000015e+00 +7.9197100684978974e+00 +0.0000000000000000e+00 -3.1999999824874426e+00 +1.8120720903419074e-04 +0.0000000000000000e+00 +9.9999998358197340e-01
-3.3000000000000016e+00 +7.9196916646401467e+00 +0.0000000000000000e+00 -3.2999999807937992e+00 +1.8686994637253949e-04 +0.0000000000000000e+00 +9.9999998253981126e-01
-3.4000000000000017e+00 +7.9196726945085381e+00 +0.0000000000000000e+00 -3.3999999789943360e+00 +1.9253268623211636e-04 +0.0000000000000000e+00 +9.9999998146558200e-01
-3.5000000000000018e+00 +7.9196531581028085e+00 +0.0000000000000000e+00 -3.4999999770858468e+00 +1.9819542883608483e-04 +0.0000000000000000e+00 +9.9999998035928561e-01
-3.6000000000000019e+00 +7.9196330554226719e+00 +0.0000000000000000e+00 -3.5999999750651241e+00 +2.0385817441386428e-04 +0.0000000000000000e+00 +9.9999997922092199e-01
-3.7000000000000020e+00 +7.9196123864678185e+00 +0.0000000000000000e+00 -3.6999999729289619e+00 +2.0952092320112938e-04 +0.0000000000000000e+00 +9.9999997805049101e-01
-3.8000000000000020e+00 +7.9195911512379160e+00 +0.0000000000000000e+00 -3.7999999706741532e+00 +2.1518367543980928e-04 +0.0000000000000000e+00 +9.9999997684799258e-01
-3.9000000000000021e+00 +7.9195693497326074e+00 +0.0000000000000000e+00 -3.8999999682974913e+00 +2.2084643137808689e-04 +0.0000000000000000e+00 +9.9999997561342646e-01
-4.0000000000000018e+00 +7.9195469819515090e+00 +0.0000000000000000e+00 -3.9999999657957694e+00 +2.2650919127039799e-04 +0.0000000000000000e+00 +9.9999997434679266e-01
-4.1000000000000014e+00 +7.9195240478942130e+00 +0.0000000000000000e+00 -4.0999999631657804e+00 +2.3217195537622758e-04 +0.0000000000000000e+00 +9.9999997304809107e-01
-4.2000000000000011e+00 +7.9195005475602853e+00 +0.0000000000000000e+00 -4.1999999604043179e+00 +2.3783472394687684e-04 +0.0000000000000000e+00 +9.9999997171732147e-01
-4.3000000000000007e+00 +7.9194764809492675e+00 +0.0000000000000000e+00 -4.2999999575081755e+00 +2.4349749721223104e-04 +0.0000000000000000e+00 +9.9999997035448385e-01
-4.4000000000000004e+00 +7.9194518480606799e+00 +0.0000000000000000e+00 -4.3999999544741462e+00 +2.4916027537955705e-04 +0.0000000000000000e+00 +9.9999996895957799e-01
-4.5000000000000000e+00 +7.9194266488940226e+00 +0.0000000000000000e+00 -4.4999999512990225e+00 +2.5482305863350392e-04 +0.0000000000000000e+00 +9.9999996753260378e-01
-4.5999999999999996e+00 +7.9194008834487786e+00 +0.0000000000000000e+00 -4.5999999479795983e+00 +2.6048584713610342e-04 +0.0000000000000000e+00 +9.9999996607356101e-01
-4.6999999999999993e+00 +7.9193745517244158e+00 +0.0000000000000000e+00 -4.6999999445126663e+00 +2.6614864102677058e-04 +0.0000000000000000e+00 +9.9999996458244966e-01
-4.7999999999999989e+00 +7.9193476537203900e+00 +0.0000000000000000e+00 -4.7999999408950194e+00 +2.7181144042230459e-04 +0.0000000000000000e+00 +9.9999996305926964e-01
-4.8999999999999986e+00 +7.9193201894361449e+00 +0.0000000000000000e+00 -4.8999999371234511e+00 +2.7747424541688928e-04 +0.0000000000000000e+00 +9.9999996150402071e-01
-4.9999999999999982e+00 +7.9192921588711176e+00 +0.0000000000000000e+00 -4.9999999331947542e+00 +2.8313705608209414e-04 +0.0000000000000000e+00 +9.9999995991670276e-01
-5.0999999999999979e+00 +7.9192635620247378e+00 +0.0000000000000000e+00 -5.0999999291057225e+00 +2.8879987246687485e-04 +0.0000000000000000e+00 +9.9999995829731581e-01
-5.1999999999999975e+00 +7.9192343988964327e+00 +0.0000000000000000e+00 -5.1999999248531488e+00 +2.9446269459757439e-04 +0.0000000000000000e+00 +9.9999995664585961e-01
-5.2999999999999972e+00 +7.9192046694856266e+00 +0.0000000000000000e+00 -5.2999999204338257e+00 +3.0012552247792376e-04 +0.0000000000000000e+00 +9.9999995496233418e-01
-5.3999999999999968e+00 +7.9191743737917459e+00 +0.0000000000000000e+00 -5.3999999158445462e+00 +3.0578835608904316e-04 +0.0000000000000000e+00 +9.9999995324673940e-01
-5.4999999999999964e+00 +7.9191435118142195e+00 +0.0000000000000000e+00 -5.4999999110821038e+00 +3.1145119538944277e-04 +0.0000000000000000e+00 +9.9999995149907517e-01
-5.5999999999999961e+00 +7.9191120835524806e+00 +0.0000000000000000e+00 -5.5999999061432923e+00 +3.1711404031502385e-04 +0.0000000000000000e+00 +9.9999994971934136e-01
-5.6999999999999957e+00 +7.9190800890059716e+00 +0.0000000000000000e+00 -5.6999999010249036e+00 +3.2277689077907993e-04 +0.0000000000000000e+00 +9.9999994790753799e-01
-5.7999999999999954e+00 +7.9190475281741435e+00 +0.0000000000000000e+00 -5.7999998957237313e+00 +3.2843974667229786e-04 +0.0000000000000000e+00 +9.9999994606366494e-01
-5.8999999999999950e+00 +7.9190144010564598e+00 +0.0000000000000000e+00 -5.8999998902365682e+00 +3.3410260786275906e-04 +0.0000000000000000e+00 +9.9999994418772209e-01
-5.9999999999999947e+00 +7.9189807076523993e+00 +0.0000000000000000e+00 -5.9999998845602072e+00 +3.3976547419594066e-04 +0.0000000000000000e+00 +9.9999994227970956e-01
-6.0999999999999943e+00 +7.9189464479614555e+00 +0.0000000000000000e+00 -6.0999998786914409e+00 +3.4542834549617014e-04 +0.0000000000000000e+00 +9.9999994033962725e-01
-6.1999999999999940e+00 +7.9189116219831410e+00 +0.0000000000000000e+00 -6.1999998726270631e+00 +3.5109122158261195e-04 +0.0000000000000000e+00 +9.9999993836747514e-01
-6.2999999999999936e+00 +7.9188762297169850e+00 +0.0000000000000000e+00 -6.2999998663638666e+00 +3.5675410228525338e-04 +0.0000000000000000e+00 +9.9999993636325324e-01
-6.3999999999999932e+00 +7.9188402711625345e+00 +0.0000000000000000e+00 -6.3999998598986449e+00 +3.6241698744635765e-04 +0.0000000000000000e+00 +9.9999993432696144e-01
-6.4999999999999929e+00 +7.9188037463193517e+00 +0.0000000000000000e+00 -6.4999998532281902e+00 +3.6807987692046354e-04 +0.0000000000000000e+00 +9.9999993225859984e-01
-6.5999999999999925e+00 +7.9187666551870111e+00 +0.0000000000000000e+00 -6.5999998463492959e+00 +3.7374277057438494e-04 +0.0000000000000000e+00 +9.9999993015816835e-01
-6.6999999999999922e+00 +7.9187289977651014e+00 +0.0000000000000000e+00 -6.6999998392587550e+00 +3.7940566828721070e-04 +0.0000000000000000e+00 +9.9999992802566695e-01
-6.7999999999999918e+00 +7.9186907740532222e+00 +0.0000000000000000e+00 -6.7999998319533601e+00 +3.8506856995030415e-04 +0.0000000000000000e+00 +9.9999992586109554e-01
-6.8999999999999915e+00 +7.9186519840509835e+00 +0.0000000000000000e+00 -6.8999998244299050e+00 +3.9073147546730269e-04 +0.0000000000000000e+00 +9.9999992366445423e-01
-6.9999999999999911e+00 +7.9186126277580033e+00 +0.0000000000000000e+00 -6.9999998166851825e+00 +3.9639438475411740e-04 +0.0000000000000000e+00 +9.9999992143574290e-01
-7.0999999999999908e+00 +7.9185727051739097e+00 +0.0000000000000000e+00 -7.0999998087159852e+00 +4.0205729773893256e-04 +0.0000000000000000e+00 +9.9999991917496156e-01
-7.1999999999999904e+00 +7.9185322162983347e+00 +0.0000000000000000e+00 -7.1999998005191062e+00 +4.0772021436220527e-04 +0.0000000000000000e+00 +9.9999991688211010e-01
-7.2999999999999901e+00 +7.9184911611309179e+00 +0.0000000000000000e+00 -7.2999997920913380e+00 +4.1338313457666494e-04 +0.0000000000000000e+00 +9.9999991455718851e-01
-7.3999999999999897e+00 +7.9184495396713013e+00 +0.0000000000000000e+00 -7.3999997834294744e+00 +4.1904605834731273e-04 +0.0000000000000000e+00 +9.9999991220019679e-01
-7.4999999999999893e+00 +7.9184073519191305e+00 +0.0000000000000000e+00 -7.4999997745303082e+00 +4.2470898565142115e-04 +0.0000000000000000e+00 +9.9999990981113485e-01
-7.5999999999999890e+00 +7.9183645978740529e+00 +0.0000000000000000e+00 -7.5999997653906322e+00 +4.3037191647853339e-04 +0.0000000000000000e+00 +9.9999990739000266e-01
-7.6999999999999886e+00 +7.9183212775357168e+00 +0.0000000000000000e+00 -7.6999997560072400e+00 +4.3603485083046291e-04 +0.0000000000000000e+00 +9.9999990493680013e-01
-7.7999999999999883e+00 +7.9182773909037687e+00 +0.0000000000000000e+00 -7.7999997463769235e+00 +4.4169778872129266e-04 +0.0000000000000000e+00 +9.9999990245152715e-01
-7.8999999999999879e+00 +7.9182329379778533e+00 +0.0000000000000000e+00 -7.8999997364964765e+00 +4.4736073017737467e-04 +0.0000000000000000e+00 +9.9999989993418370e-01
-7.9999999999999876e+00 +7.9181879187576127e+00 +0.0000000000000000e+00 -7.9999997263626916e+00 +4.5302367523732931e-04 +0.0000000000000000e+00 +9.9999989738476969e-01
-8.0999999999999872e+00 +7.9181423332426837e+00 +0.0000000000000000e+00 -8.0999997159723609e+00 +4.5868662395183701e-04 +0.0000000000000000e+00 +9.9999989480328511e-01
-8.1999999999999869e+00 +7.9180961814326984e+00 +0.0000000000000000e+00 -8.1999997053222788e+00 +4.6434957638135277e-04 +0.0000000000000000e+00 +9.9999989218972973e-01
-8.2999999999999865e+00 +7.9180494633272813e+00 +0.0000000000000000e+00 -8.2999996944092373e+00 +4.7001253259382067e-04 +0.0000000000000000e+00 +9.9999988954410357e-01
-8.3999999999999861e+00 +7.9180021789260513e+00 +0.0000000000000000e+00 -8.3999996832300301e+00 +4.7567549266446581e-04 +0.0000000000000000e+00 +9.9999988686640651e-01
-8.4999999999999858e+00 +7.9179543282286176e+00 +0.0000000000000000e+00 -8.4999996717814490e+00 +4.8133845667579353e-04 +0.0000000000000000e+00 +9.9999988415663843e-01
-8.5999999999999854e+00 +7.9179059112345822e+00 +0.0000000000000000e+00 -8.5999996600602877e+00 +4.8700142471758899e-04 +0.0000000000000000e+00 +9.9999988141479923e-01
-8.6999999999999851e+00 +7.9178569279435367e+00 +0.0000000000000000e+00 -8.6999996480633399e+00 +4.9266439688691642e-04 +0.0000000000000000e+00 +9.9999987864088880e-01
-8.7999999999999847e+00 +7.9178073783550635e+00 +0.0000000000000000e+00 -8.7999996357873975e+00 +4.9832737328811875e-04 +0.0000000000000000e+00 +9.9999987583490690e-01
-8.8999999999999844e+00 +7.9177572624687338e+00 +0.0000000000000000e+00 -8.8999996232292524e+00 +5.0399035403281658e-04 +0.0000000000000000e+00 +9.9999987299685356e-01
-8.9999999999999840e+00 +7.9177065802841078e+00 +0.0000000000000000e+00 -8.9999996103856983e+00 +5.0965333923990808e-04 +0.0000000000000000e+00 +9.9999987012672853e-01
-9.0999999999999837e+00 +7.9176553318007326e+00 +0.0000000000000000e+00 -9.0999995972535288e+00 +5.1531632903556793e-04 +0.0000000000000000e+00 +9.9999986722453171e-01
-9.1999999999999833e+00 +7.9176035170181427e+00 +0.0000000000000000e+00 -9.1999995838295359e+00 +5.2097932355324667e-04 +0.0000000000000000e+00 +9.9999986429026300e-01
-9.2999999999999829e+00 +7.9175511359358595e+00 +0.0000000000000000e+00 -9.2999995701105131e+00 +5.2664232293367017e-04 +0.0000000000000000e+00 +9.9999986132392227e-01
-9.3999999999999826e+00 +7.9174981885533890e+00 +0.0000000000000000e+00 -9.3999995560932526e+00 +5.3230532732483895e-04 +0.0000000000000000e+00 +9.9999985832550931e-01
-9.4999999999999822e+00 +7.9174446748702225e+00 +0.0000000000000000e+00 -9.4999995417745460e+00 +5.3796833688202715e-04 +0.0000000000000000e+00 +9.9999985529502389e-01
-9.5999999999999819e+00 +7.9173905948858350e+00 +0.0000000000000000e+00 -9.5999995271511871e+00 +5.4363135176778226e-04 +0.0000000000000000e+00 +9.9999985223246590e-01
-9.6999999999999815e+00 +7.9173359485996855e+00 +0.0000000000000000e+00 -9.6999995122199696e+00 +5.4929437215192395e-04 +0.0000000000000000e+00 +9.9999984913783513e-01
-9.7999999999999812e+00 +7.9172807360112154e+00 +0.0000000000000000e+00 -9.7999994969776854e+00 +5.5495739821154340e-04 +0.0000000000000000e+00 +9.9999984601113134e-01
-9.8999999999999808e+00 +7.9172249571198483e+00 +0.0000000000000000e+00 -9.8999994814211263e+00 +5.6062043013100282e-04 +0.0000000000000000e+00 +9.9999984285235444e-01
-9.9999999999999805e+00 +7.9171686119249882e+00 +0.0000000000000000e+00 -9.9999994655470861e+00 +5.6628346810193417e-04 +0.0000000000000000e+00 +9.9999983966150419e-01
-1.0099999999999980e+01 +7.9171117004260196e+00 +0.0000000000000000e+00 -1.0099999449352358e+01 +5.7194651232227406e-04 +0.0000000000000000e+00 +9.9999983643858026e-01
-1.0199999999999980e+01 +7.9170542226223084e+00 +0.0000000000000000e+00 -1.0199999432833733e+01 +5.7760956298565222e-04 +0.0000000000000000e+00 +9.9999983318358254e-01
-1.0299999999999979e+01 +7.9169961785132017e+00 +0.0000000000000000e+00 -1.0299999415988005e+01 +5.8327262027078083e-04 +0.0000000000000000e+00 +9.9999982989651082e-01
-1.0399999999999979e+01 +7.9169375680980281e+00 +0.0000000000000000e+00 -1.0399999398811966e+01 +5.8893568434049059e-04 +0.0000000000000000e+00 +9.9999982657736486e-01
-1.0499999999999979e+01 +7.9168783913761027e+00 +0.0000000000000000e+00 -1.0499999381302409e+01 +5.9459875534173187e-04 +0.0000000000000000e+00 +9.9999982322614445e-01
-1.0599999999999978e+01 +7.9168186483467249e+00 +0.0000000000000000e+00 -1.0599999363456126e+01 +6.0026183340557561e-04 +0.0000000000000000e+00 +9.9999981984284947e-01
-1.0699999999999978e+01 +7.9167583390091822e+00 +0.0000000000000000e+00 -1.0699999345269910e+01 +6.0592491864721438e-04 +0.0000000000000000e+00 +9.9999981642747970e-01
-1.0799999999999978e+01 +7.9166974633627527e+00 +0.0000000000000000e+00 -1.0799999326740554e+01 +6.1158801116596316e-04 +0.0000000000000000e+00 +9.9999981298003493e-01
-1.0899999999999977e+01 +7.9166360214067035e+00 +0.0000000000000000e+00 -1.0899999307864849e+01 +6.1725111104526064e-04 +0.0000000000000000e+00 +9.9999980950051492e-01
-1.0999999999999977e+01 +7.9165740131402957e+00 +0.0000000000000000e+00 -1.0999999288639588e+01 +6.2291421835267006e-04 +0.0000000000000000e+00 +9.9999980598891958e-01
-1.1099999999999977e+01 +7.9165114385627833e+00 +0.0000000000000000e+00 -1.1099999269061563e+01 +6.2857733313988055e-04 +0.0000000000000000e+00 +9.9999980244524878e-01
-1.1199999999999976e+01 +7.9164482976734165e+00 +0.0000000000000000e+00 -1.1199999249127568e+01 +6.3424045544270818e-04 +0.0000000000000000e+00 +9.9999979886950230e-01
-1.1299999999999976e+01 +7.9163845904714432e+00 +0.0000000000000000e+00 -1.1299999228834395e+01 +6.3990358528109696e-04 +0.0000000000000000e+00 +9.9999979526168004e-01
-1.1399999999999975e+01 +7.9163203169561092e+00 +0.0000000000000000e+00 -1.1399999208178835e+01 +6.4556672265912013e-04 +0.0000000000000000e+00 +9.9999979162178176e-01
-1.1499999999999975e+01 +7.9162554771266604e+00 +0.0000000000000000e+00 -1.1499999187157682e+01 +6.5122986756498136e-04 +0.0000000000000000e+00 +9.9999978794980748e-01
-1.1599999999999975e+01 +7.9161900709823456e+00 +0.0000000000000000e+00 -1.1599999165767727e+01 +6.5689301997101603e-04 +0.0000000000000000e+00 +9.9999978424575708e-01
-1.1699999999999974e+01 +7.9161240985224177e+00 +0.0000000000000000e+00 -1.1699999144005764e+01 +6.6255617983369244e-04 +0.0000000000000000e+00 +9.9999978050963034e-01
