# multipoles
# s[mm] polynom_b[n=0][T/m^n] polynom_b[n=1][T/m^n] polynom_b[n=2][T/m^n] polynom_b[n=3][T/m^n] polynom_b[n=4][T/m^n] polynom_b[n=5][T/m^n] polynom_b[n=6][T/m^n] 
+0.0000000000000000e+00 -5.9266045942240486e-01 +8.1131726286613208e+00 -1.2599347043451188e+00 -4.4929058284145029e+01 +2.8490452745266816e+03 -4.0645554553870206e+03 -6.9755811144491220e+06 
+1.0000000000000001e-01 -5.9266037902501889e-01 +8.1131611815934139e+00 -1.2614330094217618e+00 -4.4535796257649849e+01 +2.8643151830053393e+03 -6.4927927975595640e+03 -7.0199317200947152e+06 
+2.0000000000000001e-01 -5.9266029704425960e-01 +8.1131475675878555e+00 -1.2629652642812244e+00 -4.4067719972548169e+01 +2.8700310280547801e+03 -9.3332593474081004e+03 -7.0000133223193511e+06 
+2.9999999999999999e-01 -5.9266021384383627e-01 +8.1131319962602966e+00 -1.2645427850671314e+00 -4.3530916394682770e+01 +2.8670504649449622e+03 -1.2556709061807462e+04 -6.9208295516578872e+06 
+4.0000000000000002e-01 -5.9266012978754179e-01 +8.1131146772318861e+00 -1.2661768913939249e+00 -4.2931472578643451e+01 +2.8562312177410613e+03 -1.6133895632855834e+04 -6.7873843691081554e+06 
+5.0000000000000000e-01 -5.9266004523909499e-01 +8.1130958201252881e+00 -1.2678789006959763e+00 -4.2275475543910837e+01 +2.8384309626532286e+03 -2.0035573232170438e+04 -6.6046814844904793e+06 
+5.9999999999999998e-01 -5.9265996056222314e-01 +8.1130756345636961e+00 -1.2696601372795873e+00 -4.1569012286070958e+01 +2.8145075093459013e+03 -2.4232496337945362e+04 -6.3777252467821361e+06 
+6.9999999999999996e-01 -5.9265987612065174e-01 +8.1130543301785192e+00 -1.2715319182257108e+00 -4.0818169976134485e+01 +2.7853185281983433e+03 -2.8695418626408464e+04 -6.1115193322298704e+06 
+8.0000000000000004e-01 -5.9265979227808840e-01 +8.1130321166009995e+00 -1.2735055666561312e+00 -4.0029035762823639e+01 +2.7517218053932120e+03 -3.3395094012880269e+04 -5.8110679666339904e+06 
+9.0000000000000002e-01 -5.9265970939825030e-01 +8.1130092034601322e+00 -1.2755924052256749e+00 -3.9207696682063890e+01 +2.7145751208019601e+03 -3.8302277248761369e+04 -5.4813753478322076e+06 
+1.0000000000000000e+00 -5.9265962784486614e-01 +8.1129858003961370e+00 -1.2778037546915133e+00 -3.8360240115700513e+01 +2.6747362186012310e+03 -4.3387721060672804e+04 -5.1274455022444949e+06 
+1.1000000000000001e+00 -5.9265954798170084e-01 +8.1129621170421071e+00 -1.2801509393880854e+00 -3.7492753212789658e+01 +2.6330629157761482e+03 -4.8622179652707513e+04 -4.7542828112575617e+06 
+1.2000000000000000e+00 -5.9265947017241971e-01 +8.1129383630387739e+00 -1.2826452779547155e+00 -3.6611323380325231e+01 +2.5904129243366328e+03 -5.3976405677247720e+04 -4.3668911623461721e+06 
+1.3000000000000000e+00 -5.9265939478074170e-01 +8.1129147480245241e+00 -1.2852980972704084e+00 -3.5722037962223467e+01 +2.5476441178450395e+03 -5.9421152181691126e+04 -3.9702752214767570e+06 
+1.3999999999999999e+00 -5.9265932217045802e-01 +8.1128914816417534e+00 -1.2881207154938350e+00 -3.4830984457770931e+01 +2.5056142092316813e+03 -6.4927171243973120e+04 -3.5694389020097335e+06 
+1.5000000000000000e+00 -5.9265925270527020e-01 +8.1128687735313196e+00 -1.2911244553194976e+00 -3.3944250378277580e+01 +2.4651810054542261e+03 -7.0465214759940573e+04 -3.1693865813321727e+06 
+1.6000000000000001e+00 -5.9265918674892859e-01 +8.1128468333369188e+00 -1.2943206368671016e+00 -3.3067923366494277e+01 +2.4272022678889343e+03 -7.6006033765721921e+04 -2.7751224275286999e+06 
+1.7000000000000000e+00 -5.9265912466520665e-01 +8.1128258706986767e+00 -1.2977205784515531e+00 -3.2208091031724564e+01 +2.3925357367378992e+03 -8.1520379334122728e+04 -2.3916505408122395e+06 
+1.8000000000000000e+00 -5.9265906681790903e-01 +8.1128060952613730e+00 -1.3013355983645312e+00 -3.1370841213213751e+01 +2.3620391580289870e+03 -8.6979000977646530e+04 -2.0239750629608005e+06 
+1.8999999999999999e+00 -5.9265901357076922e-01 +8.1127877166678743e+00 -1.3051770166651435e+00 -3.0562261765697706e+01 +2.3365703188957555e+03 -9.2352647961171329e+04 -1.6771003501265841e+06 
+2.0000000000000000e+00 -5.9265896528765183e-01 +8.1127709445601042e+00 -1.3092561454026834e+00 -2.9788440645287103e+01 +2.3169868676866727e+03 -9.7612068632385592e+04 -1.3560301314408213e+06 
+2.1000000000000001e+00 -5.9265892228081651e-01 +8.1127559430858653e+00 -1.3135829779597532e+00 -2.9054576169642065e+01 +2.3040330407367514e+03 -1.0273049156637416e+05 -1.0651717184556958e+06 
+2.2000000000000002e+00 -5.9265888465766403e-01 +8.1127426915476377e+00 -1.3181614568207314e+00 -2.8362195173169116e+01 +2.2979840240497028e+03 -1.0769145965179904e+05 -8.0649694989915332e+05 
+2.2999999999999998e+00 -5.9265885247457228e-01 +8.1127311223108531e+00 -1.3229938090641697e+00 -2.7711878475386875e+01 +2.2989936805762009e+03 -1.1248118891513992e+05 -5.8135549131091172e+05 
+2.3999999999999999e+00 -5.9265882578793116e-01 +8.1127211677390356e+00 -1.3280822674841137e+00 -2.7104206882729446e+01 +2.3072159813950225e+03 -1.1708589528113550e+05 -3.9109753198538686e+05 
+2.5000000000000000e+00 -5.9265880465412957e-01 +8.1127127601915383e+00 -1.3334290567232578e+00 -2.6539761116133906e+01 +2.3228047380623875e+03 -1.2149179501756877e+05 -2.3707250024457782e+05 
+2.6000000000000001e+00 -5.9265878912952363e-01 +8.1127058320270198e+00 -1.3390364050358832e+00 -2.6019121895303080e+01 +2.3459138282474087e+03 -1.2568510427470712e+05 -1.2063014512711302e+05 
+2.7000000000000002e+00 -5.9265877927061383e-01 +8.1127003156035045e+00 -1.3449065366560462e+00 -2.5542869974250369e+01 +2.3766970497588750e+03 -1.2965203878164417e+05 -4.3119840606520898e+04 
+2.7999999999999998e+00 -5.9265877513373377e-01 +8.1126961432742615e+00 -1.3510416736136401e+00 -2.5111585987870896e+01 +2.4153081532948713e+03 -1.3337881481351343e+05 -5.8907376145511234e+03 
+2.8999999999999999e+00 -5.9265877677536871e-01 +8.1126932473962672e+00 -1.3574440361868956e+00 -2.4725850715456637e+01 +2.4619008487720912e+03 -1.3685164761281278e+05 -1.0291789495206674e+04 
+3.0000000000000000e+00 -5.9265878425192609e-01 +8.1126915603159269e+00 -1.3641158427706652e+00 -2.4386244661870190e+01 +2.5166288071196677e+03 -1.4005675381853254e+05 -5.7671773485833968e+04 
+3.1000000000000001e+00 -5.9265879761983797e-01 +8.1126910143838682e+00 -1.3710593110872984e+00 -2.4093348495156082e+01 +2.5796456771455069e+03 -1.4298034889017564e+05 -1.4937935490913564e+05 
+3.2000000000000002e+00 -5.9265881693559630e-01 +8.1126915419414711e+00 -1.3782766533726427e+00 -2.3847742635078912e+01 +2.6511049939653744e+03 -1.4560864954886647e+05 -2.8676265432007337e+05 
+3.2999999999999998e+00 -5.9265884225560073e-01 +8.1126930753316824e+00 -1.3857700816173264e+00 -2.3650007580247248e+01 +2.7311602827111665e+03 -1.4792787183380689e+05 -4.7116975180254149e+05 
+3.3999999999999999e+00 -5.9265887363640601e-01 +8.1126955468913309e+00 -1.3935418052284496e+00 -2.3500723693884567e+01 +2.8199650082741105e+03 -1.4992423230395885e+05 -7.0394843400973571e+05 
+3.5000000000000000e+00 -5.9265891113439284e-01 +8.1126988889546450e+00 -1.4015940317288902e+00 -2.3400471286278602e+01 +2.9176725893442372e+03 -1.5158394761444564e+05 -9.8644626412643807e+05 
+3.6000000000000001e+00 -5.9265895480612418e-01 +8.1127030338527284e+00 -1.4099289628119118e+00 -2.3349830606692528e+01 +3.0244363229016813e+03 -1.5289323452591800e+05 -1.3200102224069764e+06 
+3.7000000000000002e+00 -5.9265900470806165e-01 +8.1127079139086842e+00 -1.4185488001077187e+00 -2.3349381716545597e+01 +3.1404094938352487e+03 -1.5383831059691493e+05 -1.7059872297485308e+06 
+3.7999999999999998e+00 -5.9265906089670384e-01 +8.1127134614457930e+00 -1.4274557424353940e+00 -2.3399704700735818e+01 +3.2657453197676823e+03 -1.5440539301835987e+05 -2.1457238777598972e+06 
+3.8999999999999999e+00 -5.9265912342857308e-01 +8.1127196087793276e+00 -1.4366519839544079e+00 -2.3501379445972379e+01 +3.4005969184736637e+03 -1.5458069984026102e+05 -2.6405662831897545e+06 
+4.0000000000000000e+00 -5.9265919236022613e-01 +8.1127262882231719e+00 -1.4461397164270693e+00 -2.3654985828006009e+01 +3.5451173475510304e+03 -1.5435044890793518e+05 -3.1918602665762128e+06 
+4.0999999999999996e+00 -5.9265926780990918e-01 +8.1127334329329575e+00 -1.4559086614963443e+00 -2.3860555995220132e+01 +3.6991979403274158e+03 -1.5370652869833319e+05 -3.7996058075322937e+06 
+4.2000000000000002e+00 -5.9265935013380444e-01 +8.1127409714028911e+00 -1.4658999570434132e+00 -2.4115676105692049e+01 +3.8616937480206693e+03 -1.5266520367174884e+05 -4.4583899961817749e+06 
+4.2999999999999998e+00 -5.9265943974517332e-01 +8.1127488289108900e+00 -1.4760429065851461e+00 -2.4417253612085336e+01 +4.0312029793887946e+03 -1.5124928799035281e+05 -5.1614364486484770e+06 
+4.4000000000000004e+00 -5.9265953705734875e-01 +8.1127569307252987e+00 -1.4862668190851913e+00 -2.4762195677200491e+01 +4.2063239427311655e+03 -1.4948159754854674e+05 -5.9019692354312837e+06 
+4.5000000000000000e+00 -5.9265964248359604e-01 +8.1127652021101540e+00 -1.4965010011865829e+00 -2.5147409336220257e+01 +4.3856549077293548e+03 -1.4738494899143706e+05 -6.6732122539931517e+06 
+4.5999999999999996e+00 -5.9265975643719204e-01 +8.1127735683191897e+00 -1.5066747611777969e+00 -2.5569801301009154e+01 +4.5677941711751082e+03 -1.4498216092377377e+05 -7.4683895109267775e+06 
+4.7000000000000002e+00 -5.9265987933141828e-01 +8.1127819546040030e+00 -1.5167174107103316e+00 -2.6026278214494855e+01 +4.7513400980673396e+03 -1.4229605237876420e+05 -8.2807253420289466e+06 
+4.7999999999999998e+00 -5.9266001157950077e-01 +8.1127902862032659e+00 -1.5265582609799491e+00 -2.6513746321567609e+01 +4.9348910462236790e+03 -1.3934944479056392e+05 -9.1034440444564987e+06 
+4.9000000000000004e+00 -5.9266015359466440e-01 +8.1127984883512418e+00 -1.5361266271015948e+00 -2.7029111721848725e+01 +5.1170454480521039e+03 -1.3616516049777545e+05 -9.9297702587752920e+06 
+5.0000000000000000e+00 -5.9266030579011753e-01 +8.1128064862769769e+00 -1.5453518260738857e+00 -2.7569280346901948e+01 +5.2964017744621497e+03 -1.3276602289288075e+05 -1.0752928807348378e+07 
+5.0999999999999996e+00 -5.9266046857911436e-01 +8.1128142051942795e+00 -1.5541631731159629e+00 -2.8131157648347177e+01 +5.4715584639780382e+03 -1.2917485828866569e+05 -1.1566144348569673e+07 
+5.2000000000000002e+00 -5.9266064237478666e-01 +8.1128215703113362e+00 -1.5624899912657542e+00 -2.8711648899481560e+01 +5.6411141055878152e+03 -1.2541449410880069e+05 -1.2362642250325836e+07 
+5.2999999999999998e+00 -5.9266082759030780e-01 +8.1128285068330221e+00 -1.5702616024373712e+00 -2.9307659241076909e+01 +5.8036672709700324e+03 -1.2150775868510148e+05 -1.3135647794623377e+07 
+5.4000000000000004e+00 -5.9266102463885428e-01 +8.1128349399445057e+00 -1.5774073319344817e+00 -2.9916093217127617e+01 +5.9578165971652916e+03 -1.1747748392792705e+05 -1.3878386562227633e+07 
+5.5000000000000000e+00 -5.9266123393349013e-01 +8.1128407948297472e+00 -1.5838565081723541e+00 -3.0533855303397562e+01 +6.1021607842838539e+03 -1.1334650227986346e+05 -1.4584084428656057e+07 
+5.5999999999999996e+00 -5.9266145588740449e-01 +8.1128459966629709e+00 -1.5895384626564217e+00 -3.1157849647620750e+01 +6.2352985931617977e+03 -1.0913764826549115e+05 -1.5245967547338823e+07 
+5.7000000000000002e+00 -5.9266169091359955e-01 +8.1128504706057161e+00 -1.5943825286007931e+00 -3.1784979998047792e+01 +6.3558288233497833e+03 -1.0487375886943504e+05 -1.5857262254874855e+07 
+5.7999999999999998e+00 -5.9266193942519074e-01 +8.1128541418070501e+00 -1.5983180432333723e+00 -3.2412149695048228e+01 +6.4623503482970091e+03 -1.0057767362811821e+05 -1.6411195213699764e+07 
+5.9000000000000004e+00 -5.9266220183515228e-01 +8.1128569354103526e+00 -1.6012743476209912e+00 -3.3036261883587564e+01 +6.5534621247389350e+03 -9.6272233362437459e+04 -1.6900993492111351e+07 
+5.9999999999999902e+00 -5.9266247855657062e-01 +8.1128587765490199e+00 -1.6031807871403652e+00 -3.3654219361006916e+01 +6.6277631903664460e+03 -9.1980281114865007e+04 -1.7319884517083168e+07 
+6.0999999999999899e+00 -5.9266276974722132e-01 +8.1128596162774809e+00 -1.6039924413441917e+00 -3.4263255853001120e+01 +6.6843074634843633e+03 -8.7723034370730049e+04 -1.7663166250186648e+07 
+6.1999999999999904e+00 -5.9266307454523748e-01 +8.1128595214068966e+00 -1.6037683325603016e+00 -3.4862239423447811e+01 +6.7239811375503477e+03 -8.3513543597413911e+04 -1.7934481982473537e+07 
+6.2999999999999901e+00 -5.9266339183404637e-01 +8.1128585907518076e+00 -1.6025937503276750e+00 -3.5450524425439234e+01 +6.7481324669922851e+03 -7.9362395525494343e+04 -1.8139581523649044e+07 
+6.3999999999999897e+00 -5.9266372049700744e-01 +8.1128569231459942e+00 -1.6005539912999163e+00 -3.6027465724422434e+01 +6.7581098527642162e+03 -7.5280174015900600e+04 -1.8284215390029818e+07 
+6.4999999999999902e+00 -5.9266405941742251e-01 +8.1128546174285017e+00 -1.5977343541944922e+00 -3.6592418314730061e+01 +6.7552617462746148e+03 -7.1277462253263657e+04 -1.8374134345682163e+07 
+6.5999999999999899e+00 -5.9266440747875204e-01 +8.1128517724497282e+00 -1.5942201353516325e+00 -3.7144737462813609e+01 +6.7409365671142914e+03 -6.7364842005845290e+04 -1.8415089015659370e+07 
+6.6999999999999904e+00 -5.9266476356431708e-01 +8.1128484870795194e+00 -1.5900966403588175e+00 -3.7683778979881708e+01 +6.7164829255040431e+03 -6.3552891933756269e+04 -1.8412830946592342e+07 
+6.7999999999999901e+00 -5.9266512655749781e-01 +8.1128448601926255e+00 -1.5854491733170264e+00 -3.8208898766196334e+01 +6.6832494141644329e+03 -5.9852190333538339e+04 -1.8373111607108753e+07 
+6.8999999999999897e+00 -5.9266549534166990e-01 +8.1128409906875980e+00 -1.5803630422335608e+00 -3.8719453376502948e+01 +6.6425847169800691e+03 -5.6273311809200190e+04 -1.8301682917383615e+07 
+6.9999999999999902e+00 -5.9266586880026773e-01 +8.1128369774680493e+00 -1.5749235541777229e+00 -3.9214799462721892e+01 +6.5958375138493602e+03 -5.2826830548711936e+04 -1.8204296789801087e+07 
+7.0999999999999899e+00 -5.9266624581660798e-01 +8.1128329194634343e+00 -1.5692160267897401e+00 -3.9694294378179961e+01 +6.5443567016460847e+03 -4.9523316802451256e+04 -1.8086706183898501e+07 
+7.1999999999999904e+00 -5.9266662527409142e-01 +8.1128289156099012e+00 -1.5633257737362172e+00 -4.0157295639967792e+01 +6.4894911148763422e+03 -4.6373339966713633e+04 -1.7954663768531937e+07 
+7.2999999999999901e+00 -5.9266700605613010e-01 +8.1128250648640350e+00 -1.5573381144342329e+00 -4.0603161280422391e+01 +6.4325897150224391e+03 -4.3387466673484189e+04 -1.7813922834675342e+07 
+7.3999999999999897e+00 -5.9266738704607747e-01 +8.1128214662013765e+00 -1.5513383681833401e+00 -4.1031249857526809e+01 +6.3750014808925189e+03 -4.0576260577417801e+04 -1.7670236778692469e+07 
+7.4999999999999902e+00 -5.9266776712738434e-01 +8.1128182186128104e+00 -1.5454118637650920e+00 -4.1440920309812206e+01 +6.3180755849255738e+03 -3.7950283317513909e+04 -1.7529359920936543e+07 
+7.5999999999999899e+00 -5.9266814518336630e-01 +8.1128154211086034e+00 -1.5396439281897043e+00 -4.1831532087203946e+01 +6.2631611854334797e+03 -3.5520093713447153e+04 -1.7397046536813293e+07 
+7.6999999999999904e+00 -5.9266852009746129e-01 +8.1128131727184360e+00 -1.5341198916459282e+00 -4.2202445141126496e+01 +6.2116075169113046e+03 -3.3296247861112475e+04 -1.7279051271659948e+07 
+7.7999999999999901e+00 -5.9266889075308526e-01 +8.1128115724909886e+00 -1.5289250912684988e+00 -4.2553019931969644e+01 +6.1647639693330721e+03 -3.1289299031693386e+04 -1.7181129540862180e+07 
+7.8999999999999897e+00 -5.9266925603362608e-01 +8.1128107194972188e+00 -1.5241448638417712e+00 -4.2882617499296217e+01 +6.1239799416085070e+03 -2.9509797334013601e+04 -1.7109036808232538e+07 
+7.9999999999999902e+00 -5.9266961482252256e-01 +8.1128107128261071e+00 -1.5198645510786837e+00 -4.3190599364439684e+01 +6.0906049422268043e+03 -2.7968290225181423e+04 -1.7068529064094037e+07 
+8.0999999999999908e+00 -5.9266996628752810e-01 +8.1128116156125358e+00 -1.5161522141521326e+00 -4.3476376244187513e+01 +6.0656828568286792e+03 -2.6672143202595784e+04 -1.7063950993508518e+07 
+8.1999999999999904e+00 -5.9267031075252041e-01 +8.1128133422057829e+00 -1.5130021762590868e+00 -4.3739279434754081e+01 +6.0489825633588889e+03 -2.5617541927343460e+04 -1.7093900589521229e+07 
+8.2999999999999901e+00 -5.9267064883503251e-01 +8.1128157684943396e+00 -1.5103891358025787e+00 -4.3978561190263861e+01 +6.0399398001435047e+03 -2.4798170356040358e+04 -1.7155507236157335e+07 
+8.3999999999999897e+00 -5.9267098115263306e-01 +8.1128187703706693e+00 -1.5082877884903949e+00 -4.4193473812691700e+01 +6.0379902344887278e+03 -2.4207712416553859e+04 -1.7245899955290444e+07 
+8.4999999999999893e+00 -5.9267130832290438e-01 +8.1128222237274343e+00 -1.5066728285551809e+00 -4.4383269524262502e+01 +6.0425694694871627e+03 -2.3839852857124417e+04 -1.7362207385939348e+07 
+8.5999999999999908e+00 -5.9267163096334230e-01 +8.1128260044521774e+00 -1.5055189511967813e+00 -4.4547200315789020e+01 +6.0531131020285811e+03 -2.3688278137704969e+04 -1.7501558094637897e+07 
+8.6999999999999904e+00 -5.9267194969147563e-01 +8.1128299884353439e+00 -1.5048008476994679e+00 -4.4684518157792375e+01 +6.0690566197336530e+03 -2.3746675266743136e+04 -1.7661080057428487e+07 
+8.7999999999999794e+00 -5.9267226512485371e-01 +8.1128340515651090e+00 -1.5044932046510218e+00 -4.4794474872830939e+01 +6.0898353942836375e+03 -2.4008732480172737e+04 -1.7837900649397578e+07 
+8.8999999999999808e+00 -5.9267257788100924e-01 +8.1128380697309552e+00 -1.5045707101841557e+00 -4.4876322224088739e+01 +6.1148847890802563e+03 -2.4468138761486425e+04 -1.8029147130973641e+07 
+8.9999999999999805e+00 -5.9267288857741462e-01 +8.1128419188212213e+00 -1.5050080497569078e+00 -4.4929311840581420e+01 +6.1436400845928047e+03 -2.5118584320043541e+04 -1.8231946307197087e+07 
+9.0999999999999801e+00 -5.9267319783157146e-01 +8.1128454747220875e+00 -1.5057799052328016e+00 -4.4952695188258232e+01 +6.1755364575268568e+03 -2.5953760737325971e+04 -1.8443424420307569e+07 
+9.1999999999999797e+00 -5.9267350626096182e-01 +8.1128486133174302e+00 -1.5068609578810397e+00 -4.4945723574403978e+01 +6.2100090396698115e+03 -2.6967360926979203e+04 -1.8660707435175773e+07 
+9.2999999999999794e+00 -5.9267381448309997e-01 +8.1128512104948474e+00 -1.5082258846490701e+00 -4.4907648301133364e+01 +6.2464928425973867e+03 -2.8153078304920800e+04 -1.8880920671293356e+07 
+9.3999999999999808e+00 -5.9267412311543277e-01 +8.1128531421387251e+00 -1.5098493597265927e+00 -4.4837720466769952e+01 +6.2844227867538393e+03 -2.9504607952441318e+04 -1.9101188939302601e+07 
+9.4999999999999805e+00 -5.9267443277541787e-01 +8.1128542841314530e+00 -1.5117060560460140e+00 -4.4735191025316361e+01 +6.3232337323510274e+03 -3.1015646186406739e+04 -1.9318636695957378e+07 
+9.5999999999999801e+00 -5.9267474408048815e-01 +8.1128545123544900e+00 -1.5137706456278386e+00 -4.4599310765916016e+01 +6.3623604803699764e+03 -3.2679890847583556e+04 -1.9530388033181284e+07 
+9.6999999999999797e+00 -5.9267505764812667e-01 +8.1128537026881151e+00 -1.5160177937098491e+00 -4.4429330351338294e+01 +6.4012376638629312e+03 -3.4491040934111916e+04 -1.9733566172365163e+07 
+9.7999999999999794e+00 -5.9267537409573490e-01 +8.1128517310100605e+00 -1.5184221644096094e+00 -4.4224500246754125e+01 +6.4392998514542687e+03 -3.6442797124888944e+04 -1.9925293943118673e+07 
+9.8999999999999808e+00 -5.9267569404073395e-01 +8.1128484731994686e+00 -1.5209584190090191e+00 -4.3984070848759593e+01 +6.4759815192031347e+03 -3.8528860980074984e+04 -2.0102693665950492e+07 
+9.9999999999999805e+00 -5.9267601810056081e-01 +8.1128438051319129e+00 -1.5236012156805017e+00 -4.3707292264878063e+01 +6.5107170434400805e+03 -4.0742936371511227e+04 -2.0262887110651307e+07 
+1.0100000000000000e+01 -5.9267634682583903e-01 +8.1128376190762115e+00 -1.5263269411022578e+00 -4.3393372164507291e+01 +6.5430683183331112e+03 -4.3081034524730982e+04 -2.0403796141521465e+07 
