# trajectory
# s[mm] rx[mm] ry[mm] rz[mm] px[rad] py[rad] pz[rad]
0.0000000000000000e+00 +7.9199999999999999e+00 +0.0000000000000000e+00 +0.0000000000000000e+00 +0.0000000000000000e+00 +0.0000000000000000e+00 +1.0000000000000000e+00
-1.0000000000000001e-01 +7.9199997167708593e+00 +0.0000000000000000e+00 -9.9999999999465197e-02 +5.6645830741417511e-06 +0.0000000000000000e+00 +9.9999999998395628e-01
-2.0000000000000001e-01 +7.9199988670833292e+00 +0.0000000000000000e+00 -1.9999999999572166e-01 +1.1329167825270461e-05 +0.0000000000000000e+00 +9.9999999993582500e-01
-3.0000000000000004e-01 +7.9199974509372311e+00 +0.0000000000000000e+00 -2.9999999998556059e-01 +1.6993754473817455e-05 +0.0000000000000000e+00 +9.9999999985560617e-01
-4.0000000000000002e-01 +7.9199954683323641e+00 +0.0000000000000000e+00 -3.9999999996577329e-01 +2.2658343225230747e-05 +0.0000000000000000e+00 +9.9999999974329978e-01
-5.0000000000000000e-01 +7.9199929192685090e+00 +0.0000000000000000e+00 -4.9999999993315097e-01 +2.8322934269975153e-05 +0.0000000000000000e+00 +9.9999999959890573e-01
-5.9999999999999998e-01 +7.9199898037454277e+00 +0.0000000000000000e+00 -5.9999999988448482e-01 +3.3987527783532358e-05 +0.0000000000000000e+00 +9.9999999942242401e-01
-6.9999999999999996e-01 +7.9199861217628644e+00 +0.0000000000000000e+00 -6.9999999981656613e-01 +3.9652123926400960e-05 +0.0000000000000000e+00 +9.9999999921385452e-01
-7.9999999999999993e-01 +7.9199818733205491e+00 +0.0000000000000000e+00 -7.9999999972618607e-01 +4.5316722844096494e-05 +0.0000000000000000e+00 +9.9999999897319725e-01
-8.9999999999999991e-01 +7.9199770584181985e+00 +0.0000000000000000e+00 -8.9999999961013599e-01 +5.0981324667151432e-05 +0.0000000000000000e+00 +9.9999999870045220e-01
-9.9999999999999989e-01 +7.9199716770555151e+00 +0.0000000000000000e+00 -9.9999999946520690e-01 +5.6645929511115129e-05 +0.0000000000000000e+00 +9.9999999839561926e-01
-1.0999999999999999e+00 +7.9199657292321923e+00 +0.0000000000000000e+00 -1.0999999992881901e+00 +6.2310537476553774e-05 +0.0000000000000000e+00 +9.9999999805869844e-01
-1.2000000000000000e+00 +7.9199592149479132e+00 +0.0000000000000000e+00 -1.1999999990758770e+00 +6.7975148649050302e-05 +0.0000000000000000e+00 +9.9999999768968961e-01
-1.3000000000000000e+00 +7.9199521342023536e+00 +0.0000000000000000e+00 -1.2999999988250583e+00 +7.3639763099204260e-05 +0.0000000000000000e+00 +9.9999999728859268e-01
-1.4000000000000001e+00 +7.9199444869951821e+00 +0.0000000000000000e+00 -1.3999999985325258e+00 +7.9304380882631680e-05 +0.0000000000000000e+00 +9.9999999685540764e-01
-1.5000000000000002e+00 +7.9199362733260639e+00 +0.0000000000000000e+00 -1.4999999981950702e+00 +8.4969002039964896e-05 +0.0000000000000000e+00 +9.9999999639013437e-01
-1.6000000000000003e+00 +7.9199274931946606e+00 +0.0000000000000000e+00 -1.5999999978094830e+00 +9.0633626596852351e-05 +0.0000000000000000e+00 +9.9999999589277289e-01
-1.7000000000000004e+00 +7.9199181466006312e+00 +0.0000000000000000e+00 -1.6999999973725552e+00 +9.6298254563958378e-05 +0.0000000000000000e+00 +9.9999999536332307e-01
-1.8000000000000005e+00 +7.9199082335436346e+00 +0.0000000000000000e+00 -1.7999999968810780e+00 +1.0196288593696291e-04 +0.0000000000000000e+00 +9.9999999480178492e-01
-1.9000000000000006e+00 +7.9198977540233306e+00 +0.0000000000000000e+00 -1.8999999963318426e+00 +1.0762752069656124e-04 +0.0000000000000000e+00 +9.9999999420815833e-01
-2.0000000000000004e+00 +7.9198867080393835e+00 +0.0000000000000000e+00 -1.9999999957216401e+00 +1.1329215880846372e-04 +0.0000000000000000e+00 +9.9999999358244329e-01
-2.1000000000000005e+00 +7.9198750955914594e+00 +0.0000000000000000e+00 -2.0999999950472619e+00 +1.1895680022423520e-04 +0.0000000000000000e+00 +9.9999999292463970e-01
-2.2000000000000006e+00 +7.9198629166792305e+00 +0.0000000000000000e+00 -2.1999999943054984e+00 +1.2462144489053305e-04 +0.0000000000000000e+00 +9.9999999223474756e-01
-2.3000000000000007e+00 +7.9198501713023743e+00 +0.0000000000000000e+00 -2.2999999934931417e+00 +1.3028609275834521e-04 +0.0000000000000000e+00 +9.9999999151276686e-01
-2.4000000000000008e+00 +7.9198368594605730e+00 +0.0000000000000000e+00 -2.3999999926069822e+00 +1.3595074378383004e-04 +0.0000000000000000e+00 +9.9999999075869750e-01
-2.5000000000000009e+00 +7.9198229811535130e+00 +0.0000000000000000e+00 -2.4999999916438114e+00 +1.4161539792831624e-04 +0.0000000000000000e+00 +9.9999998997253936e-01
-2.6000000000000010e+00 +7.9198085363808843e+00 +0.0000000000000000e+00 -2.5999999906004203e+00 +1.4728005515830282e-04 +0.0000000000000000e+00 +9.9999998915429245e-01
-2.7000000000000011e+00 +7.9197935251423797e+00 +0.0000000000000000e+00 -2.6999999894736000e+00 +1.5294471544545916e-04 +0.0000000000000000e+00 +9.9999998830395675e-01
-2.8000000000000012e+00 +7.9197779474376944e+00 +0.0000000000000000e+00 -2.7999999882601418e+00 +1.5860937876662493e-04 +0.0000000000000000e+00 +9.9999998742153218e-01
-2.9000000000000012e+00 +7.9197618032665256e+00 +0.0000000000000000e+00 -2.8999999869568369e+00 +1.6427404510381010e-04 +0.0000000000000000e+00 +9.9999998650701871e-01
-3.0000000000000013e+00 +7.9197450926285731e+00 +0.0000000000000000e+00 -2.9999999855604762e+00 +1.6993871444419501e-04 +0.0000000000000000e+00 +9.9999998556041636e-01
-3.1000000000000014e+00 +7.9197278155235367e+00 +0.0000000000000000e+00 -3.0999999840678507e+00 +1.7560338678013042e-04 +0.0000000000000000e+00 +9.9999998458172501e-01
-3.2000000000000015e+00 +7.9197099719511170e+00 +0.0000000000000000e+00 -3.1999999824757515e+00 +1.8126806210913747e-04 +0.0000000000000000e+00 +9.9999998357094455e-01
-3.3000000000000016e+00 +7.9196915619110149e+00 +0.0000000000000000e+00 -3.2999999807809699e+00 +1.8693274043390782e-04 +0.0000000000000000e+00 +9.9999998252807498e-01
-3.4000000000000017e+00 +7.9196725854029300e+00 +0.0000000000000000e+00 -3.3999999789802970e+00 +1.9259742176230371e-04 +0.0000000000000000e+00 +9.9999998145311630e-01
-3.5000000000000018e+00 +7.9196530424265621e+00 +0.0000000000000000e+00 -3.4999999770705239e+00 +1.9826210610735800e-04 +0.0000000000000000e+00 +9.9999998034606841e-01
-3.6000000000000019e+00 +7.9196329329816075e+00 +0.0000000000000000e+00 -3.5999999750484415e+00 +2.0392679348727428e-04 +0.0000000000000000e+00 +9.9999997920693118e-01
-3.7000000000000020e+00 +7.9196122570677625e+00 +0.0000000000000000e+00 -3.6999999729108408e+00 +2.0959148392542701e-04 +0.0000000000000000e+00 +9.9999997803570462e-01
-3.8000000000000020e+00 +7.9195910146847197e+00 +0.0000000000000000e+00 -3.7999999706545129e+00 +2.1525617745036157e-04 +0.0000000000000000e+00 +9.9999997683238873e-01
-3.9000000000000021e+00 +7.9195692058321683e+00 +0.0000000000000000e+00 -3.8999999682762487e+00 +2.2092087409579449e-04 +0.0000000000000000e+00 +9.9999997559698339e-01
-4.0000000000000018e+00 +7.9195468305097947e+00 +0.0000000000000000e+00 -3.9999999657728398e+00 +2.2658557390061351e-04 +0.0000000000000000e+00 +9.9999997432948851e-01
-4.1000000000000014e+00 +7.9195238887172810e+00 +0.0000000000000000e+00 -4.0999999631410766e+00 +2.3225027690834953e-04 +0.0000000000000000e+00 +9.9999997302990407e-01
-4.2000000000000011e+00 +7.9195003804543047e+00 +0.0000000000000000e+00 -4.1999999603777507e+00 +2.3791498316136641e-04 +0.0000000000000000e+00 +9.9999997169822996e-01
-4.3000000000000007e+00 +7.9194763057205391e+00 +0.0000000000000000e+00 -4.2999999574796526e+00 +2.4357969269505071e-04 +0.0000000000000000e+00 +9.9999997033446619e-01
-4.4000000000000004e+00 +7.9194516645156554e+00 +0.0000000000000000e+00 -4.3999999544435742e+00 +2.4924440553728363e-04 +0.0000000000000000e+00 +9.9999996893861265e-01
-4.5000000000000000e+00 +7.9194264568393207e+00 +0.0000000000000000e+00 -4.4999999512663056e+00 +2.5490912170844090e-04 +0.0000000000000000e+00 +9.9999996751066933e-01
-4.5999999999999996e+00 +7.9194006826912018e+00 +0.0000000000000000e+00 -4.5999999479446378e+00 +2.6057384122139305e-04 +0.0000000000000000e+00 +9.9999996605063612e-01
-4.6999999999999993e+00 +7.9193743420709648e+00 +0.0000000000000000e+00 -4.6999999444753628e+00 +2.6623856408150543e-04 +0.0000000000000000e+00 +9.9999996455851292e-01
-4.7999999999999989e+00 +7.9193474349782740e+00 +0.0000000000000000e+00 -4.7999999408552707e+00 +2.7190329028663819e-04 +0.0000000000000000e+00 +9.9999996303429972e-01
-4.8999999999999986e+00 +7.9193199614127963e+00 +0.0000000000000000e+00 -4.8999999370811533e+00 +2.7756801982714655e-04 +0.0000000000000000e+00 +9.9999996147799652e-01
-4.9999999999999982e+00 +7.9192919213741986e+00 +0.0000000000000000e+00 -4.9999999331498008e+00 +2.8323275268588081e-04 +0.0000000000000000e+00 +9.9999995988960322e-01
-5.0999999999999979e+00 +7.9192633148621496e+00 +0.0000000000000000e+00 -5.0999999290580043e+00 +2.8889748883818644e-04 +0.0000000000000000e+00 +9.9999995826911969e-01
-5.1999999999999975e+00 +7.9192341418763226e+00 +0.0000000000000000e+00 -5.1999999248025546e+00 +2.9456222825190425e-04 +0.0000000000000000e+00 +9.9999995661654595e-01
-5.2999999999999972e+00 +7.9192044024163923e+00 +0.0000000000000000e+00 -5.2999999203802437e+00 +3.0022697088737045e-04 +0.0000000000000000e+00 +9.9999995493188198e-01
-5.3999999999999968e+00 +7.9191740964820392e+00 +0.0000000000000000e+00 -5.3999999157878618e+00 +3.0589171669741683e-04 +0.0000000000000000e+00 +9.9999995321512780e-01
-5.4999999999999964e+00 +7.9191432240729487e+00 +0.0000000000000000e+00 -5.4999999110221998e+00 +3.1155646562737080e-04 +0.0000000000000000e+00 +9.9999995146628329e-01
-5.5999999999999961e+00 +7.9191117851888118e+00 +0.0000000000000000e+00 -5.5999999060800487e+00 +3.1722121761505555e-04 +0.0000000000000000e+00 +9.9999994968534833e-01
-5.6999999999999957e+00 +7.9190797798293264e+00 +0.0000000000000000e+00 -5.6999999009581996e+00 +3.2288597259079026e-04 +0.0000000000000000e+00 +9.9999994787232305e-01
-5.7999999999999954e+00 +7.9190472079941969e+00 +0.0000000000000000e+00 -5.7999998956534435e+00 +3.2855073047739015e-04 +0.0000000000000000e+00 +9.9999994602720732e-01
-5.8999999999999950e+00 +7.9190140696831364e+00 +0.0000000000000000e+00 -5.8999998901625714e+00 +3.3421549119016662e-04 +0.0000000000000000e+00 +9.9999994415000115e-01
-5.9999999999999947e+00 +7.9189803648958677e+00 +0.0000000000000000e+00 -5.9999998844823743e+00 +3.3988025463692752e-04 +0.0000000000000000e+00 +9.9999994224070454e-01
-6.0999999999999943e+00 +7.9189460936321217e+00 +0.0000000000000000e+00 -6.0999998786096432e+00 +3.4554502071873153e-04 +0.0000000000000000e+00 +9.9999994029931749e-01
-6.1999999999999940e+00 +7.9189112558916399e+00 +0.0000000000000000e+00 -6.1999998725411682e+00 +3.5120978933818672e-04 +0.0000000000000000e+00 +9.9999993832584000e-01
-6.2999999999999936e+00 +7.9188758516741728e+00 +0.0000000000000000e+00 -6.2999998662737413e+00 +3.5687456040774899e-04 +0.0000000000000000e+00 +9.9999993632027195e-01
-6.3999999999999932e+00 +7.9188398809794798e+00 +0.0000000000000000e+00 -6.3999998598041534e+00 +3.6253933385047672e-04 +0.0000000000000000e+00 +9.9999993428261347e-01
-6.4999999999999929e+00 +7.9188033438073262e+00 +0.0000000000000000e+00 -6.4999998531291947e+00 +3.6820410960003083e-04 +0.0000000000000000e+00 +9.9999993221286443e-01
-6.5999999999999925e+00 +7.9187662401574848e+00 +0.0000000000000000e+00 -6.5999998462456562e+00 +3.7386888760067516e-04 +0.0000000000000000e+00 +9.9999993011102484e-01
-6.6999999999999922e+00 +7.9187285700297325e+00 +0.0000000000000000e+00 -6.6999998391503297e+00 +3.7953366780727664e-04 +0.0000000000000000e+00 +9.9999992797709469e-01
-6.7999999999999918e+00 +7.9186903334238510e+00 +0.0000000000000000e+00 -6.7999998318400054e+00 +3.8519845018530538e-04 +0.0000000000000000e+00 +9.9999992581107400e-01
-6.8999999999999915e+00 +7.9186515303396243e+00 +0.0000000000000000e+00 -6.8999998243114744e+00 +3.9086323471083505e-04 +0.0000000000000000e+00 +9.9999992361296275e-01
-6.9999999999999911e+00 +7.9186121607768376e+00 +0.0000000000000000e+00 -6.9999998165615276e+00 +3.9652802137054308e-04 +0.0000000000000000e+00 +9.9999992138276084e-01
-7.0999999999999908e+00 +7.9185722247352786e+00 +0.0000000000000000e+00 -7.0999998085869569e+00 +4.0219281016171083e-04 +0.0000000000000000e+00 +9.9999991912046826e-01
-7.1999999999999904e+00 +7.9185317222147340e+00 +0.0000000000000000e+00 -7.1999998003845516e+00 +4.0785760109222392e-04 +0.0000000000000000e+00 +9.9999991682608491e-01
-7.2999999999999901e+00 +7.9184906532149881e+00 +0.0000000000000000e+00 -7.2999997919511035e+00 +4.1352239418057245e-04 +0.0000000000000000e+00 +9.9999991449961090e-01
-7.3999999999999897e+00 +7.9184490177358251e+00 +0.0000000000000000e+00 -7.3999997832834037e+00 +4.1918718945585125e-04 +0.0000000000000000e+00 +9.9999991214104600e-01
-7.4999999999999893e+00 +7.9184068157770229e+00 +0.0000000000000000e+00 -7.4999997743782432e+00 +4.2485198695776016e-04 +0.0000000000000000e+00 +9.9999990975039033e-01
-7.5999999999999890e+00 +7.9183640473383576e+00 +0.0000000000000000e+00 -7.5999997652324121e+00 +4.3051678673660429e-04 +0.0000000000000000e+00 +9.9999990732764366e-01
-7.6999999999999886e+00 +7.9183207124195976e+00 +0.0000000000000000e+00 -7.6999997558427022e+00 +4.3618158885329425e-04 +0.0000000000000000e+00 +9.9999990487280599e-01
-7.7999999999999883e+00 +7.9182768110205064e+00 +0.0000000000000000e+00 -7.7999997462059039e+00 +4.4184639337934654e-04 +0.0000000000000000e+00 +9.9999990238587733e-01
-7.8999999999999879e+00 +7.9182323431408390e+00 +0.0000000000000000e+00 -7.8999997363188079e+00 +4.4751120039688376e-04 +0.0000000000000000e+00 +9.9999989986685756e-01
-7.9999999999999876e+00 +7.9181873087803414e+00 +0.0000000000000000e+00 -7.9999997261782054e+00 +4.5317600999863485e-04 +0.0000000000000000e+00 +9.9999989731574657e-01
-8.0999999999999872e+00 +7.9181417079387497e+00 +0.0000000000000000e+00 -8.0999997157808874e+00 +4.5884082228754504e-04 +0.0000000000000000e+00 +9.9999989473254425e-01
-8.1999999999999869e+00 +7.9180955406157905e+00 +0.0000000000000000e+00 -8.1999997051236448e+00 +4.6450563737247970e-04 +0.0000000000000000e+00 +9.9999989211725049e-01
-8.2999999999999865e+00 +7.9180488068111785e+00 +0.0000000000000000e+00 -8.2999996942032688e+00 +4.7017045536392816e-04 +0.0000000000000000e+00 +9.9999988946986518e-01
-8.3999999999999861e+00 +7.9180015065246172e+00 +0.0000000000000000e+00 -8.3999996830165493e+00 +4.7583527637361250e-04 +0.0000000000000000e+00 +9.9999988679038831e-01
-8.4999999999999858e+00 +7.9179536397557992e+00 +0.0000000000000000e+00 -8.4999996715602766e+00 +4.8150010051448724e-04 +0.0000000000000000e+00 +9.9999988407881968e-01
-8.5999999999999854e+00 +7.9179052065044058e+00 +0.0000000000000000e+00 -8.5999996598312425e+00 +4.8716492790073861e-04 +0.0000000000000000e+00 +9.9999988133515927e-01
-8.6999999999999851e+00 +7.9178562067701073e+00 +0.0000000000000000e+00 -8.6999996478262389e+00 +4.9282975864778421e-04 +0.0000000000000000e+00 +9.9999987855940697e-01
-8.7999999999999847e+00 +7.9178066405525609e+00 +0.0000000000000000e+00 -8.7999996355420542e+00 +4.9849459287227215e-04 +0.0000000000000000e+00 +9.9999987575156257e-01
-8.8999999999999844e+00 +7.9177565078514132e+00 +0.0000000000000000e+00 -8.8999996229754803e+00 +5.0415943069208075e-04 +0.0000000000000000e+00 +9.9999987291162595e-01
-8.9999999999999840e+00 +7.9177058086662990e+00 +0.0000000000000000e+00 -8.9999996101233091e+00 +5.0982427222631764e-04 +0.0000000000000000e+00 +9.9999987003959712e-01
-9.0999999999999837e+00 +7.9176545429968401e+00 +0.0000000000000000e+00 -9.0999995969823306e+00 +5.1548911759531960e-04 +0.0000000000000000e+00 +9.9999986713547584e-01
-9.1999999999999833e+00 +7.9176027108426474e+00 +0.0000000000000000e+00 -9.1999995835493351e+00 +5.2115396692065130e-04 +0.0000000000000000e+00 +9.9999986419926201e-01
-9.2999999999999829e+00 +7.9175503122033195e+00 +0.0000000000000000e+00 -9.2999995698211126e+00 +5.2681882032510523e-04 +0.0000000000000000e+00 +9.9999986123095552e-01
-9.3999999999999826e+00 +7.9174973470784424e+00 +0.0000000000000000e+00 -9.3999995557944551e+00 +5.3248367793270058e-04 +0.0000000000000000e+00 +9.9999985823055615e-01
-9.4999999999999822e+00 +7.9174438154675890e+00 +0.0000000000000000e+00 -9.4999995414661544e+00 +5.3814853986868276e-04 +0.0000000000000000e+00 +9.9999985519806389e-01
-9.5999999999999819e+00 +7.9173897173703205e+00 +0.0000000000000000e+00 -9.5999995268329990e+00 +5.4381340625952275e-04 +0.0000000000000000e+00 +9.9999985213347853e-01
-9.6999999999999815e+00 +7.9173350527861848e+00 +0.0000000000000000e+00 -9.6999995118917806e+00 +5.4947827723291604e-04 +0.0000000000000000e+00 +9.9999984903679995e-01
-9.7999999999999812e+00 +7.9172798217147173e+00 +0.0000000000000000e+00 -9.7999994966392894e+00 +5.5514315291778219e-04 +0.0000000000000000e+00 +9.9999984590802793e-01
-9.8999999999999808e+00 +7.9172240241554404e+00 +0.0000000000000000e+00 -9.8999994810723155e+00 +5.6080803344426406e-04 +0.0000000000000000e+00 +9.9999984274716236e-01
-9.9999999999999805e+00 +7.9171676601078627e+00 +0.0000000000000000e+00 -9.9999994651876509e+00 +5.6647291894372682e-04 +0.0000000000000000e+00 +9.9999983955420313e-01
-1.0099999999999980e+01 +7.9171107295714815e+00 +0.0000000000000000e+00 -1.0099999448982086e+01 +5.7213780954819358e-04 +0.0000000000000000e+00 +9.9999983632915002e-01
-1.0199999999999980e+01 +7.9170532325457792e+00 +0.0000000000000000e+00 -1.0199999432452410e+01 +5.7780270538414409e-04 +0.0000000000000000e+00 +9.9999983307200291e-01
-1.0299999999999979e+01 +7.9169951690302263e+00 +0.0000000000000000e+00 -1.0299999415595416e+01 +5.8346760656631438e-04 +0.0000000000000000e+00 +9.9999982978276158e-01
-1.0399999999999979e+01 +7.9169365390242836e+00 +0.0000000000000000e+00 -1.0399999398407893e+01 +5.8913251319713336e-04 +0.0000000000000000e+00 +9.9999982646142593e-01
-1.0499999999999979e+01 +7.9168773425274015e+00 +0.0000000000000000e+00 -1.0499999380886631e+01 +5.9479742536672350e-04 +0.0000000000000000e+00 +9.9999982310799573e-01
-1.0599999999999978e+01 +7.9168175795390230e+00 +0.0000000000000000e+00 -1.0599999363028422e+01 +6.0046234315290145e-04 +0.0000000000000000e+00 +9.9999981972247098e-01
-1.0699999999999978e+01 +7.9167572500585814e+00 +0.0000000000000000e+00 -1.0699999344830056e+01 +6.0612726662117862e-04 +0.0000000000000000e+00 +9.9999981630485146e-01
-1.0799999999999978e+01 +7.9166963540855075e+00 +0.0000000000000000e+00 -1.0799999326288322e+01 +6.1179219582476200e-04 +0.0000000000000000e+00 +9.9999981285513706e-01
-1.0899999999999977e+01 +7.9166348916192240e+00 +0.0000000000000000e+00 -1.0899999307400012e+01 +6.1745713080455444e-04 +0.0000000000000000e+00 +9.9999980937332766e-01
-1.0999999999999977e+01 +7.9165728626591525e+00 +0.0000000000000000e+00 -1.0999999288161918e+01 +6.2312207158915565e-04 +0.0000000000000000e+00 +9.9999980585942316e-01
-1.1099999999999977e+01 +7.9165102672047114e+00 +0.0000000000000000e+00 -1.1099999268570828e+01 +6.2878701819486273e-04 +0.0000000000000000e+00 +9.9999980231342345e-01
-1.1199999999999976e+01 +7.9164471052553189e+00 +0.0000000000000000e+00 -1.1199999248623532e+01 +6.3445197062567094e-04 +0.0000000000000000e+00 +9.9999979873532829e-01
-1.1299999999999976e+01 +7.9163833768103924e+00 +0.0000000000000000e+00 -1.1299999228316823e+01 +6.4011692887327445e-04 +0.0000000000000000e+00 +9.9999979512513781e-01
-1.1399999999999975e+01 +7.9163190818693510e+00 +0.0000000000000000e+00 -1.1399999207647490e+01 +6.4578189291706689e-04 +0.0000000000000000e+00 +9.9999979148285179e-01
-1.1499999999999975e+01 +7.9162542204316164e+00 +0.0000000000000000e+00 -1.1499999186612323e+01 +6.5144686272414220e-04 +0.0000000000000000e+00 +9.9999978780847010e-01
-1.1599999999999975e+01 +7.9161887924966150e+00 +0.0000000000000000e+00 -1.1599999165208114e+01 +6.5711183824929565e-04 +0.0000000000000000e+00 +9.9999978410199275e-01
-1.1699999999999974e+01 +7.9161227980637774e+00 +0.0000000000000000e+00 -1.1699999143431652e+01 +6.6277681943502408e-04 +0.0000000000000000e+00 +9.9999978036341974e-01
