# multipoles
# s[mm] polynom_b[n=0][T/m^n] polynom_b[n=1][T/m^n] polynom_b[n=2][T/m^n] polynom_b[n=3][T/m^n] polynom_b[n=4][T/m^n] polynom_b[n=5][T/m^n] polynom_b[n=6][T/m^n] 
+0.0000000000000000e+00 -5.6438470500939797e-01 +7.7265832950714337e+00 +7.2770781515131486e-02 +1.3145072688056405e+01 -3.8752668358916858e+03 -2.9315445743411040e+05 +3.6172964165691314e+06 
-1.0000000000000001e-01 -5.6438456147882321e-01 +7.7266061855887287e+00 +7.1821918626514200e-02 +1.2393618889736606e+01 -3.8452520474752801e+03 -2.8869910756856960e+05 +3.4601600442392137e+06 
-2.0000000000000001e-01 -5.6438441780750248e-01 +7.7266280015335278e+00 +7.0334922948960168e-02 +1.1661350847432203e+01 -3.8047391273775179e+03 -2.8433426627509156e+05 +3.2542244305579239e+06 
-3.0000000000000004e-01 -5.6438427454135798e-01 +7.7266487644541062e+00 +6.8357718396427583e-02 +1.0948329850241874e+01 -3.7545916226077743e+03 -2.8006069698662154e+05 +3.0033578788658120e+06 
-4.0000000000000002e-01 -5.6438413222625972e-01 +7.7266684958960727e+00 +6.5938222661685558e-02 +1.0254617252656956e+01 -3.6956729653510179e+03 -2.7587916347842966e+05 +2.7114281571417879e+06 
-5.0000000000000000e-01 -5.6438399140811268e-01 +7.7266872174117625e+00 +6.3124357958827690e-02 +9.5802741951589070e+00 -3.6288466747972416e+03 -2.7179042822797084e+05 +2.3823034501713980e+06 
-5.9999999999999998e-01 -5.6438385263278246e-01 +7.7267049505448515e+00 +5.9964041822970639e-02 +8.9253620671240839e+00 -3.5549761830275602e+03 -2.6779525515549956e+05 +2.0198515337128122e+06 
-6.9999999999999996e-01 -5.6438371644615970e-01 +7.7267217168481546e+00 +5.6505194845112662e-02 +8.2899419774017318e+00 -3.4749249803798207e+03 -2.6389440649881569e+05 +1.6279404620587260e+06 
-7.9999999999999993e-01 -5.6438358339411165e-01 +7.7267375378726015e+00 +5.2795735144257998e-02 +7.6740750820456478e+00 -3.3895565136211544e+03 -2.6008864474725479e+05 +1.2104380912264178e+06 
-8.9999999999999991e-01 -5.6438345402252454e-01 +7.7267524351650421e+00 +4.8883583056266257e-02 +7.0778226531323867e+00 -3.2997342718462928e+03 -2.5637873305565355e+05 +7.7121248103048361e+05 
-9.9999999999999989e-01 -5.6438332887725950e-01 +7.7267664302765064e+00 +4.4816655980181593e-02 +6.5012458202603955e+00 -3.2063216888860898e+03 -2.5276543367968695e+05 +3.1413142852248542e+05 
-1.0999999999999999e+00 -5.6438320850418677e-01 +7.7267795447540548e+00 +4.0642872662211019e-02 +5.9444058412068719e+00 -3.1101822277738556e+03 -2.4924950965509462e+05 -1.5693711890991847e+05 
-1.2000000000000000e+00 -5.6438309344914983e-01 +7.7267918001452749e+00 +3.6410148354153293e-02 +5.4073639447023822e+00 -3.0121792841485108e+03 -2.4583172379736142e+05 -6.3812553725040588e+05 
-1.3000000000000000e+00 -5.6438298425802913e-01 +7.7268032179966237e+00 +3.2166402740704682e-02 +4.8901813847391038e+00 -2.9131763386236157e+03 -2.4251283904350936e+05 -1.1255657942019631e+06 
-1.4000000000000001e+00 -5.6438288147666726e-01 +7.7268138198501752e+00 +2.7959551516673939e-02 +4.3929195411130824e+00 -2.8140368009331914e+03 -2.3929361904430191e+05 -1.6153901829337529e+06 
-1.5000000000000002e+00 -5.6438278565092637e-01 +7.7268236272500124e+00 +2.3837512078491444e-02 +3.9156397442755226e+00 -2.7156241096312765e+03 -2.3617482717803161e+05 -2.1037308668270181e+06 
-1.6000000000000003e+00 -5.6438269732664259e-01 +7.7268326617348011e+00 +1.9848199103083469e-02 +3.4584034704087157e+00 -2.6188016555865811e+03 -2.3315722762748308e+05 -2.5867202261647354e+06 
-1.7000000000000004e+00 -5.6438261704967330e-01 +7.7268409448412276e+00 +1.6039529211864245e-02 +3.0212722534052769e+00 -2.5244328651758001e+03 -2.3024158489656509e+05 -3.0604904737607380e+06 
-1.8000000000000005e+00 -5.6438254536585841e-01 +7.7268484981049932e+00 +1.2459417499847754e-02 +2.6043076636877194e+00 -2.4333811390195342e+03 -2.2742866371195402e+05 -3.5211739373839227e+06 
-1.9000000000000006e+00 -5.6438248282103820e-01 +7.7268553430572684e+00 +9.1557785303669845e-03 +2.2075714020896715e+00 -2.3465098675051004e+03 -2.2471922953991147e+05 -3.9649029917115653e+06 
-2.0000000000000004e+00 -5.6438242996104881e-01 +7.7268615012228832e+00 +6.1765265378819750e-03 +1.8311253600654422e+00 -2.2646824351083756e+03 -2.2211404895541744e+05 -4.3878100401662076e+06 
-2.1000000000000005e+00 -5.6438238722498457e-01 +7.7268670008148632e+00 +3.5618239103921401e-03 +1.4748249617759319e+00 -2.1886479669038808e+03 -2.1961297706843956e+05 -4.7864696463680575e+06 
-2.2000000000000006e+00 -5.6438235462531283e-01 +7.7268718969265411e+00 +1.3207856993593431e-03 +1.1377087747413972e+00 -2.1186967971213867e+03 -2.1721234185415544e+05 -5.1592320767454822e+06 
-2.3000000000000007e+00 -5.6438233206794775e-01 +7.7268762514179237e+00 -5.4524458233911873e-04 +8.1861296720217713e-01 -2.0550041328680627e+03 -2.1490761704751168e+05 -5.5048931915774848e+06 
-2.4000000000000008e+00 -5.6438231945879536e-01 +7.7268801261416424e+00 -2.0349240394884911e-03 +5.1637393449905322e-01 -1.9977451717948145e+03 -2.1269427777025389e+05 -5.8222488891130500e+06 
-2.5000000000000009e+00 -5.6438231670375227e-01 +7.7268835829522340e+00 -3.1469112755307489e-03 +2.2982804023425032e-01 -1.9470950811618657e+03 -2.1056779904790275e+05 -6.1100952146640141e+06 
-2.6000000000000010e+00 -5.6438232370873465e-01 +7.7268866837027002e+00 -3.8798627070439793e-03 -4.2188285329200624e-02 -1.9032290681280638e+03 -2.0852365639742740e+05 -6.3672280269454112e+06 
-2.7000000000000011e+00 -5.6438234037965340e-01 +7.7268894902482677e+00 -4.2324357421163672e-03 -3.0083865425536566e-01 -1.8663223197770153e+03 -2.0655732518219354e+05 -6.5924432806517389e+06 
-2.8000000000000012e+00 -5.6438236662242280e-01 +7.7268920644421319e+00 -4.2032876722466741e-03 -5.4728659493555043e-01 -1.8365500233771281e+03 -2.0466428136079456e+05 -6.7845369321735688e+06 
-2.9000000000000012e+00 -5.6438240234295511e-01 +7.7268944681390392e+00 -3.7910765037391845e-03 -7.8269565085780657e-01 -1.8140873492179710e+03 -2.0284000093791744e+05 -6.9423050258902600e+06 
-3.0000000000000013e+00 -5.6438244744716537e-01 +7.7268967631907541e+00 -2.9944600112765786e-03 -1.0082292543165081e+00 -1.7991094718728204e+03 -2.0107996067044334e+05 -7.0645435830098279e+06 
-3.1000000000000014e+00 -5.6438250184099903e-01 +7.7268990114539973e+00 -1.8120927761080669e-03 -1.2250509381416455e+00 -1.7917916222732711e+03 -1.9937963691377745e+05 -7.1500483655461986e+06 
-3.2000000000000015e+00 -5.6438256543034748e-01 +7.7269012747833612e+00 -2.4263583448475446e-04 -1.4343241576290970e+00 -1.7923089105842550e+03 -1.9773450656222692e+05 -7.1976157022328125e+06 
-3.3000000000000016e+00 -5.6438263812116318e-01 +7.7269036150308796e+00 +1.7152560182496998e-03 -1.6372122459861236e+00 -1.8008365556065291e+03 -1.9614004741846415e+05 -7.2060414288769914e+06 
-3.4000000000000017e+00 -5.6438271981938115e-01 +7.7269060940554120e+00 +4.0629257430102855e-03 -1.8348786973671665e+00 -1.8175497343636894e+03 -1.9459173651226683e+05 -7.1741215731790597e+06 
-3.5000000000000018e+00 -5.6438281043093252e-01 +7.7269087737136903e+00 +6.8017156456204077e-03 -2.0284869100588412e+00 -1.8426236089723900e+03 -1.9308505159350505e+05 -7.1006522382985037e+06 
-3.6000000000000019e+00 -5.6438290986176198e-01 +7.7269117158622160e+00 +9.9329690186017259e-03 -2.2192002296445481e+00 -1.8762333555181685e+03 -1.9161547090989214e+05 -6.9844294696755456e+06 
-3.7000000000000020e+00 -5.6438301801782531e-01 +7.7269149823585854e+00 +1.3458030102238226e-02 -2.4081819953958119e+00 -1.9185541641567877e+03 -1.9017847293178143e+05 -6.8242492533596288e+06 
-3.8000000000000020e+00 -5.6438313480508706e-01 +7.7269186350637860e+00 +1.7378243616245515e-02 -2.5965955911160017e+00 -1.9697612308251223e+03 -1.8876953609231545e+05 -6.6189075528443046e+06 
-3.9000000000000021e+00 -5.6438326012949747e-01 +7.7269227358377890e+00 +2.1694951917991197e-02 -2.7856043287111931e+00 -2.0300297019459574e+03 -1.8738413944109203e+05 -6.3672005744454190e+06 
-4.0000000000000018e+00 -5.6438339389702641e-01 +7.7269273465416051e+00 +2.6409499650011912e-02 -2.9763715003251767e+00 -2.0995347646606415e+03 -1.8601776236641232e+05 -6.0679243363101315e+06 
-4.1000000000000014e+00 -5.6438353590582202e-01 +7.7269325104730946e+00 +3.1517307119645635e-02 -3.1696796106748053e+00 -2.1783210324720849e+03 -1.8466785786283345e+05 -5.7205637222909499e+06 
-4.2000000000000011e+00 -5.6438368552041540e-01 +7.7269381986611929e+00 +3.6990271369771031e-02 -3.3649275032502550e+00 -2.2659141769057501e+03 -1.8333884930942912e+05 -5.3273407995517720e+06 
-4.3000000000000007e+00 -5.6438384199636660e-01 +7.7269443645559024e+00 +4.2794448875853486e-02 -3.5612028823154636e+00 -2.3617107272676139e+03 -1.8203667290938803e+05 -4.8911589820841299e+06 
-4.4000000000000004e+00 -5.6438400458925220e-01 +7.7269509616092016e+00 +4.8895898114366045e-02 -3.7575934825284687e+00 -2.4651072474637413e+03 -1.8076726471586002e+05 -4.4149215239919573e+06 
-4.5000000000000000e+00 -5.6438417255463014e-01 +7.7269579432764992e+00 +5.5260675318700846e-02 -3.9531871248202837e+00 -2.5755002597936859e+03 -1.7953656024937987e+05 -3.9015318686337690e+06 
-4.5999999999999996e+00 -5.6438434514805480e-01 +7.7269652630175170e+00 +6.1854836119360941e-02 -4.1470717327274551e+00 -2.6922862706988003e+03 -1.7835049443793832e+05 -3.3538935425932938e+06 
-4.6999999999999993e+00 -5.6438452162507513e-01 +7.7269728742932937e+00 +6.8644435186952485e-02 -4.3383352480485087e+00 -2.8148617666982932e+03 -1.7721500208174012e+05 -2.7749101651979270e+06 
-4.7999999999999989e+00 -5.6438470124122309e-01 +7.7269807305695419e+00 +7.5595525285117066e-02 -4.5260657195124381e+00 -2.9426231967233698e+03 -1.7613601736908275e+05 -2.1674855337916496e+06 
-4.8999999999999986e+00 -5.6438488325204961e-01 +7.7269887853166832e+00 +8.2674161332659132e-02 -4.7093513242649792e+00 -3.0749670478134817e+03 -1.7511947367921090e+05 -1.5345232659560100e+06 
-4.9999999999999982e+00 -5.6438506691305634e-01 +7.7269969920073445e+00 +8.9846392306401165e-02 -4.8872802725086659e+00 -3.2112896943230303e+03 -1.7417130420133367e+05 -8.7892750869534118e+05 
-5.0999999999999979e+00 -5.6438525147976648e-01 +7.7270053041146989e+00 +9.7078269712812873e-02 -5.0589407755683267e+00 -3.3509875540999242e+03 -1.7329744206593937e+05 -2.0360220972228234e+05 
-5.1999999999999975e+00 -5.6438543620768311e-01 +7.7270136751215857e+00 +1.0433584243287519e-01 -5.2234213020232607e+00 -3.4934569943182896e+03 -1.7250381887925853e+05 +4.8854844821726816e+05 
-5.2999999999999972e+00 -5.6438562035229634e-01 +7.7270220585147342e+00 +1.1158515764542194e-01 -5.3798104102403004e+00 -3.6380943456316750e+03 -1.7179636568827924e+05 +1.1946201019182624e+06 
-5.3999999999999968e+00 -5.6438580316910181e-01 +7.7270304077807550e+00 +1.1879226378080592e-01 -5.5271966388550782e+00 -3.7842959639922065e+03 -1.7118101359565044e+05 +1.9117085189718301e+06 
-5.4999999999999964e+00 -5.6438598391357153e-01 +7.7270386764148080e+00 +1.2592320535728063e-01 -5.6646687539690781e+00 -3.9314581234617531e+03 -1.7066369232294933e+05 +2.6369090649217912e+06 
-5.5999999999999961e+00 -5.6438616184116308e-01 +7.7270468179161620e+00 +1.3294402618382192e-01 -5.7913156191479240e+00 -4.0789770890397535e+03 -1.7025033097850389e+05 +3.3673170798216532e+06 
-5.6999999999999957e+00 -5.6438633620732548e-01 +7.7270547857879999e+00 +1.3982076858587758e-01 -5.9062261856404898e+00 -4.2262490917207788e+03 -1.6994685810563192e+05 +4.1000277332865535e+06 
-5.7999999999999954e+00 -5.6438650626751352e-01 +7.7270625335379641e+00 +1.4651947521647576e-01 -6.0084895240939939e+00 -4.3726703643044966e+03 -1.6975920145519526e+05 +4.8321361988809537e+06 
-5.8999999999999950e+00 -5.6438667127713771e-01 +7.7270700146819546e+00 +1.5300618397987148e-01 -6.0971949167016142e+00 -4.5176370504737652e+03 -1.6969328750155095e+05 +5.5607372352956915e+06 
-5.9999999999999947e+00 -5.6438683049163019e-01 +7.7270771827387490e+00 +1.5924693509623003e-01 -6.1714317153421234e+00 -4.6605453351027572e+03 -1.6975504217693835e+05 +6.2829258023086209e+06 
-6.0999999999999943e+00 -5.6438698338402804e-01 +7.7270839764237742e+00 +1.6521154691425347e-01 -6.2301841194479683e+00 -4.8007974985765641e+03 -1.6994932792211184e+05 +6.9957746852341043e+06 
-6.1999999999999940e+00 -5.6438713030383192e-01 +7.7270902843105151e+00 +1.7088636133181173e-01 -6.2721880967610604e+00 -4.9378409225408905e+03 -1.7027623040631006e+05 +7.6963077856365452e+06 
-6.2999999999999936e+00 -5.6438727182118786e-01 +7.7270959846863514e+00 +1.7626218536510474e-01 -6.2961624058642931e+00 -5.0711390934431483e+03 -1.7073448365825281e+05 +8.3815457435473474e+06 
-6.3999999999999932e+00 -5.6438740850618885e-01 +7.7271009558391794e+00 +1.8132982112442611e-01 -6.3008259678099501e+00 -5.2001554199747288e+03 -1.7132282039059995e+05 +9.0485088530935720e+06 
-6.4999999999999929e+00 -5.6438754092893706e-01 +7.7271050760582947e+00 +1.8608007356096981e-01 -6.2848978982062089e+00 -5.3243533793754086e+03 -1.7203997181103786e+05 +9.6942177546197306e+06 
-6.5999999999999925e+00 -5.6438766965951281e-01 +7.7271082236247457e+00 +1.9050374785896132e-01 -6.2470972189657568e+00 -5.4431964805270554e+03 -1.7288466931983302e+05 +1.0315693295501783e+07 
-6.6999999999999922e+00 -5.6438779526797023e-01 +7.7271102768247557e+00 +1.9459164729113948e-01 -6.1861432740892557e+00 -5.5561482081029581e+03 -1.7385564203296023e+05 +1.0909956219391784e+07 
-6.7999999999999918e+00 -5.6438791832436930e-01 +7.7271111139354751e+00 +1.9833457836643581e-01 -6.1007553105990482e+00 -5.6626721299246847e+03 -1.7495161922381099e+05 +1.1474027703601016e+07 
-6.8999999999999915e+00 -5.6438803939873083e-01 +7.7271106132351370e+00 +2.0172334517477628e-01 -5.9896527791184537e+00 -5.7622317910764241e+03 -1.7617132856829869e+05 +1.2004928859508479e+07 
-6.9999999999999911e+00 -5.6438815906105722e-01 +7.7271086529997728e+00 +2.0474875207075047e-01 -5.8515552537703961e+00 -5.8542907630326499e+03 -1.7751349657804315e+05 +1.2499680958643720e+07 
-7.0999999999999908e+00 -5.6438827788136914e-01 +7.7271051114986458e+00 +2.0740160752264278e-01 -5.6851822951022761e+00 -5.9383127155841275e+03 -1.7897684939894025e+05 +1.2955305773303078e+07 
-7.1999999999999904e+00 -5.6438839642962346e-01 +7.7270998670016313e+00 +2.0967271533518297e-01 -5.4892536794157616e+00 -6.0137612543252299e+03 -1.8056011144844026e+05 +1.3368824809641792e+07 
-7.2999999999999901e+00 -5.6438851527578804e-01 +7.7270927977749215e+00 +2.1155288293620711e-01 -5.2624892760763240e+00 -6.0801000782568281e+03 -1.8226200612363563e+05 +1.3737260062709175e+07 
-7.3999999999999897e+00 -5.6438863498979741e-01 +7.7270837820806433e+00 +2.1303291661408147e-01 -5.0036090395523942e+00 -6.1367928892198051e+03 -1.8408125584533965e+05 +1.4057633580109492e+07 
-7.4999999999999893e+00 -5.6438875614158379e-01 +7.7270726981771913e+00 +2.1410362473177164e-01 -4.7113330329669099e+00 -6.1833034525538287e+03 -1.8601658187700904e+05 +1.4326967751314897e+07 
-7.5999999999999890e+00 -5.6438887930103998e-01 +7.7270594243235129e+00 +2.1475581412433978e-01 -4.3843815575352227e+00 -6.2190955317321313e+03 -1.8806670356987807e+05 +1.4542285002277097e+07 
-7.6999999999999886e+00 -5.6438900503805645e-01 +7.7270438387652725e+00 +2.1498029421586184e-01 -4.0214747459872715e+00 -6.2436329675536417e+03 -1.9023034073893528e+05 +1.4700608175510652e+07 
-7.7999999999999883e+00 -5.6438913392249046e-01 +7.7270258197562551e+00 +2.1476787295364339e-01 -3.6213332085740180e+00 -6.2563795971701238e+03 -1.9250620984280485e+05 +1.4798960133651562e+07 
-7.8999999999999879e+00 -5.6438926652417531e-01 +7.7270052455394644e+00 +2.1410935861371624e-01 -3.1826774802002609e+00 -6.2567992932789675e+03 -1.9489302720997887e+05 +1.4834363956910131e+07 
-7.9999999999999876e+00 -5.6438940341293586e-01 +7.7269819943564491e+00 +2.1299556236686321e-01 -2.7042282792214851e+00 -6.2443560176394285e+03 -1.9738950777322127e+05 +1.4803843194373619e+07 
-8.0999999999999872e+00 -5.6438954509980011e-01 +7.7269559787001354e+00 +2.1142462004669865e-01 -2.1849566816624546e+00 -6.2187822820772517e+03 -1.9999589171496380e+05 +1.4705830227389820e+07 
-8.1999999999999869e+00 -5.6438969184798893e-01 +7.7269272247423926e+00 +2.0942047204954081e-01 -1.6239865748384095e+00 -6.1808406436348714e+03 -2.0272242319803828e+05 +1.4544321948676126e+07 
-8.2999999999999865e+00 -5.6438984385569335e-01 +7.7268957812243553e+00 +2.0701272431767248e-01 -1.0202587223143358e+00 -6.1315432163193636e+03 -2.0558291813162543e+05 +1.4324703295938564e+07 
-8.3999999999999861e+00 -5.6439000132108563e-01 +7.7268616968932422e+00 +2.0423097863855733e-01 -3.7271378941627914e-01 -6.0719020304760215e+03 -2.0859119369119703e+05 +1.4052358822950268e+07 
-8.4999999999999858e+00 -5.6439016444230239e-01 +7.7268250204922388e+00 +2.0110483068990631e-01 +3.1970792752376981e-01 -6.0029289891524822e+03 -2.1176106990352416e+05 +1.3732672475768622e+07 
-8.5999999999999854e+00 -5.6439033341750400e-01 +7.7267858007688170e+00 +1.9766387656625942e-01 +1.0580662631407511e+00 -5.9256359881089411e+03 -2.1510636828413856e+05 +1.3371028157015173e+07 
-8.6999999999999851e+00 -5.6439050844481431e-01 +7.7267440864728103e+00 +1.9393770650050587e-01 +1.8434212587593506e+00 -5.8410348038588154e+03 -2.1864091232286624e+05 +1.2972809211377800e+07 
-8.7999999999999847e+00 -5.6439068972232720e-01 +7.7266999263554901e+00 +1.8995590394602918e-01 +2.6768331867624391e+00 -5.7501370658155865e+03 -2.2237852762483904e+05 +1.2543398269066174e+07 
-8.8999999999999844e+00 -5.6439087744813932e-01 +7.7266533691697061e+00 +1.8574805110255746e-01 +3.5593625659382711e+00 -5.6539543705451870e+03 -2.2633304205131246e+05 +1.2088177812865807e+07 
-8.9999999999999840e+00 -5.6439107182033632e-01 +7.7266044636718911e+00 +1.8134372593473427e-01 +4.4920700993295970e+00 -5.5534982154115987e+03 -2.3051828534828420e+05 +1.1612529838350907e+07 
-9.0999999999999837e+00 -5.6439127303696301e-01 +7.7265532586170877e+00 +1.7677249930380096e-01 +5.4760168369209259e+00 -5.4497799503852830e+03 -2.3494809014288490e+05 +1.1121835641811067e+07 
-9.1999999999999833e+00 -5.6439148129608485e-01 +7.7264998027675658e+00 +1.7206394186418833e-01 +6.5122639344590993e+00 -5.3438109055222758e+03 -2.3963629056488539e+05 +1.0621476419792779e+07 
-9.2999999999999829e+00 -5.6439169679571632e-01 +7.7264441448849785e+00 +1.6724761571932489e-01 +7.6018728829077471e+00 -5.2366022350791400e+03 -2.4459672359110607e+05 +1.0116832534653619e+07 
-9.3999999999999826e+00 -5.6439191973386882e-01 +7.7263863337293772e+00 +1.6235307928481532e-01 +8.7459055583057204e+00 -5.1291650013892458e+03 -2.4984322938615686e+05 +9.6132838910303414e+06 
-9.4999999999999822e+00 -5.6439215030853696e-01 +7.7263264180688704e+00 +1.5740988686649390e-01 +9.9454239270122962e+00 -5.0225101765350519e+03 -2.5538964955428921e+05 +9.1162099713309128e+06 
-9.5999999999999819e+00 -5.6439238871770370e-01 +7.7262644466740733e+00 +1.5244758760147950e-01 +1.1201490246169143e+01 -4.9176486127559738e+03 -2.6124982841537072e+05 +8.6309896724713724e+06 
-9.6999999999999815e+00 -5.6439263515932914e-01 +7.7262004683107603e+00 +1.4749572582262785e-01 +1.2515167256190249e+01 -4.8155910565750064e+03 -2.6743761406244501e+05 +8.1630013893924467e+06 
-9.7999999999999812e+00 -5.6439288983134261e-01 +7.7261345317556644e+00 +1.4258383856837492e-01 +1.3887517756748798e+01 -4.7173480966960442e+03 -2.7396685599223012e+05 +7.7176227594256010e+06 
-9.8999999999999808e+00 -5.6439315293169567e-01 +7.7260666857832252e+00 +1.3774146252823391e-01 +1.5319604973760608e+01 -4.6239302934454672e+03 -2.8085140719735378e+05 +7.3002312694002669e+06 
-9.9999999999999805e+00 -5.6439342465827336e-01 +7.7259969791714189e+00 +1.3299812311899592e-01 +1.6812492435241001e+01 -4.5363479744774077e+03 -2.8810512320844032e+05 +6.9162033258273788e+06 
-1.0099999999999980e+01 -5.6439370502014918e-01 +7.7259255289666466e+00 +1.2837589976117353e-01 +1.8365316906812936e+01 -4.4553933423448543e+03 -2.9573007816232200e+05 +6.5697899921147060e+06 
