# multipoles
# s[mm] polynom_b[n=0][T/m^n] polynom_b[n=1][T/m^n] polynom_b[n=2][T/m^n] polynom_b[n=3][T/m^n] polynom_b[n=4][T/m^n] polynom_b[n=5][T/m^n] polynom_b[n=6][T/m^n] 
-0.0000000000000000e+00 -5.9311743926376193e-01 +8.1256952356765328e+00 +4.3553117581990175e-01 +3.4096837548492928e+01 -4.7842328630288812e+03 -4.2412182150052354e+05 +3.7159879093643995e+06 
-1.0000000000000001e-01 -5.9311799175618019e-01 +8.1257185931320794e+00 +4.2860393224659055e-01 +3.4036765052403844e+01 -4.6796332367624127e+03 -4.2486844857042917e+05 +3.3762281173107931e+06 
-2.0000000000000001e-01 -5.9311856057414769e-01 +8.1257421249635851e+00 +4.2202164497470934e-01 +3.3968173413039672e+01 -4.5813928237321770e+03 -4.2555940875568287e+05 +3.0678483296845644e+06 
-2.9999999999999999e-01 -5.9311914416567080e-01 +8.1257658352883659e+00 +4.1576700107583359e-01 +3.3890299071914505e+01 -4.4893525501202648e+03 -4.2618539242041705e+05 +2.7899585187140247e+06 
-4.0000000000000002e-01 -5.9311974097871545e-01 +8.1257897282266516e+00 +4.0982268738340139e-01 +3.3802378395891836e+01 -4.4033533361229984e+03 -4.2673708955726476e+05 +2.5416686250844016e+06 
-5.0000000000000000e-01 -5.9312034946131065e-01 +8.1258138078922979e+00 +4.0417139197776947e-01 +3.3703647964583304e+01 -4.3232361298080987e+03 -4.2720519149827748e+05 +2.3220887303338619e+06 
-5.9999999999999998e-01 -5.9312096806147863e-01 +8.1258380784055557e+00 +3.9879580572597384e-01 +3.3593344175098366e+01 -4.2488419336596116e+03 -4.2758038853565976e+05 +2.1303291783152628e+06 
-6.9999999999999996e-01 -5.9312159522718610e-01 +8.1258625438794674e+00 +3.9367861653566422e-01 +3.3470703664373509e+01 -4.1800116954900877e+03 -4.2785337244313559e+05 +1.9655000532048056e+06 
-8.0000000000000004e-01 -5.9312222940647086e-01 +8.1258872084301039e+00 +3.8880251368162794e-01 +3.3334962998659819e+01 -4.1165863910404287e+03 -4.2801483461521397e+05 +1.8267115758789119e+06 
-9.0000000000000002e-01 -5.9312286904735245e-01 +8.1259120761702519e+00 +3.8415018899219083e-01 +3.3185358876418825e+01 -4.0584070500990106e+03 -4.2805546730496630e+05 +1.7130742329244609e+06 
-1.0000000000000000e+00 -5.9312351259783103e-01 +8.1259371512134617e+00 +3.7970433481034044e-01 +3.3021127993363315e+01 -4.0053147120259105e+03 -4.2796596275407786e+05 +1.6236985537838300e+06 
-1.1000000000000001e+00 -5.9312415850593991e-01 +8.1259624376718715e+00 +3.7544764144748310e-01 +3.2841507130701665e+01 -3.9571503860238572e+03 -4.2773701378721849e+05 +1.5576949418889952e+06 
-1.2000000000000000e+00 -5.9312480521973276e-01 +8.1259879396565839e+00 +3.7136280513129771e-01 +3.2645733127993523e+01 -3.9137551915943054e+03 -4.2735931358373497e+05 +1.5141743130752000e+06 
-1.3000000000000000e+00 -5.9312545118719484e-01 +8.1260136612810570e+00 +3.6743251834870921e-01 +3.2433042798038038e+01 -3.8749701883674161e+03 -4.2682355521405709e+05 +1.4922473230112279e+06 
-1.3999999999999999e+00 -5.9312609485644918e-01 +8.1260396066577627e+00 +3.6363947939643892e-01 +3.2202673030164810e+01 -3.8406365460253128e+03 -4.2612043224328751e+05 +1.4910251437871018e+06 
-1.5000000000000000e+00 -5.9312673467543686e-01 +8.1260657798969369e+00 +3.5996638309804507e-01 +3.1953860823537553e+01 -3.8105953750913986e+03 -4.2524063890101836e+05 +1.5096186763955266e+06 
-1.6000000000000001e+00 -5.9312736909228536e-01 +8.1260921851120571e+00 +3.5639592993179114e-01 +3.1685843128660121e+01 -3.7846879004838192e+03 -4.2417486915541423e+05 +1.5471393760976077e+06 
-1.7000000000000000e+00 -5.9312799655504234e-01 +8.1261188264135900e+00 +3.5291081743664793e-01 +3.1397857037108018e+01 -3.7627552944513068e+03 -4.2291381782500882e+05 +1.6026984500379956e+06 
-1.8000000000000000e+00 -5.9312861551179819e-01 +8.1261457079124249e+00 +3.4949374998513022e-01 +3.1089139688742218e+01 -3.7446388688623147e+03 -4.2144818004469771e+05 +1.6754077842707667e+06 
-1.8999999999999999e+00 -5.9312922441057980e-01 +8.1261728337246559e+00 +3.4612742756033132e-01 +3.0758928128696180e+01 -3.7301798554664870e+03 -4.1976865041312110e+05 +1.7643788838787030e+06 
-2.0000000000000000e+00 -5.9312982169950967e-01 +8.1262002079600126e+00 +3.4279455571386958e-01 +3.0406459643844606e+01 -3.7192196016744088e+03 -4.1786592493677622e+05 +1.8687238204713708e+06 
-2.1000000000000001e+00 -5.9313040640436410e-01 +8.1262278181907970e+00 +3.3948630139399882e-01 +3.0031240462520248e+01 -3.7116199282217385e+03 -4.1573331097657658e+05 +1.9874622812305773e+06 
-2.2000000000000002e+00 -5.9313097985815288e-01 +8.1262555940249008e+00 +3.3622739560895420e-01 +2.9633717329074351e+01 -3.7073179968161189e+03 -4.1337398752266564e+05 +2.1192296034876746e+06 
-2.2999999999999998e+00 -5.9313154396989831e-01 +8.1262834526200756e+00 +3.3305088422571527e-01 +2.9214538540348531e+01 -3.7062680765220875e+03 -4.1079346159623878e+05 +2.2625609629689874e+06 
-2.3999999999999999e+00 -5.9313210064860022e-01 +8.1263113111274592e+00 +3.2998981491821816e-01 +2.8774352532891704e+01 -3.7084244738095999e+03 -4.0799724077401828e+05 +2.4159917132101245e+06 
-2.5000000000000000e+00 -5.9313265180323727e-01 +8.1263390866946459e+00 +3.2707723646907461e-01 +2.8313807779312476e+01 -3.7137415139393443e+03 -4.0499083254118334e+05 +2.5780572830659174e+06 
-2.6000000000000001e+00 -5.9313319934281017e-01 +8.1263666964612078e+00 +3.2434619449438190e-01 +2.7833552930884427e+01 -3.7221734669008174e+03 -4.0177974515581422e+05 +2.7472928428882496e+06 
-2.7000000000000002e+00 -5.9313374517631190e-01 +8.1263940575533322e+00 +3.2182973791686836e-01 +2.7334236945627477e+01 -3.7336746642672233e+03 -3.9836948829965171e+05 +2.9222338427793868e+06 
-2.7999999999999998e+00 -5.9313429121270111e-01 +8.1264210870966913e+00 +3.1956091548127696e-01 +2.6816508704319542e+01 -3.7481994343558895e+03 -3.9476557083286438e+05 +3.1014157107821554e+06 
-2.8999999999999999e+00 -5.9313483936096301e-01 +8.1264477022023645e+00 +3.1757277328485672e-01 +2.6281017419947730e+01 -3.7657020560618816e+03 -3.9097350316309929e+05 +3.2833736309565799e+06 
-3.0000000000000000e+00 -5.9313539153008243e-01 +8.1264738199710518e+00 +3.1589836146117234e-01 +2.5728412504518797e+01 -3.7861368837168075e+03 -3.8699879643500544e+05 +3.4666431350415247e+06 
-3.1000000000000001e+00 -5.9313594962896632e-01 +8.1264993574956268e+00 +3.1457072514895518e-01 +2.5159343475071051e+01 -3.8094581766319252e+03 -3.8284696193331416e+05 +3.6497592926293104e+06 
-3.2000000000000002e+00 -5.9313651556662261e-01 +8.1265242318586122e+00 +3.1362291545316096e-01 +2.4574460032029563e+01 -3.8356203055718051e+03 -3.7852351154886046e+05 +3.8312576892787958e+06 
-3.2999999999999998e+00 -5.9313709125195957e-01 +8.1265483601291297e+00 +3.1308797603739996e-01 +2.3974412125534187e+01 -3.8645775001810021e+03 -3.7403395809533325e+05 +4.0096732293474409e+06 
-3.3999999999999999e+00 -5.9313767859389355e-01 +8.1265716593607458e+00 +3.1299895602415695e-01 +2.3359850024177454e+01 -3.8962840917310464e+03 -3.6938381571904529e+05 +4.1835412853955436e+06 
-3.5000000000000000e+00 -5.9313827950135944e-01 +8.1265940466008217e+00 +3.1338890037678768e-01 +2.2731424016375719e+01 -3.9306943299129971e+03 -3.6457859809708101e+05 +4.3513968257894265e+06 
-3.6000000000000001e+00 -5.9313889588327107e-01 +8.1266154388784830e+00 +3.1429085601816770e-01 +2.2089784761141324e+01 -3.9677624984371073e+03 -3.5962382046769012e+05 +4.5117749609070010e+06 
-3.7000000000000002e+00 -5.9313952964850358e-01 +8.1266357532132893e+00 +3.1573787000310255e-01 +2.1435583033088616e+01 -4.0074428824964748e+03 -3.5452499814146664e+05 +4.6632107958477605e+06 
-3.7999999999999998e+00 -5.9314018270592972e-01 +8.1266549066029814e+00 +3.1776298283156534e-01 +2.0769470047115668e+01 -4.0496896404400877e+03 -3.4928764829235151e+05 +4.8042388153438885e+06 
-3.8999999999999999e+00 -5.9314085696441665e-01 +8.1266728160351889e+00 +3.2039924269053249e-01 +2.0092097133044788e+01 -4.0944570715724576e+03 -3.4391728810636944e+05 +4.9333941495242324e+06 
-4.0000000000000000e+00 -5.9314155433285420e-01 +8.1266893984806181e+00 +3.2367969039975880e-01 +1.9404115908880719e+01 -4.1416993323639863e+03 -3.3841943571028463e+05 +5.0492112338262601e+06 
-4.0999999999999996e+00 -5.9314227619464555e-01 +8.1267045709025663e+00 +3.2762927140265674e-01 +1.8707095039788154e+01 -4.1914400507099717e+03 -3.3280550041328429e+05 +5.1510968934558164e+06 
-4.2000000000000002e+00 -5.9314302182869183e-01 +8.1267182295621225e+00 +3.3224017740776629e-01 +1.8006881822988667e+01 -4.2439988387219264e+03 -3.2711428809010936e+05 +5.2420768298272351e+06 
-4.2999999999999998e+00 -5.9314378998680661e-01 +8.1267302603147709e+00 +3.3749632719518707e-01 +1.7310549900797032e+01 -4.2997743473511109e+03 -3.2139243321236747e+05 +5.3261177649485124e+06 
-4.4000000000000004e+00 -5.9314457942077337e-01 +8.1267405490211697e+00 +3.4338163822425211e-01 +1.6625172833086665e+01 -4.3591652041817970e+03 -3.1568657024233264e+05 +5.4071863423432279e+06 
-4.5000000000000000e+00 -5.9314538888231638e-01 +8.1267489815478839e+00 +3.4988002042771488e-01 +1.5957824074212930e+01 -4.4225699015439204e+03 -3.1004333350983745e+05 +5.4892486097046556e+06 
-4.5999999999999996e+00 -5.9314621712312321e-01 +8.1267554437712146e+00 +3.5697538075653296e-01 +1.5315576881263949e+01 -4.4903868680330334e+03 -3.0450935676560190e+05 +5.5762703211808167e+06 
-4.7000000000000002e+00 -5.9314706289490782e-01 +8.1267598215758223e+00 +3.6465162187667638e-01 +1.4705504354226955e+01 -4.5630144626741348e+03 -2.9913127342871972e+05 +5.6722169652526928e+06 
-4.7999999999999998e+00 -5.9314792494928226e-01 +8.1267620008577879e+00 +3.7289263575625170e-01 +1.4134679357903083e+01 -4.6408508386917074e+03 -2.9395571619272471e+05 +5.7810530771739781e+06 
-4.9000000000000004e+00 -5.9314880203782316e-01 +8.1267618675196083e+00 +3.8168231279415349e-01 +1.3610174665284386e+01 -4.7242941259139798e+03 -2.8902931787247193e+05 +5.9067431332879076e+06 
-5.0000000000000000e+00 -5.9314969291211850e-01 +8.1267593074804889e+00 +3.9100453540446084e-01 +1.3139062681085546e+01 -4.8137423013939260e+03 -2.8439870987609104e+05 +6.0532509189547123e+06 
-5.0999999999999996e+00 -5.9315059632365097e-01 +8.1267542066673979e+00 +4.0084317968130112e-01 +1.2728415697988810e+01 -4.9095932291597956e+03 -2.8011052371781971e+05 +6.2245397378366292e+06 
-5.2000000000000002e+00 -5.9315151102393415e-01 +8.1267464510270599e+00 +4.1118211559866047e-01 +1.2385305551122013e+01 -5.0122446556654222e+03 -2.7621138903059805e+05 +6.4245723745154934e+06 
-5.2999999999999998e+00 -5.9315243576437815e-01 +8.1267359265071857e+00 +4.2200520319912649e-01 +1.2116804192771438e+01 -5.1220941461024886e+03 -2.7274793701652333e+05 +6.6573108132446008e+06 
-5.4000000000000004e+00 -5.9315336929637685e-01 +8.1267225190877621e+00 +4.3329629825503946e-01 +1.1929982764984686e+01 -5.2395391842870094e+03 -2.6976679502325604e+05 +6.9267166952376999e+06 
-5.5000000000000000e+00 -5.9315431037123534e-01 +8.1267061147467334e+00 +4.4503924736466582e-01 +1.1831912618975839e+01 -5.3649770841190993e+03 -2.6731459255198640e+05 +7.2367509131223578e+06 
-5.5999999999999996e+00 -5.9315525774027311e-01 +8.1266865994876234e+00 +4.5721789000609431e-01 +1.1829664516264058e+01 -5.4988050288054565e+03 -2.6543795665738708e+05 +7.5913737978163315e+06 
-5.7000000000000002e+00 -5.9315621015470243e-01 +8.1266638593330711e+00 +4.6981605732914394e-01 +1.1930308820825962e+01 -5.6414200450145336e+03 -2.6418351308681566e+05 +7.9945449919243902e+06 
-5.7999999999999998e+00 -5.9315716636571969e-01 +8.1266377803162353e+00 +4.8281756915533897e-01 +1.2140915768263115e+01 -5.7932189489450830e+03 -2.6359788792295783e+05 +8.4502232020997331e+06 
-5.9000000000000004e+00 -5.9315812512448707e-01 +8.1266082484931950e+00 +4.9620624264268520e-01 +1.2468555089048230e+01 -5.9545985091865259e+03 -2.6372770537773584e+05 +8.9623669711521827e+06 
-5.9999999999999902e+00 -5.9315908518205929e-01 +8.1265751499366043e+00 +5.0996587917140668e-01 +1.2920296232818448e+01 -6.1259551972446234e+03 -2.6461958927224559e+05 +9.5349334869693797e+06 
-6.0999999999999899e+00 -5.9316004533352817e-01 +8.1265384520505073e+00 +5.2406839485593670e-01 +1.3500436931897218e+01 -6.3073699165030876e+03 -2.6630404891328624e+05 +1.0170042505433593e+07 
-6.1999999999999904e+00 -5.9316100457327392e-01 +8.1264984697231224e+00 +5.3843799088311861e-01 +1.4201439582759660e+01 -6.4976102583766851e+03 -2.6874190903308732e+05 +1.0862105259135490e+07 
-6.2999999999999901e+00 -5.9316196195131621e-01 +8.1264556105978389e+00 +5.5298685674500236e-01 +1.5012605062315574e+01 -6.6951011309119331e+03 -2.7187516963843239e+05 +1.1603504394529460e+07 
-6.3999999999999897e+00 -5.9316291651783770e-01 +8.1264102823327988e+00 +5.6762718958539304e-01 +1.5923233805214764e+01 -6.8982675631068796e+03 -2.7564582791685808e+05 +1.2386623050814245e+07 
-6.4999999999999902e+00 -5.9316386732294069e-01 +8.1263628925974078e+00 +5.8227119341017364e-01 +1.6922625951930819e+01 -7.1055346970092505e+03 -2.7999587923869735e+05 +1.3203844848837005e+07 
-6.5999999999999899e+00 -5.9316481341695293e-01 +8.1263138490746112e+00 +5.9683107968709548e-01 +1.8000081258251384e+01 -7.3153277914258888e+03 -2.8486731656008348e+05 +1.4047553884576377e+07 
-6.6999999999999904e+00 -5.9316575385020642e-01 +8.1262635594641779e+00 +6.1121906283638339e-01 +1.9144899019662500e+01 -7.5260721428970328e+03 -2.9020213001751999e+05 +1.4910134370602876e+07 
-6.7999999999999901e+00 -5.9316668767304415e-01 +8.1262124314732933e+00 +6.2534737100880600e-01 +2.0346378332535831e+01 -7.7361932832971233e+03 -2.9594230840132094e+05 +1.5783971557193395e+07 
-6.8999999999999897e+00 -5.9316761393599271e-01 +8.1261608728312069e+00 +6.3912823519981754e-01 +2.1593817679705577e+01 -7.9441167762422037e+03 -3.0202983676644892e+05 +1.6661450768842319e+07 
-6.9999999999999902e+00 -5.9316853168965444e-01 +8.1261092912760908e+00 +6.5247389749670504e-01 +2.2876515292203717e+01 -8.1482683708581344e+03 -3.0840669846535416e+05 +1.7534958129813634e+07 
-7.0999999999999899e+00 -5.9316943998462957e-01 +8.1260580945704035e+00 +6.6529660867818730e-01 +2.4183768729657206e+01 -8.3470739574523268e+03 -3.1501487276922091e+05 +1.8396880354424998e+07 
-7.1999999999999904e+00 -5.9317033787164797e-01 +8.1260076904795593e+00 +6.7750862639410603e-01 +2.5504875485497916e+01 -8.5389595293182574e+03 -3.2179633834143140e+05 +1.9239604553730309e+07 
-7.2999999999999901e+00 -5.9317122440157188e-01 +8.1259584867958203e+00 +6.8902221882669845e-01 +2.6829132277834720e+01 -8.7223512542563858e+03 -3.2869306904494227e+05 +2.0055518582635015e+07 
-7.3999999999999897e+00 -5.9317209862533216e-01 +8.1259108913209523e+00 +6.9974966435661590e-01 +2.8145835585899185e+01 -8.8956754651722767e+03 -3.3564703715360130e+05 +2.0837010983130626e+07 
-7.4999999999999902e+00 -5.9317295959392768e-01 +8.1258653118792648e+00 +7.0960325105184652e-01 +2.9444281253257984e+01 -9.0573586487392568e+03 -3.4260021097520518e+05 +2.1576470926385999e+07 
-7.5999999999999899e+00 -5.9317380635851591e-01 +8.1258221563113917e+00 +7.1849527742606167e-01 +3.0713764660334494e+01 -9.2058274651056836e+03 -3.4949455582441558e+05 +2.2266288321122311e+07 
-7.6999999999999904e+00 -5.9317463797030034e-01 +8.1257818324698921e+00 +7.2633805255230133e-01 +3.1943580864553834e+01 -9.3395087408442632e+03 -3.5627203484949557e+05 +2.2898853750968553e+07 
-7.7999999999999901e+00 -5.9317545348067346e-01 +8.1257447482376364e+00 +7.3304389577414286e-01 +3.3123024071354159e+01 -9.4568294691733445e+03 -3.6287460597112909e+05 +2.3466558493756648e+07 
-7.8999999999999897e+00 -5.9317625194104440e-01 +8.1257113115012931e+00 +7.3852514038206230e-01 +3.4241388392356434e+01 -9.5562168724576113e+03 -3.6924422623232310e+05 +2.3961794795138888e+07 
-7.9999999999999902e+00 -5.9317703240296915e-01 +8.1256819301767802e+00 +7.4269412892014774e-01 +3.5287967089004567e+01 -9.6360983237993514e+03 -3.7532284727833676e+05 +2.4376955532369267e+07 
-8.0999999999999908e+00 -5.9317779428801154e-01 +8.1256569076821172e+00 +7.4548781500457217e-01 +3.6254376663213307e+01 -9.6952833401001189e+03 -3.8106351655340282e+05 +2.4706136973777682e+07 
-8.1999999999999904e+00 -5.9317853848219571e-01 +8.1256361241596995e+00 +7.4694515369620962e-01 +3.7141699861843172e+01 -9.7341939829010480e+03 -3.8646512350817933e+05 +2.4950647557156503e+07 
-8.2999999999999901e+00 -5.9317926623403050e-01 +8.1256193522135280e+00 +7.4713153891500539e-01 +3.7953438785938609e+01 -9.7536776373244011e+03 -3.9153842143925937e+05 +2.5113706139561608e+07 
-8.3999999999999897e+00 -5.9317997879196172e-01 +8.1256063644259573e+00 +7.4611236268450198e-01 +3.8693096049626007e+01 -9.7545816752434985e+03 -3.9629416629429866e+05 +2.5198531561701227e+07 
-8.4999999999999893e+00 -5.9318067740447145e-01 +8.1255969333664044e+00 +7.4395301727757923e-01 +3.9364174530894807e+01 -9.7377534990267213e+03 -4.0074311522883910e+05 +2.5208342860132098e+07 
-8.5999999999999908e+00 -5.9318136331996629e-01 +8.1255908315929872e+00 +7.4071889609357700e-01 +3.9970177316642392e+01 -9.7040405576841986e+03 -4.0489602626376844e+05 +2.5146359341008544e+07 
-8.6999999999999904e+00 -5.9318203778687484e-01 +8.1255878316406331e+00 +7.3647538995627848e-01 +4.0514608035065891e+01 -9.6542902728110039e+03 -4.0876366017343808e+05 +2.5015800219810449e+07 
-8.7999999999999794e+00 -5.9318270205357859e-01 +8.1255877060358142e+00 +7.3128789139475281e-01 +4.1000970439093273e+01 -9.5893501292443289e+03 -4.1235677810837276e+05 +2.4819885074974801e+07 
-8.8999999999999808e+00 -5.9318335736838668e-01 +8.1255902272853344e+00 +7.2522179076575954e-01 +4.1432768729718312e+01 -9.5100675989218907e+03 -4.1568614345649345e+05 +2.4561833479434691e+07 
-8.9999999999999805e+00 -5.9318400497964774e-01 +8.1255951678794851e+00 +7.1834247862297285e-01 +4.1813507429326656e+01 -9.4172901803125969e+03 -4.1876252101762779e+05 +2.4244865171939481e+07 
-9.0999999999999801e+00 -5.9318464613563415e-01 +8.1256023002873139e+00 +7.1071534372575995e-01 +4.2146691554681119e+01 -9.3118653717750276e+03 -4.2159667810000951e+05 +2.3872199959844366e+07 
-9.1999999999999797e+00 -5.9318528208457000e-01 +8.1256113969641888e+00 +7.0240577580536734e-01 +4.2435826369252496e+01 -9.1946407195461488e+03 -4.2419938300917298e+05 +2.3447057935388703e+07 
-9.2999999999999794e+00 -5.9318591407468690e-01 +8.1256222303441028e+00 +6.9347916162675494e-01 +4.2684417614814201e+01 -9.0664637436133125e+03 -4.2658140641329705e+05 +2.2972659123910721e+07 
-9.3999999999999808e+00 -5.9318654335417009e-01 +8.1256345728417756e+00 +6.8400088953493132e-01 +4.2895971435719382e+01 -8.9281820252973084e+03 -4.2875352085767075e+05 +2.2452223902439389e+07 
-9.4999999999999805e+00 -5.9318717117116027e-01 +8.1256481968490295e+00 +6.7403634685458724e-01 +4.3073994485139259e+01 -8.7806431641981453e+03 -4.3072650139835489e+05 +2.1888972811162874e+07 
-9.5999999999999801e+00 -5.9318779877368255e-01 +8.1256628747425346e+00 +6.6365091672096210e-01 +4.3221993704701987e+01 -8.6246947076697325e+03 -4.3251112431137240e+05 +2.1286126191622142e+07 
-9.6999999999999797e+00 -5.9318842740989997e-01 +8.1256783788706475e+00 +6.5290998561664737e-01 +4.3343476689169215e+01 -8.4611843055026839e+03 -4.3411816918842256e+05 +2.0646904951411467e+07 
-9.7999999999999794e+00 -5.9318905832776647e-01 +8.1256944815640395e+00 +6.4187893684209585e-01 +4.3441951379353306e+01 -8.2909595826798959e+03 -4.3555841713139153e+05 +1.9974529947951913e+07 
-9.8999999999999808e+00 -5.9318969277528888e-01 +8.1257109551317903e+00 +6.3062315265251623e-01 +4.3520926178820133e+01 -8.1148681781202249e+03 -4.3684265146170754e+05 +1.9272222171523102e+07 
-9.9999999999999805e+00 -5.9319033200039695e-01 +8.1257275718560074e+00 +6.1920801453828278e-01 +4.3583910108625197e+01 -7.9337577568152756e+03 -4.3798165884697938e+05 +1.8543202793438092e+07 
-1.0100000000000000e+01 -5.9319097712856728e-01 +8.1257441433167887e+00 +6.0770111525016790e-01 +4.3633668752048607e+01 -7.7485934269654799e+03 -4.3898399878021318e+05 +1.7791299379024908e+07 
