# multipoles
# s[mm] polynom_b[n=0][T/m^n] polynom_b[n=1][T/m^n] polynom_b[n=2][T/m^n] polynom_b[n=3][T/m^n] polynom_b[n=4][T/m^n] polynom_b[n=5][T/m^n] polynom_b[n=6][T/m^n] 
+0.0000000000000000e+00 -5.6645753870007354e-01 +7.7335479503069493e+00 -6.3313651838258511e-01 -6.5631456408974628e+01 +1.3243921501419341e+03 +7.4882623799673762e+04 -1.7140103164478529e+07 
+1.0000000000000001e-01 -5.6645758672213808e-01 +7.7335589976703147e+00 -6.2755051708320397e-01 -6.5837731106636781e+01 +1.2057134607983389e+03 +7.5810606333883101e+04 -1.6566032330687024e+07 
+2.0000000000000001e-01 -5.6645764843447299e-01 +7.7335681650742121e+00 -6.2080584093960556e-01 -6.6013452276697592e+01 +1.0687583330834282e+03 +7.6708177154685240e+04 -1.5917133494096829e+07 
+3.0000000000000004e-01 -5.6645772265361116e-01 +7.7335755911062307e+00 -6.1303190922089024e-01 -6.6160236448062093e+01 +9.1560832356224353e+02 +7.7570890985242208e+04 -1.5201938102202160e+07 
+4.0000000000000002e-01 -5.6645780819609159e-01 +7.7335814143442674e+00 -6.0435813949899175e-01 -6.6279699878506733e+01 +7.4834494872637129e+02 +7.8394301018647500e+04 -1.4428977396337537e+07 
+5.0000000000000000e-01 -5.6645790387842188e-01 +7.7335857733646582e+00 -5.9491395313982998e-01 -6.6373458768952432e+01 +5.6904979234863970e+02 +7.9173960097098607e+04 -1.3606782926871529e+07 
+5.9999999999999998e-01 -5.6645800851713668e-01 +7.7335888067453062e+00 -5.8482876747118728e-01 -6.6443129386868236e+01 +3.7980435472258768e+02 +7.9905421506945349e+04 -1.2743885831545971e+07 
+6.9999999999999996e-01 -5.6645812092875558e-01 +7.7335906530579646e+00 -5.7423200182797596e-01 -6.6490327803494026e+01 +1.8269017342232650e+02 +8.0584237339340441e+04 -1.1848817423002455e+07 
+7.9999999999999993e-01 -5.6645823992979294e-01 +7.7335914508745836e+00 -5.6325307603156172e-01 -6.6516670111847105e+01 -2.0211205834143154e+01 +8.1205959839856019e+04 -1.0930109050773052e+07 
+8.9999999999999991e-01 -5.6645836433676944e-01 +7.7335913387720536e+00 -5.5202140893494434e-01 -6.6523772552649845e+01 -2.2681825946580469e+02 +8.1766142103906852e+04 -9.9962919463595469e+06 
+9.9999999999999989e-01 -5.6645849296619888e-01 +7.7335904553248751e+00 -5.4066642085567695e-01 -6.6513251292923329e+01 -4.3504943105845950e+02 +8.2260336747816531e+04 -9.0558975087383855e+06 
+1.0999999999999999e+00 -5.6645862463458752e-01 +7.7335889391144148e+00 -5.2931753264722858e-01 -6.6486722710192097e+01 -6.4282315555983189e+02 +8.2684097609884819e+04 -8.1174571713784775e+06 
+1.2000000000000000e+00 -5.6645875815846269e-01 +7.7335869287242849e+00 -5.1810416348529675e-01 -6.6445803251172592e+01 -8.4805789322395424e+02 +8.3032978887438410e+04 -7.1895022596691614e+06 
+1.3000000000000000e+00 -5.6645889235431723e-01 +7.7335845627428448e+00 -5.0715573680031423e-01 -6.6392109511946131e+01 -1.0486720204595526e+03 +8.3302535623419288e+04 -6.2805645011355272e+06 
+1.4000000000000001e+00 -5.6645902603866161e-01 +7.7335819797666030e+00 -4.9660167446325126e-01 -6.6327258327072173e+01 -1.2425839394353045e+03 +8.3488324188967235e+04 -5.3991755031614937e+06 
+1.5000000000000002e+00 -5.6645915802801017e-01 +7.7335793184024570e+00 -4.8657139869076416e-01 -6.6252866837925609e+01 -1.4277120344513951e+03 +8.3585902672220109e+04 -4.5538669824789772e+06 
+1.6000000000000003e+00 -5.6645928713886295e-01 +7.7335767172599805e+00 -4.7719433389794813e-01 -6.6170552289416122e+01 -1.6019746425892056e+03 +8.3590829761088287e+04 -3.7531708857331909e+06 
+1.7000000000000004e+00 -5.6645941218774432e-01 +7.7335743149645468e+00 -4.6859990290032516e-01 -6.6081932373588003e+01 -1.7632901182494136e+03 +8.3498666613587076e+04 -3.0056191021377305e+06 
+1.8000000000000005e+00 -5.6645953199114041e-01 +7.7335722501486659e+00 -4.6091753361799298e-01 -6.5988625008716170e+01 -1.9095767105462469e+03 +8.3304975662784447e+04 -2.3197440348574859e+06 
+1.9000000000000006e+00 -5.6645964536555071e-01 +7.7335706614602540e+00 -4.5427665354128283e-01 -6.5892248572648910e+01 -2.0387526652004703e+03 +8.3005321932899460e+04 -1.7040781194218218e+06 
+2.0000000000000004e+00 -5.6645975112750180e-01 +7.7335696875591244e+00 -4.4880668817713598e-01 -6.5794421801333286e+01 -2.1487362487654796e+03 +8.2595272456271457e+04 -1.1671537273197051e+06 
+2.1000000000000005e+00 -5.6645984840363428e-01 +7.7335694329363971e+00 -4.4460079691604693e-01 -6.5696507787314602e+01 -2.2380337159038336e+03 +8.2072511606267362e+04 -7.1509482946882700e+05 
+2.2000000000000006e+00 -5.6645993756597257e-01 +7.7335698609164991e+00 -4.4160590497302665e-01 -6.5598813015945765e+01 -2.3075209437403632e+03 +8.1443363500047868e+04 -3.4435092735082068e+05 
+2.3000000000000007e+00 -5.6646001929908418e-01 +7.7335708984096598e+00 -4.3973208665659497e-01 -6.5501371949939639e+01 -2.3586705838738458e+03 +8.0716362724175007e+04 -4.8943205932574434e+04 
+2.4000000000000008e+00 -5.6646009428754551e-01 +7.7335724723283663e+00 -4.3888941467459397e-01 -6.5404219101151597e+01 -2.3929553206244600e+03 +7.9900044135394550e+04 +1.7710730859770012e+05 
+2.5000000000000009e+00 -5.6646016321592663e-01 +7.7335745095824215e+00 -4.3898796242238269e-01 -6.5307388906465775e+01 -2.4118478252087402e+03 +7.9002942202175560e+04 +3.3977952463536803e+05 
+2.6000000000000010e+00 -5.6646022676879426e-01 +7.7335769370778715e+00 -4.3993780326329046e-01 -6.5210915681691134e+01 -2.4168207717838964e+03 +7.8033590703177790e+04 +4.4505236669491138e+05 
+2.7000000000000011e+00 -5.6646028563071560e-01 +7.7335796817167894e+00 -4.4164901014106656e-01 -6.5114833637511012e+01 -2.4093468457462263e+03 +7.7000522891323999e+04 +4.9890481734972209e+05 
+2.8000000000000012e+00 -5.6646034048626071e-01 +7.7335826704002333e+00 -4.4403165482697537e-01 -6.5019176930740329e+01 -2.3908987576536442e+03 +7.5912271709017528e+04 +5.0731597904780076e+05 
+2.9000000000000012e+00 -5.6646039201998777e-01 +7.7335858300229283e+00 -4.4699581037357694e-01 -6.4923979541780739e+01 -2.3629491968885163e+03 +7.4777369170455771e+04 +4.7626485663094267e+05 
+3.0000000000000013e+00 -5.6646044091647174e-01 +7.7335890874709357e+00 -4.5045154662912795e-01 -6.4829275179706059e+01 -2.3269709201071278e+03 +7.3604345741078563e+04 +4.1173078333264124e+05 
+3.1000000000000014e+00 -5.6646048786026248e-01 +7.7335923696282602e+00 -4.5430893608362577e-01 -6.4735097494087725e+01 -2.2844366382042958e+03 +7.2401731636956349e+04 +3.1969287906078866e+05 
+3.2000000000000015e+00 -5.6646053353593340e-01 +7.7335956033669255e+00 -4.5847804746920884e-01 -6.4641479770176517e+01 -2.2368191388183209e+03 +7.1178055021921537e+04 +2.0613063329517664e+05 
+3.3000000000000016e+00 -5.6646057862803068e-01 +7.7335987155577888e+00 -4.6286895181223325e-01 -6.4548455254451923e+01 -2.1855911735258555e+03 +6.9941843926724978e+04 +7.7023373138200273e+04 
+3.4000000000000017e+00 -5.6646062382112883e-01 +7.7336016330544695e+00 -4.6739171590847411e-01 -6.4456056676475882e+01 -2.1322255806178941e+03 +6.8701623464118224e+04 -6.1649155117023256e+04 
+3.5000000000000018e+00 -5.6646066979977339e-01 +7.7336042827084732e+00 -4.7195640858470145e-01 -6.4364316686670279e+01 -2.0781951705259225e+03 +6.7465918363997116e+04 -2.0390732162722436e+05 
+3.6000000000000019e+00 -5.6646071724852787e-01 +7.7336065913555645e+00 -4.7647309589975056e-01 -6.4273267480397081e+01 -2.0249728118386658e+03 +6.6243250868774150e+04 -3.4377121740316018e+05 
+3.7000000000000020e+00 -5.6646076685194724e-01 +7.7336084858213656e+00 -4.8085184354503013e-01 -6.4182940925271453e+01 -1.9740313891017181e+03 +6.5042141368881494e+04 -4.7526084810448985e+05 
+3.8000000000000020e+00 -5.6646081929458281e-01 +7.7336098929242825e+00 -4.8500271616264196e-01 -6.4093368676681308e+01 -1.9268438209404464e+03 +6.3871109174333935e+04 -5.9239603296827630e+05 
+3.9000000000000021e+00 -5.6646087526099220e-01 +7.7336107394633551e+00 -4.8883577651563942e-01 -6.4004581799988344e+01 -1.8848830670541822e+03 +6.2738670270512732e+04 -6.8919639937939530e+05 
+4.0000000000000018e+00 -5.6646093543571363e-01 +7.7336109522301433e+00 -4.9226108833359578e-01 -6.3916611137254968e+01 -1.8496220838535303e+03 +6.1653339496242370e+04 -7.5968156357468397e+05 
+4.1000000000000014e+00 -5.6646100037685321e-01 +7.7336104829948491e+00 -4.9520732853994170e-01 -6.3829747398724727e+01 -1.8222269200187336e+03 +6.0623601342762580e+04 -7.9913456725641573e+05 
+4.2000000000000011e+00 -5.6646107013429559e-01 +7.7336093891870812e+00 -4.9767868305775598e-01 -6.3745367940850286e+01 -1.8026215134760389e+03 +5.9657681315984933e+04 -8.0792671897063800e+05 
+4.3000000000000007e+00 -5.6646114463020114e-01 +7.7336077560774141e+00 -4.9969849440566388e-01 -6.3665132048182926e+01 -1.7904154655886209e+03 +5.8763691268293209e+04 -7.8771034498804249e+05 
+4.4000000000000004e+00 -5.6646122378677832e-01 +7.7336056689340573e+00 -5.0129009951226888e-01 -6.3590698936087719e+01 -1.7852184827892065e+03 +5.7949742660238153e+04 -7.4013727736913494e+05 
+4.5000000000000000e+00 -5.6646130752620305e-01 +7.7336032130291557e+00 -5.0247683877743266e-01 -6.3523727918942754e+01 -1.7866402074583557e+03 +5.7223947497685498e+04 -6.6685965248004568e+05 
+4.5999999999999996e+00 -5.6646139577070131e-01 +7.7336004736337802e+00 -5.0328204720281089e-01 -6.3465878290184151e+01 -1.7942903785759031e+03 +5.6594417717135577e+04 -5.6952916652362247e+05 
+4.6999999999999993e+00 -5.6646148844246758e-01 +7.7335975360207803e+00 -5.0372906319275290e-01 -6.3418809383381642e+01 -1.8077786743762056e+03 +5.6069265459471724e+04 -4.4979779783586052e+05 
+4.7999999999999989e+00 -5.6646158546374548e-01 +7.7335944854626382e+00 -5.0384121954041883e-01 -6.3384180526642893e+01 -1.8267148755909147e+03 +5.5656602869504968e+04 -3.0931705150623195e+05 
+4.8999999999999986e+00 -5.6646168675677888e-01 +7.7335914072354610e+00 -5.0364184922041022e-01 -6.3363651147368230e+01 -1.8507087555670241e+03 +5.5364542660246232e+04 -1.4973848407321784e+05 
+4.9999999999999982e+00 -5.6646179224382220e-01 +7.7335883866157165e+00 -5.0315428400223061e-01 -6.3358880683261894e+01 -1.8793701121574386e+03 +5.5201197612010546e+04 +2.7286467028277362e+04 
+5.0999999999999979e+00 -5.6646190184714884e-01 +7.7335855088831051e+00 -5.0240185362409551e-01 -6.3371528659843975e+01 -1.9123087776253335e+03 +5.5174681002597979e+04 +2.2010651320656631e+05 
+5.1999999999999975e+00 -5.6646201548903663e-01 +7.7335828593127305e+00 -5.0140788719584950e-01 -6.3403254470445724e+01 -1.9491345959261794e+03 +5.5293105359963854e+04 +4.2707041572312481e+05 
+5.2999999999999972e+00 -5.6646213309179572e-01 +7.7335805231903425e+00 -5.0019571057666179e-01 -6.3455717813225313e+01 -1.9894574682733326e+03 +5.5564584965723829e+04 +6.4652719368682697e+05 
+5.3999999999999968e+00 -5.6646225457774735e-01 +7.7335785857998260e+00 -4.9878864808084844e-01 -6.3530578335217754e+01 -2.0328873242768834e+03 +5.5997233818759290e+04 +8.7682599409221276e+05 
+5.4999999999999964e+00 -5.6646237986921921e-01 +7.7335771324254381e+00 -4.9721002398523184e-01 -6.3629495688753579e+01 -2.0790340898280474e+03 +5.6599165938438295e+04 +1.1163159317892171e+06 
+5.5999999999999961e+00 -5.6646250888856797e-01 +7.7335762483571484e+00 -4.9548315879743399e-01 -6.3754129691246519e+01 -2.1275077624351693e+03 +5.7378496292028009e+04 +1.3633464576734689e+06 
+5.6999999999999957e+00 -5.6646264155815984e-01 +7.7335760188860334e+00 -4.9363137287256148e-01 -6.3906140191065468e+01 -2.1779183345824677e+03 +5.8343340026194448e+04 +1.6162669742457466e+06 
+5.7999999999999954e+00 -5.6646277780037702e-01 +7.7335765293078902e+00 -4.9167798413431402e-01 -6.4087187169697529e+01 -2.2298758484684918e+03 +5.9501813044678187e+04 +1.8734271264395989e+06 
+5.8999999999999950e+00 -5.6646291753763989e-01 +7.7335778649172813e+00 -4.8964630698292583e-01 -6.4298930570968906e+01 -2.2829904039874878e+03 +6.0862031018939269e+04 +2.1331768056098828e+06 
+5.9999999999999947e+00 -5.6646306069237251e-01 +7.7335801110173730e+00 -4.8755965534363438e-01 -6.4543030597497079e+01 -2.3368721088977909e+03 +6.2432111142369780e+04 +2.3938659324008967e+06 
+6.0999999999999943e+00 -5.6646320722301347e-01 +7.7335833521891324e+00 -4.8544020849625957e-01 -6.4820795521764310e+01 -2.3911410459911567e+03 +6.4217142051182585e+04 +2.6538765633260212e+06 
+6.1999999999999940e+00 -5.6646335722484276e-01 +7.7335876711962452e+00 -4.8330660425714034e-01 -6.5132144694671780e+01 -2.4454507759408107e+03 +6.6210135532124434e+04 +2.9117402736998247e+06 
+6.2999999999999936e+00 -5.6646351082559832e-01 +7.7335931505790620e+00 -4.8117684289371937e-01 -6.5476651424219298e+01 -2.4994616528042875e+03 +6.8401063702151543e+04 +3.1660315675280839e+06 
+6.3999999999999932e+00 -5.6646366815301796e-01 +7.7335998728789068e+00 -4.7906892625147091e-01 -6.5853889056278945e+01 -2.5528339914325675e+03 +7.0779898863581970e+04 +3.4153247605076632e+06 
+6.4999999999999929e+00 -5.6646382933482053e-01 +7.7336079206435411e+00 -4.7700086081366400e-01 -6.6263431156556138e+01 -2.6052280044254630e+03 +7.3336614623289468e+04 +3.6581936661475310e+06 
+6.5999999999999925e+00 -5.6646399449878060e-01 +7.7336173764220790e+00 -4.7499064917708927e-01 -6.6704851357956599e+01 -2.6563039580183313e+03 +7.6061185000239246e+04 +3.8932123226736304e+06 
+6.6999999999999922e+00 -5.6646416377264897e-01 +7.7336283227689568e+00 -4.7305629823867390e-01 -6.7177723476811607e+01 -2.7057220308741839e+03 +7.8943585093277434e+04 +4.1189543615533286e+06 
+6.7999999999999918e+00 -5.6646433728420131e-01 +7.7336408422377678e+00 -4.7121581513338773e-01 -6.7681621327513511e+01 -2.7531423735676076e+03 +8.1973789982596500e+04 +4.3339932419224624e+06 
+6.8999999999999915e+00 -5.6646451516120222e-01 +7.7336550173946614e+00 -4.6948721075818745e-01 -6.8216119123959047e+01 -2.7982250518658343e+03 +8.5141777093618352e+04 +4.5369020107963653e+06 
+6.9999999999999911e+00 -5.6646469753146300e-01 +7.7336709308010310e+00 -4.6788849266334837e-01 -6.8780790974081484e+01 -2.8406301792795125e+03 +8.8437523257379973e+04 +4.7262539271175079e+06 
+7.0999999999999908e+00 -5.6646488452276733e-01 +7.7336886650292431e+00 -4.6643767451221185e-01 -6.9375211333960522e+01 -2.8800177374026121e+03 +9.1851007322024336e+04 +4.9006216093979804e+06 
+7.1999999999999904e+00 -5.6646507626293208e-01 +7.7337083026470550e+00 -4.6515276915607084e-01 -6.9998954562440161e+01 -2.9160477010584573e+03 +9.5372207600636684e+04 +5.0585776127314363e+06 
+7.2999999999999901e+00 -5.6646527287978221e-01 +7.7337299262371024e+00 -4.6405179102844230e-01 -7.0651595480794356e+01 -2.9483799999273042e+03 +9.8991105088947195e+04 +5.1986942682769261e+06 
+7.3999999999999897e+00 -5.6646547450113793e-01 +7.7337536183804900e+00 -4.6315275825395763e-01 -7.1332708902898872e+01 -2.9766744746801328e+03 +1.0269768075155700e+05 +5.3195434648053721e+06 
+7.4999999999999893e+00 -5.6646568125483487e-01 +7.7337794616627411e+00 -4.6247369001030869e-01 -7.2041869812634843e+01 -3.0005909266323811e+03 +1.0648191657639311e+05 +5.4196968839978231e+06 
+7.5999999999999890e+00 -5.6646589326873953e-01 +7.7338075386784313e+00 -4.6203260492077375e-01 -7.2778653484366018e+01 -3.0197891479142945e+03 +1.1033379620845003e+05 +5.4977261447623186e+06 
+7.6999999999999886e+00 -5.6646611067069819e-01 +7.7338379320222277e+00 -4.6184752758647535e-01 -7.3542635245952027e+01 -3.0339287956727894e+03 +1.1424330365818650e+05 +5.5522022013749601e+06 
+7.7999999999999883e+00 -5.6646633358858622e-01 +7.7338707242964881e+00 -4.6193648184959363e-01 -7.4333390676818141e+01 -3.0426695231913864e+03 +1.1820042436964555e+05 +5.5816959747315906e+06 
+7.8999999999999879e+00 -5.6646656215029989e-01 +7.7339059981088480e+00 -4.6231749316874604e-01 -7.5150495560137969e+01 -3.0456709269706053e+03 +1.2219514501128175e+05 +5.5847780837796228e+06 
+7.9999999999999876e+00 -5.6646679648370868e-01 +7.7339438360738892e+00 -4.6300859288858520e-01 -7.5993525932411259e+01 -3.0425924784536937e+03 +1.2621745379381145e+05 +5.5600185582690956e+06 
+8.0999999999999872e+00 -5.6646703673945709e-01 +7.7339842594706676e+00 -4.6401991394543601e-01 -7.6861320602443541e+01 -3.0332345813965539e+03 +1.3025610308722721e+05 +5.5066169539192524e+06 
+8.1999999999999869e+00 -5.6646728316544570e-01 +7.7340270361861281e+00 -4.6532571342065687e-01 -7.7749660403327354e+01 -3.0180204524363880e+03 +1.3429452539117989e+05 +5.4264515215607546e+06 
+8.2999999999999865e+00 -5.6646753603558897e-01 +7.7340718686030918e+00 -4.6689016010782197e-01 -7.8653539557775417e+01 -2.9975445318909387e+03 +1.3831479506440452e+05 +5.3221132369882688e+06 
+8.3999999999999861e+00 -5.6646779562373195e-01 +7.7341184591018868e+00 -4.6867742827318309e-01 -7.9567952252799955e+01 -2.9724011861480531e+03 +1.4229898636072586e+05 +5.1961927898366889e+06 
+8.4999999999999858e+00 -5.6646806220369328e-01 +7.7341665100510539e+00 -4.7065169167706572e-01 -8.0487892331638662e+01 -2.9431848223553329e+03 +1.4622917149731409e+05 +5.0512811316576172e+06 
+8.5999999999999854e+00 -5.6646833604923696e-01 +7.7342157238100331e+00 -4.7277712764135121e-01 -8.1408353382048091e+01 -2.9104898134900336e+03 +1.5008742121015533e+05 +4.8899691309618158e+06 
+8.6999999999999851e+00 -5.6646861743404353e-01 +7.7342658027316586e+00 -4.7501792025982997e-01 -8.2324328806420908e+01 -2.8749104392111153e+03 +1.5385580513670470e+05 +4.7148472940504532e+06 
+8.7999999999999847e+00 -5.6646890663178695e-01 +7.7343164491597403e+00 -4.7733825071656577e-01 -8.3230811745288179e+01 -2.8370410683932678e+03 +1.5751639136431683e+05 +4.5285066282417253e+06 
+8.8999999999999844e+00 -5.6646920391601763e-01 +7.7343673654243235e+00 -4.7970231119590945e-01 -8.4122794948565399e+01 -2.7974759007068119e+03 +1.6105124570283684e+05 +4.3335374282792425e+06 
+8.9999999999999840e+00 -5.6646950956029685e-01 +7.7344182538538160e+00 -4.8207428890166493e-01 -8.4995271124668434e+01 -2.7568092670500419e+03 +1.6444243370282371e+05 +4.1325306967754089e+06 
+9.0999999999999837e+00 -5.6646982383805788e-01 +7.7344688167574960e+00 -4.8441838306119089e-01 -8.5843232425836618e+01 -2.7156353056118251e+03 +1.6767201764786063e+05 +3.9280765993540804e+06 
+9.1999999999999833e+00 -5.6647014702271759e-01 +7.7345187564411582e+00 -4.8669879001462546e-01 -8.6661670912413413e+01 -2.6745482551982209e+03 +1.7072205928445238e+05 +3.7227658879814195e+06 
+9.2999999999999829e+00 -5.6647047938761430e-01 +7.7345677751982347e+00 -4.8887971224524746e-01 -8.7445578289653668e+01 -2.6341422736478539e+03 +1.7357461826013651e+05 +3.5191890082195033e+06 
+9.3999999999999826e+00 -5.6647082120601833e-01 +7.7346155753087285e+00 -4.9092535545290639e-01 -8.8189945872320578e+01 -2.5950115044560548e+03 +1.7621175192662515e+05 +3.3199364452265524e+06 
+9.4999999999999822e+00 -5.6647117275111480e-01 +7.7346618590450440e+00 -4.9279993180476850e-01 -8.8889764763949429e+01 -2.5577500087078079e+03 +1.7861551639230727e+05 +3.1275983836703245e+06 
+9.5999999999999819e+00 -5.6647153429604413e-01 +7.7347063286670181e+00 -4.9446765409819565e-01 -8.9540025704579250e+01 -2.5229518806439546e+03 +1.8076796562405248e+05 +2.9447652683200124e+06 
+9.6999999999999815e+00 -5.6647190611386578e-01 +7.7347486864225576e+00 -4.9589274030376596e-01 -9.0135719092696348e+01 -2.4912111625672296e+03 +1.8265115157721346e+05 +2.7740274022380626e+06 
+9.7999999999999812e+00 -5.6647228847755604e-01 +7.7347886345476278e+00 -4.9703941382936490e-01 -9.0671834984990340e+01 -2.4631218390884974e+03 +1.8424712419944187e+05 +2.6179749174648230e+06 
+9.8999999999999808e+00 -5.6647268166003617e-01 +7.7348258752686840e+00 -4.9787189962213446e-01 -9.1143363161744176e+01 -2.4392779142913846e+03 +1.8553793178941769e+05 +2.4791981483963677e+06 
+9.9999999999999805e+00 -5.6647308593413814e-01 +7.7348601107960304e+00 -4.9835442868853952e-01 -9.1545292930489083e+01 -2.4202733250659712e+03 +1.8650561977075695e+05 +2.3602872112467932e+06 
+1.0099999999999980e+01 -5.6647350133574237e-01 +7.7348910785210112e+00 -4.9846549167900783e-01 -9.1873300908162449e+01 -2.4065020087019843e+03 +1.8713464731438877e+05 +2.2630363264911580e+06 
