# field on trajectory
# s[mm] rx[mm] ry[mm] rz[mm] bx[T] by[T] bz[T]
-0.0000000000000000e+00 +8.1530000000000094e+00 +0.0000000000000000e+00 -0.0000000000000000e+00 -2.9736653337228542e-02 -5.6447492970474833e-01 +5.6267917344976224e-03
-1.0000000000000001e-01 +8.1529997159377707e+00 +0.0000000000000000e+00 -1.0008006405070299e-01 -2.9736539133611045e-02 -5.6447476982533662e-01 +5.6268286208125086e-03
-2.0000000000000001e-01 +8.1529988637557800e+00 +0.0000000000000000e+00 -2.0016012809818201e-01 -2.9736427288425023e-02 -5.6447460514121328e-01 +5.6268678487338833e-03
-2.9999999999999999e-01 +8.1529974434524792e+00 +0.0000000000000000e+00 -3.0024019213920999e-01 -2.9736318143253823e-02 -5.6447443654512874e-01 +5.6269093241984322e-03
-4.0000000000000002e-01 +8.1529954550242092e+00 +0.0000000000000000e+00 -4.0032025617056399e-01 -2.9736212039685343e-02 -5.6447426492984321e-01 +5.6269529531433552e-03
-5.0000000000000000e-01 +8.1529928984782600e+00 +0.0000000000000000e+00 -5.0040032018901703e-01 -2.9736109319306384e-02 -5.6447409118802705e-01 +5.6269986415055217e-03
-5.9999999999999998e-01 +8.1529897738146193e+00 +0.0000000000000000e+00 -6.0048038419134497e-01 -2.9736010323709528e-02 -5.6447391621240262e-01 +5.6270462952231612e-03
-6.9999999999999996e-01 +8.1529860810223909e+00 +0.0000000000000000e+00 -7.0056044817432195e-01 -2.9735915394494165e-02 -5.6447374089577196e-01 +5.6270958202363375e-03
-8.0000000000000004e-01 +8.1529818201124709e+00 +0.0000000000000000e+00 -8.0064051213472498e-01 -2.9735824873253065e-02 -5.6447356613076438e-01 +5.6271471224845901e-03
-9.0000000000000002e-01 +8.1529769910812302e+00 +0.0000000000000000e+00 -9.0072057606932698e-01 -2.9735739101586452e-02 -5.6447339281011655e-01 +5.6272001079100201e-03
-1.0000000000000000e+00 +8.1529715939250291e+00 +0.0000000000000000e+00 -1.0008006399749001e+00 -2.9735658421095768e-02 -5.6447322182656234e-01 +5.6272546824563561e-03
-1.1000000000000001e+00 +8.1529656286511507e+00 +0.0000000000000000e+00 -1.1008807038482300e+00 -2.9735583173379009e-02 -5.6447305407274773e-01 +5.6273107520683026e-03
-1.2000000000000000e+00 +8.1529590952522994e+00 +0.0000000000000000e+00 -1.2009607676860801e+00 -2.9735513700040354e-02 -5.6447289044142768e-01 +5.6273682226937790e-03
-1.3000000000000000e+00 +8.1529519937357708e+00 +0.0000000000000000e+00 -1.3010408314852300e+00 -2.9735450342678237e-02 -5.6447273182524260e-01 +5.6274270002818171e-03
-1.3999999999999999e+00 +8.1529443240979198e+00 +0.0000000000000000e+00 -1.4011208952424601e+00 -2.9735393442895046e-02 -5.6447257911691318e-01 +5.6274869907847972e-03
-1.5000000000000000e+00 +8.1529360863350995e+00 +0.0000000000000000e+00 -1.5012009589545301e+00 -2.9735343342292435e-02 -5.6447243320915963e-01 +5.6275481001578174e-03
-1.6000000000000001e+00 +8.1529272804509691e+00 +0.0000000000000000e+00 -1.6012810226182299e+00 -2.9735300382467928e-02 -5.6447229499464269e-01 +5.6276102343582983e-03
-1.7000000000000000e+00 +8.1529179064491508e+00 +0.0000000000000000e+00 -1.7013610862303301e+00 -2.9735264905017461e-02 -5.6447216536602152e-01 +5.6276732993468005e-03
-1.8000000000000000e+00 +8.1529079643223703e+00 +0.0000000000000000e+00 -1.8014411497875999e+00 -2.9735237251539332e-02 -5.6447204521603844e-01 +5.6277372010880948e-03
-1.8999999999999999e+00 +8.1528974540779000e+00 +0.0000000000000000e+00 -1.9015212132868200e+00 -2.9735217763623652e-02 -5.6447193543732221e-01 +5.6278018455493605e-03
-2.0000000000000000e+00 +8.1528863757084800e+00 +0.0000000000000000e+00 -2.0016012767247702e+00 -2.9735206782862986e-02 -5.6447183692261249e-01 +5.6278671387027549e-03
-2.1000000000000001e+00 +8.1528747292177304e+00 +0.0000000000000000e+00 -2.1016813400982199e+00 -2.9735204525091100e-02 -5.6447175042623432e-01 +5.6279329990212238e-03
-2.2000000000000002e+00 +8.1528625146056601e+00 +0.0000000000000000e+00 -2.2017614034039301e+00 -2.9735210726702550e-02 -5.6447167617514926e-01 +5.6279993926287393e-03
-2.2999999999999998e+00 +8.1528497318759001e+00 +0.0000000000000000e+00 -2.3018414666387002e+00 -2.9735225009848088e-02 -5.6447161427062276e-01 +5.6280662970016083e-03
-2.3999999999999999e+00 +8.1528363810211903e+00 +0.0000000000000000e+00 -2.4019215297993002e+00 -2.9735246996682035e-02 -5.6447156481400818e-01 +5.6281336896149871e-03
-2.5000000000000000e+00 +8.1528224620451493e+00 +0.0000000000000000e+00 -2.5020015928824901e+00 -2.9735276309353548e-02 -5.6447152790657684e-01 +5.6282015479407069e-03
-2.6000000000000001e+00 +8.1528079749477893e+00 +0.0000000000000000e+00 -2.6020816558850601e+00 -2.9735312570012412e-02 -5.6447150364963228e-01 +5.6282698494479746e-03
-2.7000000000000002e+00 +8.1527929197291105e+00 +0.0000000000000000e+00 -2.7021617188037701e+00 -2.9735355400807465e-02 -5.6447149214448200e-01 +5.6283385716026386e-03
-2.7999999999999998e+00 +8.1527772963891003e+00 +0.0000000000000000e+00 -2.8022417816354102e+00 -2.9735404423886648e-02 -5.6447149349243764e-01 +5.6284076918667316e-03
-2.8999999999999999e+00 +8.1527611049277802e+00 +0.0000000000000000e+00 -2.9023218443767500e+00 -2.9735459261396872e-02 -5.6447150779481625e-01 +5.6284771876980314e-03
-3.0000000000000000e+00 +8.1527443453451305e+00 +0.0000000000000000e+00 -3.0024019070245598e+00 -2.9735519535484117e-02 -5.6447153515294035e-01 +5.6285470365496117e-03
-3.1000000000000001e+00 +8.1527270176411495e+00 +0.0000000000000000e+00 -3.1024819695756198e+00 -2.9735584868293207e-02 -5.6447157566813833e-01 +5.6286172158693830e-03
-3.2000000000000002e+00 +8.1527091218158603e+00 +0.0000000000000000e+00 -3.2025620320267101e+00 -2.9735654881967905e-02 -5.6447162944174567e-01 +5.6286877030996500e-03
-3.2999999999999998e+00 +8.1526906578692397e+00 +0.0000000000000000e+00 -3.3026420943745900e+00 -2.9735729198650855e-02 -5.6447169657510377e-01 +5.6287584756766641e-03
-3.3999999999999999e+00 +8.1526716258013003e+00 +0.0000000000000000e+00 -3.4027221566160502e+00 -2.9735807440483479e-02 -5.6447177716956298e-01 +5.6288295110301732e-03
-3.5000000000000000e+00 +8.1526520256120403e+00 +0.0000000000000000e+00 -3.5028022187478500e+00 -2.9735889229606009e-02 -5.6447187132648158e-01 +5.6289007865829724e-03
-3.6000000000000001e+00 +8.1526318572978198e+00 +0.0000000000000000e+00 -3.6028822807667802e+00 -2.9735974188158817e-02 -5.6447197914725322e-01 +5.6289722797507437e-03
-3.7000000000000002e+00 +8.1526111208659096e+00 +0.0000000000000000e+00 -3.7029623426696099e+00 -2.9736061938276683e-02 -5.6447210073319809e-01 +5.6290439679404529e-03
-3.7999999999999998e+00 +8.1525898163126804e+00 +0.0000000000000000e+00 -3.8030424044531101e+00 -2.9736152102097325e-02 -5.6447223618572862e-01 +5.6291158285516263e-03
-3.8999999999999999e+00 +8.1525679436344909e+00 +0.0000000000000000e+00 -3.9031224661140600e+00 -2.9736244301757118e-02 -5.6447238560626822e-01 +5.6291878389750534e-03
-4.0000000000000000e+00 +8.1525455028386205e+00 +0.0000000000000000e+00 -4.0032025276492398e+00 -2.9736338159386984e-02 -5.6447254909616096e-01 +5.6292599765920080e-03
-4.0999999999999996e+00 +8.1525224939177896e+00 +0.0000000000000000e+00 -4.1032825890554099e+00 -2.9736433308679436e-02 -5.6447272654321290e-01 +5.6293322373505246e-03
-4.2000000000000002e+00 +8.1524989168792708e+00 +0.0000000000000000e+00 -4.2033626503293604e+00 -2.9736529425327458e-02 -5.6447291705862868e-01 +5.6294046846992879e-03
-4.2999999999999998e+00 +8.1524747717157897e+00 +0.0000000000000000e+00 -4.3034427114678504e+00 -2.9736626194582137e-02 -5.6447311957737345e-01 +5.6294773974212096e-03
-4.4000000000000004e+00 +8.1524500584346207e+00 +0.0000000000000000e+00 -4.4035227724676700e+00 -2.9736723301704366e-02 -5.6447333303429348e-01 +5.6295504543012733e-03
-4.5000000000000000e+00 +8.1524247770285001e+00 +0.0000000000000000e+00 -4.5036028333255800e+00 -2.9736820431977395e-02 -5.6447355636433882e-01 +5.6296239341291944e-03
-4.5999999999999996e+00 +8.1523989275046898e+00 +0.0000000000000000e+00 -4.6036828940383696e+00 -2.9736917270696016e-02 -5.6447378850233820e-01 +5.6296979156974384e-03
-4.7000000000000002e+00 +8.1523725098559208e+00 +0.0000000000000000e+00 -4.7037629546028104e+00 -2.9737013503179189e-02 -5.6447402838322369e-01 +5.6297724778038797e-03
-4.7999999999999998e+00 +8.1523455240894709e+00 +0.0000000000000000e+00 -4.8038430150156701e+00 -2.9737108814759328e-02 -5.6447427494180502e-01 +5.6298476992498250e-03
-4.9000000000000004e+00 +8.1523179701980606e+00 +0.0000000000000000e+00 -4.9039230752737302e+00 -2.9737202890794821e-02 -5.6447452711299362e-01 +5.6299236588426716e-03
-5.0000000000000000e+00 +8.1522898481889605e+00 +0.0000000000000000e+00 -5.0040031353737602e+00 -2.9737295416659280e-02 -5.6447478383157679e-01 +5.6300004353939245e-03
-5.0999999999999996e+00 +8.1522611580549000e+00 +0.0000000000000000e+00 -5.1040831953125396e+00 -2.9737386077754155e-02 -5.6447504403244297e-01 +5.6300781077218637e-03
-5.2000000000000002e+00 +8.1522318997995207e+00 +0.0000000000000000e+00 -5.2041632550868497e+00 -2.9737474559499412e-02 -5.6447530665038403e-01 +5.6301567546498347e-03
-5.2999999999999998e+00 +8.1522020734228100e+00 +0.0000000000000000e+00 -5.3042433146934496e+00 -2.9737560547340301e-02 -5.6447557062020648e-01 +5.6302364550077765e-03
-5.4000000000000004e+00 +8.1521716789247893e+00 +0.0000000000000000e+00 -5.4043233741291203e+00 -2.9737643726746775e-02 -5.6447583487670305e-01 +5.6303172876322506e-03
-5.5000000000000000e+00 +8.1521407163090807e+00 +0.0000000000000000e+00 -5.5044034333906504e+00 -2.9737723783213037e-02 -5.6447609835462453e-01 +5.6303993313664919e-03
-5.5999999999999996e+00 +8.1521091855684098e+00 +0.0000000000000000e+00 -5.6044834924747899e+00 -2.9737800402264151e-02 -5.6447635998879087e-01 +5.6304826650619188e-03
-5.7000000000000002e+00 +8.1520770867064094e+00 +0.0000000000000000e+00 -5.7045635513783299e+00 -2.9737873269448288e-02 -5.6447661871392207e-01 +5.6305673675767160e-03
-5.7999999999999998e+00 +8.1520444197231008e+00 +0.0000000000000000e+00 -5.8046436100980499e+00 -2.9737942070343512e-02 -5.6447687346475062e-01 +5.6306535177773525e-03
-5.9000000000000004e+00 +8.1520111846184609e+00 +0.0000000000000000e+00 -5.9047236686307096e+00 -2.9738006490557141e-02 -5.6447712317599208e-01 +5.6307411945386108e-03
-5.9999999999999902e+00 +8.1519773813925003e+00 +0.0000000000000000e+00 -6.0048037269731003e+00 -2.9738066215727107e-02 -5.6447736678236826e-01 +5.6308304767410788e-03
-6.0999999999999899e+00 +8.1519430100452208e+00 +0.0000000000000000e+00 -6.1048837851219799e+00 -2.9738120935402332e-02 -5.6447760346698717e-01 +5.6309214133980299e-03
-6.1999999999999904e+00 +8.1519080705766100e+00 +0.0000000000000000e+00 -6.2049638430741396e+00 -2.9738170352587856e-02 -5.6447783327360956e-01 +5.6310139500127887e-03
-6.2999999999999901e+00 +8.1518725629866804e+00 +0.0000000000000000e+00 -6.3050439008263499e+00 -2.9738214173180962e-02 -5.6447805643225024e-01 +5.6311080096834686e-03
-6.3999999999999897e+00 +8.1518364872754301e+00 +0.0000000000000000e+00 -6.4051239583753699e+00 -2.9738252103056816e-02 -5.6447827317290589e-01 +5.6312035155059535e-03
-6.4999999999999902e+00 +8.1517998434428591e+00 +0.0000000000000000e+00 -6.5052040157180002e+00 -2.9738283848067173e-02 -5.6447848372555209e-01 +5.6313003905737588e-03
-6.5999999999999899e+00 +8.1517626314889604e+00 +0.0000000000000000e+00 -6.6052840728510001e+00 -2.9738309114039199e-02 -5.6447868832014303e-01 +5.6313985579779045e-03
-6.6999999999999904e+00 +8.1517248514137499e+00 +0.0000000000000000e+00 -6.7053641297711399e+00 -2.9738327606774164e-02 -5.6447888718661188e-01 +5.6314979408067772e-03
-6.7999999999999901e+00 +8.1516865032135701e+00 +0.0000000000000000e+00 -6.8054441864752100e+00 -2.9738339032047739e-02 -5.6447908055489748e-01 +5.6315984621462985e-03
-6.8999999999999897e+00 +8.1516475868957095e+00 +0.0000000000000000e+00 -6.9055242429599701e+00 -2.9738343095602870e-02 -5.6447926865483056e-01 +5.6317000450786204e-03
-6.9999999999999902e+00 +8.1516081024565192e+00 +0.0000000000000000e+00 -7.0056042992222096e+00 -2.9738339503157327e-02 -5.6447945171630365e-01 +5.6318026126837518e-03
-7.0999999999999899e+00 +8.1515680498960101e+00 +0.0000000000000000e+00 -7.1056843552586999e+00 -2.9738327960396611e-02 -5.6447962996915646e-01 +5.6319060880382511e-03
-7.1999999999999904e+00 +8.1515274292141804e+00 +0.0000000000000000e+00 -7.2057644110662000e+00 -2.9738308172974209e-02 -5.6447980364320438e-01 +5.6320103942154006e-03
-7.2999999999999901e+00 +8.1514862404073902e+00 +0.0000000000000000e+00 -7.3058444666415099e+00 -2.9738279846511756e-02 -5.6447997296826513e-01 +5.6321154542853455e-03
-7.3999999999999897e+00 +8.1514444834829192e+00 +0.0000000000000000e+00 -7.4059245219813796e+00 -2.9738242686592076e-02 -5.6448013817404608e-01 +5.6322211913138213e-03
-7.4999999999999902e+00 +8.1514021584334806e+00 +0.0000000000000000e+00 -7.5060045770826100e+00 -2.9738196398768044e-02 -5.6448029949034129e-01 +5.6323275283640508e-03
-7.5999999999999899e+00 +8.1513592652663593e+00 +0.0000000000000000e+00 -7.6060846319419504e+00 -2.9738140688549776e-02 -5.6448045714680384e-01 +5.6324343884942779e-03
-7.6999999999999904e+00 +8.1513158039779192e+00 +0.0000000000000000e+00 -7.7061646865561997e+00 -2.9738075261413487e-02 -5.6448061137314476e-01 +5.6325416947596834e-03
-7.7999999999999901e+00 +8.1512717745681602e+00 +0.0000000000000000e+00 -7.8062447409221098e+00 -2.9737999822794573e-02 -5.6448076239901723e-01 +5.6326493702110901e-03
-7.8999999999999897e+00 +8.1512271770334301e+00 +0.0000000000000000e+00 -7.9063247950364799e+00 -2.9737914078089171e-02 -5.6448091045407456e-01 +5.6327573378953987e-03
-7.9999999999999902e+00 +8.1511820113773901e+00 +0.0000000000000000e+00 -8.0064048488960609e+00 -2.9737817732698336e-02 -5.6448105576790597e-01 +5.6328655208525789e-03
-8.0999999999999908e+00 +8.1511362776036496e+00 +0.0000000000000000e+00 -8.1064849024976393e+00 -2.9737710720213709e-02 -5.6448119867147573e-01 +5.6329738327850183e-03
-8.1999999999999904e+00 +8.1510899757086008e+00 +0.0000000000000000e+00 -8.2065649558379903e+00 -2.9737593728260528e-02 -5.6448133983081628e-01 +5.6330821565573749e-03
-8.2999999999999901e+00 +8.1510431056885899e+00 +0.0000000000000000e+00 -8.3066450089139003e+00 -2.9737467599970240e-02 -5.6448147998104592e-01 +5.6331903686750928e-03
-8.3999999999999897e+00 +8.1509956675508892e+00 +0.0000000000000000e+00 -8.4067250617221205e+00 -2.9737333178465612e-02 -5.6448161985719281e-01 +5.6332983456432928e-03
-8.4999999999999893e+00 +8.1509476612882299e+00 +0.0000000000000000e+00 -8.5068051142594392e+00 -2.9737191306870754e-02 -5.6448176019438989e-01 +5.6334059639688155e-03
-8.5999999999999908e+00 +8.1508990869078808e+00 +0.0000000000000000e+00 -8.6068851665226305e+00 -2.9737042828299594e-02 -5.6448190172765100e-01 +5.6335131001579468e-03
-8.6999999999999904e+00 +8.1508499444025801e+00 +0.0000000000000000e+00 -8.7069652185084596e+00 -2.9736888585867476e-02 -5.6448204519209677e-01 +5.6336196307187544e-03
-8.7999999999999794e+00 +8.1508002337759500e+00 +0.0000000000000000e+00 -8.8070452702137203e+00 -2.9736729422680970e-02 -5.6448219132275568e-01 +5.6337254321590933e-03
-8.8999999999999808e+00 +8.1507499550316407e+00 +0.0000000000000000e+00 -8.9071253216351796e+00 -2.9736566181842273e-02 -5.6448234085465054e-01 +5.6338303809874962e-03
-8.9999999999999805e+00 +8.1506991081623692e+00 +0.0000000000000000e+00 -9.0072053727696098e+00 -2.9736399706453597e-02 -5.6448249452288324e-01 +5.6339343537140929e-03
-9.0999999999999801e+00 +8.1506476931717806e+00 +0.0000000000000000e+00 -9.1072854236137797e+00 -2.9736230839608316e-02 -5.6448265306246315e-01 +5.6340372268488649e-03
-9.1999999999999797e+00 +8.1505957100635005e+00 +0.0000000000000000e+00 -9.2073654741644795e+00 -2.9736060424395534e-02 -5.6448281720839555e-01 +5.6341388769025908e-03
-9.2999999999999794e+00 +8.1505431588302599e+00 +0.0000000000000000e+00 -9.3074455244184708e+00 -2.9735889303904282e-02 -5.6448298769576299e-01 +5.6342391803876997e-03
-9.3999999999999808e+00 +8.1504900394757005e+00 +0.0000000000000000e+00 -9.4075255743725297e+00 -2.9735718321214816e-02 -5.6448316525955811e-01 +5.6343380138165833e-03
-9.4999999999999805e+00 +8.1504363520034495e+00 +0.0000000000000000e+00 -9.5076056240234408e+00 -2.9735548319403095e-02 -5.6448335063476851e-01 +5.6344352537025079e-03
-9.5999999999999801e+00 +8.1503820964062506e+00 +0.0000000000000000e+00 -9.6076856733679694e+00 -2.9735380141545000e-02 -5.6448354455645999e-01 +5.6345307765604813e-03
-9.6999999999999797e+00 +8.1503272726913600e+00 +0.0000000000000000e+00 -9.7077657224029004e+00 -2.9735214630706233e-02 -5.6448374775958055e-01 +5.6346244589052848e-03
-9.7999999999999794e+00 +8.1502718808515109e+00 +0.0000000000000000e+00 -9.8078457711250007e+00 -2.9735052629953952e-02 -5.6448396097918541e-01 +5.6347161772538042e-03
-9.8999999999999808e+00 +8.1502159208903304e+00 +0.0000000000000000e+00 -9.9079258195310498e+00 -2.9734894982346542e-02 -5.6448418495024011e-01 +5.6348058081230308e-03
-9.9999999999999805e+00 +8.1501593928078400e+00 +0.0000000000000000e+00 -1.0008005867617801e+01 -2.9734742530884570e-02 -5.6448442040758395e-01 +5.6348932280671652e-03
-1.0100000000000000e+01 +8.1501022966040200e+00 +0.0000000000000000e+00 -1.0108085915382100e+01 -2.9734595983685521e-02 -5.6448466771984462e-01 +5.6349784018564506e-03
-1.0199999999999999e+01 +8.1500446322825209e+00 +0.0000000000000000e+00 -1.0208165962820599e+01 -2.9734455623833318e-02 -5.6448492610166401e-01 +5.6350615722494763e-03
-1.0300000000000001e+01 +8.1499863998360507e+00 +0.0000000000000000e+00 -1.0308246009930199e+01 -2.9734321650917050e-02 -5.6448519454115464e-01 +5.6351430366300345e-03
-1.0400000000000000e+01 +8.1499275992682705e+00 +0.0000000000000000e+00 -1.0408326056707599e+01 -2.9734194264537328e-02 -5.6448547202648758e-01 +5.6352230923852331e-03
-1.0500000000000000e+01 +8.1498682305791608e+00 +0.0000000000000000e+00 -1.0508406103149600e+01 -2.9734073664312570e-02 -5.6448575754601105e-01 +5.6353020369067546e-03
-1.0600000000000000e+01 +8.1498082937723701e+00 +0.0000000000000000e+00 -1.0608486149253000e+01 -2.9733960049876638e-02 -5.6448605008819708e-01 +5.6353801675903667e-03
-1.0699999999999999e+01 +8.1497477888406102e+00 +0.0000000000000000e+00 -1.0708566195014500e+01 -2.9733853620885105e-02 -5.6448634864175640e-01 +5.6354577818371844e-03
-1.0800000000000001e+01 +8.1496867157875403e+00 +0.0000000000000000e+00 -1.0808646240430900e+01 -2.9733754577007013e-02 -5.6448665219547467e-01 +5.6355351770520272e-03
-1.0900000000000000e+01 +8.1496250746131391e+00 +0.0000000000000000e+00 -1.0908726285499000e+01 -2.9733663117931193e-02 -5.6448695973832863e-01 +5.6356126506446769e-03
-1.1000000000000000e+01 +8.1495628653174208e+00 +0.0000000000000000e+00 -1.1008806330215601e+01 -2.9733579443365275e-02 -5.6448727025946099e-01 +5.6356905000296831e-03
-1.1100000000000000e+01 +8.1495000879040198e+00 +0.0000000000000000e+00 -1.1108886374577500e+01 -2.9733503753034747e-02 -5.6448758274815614e-01 +5.6357690226261714e-03
-1.1199999999999999e+01 +8.1494367423620098e+00 +0.0000000000000000e+00 -1.1208966418581401e+01 -2.9733436246690687e-02 -5.6448789619398554e-01 +5.6358485158593862e-03
-1.1300000000000001e+01 +8.1493728287059604e+00 +0.0000000000000000e+00 -1.1309046462224000e+01 -2.9733377124094271e-02 -5.6448820958649970e-01 +5.6359292771576029e-03
-1.1400000000000000e+01 +8.1493083469249505e+00 +0.0000000000000000e+00 -1.1409126505502300e+01 -2.9733326585037599e-02 -5.6448852191562804e-01 +5.6360116039562754e-03
-1.1500000000000000e+01 +8.1492432970226201e+00 +0.0000000000000000e+00 -1.1509206548412800e+01 -2.9733284829328181e-02 -5.6448883217137180e-01 +5.6360957936949568e-03
-1.1600000000000000e+01 +8.1491776789989707e+00 +0.0000000000000000e+00 -1.1609286590952600e+01 -2.9733252056796715e-02 -5.6448913934394807e-01 +5.6361821438188275e-03
-1.1699999999999999e+01 +8.1491114928576298e+00 +0.0000000000000000e+00 -1.1709366633118099e+01 -2.9733228467294655e-02 -5.6448944242373900e-01 +5.6362709517782279e-03
