# field on trajectory
# s[mm] rx[mm] ry[mm] rz[mm] bx[T] by[T] bz[T]
0.0000000000000000e+00 +8.1649999999999991e+00 +0.0000000000000000e+00 +0.0000000000000000e+00 -3.1425247773174868e-02 -5.9231689796527043e-01 +5.9004179151586423e-03
1.0000000000000001e-01 +8.1649997169987660e+00 +0.0000000000000000e+00 +9.9999999999466072e-02 -3.1425301750705119e-02 -5.9231707093692565e-01 +5.9004729849485033e-03
2.0000000000000001e-01 +8.1649988679949583e+00 +0.0000000000000000e+00 +1.9999999999572854e-01 -3.1425373442682224e-02 -5.9231722136509746e-01 +5.9005289658506281e-03
3.0000000000000004e-01 +8.1649974529884322e+00 +0.0000000000000000e+00 +2.9999999998558380e-01 -3.1425462206462335e-02 -5.9231735029126131e-01 +5.9005858015657971e-03
4.0000000000000002e-01 +8.1649954719790632e+00 +0.0000000000000000e+00 +3.9999999996582836e-01 -3.1425567399415572e-02 -5.9231745875687170e-01 +5.9006434357933247e-03
5.0000000000000000e-01 +8.1649929249667501e+00 +0.0000000000000000e+00 +4.9999999993325850e-01 -3.1425688378922345e-02 -5.9231754780336454e-01 +5.9007018122314864e-03
5.9999999999999998e-01 +8.1649898119514059e+00 +0.0000000000000000e+00 +5.9999999988467068e-01 -3.1425824502369817e-02 -5.9231761847216191e-01 +5.9007608745780087e-03
6.9999999999999996e-01 +8.1649861329329649e+00 +0.0000000000000000e+00 +6.9999999981686134e-01 -3.1425975127148439e-02 -5.9231767180467254e-01 +5.9008205665305206e-03
7.9999999999999993e-01 +8.1649818879113756e+00 +0.0000000000000000e+00 +7.9999999972662683e-01 -3.1426139610648184e-02 -5.9231770884229673e-01 +5.9008808317870210e-03
8.9999999999999991e-01 +8.1649770768866023e+00 +0.0000000000000000e+00 +8.9999999961076349e-01 -3.1426317310255192e-02 -5.9231773062642934e-01 +5.9009416140463483e-03
9.9999999999999989e-01 +8.1649716998586239e+00 +0.0000000000000000e+00 +9.9999999946606788e-01 -3.1426507583348091e-02 -5.9231773819846167e-01 +5.9010028570086297e-03
1.0999999999999999e+00 +8.1649657568274332e+00 +0.0000000000000000e+00 +1.0999999992893363e+00 -3.1426709787294393e-02 -5.9231773259978482e-01 +5.9010645043757505e-03
1.2000000000000000e+00 +8.1649592477930355e+00 +0.0000000000000000e+00 +1.1999999990773651e+00 -3.1426923279447072e-02 -5.9231771487179452e-01 +5.9011264998518279e-03
1.3000000000000000e+00 +8.1649521727554486e+00 +0.0000000000000000e+00 +1.2999999988269508e+00 -3.1427147417140838e-02 -5.9231768605589108e-01 +5.9011887871436592e-03
1.4000000000000001e+00 +8.1649445317147009e+00 +0.0000000000000000e+00 +1.3999999985348899e+00 -3.1427381557688712e-02 -5.9231764719348468e-01 +5.9012513099611997e-03
1.5000000000000002e+00 +8.1649363246708280e+00 +0.0000000000000000e+00 +1.4999999981979786e+00 -3.1427625058378303e-02 -5.9231759932599815e-01 +5.9013140120180120e-03
1.6000000000000003e+00 +8.1649275516238760e+00 +0.0000000000000000e+00 +1.5999999978130133e+00 -3.1427877276468424e-02 -5.9231754349486809e-01 +5.9013768370317363e-03
1.7000000000000004e+00 +8.1649182125738999e+00 +0.0000000000000000e+00 +1.6999999973767905e+00 -3.1428137569185395e-02 -5.9231748074155155e-01 +5.9014397287245595e-03
1.8000000000000005e+00 +8.1649083075209585e+00 +0.0000000000000000e+00 +1.7999999968861067e+00 -3.1428405293719527e-02 -5.9231741210752553e-01 +5.9015026308236671e-03
1.9000000000000006e+00 +8.1648978364651192e+00 +0.0000000000000000e+00 +1.8999999963377581e+00 -3.1428679807221520e-02 -5.9231733863429159e-01 +5.9015654870617183e-03
2.0000000000000004e+00 +8.1648867994064513e+00 +0.0000000000000000e+00 +1.9999999957285413e+00 -3.1428960466798973e-02 -5.9231726136337903e-01 +5.9016282411773011e-03
2.1000000000000005e+00 +8.1648751963450295e+00 +0.0000000000000000e+00 +2.0999999950552528e+00 -3.1429246453814071e-02 -5.9231718133227029e-01 +5.9016908515655917e-03
2.2000000000000006e+00 +8.1648630272809299e+00 +0.0000000000000000e+00 +2.1999999943146888e+00 -3.1429536246796626e-02 -5.9231709956216394e-01 +5.9017533352262409e-03
2.3000000000000007e+00 +8.1648502922142310e+00 +0.0000000000000000e+00 +2.2999999935036457e+00 -3.1429828148560539e-02 -5.9231701707018369e-01 +5.9018157238072359e-03
2.4000000000000008e+00 +8.1648369911450107e+00 +0.0000000000000000e+00 +2.3999999926189202e+00 -3.1430120461906144e-02 -5.9231693487345360e-01 +5.9018780489533363e-03
2.5000000000000009e+00 +8.1648231240733509e+00 +0.0000000000000000e+00 +2.4999999916573081e+00 -3.1430411489621154e-02 -5.9231685398909573e-01 +5.9019403423054275e-03
2.6000000000000010e+00 +8.1648086909993260e+00 +0.0000000000000000e+00 +2.5999999906156064e+00 -3.1430699534481445e-02 -5.9231677543422989e-01 +5.9020026354998879e-03
2.7000000000000011e+00 +8.1647936919230144e+00 +0.0000000000000000e+00 +2.6999999894906113e+00 -3.1430982899251857e-02 -5.9231670022597238e-01 +5.9020649601679593e-03
2.8000000000000012e+00 +8.1647781268444870e+00 +0.0000000000000000e+00 +2.7999999882791196e+00 -3.1431259886687046e-02 -5.9231662938143481e-01 +5.9021273479350853e-03
2.9000000000000012e+00 +8.1647619957638113e+00 +0.0000000000000000e+00 +2.8999999869779272e+00 -3.1431528799532336e-02 -5.9231656391772314e-01 +5.9021898304202963e-03
3.0000000000000013e+00 +8.1647452986810514e+00 +0.0000000000000000e+00 +2.9999999855838309e+00 -3.1431787940524487e-02 -5.9231650485193754e-01 +5.9022524392355656e-03
3.1000000000000014e+00 +8.1647280355962639e+00 +0.0000000000000000e+00 +3.0999999840936270e+00 -3.1432035612392564e-02 -5.9231645320117032e-01 +5.9023152059851629e-03
3.2000000000000015e+00 +8.1647102065094987e+00 +0.0000000000000000e+00 +3.1999999825041119e+00 -3.1432270117858777e-02 -5.9231640998250523e-01 +5.9023781622650276e-03
3.3000000000000016e+00 +8.1646918114207967e+00 +0.0000000000000000e+00 +3.2999999808120819e+00 -3.1432489759639276e-02 -5.9231637621301736e-01 +5.9024413396621227e-03
3.4000000000000017e+00 +8.1646728503301915e+00 +0.0000000000000000e+00 +3.3999999790143338e+00 -3.1432692840445003e-02 -5.9231635290977080e-01 +5.9025047697538026e-03
3.5000000000000018e+00 +8.1646533232377063e+00 +0.0000000000000000e+00 +3.4999999771076635e+00 -3.1432877662982521e-02 -5.9231634108981834e-01 +5.9025684841071697e-03
3.6000000000000019e+00 +8.1646332301433517e+00 +0.0000000000000000e+00 +3.5999999750888678e+00 -3.1433042529954797e-02 -5.9231634177020087e-01 +5.9026325142784468e-03
3.7000000000000020e+00 +8.1646125710471278e+00 +0.0000000000000000e+00 +3.6999999729547430e+00 -3.1433185744062127e-02 -5.9231635596794507e-01 +5.9026968918123200e-03
3.8000000000000020e+00 +8.1645913459490220e+00 +0.0000000000000000e+00 +3.7999999707020855e+00 -3.1433305608002879e-02 -5.9231638470006476e-01 +5.9027616482413255e-03
3.9000000000000021e+00 +8.1645695548490078e+00 +0.0000000000000000e+00 +3.8999999683276916e+00 -3.1433400424474366e-02 -5.9231642898355730e-01 +5.9028268150851946e-03
4.0000000000000018e+00 +8.1645471977470443e+00 +0.0000000000000000e+00 +3.9999999658283580e+00 -3.1433468496173650e-02 -5.9231648983540430e-01 +5.9028924238502213e-03
4.1000000000000014e+00 +8.1645242746430728e+00 +0.0000000000000000e+00 +4.0999999632008812e+00 -3.1433508732155925e-02 -5.9231656804859978e-01 +5.9029585140984511e-03
4.2000000000000011e+00 +8.1645007855370189e+00 +0.0000000000000000e+00 +4.1999999604420575e+00 -3.1433522466923727e-02 -5.9231666352024293e-01 +5.9030251576641518e-03
4.3000000000000007e+00 +8.1644767304287935e+00 +0.0000000000000000e+00 +4.2999999575486827e+00 -3.1433511641378635e-02 -5.9231677592346732e-01 +5.9030924344576161e-03
4.4000000000000004e+00 +8.1644521093182885e+00 +0.0000000000000000e+00 +4.3999999545175541e+00 -3.1433478196469050e-02 -5.9231690493141254e-01 +5.9031604243978547e-03
4.5000000000000000e+00 +8.1644269222053829e+00 +0.0000000000000000e+00 +4.4999999513454672e+00 -3.1433424073193425e-02 -5.9231705021722647e-01 +5.9032292074133672e-03
4.5999999999999996e+00 +8.1644011690899365e+00 +0.0000000000000000e+00 +4.5999999480292191e+00 -3.1433351212603503e-02 -5.9231721145406502e-01 +5.9032988634428506e-03
4.6999999999999993e+00 +8.1643748499717983e+00 +0.0000000000000000e+00 +4.6999999445656053e+00 -3.1433261555807612e-02 -5.9231738831509195e-01 +5.9033694724359483e-03
4.7999999999999989e+00 +8.1643479648507995e+00 +0.0000000000000000e+00 +4.7999999409514231e+00 -3.1433157043973904e-02 -5.9231758047348126e-01 +5.9034411143539852e-03
4.8999999999999986e+00 +8.1643205137267572e+00 +0.0000000000000000e+00 +4.8999999371834688e+00 -3.1433039618333568e-02 -5.9231778760241627e-01 +5.9035138691706937e-03
4.9999999999999982e+00 +8.1642924965994741e+00 +0.0000000000000000e+00 +4.9999999332585379e+00 -3.1432911220184136e-02 -5.9231800937508983e-01 +5.9035878168729539e-03
5.0999999999999979e+00 +8.1642639134687389e+00 +0.0000000000000000e+00 +5.0999999291734275e+00 -3.1432773790892710e-02 -5.9231824546470635e-01 +5.9036630374615321e-03
5.1999999999999975e+00 +8.1642347643343278e+00 +0.0000000000000000e+00 +5.1999999249249340e+00 -3.1432629271899194e-02 -5.9231849554448013e-01 +5.9037396109518046e-03
5.2999999999999972e+00 +8.1642050491960028e+00 +0.0000000000000000e+00 +5.2999999205098529e+00 -3.1432479604719621e-02 -5.9231875928763933e-01 +5.9038176173745131e-03
5.3999999999999968e+00 +8.1641747680535133e+00 +0.0000000000000000e+00 +5.3999999159249814e+00 -3.1432326730949256e-02 -5.9231903636742256e-01 +5.9038971367764721e-03
5.4999999999999964e+00 +8.1641439209065947e+00 +0.0000000000000000e+00 +5.4999999111671158e+00 -3.1432172592266015e-02 -5.9231932645708174e-01 +5.9039782492213196e-03
5.5999999999999961e+00 +8.1641125077549699e+00 +0.0000000000000000e+00 +5.5999999062330517e+00 -3.1432019130433572e-02 -5.9231962922988246e-01 +5.9040610347902587e-03
5.6999999999999957e+00 +8.1640805285983529e+00 +0.0000000000000000e+00 +5.6999999011195861e+00 -3.1431868287304689e-02 -5.9231994435910384e-01 +5.9041455735827659e-03
5.7999999999999954e+00 +8.1640479834364417e+00 +0.0000000000000000e+00 +5.7999998958235146e+00 -3.1431722004824435e-02 -5.9232027151803901e-01 +5.9042319457173554e-03
5.8999999999999950e+00 +8.1640148722689254e+00 +0.0000000000000000e+00 +5.8999998903416335e+00 -3.1431582225033415e-02 -5.9232061037999650e-01 +5.9043202313322895e-03
5.9999999999999947e+00 +8.1639811950954808e+00 +0.0000000000000000e+00 +5.9999998846707401e+00 -3.1431450890071051e-02 -5.9232096061830042e-01 +5.9044105105863333e-03
6.0999999999999943e+00 +8.1639469519157757e+00 +0.0000000000000000e+00 +6.0999998788076297e+00 -3.1431329624719943e-02 -5.9232132199912113e-01 +5.9045028383025080e-03
6.1999999999999940e+00 +8.1639121427294654e+00 +0.0000000000000000e+00 +6.1999998727490988e+00 -3.1431218783978650e-02 -5.9232169465996798e-01 +5.9045971678886693e-03
6.2999999999999936e+00 +8.1638767675361947e+00 +0.0000000000000000e+00 +6.2999998664919437e+00 -3.1431118405354522e-02 -5.9232207883118471e-01 +5.9046934273930948e-03
6.3999999999999932e+00 +8.1638408263355959e+00 +0.0000000000000000e+00 +6.3999998600329606e+00 -3.1431028526309808e-02 -5.9232247474311461e-01 +5.9047915448590636e-03
6.4999999999999929e+00 +8.1638043191272942e+00 +0.0000000000000000e+00 +6.4999998533689460e+00 -3.1430949184259052e-02 -5.9232288262610255e-01 +5.9048914483245040e-03
6.5999999999999925e+00 +8.1637672459109005e+00 +0.0000000000000000e+00 +6.5999998464966954e+00 -3.1430880416566102e-02 -5.9232330271049316e-01 +5.9049930658216275e-03
6.6999999999999922e+00 +8.1637296066860134e+00 +0.0000000000000000e+00 +6.6999998394130049e+00 -3.1430822260541537e-02 -5.9232373522663218e-01 +5.9050963253765923e-03
6.7999999999999918e+00 +8.1636914014522208e+00 +0.0000000000000000e+00 +6.7999998321146720e+00 -3.1430774753439673e-02 -5.9232418040486423e-01 +5.9052011550091137e-03
6.8999999999999915e+00 +8.1636526302090999e+00 +0.0000000000000000e+00 +6.8999998245984919e+00 -3.1430737932456015e-02 -5.9232463847553474e-01 +5.9053074827321366e-03
6.9999999999999911e+00 +8.1636132929562137e+00 +0.0000000000000000e+00 +6.9999998168612612e+00 -3.1430711834724318e-02 -5.9232510966898966e-01 +5.9054152365514492e-03
7.0999999999999908e+00 +8.1635733896931129e+00 +0.0000000000000000e+00 +7.0999998088997751e+00 -3.1430696497313816e-02 -5.9232559421557351e-01 +5.9055243444653552e-03
7.1999999999999904e+00 +8.1635329204193354e+00 +0.0000000000000000e+00 +7.1999998007108310e+00 -3.1430691957226559e-02 -5.9232609234563138e-01 +5.9056347344642922e-03
7.2999999999999901e+00 +8.1634918851344072e+00 +0.0000000000000000e+00 +7.2999997922912243e+00 -3.1430698251394495e-02 -5.9232660428950745e-01 +5.9057463345304874e-03
7.3999999999999897e+00 +8.1634502838378395e+00 +0.0000000000000000e+00 +7.3999997836377513e+00 -3.1430715416676802e-02 -5.9232713027754569e-01 +5.9058590726375924e-03
7.4999999999999893e+00 +8.1634081165291335e+00 +0.0000000000000000e+00 +7.4999997747472076e+00 -3.1430743489857041e-02 -5.9232767054008928e-01 +5.9059728767503266e-03
7.5999999999999890e+00 +8.1633653832077719e+00 +0.0000000000000000e+00 +7.5999997656163902e+00 -3.1430782507640406e-02 -5.9232822530748042e-01 +5.9060876748241280e-03
7.6999999999999886e+00 +8.1633220838732257e+00 +0.0000000000000000e+00 +7.6999997562420948e+00 -3.1430832506650963e-02 -5.9232879481006051e-01 +5.9062033948047831e-03
7.7999999999999883e+00 +8.1632782185249528e+00 +0.0000000000000000e+00 +7.7999997466211166e+00 -3.1430893523428788e-02 -5.9232937927817009e-01 +5.9063199646280824e-03
7.8999999999999879e+00 +8.1632337871623957e+00 +0.0000000000000000e+00 +7.8999997367502530e+00 -3.1430965594427374e-02 -5.9232997894214778e-01 +5.9064373122194478e-03
7.9999999999999876e+00 +8.1631887897849840e+00 +0.0000000000000000e+00 +7.9999997266262994e+00 -3.1431048756010611e-02 -5.9233059403233213e-01 +5.9065553654935980e-03
8.0999999999999872e+00 +8.1631432263921297e+00 +0.0000000000000000e+00 +8.0999997162460513e+00 -3.1431142833789630e-02 -5.9233122446358544e-01 +5.9066740558936350e-03
8.1999999999999869e+00 +8.1630970969832326e+00 +0.0000000000000000e+00 +8.1999997056063059e+00 -3.1431246810660389e-02 -5.9233186888886047e-01 +5.9067933290121114e-03
8.2999999999999865e+00 +8.1630504015576797e+00 +0.0000000000000000e+00 +8.2999996947038586e+00 -3.1431359458838196e-02 -5.9233252564561101e-01 +5.9069131339772726e-03
8.3999999999999861e+00 +8.1630031401148440e+00 +0.0000000000000000e+00 +8.3999996835355049e+00 -3.1431479550528892e-02 -5.9233319307126941e-01 +5.9070334199141216e-03
8.4999999999999858e+00 +8.1629553126540895e+00 +0.0000000000000000e+00 +8.4999996720980402e+00 -3.1431605857928653e-02 -5.9233386950324640e-01 +5.9071541359443317e-03
8.5999999999999854e+00 +8.1629069191747714e+00 +0.0000000000000000e+00 +8.5999996603882618e+00 -3.1431737153223969e-02 -5.9233455327892992e-01 +5.9072752311861536e-03
8.6999999999999851e+00 +8.1628579596762378e+00 +0.0000000000000000e+00 +8.6999996484029651e+00 -3.1431872208591519e-02 -5.9233524273568439e-01 +5.9073966547543112e-03
8.7999999999999847e+00 +8.1628084341578315e+00 +0.0000000000000000e+00 +8.7999996361389456e+00 -3.1432009796198097e-02 -5.9233593621084890e-01 +5.9075183557599177e-03
8.8999999999999844e+00 +8.1627583426188917e+00 +0.0000000000000000e+00 +8.8999996235930006e+00 -3.1432148688200490e-02 -5.9233663204173947e-01 +5.9076402833103687e-03
8.9999999999999840e+00 +8.1627076850587557e+00 +0.0000000000000000e+00 +8.9999996107619236e+00 -3.1432287656745390e-02 -5.9233732856564558e-01 +5.9077623865092565e-03
9.0999999999999837e+00 +8.1626564614767592e+00 +0.0000000000000000e+00 +9.0999995976425119e+00 -3.1432425473969364e-02 -5.9233802411982983e-01 +5.9078846144562788e-03
9.1999999999999833e+00 +8.1626046718722396e+00 +0.0000000000000000e+00 +9.1999995842315609e+00 -3.1432560911998648e-02 -5.9233871704152885e-01 +5.9080069162471280e-03
9.2999999999999829e+00 +8.1625523162445361e+00 +0.0000000000000000e+00 +9.2999995705258680e+00 -3.1432692742949193e-02 -5.9233940566795151e-01 +5.9081292409734120e-03
9.3999999999999826e+00 +8.1624993945929933e+00 +0.0000000000000000e+00 +9.3999995565222267e+00 -3.1432819738926428e-02 -5.9234008833627783e-01 +5.9082515377225598e-03
9.4999999999999822e+00 +8.1624459069169593e+00 +0.0000000000000000e+00 +9.4999995422174344e+00 -3.1432940672025317e-02 -5.9234076338365915e-01 +5.9083737555777078e-03
9.5999999999999819e+00 +8.1623918532157926e+00 +0.0000000000000000e+00 +9.5999995276082863e+00 -3.1433054314330154e-02 -5.9234142914721688e-01 +5.9084958436176347e-03
9.6999999999999815e+00 +8.1623372334888575e+00 +0.0000000000000000e+00 +9.6999995126915781e+00 -3.1433159437914540e-02 -5.9234208396404231e-01 +5.9086177509166437e-03
9.7999999999999812e+00 +8.1622820477355305e+00 +0.0000000000000000e+00 +9.7999994974641069e+00 -3.1433254814841272e-02 -5.9234272617119532e-01 +5.9087394265444843e-03
9.8999999999999808e+00 +8.1622262959552003e+00 +0.0000000000000000e+00 +9.8999994819226664e+00 -3.1433339217162265e-02 -5.9234335410570471e-01 +5.9088608195662379e-03
9.9999999999999805e+00 +8.1621699781472685e+00 +0.0000000000000000e+00 +9.9999994660640539e+00 -3.1433411416918473e-02 -5.9234396610456574e-01 +5.9089818790422537e-03
1.0099999999999980e+01 +8.1621130943111524e+00 +0.0000000000000000e+00 +1.0099999449885065e+01 -3.1433470557404780e-02 -5.9234456096607613e-01 +5.9091025926438223e-03
1.0199999999999980e+01 +8.1620556444462853e+00 +0.0000000000000000e+00 +1.0199999433382494e+01 -3.1433517267002595e-02 -5.9234513933388289e-01 +5.9092231025063705e-03
1.0299999999999979e+01 +8.1619976285521147e+00 +0.0000000000000000e+00 +1.0299999416553140e+01 -3.1433552545397273e-02 -5.9234570231299533e-01 +5.9093435893868467e-03
1.0399999999999979e+01 +8.1619390466281061e+00 +0.0000000000000000e+00 +1.0399999399393796e+01 -3.1433577392305741e-02 -5.9234625100844007e-01 +5.9094642340477045e-03
1.0499999999999979e+01 +8.1618798986737371e+00 +0.0000000000000000e+00 +1.0499999381901258e+01 -3.1433592807477165e-02 -5.9234678652526329e-01 +5.9095852172570398e-03
1.0599999999999978e+01 +8.1618201846884979e+00 +0.0000000000000000e+00 +1.0599999364072323e+01 -3.1433599790694003e-02 -5.9234730996852791e-01 +5.9097067197887484e-03
1.0699999999999978e+01 +8.1617599046718894e+00 +0.0000000000000000e+00 +1.0699999345903786e+01 -3.1433599341772929e-02 -5.9234782244331885e-01 +5.9098289224227005e-03
1.0799999999999978e+01 +8.1616990586234230e+00 +0.0000000000000000e+00 +1.0799999327392442e+01 -3.1433592460565679e-02 -5.9234832505473833e-01 +5.9099520059448683e-03
1.0899999999999977e+01 +8.1616376465426210e+00 +0.0000000000000000e+00 +1.0899999308535088e+01 -3.1433580146959961e-02 -5.9234881890791080e-01 +5.9100761511475088e-03
1.0999999999999977e+01 +8.1615756684290144e+00 +0.0000000000000000e+00 +1.0999999289328521e+01 -3.1433563400880465e-02 -5.9234930510798056e-01 +5.9102015388293027e-03
1.1099999999999977e+01 +8.1615131242821395e+00 +0.0000000000000000e+00 +1.1099999269769533e+01 -3.1433543222289688e-02 -5.9234978476011446e-01 +5.9103283497955088e-03
1.1199999999999976e+01 +8.1614500141015398e+00 +0.0000000000000000e+00 +1.1199999249854923e+01 -3.1433520611188835e-02 -5.9235025896950100e-01 +5.9104567648581401e-03
1.1299999999999976e+01 +8.1613863378867642e+00 +0.0000000000000000e+00 +1.1299999229581486e+01 -3.1433496567618763e-02 -5.9235072884135065e-01 +5.9105869648360849e-03
1.1399999999999975e+01 +8.1613220956373667e+00 +0.0000000000000000e+00 +1.1399999208946017e+01 -3.1433472091660926e-02 -5.9235119548089787e-01 +5.9107191305553001e-03
1.1499999999999975e+01 +8.1612572873529015e+00 +0.0000000000000000e+00 +1.1499999187945313e+01 -3.1433448183438226e-02 -5.9235165999340067e-01 +5.9108534428489292e-03
1.1599999999999975e+01 +8.1611919130329280e+00 +0.0000000000000000e+00 +1.1599999166576168e+01 -3.1433425843115925e-02 -5.9235212348414035e-01 +5.9109900825574891e-03
1.1699999999999974e+01 +8.1611259726770058e+00 +0.0000000000000000e+00 +1.1699999144835379e+01 -3.1433406070902573e-02 -5.9235258705842420e-01 +5.9111292305290032e-03
1.1799999999999974e+01 +8.1610594662846925e+00 +0.0000000000000000e+00 +1.1799999122719742e+01 -3.1433389867050944e-02 -5.9235305182158382e-01 +5.9112710676191664e-03
