# field on trajectory
# s[mm] rx[mm] ry[mm] rz[mm] bx[T] by[T] bz[T]
0.0000000000000000e+00 +7.9199999999999999e+00 +0.0000000000000000e+00 +0.0000000000000000e+00 -2.9774416467219365e-02 -5.6675619756623186e-01 +5.6615406757237847e-03
-1.0000000000000001e-01 +7.9199997168178982e+00 +0.0000000000000000e+00 -9.9999999999465378e-02 -2.9774398503389678e-02 -5.6675642686695604e-01 +5.6615432833549539e-03
-2.0000000000000001e-01 +7.9199988672714383e+00 +0.0000000000000000e+00 -1.9999999999572310e-01 -2.9774370631168678e-02 -5.6675666576209405e-01 +5.6615466312626896e-03
-3.0000000000000004e-01 +7.9199974513603815e+00 +0.0000000000000000e+00 -2.9999999998556542e-01 -2.9774333892421508e-02 -5.6675691326182698e-01 +5.6615507944955045e-03
-4.0000000000000002e-01 +7.9199954690844807e+00 +0.0000000000000000e+00 -3.9999999996578467e-01 -2.9774289329010190e-02 -5.6675716837632029e-01 +5.6615558481010264e-03
-5.0000000000000000e-01 +7.9199929204434811e+00 +0.0000000000000000e+00 -4.9999999993317318e-01 -2.9774237982795111e-02 -5.6675743011572677e-01 +5.6615618671262335e-03
-5.9999999999999998e-01 +7.9199898054371207e+00 +0.0000000000000000e+00 -5.9999999988452324e-01 -2.9774180895636194e-02 -5.6675769749018823e-01 +5.6615689266176607e-03
-6.9999999999999996e-01 +7.9199861240651330e+00 +0.0000000000000000e+00 -6.9999999981662708e-01 -2.9774119109394311e-02 -5.6675796950983826e-01 +5.6615771016216392e-03
-7.9999999999999993e-01 +7.9199818763272472e+00 +0.0000000000000000e+00 -7.9999999972627700e-01 -2.9774053665932512e-02 -5.6675824518480344e-01 +5.6615864671844991e-03
-8.9999999999999991e-01 +7.9199770622231869e+00 +0.0000000000000000e+00 -8.9999999961026533e-01 -2.9773985607117429e-02 -5.6675852352520706e-01 +5.6615970983528111e-03
-9.9999999999999989e-01 +7.9199716817526742e+00 +0.0000000000000000e+00 -9.9999999946538431e-01 -2.9773915974820514e-02 -5.6675880354117025e-01 +5.6616090701735932e-03
-1.0999999999999999e+00 +7.9199657349154302e+00 +0.0000000000000000e+00 -1.0999999992884262e+00 -2.9773845810919373e-02 -5.6675908424281474e-01 +5.6616224576945323e-03
-1.2000000000000000e+00 +7.9199592217111743e+00 +0.0000000000000000e+00 -1.1999999990761834e+00 -2.9773776157299117e-02 -5.6675936464026444e-01 +5.6616373359642163e-03
-1.3000000000000000e+00 +7.9199521421396266e+00 +0.0000000000000000e+00 -1.2999999988254480e+00 -2.9773708055853613e-02 -5.6675964374364896e-01 +5.6616537800323538e-03
-1.4000000000000001e+00 +7.9199444962005092e+00 +0.0000000000000000e+00 -1.3999999985330125e+00 -2.9773642548486846e-02 -5.6675992056310398e-01 +5.6616718649499789e-03
-1.5000000000000002e+00 +7.9199362838935450e+00 +0.0000000000000000e+00 -1.4999999981956689e+00 -2.9773580677114230e-02 -5.6676019410877576e-01 +5.6616916657696989e-03
-1.6000000000000003e+00 +7.9199275052184612e+00 +0.0000000000000000e+00 -1.5999999978102095e+00 -2.9773523483663886e-02 -5.6676046339082098e-01 +5.6617132575459009e-03
-1.7000000000000004e+00 +7.9199181601749888e+00 +0.0000000000000000e+00 -1.6999999973734266e+00 -2.9773472010077975e-02 -5.6676072741941097e-01 +5.6617367153349663e-03
-1.8000000000000005e+00 +7.9199082487628640e+00 +0.0000000000000000e+00 -1.7999999968821125e+00 -2.9773427298314038e-02 -5.6676098520473273e-01 +5.6617621141955106e-03
-1.9000000000000006e+00 +7.9198977709818310e+00 +0.0000000000000000e+00 -1.8999999963330594e+00 -2.9773390390346269e-02 -5.6676123575699222e-01 +5.6617895291885927e-03
-2.0000000000000004e+00 +7.9198867268316384e+00 +0.0000000000000000e+00 -1.9999999957230594e+00 -2.9773362328166842e-02 -5.6676147808641464e-01 +5.6618190353779421e-03
-2.1000000000000005e+00 +7.9198751163120455e+00 +0.0000000000000000e+00 -2.0999999950489050e+00 -2.9773343861822611e-02 -5.6676171154206456e-01 +5.6618506712107618e-03
-2.2000000000000006e+00 +7.9198629394228188e+00 +0.0000000000000000e+00 -2.1999999943073880e+00 -2.9773334573515598e-02 -5.6676193682828269e-01 +5.6618843286588751e-03
-2.3000000000000007e+00 +7.9198501961637335e+00 +0.0000000000000000e+00 -2.2999999934953013e+00 -2.9773333753485266e-02 -5.6676215498822513e-01 +5.6619198630756193e-03
-2.4000000000000008e+00 +7.9198368865345721e+00 +0.0000000000000000e+00 -2.3999999926094366e+00 -2.9773340691970570e-02 -5.6676236706504490e-01 +5.6619571298150151e-03
-2.5000000000000009e+00 +7.9198230105351222e+00 +0.0000000000000000e+00 -2.4999999916465860e+00 -2.9773354679208896e-02 -5.6676257410188968e-01 +5.6619959842316957e-03
-2.6000000000000010e+00 +7.9198085681651778e+00 +0.0000000000000000e+00 -2.5999999906035423e+00 -2.9773375005435018e-02 -5.6676277714190215e-01 +5.6620362816808484e-03
-2.7000000000000011e+00 +7.9197935594245363e+00 +0.0000000000000000e+00 -2.6999999894770972e+00 -2.9773400960879996e-02 -5.6676297722821811e-01 +5.6620778775181386e-03
-2.8000000000000012e+00 +7.9197779843129990e+00 +0.0000000000000000e+00 -2.7999999882640432e+00 -2.9773431835770234e-02 -5.6676317540396659e-01 +5.6621206270996653e-03
-2.9000000000000012e+00 +7.9197618428303675e+00 +0.0000000000000000e+00 -2.8999999869611721e+00 -2.9773466920326206e-02 -5.6676337271226684e-01 +5.6621643857818656e-03
-3.0000000000000013e+00 +7.9197451349764449e+00 +0.0000000000000000e+00 -2.9999999855652764e+00 -2.9773505504761641e-02 -5.6676357019622936e-01 +5.6622090089214778e-03
-3.1000000000000014e+00 +7.9197278607510349e+00 +0.0000000000000000e+00 -3.0999999840731483e+00 -2.9773546879282260e-02 -5.6676376889895275e-01 +5.6622543518754535e-03
-3.2000000000000015e+00 +7.9197100201539392e+00 +0.0000000000000000e+00 -3.1999999824815801e+00 -2.9773590334084856e-02 -5.6676396986352473e-01 +5.6623002700009082e-03
-3.3000000000000016e+00 +7.9196916131849573e+00 +0.0000000000000000e+00 -3.2999999807873639e+00 -2.9773635159356156e-02 -5.6676417413302038e-01 +5.6623466186550460e-03
-3.4000000000000017e+00 +7.9196726398438857e+00 +0.0000000000000000e+00 -3.3999999789872919e+00 -2.9773680645271815e-02 -5.6676438275049978e-01 +5.6623932531951046e-03
-3.5000000000000018e+00 +7.9196531001305157e+00 +0.0000000000000000e+00 -3.4999999770781560e+00 -2.9773726081995265e-02 -5.6676459675900914e-01 +5.6624400289782776e-03
-3.6000000000000019e+00 +7.9196329940446351e+00 +0.0000000000000000e+00 -3.5999999750567491e+00 -2.9773770759676799e-02 -5.6676481720157834e-01 +5.6624868013616554e-03
-3.7000000000000020e+00 +7.9196123215860235e+00 +0.0000000000000000e+00 -3.6999999729198625e+00 -2.9773813968452374e-02 -5.6676504512121961e-01 +5.6625334257021653e-03
-3.8000000000000020e+00 +7.9195910827544536e+00 +0.0000000000000000e+00 -3.7999999706642891e+00 -2.9773854998442626e-02 -5.6676528156092820e-01 +5.6625797573564961e-03
-3.9000000000000021e+00 +7.9195692775496900e+00 +0.0000000000000000e+00 -3.8999999682868207e+00 -2.9773893139751800e-02 -5.6676552756367926e-01 +5.6626256516810391e-03
-4.0000000000000018e+00 +7.9195469059714876e+00 +0.0000000000000000e+00 -3.9999999657842493e+00 -2.9773927682466696e-02 -5.6676578417242862e-01 +5.6626709640318264e-03
-4.1000000000000014e+00 +7.9195239680195906e+00 +0.0000000000000000e+00 -4.0999999631533672e+00 -2.9773957996904611e-02 -5.6676605212155529e-01 +5.6627155705230902e-03
-4.2000000000000011e+00 +7.9195004636937325e+00 +0.0000000000000000e+00 -4.1999999603909668e+00 -2.9773983774367213e-02 -5.6676633091120221e-01 +5.6627594303027802e-03
-4.3000000000000007e+00 +7.9194763929936345e+00 +0.0000000000000000e+00 -4.2999999574938403e+00 -2.9774004786405812e-02 -5.6676661973295350e-01 +5.6628025232758460e-03
-4.4000000000000004e+00 +7.9194517559190096e+00 +0.0000000000000000e+00 -4.3999999544587798e+00 -2.9774020804574159e-02 -5.6676691777839117e-01 +5.6628448293453114e-03
-4.5000000000000000e+00 +7.9194265524695604e+00 +0.0000000000000000e+00 -4.4999999512825770e+00 -2.9774031600428845e-02 -5.6676722423909609e-01 +5.6628863284121540e-03
-4.5999999999999996e+00 +7.9194007826449813e+00 +0.0000000000000000e+00 -4.5999999479620239e+00 -2.9774036945529471e-02 -5.6676753830664717e-01 +5.6629270003751564e-03
-4.6999999999999993e+00 +7.9193744464449596e+00 +0.0000000000000000e+00 -4.6999999444939133e+00 -2.9774036611439014e-02 -5.6676785917262296e-01 +5.6629668251307755e-03
-4.7999999999999989e+00 +7.9193475438691756e+00 +0.0000000000000000e+00 -4.7999999408750371e+00 -2.9774030369724071e-02 -5.6676818602860035e-01 +5.6630057825730034e-03
-4.8999999999999986e+00 +7.9193200749173043e+00 +0.0000000000000000e+00 -4.8999999371021872e+00 -2.9774017991955122e-02 -5.6676851806615536e-01 +5.6630438525932247e-03
-4.9999999999999982e+00 +7.9192920395890143e+00 +0.0000000000000000e+00 -4.9999999331721554e+00 -2.9773999249706907e-02 -5.6676885447686476e-01 +5.6630810150800955e-03
-5.0999999999999979e+00 +7.9192634378839699e+00 +0.0000000000000000e+00 -5.0999999290817337e+00 -2.9773973914558584e-02 -5.6676919445230334e-01 +5.6631172499193843e-03
-5.1999999999999975e+00 +7.9192342698018328e+00 +0.0000000000000000e+00 -5.1999999248277149e+00 -2.9773941758094107e-02 -5.6676953718404688e-01 +5.6631525369938542e-03
-5.2999999999999972e+00 +7.9192045353422609e+00 +0.0000000000000000e+00 -5.2999999204068908e+00 -2.9773902551902483e-02 -5.6676988186367050e-01 +5.6631868561831146e-03
-5.3999999999999968e+00 +7.9191742345049114e+00 +0.0000000000000000e+00 -5.3999999158160534e+00 -2.9773856067578035e-02 -5.6677022768274987e-01 +5.6632201873634850e-03
-5.4999999999999964e+00 +7.9191433672894398e+00 +0.0000000000000000e+00 -5.4999999110519946e+00 -2.9773802076720701e-02 -5.6677057383286100e-01 +5.6632525104078658e-03
-5.5999999999999961e+00 +7.9191119336955014e+00 +0.0000000000000000e+00 -5.5999999061115071e+00 -2.9773740350936356e-02 -5.6677091950558056e-01 +5.6632838051855891e-03
-5.6999999999999957e+00 +7.9190799337227515e+00 +0.0000000000000000e+00 -5.6999999009913820e+00 -2.9773670661837021e-02 -5.6677126389248633e-01 +5.6633140515622935e-03
-5.7999999999999954e+00 +7.9190473673708475e+00 +0.0000000000000000e+00 -5.7999998956884120e+00 -2.9773592781041219e-02 -5.6677160618515665e-01 +5.6633432293997808e-03
-5.8999999999999950e+00 +7.9190142346394472e+00 +0.0000000000000000e+00 -5.8999998901993891e+00 -2.9773506480174215e-02 -5.6677194557517152e-01 +5.6633713185558756e-03
-5.9999999999999947e+00 +7.9189805355282141e+00 +0.0000000000000000e+00 -5.9999998845211051e+00 -2.9773411530868318e-02 -5.6677228125411216e-01 +5.6633982988842984e-03
-6.0999999999999943e+00 +7.9189462700368134e+00 +0.0000000000000000e+00 -6.0999998786503520e+00 -2.9773307964210564e-02 -5.6677261259814093e-01 +5.6634241883121751e-03
-6.1999999999999940e+00 +7.9189114381649146e+00 +0.0000000000000000e+00 -6.1999998725839216e+00 -2.9773196849088714e-02 -5.6677293972175802e-01 +5.6634491570756781e-03
-6.2999999999999936e+00 +7.9188760399121918e+00 +0.0000000000000000e+00 -6.2999998663186059e+00 -2.9773079513847035e-02 -5.6677326292408814e-01 +5.6634734134907360e-03
-6.3999999999999932e+00 +7.9188400752783235e+00 +0.0000000000000000e+00 -6.3999998598511976e+00 -2.9772957286837268e-02 -5.6677358250430487e-01 +5.6634971658758001e-03
-6.4999999999999929e+00 +7.9188035442629916e+00 +0.0000000000000000e+00 -6.4999998531784886e+00 -2.9772831496418919e-02 -5.6677389876163209e-01 +5.6635206225519857e-03
-6.5999999999999925e+00 +7.9187664468658809e+00 +0.0000000000000000e+00 -6.5999998462972700e+00 -2.9772703470959484e-02 -5.6677421199534783e-01 +5.6635439918432100e-03
-6.6999999999999922e+00 +7.9187287830866806e+00 +0.0000000000000000e+00 -6.6999998392043345e+00 -2.9772574538834706e-02 -5.6677452250478433e-01 +5.6635674820763281e-03
-6.7999999999999918e+00 +7.9186905529250806e+00 +0.0000000000000000e+00 -6.7999998318964741e+00 -2.9772446028428840e-02 -5.6677483058933109e-01 +5.6635913015812764e-03
-6.8999999999999915e+00 +7.9186517563807737e+00 +0.0000000000000000e+00 -6.8999998243704805e+00 -2.9772319268134905e-02 -5.6677513654843692e-01 +5.6636156586912061e-03
-6.9999999999999911e+00 +7.9186123934534560e+00 +0.0000000000000000e+00 -6.9999998166231467e+00 -2.9772195586354907e-02 -5.6677544068161090e-01 +5.6636407617426205e-03
-7.0999999999999908e+00 +7.9185724641428257e+00 +0.0000000000000000e+00 -7.0999998086512637e+00 -2.9772076311500129e-02 -5.6677574328842606e-01 +5.6636668190755222e-03
-7.1999999999999904e+00 +7.9185319684485806e+00 +0.0000000000000000e+00 -7.1999998004516232e+00 -2.9771962771991352e-02 -5.6677604466852005e-01 +5.6636940390335363e-03
-7.2999999999999901e+00 +7.9184909063704207e+00 +0.0000000000000000e+00 -7.2999997920210182e+00 -2.9771856296259128e-02 -5.6677634512159736e-01 +5.6637226299640631e-03
-7.3999999999999897e+00 +7.9184492779080475e+00 +0.0000000000000000e+00 -7.3999997833562396e+00 -2.9771758212743988e-02 -5.6677664494743207e-01 +5.6637528002184039e-03
-7.4999999999999893e+00 +7.9184070830611626e+00 +0.0000000000000000e+00 -7.4999997744540803e+00 -2.9771669849896740e-02 -5.6677694444586868e-01 +5.6637847581519031e-03
-7.5999999999999890e+00 +7.9183643218294675e+00 +0.0000000000000000e+00 -7.5999997653113311e+00 -2.9771592536178729e-02 -5.6677724391682560e-01 +5.6638187121240960e-03
-7.6999999999999886e+00 +7.9183209942126656e+00 +0.0000000000000000e+00 -7.6999997559247850e+00 -2.9771527600061985e-02 -5.6677754366029576e-01 +5.6638548704988243e-03
-7.7999999999999883e+00 +7.9182771002104575e+00 +0.0000000000000000e+00 -7.7999997462912338e+00 -2.9771476370029588e-02 -5.6677784397634901e-01 +5.6638934416443944e-03
-7.8999999999999879e+00 +7.9182326398225449e+00 +0.0000000000000000e+00 -7.8999997364074694e+00 -2.9771440174575857e-02 -5.6677814516513514e-01 +5.6639346339336996e-03
-7.9999999999999876e+00 +7.9181876130486284e+00 +0.0000000000000000e+00 -7.9999997262702838e+00 -2.9771420342206582e-02 -5.6677844752688455e-01 +5.6639786557443729e-03
-8.0999999999999872e+00 +7.9181420198884069e+00 +0.0000000000000000e+00 -8.0999997158764678e+00 -2.9771417738897278e-02 -5.6677875139264910e-01 +5.6640256467549287e-03
-8.1999999999999869e+00 +7.9180958603415785e+00 +0.0000000000000000e+00 -8.1999997052228153e+00 -2.9771431380451147e-02 -5.6677905721646793e-01 +5.6640754718292044e-03
-8.2999999999999865e+00 +7.9180491344078385e+00 +0.0000000000000000e+00 -8.2999996943061163e+00 -2.9771459820131234e-02 -5.6677936548305374e-01 +5.6641279271268429e-03
-8.3999999999999861e+00 +7.9180018420868805e+00 +0.0000000000000000e+00 -8.3999996831231645e+00 -2.9771501611210054e-02 -5.6677967667703932e-01 +5.6641828088080286e-03
-8.4999999999999858e+00 +7.9179539833783954e+00 +0.0000000000000000e+00 -8.4999996716707500e+00 -2.9771555306969639e-02 -5.6677999128297252e-01 +5.6642399130334793e-03
-8.5999999999999854e+00 +7.9179055582820705e+00 +0.0000000000000000e+00 -8.5999996599456665e+00 -2.9771619460701820e-02 -5.6678030978531468e-01 +5.6642990359644591e-03
-8.6999999999999851e+00 +7.9178565667975880e+00 +0.0000000000000000e+00 -8.6999996479447042e+00 -2.9771692625708380e-02 -5.6678063266843770e-01 +5.6643599737627726e-03
-8.7999999999999847e+00 +7.9178070089246280e+00 +0.0000000000000000e+00 -8.7999996356646566e+00 -2.9771773355301165e-02 -5.6678096041661974e-01 +5.6644225225907611e-03
-8.8999999999999844e+00 +7.9177568846628636e+00 +0.0000000000000000e+00 -8.8999996231023140e+00 -2.9771860202802338e-02 -5.6678129351404305e-01 +5.6644864786113136e-03
-8.9999999999999840e+00 +7.9177061940119637e+00 +0.0000000000000000e+00 -8.9999996102544699e+00 -2.9771951721544527e-02 -5.6678163244479152e-01 +5.6645516379878590e-03
-9.0999999999999837e+00 +7.9176549369715916e+00 +0.0000000000000000e+00 -9.0999995971179146e+00 -2.9772046464870982e-02 -5.6678197769284633e-01 +5.6646177968843730e-03
-9.1999999999999833e+00 +7.9176031135414036e+00 +0.0000000000000000e+00 -9.1999995836894399e+00 -2.9772142986135796e-02 -5.6678232974208409e-01 +5.6646847514653792e-03
-9.2999999999999829e+00 +7.9175507237210487e+00 +0.0000000000000000e+00 -9.2999995699658395e+00 -2.9772239838704032e-02 -5.6678268907627305e-01 +5.6647522978959400e-03
-9.3999999999999826e+00 +7.9174977675101710e+00 +0.0000000000000000e+00 -9.3999995559439036e+00 -2.9772335575951967e-02 -5.6678305617907110e-01 +5.6648202323416798e-03
-9.4999999999999822e+00 +7.9174442449084044e+00 +0.0000000000000000e+00 -9.4999995416204239e+00 -2.9772428751267191e-02 -5.6678343153402166e-01 +5.6648883509687626e-03
-9.5999999999999819e+00 +7.9173901559153759e+00 +0.0000000000000000e+00 -9.5999995269921925e+00 -2.9772517918048864e-02 -5.6678381562455038e-01 +5.6649564499439090e-03
-9.6999999999999815e+00 +7.9173355005307027e+00 +0.0000000000000000e+00 -9.6999995120560030e+00 -2.9772601629707882e-02 -5.6678420893396442e-01 +5.6650243254343924e-03
-9.7999999999999812e+00 +7.9172802787539940e+00 +0.0000000000000000e+00 -9.7999994968086455e+00 -2.9772678439667025e-02 -5.6678461194544649e-01 +5.6650917736080436e-03
-9.8999999999999808e+00 +7.9172244905848483e+00 +0.0000000000000000e+00 -9.8999994812469119e+00 -2.9772746901361166e-02 -5.6678502514205353e-01 +5.6651585906332472e-03
-9.9999999999999805e+00 +7.9171681360228554e+00 +0.0000000000000000e+00 -9.9999994653675941e+00 -2.9772805568237481e-02 -5.6678544900671424e-01 +5.6652245726789615e-03
-1.0099999999999980e+01 +7.9171112150675924e+00 +0.0000000000000000e+00 -1.0099999449167484e+01 -2.9772853394268311e-02 -5.6678588384853323e-01 +5.6652895748726308e-03
-1.0199999999999980e+01 +7.9170537277186277e+00 +0.0000000000000000e+00 -1.0199999432643372e+01 -2.9772890935485949e-02 -5.6678632928175643e-01 +5.6653536881762240e-03
-1.0299999999999979e+01 +7.9169956739755172e+00 +0.0000000000000000e+00 -1.0299999415792051e+01 -2.9772919148379519e-02 -5.6678678474693589e-01 +5.6654170625077003e-03
-1.0399999999999979e+01 +7.9169370538378079e+00 +0.0000000000000000e+00 -1.0399999398610314e+01 -2.9772938989360113e-02 -5.6678724968463734e-01 +5.6654798477806679e-03
-1.0499999999999979e+01 +7.9168778673050371e+00 +0.0000000000000000e+00 -1.0499999381094950e+01 -2.9772951414758862e-02 -5.6678772353544293e-01 +5.6655421939042650e-03
-1.0599999999999978e+01 +7.9168181143767340e+00 +0.0000000000000000e+00 -1.0599999363242752e+01 -2.9772957380824833e-02 -5.6678820573994981e-01 +5.6656042507830431e-03
-1.0699999999999978e+01 +7.9167577950524173e+00 +0.0000000000000000e+00 -1.0699999345050513e+01 -2.9772957843723118e-02 -5.6678869573877333e-01 +5.6656661683168437e-03
-1.0799999999999978e+01 +7.9166969093316002e+00 +0.0000000000000000e+00 -1.0799999326515023e+01 -2.9772953759532757e-02 -5.6678919297254560e-01 +5.6657280964006766e-03
-1.0899999999999977e+01 +7.9166354572137880e+00 +0.0000000000000000e+00 -1.0899999307633074e+01 -2.9772946084244752e-02 -5.6678969688191727e-01 +5.6657901849246029e-03
-1.0999999999999977e+01 +7.9165734386984790e+00 +0.0000000000000000e+00 -1.0999999288401456e+01 -2.9772935773760060e-02 -5.6679020690755821e-01 +5.6658525837736161e-03
-1.1099999999999977e+01 +7.9165108537851649e+00 +0.0000000000000000e+00 -1.1099999268816964e+01 -2.9772923783887587e-02 -5.6679072249015772e-01 +5.6659154428275104e-03
-1.1199999999999976e+01 +7.9164477024733335e+00 +0.0000000000000000e+00 -1.1199999248876388e+01 -2.9772911070342127e-02 -5.6679124307042594e-01 +5.6659789119607755e-03
-1.1299999999999976e+01 +7.9163839847624660e+00 +0.0000000000000000e+00 -1.1299999228576519e+01 -2.9772898588742429e-02 -5.6679176808909371e-01 +5.6660431410424606e-03
-1.1399999999999975e+01 +7.9163197006520400e+00 +0.0000000000000000e+00 -1.1399999207914149e+01 -2.9772887294609120e-02 -5.6679229698691480e-01 +5.6661082799360643e-03
-1.1499999999999975e+01 +7.9162548501415291e+00 +0.0000000000000000e+00 -1.1499999186886070e+01 -2.9772878143362710e-02 -5.6679282920466445e-01 +5.6661744784994045e-03
-1.1599999999999975e+01 +7.9161894332304028e+00 +0.0000000000000000e+00 -1.1599999165489074e+01 -2.9772872090321593e-02 -5.6679336418314219e-01 +5.6662418865845009e-03
-1.1699999999999974e+01 +7.9161234499181301e+00 +0.0000000000000000e+00 -1.1699999143719950e+01 -2.9772870090699993e-02 -5.6679390136317132e-01 +5.6663106540374543e-03
