# multipoles
# s[mm] polynom_b[n=0][T/m^n] polynom_b[n=1][T/m^n] polynom_b[n=2][T/m^n] polynom_b[n=3][T/m^n] polynom_b[n=4][T/m^n] polynom_b[n=5][T/m^n] polynom_b[n=6][T/m^n] 
+0.0000000000000000e+00 -5.3835747121293165e-01 +7.3454910720489393e+00 -1.3069661872311296e+00 +3.5228661599343518e+01 +8.6951876585612445e+03 -4.2670432445698511e+05 -3.5592035274605766e+07 
-1.0000000000000001e-01 -5.3835729291047740e-01 +7.3455045397101912e+00 -1.3068153039862949e+00 +3.4791839499908249e+01 +8.6885265126021204e+03 -4.2458771729329263e+05 -3.5479790857849807e+07 
-2.0000000000000001e-01 -5.3835711686656185e-01 +7.3455208157482001e+00 -1.3068039219043848e+00 +3.4303348280582881e+01 +8.6849260465752031e+03 -4.2221357918002689e+05 -3.5383014697412729e+07 
-3.0000000000000004e-01 -5.3835694339222850e-01 +7.3455396096850407e+00 -1.3068934434315855e+00 +3.3768838826710400e+01 +8.6838552890784795e+03 -4.1960554364541703e+05 -3.5299838576010540e+07 
-4.0000000000000002e-01 -5.3835677279857563e-01 +7.3455606310438712e+00 -1.3070452653760831e+00 +3.3193962004861085e+01 +8.6847831684001212e+03 -4.1678724411699874e+05 -3.5228393818614438e+07 
-5.0000000000000000e-01 -5.3835660539668939e-01 +7.3455835893452184e+00 -1.3072207860645064e+00 +3.2584368728016962e+01 +8.6871786424356233e+03 -4.1378231418269227e+05 -3.5166811895945743e+07 
-5.9999999999999998e-01 -5.3835644149762962e-01 +7.3456081941100724e+00 -1.3073814070369323e+00 +3.1945709896597151e+01 +8.6905107258024182e+03 -4.1061438732768624e+05 -3.5113224536880232e+07 
-6.9999999999999996e-01 -5.3835628141251701e-01 +7.3456341548564845e+00 -1.3074885229229136e+00 +3.1283636482139297e+01 +8.6942483079563826e+03 -4.0730709736869275e+05 -3.5065762895802960e+07 
-7.9999999999999993e-01 -5.3835612545243672e-01 +7.3456611811021455e+00 -1.3075035323503508e+00 +3.0603799449448164e+01 +8.6978603460423165e+03 -4.0388407799363194e+05 -3.5022558427732311e+07 
-8.9999999999999991e-01 -5.3835597392848988e-01 +7.3456889823614677e+00 -1.3073878318690690e+00 +2.9911849851497454e+01 +8.7008157570854873e+03 -4.0036896333602397e+05 -3.4981742398341097e+07 
-9.9999999999999989e-01 -5.3835582715176822e-01 +7.3457172681461538e+00 -1.3071028191174243e+00 +2.9213438802381667e+01 +8.7025834749001679e+03 -3.9678538778063521e+05 -3.4941446146058448e+07 
-1.0999999999999999e+00 -5.3835568543335854e-01 +7.3457457479656689e+00 -1.3066098922849207e+00 +2.8514217472685058e+01 +8.7026324399635141e+03 -3.9315698595708871e+05 -3.4899801033032790e+07 
-1.2000000000000000e+00 -5.3835554908435279e-01 +7.3457741313246503e+00 -1.3058704482130106e+00 +2.7819837145784160e+01 +8.7004315601025719e+03 -3.8950739301218797e+05 -3.4854938252233505e+07 
-1.3000000000000000e+00 -5.3835541841583723e-01 +7.3458021277242427e+00 -1.3048458839027592e+00 +2.7135949197493545e+01 +8.6954497383559101e+03 -3.8586024453405401e+05 -3.4804988955647781e+07 
-1.4000000000000001e+00 -5.3835529373885382e-01 +7.3458294466623979e+00 -1.3034976012076525e+00 +2.6468205079804346e+01 +8.6871559615313217e+03 -3.8223917643383262e+05 -3.4748084675774008e+07 
-1.5000000000000002e+00 -5.3835517536448507e-01 +7.3458557976315220e+00 -1.3017869969504201e+00 +2.5822256385403445e+01 +8.6750191174557312e+03 -3.7866782530443504e+05 -3.4682356469024934e+07 
-1.6000000000000003e+00 -5.3835506360376573e-01 +7.3458808901161659e+00 -1.2996754724402195e+00 +2.5203754912476253e+01 +8.6585081637461553e+03 -3.7516982878576760e+05 -3.4605935686849199e+07 
-1.7000000000000004e+00 -5.3835495876774031e-01 +7.3459044336003956e+00 -1.2971244267568389e+00 +2.4618352462502603e+01 +8.6370920054148864e+03 -3.7176882441696175e+05 -3.4516953409070522e+07 
-1.8000000000000005e+00 -5.3835486116740539e-01 +7.3459261375576439e+00 -1.2940952645352146e+00 +2.4071701110621863e+01 +8.6102396440070770e+03 -3.6848845113479585e+05 -3.4413541154255524e+07 
-1.9000000000000006e+00 -5.3835477111377816e-01 +7.3459457114566664e+00 -1.2905493863447079e+00 +2.3569453058584358e+01 +8.5774199887996383e+03 -3.6535234848716098e+05 -3.4293829967980079e+07 
-2.0000000000000004e+00 -5.3835468891783134e-01 +7.3459628647605504e+00 -1.2864481973647561e+00 +2.3117260646782711e+01 +8.5381020246817425e+03 -3.6238415665417269e+05 -3.4155951228682831e+07 
-2.1000000000000005e+00 -5.3835461480116531e-01 +7.3459774065676555e+00 -1.2817637221541303e+00 +2.2718757113960805e+01 +8.4918615257585352e+03 -3.5960001415931713e+05 -3.3998269736031786e+07 
-2.2000000000000006e+00 -5.3835454862802201e-01 +7.3459895442367653e+00 -1.2765118039652235e+00 +2.2369590760805337e+01 +8.4387285148617575e+03 -3.5698674398226029e+05 -3.3820183940925881e+07 
-2.3000000000000007e+00 -5.3835449017326431e-01 +7.3459995846220068e+00 -1.2707195842859489e+00 +2.2063436925056823e+01 +8.3788534327926900e+03 -3.5452401920966542e+05 -3.3621375873961397e+07 
-2.4000000000000008e+00 -5.3835443921182224e-01 +7.3460078345871871e+00 -1.2644141968447729e+00 +2.1793970691542086e+01 +8.3123865788336971e+03 -3.5219151156482438e+05 -3.3401526901864372e+07 
-2.5000000000000009e+00 -5.3835439551857511e-01 +7.3460146009884273e+00 -1.2576227820831138e+00 +2.1554867385965196e+01 +8.2394783890431681e+03 -3.4996889425786299e+05 -3.3160319061543759e+07 
-2.6000000000000010e+00 -5.3835435886844096e-01 +7.3460201906876215e+00 -1.2503724769648390e+00 +2.1339802193719951e+01 +8.1602792478099127e+03 -3.4783583980835765e+05 -3.2897434175667483e+07 
-2.7000000000000011e+00 -5.3835432903634273e-01 +7.3460249105487527e+00 -1.2426904179343456e+00 +2.1142450276046262e+01 +8.0749395384167701e+03 -3.4577202075508196e+05 -3.2612554078540318e+07 
-2.8000000000000012e+00 -5.3835430579722532e-01 +7.3460290674333137e+00 -1.2346037407775818e+00 +2.0956486896541406e+01 +7.9836096504925517e+03 -3.4375711037774937e+05 -3.2305360674612164e+07 
-2.9000000000000012e+00 -5.3835428892603043e-01 +7.3460329682122740e+00 -1.2261395820560137e+00 +2.0775587091307752e+01 +7.8864400027143156e+03 -3.4177078085079324e+05 -3.1975536038074262e+07 
-3.0000000000000013e+00 -5.3835427819774484e-01 +7.3460369197521738e+00 -1.2173250742712596e+00 +2.0593426059860729e+01 +7.7835809542965690e+03 -3.3979270547815703e+05 -3.1622761995288361e+07 
-3.1000000000000014e+00 -5.3835427338735053e-01 +7.3460412289268273e+00 -1.2081873520787159e+00 +2.0403678836170812e+01 +7.6751829259623446e+03 -3.3780255682760669e+05 -3.1246720709487773e+07 
-3.2000000000000015e+00 -5.3835427426984905e-01 +7.3460462026129569e+00 -1.1987535488018635e+00 +2.0200020427347976e+01 +7.5613963326370604e+03 -3.3578000758038316e+05 -3.0847094357782353e+07 
-3.3000000000000016e+00 -5.3835428062029012e-01 +7.3460521476935128e+00 -1.1890507937368560e+00 +1.9976125708554573e+01 +7.4423715366585229e+03 -3.3370472990399873e+05 -3.0423564916717533e+07 
-3.4000000000000017e+00 -5.3835429221369879e-01 +7.3460593710537303e+00 -1.1791062210725105e+00 +1.9725669551383632e+01 +7.3182590189227503e+03 -3.3155639625099272e+05 -2.9975814982576761e+07 
-3.5000000000000018e+00 -5.3835430882517876e-01 +7.3460681795851608e+00 -1.1689469566276134e+00 +1.9442326701797445e+01 +7.1892091241578164e+03 -3.2931467863824079e+05 -2.9503526549965955e+07 
-3.6000000000000019e+00 -5.3835433022981671e-01 +7.3460788801835637e+00 -1.1586001305836351e+00 +1.9119771846215432e+01 +7.0553723085448582e+03 -3.2695924906288896e+05 -2.9006382204477157e+07 
-3.7000000000000020e+00 -5.3835435620276795e-01 +7.3460917797548824e+00 -1.1480928667621153e+00 +1.8751679452789585e+01 +6.9168989382500249e+03 -3.2446977862641652e+05 -2.8484064169469777e+07 
-3.8000000000000020e+00 -5.3835438651917111e-01 +7.3461071852075115e+00 -1.1374522932909403e+00 +1.8331723989768953e+01 +6.7739394913109900e+03 -3.2182593879955541e+05 -2.7936255263549760e+07 
-3.9000000000000021e+00 -5.3835442095422459e-01 +7.3461254034576067e+00 -1.1267055328664812e+00 +1.7853579771025533e+01 +6.6266443733933911e+03 -3.1900740052871598e+05 -2.7362638025681406e+07 
-4.0000000000000018e+00 -5.3835445928316161e-01 +7.3461467414316033e+00 -1.1158797067613264e+00 +1.7310920896643701e+01 +6.4751639998192386e+03 -3.1599383392520115e+05 -2.6762895117252409e+07 
-4.1000000000000014e+00 -5.3835450125006556e-01 +7.3461713845152596e+00 -1.1050056972189373e+00 +1.6700021742132737e+01 +6.3197839051272695e+03 -3.1277481562438002e+05 -2.6137521947640248e+07 
-4.2000000000000011e+00 -5.3835454647367631e-01 +7.3461990366784615e+00 -1.0941262447096707e+00 +1.6027307965811371e+01 +6.1612622436379443e+03 -3.0937791312390077e+05 -2.5490010700255748e+07 
-4.3000000000000007e+00 -5.3835459454116041e-01 +7.3462292826084878e+00 -1.0832862710415327e+00 +1.5301682154393641e+01 +6.0004588866468830e+03 -3.0583977147741435e+05 -2.4824542515797582e+07 
-4.4000000000000004e+00 -5.3835464503968178e-01 +7.3462617070071055e+00 -1.0725306971565718e+00 +1.4532046478872747e+01 +5.8382336722214795e+03 -3.0219703325254598e+05 -2.4145298336185738e+07 
-4.5000000000000000e+00 -5.3835469755635124e-01 +7.3462958945771044e+00 -1.0619044487686913e+00 +1.3727303073866040e+01 +5.6754465109110070e+03 -2.9848634072357998e+05 -2.3456459403405283e+07 
-4.5999999999999996e+00 -5.3835475167824198e-01 +7.3463314300215208e+00 -1.0514524549271975e+00 +1.2896354073981620e+01 +5.5129573585991584e+03 -2.9474433610224130e+05 -2.2762207129849147e+07 
-4.6999999999999993e+00 -5.3835480699236959e-01 +7.3463678980575686e+00 -1.0412196495736203e+00 +1.2048101192252814e+01 +5.3516262399443840e+03 -2.9100765904797812e+05 -2.2066723195312552e+07 
-4.7999999999999989e+00 -5.3835486308572167e-01 +7.3464048834062643e+00 -1.0312509682897777e+00 +1.1191446033060465e+01 +5.1923131886519841e+03 -2.8731294850995182e+05 -2.1374189267943971e+07 
-4.8999999999999986e+00 -5.3835491954523873e-01 +7.3464419707895932e+00 -1.0215913505397505e+00 +1.0335290169888943e+01 +5.0358782882517244e+03 -2.8369684315340285e+05 -2.0688787193905730e+07 
-4.9999999999999982e+00 -5.3835497595777426e-01 +7.3464787449416313e+00 -1.0122857443540736e+00 +9.4885348138956722e+00 +4.8831817589323337e+03 -2.8019597941009718e+05 -2.0014699405908298e+07 
-5.0999999999999979e+00 -5.3835503191017131e-01 +7.3465147906013657e+00 -1.0033790965286682e+00 +8.6600810387945071e+00 +4.7350837692265914e+03 -2.7684699282359629e+05 -1.9356108022330936e+07 
-5.1999999999999975e+00 -5.3835508698918766e-01 +7.3465496925150768e+00 -9.9491636236164538e-01 +7.8588296790149350e+00 +4.5924446210625538e+03 -2.7368651736018399e+05 -1.8717195726111203e+07 
-5.2999999999999972e+00 -5.3835514078153190e-01 +7.3465830354335404e+00 -9.8694250002172190e-01 +7.0936814450821242e+00 +4.4561246370735535e+03 -2.7075118616898882e+05 -1.8102145216947209e+07 
-5.3999999999999968e+00 -5.3835519287383904e-01 +7.3466144041188137e+00 -9.7950247502157495e-01 +6.3735366993474676e+00 +4.3269842523631578e+03 -2.6807763019435742e+05 -1.7515139664570723e+07 
-5.4999999999999964e+00 -5.3835524285269210e-01 +7.3466433833385265e+00 -9.7264125539551471e-01 +5.7072956369655268e+00 +4.2058839094226551e+03 -2.6570247926418064e+05 -1.6960362174051631e+07 
-5.5999999999999961e+00 -5.3835529030460150e-01 +7.3466695578666688e+00 -9.6640381624964355e-01 +5.1038582462579729e+00 +4.0936841559047693e+03 -2.6366236181225505e+05 -1.6441996280845240e+07 
-5.6999999999999957e+00 -5.3835533481599751e-01 +7.3466925124863849e+00 -9.6083513857096203e-01 +4.5721242347397659e+00 +3.9912456081430423e+03 -2.6199390445527370e+05 -1.5964225742687333e+07 
-5.7999999999999954e+00 -5.3835537597325889e-01 +7.3467118319914988e+00 -9.5598020735082190e-01 +4.1209929947647153e+00 +3.8994289258214312e+03 -2.6073373181769176e+05 -1.5531234445371242e+07 
-5.8999999999999950e+00 -5.3835541336265746e-01 +7.3467271011800941e+00 -9.5188401703212744e-01 +3.7593637644171456e+00 +3.8190949030052602e+03 -2.5991846739274234e+05 -1.5147206802439697e+07 
-5.9999999999999947e+00 -5.3835544657041545e-01 +7.3467379048598351e+00 -9.4859156471828221e-01 +3.4961354913768927e+00 +3.7511043449943131e+03 -2.5958473279724456e+05 -1.4816327189826224e+07 
-6.0999999999999943e+00 -5.3835547532475236e-01 +7.3467439526402911e+00 -9.4613303703902840e-01 +3.3375796017746397e+00 +3.6960628499316085e+03 -2.5975730230516335e+05 -1.4541596068053851e+07 
-6.1999999999999940e+00 -5.3835549993298992e-01 +7.3467454468274118e+00 -9.4448286967405648e-01 +3.2796224343588936e+00 +3.6536299651236604e+03 -2.6041469451513325e+05 -1.4321600007452410e+07 
-6.2999999999999936e+00 -5.3835552085000293e-01 +7.3467427115196609e+00 -9.4360241581366655e-01 +3.3156409398330173e+00 +3.6232469507436267e+03 -2.6152414151559657e+05 -1.4153899298702247e+07 
-6.3999999999999932e+00 -5.3835553853068641e-01 +7.3467360708156129e+00 -9.4345302787749208e-01 +3.4390120241442146e+00 +3.6043550602338109e+03 -2.6305287513501343e+05 -1.4036054215352625e+07 
-6.4999999999999929e+00 -5.3835555343003250e-01 +7.3467258488078562e+00 -9.4399604801423431e-01 +3.6431127336726372e+00 +3.5963953651548795e+03 -2.6496812800225383e+05 -1.3965624202037228e+07 
-6.5999999999999925e+00 -5.3835556600303280e-01 +7.3467123695881593e+00 -9.4519281956157064e-01 +3.9213200847451937e+00 +3.5988089676348754e+03 -2.6723713249810651e+05 -1.3940168871471191e+07 
-6.6999999999999922e+00 -5.3835557670475387e-01 +7.3466959572428667e+00 -9.4700467856821569e-01 +4.2670112102395947e+00 +3.6110368419981696e+03 -2.6982712165511609e+05 -1.3957247255043160e+07 
-6.7999999999999918e+00 -5.3835558599028965e-01 +7.3466769358540658e+00 -9.4939295952701230e-01 +4.6735633147554436e+00 +3.6325199474897900e+03 -2.7270532886061090e+05 -1.4014418352775354e+07 
-6.8999999999999915e+00 -5.3835559431479529e-01 +7.3466556294974446e+00 -9.5231899093392935e-01 +5.1343537407622080e+00 +3.6626991384712796e+03 -2.7583898826346698e+05 -1.4109240689522240e+07 
-6.9999999999999911e+00 -5.3835560213348910e-01 +7.3466323622458622e+00 -9.5574409572228347e-01 +5.6427598558161112e+00 +3.7010151789192309e+03 -2.7919533409595804e+05 -1.4239272400740923e+07 
-7.0999999999999908e+00 -5.3835560990165443e-01 +7.3466074581674823e+00 -9.5962959059062913e-01 +6.1921591119616144e+00 +3.7469087284936686e+03 -2.8274160103374685e+05 -1.4402071165571449e+07 
-7.1999999999999904e+00 -5.3835561807459509e-01 +7.3465812413255147e+00 -9.6393679194599202e-01 +6.7759290434727264e+00 +3.7998204539261055e+03 -2.8644502416045952e+05 -1.4595194728937294e+07 
-7.2999999999999901e+00 -5.3835562710772877e-01 +7.3465540357736776e+00 -9.6862700408329694e-01 +7.3874474069743767e+00 +3.8591908072300198e+03 -2.9027283981387626e+05 -1.4816199856367840e+07 
-7.3999999999999897e+00 -5.3835563745649406e-01 +7.3465261655653089e+00 -9.7366153130037947e-01 +8.0200919070531214e+00 +3.9244602568240280e+03 -2.9419228395979770e+05 -1.5062643434979677e+07 
-7.4999999999999893e+00 -5.3835564957642557e-01 +7.3464979547430183e+00 -9.7900166816107814e-01 +8.6672404963120648e+00 +3.9950691024785879e+03 -2.9817059394428652e+05 -1.5332081594577108e+07 
-7.5999999999999890e+00 -5.3835566392311807e-01 +7.3464697273457187e+00 -9.8460870430141689e-01 +9.3222711656971899e+00 +4.0704575669739706e+03 -3.0217500726136693e+05 -1.5622070142789571e+07 
-7.6999999999999886e+00 -5.3835568095222697e-01 +7.3464418074059692e+00 -9.9044392422526473e-01 +9.9785620330333948e+00 +4.1500657919260320e+03 -3.0617276210467133e+05 -1.5930164544950448e+07 
-7.7999999999999883e+00 -5.3835570111949638e-01 +7.3464145189468990e+00 -9.9646860422774941e-01 +1.0629491411571520e+01 +4.2333337827615424e+03 -3.1013109770931158e+05 -1.6253919672484426e+07 
-7.8999999999999879e+00 -5.3835572488074934e-01 +7.3463881859838658e+00 -1.0026440135155357e+00 +1.1268437775106317e+01 +4.3197014289354865e+03 -3.1401725419049227e+05 -1.6590889895095529e+07 
-7.9999999999999876e+00 -5.3835575269187197e-01 +7.3463631325288521e+00 -1.0089314165411210e+00 +1.1888779624950631e+01 +4.4086085498916864e+03 -3.1779847183678788e+05 -1.6938629310709428e+07 
-8.0999999999999872e+00 -5.3835578497457104e-01 +7.3463396241677605e+00 -1.0152939465886965e+00 +1.2484975602678027e+01 +4.4995414191993887e+03 -3.2144748075722437e+05 -1.7295016129369836e+07 
-8.1999999999999869e+00 -5.3835582200356646e-01 +7.3463176952667899e+00 -1.0217005005354944e+00 +1.3055627162025239e+01 +4.5921438488807544e+03 -3.2495732548375451e+05 -1.7659082397029091e+07 
-8.2999999999999865e+00 -5.3835586401454005e-01 +7.3462973228418900e+00 -1.0281209586214612e+00 +1.3600328802087509e+01 +4.6860918268631549e+03 -3.2832573432003410e+05 -1.8030114829435103e+07 
-8.3999999999999861e+00 -5.3835591124317994e-01 +7.3462784838911830e+00 -1.0345252000014262e+00 +1.4118675474253012e+01 +4.7810613246473022e+03 -3.3155043780893454e+05 -1.8407400079443250e+07 
-8.4999999999999858e+00 -5.3835596392515450e-01 +7.3462611553959496e+00 -1.0408831053445042e+00 +1.4610262574476037e+01 +4.8767283428079572e+03 -3.3462916873384884e+05 -1.8790224942150947e+07 
-8.5999999999999854e+00 -5.3835602229615609e-01 +7.3462453143204689e+00 -1.0471645521549349e+00 +1.5074685935888485e+01 +4.9727688260114519e+03 -3.3755966203835967e+05 -1.9177875961784128e+07 
-8.6999999999999851e+00 -5.3835608659187617e-01 +7.3462309376139032e+00 -1.0533394172772552e+00 +1.5511541783839521e+01 +5.0688587065911579e+03 -3.4033965458037914e+05 -1.9569639626167491e+07 
-8.7999999999999847e+00 -5.3835615704800499e-01 +7.3462180022086354e+00 -1.0593775770384706e+00 +1.5920426778653061e+01 +5.1646739108830288e+03 -3.4296688536622864e+05 -1.9964802410559434e+07 
-8.8999999999999844e+00 -5.3835623390024567e-01 +7.3462064850153368e+00 -1.0652489056867409e+00 +1.6300938155294617e+01 +5.2598903270607034e+03 -3.4543909633580525e+05 -2.0362650614155326e+07 
-8.9999999999999840e+00 -5.3835631738428413e-01 +7.3461963629287537e+00 -1.0709232791801420e+00 +1.6652673559440661e+01 +5.3541838802248476e+03 -3.4775403142114804e+05 -2.0762470726661444e+07 
-9.0999999999999837e+00 -5.3835640773583759e-01 +7.3461876128266841e+00 -1.0763705682080063e+00 +1.6975231072798938e+01 +5.4472303937863262e+03 -3.4990943667521764e+05 -2.1163548755354643e+07 
-9.1999999999999833e+00 -5.3835650519059941e-01 +7.3461802115624746e+00 -1.0815606463839080e+00 +1.7268209427313625e+01 +5.5387057528450150e+03 -3.5190306149303197e+05 -2.1565171020127382e+07 
-9.2999999999999829e+00 -5.3835660998428458e-01 +7.3461741359742758e+00 -1.0864633836623636e+00 +1.7531207743619692e+01 +5.6282857742771876e+03 -3.5373265711115586e+05 -2.1966623523540296e+07 
-9.3999999999999826e+00 -5.3835672235259091e-01 +7.3461693628787232e+00 -1.0910486514400215e+00 +1.7763825707099311e+01 +5.7156463046220260e+03 -3.5539597760418907e+05 -2.2367192419207562e+07 
-9.4999999999999822e+00 -5.3835684253124605e-01 +7.3461658690699281e+00 -1.0952863163087294e+00 +1.7965663593749827e+01 +5.8004631007402686e+03 -3.5689078001316218e+05 -2.2766163443481639e+07 
-9.5999999999999819e+00 -5.3835697075595945e-01 +7.3461636313225940e+00 -1.0991462469790909e+00 +1.8136322187557976e+01 +5.8824119659151220e+03 -3.5821482388378849e+05 -2.3162822572737060e+07 
-9.6999999999999815e+00 -5.3835710726244046e-01 +7.3461626263898356e+00 -1.1025983107237791e+00 +1.8275402836840350e+01 +5.9611686743024256e+03 -3.5936587156550202e+05 -2.3556455644809309e+07 
-9.7999999999999812e+00 -5.3835725228641085e-01 +7.3461628309991491e+00 -1.1056123726993050e+00 +1.8382507570647370e+01 +6.0364089651249660e+03 -3.6034168888456974e+05 -2.3946348350293342e+07 
-9.8999999999999808e+00 -5.3835740606360005e-01 +7.3461642218623471e+00 -1.1081582963291590e+00 +1.8457238806431651e+01 +6.1078085481448834e+03 -3.6114004342336260e+05 -2.4331786252443805e+07 
-9.9999999999999805e+00 -5.3835756882971852e-01 +7.3461667756615441e+00 -1.1102059464022080e+00 +1.8499199714350418e+01 +6.1750431546480977e+03 -3.6175870644747675e+05 -2.4712054998866249e+07 
-1.0099999999999980e+01 -5.3835774066872777e-01 +7.3461704417587379e+00 -1.1117387491431956e+00 +1.8508520584194049e+01 +6.2379164863775668e+03 -3.6219712919972074e+05 -2.5086666372072794e+07 
