# multipoles
# s[mm] polynom_b[n=0][T/m^n] polynom_b[n=1][T/m^n] polynom_b[n=2][T/m^n] polynom_b[n=3][T/m^n] polynom_b[n=4][T/m^n] polynom_b[n=5][T/m^n] polynom_b[n=6][T/m^n] 
+0.0000000000000000e+00 -5.8499787256866365e-01 +8.0424541134263752e+00 -5.2428853563080735e-01 +5.6026013552692504e+01 -3.8086866231467930e+03 -4.8060240773985273e+05 +1.0203971852632290e+07 
+1.0000000000000001e-01 -5.8499790812310326e-01 +8.0424907290768299e+00 -5.2379308957539250e-01 +5.5691860704894523e+01 -3.8595323737914537e+03 -4.8080535315801197e+05 +1.0581058197905706e+07 
+2.0000000000000001e-01 -5.8499794136870820e-01 +8.0425235388330645e+00 -5.2331372146546329e-01 +5.5342201809515913e+01 -3.9066132426550162e+03 -4.8053398470999463e+05 +1.0934327910071230e+07 
+2.9999999999999999e-01 -5.8499797507453266e-01 +8.0425519848053675e+00 -5.2285796764529857e-01 +5.4991391272039920e+01 -3.9498407074722795e+03 -4.7986640237992688e+05 +1.1262374554500496e+07 
+4.0000000000000002e-01 -5.8499801200956658e-01 +8.0425755091023383e+00 -5.2243336422557829e-01 +5.4653783525161572e+01 -3.9891262761519893e+03 -4.7888070622651250e+05 +1.1563791893633544e+07 
+5.0000000000000000e-01 -5.8499805494287094e-01 +8.0425935538253022e+00 -5.2204744324816932e-01 +5.4343733230332759e+01 -4.0243815572556655e+03 -4.7765499770742643e+05 +1.1837174224132676e+07 
+5.9999999999999998e-01 -5.8499810664347196e-01 +8.0426055610711611e+00 -5.2170773376850132e-01 +5.4075595193704139e+01 -4.0555182529333015e+03 -4.7626737920463632e+05 +1.2081116390854543e+07 
+6.9999999999999996e-01 -5.8499816988035747e-01 +8.0426109729300421e+00 -5.2142176213685554e-01 +5.3863724493385078e+01 -4.0824481562728042e+03 -4.7479595497156912e+05 +1.2294213790990606e+07 
+8.0000000000000004e-01 -5.8499824742256423e-01 +8.0426092314789894e+00 -5.2119705221533474e-01 +5.3722476658222490e+01 -4.1050831502772762e+03 -4.7331883217684500e+05 +1.2475062387610337e+07 
+9.0000000000000002e-01 -5.8499834203911483e-01 +8.0425997787852292e+00 -5.2104112148704351e-01 +5.3666207609584326e+01 -4.1233352901980470e+03 -4.7191412070561707e+05 +1.2622259134734368e+07 
+1.0000000000000000e+00 -5.8499845649897153e-01 +8.0425820569029067e+00 -5.2096148693736688e-01 +5.3709273779748578e+01 -4.1371166942424716e+03 -4.7065993394060468e+05 +1.2734401472364595e+07 
+1.1000000000000001e+00 -5.8499859281340449e-01 +8.0425559766570398e+00 -5.2095562383816907e-01 +5.3857551231735521e+01 -4.1465162336925068e+03 -4.6959835764940287e+05 +1.2811312705044480e+07 
+1.2000000000000000e+00 -5.8499874995332524e-01 +8.0425233167335577e+00 -5.2098536206716417e-01 +5.4083056743780666e+01 -4.1522448743572568e+03 -4.6862813885710604e+05 +1.2857339611764278e+07 
+1.3000000000000000e+00 -5.8499892612725035e-01 +8.0424863209990480e+00 -5.2100474096012273e-01 +5.4349357783307362e+01 -4.1551480457855150e+03 -4.6761238464807847e+05 +1.2877865941816149e+07 
+1.3999999999999999e+00 -5.8499911954381278e-01 +8.0424472333144230e+00 -5.2096779867409349e-01 +5.4620021967368061e+01 -4.1560711794962372e+03 -4.6641420305719256e+05 +1.2878275392064542e+07 
+1.5000000000000000e+00 -5.8499932841157543e-01 +8.0424082975398186e+00 -5.2082856819669077e-01 +5.4858616909367313e+01 -4.1558597649628045e+03 -4.6489670216021384e+05 +1.2863951811969241e+07 
+1.6000000000000001e+00 -5.8499955093929379e-01 +8.0423717575362410e+00 -5.2054108195784043e-01 +5.5028710151383230e+01 -4.1553592546615191e+03 -4.6292298962013965e+05 +1.2840278729219947e+07 
+1.7000000000000000e+00 -5.8499978533575769e-01 +8.0423398571566214e+00 -5.2005936767232608e-01 +5.5093869414478164e+01 -4.1554151263099475e+03 -4.6035617412958643e+05 +1.2812639594422584e+07 
+1.8000000000000000e+00 -5.8500002980982857e-01 +8.0423148402630691e+00 -5.1933745129947284e-01 +5.5017662067465466e+01 -4.1568728216418613e+03 -4.5705936223216826e+05 +1.2786417471024783e+07 
+1.8999999999999999e+00 -5.8500028257043712e-01 +8.0422989507134854e+00 -5.1832935589774243e-01 +5.4763655519300983e+01 -4.1605777488630365e+03 -4.5289566062667494e+05 +1.2766994990019128e+07 
+2.0000000000000000e+00 -5.8500054182666272e-01 +8.0422944323704009e+00 -5.1698910309726520e-01 +5.4295416935325839e+01 -4.1673752482635728e+03 -4.4772817444806319e+05 +1.2759754163142825e+07 
+2.1000000000000001e+00 -5.8500080576953450e-01 +8.0423027698533094e+00 -5.1529355229351592e-01 +5.3590636158672268e+01 -4.1777999147921319e+03 -4.4148628700673347e+05 +1.2768485736556547e+07 
+2.2000000000000002e+00 -5.8500107253283318e-01 +8.0423224157926718e+00 -5.1329843691781041e-01 +5.2683466469321843e+01 -4.1913794770688410e+03 -4.3436360388299852e+05 +1.2791734429585529e+07 
+2.2999999999999998e+00 -5.8500134023962236e-01 +8.0423510658414710e+00 -5.1107612690296877e-01 +5.1622174333628365e+01 -4.2074482016438651e+03 -4.2661958617601654e+05 +1.2827008483989064e+07 
+2.3999999999999999e+00 -5.8500160701279369e-01 +8.0423864156771163e+00 -5.0869900949096003e-01 +5.0455025397026915e+01 -4.2253400000698302e+03 -4.1851368929705769e+05 +1.2871814335446954e+07 
+2.5000000000000000e+00 -5.8500187097502532e-01 +8.0424261609983532e+00 -5.0623949425140813e-01 +4.9230284567497868e+01 -4.2443883298782221e+03 -4.1030536337171774e+05 +1.2923656126383176e+07 
+2.6000000000000001e+00 -5.8500213024884706e-01 +8.0424679975298510e+00 -5.0377001532863064e-01 +4.7996215886019293e+01 -4.2639261557159716e+03 -4.0225405242135323e+05 +1.2980035529404532e+07 
+2.7000000000000002e+00 -5.8500238295653828e-01 +8.0425096210238980e+00 -5.0136303276091254e-01 +4.6801082446298700e+01 -4.2832859225507009e+03 -3.9461919373078010e+05 +1.3038451609577047e+07 
+2.7999999999999998e+00 -5.8500262722012208e-01 +8.0425487272648901e+00 -4.9909103344445016e-01 +4.5693146275724949e+01 -4.3017995368530674e+03 -3.8766021713210054e+05 +1.3096400731775317e+07 
+2.8999999999999999e+00 -5.8500286116138467e-01 +8.0425830120681390e+00 -4.9702653874307329e-01 +4.4720668353415988e+01 -4.3187982214995473e+03 -3.8163654497228196e+05 +1.3151375862782748e+07 
+3.0000000000000000e+00 -5.8500308290183289e-01 +8.0426101712854106e+00 -4.9524209855188966e-01 +4.3931908429040391e+01 -4.3336126318413990e+03 -3.7680759091078391e+05 +1.3200867132780189e+07 
+3.1000000000000001e+00 -5.8500329142551566e-01 +8.0426284560069963e+00 -4.9380040195195707e-01 +4.3363831367338861e+01 -4.3456087723683568e+03 -3.7336889157429559e+05 +1.3242383704369441e+07 
+3.2000000000000002e+00 -5.8500348924238610e-01 +8.0426383560082684e+00 -4.9272538892073042e-01 +4.3008023974655842e+01 -4.3542793749763323e+03 -3.7125977035276825e+05 +1.3273276411728926e+07 
+3.2999999999999998e+00 -5.8500367976299061e-01 +8.0426409253549771e+00 -4.9203146451259860e-01 +4.2844674819985819e+01 -4.3591458872615149e+03 -3.7035526764604222e+05 +1.3290801904107453e+07 
+3.3999999999999999e+00 -5.8500386639802671e-01 +8.0426372180871617e+00 -4.9173300697057459e-01 +4.2853973521189410e+01 -4.3597303950894038e+03 -3.7053043163509388e+05 +1.3292220437556354e+07 
+3.5000000000000000e+00 -5.8500405255846244e-01 +8.0426282882132405e+00 -4.9184436432870970e-01 +4.3016110965148471e+01 -4.3555556906604188e+03 -3.7166031982690364e+05 +1.3274796229279494e+07 
+3.6000000000000001e+00 -5.8500424165547593e-01 +8.0426151897079858e+00 -4.9237984983143757e-01 +4.3311279390017766e+01 -4.3461453771428260e+03 -3.7361999968290469e+05 +1.3235798022370830e+07 
+3.7000000000000002e+00 -5.8500443710043715e-01 +8.0425989765135046e+00 -4.9335374464916165e-01 +4.3719672373401842e+01 -4.3310238215188128e+03 -3.7628454867911804e+05 +1.3172498890402874e+07 
+3.7999999999999998e+00 -5.8500464230507909e-01 +8.0425807025326641e+00 -4.9478028637646393e-01 +4.4221485057132092e+01 -4.3097163903815635e+03 -3.7952905579485249e+05 +1.3082177426055873e+07 
+3.8999999999999999e+00 -5.8500486068131774e-01 +8.0425614216264076e+00 -4.9667367694278275e-01 +4.4796914261476715e+01 -4.2817493062498124e+03 -3.8322862236477761e+05 +1.2962117091871947e+07 
+4.0000000000000000e+00 -5.8500509564149983e-01 +8.0425421876137690e+00 -4.9904806953760034e-01 +4.5426158494094317e+01 -4.2466499094232240e+03 -3.8725836223284656e+05 +1.2809607523210395e+07 
+4.0999999999999996e+00 -5.8500534963728812e-01 +8.0425240627012133e+00 -5.0189403581981318e-01 +4.6087035065451438e+01 -4.2044835605927938e+03 -3.9148158356831467e+05 +1.2624765246294389e+07 
+4.2000000000000002e+00 -5.8500562107827980e-01 +8.0425080985604627e+00 -5.0513624359102338e-01 +4.6748346679103420e+01 -4.1568300188290677e+03 -3.9571766247437103e+05 +1.2415857904830812e+07 
+4.2999999999999998e+00 -5.8500590731397417e-01 +8.0424953342358538e+00 -5.0868987169139024e-01 +4.7376733723322708e+01 -4.1054899249201699e+03 -3.9977562874091440e+05 +1.2192411502577547e+07 
+4.4000000000000004e+00 -5.8500620569382600e-01 +8.0424868088040391e+00 -5.1247010891897837e-01 +4.7938835400989518e+01 -4.0522635626994847e+03 -4.0346450413658452e+05 +1.1963949571917303e+07 
+4.5000000000000000e+00 -5.8500651356737954e-01 +8.0424835613653549e+00 -5.1639214065852279e-01 +4.8401289973263985e+01 -3.9989511107596609e+03 -4.0659330364453630e+05 +1.1739994334645486e+07 
+4.5999999999999996e+00 -5.8500682828417028e-01 +8.0424866310543770e+00 -5.2037115830057490e-01 +4.8730734441439310e+01 -3.9473524500973103e+03 -4.0897103354159871e+05 +1.1530065728080302e+07 
+4.7000000000000002e+00 -5.8500714719384261e-01 +8.0424970570337209e+00 -5.2432235617491574e-01 +4.8893804700405639e+01 -3.8992672100281716e+03 -4.1040669216865604e+05 +1.1343681566719126e+07 
+4.7999999999999998e+00 -5.8500746764606604e-01 +8.0425158784991737e+00 -5.2816093097628425e-01 +4.8857135382671196e+01 -3.8564947711482246e+03 -4.1070926897073491e+05 +1.1190357513308721e+07 
+4.9000000000000004e+00 -5.8500778699051181e-01 +8.0425441346860662e+00 -5.3180208537160478e-01 +4.8587359641377581e+01 -3.8208341846888115e+03 -4.0968774309320579e+05 +1.1079606638558084e+07 
+5.0000000000000000e+00 -5.8500810257694791e-01 +8.0425828648559357e+00 -5.3516102871128846e-01 +4.8051109555289855e+01 -3.7940841380478919e+03 -4.0715108581539377e+05 +1.1020939171072483e+07 
+5.0999999999999996e+00 -5.8500841205972443e-01 +8.0426324410934686e+00 -5.3819740806195404e-01 +4.7231764896239454e+01 -3.7770246485044845e+03 -4.0299845474589447e+05 +1.1018485270614900e+07 
+5.2000000000000002e+00 -5.8500871447029057e-01 +8.0426906199411139e+00 -5.4100363700042498e-01 +4.6178446330969798e+01 -3.7673821976358463e+03 -3.9748176228129747e+05 +1.1060152565608917e+07 
+5.2999999999999998e+00 -5.8500900922366572e-01 +8.0427545147907242e+00 -5.4369420934210178e-01 +4.4956479559724521e+01 -3.7623721738997610e+03 -3.9093961044151569e+05 +1.1131098940721940e+07 
+5.4000000000000004e+00 -5.8500929573449567e-01 +8.0428212390185028e+00 -5.4638364967549602e-01 +4.3631190688400103e+01 -3.7592095498900298e+03 -3.8371060335886665e+05 +1.1216480889666365e+07 
+5.5000000000000000e+00 -5.8500957341698656e-01 +8.0428879059920337e+00 -5.4918651800652030e-01 +4.2267905989358191e+01 -3.7551087929555456e+03 -3.7613334584651602e+05 +1.1301453097393228e+07 
+5.5999999999999996e+00 -5.8500984168500547e-01 +8.0429516290683480e+00 -5.5221740763694049e-01 +4.0931951954486301e+01 -3.7472839134522901e+03 -3.6854644369985774e+05 +1.1371168699936617e+07 
+5.7000000000000002e+00 -5.8501009995189768e-01 +8.0430095215895516e+00 -5.5559095194140440e-01 +3.9688655427100088e+01 -3.7329483479598048e+03 -3.6128850447269261e+05 +1.1410778769316277e+07 
+5.7999999999999998e+00 -5.8501034763064153e-01 +8.0430586968878526e+00 -5.5942181928792545e-01 +3.8603343447290634e+01 -3.7093150623545084e+03 -3.5469813656191272e+05 +1.1405432831111200e+07 
+5.9000000000000004e+00 -5.8501058413367002e-01 +8.0430962682785268e+00 -5.6382472381174187e-01 +3.7741343453742850e+01 -3.6735963542515151e+03 -3.4911395036405267e+05 +1.1340277952521484e+07 
+5.9999999999999902e+00 -5.8501080887297285e-01 +8.0431193490709987e+00 -5.6891441436639834e-01 +3.7167982945599547e+01 -3.6230040813185242e+03 -3.4487455638462142e+05 +1.1200459878250619e+07 
+6.0999999999999899e+00 -5.8501102229301394e-01 +8.0431259771351602e+00 -5.7472337432030662e-01 +3.6927870060432781e+01 -3.5563395188505374e+03 -3.4221523818441067e+05 +1.0978663138618400e+07 
+6.1999999999999904e+00 -5.8501122901331182e-01 +8.0431178545782149e+00 -5.8098631730456418e-01 +3.6984189978773337e+01 -3.4780495366446521e+03 -3.4096594695436675e+05 +1.0694172298616139e+07 
+6.2999999999999901e+00 -5.8501143470875250e-01 +8.0430975934538083e+00 -5.8737119660008963e-01 +3.7280073927946901e+01 -3.3938191734756110e+03 -3.4085696642199840e+05 +1.0372059138448961e+07 
+6.3999999999999897e+00 -5.8501164505478753e-01 +8.0430678057356655e+00 -5.9354591729352957e-01 +3.7758655690201216e+01 -3.3093342894168336e+03 -3.4161859615015337e+05 +1.0037399205135638e+07 
+6.4999999999999902e+00 -5.8501186572718056e-01 +8.0430311033269923e+00 -5.9917833924379704e-01 +3.8363071302085885e+01 -3.2302815017640805e+03 -3.4298114978823171e+05 +9.7152714937781487e+06 
+6.5999999999999899e+00 -5.8501210240237789e-01 +8.0429900980489482e+00 -6.0393626795936040e-01 +3.9036459406059180e+01 -3.1623483534619581e+03 -3.4467495718762832e+05 +9.4307592413122430e+06 
+6.6999999999999904e+00 -5.8501236075728835e-01 +8.0429474016391520e+00 -6.0748746025543077e-01 +3.9721961307783545e+01 -3.1112232050704888e+03 -3.4643036478390225e+05 +9.2089494154090323e+06 
+6.7999999999999901e+00 -5.8501264646927020e-01 +8.0429056257531837e+00 -6.0949961606877756e-01 +4.0362720938535567e+01 -3.0825953793979256e+03 -3.4797773541789496e+05 +9.0749333781894948e+06 
+6.8999999999999897e+00 -5.8501296521637014e-01 +8.0428673819531493e+00 -6.0964038159641065e-01 +4.0901885189284449e+01 -3.0821551032349726e+03 -3.4904745029552863e+05 +9.0538066172164641e+06 
+6.9999999999999902e+00 -5.8501332267722050e-01 +8.0428352817094844e+00 -6.0757734150993070e-01 +4.1282603893218976e+01 -3.1155936389854423e+03 -3.4936990874403907e+05 +9.1706693521864545e+06 
+7.0999999999999899e+00 -5.8501372279274144e-01 +8.0428114729753872e+00 -6.0309951192766609e-01 +4.1460182055324431e+01 -3.1866346052938052e+03 -3.4873878633818153e+05 +9.4422349298285712e+06 
+7.1999999999999904e+00 -5.8501416239682580e-01 +8.0427962705547813e+00 -5.9648181520444121e-01 +4.1437973126896715e+01 -3.2912588239415695e+03 -3.4719937072068907e+05 +9.8524593978482299e+06 
+7.2999999999999901e+00 -5.8501463650301511e-01 +8.0427895351905274e+00 -5.8812141023027098e-01 +4.1231235625416240e+01 -3.4235283254791816e+03 -3.4485965321174107e+05 +1.0377235921037406e+07 
+7.3999999999999897e+00 -5.8501514012460032e-01 +8.0427911277400970e+00 -5.7841550194101432e-01 +4.0855224822022706e+01 -3.5775040806099141e+03 -3.4182760630325455e+05 +1.0992451959725223e+07 
+7.4999999999999902e+00 -5.8501566827463802e-01 +8.0428009091686921e+00 -5.6776133971098197e-01 +4.0325192952941983e+01 -3.7472460233163742e+03 -3.3821118492089392e+05 +1.1673989351376021e+07 
+7.5999999999999899e+00 -5.8501621596601827e-01 +8.0428187405553331e+00 -5.5655622075838884e-01 +3.9656389030165791e+01 -3.9268129807537416e+03 -3.3411832528404787e+05 +1.2397723960592464e+07 
+7.6999999999999904e+00 -5.8501677821132803e-01 +8.0428444830966939e+00 -5.4519749250675675e-01 +3.8864058748457786e+01 -4.1102626250530475e+03 -3.2965694440234243e+05 +1.3139525430207966e+07 
+7.7999999999999901e+00 -5.8501735002303834e-01 +8.0428779981147809e+00 -5.3408254867765992e-01 +3.7963444247338479e+01 -4.2916515382966491e+03 -3.2493493864749355e+05 +1.3875257462838288e+07 
+7.8999999999999897e+00 -5.8501792641323014e-01 +8.0429191470562138e+00 -5.2360883823065985e-01 +3.6969784142239220e+01 -4.4650350388788374e+03 -3.2006018395139271e+05 +1.4580776976692343e+07 
+7.9999999999999902e+00 -5.8501850239379771e-01 +8.0429677915053741e+00 -5.1417386238775009e-01 +3.5898313021784325e+01 -4.6244672463339321e+03 -3.1514053219087893e+05 +1.5231934475632627e+07 
+8.0999999999999908e+00 -5.8501907406040199e-01 +8.0430235149702938e+00 -5.0610240681046015e-01 +3.4765671593324598e+01 -4.7650013119290234e+03 -3.1027328380342206e+05 +1.5808678538626563e+07 
+8.1999999999999904e+00 -5.8501964190565603e-01 +8.0430847881831049e+00 -4.9940437533109727e-01 +3.3593630991579282e+01 -4.8859404583366850e+03 -3.0551128316262743e+05 +1.6307658972048962e+07 
+8.2999999999999901e+00 -5.8502020754325545e-01 +8.0431498034964708e+00 -4.9400403502292306e-01 +3.2405057118024743e+01 -4.9877303354238420e+03 -3.0089509534470126e+05 +1.6729858093044952e+07 
+8.3999999999999897e+00 -5.8502077258668528e-01 +8.0432167532706202e+00 -4.8982564033039122e-01 +3.1222814663101378e+01 -5.0708171412620632e+03 -2.9646527508623328e+05 +1.7076261554379676e+07 
+8.4999999999999893e+00 -5.8502133864927863e-01 +8.0432838298754934e+00 -4.8679343545531856e-01 +3.0069767164109436e+01 -5.1356476090575907e+03 -2.9226236742955673e+05 +1.7347858383655723e+07 
+8.5999999999999908e+00 -5.8502190734409620e-01 +8.0433492256864518e+00 -4.8483165391602528e-01 +2.8968777124749401e+01 -5.1826690212241892e+03 -2.8832690839847521e+05 +1.7545641061534818e+07 
+8.6999999999999904e+00 -5.8502248028402359e-01 +8.0434111330930982e+00 -4.8386451984480183e-01 +2.7942705713841775e+01 -5.2123291963981319e+03 -2.8469942309080128e+05 +1.7670605489036303e+07 
+8.7999999999999794e+00 -5.8502305908170604e-01 +8.0434677444898472e+00 -4.8381624405557194e-01 +2.7014413026594394e+01 -5.2250765766085906e+03 -2.8142042715599044e+05 +1.7723751435345221e+07 
+8.8999999999999808e+00 -5.8502364534952722e-01 +8.0435172522819194e+00 -4.8461102557214430e-01 +2.6206757875573256e+01 -5.2213602059229324e+03 -2.7853042546822975e+05 +1.7706082452731524e+07 
+8.9999999999999805e+00 -5.8502424069967229e-01 +8.0435578488779527e+00 -4.8617305360856911e-01 +2.5542598346057076e+01 -5.2016296665651162e+03 -2.7606991708025103e+05 +1.7618605391808104e+07 
+9.0999999999999801e+00 -5.8502484564004742e-01 +8.0435882614786856e+00 -4.8843002882334380e-01 +2.5037903594341689e+01 -5.1663507195650200e+03 -2.7406727966949705e+05 +1.7461786161471300e+07 
+9.1999999999999797e+00 -5.8502545630245029e-01 +8.0436092982776870e+00 -4.9135035953712286e-01 +2.4680958973934885e+01 -5.1157430747106018e+03 -2.7249557016817527e+05 +1.7233679438835368e+07 
+9.2999999999999794e+00 -5.8502606773544863e-01 +8.0436222735668785e+00 -4.9491898885244801e-01 +2.4453178820676609e+01 -5.0498894542378785e+03 -2.7131321492127341e+05 +1.6931667499889530e+07 
+9.3999999999999808e+00 -5.8502667498791039e-01 +8.0436285015216704e+00 -4.9912083663672946e-01 +2.4335982027002039e+01 -4.9688729280827765e+03 -2.7047867065986665e+05 +1.6553134426750964e+07 
+9.4999999999999805e+00 -5.8502727310897940e-01 +8.0436292962114884e+00 -5.0394080713124634e-01 +2.4310791630848104e+01 -4.8727767489717162e+03 -2.6995042135087278e+05 +1.6095465224528644e+07 
+9.5999999999999801e+00 -5.8502785714807692e-01 +8.0436259715898046e+00 -5.0936378185990983e-01 +2.4359035129353742e+01 -4.7616844831603130e+03 -2.6968698010044073e+05 +1.5556046441028068e+07 
+9.6999999999999797e+00 -5.8502842215509065e-01 +8.0436198414932676e+00 -5.1537462209142093e-01 +2.4462144547052340e+01 -4.6356799618857922e+03 -2.6964688967588224e+05 +1.4932265941996103e+07 
+9.7999999999999794e+00 -5.8502896318008468e-01 +8.0436122196407300e+00 -5.2195816911132376e-01 +2.4601556481728888e+01 -4.4948472719318179e+03 -2.6978872282742406e+05 +1.4221512864554485e+07 
+9.8999999999999808e+00 -5.8502947527357230e-01 +8.0436044196257406e+00 -5.2909923977224838e-01 +2.4758712359196107e+01 -4.3392708379890983e+03 -2.7007108387316944e+05 +1.3421178013335647e+07 
+9.9999999999999805e+00 -5.8502995348636533e-01 +8.0435977549214162e+00 -5.3678263229593515e-01 +2.4915057799291841e+01 -4.1690353649270901e+03 -2.7045260356192931e+05 +1.2528653803357949e+07 
+1.0100000000000000e+01 -5.8503039498558251e-01 +8.0435932498388691e+00 -5.4497683041341505e-01 +2.5054912528718265e+01 -3.9846635757625672e+03 -2.7089258553111984e+05 +1.1544772423830254e+07 
