# field on trajectory
# s[mm] rx[mm] ry[mm] rz[mm] bx[T] by[T] bz[T]
0.0000000000000000e+00 +7.9199999999999999e+00 +0.0000000000000000e+00 +0.0000000000000000e+00 -2.8521687722395078e-02 -5.3842620266291219e-01 +5.3682549570352994e-03
-1.0000000000000001e-01 +7.9199997170123755e+00 +0.0000000000000000e+00 -9.9999999999466113e-02 -2.8521768775186983e-02 -5.3842641655477252e-01 +5.3683159710477555e-03
-2.0000000000000001e-01 +7.9199988680493503e+00 +0.0000000000000000e+00 -1.9999999999572896e-01 -2.8521853050436037e-02 -5.3842663302157401e-01 +5.3683791822381546e-03
-3.0000000000000004e-01 +7.9199974531106978e+00 +0.0000000000000000e+00 -2.9999999998558524e-01 -2.8521940006889086e-02 -5.3842685152375025e-01 +5.3684445483447698e-03
-4.0000000000000002e-01 +7.9199954721961880e+00 +0.0000000000000000e+00 -3.9999999996583169e-01 -2.8522029103288667e-02 -5.3842707152173486e-01 +5.3685120271061660e-03
-5.0000000000000000e-01 +7.9199929253055901e+00 +0.0000000000000000e+00 -4.9999999993326494e-01 -2.8522119798373529e-02 -5.3842729247596333e-01 +5.3685815762612339e-03
-5.9999999999999998e-01 +7.9199898124386712e+00 +0.0000000000000000e+00 -5.9999999988468178e-01 -2.8522211550879004e-02 -5.3842751384687138e-01 +5.3686531535492490e-03
-6.9999999999999996e-01 +7.9199861335951995e+00 +0.0000000000000000e+00 -6.9999999981687888e-01 -2.8522303819537527e-02 -5.3842773509489683e-01 +5.3687267167098918e-03
-7.9999999999999993e-01 +7.9199818887749425e+00 +0.0000000000000000e+00 -7.9999999972665292e-01 -2.8522396063079054e-02 -5.3842795568047985e-01 +5.3688022234833158e-03
-8.9999999999999991e-01 +7.9199770779776681e+00 +0.0000000000000000e+00 -8.9999999961080057e-01 -2.8522487740231486e-02 -5.3842817506406238e-01 +5.3688796316101644e-03
-9.9999999999999989e-01 +7.9199717012031465e+00 +0.0000000000000000e+00 -9.9999999946611862e-01 -2.8522578309721179e-02 -5.3842839270608989e-01 +5.3689588988316307e-03
-1.0999999999999999e+00 +7.9199657584511494e+00 +0.0000000000000000e+00 -1.0999999992894036e+00 -2.8522667230273344e-02 -5.3842860806701076e-01 +5.3690399828894911e-03
-1.2000000000000000e+00 +7.9199592497214493e+00 +0.0000000000000000e+00 -1.1999999990774524e+00 -2.8522753960612508e-02 -5.3842882060727748e-01 +5.3691228415261496e-03
-1.3000000000000000e+00 +7.9199521750138242e+00 +0.0000000000000000e+00 -1.2999999988270614e+00 -2.8522837959462997e-02 -5.3842902978734608e-01 +5.3692074324846843e-03
-1.4000000000000001e+00 +7.9199445343280539e+00 +0.0000000000000000e+00 -1.3999999985350275e+00 -2.8522918685549320e-02 -5.3842923506767715e-01 +5.3692937135088785e-03
-1.5000000000000002e+00 +7.9199363276639234e+00 +0.0000000000000000e+00 -1.4999999981981473e+00 -2.8522995597596686e-02 -5.3842943590873660e-01 +5.3693816423432796e-03
-1.6000000000000003e+00 +7.9199275550212214e+00 +0.0000000000000000e+00 -1.5999999978132176e+00 -2.8523068154331421e-02 -5.3842963177099523e-01 +5.3694711767332216e-03
-1.7000000000000004e+00 +7.9199182163997426e+00 +0.0000000000000000e+00 -1.6999999973770348e+00 -2.8523135814481414e-02 -5.3842982211492962e-01 +5.3695622744248869e-03
-1.8000000000000005e+00 +7.9199083117992872e+00 +0.0000000000000000e+00 -1.7999999968863958e+00 -2.8523198036776588e-02 -5.3843000640102268e-01 +5.3696548931653331e-03
-1.9000000000000006e+00 +7.9198978412196617e+00 +0.0000000000000000e+00 -1.8999999963380971e+00 -2.8523254279949319e-02 -5.3843018408976340e-01 +5.3697489907025405e-03
-2.0000000000000004e+00 +7.9198868046606803e+00 +0.0000000000000000e+00 -1.9999999957289356e+00 -2.8523304002734944e-02 -5.3843035464164812e-01 +5.3698445247854628e-03
-2.1000000000000005e+00 +7.9198752021221637e+00 +0.0000000000000000e+00 -2.0999999950557076e+00 -2.8523346767506605e-02 -5.3843051768077455e-01 +5.3699414459359102e-03
-2.2000000000000006e+00 +7.9198630336039404e+00 +0.0000000000000000e+00 -2.1999999943152098e+00 -2.8523382551177416e-02 -5.3843067348562390e-01 +5.3700396757639631e-03
-2.3000000000000007e+00 +7.9198502991058479e+00 +0.0000000000000000e+00 -2.2999999935042390e+00 -2.8523411434293881e-02 -5.3843082249826923e-01 +5.3701391286520832e-03
-2.4000000000000008e+00 +7.9198369986277291e+00 +0.0000000000000000e+00 -2.3999999926195921e+00 -2.8523433497400792e-02 -5.3843096516078082e-01 +5.3702397189831922e-03
-2.5000000000000009e+00 +7.9198231321694355e+00 +0.0000000000000000e+00 -2.4999999916580653e+00 -2.8523448821041061e-02 -5.3843110191522414e-01 +5.3703413611406363e-03
-2.6000000000000010e+00 +7.9198086997308224e+00 +0.0000000000000000e+00 -2.5999999906164555e+00 -2.8523457485755476e-02 -5.3843123320365960e-01 +5.3704439695081742e-03
-2.7000000000000011e+00 +7.9197937013117530e+00 +0.0000000000000000e+00 -2.6999999894915589e+00 -2.8523459572082556e-02 -5.3843135946814202e-01 +5.3705474584699407e-03
-2.8000000000000012e+00 +7.9197781369120950e+00 +0.0000000000000000e+00 -2.7999999882801729e+00 -2.8523455160558320e-02 -5.3843148115071904e-01 +5.3706517424104315e-03
-2.9000000000000012e+00 +7.9197620065317205e+00 +0.0000000000000000e+00 -2.8999999869790938e+00 -2.8523444331716104e-02 -5.3843159869343116e-01 +5.3707567357144607e-03
-3.0000000000000013e+00 +7.9197453101705069e+00 +0.0000000000000000e+00 -2.9999999855851178e+00 -2.8523427166086419e-02 -5.3843171253831035e-01 +5.3708623527671589e-03
-3.1000000000000014e+00 +7.9197280478283352e+00 +0.0000000000000000e+00 -3.0999999840950423e+00 -2.8523403744196648e-02 -5.3843182312737980e-01 +5.3709685079539275e-03
-3.2000000000000015e+00 +7.9197102195050890e+00 +0.0000000000000000e+00 -3.1999999825056631e+00 -2.8523374146570964e-02 -5.3843193090265218e-01 +5.3710751156604191e-03
-3.3000000000000016e+00 +7.9196918252006565e+00 +0.0000000000000000e+00 -3.2999999808137774e+00 -2.8523338453730056e-02 -5.3843203630613024e-01 +5.3711820902725225e-03
-3.4000000000000017e+00 +7.9196728649149266e+00 +0.0000000000000000e+00 -3.3999999790161817e+00 -2.8523296746190998e-02 -5.3843213977980486e-01 +5.3712893461763268e-03
-3.5000000000000018e+00 +7.9196533386477910e+00 +0.0000000000000000e+00 -3.4999999771096726e+00 -2.8523249104466995e-02 -5.3843224176565430e-01 +5.3713967977580893e-03
-3.6000000000000019e+00 +7.9196332463991439e+00 +0.0000000000000000e+00 -3.5999999750910470e+00 -2.8523195609067235e-02 -5.3843234270564455e-01 +5.3715043594042278e-03
-3.7000000000000020e+00 +7.9196125881688788e+00 +0.0000000000000000e+00 -3.6999999729571011e+00 -2.8523136340496667e-02 -5.3843244304172677e-01 +5.3716119455012841e-03
-3.8000000000000020e+00 +7.9195913639568918e+00 +0.0000000000000000e+00 -3.7999999707046319e+00 -2.8523071379255811e-02 -5.3843254321583833e-01 +5.3717194704358965e-03
-3.9000000000000021e+00 +7.9195695737630780e+00 +0.0000000000000000e+00 -3.8999999683304356e+00 -2.8523000805840602e-02 -5.3843264366990062e-01 +5.3718268485947861e-03
-4.0000000000000018e+00 +7.9195472175873318e+00 +0.0000000000000000e+00 -3.9999999658313090e+00 -2.8522924700742098e-02 -5.3843274484581860e-01 +5.3719339943647144e-03
-4.1000000000000014e+00 +7.9195242954295484e+00 +0.0000000000000000e+00 -4.0999999632040494e+00 -2.8522843258683876e-02 -5.3843284705543126e-01 +5.3720408472536221e-03
-4.2000000000000011e+00 +7.9195008072896202e+00 +0.0000000000000000e+00 -4.1999999604454521e+00 -2.8522757131334675e-02 -5.3843295009037051e-01 +5.3721474472542552e-03
-4.3000000000000007e+00 +7.9194767531674408e+00 +0.0000000000000000e+00 -4.2999999575523145e+00 -2.8522667084595828e-02 -5.3843305361222160e-01 +5.3722538594809096e-03
-4.4000000000000004e+00 +7.9194521330629017e+00 +0.0000000000000000e+00 -4.3999999545214337e+00 -2.8522573884363401e-02 -5.3843315728257768e-01 +5.3723601490482569e-03
-4.5000000000000000e+00 +7.9194269469758947e+00 +0.0000000000000000e+00 -4.4999999513496052e+00 -2.8522478296527990e-02 -5.3843326076303810e-01 +5.3724663810713405e-03
-4.5999999999999996e+00 +7.9194011949063112e+00 +0.0000000000000000e+00 -4.5999999480336262e+00 -2.8522381086974587e-02 -5.3843336371521133e-01 +5.3725726206655848e-03
-4.6999999999999993e+00 +7.9193748768540448e+00 +0.0000000000000000e+00 -4.6999999445702931e+00 -2.8522283021582363e-02 -5.3843346580071261e-01 +5.3726789329467829e-03
-4.7999999999999989e+00 +7.9193479928189889e+00 +0.0000000000000000e+00 -4.7999999409564031e+00 -2.8522184866224522e-02 -5.3843356668116771e-01 +5.3727853830310961e-03
-4.8999999999999986e+00 +7.9193205428010378e+00 +0.0000000000000000e+00 -4.8999999371887526e+00 -2.8522087386768112e-02 -5.3843366601821196e-01 +5.3728920360350601e-03
-4.9999999999999982e+00 +7.9192925268000884e+00 +0.0000000000000000e+00 -4.9999999332641378e+00 -2.8521991349073825e-02 -5.3843376347349103e-01 +5.3729989570755650e-03
-5.0999999999999979e+00 +7.9192639448160387e+00 +0.0000000000000000e+00 -5.0999999291793552e+00 -2.8521897518995882e-02 -5.3843385870866112e-01 +5.3731062112698739e-03
-5.1999999999999975e+00 +7.9192347968487899e+00 +0.0000000000000000e+00 -5.1999999249312019e+00 -2.8521806662381802e-02 -5.3843395138539141e-01 +5.3732138637356090e-03
-5.2999999999999972e+00 +7.9192050828982463e+00 +0.0000000000000000e+00 -5.2999999205164743e+00 -2.8521719545072231e-02 -5.3843404116536264e-01 +5.3733219795907474e-03
-5.3999999999999968e+00 +7.9191748029643136e+00 +0.0000000000000000e+00 -5.3999999159319687e+00 -2.8521636932900815e-02 -5.3843412771026866e-01 +5.3734306239536303e-03
-5.4999999999999964e+00 +7.9191439570469022e+00 +0.0000000000000000e+00 -5.4999999111744824e+00 -2.8521559591693935e-02 -5.3843421068181707e-01 +5.3735398619429399e-03
-5.5999999999999961e+00 +7.9191125451459259e+00 +0.0000000000000000e+00 -5.5999999062408108e+00 -2.8521488287270649e-02 -5.3843428974173013e-01 +5.3736497586777303e-03
-5.6999999999999957e+00 +7.9190805672613021e+00 +0.0000000000000000e+00 -5.6999999011277520e+00 -2.8521423785442392e-02 -5.3843436455174454e-01 +5.3737603792773829e-03
-5.7999999999999954e+00 +7.9190480233929534e+00 +0.0000000000000000e+00 -5.7999998958321015e+00 -2.8521366852012883e-02 -5.3843443477361330e-01 +5.3738717888616372e-03
-5.8999999999999950e+00 +7.9190149135408072e+00 +0.0000000000000000e+00 -5.8999998903506565e+00 -2.8521318252777948e-02 -5.3843450006910520e-01 +5.3739840525505785e-03
-5.9999999999999947e+00 +7.9189812377047959e+00 +0.0000000000000000e+00 -5.9999998846802134e+00 -2.8521278753525267e-02 -5.3843456010000601e-01 +5.3740972354646230e-03
-6.0999999999999943e+00 +7.9189469958848582e+00 +0.0000000000000000e+00 -6.0999998788175684e+00 -2.8521248891013373e-02 -5.3843461479718702e-01 +5.3742114025899937e-03
-6.1999999999999940e+00 +7.9189121880809363e+00 +0.0000000000000000e+00 -6.1999998727595189e+00 -2.8521228285913049e-02 -5.3843466516780836e-01 +5.3743266183741995e-03
-6.2999999999999936e+00 +7.9188768142929797e+00 +0.0000000000000000e+00 -6.2999998665028611e+00 -2.8521216329884976e-02 -5.3843471248810315e-01 +5.3744429471280332e-03
-6.3999999999999932e+00 +7.9188408745209387e+00 +0.0000000000000000e+00 -6.3999998600443915e+00 -2.8521212414604827e-02 -5.3843475803430652e-01 +5.3745604531598027e-03
-6.4999999999999929e+00 +7.9188043687647669e+00 +0.0000000000000000e+00 -6.4999998533809062e+00 -2.8521215931763998e-02 -5.3843480308265534e-01 +5.3746792007751919e-03
-6.5999999999999925e+00 +7.9187672970244174e+00 +0.0000000000000000e+00 -6.5999998465092027e+00 -2.8521226273070400e-02 -5.3843484890938942e-01 +5.3747992542771839e-03
-6.6999999999999922e+00 +7.9187296592998440e+00 +0.0000000000000000e+00 -6.6999998394260771e+00 -2.8521242830249101e-02 -5.3843489679074996e-01 +5.3749206779659239e-03
-6.7999999999999918e+00 +7.9186914555909969e+00 +0.0000000000000000e+00 -6.7999998321283268e+00 -2.8521264995043143e-02 -5.3843494800298086e-01 +5.3750435361386226e-03
-6.8999999999999915e+00 +7.9186526858978228e+00 +0.0000000000000000e+00 -6.8999998246127472e+00 -2.8521292159214257e-02 -5.3843500382232701e-01 +5.3751678930894393e-03
-6.9999999999999911e+00 +7.9186133502202649e+00 +0.0000000000000000e+00 -6.9999998168761355e+00 -2.8521323714543589e-02 -5.3843506552503628e-01 +5.3752938131093747e-03
-7.0999999999999908e+00 +7.9185734485582593e+00 +0.0000000000000000e+00 -7.0999998089152889e+00 -2.8521359052832446e-02 -5.3843513438735802e-01 +5.3754213604861635e-03
-7.1999999999999904e+00 +7.9185329809117349e+00 +0.0000000000000000e+00 -7.1999998007270030e+00 -2.8521397565903033e-02 -5.3843521168554387e-01 +5.3755505995041579e-03
-7.2999999999999901e+00 +7.9184919472806117e+00 +0.0000000000000000e+00 -7.2999997923080748e+00 -2.8521438645599199e-02 -5.3843529869584694e-01 +5.3756815944442224e-03
-7.3999999999999897e+00 +7.9184503476647992e+00 +0.0000000000000000e+00 -7.3999997836553009e+00 -2.8521481683787164e-02 -5.3843539669452289e-01 +5.3758144095836192e-03
-7.4999999999999893e+00 +7.9184081820641961e+00 +0.0000000000000000e+00 -7.4999997747654774e+00 -2.8521526072356262e-02 -5.3843550695782849e-01 +5.3759491091959020e-03
-7.5999999999999890e+00 +7.9183654504786869e+00 +0.0000000000000000e+00 -7.5999997656354017e+00 -2.8521571203219694e-02 -5.3843563076202328e-01 +5.3760857575508077e-03
-7.6999999999999886e+00 +7.9183221529081438e+00 +0.0000000000000000e+00 -7.6999997562618701e+00 -2.8521616468315223e-02 -5.3843576938336790e-01 +5.3762244189141401e-03
-7.7999999999999883e+00 +7.9182782893524220e+00 +0.0000000000000000e+00 -7.7999997466416788e+00 -2.8521661259605965e-02 -5.3843592409812524e-01 +5.3763651575476617e-03
-7.8999999999999879e+00 +7.9182338598113597e+00 +0.0000000000000000e+00 -7.8999997367716244e+00 -2.8521704969081081e-02 -5.3843609618256005e-01 +5.3765080377089916e-03
-7.9999999999999876e+00 +7.9181888642847778e+00 +0.0000000000000000e+00 -7.9999997266485030e+00 -2.8521746988756556e-02 -5.3843628691293866e-01 +5.3766531236514870e-03
-8.0999999999999872e+00 +7.9181433027724761e+00 +0.0000000000000000e+00 -8.0999997162691120e+00 -2.8521786860665328e-02 -5.3843649719603814e-01 +5.3768004338224512e-03
-8.1999999999999869e+00 +7.9180971752742364e+00 +0.0000000000000000e+00 -8.1999997056302476e+00 -2.8521824726819425e-02 -5.3843672646066798e-01 +5.3769498034590101e-03
-8.2999999999999865e+00 +7.9180504817898187e+00 +0.0000000000000000e+00 -8.2999996947287062e+00 -2.8521860879218781e-02 -5.3843697376616073e-01 +5.3771010219982951e-03
-8.3999999999999861e+00 +7.9180032223189647e+00 +0.0000000000000000e+00 -8.3999996835612851e+00 -2.8521895609855998e-02 -5.3843723817187095e-01 +5.3772538788806118e-03
-8.4999999999999858e+00 +7.9179553968613980e+00 +0.0000000000000000e+00 -8.4999996721247797e+00 -2.8521929210716078e-02 -5.3843751873717582e-01 +5.3774081635495690e-03
-8.5999999999999854e+00 +7.9179070054168257e+00 +0.0000000000000000e+00 -8.5999996604159854e+00 -2.8521961973776024e-02 -5.3843781452147632e-01 +5.3775636654521961e-03
-8.6999999999999851e+00 +7.9178580479849376e+00 +0.0000000000000000e+00 -8.6999996484317013e+00 -2.8521994191004499e-02 -5.3843812458419649e-01 +5.3777201740390643e-03
-8.7999999999999847e+00 +7.9178085245654097e+00 +0.0000000000000000e+00 -8.7999996361687209e+00 -2.8522026154361495e-02 -5.3843844798478546e-01 +5.3778774787644071e-03
-8.8999999999999844e+00 +7.9177584351579045e+00 +0.0000000000000000e+00 -8.8999996236238434e+00 -2.8522058155797968e-02 -5.3843878378271692e-01 +5.3780353690862492e-03
-8.9999999999999840e+00 +7.9177077797620701e+00 +0.0000000000000000e+00 -8.9999996107938642e+00 -2.8522090487255489e-02 -5.3843913103749030e-01 +5.3781936344665191e-03
-9.0999999999999837e+00 +7.9176565583775433e+00 +0.0000000000000000e+00 -9.0999995976755788e+00 -2.8522123440665924e-02 -5.3843948880863157e-01 +5.3783520643711849e-03
-9.1999999999999833e+00 +7.9176047710039494e+00 +0.0000000000000000e+00 -9.1999995842657842e+00 -2.8522157307951053e-02 -5.3843985615569334e-01 +5.3785104482703631e-03
-9.2999999999999829e+00 +7.9175524176409047e+00 +0.0000000000000000e+00 -9.2999995705612761e+00 -2.8522192381022216e-02 -5.3844023213825520e-01 +5.3786685756384437e-03
-9.3999999999999826e+00 +7.9174994982880156e+00 +0.0000000000000000e+00 -9.3999995565588517e+00 -2.8522228951780026e-02 -5.3844061581592484e-01 +5.3788262359542186e-03
-9.4999999999999822e+00 +7.9174460129448798e+00 +0.0000000000000000e+00 -9.4999995422553081e+00 -2.8522267312113936e-02 -5.3844100624833879e-01 +5.3789832187010013e-03
-9.5999999999999819e+00 +7.9173919616110897e+00 +0.0000000000000000e+00 -9.5999995276474408e+00 -2.8522307753901965e-02 -5.3844140249516259e-01 +5.3791393133667412e-03
-9.6999999999999815e+00 +7.9173373442862296e+00 +0.0000000000000000e+00 -9.6999995127320453e+00 -2.8522350569010306e-02 -5.3844180361609140e-01 +5.3792943094441627e-03
-9.7999999999999812e+00 +7.9172821609698802e+00 +0.0000000000000000e+00 -9.7999994975059188e+00 -2.8522396049293009e-02 -5.3844220867085091e-01 +5.3794479964308752e-03
-9.8999999999999808e+00 +7.9172264116616180e+00 +0.0000000000000000e+00 -9.8999994819658568e+00 -2.8522444486591605e-02 -5.3844261671919724e-01 +5.3796001638294925e-03
-9.9999999999999805e+00 +7.9171700963610148e+00 +0.0000000000000000e+00 -9.9999994661086564e+00 -2.8522496172734790e-02 -5.3844302682091838e-01 +5.3797506011477696e-03
-1.0099999999999980e+01 +7.9171132150676424e+00 +0.0000000000000000e+00 -1.0099999449931113e+01 -2.8522551348875869e-02 -5.3844343827312724e-01 +5.3798991397273370e-03
-1.0199999999999980e+01 +7.9170557677810702e+00 +0.0000000000000000e+00 -1.0199999433430024e+01 -2.8522610053506470e-02 -5.3844385132212957e-01 +5.3800457782294704e-03
-1.0299999999999979e+01 +7.9169977545008647e+00 +0.0000000000000000e+00 -1.0299999416602185e+01 -2.8522672274451617e-02 -5.3844426645149712e-01 +5.3801905571429142e-03
-1.0399999999999979e+01 +7.9169391752265925e+00 +0.0000000000000000e+00 -1.0399999399444393e+01 -2.8522737999534416e-02 -5.3844468414476010e-01 +5.3803335169531116e-03
-1.0499999999999979e+01 +7.9168800299578157e+00 +0.0000000000000000e+00 -1.0499999381953444e+01 -2.8522807216576039e-02 -5.3844510488540531e-01 +5.3804746981421176e-03
-1.0599999999999978e+01 +7.9168203186940946e+00 +0.0000000000000000e+00 -1.0599999364126134e+01 -2.8522879913395631e-02 -5.3844552915687627e-01 +5.3806141411885033e-03
-1.0699999999999978e+01 +7.9167600414349844e+00 +0.0000000000000000e+00 -1.0699999345959260e+01 -2.8522956077810271e-02 -5.3844595744257029e-01 +5.3807518865672654e-03
-1.0799999999999978e+01 +7.9166991981800372e+00 +0.0000000000000000e+00 -1.0799999327449616e+01 -2.8523035697634896e-02 -5.3844639022583829e-01 +5.3808879747497323e-03
-1.0899999999999977e+01 +7.9166377889287993e+00 +0.0000000000000000e+00 -1.0899999308593999e+01 -2.8523118760682260e-02 -5.3844682798998400e-01 +5.3810224462034761e-03
-1.0999999999999977e+01 +7.9165758136808133e+00 +0.0000000000000000e+00 -1.0999999289389207e+01 -2.8523205254762835e-02 -5.3844727121826141e-01 +5.3811553413922134e-03
-1.1099999999999977e+01 +7.9165132724356146e+00 +0.0000000000000000e+00 -1.1099999269832034e+01 -2.8523295167684769e-02 -5.3844772039387478e-01 +5.3812867007757099e-03
-1.1199999999999976e+01 +7.9164501651927335e+00 +0.0000000000000000e+00 -1.1199999249919278e+01 -2.8523388487253849e-02 -5.3844817599997663e-01 +5.3814165648096981e-03
-1.1299999999999976e+01 +7.9163864919516929e+00 +0.0000000000000000e+00 -1.1299999229647735e+01 -2.8523485201273385e-02 -5.3844863851966662e-01 +5.3815449739457767e-03
-1.1399999999999975e+01 +7.9163222527120078e+00 +0.0000000000000000e+00 -1.1399999209014201e+01 -2.8523585297544181e-02 -5.3844910843599125e-01 +5.3816719686313168e-03
-1.1499999999999975e+01 +7.9162574474731873e+00 +0.0000000000000000e+00 -1.1499999188015471e+01 -2.8523688763864467e-02 -5.3844958623194106e-01 +5.3817975893093728e-03
-1.1599999999999975e+01 +7.9161920762347311e+00 +0.0000000000000000e+00 -1.1599999166648340e+01 -2.8523795588029817e-02 -5.3845007239045073e-01 +5.3819218764185805e-03
-1.1699999999999974e+01 +7.9161261389961295e+00 +0.0000000000000000e+00 -1.1699999144909606e+01 -2.8523905757833121e-02 -5.3845056739439734e-01 +5.3820448703930752e-03
