# field on trajectory
# s[mm] rx[mm] ry[mm] rz[mm] bx[T] by[T] bz[T]
0.0000000000000000e+00 +7.9199999999999999e+00 +0.0000000000000000e+00 +0.0000000000000000e+00 -2.8421030685985206e-02 -5.3878695539808830e-01 +5.4750004064246533e-03
1.0000000000000001e-01 +7.9199997168228951e+00 +0.0000000000000000e+00 +9.9999999999465405e-02 -2.8420748227617931e-02 -5.3878645408800252e-01 +5.4750838473149382e-03
2.0000000000000001e-01 +7.9199988672919304e+00 +0.0000000000000000e+00 +1.9999999999572324e-01 -2.8420456902709092e-02 -5.3878595889499004e-01 +5.4751636892658613e-03
3.0000000000000004e-01 +7.9199974514076272e+00 +0.0000000000000000e+00 +2.9999999998556592e-01 -2.8420157438794232e-02 -5.3878546996493470e-01 +5.4752400584863531e-03
4.0000000000000002e-01 +7.9199954691704990e+00 +0.0000000000000000e+00 +3.9999999996578595e-01 -2.8419850563411113e-02 -5.3878498744372705e-01 +5.4753130811852711e-03
5.0000000000000000e-01 +7.9199929205810529e+00 +0.0000000000000000e+00 +4.9999999993317573e-01 -2.8419537004098355e-02 -5.3878451147726236e-01 +5.4753828835712812e-03
5.9999999999999998e-01 +7.9199898056397888e+00 +0.0000000000000000e+00 +5.9999999988452779e-01 -2.8419217488394308e-02 -5.3878404221144105e-01 +5.4754495918527451e-03
6.9999999999999996e-01 +7.9199861243472016e+00 +0.0000000000000000e+00 +6.9999999981663452e-01 -2.8418892743835699e-02 -5.3878357979216618e-01 +5.4755133322376198e-03
7.9999999999999993e-01 +7.9199818767037762e+00 +0.0000000000000000e+00 +7.9999999972628844e-01 -2.8418563497956458e-02 -5.3878312436534459e-01 +5.4755742309333397e-03
8.9999999999999991e-01 +7.9199770627099921e+00 +0.0000000000000000e+00 +8.9999999961028210e-01 -2.8418230478286465e-02 -5.3878267607688446e-01 +5.4756324141467076e-03
9.9999999999999989e-01 +7.9199716823663202e+00 +0.0000000000000000e+00 +9.9999999946540796e-01 -2.8417894412350281e-02 -5.3878223507269474e-01 +5.4756880080837934e-03
1.0999999999999999e+00 +7.9199657356732240e+00 +0.0000000000000000e+00 +1.0999999992884586e+00 -2.8417556027665911e-02 -5.3878180149868471e-01 +5.4757411389498084e-03
1.2000000000000000e+00 +7.9199592226311601e+00 +0.0000000000000000e+00 +1.1999999990762262e+00 -2.8417216051743605e-02 -5.3878137550076222e-01 +5.4757919329490147e-03
1.3000000000000000e+00 +7.9199521432405762e+00 +0.0000000000000000e+00 +1.2999999988255038e+00 -2.8416875212084528e-02 -5.3878095722483399e-01 +5.4758405162845976e-03
1.4000000000000001e+00 +7.9199444975019127e+00 +0.0000000000000000e+00 +1.3999999985330835e+00 -2.8416534236179604e-02 -5.3878054681680387e-01 +5.4758870151585693e-03
1.5000000000000002e+00 +7.9199362854156004e+00 +0.0000000000000000e+00 +1.4999999981957581e+00 -2.8416193851508217e-02 -5.3878014442257205e-01 +5.4759315557716473e-03
1.6000000000000003e+00 +7.9199275069820629e+00 +0.0000000000000000e+00 +1.5999999978103201e+00 -2.8415854785536977e-02 -5.3877975018803403e-01 +5.4759742643231569e-03
1.7000000000000004e+00 +7.9199181622017152e+00 +0.0000000000000000e+00 +1.6999999973735618e+00 -2.8415517765718511e-02 -5.3877936425908068e-01 +5.4760152670109098e-03
1.8000000000000005e+00 +7.9199082510749630e+00 +0.0000000000000000e+00 +1.7999999968822760e+00 -2.8415183519490159e-02 -5.3877898678159586e-01 +5.4760546900311036e-03
1.9000000000000006e+00 +7.9198977736022034e+00 +0.0000000000000000e+00 +1.8999999963332552e+00 -2.8414852774272758e-02 -5.3877861790145676e-01 +5.4760926595782021e-03
2.0000000000000004e+00 +7.9198867297838236e+00 +0.0000000000000000e+00 +1.9999999957232919e+00 -2.8414526257469441e-02 -5.3877825776453225e-01 +5.4761293018448336e-03
2.1000000000000005e+00 +7.9198751196202037e+00 +0.0000000000000000e+00 +2.0999999950491786e+00 -2.8414204600224254e-02 -5.3877790633310763e-01 +5.4761646922019697e-03
2.2000000000000006e+00 +7.9198629431117133e+00 +0.0000000000000000e+00 +2.1999999943077082e+00 -2.8413888048709146e-02 -5.3877756283515899e-01 +5.4761987027399095e-03
2.3000000000000007e+00 +7.9198502002587139e+00 +0.0000000000000000e+00 +2.2999999934956730e+00 -2.8413576752858785e-02 -5.3877722631508096e-01 +5.4762311547277513e-03
2.4000000000000008e+00 +7.9198368910615597e+00 +0.0000000000000000e+00 +2.3999999926098656e+00 -2.8413270862614259e-02 -5.3877689581726274e-01 +5.4762618694331683e-03
2.5000000000000009e+00 +7.9198230155205982e+00 +0.0000000000000000e+00 +2.4999999916470790e+00 -2.8412970527924752e-02 -5.3877657038608584e-01 +5.4762906681223630e-03
2.6000000000000010e+00 +7.9198085736361730e+00 +0.0000000000000000e+00 +2.5999999906041054e+00 -2.8412675898749233e-02 -5.3877624906592525e-01 +5.4763173720600491e-03
2.7000000000000011e+00 +7.9197935654086216e+00 +0.0000000000000000e+00 +2.6999999894777371e+00 -2.8412387125058031e-02 -5.3877593090114850e-01 +5.4763418025094209e-03
2.8000000000000012e+00 +7.9197779908382788e+00 +0.0000000000000000e+00 +2.7999999882647675e+00 -2.8412104356834642e-02 -5.3877561493611481e-01 +5.4763637807321349e-03
2.9000000000000012e+00 +7.9197618499254778e+00 +0.0000000000000000e+00 +2.8999999869619884e+00 -2.8411827744077300e-02 -5.3877530021517639e-01 +5.4763831279882784e-03
3.0000000000000013e+00 +7.9197451426705499e+00 +0.0000000000000000e+00 +2.9999999855661930e+00 -2.8411557436800693e-02 -5.3877498578267591e-01 +5.4763996655363377e-03
3.1000000000000014e+00 +7.9197278690738262e+00 +0.0000000000000000e+00 +3.0999999840741737e+00 -2.8411293585037599e-02 -5.3877467068294760e-01 +5.4764132146331900e-03
3.2000000000000015e+00 +7.9197100291356390e+00 +0.0000000000000000e+00 +3.1999999824827232e+00 -2.8411036338840567e-02 -5.3877435396031637e-01 +5.4764235965340568e-03
3.3000000000000016e+00 +7.9196916228563214e+00 +0.0000000000000000e+00 +3.2999999807886340e+00 -2.8410785848283635e-02 -5.3877403465909735e-01 +5.4764306324924950e-03
3.4000000000000017e+00 +7.9196726502362100e+00 +0.0000000000000000e+00 +3.3999999789886988e+00 -2.8410542263463904e-02 -5.3877371182359601e-01 +5.4764341437603583e-03
3.5000000000000018e+00 +7.9196531112756450e+00 +0.0000000000000000e+00 +3.4999999770797103e+00 -2.8410305734503292e-02 -5.3877338449810697e-01 +5.4764339515877801e-03
3.6000000000000019e+00 +7.9196330059749709e+00 +0.0000000000000000e+00 +3.5999999750584610e+00 -2.8410076411550179e-02 -5.3877305172691436e-01 +5.4764298772231445e-03
3.7000000000000020e+00 +7.9196123343345377e+00 +0.0000000000000000e+00 +3.6999999729217437e+00 -2.8409854444781051e-02 -5.3877271255429171e-01 +5.4764217419130626e-03
3.8000000000000020e+00 +7.9195910963547034e+00 +0.0000000000000000e+00 +3.7999999706663510e+00 -2.8409639984402185e-02 -5.3877236602450018e-01 +5.4764093669023364e-03
3.9000000000000021e+00 +7.9195692920358329e+00 +0.0000000000000000e+00 +3.8999999682890758e+00 -2.8409433180651353e-02 -5.3877201118178952e-01 +5.4763925734339540e-03
4.0000000000000018e+00 +7.9195469213783003e+00 +0.0000000000000000e+00 +3.9999999657867105e+00 -2.8409234183799426e-02 -5.3877164707039749e-01 +5.4763711827490406e-03
4.1000000000000014e+00 +7.9195239843824883e+00 +0.0000000000000000e+00 +4.0999999631560478e+00 -2.8409043027504709e-02 -5.3877127296875693e-01 +5.4763450693486575e-03
4.2000000000000011e+00 +7.9195004810487912e+00 +0.0000000000000000e+00 +4.1999999603938809e+00 -2.8408859278856290e-02 -5.3877088909212634e-01 +5.4763143207814356e-03
4.3000000000000007e+00 +7.9194764113776133e+00 +0.0000000000000000e+00 +4.2999999574970023e+00 -2.8408682388289808e-02 -5.3877049588997605e-01 +5.4762790778617905e-03
4.4000000000000004e+00 +7.9194517753693683e+00 +0.0000000000000000e+00 +4.3999999544622037e+00 -2.8408511806230139e-02 -5.3877009381178176e-01 +5.4762394814088467e-03
4.5000000000000000e+00 +7.9194265730244799e+00 +0.0000000000000000e+00 +4.4999999512862789e+00 -2.8408346983090318e-02 -5.3876968330702435e-01 +5.4761956722467814e-03
4.5999999999999996e+00 +7.9194008043433808e+00 +0.0000000000000000e+00 +4.5999999479660207e+00 -2.8408187369270338e-02 -5.3876926482519139e-01 +5.4761477912051680e-03
4.6999999999999993e+00 +7.9193744693265113e+00 +0.0000000000000000e+00 +4.6999999444982219e+00 -2.8408032415156093e-02 -5.3876883881577742e-01 +5.4760959791193267e-03
4.7999999999999989e+00 +7.9193475679743202e+00 +0.0000000000000000e+00 +4.7999999408796743e+00 -2.8407881571118159e-02 -5.3876840572828510e-01 +5.4760403768306558e-03
4.8999999999999986e+00 +7.9193201002872637e+00 +0.0000000000000000e+00 +4.8999999371071716e+00 -2.8407734287510734e-02 -5.3876796601222554e-01 +5.4759811251869897e-03
4.9999999999999982e+00 +7.9192920662658040e+00 +0.0000000000000000e+00 +4.9999999331775058e+00 -2.8407590014670438e-02 -5.3876752011711848e-01 +5.4759183650429375e-03
5.0999999999999979e+00 +7.9192634659104115e+00 +0.0000000000000000e+00 +5.0999999290874705e+00 -2.8407448202915211e-02 -5.3876706849249423e-01 +5.4758522372602226e-03
5.1999999999999975e+00 +7.9192342992215616e+00 +0.0000000000000000e+00 +5.1999999248338584e+00 -2.8407308302543195e-02 -5.3876661158789341e-01 +5.4757828827080414e-03
5.2999999999999972e+00 +7.9192045661997357e+00 +0.0000000000000000e+00 +5.2999999204134616e+00 -2.8407169763831529e-02 -5.3876614985286797e-01 +5.4757104422633899e-03
5.3999999999999968e+00 +7.9191742668454195e+00 +0.0000000000000000e+00 +5.3999999158230736e+00 -2.8407032037035287e-02 -5.3876568373698108e-01 +5.4756350568114197e-03
5.4999999999999964e+00 +7.9191434011591042e+00 +0.0000000000000000e+00 +5.4999999110594873e+00 -2.8406894572386314e-02 -5.3876521368980990e-01 +5.4755568672457816e-03
5.5999999999999961e+00 +7.9191119691412846e+00 +0.0000000000000000e+00 +5.5999999061194945e+00 -2.8406756820092065e-02 -5.3876474016094333e-01 +5.4754760144689590e-03
5.6999999999999957e+00 +7.9190799707924597e+00 +0.0000000000000000e+00 +5.6999999009998890e+00 -2.8406618230334517e-02 -5.3876426359998542e-01 +5.4753926393926317e-03
5.7999999999999954e+00 +7.9190474061131315e+00 +0.0000000000000000e+00 +5.7999998956974634e+00 -2.8406478253269005e-02 -5.3876378445655404e-01 +5.4753068829380041e-03
5.8999999999999950e+00 +7.9190142751038044e+00 +0.0000000000000000e+00 +5.8999998902090107e+00 -2.8406336339023092e-02 -5.3876330318028309e-01 +5.4752188860361503e-03
5.9999999999999947e+00 +7.9189805777649855e+00 +0.0000000000000000e+00 +5.9999998845313236e+00 -2.8406191937695446e-02 -5.3876282022082211e-01 +5.4751287896283697e-03
6.0999999999999943e+00 +7.9189463140971839e+00 +0.0000000000000000e+00 +6.0999998786611949e+00 -2.8406044690181789e-02 -5.3876233606617630e-01 +5.4750367146657562e-03
6.1999999999999940e+00 +7.9189114841009092e+00 +0.0000000000000000e+00 +6.1999998725954182e+00 -2.8405895000668615e-02 -5.3876185135773069e-01 +5.4749427021015141e-03
6.2999999999999936e+00 +7.9188760877766713e+00 +0.0000000000000000e+00 +6.2999998663307855e+00 -2.8405743464168673e-02 -5.3876136677524278e-01 +5.4748467728839029e-03
6.3999999999999932e+00 +7.9188401251249818e+00 +0.0000000000000000e+00 +6.3999998598640904e+00 -2.8405590675695404e-02 -5.3876088299850711e-01 +5.4747489479554882e-03
6.4999999999999929e+00 +7.9188035961463497e+00 +0.0000000000000000e+00 +6.4999998531921248e+00 -2.8405437230263085e-02 -5.3876040070735609e-01 +5.4746492482528140e-03
6.5999999999999925e+00 +7.9187665008412829e+00 +0.0000000000000000e+00 +6.5999998463116825e+00 -2.8405283722887007e-02 -5.3875992058166144e-01 +5.4745476947060936e-03
6.6999999999999922e+00 +7.9187288392102877e+00 +0.0000000000000000e+00 +6.6999998392195561e+00 -2.8405130748583599e-02 -5.3875944330133474e-01 +5.4744443082388808e-03
6.7999999999999918e+00 +7.9186906112538669e+00 +0.0000000000000000e+00 +6.7999998319125385e+00 -2.8404978902370686e-02 -5.3875896954633073e-01 +5.4743391097677565e-03
6.8999999999999915e+00 +7.9186518169725195e+00 +0.0000000000000000e+00 +6.8999998243874234e+00 -2.8404828779267567e-02 -5.3875849999664693e-01 +5.4742321202019975e-03
6.9999999999999911e+00 +7.9186124563667404e+00 +0.0000000000000000e+00 +6.9999998166410027e+00 -2.8404680974295236e-02 -5.3875803533232536e-01 +5.4741233604432681e-03
7.0999999999999908e+00 +7.9185725294370188e+00 +0.0000000000000000e+00 +7.0999998086700700e+00 -2.8404536082476558e-02 -5.3875757623345466e-01 +5.4740128513852942e-03
7.1999999999999904e+00 +7.9185320361838389e+00 +0.0000000000000000e+00 +7.1999998004714181e+00 -2.8404394698836398e-02 -5.3875712338017090e-01 +5.4739006139135436e-03
7.2999999999999901e+00 +7.9184909766076776e+00 +0.0000000000000000e+00 +7.2999997920418398e+00 -2.8404257418401808e-02 -5.3875667745265843e-01 +5.4737866689048981e-03
7.3999999999999897e+00 +7.9184493507090057e+00 +0.0000000000000000e+00 +7.3999997833781288e+00 -2.8404124836202211e-02 -5.3875623913115256e-01 +5.4736710372273534e-03
7.4999999999999893e+00 +7.9184071584882840e+00 +0.0000000000000000e+00 +7.4999997744770770e+00 -2.8403997547269536e-02 -5.3875580909594012e-01 +5.4735537397396800e-03
7.5999999999999890e+00 +7.9183643999459674e+00 +0.0000000000000000e+00 +7.5999997653354781e+00 -2.8403876146638394e-02 -5.3875538802736000e-01 +5.4734347972911074e-03
7.6999999999999886e+00 +7.9183210750824982e+00 +0.0000000000000000e+00 +7.6999997559501248e+00 -2.8403761229346271e-02 -5.3875497660580640e-01 +5.4733142307210048e-03
7.7999999999999883e+00 +7.9182771838983115e+00 +0.0000000000000000e+00 +7.7999997463178108e+00 -2.8403653390433641e-02 -5.3875457551172901e-01 +5.4731920608585682e-03
7.8999999999999879e+00 +7.9182327263938292e+00 +0.0000000000000000e+00 +7.8999997364353280e+00 -2.8403553224944190e-02 -5.3875418542563436e-01 +5.4730683085224899e-03
7.9999999999999876e+00 +7.9181877025694636e+00 +0.0000000000000000e+00 +7.9999997262994702e+00 -2.8403461327924914e-02 -5.3875380702808762e-01 +5.4729429945206401e-03
8.0999999999999872e+00 +7.9181421124256133e+00 +0.0000000000000000e+00 +8.0999997159070301e+00 -2.8403378007874316e-02 -5.3875344088831612e-01 +5.4728161393056713e-03
8.1999999999999869e+00 +7.9180959559626647e+00 +0.0000000000000000e+00 +8.1999997052548004e+00 -2.8403302427086340e-02 -5.3875308712996628e-01 +5.4726877619447343e-03
8.2999999999999865e+00 +7.9180492331809917e+00 +0.0000000000000000e+00 +8.2999996943395740e+00 -2.8403233461327823e-02 -5.3875274576521637e-01 +5.4725578811555152e-03
8.3999999999999861e+00 +7.9180019440809541e+00 +0.0000000000000000e+00 +8.3999996831581445e+00 -2.8403169986398545e-02 -5.3875241680616093e-01 +5.4724265156507780e-03
8.4999999999999858e+00 +7.9179540886628992e+00 +0.0000000000000000e+00 +8.4999996717073056e+00 -2.8403110878132246e-02 -5.3875210026480758e-01 +5.4722936841382517e-03
8.5999999999999854e+00 +7.9179056669271617e+00 +0.0000000000000000e+00 +8.5999996599838493e+00 -2.8403055012397645e-02 -5.3875179615307522e-01 +5.4721594053205322e-03
8.6999999999999851e+00 +7.9178566788740623e+00 +0.0000000000000000e+00 +8.6999996479845674e+00 -2.8403001265099478e-02 -5.3875150448278919e-01 +5.4720236978949514e-03
8.7999999999999847e+00 +7.9178071245039092e+00 +0.0000000000000000e+00 +8.7999996357062553e+00 -2.8402948512179577e-02 -5.3875122526568064e-01 +5.4718865805534981e-03
8.8999999999999844e+00 +7.9177570038169973e+00 +0.0000000000000000e+00 +8.8999996231457050e+00 -2.8402895629617824e-02 -5.3875095851338117e-01 +5.4717480719826718e-03
8.9999999999999840e+00 +7.9177063168136090e+00 +0.0000000000000000e+00 +8.9999996102997084e+00 -2.8402841493433233e-02 -5.3875070423742133e-01 +5.4716081908634043e-03
9.0999999999999837e+00 +7.9176550634940135e+00 +0.0000000000000000e+00 +9.0999995971650609e+00 -2.8402784979685000e-02 -5.3875046244922720e-01 +5.4714669558709340e-03
9.1999999999999833e+00 +7.9176032438584665e+00 +0.0000000000000000e+00 +9.1999995837385526e+00 -2.8402724964473498e-02 -5.3875023316011739e-01 +5.4713243856746949e-03
9.2999999999999829e+00 +7.9175508579072105e+00 +0.0000000000000000e+00 +9.2999995700169791e+00 -2.8402660323941332e-02 -5.3875001638130027e-01 +5.4711804989382162e-03
9.3999999999999826e+00 +7.9174979056404746e+00 +0.0000000000000000e+00 +9.3999995559971321e+00 -2.8402589934274386e-02 -5.3874981212387074e-01 +5.4710353143190083e-03
9.4999999999999822e+00 +7.9174443870584756e+00 +0.0000000000000000e+00 +9.4999995416758036e+00 -2.8402512671702861e-02 -5.3874962039880725e-01 +5.4708888504684449e-03
9.5999999999999819e+00 +7.9173903021614169e+00 +0.0000000000000000e+00 +9.5999995270497891e+00 -2.8402427412502304e-02 -5.3874944121696933e-01 +5.4707411260316733e-03
9.6999999999999815e+00 +7.9173356509494885e+00 +0.0000000000000000e+00 +9.6999995121158786e+00 -2.8402333032994633e-02 -5.3874927458909327e-01 +5.4705921596474799e-03
9.7999999999999812e+00 +7.9172804334228672e+00 +0.0000000000000000e+00 +9.7999994968708677e+00 -2.8402228409549226e-02 -5.3874912052579127e-01 +5.4704419699481968e-03
9.8999999999999808e+00 +7.9172246495817165e+00 +0.0000000000000000e+00 +9.8999994813115482e+00 -2.8402112418583918e-02 -5.3874897903754604e-01 +5.4702905755595862e-03
9.9999999999999805e+00 +7.9171682994261872e+00 +0.0000000000000000e+00 +9.9999994654347137e+00 -2.8401983936566060e-02 -5.3874885013470986e-01 +5.4701379951007292e-03
1.0099999999999980e+01 +7.9171113829564170e+00 +0.0000000000000000e+00 +1.0099999449237156e+01 -2.8401842207772369e-02 -5.3874873390209144e-01 +5.4699842527466810e-03
1.0199999999999980e+01 +7.9170539001725295e+00 +0.0000000000000000e+00 +1.0199999432715670e+01 -2.8401687947546914e-02 -5.3874863072280754e-01 +5.4698293949251011e-03
1.0299999999999979e+01 +7.9169958510746348e+00 +0.0000000000000000e+00 +1.0299999415867045e+01 -2.8401522238937250e-02 -5.3874854105463510e-01 +5.4696734736421745e-03
1.0399999999999979e+01 +7.9169372356628287e+00 +0.0000000000000000e+00 +1.0399999398688077e+01 -2.8401346164911075e-02 -5.3874846535543908e-01 +5.4695165409221593e-03
1.0499999999999979e+01 +7.9168780539371930e+00 +0.0000000000000000e+00 +1.0499999381175559e+01 -2.8401160808354101e-02 -5.3874840408317426e-01 +5.4693586488078778e-03
1.0599999999999978e+01 +7.9168183058977943e+00 +0.0000000000000000e+00 +1.0599999363326283e+01 -2.8400967252067876e-02 -5.3874835769588869e-01 +5.4691998493612169e-03
1.0699999999999978e+01 +7.9167579915446824e+00 +0.0000000000000000e+00 +1.0699999345137043e+01 -2.8400766578767594e-02 -5.3874832665172534e-01 +5.4690401946635991e-03
1.0799999999999978e+01 +7.9166971108778927e+00 +0.0000000000000000e+00 +1.0799999326604629e+01 -2.8400559871079974e-02 -5.3874831140892476e-01 +5.4688797368164874e-03
1.0899999999999977e+01 +7.9166356638974431e+00 +0.0000000000000000e+00 +1.0899999307725837e+01 -2.8400348211541096e-02 -5.3874831242582832e-01 +5.4687185279418760e-03
1.0999999999999977e+01 +7.9165736506033335e+00 +0.0000000000000000e+00 +1.0999999288497458e+01 -2.8400132682594222e-02 -5.3874833016088008e-01 +5.4685566201827735e-03
1.1099999999999977e+01 +7.9165110709955480e+00 +0.0000000000000000e+00 +1.1099999268916285e+01 -2.8399914366587623e-02 -5.3874836507262913e-01 +5.4683940657036974e-03
1.1199999999999976e+01 +7.9164479250740518e+00 +0.0000000000000000e+00 +1.1199999248979113e+01 -2.8399694345772438e-02 -5.3874841761973236e-01 +5.4682309166911580e-03
1.1299999999999976e+01 +7.9163842128387918e+00 +0.0000000000000000e+00 +1.1299999228682733e+01 -2.8399473702300514e-02 -5.3874848826095745e-01 +5.4680672253541607e-03
1.1399999999999975e+01 +7.9163199342896950e+00 +0.0000000000000000e+00 +1.1399999208023937e+01 -2.8399253518222211e-02 -5.3874857745518467e-01 +5.4679030439246873e-03
1.1499999999999975e+01 +7.9162550894266701e+00 +0.0000000000000000e+00 +1.1499999186999521e+01 -2.8399034875484251e-02 -5.3874868566140977e-01 +5.4677384246581869e-03
1.1599999999999975e+01 +7.9161896782496060e+00 +0.0000000000000000e+00 +1.1599999165606274e+01 -2.8398818855927557e-02 -5.3874881333874591e-01 +5.4675734198340650e-03
1.1699999999999974e+01 +7.9161237007583694e+00 +0.0000000000000000e+00 +1.1699999143840991e+01 -2.8398606541285069e-02 -5.3874896094642744e-01 +5.4674080817561843e-03
1.1799999999999974e+01 +7.9160571569528084e+00 +0.0000000000000000e+00 +1.1799999121700464e+01 -2.8398399013179615e-02 -5.3874912894381077e-01 +5.4672424627533415e-03
