# trajectory
# s[mm] rx[mm] ry[mm] rz[mm] px[rad] py[rad] pz[rad]
0.0000000000000000e+00 +8.1529999999999987e+00 +0.0000000000000000e+00 +0.0000000000000000e+00 +0.0000000000000000e+00 +0.0000000000000000e+00 +1.0000000000000000e+00
1.0000000000000001e-01 +8.1529997167186359e+00 +0.0000000000000000e+00 +9.9999999999465017e-02 -5.6656273327352391e-06 +0.0000000000000000e+00 +9.9999999998395028e-01
2.0000000000000001e-01 +8.1529988668745119e+00 +0.0000000000000000e+00 +1.9999999999572010e-01 -1.1331255233454130e-05 +0.0000000000000000e+00 +9.9999999993580124e-01
3.0000000000000004e-01 +8.1529974504675682e+00 +0.0000000000000000e+00 +2.9999999998555527e-01 -1.6996883747911952e-05 +0.0000000000000000e+00 +9.9999999985555288e-01
4.0000000000000002e-01 +8.1529954674977407e+00 +0.0000000000000000e+00 +3.9999999996576069e-01 -2.2662512909001144e-05 +0.0000000000000000e+00 +9.9999999974320519e-01
5.0000000000000000e-01 +8.1529929179649638e+00 +0.0000000000000000e+00 +4.9999999993312638e-01 -2.8328142736751140e-05 +0.0000000000000000e+00 +9.9999999959875807e-01
5.9999999999999998e-01 +8.1529898018691700e+00 +0.0000000000000000e+00 +5.9999999988444230e-01 -3.3993773238328203e-05 +0.0000000000000000e+00 +9.9999999942221163e-01
6.9999999999999996e-01 +8.1529861192102935e+00 +0.0000000000000000e+00 +6.9999999981649863e-01 -3.9659404408035293e-05 +0.0000000000000000e+00 +9.9999999921356575e-01
7.9999999999999993e-01 +8.1529818699882668e+00 +0.0000000000000000e+00 +7.9999999972608549e-01 -4.5325036227311939e-05 +0.0000000000000000e+00 +9.9999999897282044e-01
8.9999999999999991e-01 +8.1529770542030278e+00 +0.0000000000000000e+00 +8.9999999960999277e-01 -5.0990668664734136e-05 +0.0000000000000000e+00 +9.9999999869997580e-01
9.9999999999999989e-01 +8.1529716718545160e+00 +0.0000000000000000e+00 +9.9999999946501061e-01 -5.6656301676014242e-05 +0.0000000000000000e+00 +9.9999999839503173e-01
1.0999999999999999e+00 +8.1529657229426764e+00 +0.0000000000000000e+00 +1.0999999992879290e+00 -6.2321935204000926e-05 +0.0000000000000000e+00 +9.9999999805798823e-01
1.2000000000000000e+00 +8.1529592074674611e+00 +0.0000000000000000e+00 +1.1999999990755381e+00 -6.7987569178679108e-05 +0.0000000000000000e+00 +9.9999999768884529e-01
1.3000000000000000e+00 +8.1529521254288291e+00 +0.0000000000000000e+00 +1.2999999988246280e+00 -7.3653203517169894e-05 +0.0000000000000000e+00 +9.9999999728760292e-01
1.4000000000000001e+00 +8.1529444768267485e+00 +0.0000000000000000e+00 +1.3999999985319886e+00 -7.9318838123730603e-05 +0.0000000000000000e+00 +9.9999999685426111e-01
1.5000000000000002e+00 +8.1529362616611980e+00 +0.0000000000000000e+00 +1.4999999981944101e+00 -8.4984472889754724e-05 +0.0000000000000000e+00 +9.9999999638881987e-01
1.6000000000000003e+00 +8.1529274799321687e+00 +0.0000000000000000e+00 +1.5999999978086825e+00 -9.0650107693771945e-05 +0.0000000000000000e+00 +9.9999999589127919e-01
1.7000000000000004e+00 +8.1529181316396624e+00 +0.0000000000000000e+00 +1.6999999973715960e+00 -9.6315742401448153e-05 +0.0000000000000000e+00 +9.9999999536163908e-01
1.8000000000000005e+00 +8.1529082167836968e+00 +0.0000000000000000e+00 +1.7999999968799405e+00 -1.0198137686558553e-04 +0.0000000000000000e+00 +9.9999999479989954e-01
1.9000000000000006e+00 +8.1528977353643040e+00 +0.0000000000000000e+00 +1.8999999963305061e+00 -1.0764701092612258e-04 +0.0000000000000000e+00 +9.9999999420606067e-01
2.0000000000000004e+00 +8.1528866873815318e+00 +0.0000000000000000e+00 +1.9999999957200827e+00 -1.1331264441013420e-04 +0.0000000000000000e+00 +9.9999999358012248e-01
2.1000000000000005e+00 +8.1528750728354478e+00 +0.0000000000000000e+00 +2.0999999950454606e+00 -1.1897827713293661e-04 +0.0000000000000000e+00 +9.9999999292208497e-01
2.2000000000000006e+00 +8.1528628917261372e+00 +0.0000000000000000e+00 +2.1999999943034299e+00 -1.2464390891024017e-04 +0.0000000000000000e+00 +9.9999999223194813e-01
2.3000000000000007e+00 +8.1528501440537031e+00 +0.0000000000000000e+00 +2.2999999934907804e+00 -1.3030953957030231e-04 +0.0000000000000000e+00 +9.9999999150971208e-01
2.4000000000000008e+00 +8.1528368298182663e+00 +0.0000000000000000e+00 +2.3999999926043025e+00 -1.3597516895503238e-04 +0.0000000000000000e+00 +9.9999999075537682e-01
2.5000000000000009e+00 +8.1528229490199600e+00 +0.0000000000000000e+00 +2.4999999916407858e+00 -1.4164079691999184e-04 +0.0000000000000000e+00 +9.9999998996894246e-01
2.6000000000000010e+00 +8.1528085016589333e+00 +0.0000000000000000e+00 +2.5999999905970208e+00 -1.4730642333439444e-04 +0.0000000000000000e+00 +9.9999998915040900e-01
2.7000000000000011e+00 +8.1527934877353481e+00 +0.0000000000000000e+00 +2.6999999894697977e+00 -1.5297204808110634e-04 +0.0000000000000000e+00 +9.9999998829977643e-01
2.8000000000000012e+00 +8.1527779072493765e+00 +0.0000000000000000e+00 +2.7999999882559061e+00 -1.5863767105664641e-04 +0.0000000000000000e+00 +9.9999998741704488e-01
2.9000000000000012e+00 +8.1527617602011997e+00 +0.0000000000000000e+00 +2.8999999869521367e+00 -1.6430329217118631e-04 +0.0000000000000000e+00 +9.9999998650221433e-01
3.0000000000000013e+00 +8.1527450465910078e+00 +0.0000000000000000e+00 +2.9999999855552790e+00 -1.6996891134855079e-04 +0.0000000000000000e+00 +9.9999998555528480e-01
3.1000000000000014e+00 +8.1527277664189981e+00 +0.0000000000000000e+00 +3.0999999840621237e+00 -1.7563452852621797e-04 +0.0000000000000000e+00 +9.9999998457625638e-01
3.2000000000000015e+00 +8.1527099196853712e+00 +0.0000000000000000e+00 +3.1999999824694605e+00 -1.8130014365531948e-04 +0.0000000000000000e+00 +9.9999998356512909e-01
3.3000000000000016e+00 +8.1526915063903367e+00 +0.0000000000000000e+00 +3.2999999807740794e+00 -1.8696575670064082e-04 +0.0000000000000000e+00 +9.9999998252190303e-01
3.4000000000000017e+00 +8.1526725265341025e+00 +0.0000000000000000e+00 +3.3999999789727711e+00 -1.9263136764062166e-04 +0.0000000000000000e+00 +9.9999998144657820e-01
3.5000000000000018e+00 +8.1526529801168799e+00 +0.0000000000000000e+00 +3.4999999770623251e+00 -1.9829697646735604e-04 +0.0000000000000000e+00 +9.9999998033915460e-01
3.6000000000000019e+00 +8.1526328671388804e+00 +0.0000000000000000e+00 +3.5999999750395322e+00 -2.0396258318659285e-04 +0.0000000000000000e+00 +9.9999997919963235e-01
3.7000000000000020e+00 +8.1526121876003135e+00 +0.0000000000000000e+00 +3.6999999729011819e+00 -2.0962818781773595e-04 +0.0000000000000000e+00 +9.9999997802801144e-01
3.8000000000000020e+00 +8.1525909415013853e+00 +0.0000000000000000e+00 +3.7999999706440644e+00 -2.1529379039384478e-04 +0.0000000000000000e+00 +9.9999997682429187e-01
3.9000000000000021e+00 +8.1525691288423019e+00 +0.0000000000000000e+00 +3.8999999682649702e+00 -2.2095939096163447e-04 +0.0000000000000000e+00 +9.9999997558847376e-01
4.0000000000000018e+00 +8.1525467496232586e+00 +0.0000000000000000e+00 +3.9999999657606891e+00 -2.2662498958147639e-04 +0.0000000000000000e+00 +9.9999997432055698e-01
4.1000000000000014e+00 +8.1525238038444474e+00 +0.0000000000000000e+00 +4.0999999631280115e+00 -2.3229058632730619e-04 +0.0000000000000000e+00 +9.9999997302054167e-01
4.2000000000000011e+00 +8.1525002915060529e+00 +0.0000000000000000e+00 +4.1999999603637272e+00 -2.3795618128560854e-04 +0.0000000000000000e+00 +9.9999997168842780e-01
4.3000000000000007e+00 +8.1524762126082475e+00 +0.0000000000000000e+00 +4.2999999574646273e+00 -2.4362177455440154e-04 +0.0000000000000000e+00 +9.9999997032421539e-01
4.4000000000000004e+00 +8.1524515671511946e+00 +0.0000000000000000e+00 +4.3999999544275008e+00 -2.4928736624314394e-04 +0.0000000000000000e+00 +9.9999996892790444e-01
4.5000000000000000e+00 +8.1524263551350469e+00 +0.0000000000000000e+00 +4.4999999512491380e+00 -2.5495295647273486e-04 +0.0000000000000000e+00 +9.9999996749949482e-01
4.5999999999999996e+00 +8.1524005765599448e+00 +0.0000000000000000e+00 +4.5999999479263298e+00 -2.6061854537551304e-04 +0.0000000000000000e+00 +9.9999996603898667e-01
4.6999999999999993e+00 +8.1523742314260126e+00 +0.0000000000000000e+00 +4.6999999444558656e+00 -2.6628413309525648e-04 +0.0000000000000000e+00 +9.9999996454637996e-01
4.7999999999999989e+00 +8.1523473197333605e+00 +0.0000000000000000e+00 +4.7999999408345362e+00 -2.7194971978718196e-04 +0.0000000000000000e+00 +9.9999996302167460e-01
4.8999999999999986e+00 +8.1523198414820843e+00 +0.0000000000000000e+00 +4.8999999370591309e+00 -2.7761530561794435e-04 +0.0000000000000000e+00 +9.9999996146487058e-01
4.9999999999999982e+00 +8.1522917966722606e+00 +0.0000000000000000e+00 +4.9999999331264400e+00 -2.8328089076563596e-04 +0.0000000000000000e+00 +9.9999995987596790e-01
5.0999999999999979e+00 +8.1522631853039478e+00 +0.0000000000000000e+00 +5.0999999290332543e+00 -2.8894647541978605e-04 +0.0000000000000000e+00 +9.9999995825496657e-01
5.1999999999999975e+00 +8.1522340073771868e+00 +0.0000000000000000e+00 +5.1999999247763631e+00 -2.9461205978135996e-04 +0.0000000000000000e+00 +9.9999995660186647e-01
5.2999999999999972e+00 +8.1522042628919955e+00 +0.0000000000000000e+00 +5.2999999203525574e+00 -3.0027764406275853e-04 +0.0000000000000000e+00 +9.9999995491666749e-01
5.3999999999999968e+00 +8.1521739518483702e+00 +0.0000000000000000e+00 +5.3999999157586265e+00 -3.0594322848781724e-04 +0.0000000000000000e+00 +9.9999995319936963e-01
5.4999999999999964e+00 +8.1521430742462861e+00 +0.0000000000000000e+00 +5.4999999109913613e+00 -3.1160881329180559e-04 +0.0000000000000000e+00 +9.9999995144997278e-01
5.5999999999999961e+00 +8.1521116300856917e+00 +0.0000000000000000e+00 +5.5999999060475512e+00 -3.1727439872142609e-04 +0.0000000000000000e+00 +9.9999994966847694e-01
5.6999999999999957e+00 +8.1520796193665124e+00 +0.0000000000000000e+00 +5.6999999009239870e+00 -3.2293998503481354e-04 +0.0000000000000000e+00 +9.9999994785488189e-01
5.7999999999999954e+00 +8.1520470420886468e+00 +0.0000000000000000e+00 +5.7999998956174581e+00 -3.2860557250153412e-04 +0.0000000000000000e+00 +9.9999994600918762e-01
5.8999999999999950e+00 +8.1520138982519654e+00 +0.0000000000000000e+00 +5.8999998901247546e+00 -3.3427116140258447e-04 +0.0000000000000000e+00 +9.9999994413139404e-01
5.9999999999999947e+00 +8.1519801878563101e+00 +0.0000000000000000e+00 +5.9999998844426665e+00 -3.3993675203039064e-04 +0.0000000000000000e+00 +9.9999994222150090e-01
6.0999999999999943e+00 +8.1519459109014925e+00 +0.0000000000000000e+00 +6.0999998785679841e+00 -3.4560234468722492e-04 +0.0000000000000000e+00 +9.9999994027950811e-01
6.1999999999999940e+00 +8.1519110673872959e+00 +0.0000000000000000e+00 +6.1999998724974974e+00 -3.5126793966779854e-04 +0.0000000000000000e+00 +9.9999993830541556e-01
6.2999999999999936e+00 +8.1518756573134734e+00 +0.0000000000000000e+00 +6.2999998662279966e+00 -3.5693353724185537e-04 +0.0000000000000000e+00 +9.9999993629922312e-01
6.3999999999999932e+00 +8.1518396806797533e+00 +0.0000000000000000e+00 +6.3999998597562717e+00 -3.6259913765258997e-04 +0.0000000000000000e+00 +9.9999993426093070e-01
6.4999999999999929e+00 +8.1518031374858406e+00 +0.0000000000000000e+00 +6.4999998530791130e+00 -3.6826474111664796e-04 +0.0000000000000000e+00 +9.9999993219053807e-01
6.5999999999999925e+00 +8.1517660277314210e+00 +0.0000000000000000e+00 +6.5999998461933096e+00 -3.7393034782412656e-04 +0.0000000000000000e+00 +9.9999993008804522e-01
6.6999999999999922e+00 +8.1517283514161623e+00 +0.0000000000000000e+00 +6.6999998390956517e+00 -3.7959595793857497e-04 +0.0000000000000000e+00 +9.9999992795345194e-01
6.7999999999999918e+00 +8.1516901085397162e+00 +0.0000000000000000e+00 +6.7999998317829293e+00 -3.8526157159699502e-04 +0.0000000000000000e+00 +9.9999992578675811e-01
6.8999999999999915e+00 +8.1516512991017223e+00 +0.0000000000000000e+00 +6.8999998242519327e+00 -3.9092718890984177e-04 +0.0000000000000000e+00 +9.9999992358796375e-01
6.9999999999999911e+00 +8.1516119231018109e+00 +0.0000000000000000e+00 +6.9999998164994519e+00 -3.9659280996102384e-04 +0.0000000000000000e+00 +9.9999992135706861e-01
7.0999999999999908e+00 +8.1515719805396039e+00 +0.0000000000000000e+00 +7.0999998085222762e+00 -4.0225843480790432e-04 +0.0000000000000000e+00 +9.9999991909407271e-01
7.1999999999999904e+00 +8.1515314714147209e+00 +0.0000000000000000e+00 +7.1999998003171966e+00 -4.0792406348130115e-04 +0.0000000000000000e+00 +9.9999991679897593e-01
7.2999999999999901e+00 +8.1514903957267801e+00 +0.0000000000000000e+00 +7.2999997918810013e+00 -4.1358969598548795e-04 +0.0000000000000000e+00 +9.9999991447177816e-01
7.3999999999999897e+00 +8.1514487534753979e+00 +0.0000000000000000e+00 +7.3999997832104816e+00 -4.1925533229819455e-04 +0.0000000000000000e+00 +9.9999991211247941e-01
7.4999999999999893e+00 +8.1514065446601958e+00 +0.0000000000000000e+00 +7.4999997743024274e+00 -4.2492097237060782e-04 +0.0000000000000000e+00 +9.9999990972107966e-01
7.5999999999999890e+00 +8.1513637692808008e+00 +0.0000000000000000e+00 +7.5999997651536280e+00 -4.3058661612737237e-04 +0.0000000000000000e+00 +9.9999990729757882e-01
7.6999999999999886e+00 +8.1513204273368505e+00 +0.0000000000000000e+00 +7.6999997557608735e+00 -4.3625226346659125e-04 +0.0000000000000000e+00 +9.9999990484197687e-01
7.7999999999999883e+00 +8.1512765188279932e+00 +0.0000000000000000e+00 +7.7999997461209531e+00 -4.4191791425982676e-04 +0.0000000000000000e+00 +9.9999990235427383e-01
7.8999999999999879e+00 +8.1512320437538897e+00 +0.0000000000000000e+00 +7.8999997362306580e+00 -4.4758356835210126e-04 +0.0000000000000000e+00 +9.9999989983446969e-01
7.9999999999999876e+00 +8.1511870021142183e+00 +0.0000000000000000e+00 +7.9999997260867772e+00 -4.5324922556189807e-04 +0.0000000000000000e+00 +9.9999989728256455e-01
8.0999999999999872e+00 +8.1511413939086790e+00 +0.0000000000000000e+00 +8.0999997156861010e+00 -4.5891488568270447e-04 +0.0000000000000000e+00 +9.9999989469855832e-01
8.1999999999999869e+00 +8.1510952191369910e+00 +0.0000000000000000e+00 +8.1999997050254194e+00 -4.6458054849997821e-04 +0.0000000000000000e+00 +9.9999989208245121e-01
8.2999999999999865e+00 +8.1510484777988950e+00 +0.0000000000000000e+00 +8.2999996941015208e+00 -4.7024621380811348e-04 +0.0000000000000000e+00 +9.9999988943424312e-01
8.3999999999999861e+00 +8.1510011698941529e+00 +0.0000000000000000e+00 +8.3999996829111971e+00 -4.7591188141198325e-04 +0.0000000000000000e+00 +9.9999988675393414e-01
8.4999999999999858e+00 +8.1509532954225428e+00 +0.0000000000000000e+00 +8.4999996714512367e+00 -4.8157755112693983e-04 +0.0000000000000000e+00 +9.9999988404152440e-01
8.5999999999999854e+00 +8.1509048543838638e+00 +0.0000000000000000e+00 +8.5999996597184314e+00 -4.8724322277881465e-04 +0.0000000000000000e+00 +9.9999988129701389e-01
8.6999999999999851e+00 +8.1508558467779295e+00 +0.0000000000000000e+00 +8.6999996477095696e+00 -4.9290889620391871e-04 +0.0000000000000000e+00 +9.9999987852040262e-01
8.7999999999999847e+00 +8.1508062726045694e+00 +0.0000000000000000e+00 +8.7999996354214414e+00 -4.9857457124904275e-04 +0.0000000000000000e+00 +9.9999987571169069e-01
8.8999999999999844e+00 +8.1507561318636306e+00 +0.0000000000000000e+00 +8.8999996228508369e+00 -5.0424024777145720e-04 +0.0000000000000000e+00 +9.9999987287087810e-01
8.9999999999999840e+00 +8.1507054245549710e+00 +0.0000000000000000e+00 +8.9999996099945463e+00 -5.0990592563891269e-04 +0.0000000000000000e+00 +9.9999986999796497e-01
9.0999999999999837e+00 +8.1506541506784629e+00 +0.0000000000000000e+00 +9.0999995968493597e+00 -5.1557160472964010e-04 +0.0000000000000000e+00 +9.9999986709295130e-01
9.1999999999999833e+00 +8.1506023102339888e+00 +0.0000000000000000e+00 +9.1999995834120671e+00 -5.2123728493235074e-04 +0.0000000000000000e+00 +9.9999986415583708e-01
9.2999999999999829e+00 +8.1505499032214423e+00 +0.0000000000000000e+00 +9.2999995696794571e+00 -5.2690296614623657e-04 +0.0000000000000000e+00 +9.9999986118662243e-01
9.3999999999999826e+00 +8.1504969296407275e+00 +0.0000000000000000e+00 +9.3999995556483213e+00 -5.3256864828097033e-04 +0.0000000000000000e+00 +9.9999985818530734e-01
9.4999999999999822e+00 +8.1504433894917572e+00 +0.0000000000000000e+00 +9.4999995413154483e+00 -5.3823433125670605e-04 +0.0000000000000000e+00 +9.9999985515189183e-01
9.5999999999999819e+00 +8.1503892827744497e+00 +0.0000000000000000e+00 +9.5999995266776299e+00 -5.4390001500407886e-04 +0.0000000000000000e+00 +9.9999985208637587e-01
9.6999999999999815e+00 +8.1503346094887323e+00 +0.0000000000000000e+00 +9.6999995117316544e+00 -5.4956569946420543e-04 +0.0000000000000000e+00 +9.9999984898875960e-01
9.7999999999999812e+00 +8.1502793696345357e+00 +0.0000000000000000e+00 +9.7999994964743120e+00 -5.5523138458868414e-04 +0.0000000000000000e+00 +9.9999984585904289e-01
9.8999999999999808e+00 +8.1502235632117941e+00 +0.0000000000000000e+00 +9.8999994809023928e+00 -5.6089707033959546e-04 +0.0000000000000000e+00 +9.9999984269722586e-01
9.9999999999999805e+00 +8.1501671902204471e+00 +0.0000000000000000e+00 +9.9999994650126869e+00 -5.6656275668950180e-04 +0.0000000000000000e+00 +9.9999983950330851e-01
1.0099999999999980e+01 +8.1501102506604362e+00 +0.0000000000000000e+00 +1.0099999448801984e+01 -5.7222844362166635e-04 +0.0000000000000000e+00 +9.9999983627729072e-01
1.0199999999999980e+01 +8.1500527445317026e+00 +0.0000000000000000e+00 +1.0199999432267076e+01 -5.7789413113245366e-04 +0.0000000000000000e+00 +9.9999983301917261e-01
1.0299999999999979e+01 +8.1499946718341896e+00 +0.0000000000000000e+00 +1.0299999415404749e+01 -5.8355981923373021e-04 +0.0000000000000000e+00 +9.9999982972895418e-01
1.0399999999999979e+01 +8.1499360325678349e+00 +0.0000000000000000e+00 +1.0399999398211795e+01 -5.8922550795308256e-04 +0.0000000000000000e+00 +9.9999982640663532e-01
1.0499999999999979e+01 +8.1498768267325765e+00 +0.0000000000000000e+00 +1.0499999380685006e+01 -5.9489119733381743e-04 +0.0000000000000000e+00 +9.9999982305221602e-01
1.0599999999999978e+01 +8.1498170543283450e+00 +0.0000000000000000e+00 +1.0599999362821169e+01 -6.0055688743496148e-04 +0.0000000000000000e+00 +9.9999981966569618e-01
1.0699999999999978e+01 +8.1497567153550641e+00 +0.0000000000000000e+00 +1.0699999344617074e+01 -6.0622257833126136e-04 +0.0000000000000000e+00 +9.9999981624707579e-01
1.0799999999999978e+01 +8.1496958098126502e+00 +0.0000000000000000e+00 +1.0799999326069514e+01 -6.1188827011318333e-04 +0.0000000000000000e+00 +9.9999981279635486e-01
1.0899999999999977e+01 +8.1496343377010092e+00 +0.0000000000000000e+00 +1.0899999307175277e+01 -6.1755396288691361e-04 +0.0000000000000000e+00 +9.9999980931353316e-01
1.0999999999999977e+01 +8.1495722990200363e+00 +0.0000000000000000e+00 +1.0999999287931152e+01 -6.2321965677435782e-04 +0.0000000000000000e+00 +9.9999980579861070e-01
1.1099999999999977e+01 +8.1495096937696125e+00 +0.0000000000000000e+00 +1.1099999268333930e+01 -6.2888535191314135e-04 +0.0000000000000000e+00 +9.9999980225158736e-01
1.1199999999999976e+01 +8.1494465219496064e+00 +0.0000000000000000e+00 +1.1199999248380399e+01 -6.3455104845660875e-04 +0.0000000000000000e+00 +9.9999979867246303e-01
1.1299999999999976e+01 +8.1493827835598687e+00 +0.0000000000000000e+00 +1.1299999228067351e+01 -6.4021674657382401e-04 +0.0000000000000000e+00 +9.9999979506123760e-01
1.1399999999999975e+01 +8.1493184786002324e+00 +0.0000000000000000e+00 +1.1399999207391577e+01 -6.4588244644957031e-04 +0.0000000000000000e+00 +9.9999979141791084e-01
1.1499999999999975e+01 +8.1492536070705128e+00 +0.0000000000000000e+00 +1.1499999186349864e+01 -6.5154814828434992e-04 +0.0000000000000000e+00 +9.9999978774248266e-01
1.1599999999999975e+01 +8.1491881689705021e+00 +0.0000000000000000e+00 +1.1599999164939003e+01 -6.5721385229438396e-04 +0.0000000000000000e+00 +9.9999978403495282e-01
1.1699999999999974e+01 +8.1491221642999729e+00 +0.0000000000000000e+00 +1.1699999143155784e+01 -6.6287955871161246e-04 +0.0000000000000000e+00 +9.9999978029532111e-01
1.1799999999999974e+01 +8.1490555930586712e+00 +0.0000000000000000e+00 +1.1799999120996997e+01 -6.6854526778369408e-04 +0.0000000000000000e+00 +9.9999977652358740e-01
