# field on trajectory
# s[mm] rx[mm] ry[mm] rz[mm] bx[T] by[T] bz[T]
0.0000000000000000e+00 +7.9199999999999999e+00 +0.0000000000000000e+00 +0.0000000000000000e+00 -2.8489479367409015e-02 -5.3841274350478574e-01 +5.3474152545545904e-03
-1.0000000000000001e-01 +7.9199997170194880e+00 +0.0000000000000000e+00 -9.9999999999466141e-02 -2.8489484070530573e-02 -5.3841273900303255e-01 +5.3474058458886009e-03
-2.0000000000000001e-01 +7.9199988680779523e+00 +0.0000000000000000e+00 -1.9999999999572915e-01 -2.8489485354710842e-02 -5.3841275204380168e-01 +5.3473951290982213e-03
-3.0000000000000004e-01 +7.9199974531753785e+00 +0.0000000000000000e+00 -2.9999999998558591e-01 -2.8489483057432523e-02 -5.3841278089355038e-01 +5.3473832829841923e-03
-4.0000000000000002e-01 +7.9199954723117374e+00 +0.0000000000000000e+00 -3.9999999996583335e-01 -2.8489477016178866e-02 -5.3841282381871480e-01 +5.3473704863461506e-03
-5.0000000000000000e-01 +7.9199929254869836e+00 +0.0000000000000000e+00 -4.9999999993326832e-01 -2.8489467068432753e-02 -5.3841287908571467e-01 +5.3473569179829901e-03
-5.9999999999999998e-01 +7.9199898127010595e+00 +0.0000000000000000e+00 -5.9999999988468766e-01 -2.8489453051675842e-02 -5.3841294496095582e-01 +5.3473427566932321e-03
-6.9999999999999996e-01 +7.9199861339538957e+00 +0.0000000000000000e+00 -6.9999999981688832e-01 -2.8489434803387708e-02 -5.3841301971083300e-01 +5.3473281812753846e-03
-7.9999999999999993e-01 +7.9199818892454141e+00 +0.0000000000000000e+00 -7.9999999972666713e-01 -2.8489412161045016e-02 -5.3841310160173439e-01 +5.3473133705283183e-03
-8.9999999999999991e-01 +7.9199770785755286e+00 +0.0000000000000000e+00 -8.9999999961082100e-01 -2.8489384962120570e-02 -5.3841318890004375e-01 +5.3472985032516213e-03
-9.9999999999999989e-01 +7.9199717019441485e+00 +0.0000000000000000e+00 -9.9999999946614671e-01 -2.8489353044082531e-02 -5.3841327987214327e-01 +5.3472837582459690e-03
-1.0999999999999999e+00 +7.9199657593511779e+00 +0.0000000000000000e+00 -1.0999999992894411e+00 -2.8489316244393523e-02 -5.3841337278441848e-01 +5.3472693143134875e-03
-1.2000000000000000e+00 +7.9199592507965191e+00 +0.0000000000000000e+00 -1.1999999990775012e+00 -2.8489274400509773e-02 -5.3841346590325923e-01 +5.3472553502581302e-03
-1.3000000000000000e+00 +7.9199521762800753e+00 +0.0000000000000000e+00 -1.2999999988271238e+00 -2.8489227349880228e-02 -5.3841355749506481e-01 +5.3472420448860240e-03
-1.4000000000000001e+00 +7.9199445358017506e+00 +0.0000000000000000e+00 -1.3999999985351057e+00 -2.8489174929945724e-02 -5.3841364582624640e-01 +5.3472295770058522e-03
-1.5000000000000002e+00 +7.9199363293614526e+00 +0.0000000000000000e+00 -1.4999999981982439e+00 -2.8489116978138107e-02 -5.3841372916323038e-01 +5.3472181254292069e-03
-1.6000000000000003e+00 +7.9199275569590935e+00 +0.0000000000000000e+00 -1.5999999978133352e+00 -2.8489053331879347e-02 -5.3841380577246045e-01 +5.3472078689709678e-03
-1.7000000000000004e+00 +7.9199182185945940e+00 +0.0000000000000000e+00 -1.6999999973771764e+00 -2.8488983828580738e-02 -5.3841387392040296e-01 +5.3471989864496512e-03
-1.8000000000000005e+00 +7.9199083142678823e+00 +0.0000000000000000e+00 -1.7999999968865645e+00 -2.8488908305641946e-02 -5.3841393187354902e-01 +5.3471916566877938e-03
-1.9000000000000006e+00 +7.9198978439788981e+00 +0.0000000000000000e+00 -1.8999999963382963e+00 -2.8488826600450212e-02 -5.3841397789841672e-01 +5.3471860585122960e-03
-2.0000000000000004e+00 +7.9198868077275932e+00 +0.0000000000000000e+00 -1.9999999957291685e+00 -2.8488738550379478e-02 -5.3841401026155677e-01 +5.3471823707548190e-03
-2.1000000000000005e+00 +7.9198752055139350e+00 +0.0000000000000000e+00 -2.0999999950559785e+00 -2.8488644254187175e-02 -5.3841402774899794e-01 +5.3471807186252218e-03
-2.2000000000000006e+00 +7.9198630373379046e+00 +0.0000000000000000e+00 -2.1999999943155224e+00 -2.8488544856209334e-02 -5.3841403122457854e-01 +5.3471810128295398e-03
-2.3000000000000007e+00 +7.9198503031994987e+00 +0.0000000000000000e+00 -2.2999999935045974e+00 -2.8488441762172020e-02 -5.3841402207159983e-01 +5.3471831104476755e-03
-2.4000000000000008e+00 +7.9198370030987277e+00 +0.0000000000000000e+00 -2.3999999926200006e+00 -2.8488336377794347e-02 -5.3841400167337783e-01 +5.3471868685596698e-03
-2.5000000000000009e+00 +7.9198231370356131e+00 +0.0000000000000000e+00 -2.4999999916585285e+00 -2.8488230108788631e-02 -5.3841397141324576e-01 +5.3471921442454651e-03
-2.6000000000000010e+00 +7.9198087050101869e+00 +0.0000000000000000e+00 -2.5999999906169782e+00 -2.8488124360860477e-02 -5.3841393267455273e-01 +5.3471987945846516e-03
-2.7000000000000011e+00 +7.9197937070224897e+00 +0.0000000000000000e+00 -2.6999999894921465e+00 -2.8488020539708905e-02 -5.3841388684066538e-01 +5.3472066766562312e-03
-2.8000000000000012e+00 +7.9197781430725707e+00 +0.0000000000000000e+00 -2.7999999882808302e+00 -2.8487920051026482e-02 -5.3841383529496756e-01 +5.3472156475383795e-03
-2.9000000000000012e+00 +7.9197620131604838e+00 +0.0000000000000000e+00 -2.8999999869798265e+00 -2.8487824300499429e-02 -5.3841377942086133e-01 +5.3472255643082058e-03
-3.0000000000000013e+00 +7.9197453172862886e+00 +0.0000000000000000e+00 -2.9999999855859318e+00 -2.8487734693807741e-02 -5.3841372060176618e-01 +5.3472362840415004e-03
-3.1000000000000014e+00 +7.9197280554500473e+00 +0.0000000000000000e+00 -3.0999999840959434e+00 -2.8487652636625303e-02 -5.3841366022112136e-01 +5.3472476638125122e-03
-3.2000000000000015e+00 +7.9197102276518248e+00 +0.0000000000000000e+00 -3.1999999825066578e+00 -2.8487579534620031e-02 -5.3841359966238478e-01 +5.3472595606936938e-03
-3.3000000000000016e+00 +7.9196918338916840e+00 +0.0000000000000000e+00 -3.2999999808148721e+00 -2.8487516793453935e-02 -5.3841354030903332e-01 +5.3472718317554620e-03
-3.4000000000000017e+00 +7.9196728741696880e+00 +0.0000000000000000e+00 -3.3999999790173834e+00 -2.8487465818783295e-02 -5.3841348354456420e-01 +5.3472843340659632e-03
-3.5000000000000018e+00 +7.9196533484858964e+00 +0.0000000000000000e+00 -3.4999999771109884e+00 -2.8487428016258746e-02 -5.3841343075249570e-01 +5.3472969246908340e-03
-3.6000000000000019e+00 +7.9196332568403660e+00 +0.0000000000000000e+00 -3.5999999750924840e+00 -2.8487404791525398e-02 -5.3841338331636568e-01 +5.3473094606929497e-03
-3.7000000000000020e+00 +7.9196125992331474e+00 +0.0000000000000000e+00 -3.6999999729586670e+00 -2.8487397550222945e-02 -5.3841334261973295e-01 +5.3473217991321879e-03
-3.8000000000000020e+00 +7.9195913756642833e+00 +0.0000000000000000e+00 -3.7999999707063341e+00 -2.8487407697985814e-02 -5.3841331004617909e-01 +5.3473337970651961e-03
-3.9000000000000021e+00 +7.9195695861338082e+00 +0.0000000000000000e+00 -3.8999999683322826e+00 -2.8487436640443231e-02 -5.3841328697930657e-01 +5.3473453115451498e-03
-4.0000000000000018e+00 +7.9195472306417480e+00 +0.0000000000000000e+00 -3.9999999658333092e+00 -2.8487485783219378e-02 -5.3841327480274048e-01 +5.3473561996214948e-03
-4.1000000000000014e+00 +7.9195243091881151e+00 +0.0000000000000000e+00 -4.0999999632062103e+00 -2.8487555942090684e-02 -5.3841327464511279e-01 +5.3473663671070037e-03
-4.2000000000000011e+00 +7.9195008217729113e+00 +0.0000000000000000e+00 -4.1999999604477836e+00 -2.8487645573463928e-02 -5.3841328661499255e-01 +5.3473759148809285e-03
-4.3000000000000007e+00 +7.9194767683961240e+00 +0.0000000000000000e+00 -4.2999999575548253e+00 -2.8487752543922332e-02 -5.3841331056590602e-01 +5.3473849925894336e-03
-4.4000000000000004e+00 +7.9194521490577285e+00 +0.0000000000000000e+00 -4.3999999545241328e+00 -2.8487874720073365e-02 -5.3841334635134375e-01 +5.3473937498785713e-03
-4.5000000000000000e+00 +7.9194269637576893e+00 +0.0000000000000000e+00 -4.4999999513525024e+00 -2.8488009968550540e-02 -5.3841339382475939e-01 +5.3474023363942998e-03
-4.5999999999999996e+00 +7.9194012124959565e+00 +0.0000000000000000e+00 -4.5999999480367313e+00 -2.8488156156015101e-02 -5.3841345283956676e-01 +5.3474109017824885e-03
-4.6999999999999993e+00 +7.9193748952724690e+00 +0.0000000000000000e+00 -4.6999999445736167e+00 -2.8488311149157709e-02 -5.3841352324913549e-01 +5.3474195956889322e-03
-4.7999999999999989e+00 +7.9193480120871538e+00 +0.0000000000000000e+00 -4.7999999409599550e+00 -2.8488472814700287e-02 -5.3841360490679047e-01 +5.3474285677593660e-03
-4.8999999999999986e+00 +7.9193205629399257e+00 +0.0000000000000000e+00 -4.8999999371925433e+00 -2.8488639019397632e-02 -5.3841369766580693e-01 +5.3474379676394833e-03
-4.9999999999999982e+00 +7.9192925478306879e+00 +0.0000000000000000e+00 -4.9999999332681782e+00 -2.8488807630039185e-02 -5.3841380137940897e-01 +5.3474479449749325e-03
-5.0999999999999979e+00 +7.9192639667593321e+00 +0.0000000000000000e+00 -5.0999999291836566e+00 -2.8488976513450771e-02 -5.3841391590076582e-01 +5.3474586494113427e-03
-5.1999999999999975e+00 +7.9192348197257401e+00 +0.0000000000000000e+00 -5.1999999249357751e+00 -2.8489143536496304e-02 -5.3841404108298974e-01 +5.3474702305943353e-03
-5.2999999999999972e+00 +7.9192051067297804e+00 +0.0000000000000000e+00 -5.2999999205213308e+00 -2.8489306566079554e-02 -5.3841417677913272e-01 +5.3474828381695283e-03
-5.3999999999999968e+00 +7.9191748277713110e+00 +0.0000000000000000e+00 -5.3999999159371210e+00 -2.8489463469145836e-02 -5.3841432284218338e-01 +5.3474966217825553e-03
-5.4999999999999964e+00 +7.9191439828501800e+00 +0.0000000000000000e+00 -5.4999999111799420e+00 -2.8489612112683752e-02 -5.3841447912506479e-01 +5.3475117310790707e-03
-5.5999999999999961e+00 +7.9191125719662239e+00 +0.0000000000000000e+00 -5.5999999062465902e+00 -2.8489750363726953e-02 -5.3841464548063089e-01 +5.3475283157047747e-03
-5.6999999999999957e+00 +7.9190805951192687e+00 +0.0000000000000000e+00 -5.6999999011338627e+00 -2.8489876089355846e-02 -5.3841482176166477e-01 +5.3475465253054093e-03
-5.7999999999999954e+00 +7.9190480523091296e+00 +0.0000000000000000e+00 -5.7999998958385568e+00 -2.8489987156699332e-02 -5.3841500782087470e-01 +5.3475665095267799e-03
-5.8999999999999950e+00 +7.9190149435356130e+00 +0.0000000000000000e+00 -5.8999998903574689e+00 -2.8490081432936534e-02 -5.3841520351089112e-01 +5.3475884180147655e-03
-5.9999999999999947e+00 +7.9189812687985137e+00 +0.0000000000000000e+00 -5.9999998846873961e+00 -2.8490156785298575e-02 -5.3841540868426530e-01 +5.3476124004153301e-03
-6.0999999999999943e+00 +7.9189470280976177e+00 +0.0000000000000000e+00 -6.0999998788251348e+00 -2.8490211637834970e-02 -5.3841562307240209e-01 +5.3476385663812319e-03
-6.1999999999999940e+00 +7.9189122214327003e+00 +0.0000000000000000e+00 -6.1999998727674814e+00 -2.8490246641692585e-02 -5.3841584592239933e-01 +5.3476668655909913e-03
-6.2999999999999936e+00 +7.9188768488035288e+00 +0.0000000000000000e+00 -6.2999998665112331e+00 -2.8490263004774457e-02 -5.3841607636028865e-01 +5.3476972077279696e-03
-6.3999999999999932e+00 +7.9188409102098625e+00 +0.0000000000000000e+00 -6.3999998600531871e+00 -2.8490261934963859e-02 -5.3841631351210795e-01 +5.3477295024737378e-03
-6.4999999999999929e+00 +7.9188044056514526e+00 +0.0000000000000000e+00 -6.4999998533901397e+00 -2.8490244640123036e-02 -5.3841655650390186e-01 +5.3477636595080100e-03
-6.5999999999999925e+00 +7.9187673351280452e+00 +0.0000000000000000e+00 -6.5999998465188874e+00 -2.8490212328091884e-02 -5.3841680446172402e-01 +5.3477995885085937e-03
-6.6999999999999922e+00 +7.9187296986393809e+00 +0.0000000000000000e+00 -6.6999998394362272e+00 -2.8490166206686617e-02 -5.3841705651163541e-01 +5.3478371991513094e-03
-6.7999999999999918e+00 +7.9186914961851960e+00 +0.0000000000000000e+00 -6.7999998321389556e+00 -2.8490107483698533e-02 -5.3841731177970809e-01 +5.3478764011099531e-03
-6.8999999999999915e+00 +7.9186527277652239e+00 +0.0000000000000000e+00 -6.8999998246238698e+00 -2.8490037366892641e-02 -5.3841756939202434e-01 +5.3479171040562070e-03
-6.9999999999999911e+00 +7.9186133933791947e+00 +0.0000000000000000e+00 -6.9999998168877662e+00 -2.8489957064006397e-02 -5.3841782847467745e-01 +5.3479592176596032e-03
-7.0999999999999908e+00 +7.9185734930268374e+00 +0.0000000000000000e+00 -7.0999998089274419e+00 -2.8489867782748406e-02 -5.3841808815377412e-01 +5.3480026515874465e-03
-7.1999999999999904e+00 +7.9185330267078804e+00 +0.0000000000000000e+00 -7.1999998007396933e+00 -2.8489770730797091e-02 -5.3841834755543383e-01 +5.3480473155047559e-03
-7.2999999999999901e+00 +7.9184919944220526e+00 +0.0000000000000000e+00 -7.2999997923213167e+00 -2.8489667115799394e-02 -5.3841860580579082e-01 +5.3480931190742096e-03
-7.3999999999999897e+00 +7.9184503961690833e+00 +0.0000000000000000e+00 -7.3999997836691094e+00 -2.8489558145369513e-02 -5.3841886203099398e-01 +5.3481399719560755e-03
-7.4999999999999893e+00 +7.9184082319487050e+00 +0.0000000000000000e+00 -7.4999997747798686e+00 -2.8489445027087553e-02 -5.3841911535720888e-01 +5.3481877838081528e-03
-7.5999999999999890e+00 +7.9183655017606531e+00 +0.0000000000000000e+00 -7.5999997656503897e+00 -2.8489328968498179e-02 -5.3841936491061770e-01 +5.3482364642857124e-03
-7.6999999999999886e+00 +7.9183222056046665e+00 +0.0000000000000000e+00 -7.6999997562774700e+00 -2.8489211177109414e-02 -5.3841960981742032e-01 +5.3482859230414284e-03
-7.7999999999999883e+00 +7.9182783434804893e+00 +0.0000000000000000e+00 -7.7999997466579067e+00 -2.8489092860391276e-02 -5.3841984920383656e-01 +5.3483360697253318e-03
-7.8999999999999879e+00 +7.9182339153878711e+00 +0.0000000000000000e+00 -7.8999997367884953e+00 -2.8488975225774437e-02 -5.3842008219610449e-01 +5.3483868139847270e-03
-7.9999999999999876e+00 +7.9181889213265686e+00 +0.0000000000000000e+00 -7.9999997266660339e+00 -2.8488859480648995e-02 -5.3842030792048390e-01 +5.3484380654641502e-03
-8.0999999999999872e+00 +7.9181433612963463e+00 +0.0000000000000000e+00 -8.0999997162873179e+00 -2.8488746594471294e-02 -5.3842052582791067e-01 +5.3484897322465894e-03
-8.1999999999999869e+00 +7.9180972352969761e+00 +0.0000000000000000e+00 -8.1999997056491445e+00 -2.8488636585094960e-02 -5.3842073666798429e-01 +5.3485417161793398e-03
-8.2999999999999865e+00 +7.9180505433282384e+00 +0.0000000000000000e+00 -8.2999996947483101e+00 -2.8488529232476429e-02 -5.3842094151501696e-01 +5.3485939175538007e-03
-8.3999999999999861e+00 +7.9180032853899185e+00 +0.0000000000000000e+00 -8.3999996835816120e+00 -2.8488424316574484e-02 -5.3842114144337894e-01 +5.3486462366648668e-03
-8.4999999999999858e+00 +7.9179554614818084e+00 +0.0000000000000000e+00 -8.4999996721458473e+00 -2.8488321617350452e-02 -5.3842133752749921e-01 +5.3486985738110419e-03
-8.5999999999999854e+00 +7.9179070716037030e+00 +0.0000000000000000e+00 -8.5999996604378115e+00 -2.8488220914768204e-02 -5.3842153084186761e-01 +5.3487508292945811e-03
-8.6999999999999851e+00 +7.9178581157554007e+00 +0.0000000000000000e+00 -8.6999996484543018e+00 -2.8488121988794381e-02 -5.3842172246103759e-01 +5.3488029034216228e-03
-8.7999999999999847e+00 +7.9178085939367007e+00 +0.0000000000000000e+00 -8.7999996361921156e+00 -2.8488024619398460e-02 -5.3842191345962664e-01 +5.3488546965023030e-03
-8.8999999999999844e+00 +7.9177585061474050e+00 +0.0000000000000000e+00 -8.8999996236480481e+00 -2.8487928586552889e-02 -5.3842210491232034e-01 +5.3489061088509175e-03
-8.9999999999999840e+00 +7.9177078523873128e+00 +0.0000000000000000e+00 -8.9999996108188967e+00 -2.8487833670233154e-02 -5.3842229789387142e-01 +5.3489570407860218e-03
-9.0999999999999837e+00 +7.9176566326562234e+00 +0.0000000000000000e+00 -9.0999995977014585e+00 -2.8487739650417999e-02 -5.3842249347910387e-01 +5.3490073926305811e-03
-9.1999999999999833e+00 +7.9176048469539326e+00 +0.0000000000000000e+00 -9.1999995842925291e+00 -2.8487646307089411e-02 -5.3842269274291410e-01 +5.3490570647120959e-03
-9.2999999999999829e+00 +7.9175524952802325e+00 +0.0000000000000000e+00 -9.2999995705889056e+00 -2.8487553420232868e-02 -5.3842289676027277e-01 +5.3491059573627358e-03
-9.3999999999999826e+00 +7.9174995776349109e+00 +0.0000000000000000e+00 -9.3999995565873853e+00 -2.8487460769837349e-02 -5.3842310660622628e-01 +5.3491539709194713e-03
-9.4999999999999822e+00 +7.9174460940177482e+00 +0.0000000000000000e+00 -9.4999995422847636e+00 -2.8487368135895526e-02 -5.3842332335589971e-01 +5.3492010057242037e-03
-9.5999999999999819e+00 +7.9173920444285182e+00 +0.0000000000000000e+00 -9.5999995276778378e+00 -2.8487275298403822e-02 -5.3842354808449766e-01 +5.3492469621238964e-03
-9.6999999999999815e+00 +7.9173374288669862e+00 +0.0000000000000000e+00 -9.6999995127634051e+00 -2.8487182037362568e-02 -5.3842378186730633e-01 +5.3492917404707116e-03
-9.7999999999999812e+00 +7.9172822473329081e+00 +0.0000000000000000e+00 -9.7999994975382627e+00 -2.8487088132776110e-02 -5.3842402577969606e-01 +5.3493352411221398e-03
-9.8999999999999808e+00 +7.9172264998260289e+00 +0.0000000000000000e+00 -9.8999994819992061e+00 -2.8486993364652911e-02 -5.3842428089712246e-01 +5.3493773644411281e-03
-9.9999999999999805e+00 +7.9171701863460830e+00 +0.0000000000000000e+00 -9.9999994661430307e+00 -2.8486897513005704e-02 -5.3842454829512865e-01 +5.3494180107962206e-03
-1.0099999999999980e+01 +7.9171133068927899e+00 +0.0000000000000000e+00 -1.0099999449966536e+01 -2.8486800505285390e-02 -5.3842482865807917e-01 +5.3494571196625405e-03
-1.0199999999999980e+01 +7.9170558614658582e+00 +0.0000000000000000e+00 -1.0199999433466516e+01 -2.8486702858684303e-02 -5.3842512110529261e-01 +5.3494947869247213e-03
-1.0299999999999979e+01 +7.9169978500649814e+00 +0.0000000000000000e+00 -1.0299999416639768e+01 -2.8486605237816268e-02 -5.3842542436478757e-01 +5.3495311475691759e-03
-1.0399999999999979e+01 +7.9169392726898424e+00 +0.0000000000000000e+00 -1.0399999399483088e+01 -2.8486508307275577e-02 -5.3842573716455211e-01 +5.3495663365813843e-03
-1.0499999999999979e+01 +7.9168801293401154e+00 +0.0000000000000000e+00 -1.0499999381993273e+01 -2.8486412731636594e-02 -5.3842605823254142e-01 +5.3496004889458512e-03
-1.0599999999999978e+01 +7.9168204200154646e+00 +0.0000000000000000e+00 -1.0599999364167122e+01 -2.8486319175453259e-02 -5.3842638629667872e-01 +5.3496337396460687e-03
-1.0699999999999978e+01 +7.9167601447155471e+00 +0.0000000000000000e+00 -1.0699999346001428e+01 -2.8486228303258643e-02 -5.3842672008485226e-01 +5.3496662236644814e-03
-1.0799999999999978e+01 +7.9166993034400139e+00 +0.0000000000000000e+00 -1.0799999327492989e+01 -2.8486140779564510e-02 -5.3842705832491577e-01 +5.3496980759824382e-03
-1.0899999999999977e+01 +7.9166378961885115e+00 +0.0000000000000000e+00 -1.0899999308638600e+01 -2.8486057268860797e-02 -5.3842739974468568e-01 +5.3497294315801537e-03
-1.0999999999999977e+01 +7.9165759229606838e+00 +0.0000000000000000e+00 -1.0999999289435060e+01 -2.8485978435615202e-02 -5.3842774307194097e-01 +5.3497604254366723e-03
-1.1099999999999977e+01 +7.9165133837561710e+00 +0.0000000000000000e+00 -1.1099999269879165e+01 -2.8485904944272691e-02 -5.3842808703442280e-01 +5.3497911925298207e-03
-1.1199999999999976e+01 +7.9164502785746143e+00 +0.0000000000000000e+00 -1.1199999249967709e+01 -2.8485837459255082e-02 -5.3842843035983157e-01 +5.3498218678361695e-03
-1.1299999999999976e+01 +7.9163866074156548e+00 +0.0000000000000000e+00 -1.1299999229697491e+01 -2.8485776644960516e-02 -5.3842877177582715e-01 +5.3498525863309972e-03
-1.1399999999999975e+01 +7.9163223702789356e+00 +0.0000000000000000e+00 -1.1399999209065307e+01 -2.8485723165763074e-02 -5.3842911001002791e-01 +5.3498834829882385e-03
-1.1499999999999975e+01 +7.9162575671641031e+00 +0.0000000000000000e+00 -1.1499999188067953e+01 -2.8485677686012231e-02 -5.3842944379000768e-01 +5.3499146927804501e-03
-1.1599999999999975e+01 +7.9161921980708092e+00 +0.0000000000000000e+00 -1.1599999166702226e+01 -2.8485640870032459e-02 -5.3842977184329699e-01 +5.3499463506787694e-03
-1.1699999999999974e+01 +7.9161262629987110e+00 +0.0000000000000000e+00 -1.1699999144964922e+01 -2.8485613382122767e-02 -5.3843009289738075e-01 +5.3499785916528708e-03
