# multipoles
# s[mm] polynom_b[n=0][T/m^n] polynom_b[n=1][T/m^n] polynom_b[n=2][T/m^n] polynom_b[n=3][T/m^n] polynom_b[n=4][T/m^n] polynom_b[n=5][T/m^n] polynom_b[n=6][T/m^n] 
+0.0000000000000000e+00 -5.9281497659459303e-01 +8.1149364469671212e+00 -4.8552197497163530e-01 -7.3517847193866842e+01 +5.9697532964556958e+03 +1.4348723370524545e+05 -3.5236585828960337e+07 
+1.0000000000000001e-01 -5.9281491729737001e-01 +8.1149587918795536e+00 -4.8597360234195414e-01 -7.4434483929398127e+01 +5.9552546675475251e+03 +1.4882160608324219e+05 -3.5131727468122959e+07 
+2.0000000000000001e-01 -5.9281485559701408e-01 +8.1149760548851848e+00 -4.8563305752630143e-01 -7.5240602895748481e+01 +5.9213027380757530e+03 +1.5362031025877845e+05 -3.4930789131916285e+07 
+2.9999999999999999e-01 -5.9281479175411023e-01 +8.1149883160891392e+00 -4.8453684329300417e-01 -7.5937109668004823e+01 +5.8689934718945387e+03 +1.5788407642448659e+05 -3.4639408413984008e+07 
+4.0000000000000002e-01 -5.9281472602923357e-01 +8.1149956555833569e+00 -4.8272145701422847e-01 -7.6524909408101280e+01 +5.7994227184289484e+03 +1.6161363229302471e+05 -3.4263222327445842e+07 
+5.0000000000000000e-01 -5.9281465868294803e-01 +8.1149981534759288e+00 -4.8022340471091240e-01 -7.7004907677593394e+01 +5.7136864868559733e+03 +1.6480970771323380e+05 -3.3807868627876543e+07 
+5.9999999999999998e-01 -5.9281458997578373e-01 +8.1149958898542778e+00 -4.7707919187398545e-01 -7.7378009425200275e+01 +5.6128807646721916e+03 +1.6747302895117115e+05 -3.3278984931340154e+07 
+6.9999999999999996e-01 -5.9281452016821223e-01 +8.1149889448172665e+00 -4.7332532709989616e-01 -7.7645119900600008e+01 +5.4981015959985316e+03 +1.6960432394004613e+05 -3.2682209114122584e+07 
+8.0000000000000004e-01 -5.9281444952076257e-01 +8.1149773984645801e+00 -4.6899831851777046e-01 -7.7807144357599554e+01 +5.3704450050489841e+03 +1.7120432059734088e+05 -3.2023178920433968e+07 
+9.0000000000000002e-01 -5.9281437829391237e-01 +8.1149613308827373e+00 -4.6413467654745622e-01 -7.7864987671548562e+01 +5.2310070555007751e+03 +1.7227374466118531e+05 -3.1307532266511708e+07 
+1.0000000000000000e+00 -5.9281430674809232e-01 +8.1149408221684887e+00 -4.5877091334090203e-01 -7.7819555005207803e+01 +5.0808838375352261e+03 +1.7281332351502095e+05 -3.0540907171424303e+07 
+1.1000000000000001e+00 -5.9281423514375875e-01 +8.1149159524134209e+00 -4.5294354457623448e-01 -7.7671751394833947e+01 +4.9211715029858669e+03 +1.7282378389951360e+05 -2.9728941927404884e+07 
+1.2000000000000000e+00 -5.9281416374134022e-01 +8.1148868017055094e+00 -4.4668908548085168e-01 -7.7422481784782505e+01 +4.7529661891856576e+03 +1.7230585205105876e+05 -2.8877274733824976e+07 
+1.3000000000000000e+00 -5.9281409280121045e-01 +8.1148534501397993e+00 -4.4004405436896948e-01 -7.7072651352283586e+01 +4.5773640900680712e+03 +1.7126025565490994e+05 -2.7991544047591612e+07 
+1.3999999999999999e+00 -5.9281402258381255e-01 +8.1148159778022713e+00 -4.3304497111635842e-01 -7.6623165053938862e+01 +4.3954614220709564e+03 +1.6968772124054888e+05 -2.7077388407150611e+07 
+1.5000000000000000e+00 -5.9281395334941800e-01 +8.1147744647807940e+00 -4.2572835868000009e-01 -7.6074927946949543e+01 +4.2083544578486490e+03 +1.6758897606507983e+05 -2.6140446603025068e+07 
+1.6000000000000001e+00 -5.9281388535845425e-01 +8.1147289911680147e+00 -4.1813073909343412e-01 -7.5428845285775580e+01 +4.0171394509881047e+03 +1.6496474870093606e+05 -2.5186357324374706e+07 
+1.7000000000000000e+00 -5.9281381887126050e-01 +8.1146796370489138e+00 -4.1028863707146707e-01 -7.4685822165016830e+01 +3.8229126992660290e+03 +1.6181576697967883e+05 -2.4220759444048561e+07 
+1.8000000000000000e+00 -5.9281375414814197e-01 +8.1146264825123726e+00 -4.0223858242979843e-01 -7.3846763864765137e+01 +3.6267705988315224e+03 +1.5814276002021751e+05 -2.3249292297589689e+07 
+1.8999999999999999e+00 -5.9281369144937635e-01 +8.1145696076439400e+00 -3.9401710407732438e-01 -7.2912575651975189e+01 +3.4298095246396379e+03 +1.5394645711492046e+05 -2.2277595101348564e+07 
+2.0000000000000000e+00 -5.9281363103530293e-01 +8.1145090925320531e+00 -3.8566073097826159e-01 -7.1884162964619534e+01 +3.2331258520341603e+03 +1.4922758879803232e+05 -2.1311307062418941e+07 
+2.1000000000000001e+00 -5.9281357321102912e-01 +8.1144450926881238e+00 -3.7720380376820933e-01 -7.0764259650384616e+01 +3.0377200512219356e+03 +1.4399711724931846e+05 -2.0355558818465143e+07 
+2.2000000000000002e+00 -5.9281351846602581e-01 +8.1143780641439527e+00 -3.6867220362397307e-01 -6.9562832868389435e+01 +2.8442189745905630e+03 +1.3830658968222470e+05 -1.9413512614719015e+07 
+2.2999999999999998e+00 -5.9281346733717466e-01 +8.1143085377829927e+00 -3.6008977369415468e-01 -6.8291638662621352e+01 +2.6531585748876892e+03 +1.3221761938687015e+05 -1.8487855089541435e+07 
+2.3999999999999999e+00 -5.9281342036134599e-01 +8.1142370444879592e+00 -3.5148035662436761e-01 -6.6962433113124163e+01 +2.4650748075235629e+03 +1.2579182004170908e+05 -1.7581272928543188e+07 
+2.5000000000000000e+00 -5.9281337807540513e-01 +8.1141641151419481e+00 -3.4286779281067947e-01 -6.5586972358958164e+01 +2.2805035900033781e+03 +1.1909080580573836e+05 -1.6696452651827611e+07 
+2.6000000000000001e+00 -5.9281334101631433e-01 +8.1140902806266997e+00 -3.3427591924187861e-01 -6.4177012545222425e+01 +2.0999807887035749e+03 +1.1217619100490904e+05 -1.5836080579136446e+07 
+2.7000000000000002e+00 -5.9281330972102741e-01 +8.1140160718231158e+00 -3.2572857139892269e-01 -6.2744309856464760e+01 +1.9240422463957457e+03 +1.0510959038204134e+05 -1.5002842933861434e+07 
+2.7999999999999998e+00 -5.9281328472652572e-01 +8.1139420196129368e+00 -3.1724957963415301e-01 -6.1300620551080698e+01 +1.7532237266888199e+03 +9.7952619249452895e+04 -1.4199425619566418e+07 
+2.8999999999999999e+00 -5.9281326656986966e-01 +8.1138686548755796e+00 -3.0886277244375415e-01 -5.9857700876969943e+01 +1.5880609618436081e+03 +9.0766893024200879e+04 -1.3428514405796258e+07 
+3.0000000000000000e+00 -5.9281325578814947e-01 +8.1137965084906210e+00 -3.0059197360509726e-01 -5.8427307140399300e+01 +1.4290896174111181e+03 +8.3614027619542103e+04 -1.2692794816292476e+07 
+3.1000000000000001e+00 -5.9281325291846987e-01 +8.1137261113367405e+00 -2.9246100260658991e-01 -5.7021195687206102e+01 +1.2768452850709934e+03 +7.6555639363693481e+04 -1.1994952050108299e+07 
+3.2000000000000002e+00 -5.9281325849804456e-01 +8.1136579942901577e+00 -2.8449367510459783e-01 -5.5651122845660979e+01 +1.1318635052178915e+03 +6.9653344642458993e+04 -1.1337671130605681e+07 
+3.2999999999999998e+00 -5.9281327306413856e-01 +8.1135926882316873e+00 -2.7671379855162703e-01 -5.4328845142585038e+01 +9.9467967686701911e+02 +6.2968761174875428e+04 -1.0723636457937764e+07 
+3.3999999999999999e+00 -5.9281329715400544e-01 +8.1135307240357797e+00 -2.6914518025455492e-01 -5.3066118978079082e+01 +8.6582921395308381e+02 +5.6563506116934288e+04 -1.0155532561023885e+07 
+3.5000000000000000e+00 -5.9281333130505265e-01 +8.1134726325777322e+00 -2.6181161823918692e-01 -5.1874700839986879e+01 +7.4584737628635423e+02 +5.0499197308649789e+04 -9.6360433089298438e+06 
+3.6000000000000001e+00 -5.9281337605472673e-01 +8.1134189447379317e+00 -2.5473690442849495e-01 -5.0766347427431398e+01 +6.3526932624999290e+02 +4.4837454001582089e+04 -9.1678521682463847e+06 
+3.7000000000000002e+00 -5.9281343194050451e-01 +8.1133701913842753e+00 -2.4794482564145856e-01 -4.9752815145185345e+01 +5.3463015025935431e+02 +3.9639893927246136e+04 -8.7536423157569692e+06 
+3.7999999999999998e+00 -5.9281349950001050e-01 +8.1133269033945830e+00 -2.4145916064370354e-01 -4.8845860759384202e+01 +4.4446480779373229e+02 +3.4968137128470240e+04 -8.3960964095983412e+06 
+3.8999999999999999e+00 -5.9281357927087941e-01 +8.1132896116413473e+00 -2.3530368198869508e-01 -4.8057240929251243e+01 +3.6530815882932279e+02 +3.0883803161293021e+04 -8.0978966986249415e+06 
+4.0000000000000000e+00 -5.9281367179093936e-01 +8.1132588469981499e+00 -2.2950215257158937e-01 -4.7398712437867893e+01 +2.9769491068311169e+02 +2.7448512549589468e+04 -7.8617248077938501e+06 
+4.0999999999999996e+00 -5.9281377741106289e-01 +8.1132349887599311e+00 -2.2407596779650832e-01 -4.6879057509495233e+01 +2.4202990640172578e+02 +2.4709013962917954e+04 -7.6894913477198053e+06 
+4.2000000000000002e+00 -5.9281389572330523e-01 +8.1132177990016299e+00 -2.1903451155617296e-01 -4.6494881697112653e+01 +1.9814938152035558e+02 +2.2651047368059972e+04 -7.5797748204108467e+06 
+4.2999999999999998e+00 -5.9281402612708600e-01 +8.1132068826452084e+00 -2.1438352021393822e-01 -4.6239674572287576e+01 +1.6573484826840448e+02 +2.1244704457452022e+04 -7.5302570348456483e+06 
+4.4000000000000004e+00 -5.9281416802179354e-01 +8.1132018446132790e+00 -2.1012872901597304e-01 -4.6106925650669069e+01 +1.4446779246636646e+02 +2.0460076307122010e+04 -7.5386196672789799e+06 
+4.5000000000000000e+00 -5.9281432080679419e-01 +8.1132022898382026e+00 -2.0627587470334249e-01 -4.6090124671140408e+01 +1.3402972341122887e+02 +2.0267255053449924e+04 -7.6025444987660740e+06 
+4.5999999999999996e+00 -5.9281448388140012e-01 +8.1132078232516598e+00 -2.0283069466948059e-01 -4.6182761268175966e+01 +1.3410215218074501e+02 +2.0636331914161667e+04 -7.7197132984391879e+06 
+4.7000000000000002e+00 -5.9281465664494726e-01 +8.1132180497923407e+00 -1.9979892947773242e-01 -4.6378325184734550e+01 +1.4436664384759098e+02 +2.1537398394617718e+04 -7.8878080822012192e+06 
+4.7999999999999998e+00 -5.9281483849673100e-01 +8.1132325744050924e+00 -1.9718631857098828e-01 -4.6670306272289132e+01 +1.6450473082040111e+02 +2.2940546347318534e+04 -8.1045106879279930e+06 
+4.9000000000000004e+00 -5.9281502883598480e-01 +8.1132510020387834e+00 -1.9499860386762910e-01 -4.7052194373013030e+01 +1.9419798567556259e+02 +2.4815867138215275e+04 -8.3675031331186453e+06 
+5.0000000000000000e+00 -5.9281522706194056e-01 +8.1132729376539157e+00 -1.9324153200859187e-01 -4.7517479579246910e+01 +2.3312805625417820e+02 +2.7133453245310404e+04 -8.6744677629354186e+06 
+5.0999999999999996e+00 -5.9281543257378477e-01 +8.1132979862132810e+00 -1.9192084555686520e-01 -4.8059651939151706e+01 +2.8097650193509099e+02 +2.9863396482261960e+04 -9.0230864801512733e+06 
+5.2000000000000002e+00 -5.9281564477068016e-01 +8.1133257526850056e+00 -1.9104229535586620e-01 -4.8672201523640325e+01 +3.3742502997653287e+02 +3.2975788338396720e+04 -9.4110418738428559e+06 
+5.2999999999999998e+00 -5.9281586305172385e-01 +8.1133558420450989e+00 -1.9061163311495338e-01 -4.9348618513340810e+01 +4.0215534467704555e+02 +3.6440720489558837e+04 -9.8360164746465888e+06 
+5.4000000000000004e+00 -5.9281608681601583e-01 +8.1133878592807172e+00 -1.9063460809373720e-01 -5.0082393285401110e+01 +4.7484909421541317e+02 +4.0228285300582218e+04 -1.0295692529322149e+07 
+5.5000000000000000e+00 -5.9281631546251290e-01 +8.1134214093816208e+00 -1.9111698054328252e-01 -5.0867016152319394e+01 +5.5518812012151750e+02 +4.4308574253434846e+04 -1.0787753171549547e+07 
+5.5999999999999996e+00 -5.9281654839022524e-01 +8.1134560973502889e+00 -1.9206450782687334e-01 -5.1695977649191242e+01 +6.4285419015744958e+02 +4.8651679600539515e+04 -1.1309881142616739e+07 
+5.7000000000000002e+00 -5.9281678499803392e-01 +8.1134915281910924e+00 -1.9348295320626407e-01 -5.2562768210626679e+01 +7.3752916910739850e+02 +5.3227692450523282e+04 -1.1859759612691250e+07 
+5.7999999999999998e+00 -5.9281702468484554e-01 +8.1135273069215188e+00 -1.9537808042243712e-01 -5.3460878502281261e+01 +8.3889491345239401e+02 +5.8006704718910427e+04 -1.2435071676061956e+07 
+5.9000000000000004e+00 -5.9281726684944569e-01 +8.1135630385695539e+00 -1.9775566079477014e-01 -5.4383799317621524e+01 +9.4663340202279869e+02 +6.2958808436416948e+04 -1.3033500959567817e+07 
+5.9999999999999902e+00 -5.9281751089059664e-01 +8.1135983281664927e+00 -2.0062146545076900e-01 -5.5325021374198158e+01 +1.0604265981381154e+03 +6.8054094633255605e+04 -1.3652730991288809e+07 
+6.0999999999999899e+00 -5.9281775627183841e-01 +8.1136328267068460e+00 -2.0396680291462763e-01 -5.6278125807522414e+01 +1.1797784834099905e+03 +7.3261401945630991e+04 -1.4289857301908270e+07 
+6.1999999999999904e+00 -5.9281800271394458e-01 +8.1136663652725858e+00 -2.0772730066337405e-01 -5.7237246849715930e+01 +1.3034922742096087e+03 +7.8546011865955064e+04 -1.4939612194870967e+07 
+6.2999999999999901e+00 -5.9281825000140798e-01 +8.1136988190072348e+00 -2.1182519474919415e-01 -5.8196698773186384e+01 +1.4301991201189062e+03 +8.3872643219815203e+04 -1.5596137139934411e+07 
+6.3999999999999897e+00 -5.9281849791878494e-01 +8.1137300630482532e+00 -2.1618272423299573e-01 -5.9150795601939578e+01 +1.5585302155642457e+03 +8.9206013349556903e+04 -1.6253573758222949e+07 
+6.4999999999999902e+00 -5.9281874625042164e-01 +8.1137599725160641e+00 -2.2072213642148847e-01 -6.0093850803881509e+01 +1.6871169051204381e+03 +9.4510836351144040e+04 -1.6906064338942476e+07 
+6.5999999999999899e+00 -5.9281899478079525e-01 +8.1137884225276835e+00 -2.2536568178465957e-01 -6.1020177663299847e+01 +1.8145905861390809e+03 +9.9751825189169176e+04 -1.7547751368014771e+07 
+6.6999999999999904e+00 -5.9281924329431390e-01 +8.1138152881739494e+00 -2.3003561588824231e-01 -6.1924088645420127e+01 +1.9395827438093891e+03 +1.0489368808173889e+05 -1.8172777694318678e+07 
+6.7999999999999901e+00 -5.9281949157521829e-01 +8.1138404445402088e+00 -2.3465420161539138e-01 -6.2799895975350793e+01 +2.0607249958253628e+03 +1.0990113180817348e+05 -1.8775286743224628e+07 
+6.8999999999999897e+00 -5.9281973940787769e-01 +8.1138637666982785e+00 -2.3914370432627882e-01 -6.3641911414883076e+01 +2.1766489928533533e+03 +1.1473886045181814e+05 -1.9349422022964541e+07 
+6.9999999999999902e+00 -5.9281998657656643e-01 +8.1138851297022256e+00 -2.4342639863760565e-01 -6.4444446123281807e+01 +2.2859865581036893e+03 +1.1937157454773436e+05 -1.9889327818071581e+07 
+7.0999999999999899e+00 -5.9282023286541596e-01 +8.1139044085916154e+00 -2.4742456660139203e-01 -6.5201810773818679e+01 +2.3873696424120985e+03 +1.2376397183287215e+05 -2.0389148943031792e+07 
+7.1999999999999904e+00 -5.9282047805862759e-01 +8.1139214783903633e+00 -2.5106049006370063e-01 -6.5908315489935134e+01 +2.4794301860327746e+03 +1.2788074680301023e+05 -2.0843030103865229e+07 
+7.2999999999999901e+00 -5.9282072194033453e-01 +8.1139362141030826e+00 -2.5425646345816671e-01 -6.6558269763398542e+01 +2.5608003562236372e+03 +1.3168659029601113e+05 -2.1245117013750754e+07 
+7.3999999999999897e+00 -5.9282096429460696e-01 +8.1139484907233204e+00 -2.5693478644871381e-01 -6.7145982683112607e+01 +2.6301124102437179e+03 +1.3514619081907882e+05 -2.1589555745094594e+07 
+7.4999999999999902e+00 -5.9282120490545009e-01 +8.1139581832236161e+00 -2.5901776398111181e-01 -6.7665762628767283e+01 +2.6859986942316114e+03 +1.3822423271540529e+05 -2.1870492719127744e+07 
+7.5999999999999899e+00 -5.9282144355685862e-01 +8.1139651665560528e+00 -2.6042771106226997e-01 -6.8111917315357019e+01 +2.7270917370493307e+03 +1.4088539650692992e+05 -2.2082075156537320e+07 
+7.6999999999999904e+00 -5.9282168003273250e-01 +8.1139693156593378e+00 -2.6108694759215262e-01 -6.8478753967730853e+01 +2.7520241473072406e+03 +1.4309435984089930e+05 -2.2218450576287284e+07 
+7.7999999999999901e+00 -5.9282191411700591e-01 +8.1139705054489379e+00 -2.6091780184382302e-01 -6.8760579062105435e+01 +2.7594286824152973e+03 +1.4481579606671561e+05 -2.2273767129082199e+07 
+7.8999999999999897e+00 -5.9282214559343693e-01 +8.1139686108236138e+00 -2.5984260999436759e-01 -6.8951698478838281e+01 +2.7479382384847218e+03 +1.4601437502808179e+05 -2.2242173545293722e+07 
+7.9999999999999902e+00 -5.9282237424579276e-01 +8.1139635066596085e+00 -2.5778371562477675e-01 -6.9046417409042789e+01 +2.7161858332045540e+03 +1.4665476271286930e+05 -2.2117819028571904e+07 
+8.0999999999999908e+00 -5.9282259990684294e-01 +8.1139551039161173e+00 -2.5469608478770678e-01 -6.9040551809240725e+01 +2.6633930225056379e+03 +1.4671101424120145e+05 -2.1897381898540858e+07 
+8.1999999999999904e+00 -5.9282282262017449e-01 +8.1139434976839233e+00 -2.5066528993862269e-01 -6.8936435729374779e+01 +2.5911780241578685e+03 +1.4619585758758296e+05 -2.1587962972176105e+07 
+8.2999999999999901e+00 -5.9282304248532269e-01 +8.1139288393823996e+00 -2.4580979357720709e-01 -6.8738167644429495e+01 +2.5017720486202006e+03 +1.4513206928475774e+05 -2.1199357043683186e+07 
+8.3999999999999897e+00 -5.9282325960179716e-01 +8.1139112804621103e+00 -2.4024805850539330e-01 -6.8449847091412749e+01 +2.3974063193663806e+03 +1.4354243220784073e+05 -2.0741358998312023e+07 
+8.4999999999999893e+00 -5.9282347406920055e-01 +8.1138909723965558e+00 -2.3409854459881707e-01 -6.8075574440784038e+01 +2.2803120197791204e+03 +1.4144973427605268e+05 -2.0223763586582810e+07 
+8.5999999999999908e+00 -5.9282368598710244e-01 +8.1138680666874414e+00 -2.2747970842442575e-01 -6.7619451075058407e+01 +2.1527202749122966e+03 +1.3887676957007824e+05 -1.9656365308868743e+07 
+8.6999999999999904e+00 -5.9282389545512826e-01 +8.1138427148642016e+00 -2.2051000846833144e-01 -6.7085579351240739e+01 +2.0168622619428786e+03 +1.3584633802196881e+05 -1.9048958970226388e+07 
+8.7999999999999794e+00 -5.9282410257293827e-01 +8.1138150684899202e+00 -2.1330789545098916e-01 -6.6478062821487399e+01 +1.8749690192533305e+03 +1.3238124683755013e+05 -1.8411338755942069e+07 
+8.8999999999999808e+00 -5.9282430744017112e-01 +8.1137852791554614e+00 -2.0599182054269363e-01 -6.5801006012245736e+01 +1.7292716092168469e+03 +1.2850430905532849e+05 -1.7753299023484670e+07 
+8.9999999999999805e+00 -5.9282451015654980e-01 +8.1137534984838915e+00 -1.9868023153434300e-01 -6.5058514615126839e+01 +1.5820010363173685e+03 +1.2423834482570963e+05 -1.7084633890937764e+07 
+9.0999999999999801e+00 -5.9282471082178756e-01 +8.1137198781303006e+00 -1.9149157554119384e-01 -6.4254695449179749e+01 +1.4353883090869901e+03 +1.1960618109251554e+05 -1.6415137556874651e+07 
+9.1999999999999797e+00 -5.9282490953563061e-01 +8.1136845697829116e+00 -1.8454429255360452e-01 -6.3393656515882007e+01 +1.2916643138290876e+03 +1.1463065196222311e+05 -1.5754603694655137e+07 
+9.2999999999999794e+00 -5.9282510639789043e-01 +8.1136477251632062e+00 -1.7795682257426262e-01 -6.2479507015864677e+01 +1.1530599492546537e+03 +1.0933459883407583e+05 -1.5112826088386813e+07 
+9.3999999999999808e+00 -5.9282530150837420e-01 +8.1136094960310032e+00 -1.7184760321988377e-01 -6.1516357481834213e+01 +1.0218060821751877e+03 +1.0374087112206630e+05 -1.4499598427796537e+07 
+9.4999999999999805e+00 -5.9282549496695636e-01 +8.1135700341772896e+00 -1.6633506520740207e-01 -6.0508319588308233e+01 +9.0013346515784815e+02 +9.7872325189696901e+04 -1.3924713924312349e+07 
+9.5999999999999801e+00 -5.9282568687343973e-01 +8.1135294914331801e+00 -1.6153764110896351e-01 -5.9459506428589634e+01 +7.9027289701358598e+02 +9.1751825995509251e+04 -1.3397966061817354e+07 
+9.6999999999999797e+00 -5.9282587732785730e-01 +8.1134880196664731e+00 -1.5757375457788342e-01 -5.8374032398995560e+01 +6.9445502409016729e+02 +8.5402246374553273e+04 -1.2929147666438738e+07 
+9.7999999999999794e+00 -5.9282606643009905e-01 +8.1134457707818921e+00 -1.5456182984438777e-01 -5.7256013230207621e+01 +6.1491052127387877e+02 +7.8846467271563262e+04 -1.2528051771585470e+07 
+9.8999999999999808e+00 -5.9282625428020064e-01 +8.1134028967259191e+00 -1.5262028460283769e-01 -5.6109566122290275e+01 +5.5386995022865426e+02 +7.2107378506387089e+04 -1.2204470924095949e+07 
+9.9999999999999805e+00 -5.9282644097818937e-01 +8.1133595494860398e+00 -1.5186753524761926e-01 -5.4938809702288182e+01 +5.1356387304185364e+02 +6.5207878359846480e+04 -1.1968197779993609e+07 
+1.0100000000000000e+01 -5.9282662673938480e-01 +8.1133159186651085e+00 -1.5238778351372878e-01 -5.3748735589801953e+01 +4.9562694170427523e+02 +5.8175298008618454e+04 -1.1826541321820829e+07 
