# field on trajectory
# s[mm] rx[mm] ry[mm] rz[mm] bx[T] by[T] bz[T]
0.0000000000000000e+00 +8.1649999999999991e+00 +0.0000000000000000e+00 +0.0000000000000000e+00 -2.7821070171550815e-02 -5.3659700086968709e-01 +5.3139559979442415e-03
1.0000000000000001e-01 +8.1649997170443473e+00 +0.0000000000000000e+00 +9.9999999999466238e-02 -2.7821069562358105e-02 -5.3659691923229025e-01 +5.3138743860571243e-03
2.0000000000000001e-01 +8.1649988681774470e+00 +0.0000000000000000e+00 +1.9999999999572993e-01 -2.7821067148925519e-02 -5.3659685402307000e-01 +5.3137944221533090e-03
3.0000000000000004e-01 +8.1649974533993657e+00 +0.0000000000000000e+00 +2.9999999998558852e-01 -2.7821063326513903e-02 -5.3659680422074396e-01 +5.3137160627103833e-03
4.0000000000000002e-01 +8.1649954727101566e+00 +0.0000000000000000e+00 +3.9999999996583946e-01 -2.7821058490377019e-02 -5.3659676880402685e-01 +5.3136392642044788e-03
5.0000000000000000e-01 +8.1649929261098571e+00 +0.0000000000000000e+00 +4.9999999993328015e-01 -2.7821053035762048e-02 -5.3659674675163016e-01 +5.3135639831105178e-03
5.9999999999999998e-01 +8.1649898135984920e+00 +0.0000000000000000e+00 +5.9999999988470809e-01 -2.7821047357910206e-02 -5.3659673704226551e-01 +5.3134901759025119e-03
6.9999999999999996e-01 +8.1649861351760702e+00 +0.0000000000000000e+00 +6.9999999981692074e-01 -2.7821041852057318e-02 -5.3659673865464363e-01 +5.3134177990538430e-03
7.9999999999999993e-01 +8.1649818908425917e+00 +0.0000000000000000e+00 +7.9999999972671543e-01 -2.7821036913434311e-02 -5.3659675056747758e-01 +5.3133468090375323e-03
8.9999999999999991e-01 +8.1649770805980424e+00 +0.0000000000000000e+00 +8.9999999961088972e-01 -2.7821032937267877e-02 -5.3659677175948117e-01 +5.3132771623265419e-03
9.9999999999999989e-01 +8.1649717044424008e+00 +0.0000000000000000e+00 +9.9999999946624107e-01 -2.7821030318780995e-02 -5.3659680120937414e-01 +5.3132088153940464e-03
1.0999999999999999e+00 +8.1649657623756369e+00 +0.0000000000000000e+00 +1.0999999992895668e+00 -2.7821029453193476e-02 -5.3659683789587986e-01 +5.3131417247137104e-03
1.2000000000000000e+00 +8.1649592543977114e+00 +0.0000000000000000e+00 +1.1999999990776644e+00 -2.7821030735722577e-02 -5.3659688079772849e-01 +5.3130758467599803e-03
1.3000000000000000e+00 +8.1649521805085801e+00 +0.0000000000000000e+00 +1.2999999988273314e+00 -2.7821034561583542e-02 -5.3659692889365718e-01 +5.3130111380083602e-03
1.4000000000000001e+00 +8.1649445407081913e+00 +0.0000000000000000e+00 +1.3999999985353653e+00 -2.7821041325990174e-02 -5.3659698116241183e-01 +5.3129475549356956e-03
1.5000000000000002e+00 +8.1649363349964919e+00 +0.0000000000000000e+00 +1.4999999981985632e+00 -2.7821051424155377e-02 -5.3659703658274782e-01 +5.3128850540204563e-03
1.6000000000000003e+00 +8.1649275633734231e+00 +0.0000000000000000e+00 +1.5999999978137229e+00 -2.7821065251291761e-02 -5.3659709413343204e-01 +5.3128235917430135e-03
1.7000000000000004e+00 +8.1649182258389228e+00 +0.0000000000000000e+00 +1.6999999973776418e+00 -2.7821083202612219e-02 -5.3659715279324327e-01 +5.3127631245859274e-03
1.8000000000000005e+00 +8.1649083223929324e+00 +0.0000000000000000e+00 +1.7999999968871172e+00 -2.7821105673330460e-02 -5.3659721154097406e-01 +5.3127036090342339e-03
1.9000000000000006e+00 +8.1648978530353880e+00 +0.0000000000000000e+00 +1.8999999963389465e+00 -2.7821133058661546e-02 -5.3659726935543106e-01 +5.3126450015757104e-03
2.0000000000000004e+00 +8.1648868177662308e+00 +0.0000000000000000e+00 +1.9999999957299273e+00 -2.7821165753822565e-02 -5.3659732521543713e-01 +5.3125872587011756e-03
2.1000000000000005e+00 +8.1648752165854024e+00 +0.0000000000000000e+00 +2.0999999950568569e+00 -2.7821203995828287e-02 -5.3659737832054766e-01 +5.3125303272451522e-03
2.2000000000000006e+00 +8.1648630494928458e+00 +0.0000000000000000e+00 +2.1999999943165327e+00 -2.7821247388875963e-02 -5.3659742875318994e-01 +5.3124741154059437e-03
2.3000000000000007e+00 +8.1648503164885096e+00 +0.0000000000000000e+00 +2.2999999935057525e+00 -2.7821295378957705e-02 -5.3659747681650105e-01 +5.3124185217220156e-03
2.4000000000000008e+00 +8.1648370175723421e+00 +0.0000000000000000e+00 +2.3999999926213134e+00 -2.7821347412065094e-02 -5.3659752281360784e-01 +5.3123634447310754e-03
2.5000000000000009e+00 +8.1648231527442956e+00 +0.0000000000000000e+00 +2.4999999916600126e+00 -2.7821402934189259e-02 -5.3659756704762673e-01 +5.3123087829698616e-03
2.6000000000000010e+00 +8.1648087220043237e+00 +0.0000000000000000e+00 +2.5999999906186479e+00 -2.7821461391321013e-02 -5.3659760982166049e-01 +5.3122544349739256e-03
2.7000000000000011e+00 +8.1647937253523821e+00 +0.0000000000000000e+00 +2.6999999894940165e+00 -2.7821522229450873e-02 -5.3659765143879679e-01 +5.3122002992774262e-03
2.8000000000000012e+00 +8.1647781627884282e+00 +0.0000000000000000e+00 +2.7999999882829161e+00 -2.7821584894569221e-02 -5.3659769220210596e-01 +5.3121462744129188e-03
2.9000000000000012e+00 +8.1647620343124174e+00 +0.0000000000000000e+00 +2.8999999869821438e+00 -2.7821648832666329e-02 -5.3659773241464026e-01 +5.3120922589111512e-03
3.0000000000000013e+00 +8.1647453399243091e+00 +0.0000000000000000e+00 +2.9999999855884973e+00 -2.7821713489732534e-02 -5.3659777237943163e-01 +5.3120381513008415e-03
3.1000000000000014e+00 +8.1647280796240622e+00 +0.0000000000000000e+00 +3.0999999840987740e+00 -2.7821778311758246e-02 -5.3659781239948900e-01 +5.3119838501084812e-03
3.2000000000000015e+00 +8.1647102534116343e+00 +0.0000000000000000e+00 +3.1999999825097714e+00 -2.7821842744734069e-02 -5.3659785277779770e-01 +5.3119292538581098e-03
3.3000000000000016e+00 +8.1646918612869825e+00 +0.0000000000000000e+00 +3.2999999808182867e+00 -2.7821906234650941e-02 -5.3659789381731704e-01 +5.3118742610711233e-03
3.4000000000000017e+00 +8.1646729032500662e+00 +0.0000000000000000e+00 +3.3999999790211173e+00 -2.7821968227500136e-02 -5.3659793582097803e-01 +5.3118187702660509e-03
3.5000000000000018e+00 +8.1646533793008391e+00 +0.0000000000000000e+00 +3.4999999771150607e+00 -2.7822028169273400e-02 -5.3659797909168339e-01 +5.3117626799583425e-03
3.6000000000000019e+00 +8.1646332894392586e+00 +0.0000000000000000e+00 +3.5999999750969147e+00 -2.7822085505963094e-02 -5.3659802393230294e-01 +5.3117058886601714e-03
3.7000000000000020e+00 +8.1646126336652767e+00 +0.0000000000000000e+00 +3.6999999729634760e+00 -2.7822139683562168e-02 -5.3659807064567422e-01 +5.3116482948802179e-03
3.8000000000000020e+00 +8.1645914119788454e+00 +0.0000000000000000e+00 +3.7999999707115428e+00 -2.7822190148064359e-02 -5.3659811953459990e-01 +5.3115897971234569e-03
3.9000000000000021e+00 +8.1645696243799133e+00 +0.0000000000000000e+00 +3.8999999683379118e+00 -2.7822236345464227e-02 -5.3659817090184492e-01 +5.3115302938909516e-03
4.0000000000000018e+00 +8.1645472708684270e+00 +0.0000000000000000e+00 +3.9999999658393808e+00 -2.7822277721757251e-02 -5.3659822505013655e-01 +5.3114696836796390e-03
4.1000000000000014e+00 +8.1645243514443298e+00 +0.0000000000000000e+00 +4.0999999632127473e+00 -2.7822313884786620e-02 -5.3659828218374062e-01 +5.3114079222035468e-03
4.2000000000000011e+00 +8.1645008661075629e+00 +0.0000000000000000e+00 +4.1999999604548082e+00 -2.7822345089790292e-02 -5.3659834211321444e-01 +5.3113451940599221e-03
4.3000000000000007e+00 +8.1644768148580624e+00 +0.0000000000000000e+00 +4.2999999575623615e+00 -2.7822371753872494e-02 -5.3659840455069907e-01 +5.3112817410680500e-03
4.4000000000000004e+00 +8.1644521976957645e+00 +0.0000000000000000e+00 +4.3999999545322046e+00 -2.7822394294159433e-02 -5.3659846920834309e-01 +5.3112178050482885e-03
4.5000000000000000e+00 +8.1644270146206015e+00 +0.0000000000000000e+00 +4.4999999513611346e+00 -2.7822413127800611e-02 -5.3659853579830552e-01 +5.3111536278221952e-03
4.5999999999999996e+00 +8.1644012656325042e+00 +0.0000000000000000e+00 +4.5999999480459488e+00 -2.7822428671970000e-02 -5.3659860403275716e-01 +5.3110894512126538e-03
4.6999999999999993e+00 +8.1643749507314016e+00 +0.0000000000000000e+00 +4.6999999445834453e+00 -2.7822441343867313e-02 -5.3659867362388025e-01 +5.3110255170439932e-03
4.7999999999999989e+00 +8.1643480699172208e+00 +0.0000000000000000e+00 +4.7999999409704213e+00 -2.7822451560719275e-02 -5.3659874428387155e-01 +5.3109620671421189e-03
4.8999999999999986e+00 +8.1643206231898890e+00 +0.0000000000000000e+00 +4.8999999372036731e+00 -2.7822459739780803e-02 -5.3659881572494095e-01 +5.3108993433346350e-03
4.9999999999999982e+00 +8.1642926105493316e+00 +0.0000000000000000e+00 +4.9999999332799998e+00 -2.7822466298336342e-02 -5.3659888765931674e-01 +5.3108375874509704e-03
5.0999999999999979e+00 +8.1642640319954722e+00 +0.0000000000000000e+00 +5.0999999291961977e+00 -2.7822471653700984e-02 -5.3659895979924288e-01 +5.3107770413224993e-03
5.1999999999999975e+00 +8.1642348875282380e+00 +0.0000000000000000e+00 +5.1999999249490640e+00 -2.7822476223221860e-02 -5.3659903185698210e-01 +5.3107179467826804e-03
5.2999999999999972e+00 +8.1642051771475526e+00 +0.0000000000000000e+00 +5.2999999205353969e+00 -2.7822480424279258e-02 -5.3659910354481732e-01 +5.3106605456671565e-03
5.3999999999999968e+00 +8.1641749008533413e+00 +0.0000000000000000e+00 +5.3999999159519936e+00 -2.7822484674287915e-02 -5.3659917457505135e-01 +5.3106050798139041e-03
5.4999999999999964e+00 +8.1641440586455296e+00 +0.0000000000000000e+00 +5.4999999111956512e+00 -2.7822489390698295e-02 -5.3659924466001019e-01 +5.3105517910633443e-03
5.5999999999999961e+00 +8.1641126505240464e+00 +0.0000000000000000e+00 +5.5999999062631671e+00 -2.7822494990997784e-02 -5.3659931351204315e-01 +5.3105009212584741e-03
5.6999999999999957e+00 +8.1640806764888190e+00 +0.0000000000000000e+00 +5.6999999011513385e+00 -2.7822501892711970e-02 -5.3659938084352332e-01 +5.3104527122449889e-03
5.7999999999999954e+00 +8.1640481365397761e+00 +0.0000000000000000e+00 +5.7999998958569634e+00 -2.7822510513405844e-02 -5.3659944636685020e-01 +5.3104074058714012e-03
5.8999999999999950e+00 +8.1640150306768522e+00 +0.0000000000000000e+00 +5.8999998903768391e+00 -2.7822521270685106e-02 -5.3659950979445004e-01 +5.3103652439891701e-03
5.9999999999999947e+00 +8.1639813588999797e+00 +0.0000000000000000e+00 +5.9999998847077629e+00 -2.7822534582197349e-02 -5.3659957083877774e-01 +5.3103264684528336e-03
6.0999999999999943e+00 +8.1639471212090964e+00 +0.0000000000000000e+00 +6.0999998788465319e+00 -2.7822550825774561e-02 -5.3659962946765216e-01 +5.3102912607760969e-03
6.1999999999999940e+00 +8.1639123176041402e+00 +0.0000000000000000e+00 +6.1999998727899435e+00 -2.7822570219826346e-02 -5.3659968667026148e-01 +5.3102595610986895e-03
6.2999999999999936e+00 +8.1638769480850524e+00 +0.0000000000000000e+00 +6.2999998665347956e+00 -2.7822592942862410e-02 -5.3659974369114738e-01 +5.3102312492183199e-03
6.3999999999999932e+00 +8.1638410126517744e+00 +0.0000000000000000e+00 +6.3999998600778847e+00 -2.7822619173341483e-02 -5.3659980177486877e-01 +5.3102062049350980e-03
6.4999999999999929e+00 +8.1638045113042459e+00 +0.0000000000000000e+00 +6.4999998534160088e+00 -2.7822649089668881e-02 -5.3659986216600097e-01 +5.3101843080516171e-03
6.5999999999999925e+00 +8.1637674440424046e+00 +0.0000000000000000e+00 +6.5999998465459653e+00 -2.7822682870193939e-02 -5.3659992610913798e-01 +5.3101654383730353e-03
6.6999999999999922e+00 +8.1637298108661831e+00 +0.0000000000000000e+00 +6.6999998394645521e+00 -2.7822720693207501e-02 -5.3659999484889165e-01 +5.3101494757071648e-03
6.7999999999999918e+00 +8.1636916117755103e+00 +0.0000000000000000e+00 +6.7999998321685657e+00 -2.7822762736939434e-02 -5.3660006962989248e-01 +5.3101362998645351e-03
6.8999999999999915e+00 +8.1636528467703080e+00 +0.0000000000000000e+00 +6.8999998246548042e+00 -2.7822809179556023e-02 -5.3660015169679098e-01 +5.3101257906584846e-03
6.9999999999999911e+00 +8.1636135158504928e+00 +0.0000000000000000e+00 +6.9999998169200639e+00 -2.7822860199157577e-02 -5.3660024229425796e-01 +5.3101178279052388e-03
7.0999999999999908e+00 +8.1635736190159687e+00 +0.0000000000000000e+00 +7.0999998089611429e+00 -2.7822915973775765e-02 -5.3660034266698464e-01 +5.3101122914239861e-03
7.1999999999999904e+00 +8.1635331562666309e+00 +0.0000000000000000e+00 +7.1999998007748385e+00 -2.7822976681371188e-02 -5.3660045405968293e-01 +5.3101090610369640e-03
7.2999999999999901e+00 +8.1634921276023622e+00 +0.0000000000000000e+00 +7.2999997923579478e+00 -2.7823042499830846e-02 -5.3660057771708813e-01 +5.3101080165695374e-03
7.3999999999999897e+00 +8.1634505330230347e+00 +0.0000000000000000e+00 +7.3999997837072691e+00 -2.7823113606965572e-02 -5.3660071488395700e-01 +5.3101090378502771e-03
7.4999999999999893e+00 +8.1634083725285063e+00 +0.0000000000000000e+00 +7.4999997748195986e+00 -2.7823190180507534e-02 -5.3660086680506880e-01 +5.3101120047110368e-03
7.5999999999999890e+00 +8.1633656461186153e+00 +0.0000000000000000e+00 +7.5999997656917344e+00 -2.7823272398107741e-02 -5.3660103472522791e-01 +5.3101167969870407e-03
7.6999999999999886e+00 +8.1633223537931876e+00 +0.0000000000000000e+00 +7.6999997563204730e+00 -2.7823360437333439e-02 -5.3660121988926168e-01 +5.3101232945169568e-03
7.7999999999999883e+00 +8.1632784955520297e+00 +0.0000000000000000e+00 +7.7999997467026123e+00 -2.7823454475665688e-02 -5.3660142354202311e-01 +5.3101313771429870e-03
7.8999999999999879e+00 +8.1632340713949265e+00 +0.0000000000000000e+00 +7.8999997368349497e+00 -2.7823554690496775e-02 -5.3660164692839019e-01 +5.3101409247109359e-03
7.9999999999999876e+00 +8.1631890813216437e+00 +0.0000000000000000e+00 +7.9999997267142824e+00 -2.7823661259127667e-02 -5.3660189129326663e-01 +5.3101518170702924e-03
8.0999999999999872e+00 +8.1631435253319253e+00 +0.0000000000000000e+00 +8.0999997163374076e+00 -2.7823774166489963e-02 -5.3660215743130446e-01 +5.3101639552962290e-03
8.1999999999999869e+00 +8.1630974034254926e+00 +0.0000000000000000e+00 +8.1999997057011225e+00 -2.7823892628346419e-02 -5.3660244433603344e-01 +5.3101773253540806e-03
8.2999999999999865e+00 +8.1630507156020453e+00 +0.0000000000000000e+00 +8.2999996948022243e+00 -2.7824015668183103e-02 -5.3660275055067685e-01 +5.3101919344297243e-03
8.3999999999999861e+00 +8.1630034618612619e+00 +0.0000000000000000e+00 +8.3999996836375104e+00 -2.7824142309497837e-02 -5.3660307461842860e-01 +5.3102077897066993e-03
8.4999999999999858e+00 +8.1629556422028013e+00 +0.0000000000000000e+00 +8.4999996722037778e+00 -2.7824271575801002e-02 -5.3660341508245468e-01 +5.3102248983661112e-03
8.5999999999999854e+00 +8.1629072566263066e+00 +0.0000000000000000e+00 +8.5999996604978239e+00 -2.7824402490616351e-02 -5.3660377048589136e-01 +5.3102432675865242e-03
8.6999999999999851e+00 +8.1628583051314045e+00 +0.0000000000000000e+00 +8.6999996485164459e+00 -2.7824534077481800e-02 -5.3660413937184392e-01 +5.3102629045438483e-03
8.7999999999999847e+00 +8.1628087877177080e+00 +0.0000000000000000e+00 +8.7999996362564410e+00 -2.7824665359950315e-02 -5.3660452028338623e-01 +5.3102838164112449e-03
8.8999999999999844e+00 +8.1627587043848155e+00 +0.0000000000000000e+00 +8.8999996237146064e+00 -2.7824795361590594e-02 -5.3660491176355885e-01 +5.3103060103590095e-03
8.9999999999999840e+00 +8.1627080551323186e+00 +0.0000000000000000e+00 +8.9999996108877376e+00 -2.7824923105988001e-02 -5.3660531235536857e-01 +5.3103294935544680e-03
9.0999999999999837e+00 +8.1626568399597943e+00 +0.0000000000000000e+00 +9.0999995977726336e+00 -2.7825047616745324e-02 -5.3660572060178713e-01 +5.3103542731618705e-03
9.1999999999999833e+00 +8.1626050588668146e+00 +0.0000000000000000e+00 +9.1999995843660916e+00 -2.7825167917483580e-02 -5.3660613504575039e-01 +5.3103803563422820e-03
9.2999999999999829e+00 +8.1625527118529444e+00 +0.0000000000000000e+00 +9.2999995706649070e+00 -2.7825283031842878e-02 -5.3660655423015680e-01 +5.3104077502534909e-03
9.3999999999999826e+00 +8.1624997989177430e+00 +0.0000000000000000e+00 +9.3999995566658789e+00 -2.7825391983483168e-02 -5.3660697669786694e-01 +5.3104364620498714e-03
9.4999999999999822e+00 +8.1624463200607664e+00 +0.0000000000000000e+00 +9.4999995423658046e+00 -2.7825493796085100e-02 -5.3660740099170234e-01 +5.3104664988823077e-03
9.5999999999999819e+00 +8.1623922752815705e+00 +0.0000000000000000e+00 +9.5999995277614794e+00 -2.7825587493350838e-02 -5.3660782565444343e-01 +5.3104978678980719e-03
9.6999999999999815e+00 +8.1623376645797077e+00 +0.0000000000000000e+00 +9.6999995128497005e+00 -2.7825672099004859e-02 -5.3660824922883021e-01 +5.3105305762407209e-03
9.7999999999999812e+00 +8.1622824879547338e+00 +0.0000000000000000e+00 +9.7999994976272671e+00 -2.7825746636794782e-02 -5.3660867025755954e-01 +5.3105646310499929e-03
9.8999999999999808e+00 +8.1622267454062065e+00 +0.0000000000000000e+00 +9.8999994820909745e+00 -2.7825810130492172e-02 -5.3660908728328560e-01 +5.3106000394616843e-03
9.9999999999999805e+00 +8.1621704369336889e+00 +0.0000000000000000e+00 +9.9999994662376199e+00 -2.7825861603893373e-02 -5.3660949884861786e-01 +5.3106368086075720e-03
1.0099999999999980e+01 +8.1621135625367476e+00 +0.0000000000000000e+00 +1.0099999450064001e+01 -2.7825900455688939e-02 -5.3660990378954887e-01 +5.3106749217978885e-03
1.0199999999999980e+01 +8.1620561222149579e+00 +0.0000000000000000e+00 +1.0199999433566912e+01 -2.7825927584101802e-02 -5.3661030211576510e-01 +5.3107142670700295e-03
1.0299999999999979e+01 +8.1619981159679007e+00 +0.0000000000000000e+00 +1.0299999416743153e+01 -2.7825944262283617e-02 -5.3661069413036078e-01 +5.3107547086458295e-03
1.0399999999999979e+01 +8.1619395437951656e+00 +0.0000000000000000e+00 +1.0399999399589522e+01 -2.7825951763437336e-02 -5.3661108013639980e-01 +5.3107961107504249e-03
1.0499999999999979e+01 +8.1618804056963477e+00 +0.0000000000000000e+00 +1.0499999382102812e+01 -2.7825951360818536e-02 -5.3661146043691477e-01 +5.3108383376123123e-03
1.0599999999999978e+01 +8.1618207016710453e+00 +0.0000000000000000e+00 +1.0599999364279824e+01 -2.7825944327736801e-02 -5.3661183533490719e-01 +5.3108812534634524e-03
1.0699999999999978e+01 +8.1617604317188679e+00 +0.0000000000000000e+00 +1.0699999346117353e+01 -2.7825931937557082e-02 -5.3661220513334595e-01 +5.3109247225393260e-03
1.0799999999999978e+01 +8.1616995958394263e+00 +0.0000000000000000e+00 +1.0799999327612197e+01 -2.7825915463701060e-02 -5.3661257013516817e-01 +5.3109686090790391e-03
1.0899999999999977e+01 +8.1616381940323368e+00 +0.0000000000000000e+00 +1.0899999308761151e+01 -2.7825896179648445e-02 -5.3661293064327709e-01 +5.3110127773253754e-03
1.0999999999999977e+01 +8.1615762262972211e+00 +0.0000000000000000e+00 +1.0999999289561014e+01 -2.7825875358938393e-02 -5.3661328696054200e-01 +5.3110570915249093e-03
1.1099999999999977e+01 +8.1615136926337062e+00 +0.0000000000000000e+00 +1.1099999270008583e+01 -2.7825854275170855e-02 -5.3661363938979756e-01 +5.3111014159280493e-03
1.1199999999999976e+01 +8.1614505930414225e+00 +0.0000000000000000e+00 +1.1199999250100655e+01 -2.7825834202007863e-02 -5.3661398823384310e-01 +5.3111456147891482e-03
1.1299999999999976e+01 +8.1613869275200024e+00 +0.0000000000000000e+00 +1.1299999229834027e+01 -2.7825816413174966e-02 -5.3661433379544232e-01 +5.3111895523665692e-03
1.1399999999999975e+01 +8.1613226960690852e+00 +0.0000000000000000e+00 +1.1399999209205495e+01 -2.7825802182462535e-02 -5.3661467637732274e-01 +5.3112330929227678e-03
1.1499999999999975e+01 +8.1612578986883104e+00 +0.0000000000000000e+00 +1.1499999188211856e+01 -2.7825792783727120e-02 -5.3661501628217390e-01 +5.3112761007243778e-03
1.1599999999999975e+01 +8.1611925353773227e+00 +0.0000000000000000e+00 +1.1599999166849909e+01 -2.7825789490892826e-02 -5.3661535381264891e-01 +5.3113184400422880e-03
1.1699999999999974e+01 +8.1611266061357686e+00 +0.0000000000000000e+00 +1.1699999145116449e+01 -2.7825793577952611e-02 -5.3661568927136094e-01 +5.3113599751517223e-03
1.1799999999999974e+01 +8.1610601109632945e+00 +0.0000000000000000e+00 +1.1799999123008273e+01 -2.7825806318969689e-02 -5.3661602296088562e-01 +5.3114005703323187e-03
