# field on trajectory
# s[mm] rx[mm] ry[mm] rz[mm] bx[T] by[T] bz[T]
0.0000000000000000e+00 +7.9199999999999999e+00 +0.0000000000000000e+00 +0.0000000000000000e+00 -2.8816844775921967e-02 -5.3816478053246619e-01 +5.3401466177920905e-03
1.0000000000000001e-01 +7.9199997171498095e+00 +0.0000000000000000e+00 +9.9999999999466654e-02 -2.8816914458881931e-02 -5.3816478773947474e-01 +5.3401499994973171e-03
2.0000000000000001e-01 +7.9199988685992357e+00 +0.0000000000000000e+00 +1.9999999999573312e-01 -2.8816984234009885e-02 -5.3816478711026605e-01 +5.3401531030901114e-03
3.0000000000000004e-01 +7.9199974543482785e+00 +0.0000000000000000e+00 +2.9999999998559923e-01 -2.8817054468072600e-02 -5.3816477887817837e-01 +5.3401561445639272e-03
4.0000000000000002e-01 +7.9199954743969467e+00 +0.0000000000000000e+00 +3.9999999996586488e-01 -2.8817125527829602e-02 -5.3816476327655094e-01 +5.3401593399110131e-03
5.0000000000000000e-01 +7.9199929287452564e+00 +0.0000000000000000e+00 +4.9999999993332983e-01 -2.8817197780035244e-02 -5.3816474053872354e-01 +5.3401629051225028e-03
5.9999999999999998e-01 +7.9199898173932324e+00 +0.0000000000000000e+00 +5.9999999988479391e-01 -2.8817271591440610e-02 -5.3816471089803319e-01 +5.3401670561884790e-03
6.9999999999999996e-01 +7.9199861403409049e+00 +0.0000000000000000e+00 +6.9999999981705696e-01 -2.8817347328795553e-02 -5.3816467458781347e-01 +5.3401720090980485e-03
7.9999999999999993e-01 +7.9199818975883129e+00 +0.0000000000000000e+00 +7.9999999972691893e-01 -2.8817425358850700e-02 -5.3816463184139252e-01 +5.3401779798394377e-03
8.9999999999999991e-01 +7.9199770891355010e+00 +0.0000000000000000e+00 +8.9999999961117949e-01 -2.8817506048359351e-02 -5.3816458289209057e-01 +5.3401851844000342e-03
9.9999999999999989e-01 +7.9199717149825215e+00 +0.0000000000000000e+00 +9.9999999946663853e-01 -2.8817589764079565e-02 -5.3816452797321923e-01 +5.3401938387665007e-03
1.0999999999999999e+00 +7.9199657751294312e+00 +0.0000000000000000e+00 +1.0999999992900960e+00 -2.8817676872776102e-02 -5.3816446731807854e-01 +5.3402041589248189e-03
1.2000000000000000e+00 +7.9199592695762950e+00 +0.0000000000000000e+00 +1.1999999990783514e+00 -2.8817767741222401e-02 -5.3816440115995601e-01 +5.3402163608603850e-03
1.3000000000000000e+00 +7.9199521983231822e+00 +0.0000000000000000e+00 +1.2999999988282049e+00 -2.8817862736202578e-02 -5.3816432973212414e-01 +5.3402306605580740e-03
1.4000000000000001e+00 +7.9199445613701682e+00 +0.0000000000000000e+00 +1.3999999985364564e+00 -2.8817962224513410e-02 -5.3816425326783901e-01 +5.3402472740023254e-03
1.5000000000000002e+00 +7.9199363587173339e+00 +0.0000000000000000e+00 +1.4999999981999055e+00 -2.8818066572966362e-02 -5.3816417200033873e-01 +5.3402664171772083e-03
1.6000000000000003e+00 +7.9199275903647646e+00 +0.0000000000000000e+00 +1.5999999978153521e+00 -2.8818176148389482e-02 -5.3816408616284073e-01 +5.3402883060665101e-03
1.7000000000000004e+00 +7.9199182563125508e+00 +0.0000000000000000e+00 +1.6999999973795961e+00 -2.8818291317629502e-02 -5.3816399598854092e-01 +5.3403131566537943e-03
1.8000000000000005e+00 +7.9199083565607875e+00 +0.0000000000000000e+00 +1.7999999968894373e+00 -2.8818412447553690e-02 -5.3816390171061079e-01 +5.3403411849224942e-03
1.9000000000000006e+00 +7.9198978911095743e+00 +0.0000000000000000e+00 +1.8999999963416756e+00 -2.8818539905052006e-02 -5.3816380356219717e-01 +5.3403726068559807e-03
2.0000000000000004e+00 +7.9198868599590142e+00 +0.0000000000000000e+00 +1.9999999957331109e+00 -2.8818674057038900e-02 -5.3816370177641859e-01 +5.3404076384376276e-03
2.1000000000000005e+00 +7.9198752631092146e+00 +0.0000000000000000e+00 +2.0999999950605428e+00 -2.8818815062409412e-02 -5.3816359682007020e-01 +5.3404464485804432e-03
2.2000000000000006e+00 +7.9198631005602866e+00 +0.0000000000000000e+00 +2.1999999943207715e+00 -2.8818962247892516e-02 -5.3816349009474684e-01 +5.3404890179154976e-03
2.3000000000000007e+00 +7.9198503723123421e+00 +0.0000000000000000e+00 +2.2999999935105966e+00 -2.8819114732171604e-02 -5.3816338323573754e-01 +5.3405352800030203e-03
2.4000000000000008e+00 +7.9198370783654939e+00 +0.0000000000000000e+00 +2.3999999926268183e+00 -2.8819271633926613e-02 -5.3816327787832419e-01 +5.3405851684028430e-03
2.5000000000000009e+00 +7.9198232187198530e+00 +0.0000000000000000e+00 +2.4999999916662361e+00 -2.8819432071832358e-02 -5.3816317565778049e-01 +5.3406386166743869e-03
2.6000000000000010e+00 +7.9198087933755277e+00 +0.0000000000000000e+00 +2.5999999906256499e+00 -2.8819595164556951e-02 -5.3816307820937492e-01 +5.3406955583766864e-03
2.7000000000000011e+00 +7.9197938023326202e+00 +0.0000000000000000e+00 +2.6999999895018596e+00 -2.8819760030760186e-02 -5.3816298716837041e-01 +5.3407559270683804e-03
2.8000000000000012e+00 +7.9197782455912265e+00 +0.0000000000000000e+00 +2.7999999882916651e+00 -2.8819925789091923e-02 -5.3816290417002499e-01 +5.3408196563077175e-03
2.9000000000000012e+00 +7.9197621231514344e+00 +0.0000000000000000e+00 +2.8999999869918662e+00 -2.8820091558190444e-02 -5.3816283084959327e-01 +5.3408866796525638e-03
3.0000000000000013e+00 +7.9197454350133212e+00 +0.0000000000000000e+00 +2.9999999855992630e+00 -2.8820256456680869e-02 -5.3816276884232706e-01 +5.3409569306604020e-03
3.1000000000000014e+00 +7.9197281811769527e+00 +0.0000000000000000e+00 +3.0999999841106551e+00 -2.8820419603173549e-02 -5.3816271978347641e-01 +5.3410303428883367e-03
3.2000000000000015e+00 +7.9197103616423803e+00 +0.0000000000000000e+00 +3.1999999825228427e+00 -2.8820580116262404e-02 -5.3816268530828992e-01 +5.3411068498930986e-03
3.3000000000000016e+00 +7.9196919764096414e+00 +0.0000000000000000e+00 +3.2999999808326255e+00 -2.8820737114523369e-02 -5.3816266705201632e-01 +5.3411863852310471e-03
3.4000000000000017e+00 +7.9196730254787555e+00 +0.0000000000000000e+00 +3.3999999790368030e+00 -2.8820889716512730e-02 -5.3816266664990509e-01 +5.3412688824581748e-03
3.5000000000000018e+00 +7.9196535088497235e+00 +0.0000000000000000e+00 +3.4999999771321755e+00 -2.8821037040765534e-02 -5.3816268573720683e-01 +5.3413542751301144e-03
3.6000000000000019e+00 +7.9196334265225259e+00 +0.0000000000000000e+00 +3.5999999751155429e+00 -2.8821178205793958e-02 -5.3816272594917469e-01 +5.3414424968021360e-03
3.7000000000000020e+00 +7.9196127784971200e+00 +0.0000000000000000e+00 +3.6999999729837048e+00 -2.8821312330085697e-02 -5.3816278892106539e-01 +5.3415334810291495e-03
3.8000000000000020e+00 +7.9195915647734410e+00 +0.0000000000000000e+00 +3.7999999707334609e+00 -2.8821438532102363e-02 -5.3816287628813886e-01 +5.3416271613657166e-03
3.9000000000000021e+00 +7.9195697853513973e+00 +0.0000000000000000e+00 +3.8999999683616116e+00 -2.8821555930277860e-02 -5.3816298968566134e-01 +5.3417234713660534e-03
4.0000000000000018e+00 +7.9195474402308701e+00 +0.0000000000000000e+00 +3.9999999658649559e+00 -2.8821663643016766e-02 -5.3816313074890365e-01 +5.3418223445840241e-03
4.1000000000000014e+00 +7.9195245294117127e+00 +0.0000000000000000e+00 +4.0999999632402941e+00 -2.8821761077575673e-02 -5.3816330036335513e-01 +5.3419237068766442e-03
4.2000000000000011e+00 +7.9195010528937466e+00 +0.0000000000000000e+00 +4.1999999604844263e+00 -2.8821848796723389e-02 -5.3816349641536776e-01 +5.3420274533154642e-03
4.3000000000000007e+00 +7.9194770106767676e+00 +0.0000000000000000e+00 +4.2999999575941521e+00 -2.8821927652111109e-02 -5.3816371604155089e-01 +5.3421334712777926e-03
4.4000000000000004e+00 +7.9194524027605446e+00 +0.0000000000000000e+00 +4.3999999545662707e+00 -2.8821998495392194e-02 -5.3816395637856784e-01 +5.3422416481436214e-03
4.5000000000000000e+00 +7.9194272291448273e+00 +0.0000000000000000e+00 +4.4999999513975828e+00 -2.8822062178222654e-02 -5.3816421456314023e-01 +5.3423518712957989e-03
4.5999999999999996e+00 +7.9194014898293448e+00 +0.0000000000000000e+00 +4.5999999480848874e+00 -2.8822119552261605e-02 -5.3816448773205039e-01 +5.3424640281201910e-03
4.6999999999999993e+00 +7.9193751848138110e+00 +0.0000000000000000e+00 +4.6999999446249845e+00 -2.8822171469171837e-02 -5.3816477302214483e-01 +5.3425780060058674e-03
4.7999999999999989e+00 +7.9193483140979275e+00 +0.0000000000000000e+00 +4.7999999410146739e+00 -2.8822218780620232e-02 -5.3816506757033822e-01 +5.3426936923452566e-03
4.8999999999999986e+00 +7.9193208776813853e+00 +0.0000000000000000e+00 +4.8999999372507554e+00 -2.8822262338278306e-02 -5.3816536851361596e-01 +5.3428109745343238e-03
4.9999999999999982e+00 +7.9192928755638690e+00 +0.0000000000000000e+00 +4.9999999333300291e+00 -2.8822302993822657e-02 -5.3816567298903817e-01 +5.3429297399727512e-03
5.0999999999999979e+00 +7.9192643077450606e+00 +0.0000000000000000e+00 +5.0999999292492939e+00 -2.8822341598935507e-02 -5.3816597813374212e-01 +5.3430498760640883e-03
5.1999999999999975e+00 +7.9192351742246396e+00 +0.0000000000000000e+00 +5.1999999250053506e+00 -2.8822379005305179e-02 -5.3816628108494691e-01 +5.3431712702159441e-03
5.2999999999999972e+00 +7.9192054750022889e+00 +0.0000000000000000e+00 +5.2999999205949981e+00 -2.8822416064626578e-02 -5.3816657897995568e-01 +5.3432938098401470e-03
5.3999999999999968e+00 +7.9191752100776966e+00 +0.0000000000000000e+00 +5.3999999160150365e+00 -2.8822453628601696e-02 -5.3816686895615895e-01 +5.3434173823529128e-03
5.4999999999999964e+00 +7.9191443794505600e+00 +0.0000000000000000e+00 +5.4999999112622655e+00 -2.8822492548940103e-02 -5.3816714815103917e-01 +5.3435418751750317e-03
5.5999999999999961e+00 +7.9191129831205860e+00 +0.0000000000000000e+00 +5.5999999063334842e+00 -2.8822533677359465e-02 -5.3816741370217303e-01 +5.3436671757320208e-03
5.6999999999999957e+00 +7.9190810210874965e+00 +0.0000000000000000e+00 +5.6999999012254925e+00 -2.8822577865585994e-02 -5.3816766274723460e-01 +5.3437931714543085e-03
5.7999999999999954e+00 +7.9190484933510312e+00 +0.0000000000000000e+00 +5.7999998959350911e+00 -2.8822625965354981e-02 -5.3816789242399976e-01 +5.3439197497774007e-03
5.8999999999999950e+00 +7.9190153999109505e+00 +0.0000000000000000e+00 +5.8999998904590791e+00 -2.8822678828411285e-02 -5.3816809987034830e-01 +5.3440467981420532e-03
5.9999999999999947e+00 +7.9189817407670375e+00 +0.0000000000000000e+00 +5.9999998847942555e+00 -2.8822737306509829e-02 -5.3816828222426871e-01 +5.3441742039944465e-03
6.0999999999999943e+00 +7.9189475159191014e+00 +0.0000000000000000e+00 +6.0999998789374210e+00 -2.8822802000907585e-02 -5.3816843755434107e-01 +5.3443018661459094e-03
6.1999999999999940e+00 +7.9189127253669795e+00 +0.0000000000000000e+00 +6.1999998728853747e+00 -2.8822872510835627e-02 -5.3816856765113941e-01 +5.3444297288502661e-03
6.2999999999999936e+00 +7.9188773691105370e+00 +0.0000000000000000e+00 +6.2999998666349164e+00 -2.8822948185027439e-02 -5.3816867523567025e-01 +5.3445577477221218e-03
6.3999999999999932e+00 +7.9188414471496609e+00 +0.0000000000000000e+00 +6.3999998601828461e+00 -2.8823028372229872e-02 -5.3816876302886685e-01 +5.3446858783767854e-03
6.4999999999999929e+00 +7.9188049594842598e+00 +0.0000000000000000e+00 +6.4999998535259635e+00 -2.8823112421203605e-02 -5.3816883375158575e-01 +5.3448140764302257e-03
6.5999999999999925e+00 +7.9187679061142608e+00 +0.0000000000000000e+00 +6.5999998466610688e+00 -2.8823199680723711e-02 -5.3816889012460079e-01 +5.3449422974990385e-03
6.6999999999999922e+00 +7.9187302870396055e+00 +0.0000000000000000e+00 +6.6999998395849616e+00 -2.8823289499580230e-02 -5.3816893486860073e-01 +5.3450704972004019e-03
6.7999999999999918e+00 +7.9186921022602474e+00 +0.0000000000000000e+00 +6.7999998322944410e+00 -2.8823381226578688e-02 -5.3816897070418412e-01 +5.3451986311520497e-03
6.8999999999999915e+00 +7.9186533517761504e+00 +0.0000000000000000e+00 +6.8999998247863070e+00 -2.8823474210540642e-02 -5.3816900035185566e-01 +5.3453266549722328e-03
6.9999999999999911e+00 +7.9186140355872832e+00 +0.0000000000000000e+00 +6.9999998170573594e+00 -2.8823567800304199e-02 -5.3816902653202181e-01 +5.3454545242796730e-03
7.0999999999999908e+00 +7.9185741536936201e+00 +0.0000000000000000e+00 +7.0999998091043981e+00 -2.8823661344724593e-02 -5.3816905196498666e-01 +5.3455821946935371e-03
7.1999999999999904e+00 +7.9185337060951353e+00 +0.0000000000000000e+00 +7.1999998009242230e+00 -2.8823754192674720e-02 -5.3816907937094849e-01 +5.3457096218333970e-03
7.2999999999999901e+00 +7.9184926927918013e+00 +0.0000000000000000e+00 +7.2999997925136340e+00 -2.8823845693045688e-02 -5.3816911146999469e-01 +5.3458367613191966e-03
7.3999999999999897e+00 +7.9184511137835853e+00 +0.0000000000000000e+00 +7.3999997838694309e+00 -2.8823935194747297e-02 -5.3816915098209805e-01 +5.3459635687712007e-03
7.4999999999999893e+00 +7.9184089690704473e+00 +0.0000000000000000e+00 +7.4999997749884129e+00 -2.8824022046708669e-02 -5.3816920062711260e-01 +5.3460899998099796e-03
7.5999999999999890e+00 +7.9183662586523358e+00 +0.0000000000000000e+00 +7.5999997658673797e+00 -2.8824105597878732e-02 -5.3816926312476976e-01 +5.3462160100563576e-03
7.6999999999999886e+00 +7.9183229825291859e+00 +0.0000000000000000e+00 +7.6999997565031313e+00 -2.8824185197226786e-02 -5.3816934119467397e-01 +5.3463415551313776e-03
7.7999999999999883e+00 +7.9182791407009168e+00 +0.0000000000000000e+00 +7.7999997468924676e+00 -2.8824260193743012e-02 -5.3816943755629798e-01 +5.3464665906562707e-03
7.8999999999999879e+00 +7.9182347331674290e+00 +0.0000000000000000e+00 +7.8999997370321884e+00 -2.8824329936439068e-02 -5.3816955492898066e-01 +5.3465910722524145e-03
7.9999999999999876e+00 +7.9181897599286000e+00 +0.0000000000000000e+00 +7.9999997269190937e+00 -2.8824393774348575e-02 -5.3816969603192000e-01 +5.3467149555412978e-03
8.0999999999999872e+00 +7.9181442209842823e+00 +0.0000000000000000e+00 +8.0999997165499824e+00 -2.8824451249540101e-02 -5.3816986291616364e-01 +5.3468382044323890e-03
8.1999999999999869e+00 +7.9180981163343018e+00 +0.0000000000000000e+00 +8.1999997059216554e+00 -2.8824502676143508e-02 -5.3817005496058890e-01 +5.3469608159853925e-03
8.2999999999999865e+00 +7.9180514459784588e+00 +0.0000000000000000e+00 +8.2999996950309107e+00 -2.8824548561278061e-02 -5.3817027087599489e-01 +5.3470827955432940e-03
8.3999999999999861e+00 +7.9180042099165284e+00 +0.0000000000000000e+00 +8.3999996838745492e+00 -2.8824589412031396e-02 -5.3817050937312638e-01 +5.3472041484437299e-03
8.4999999999999858e+00 +7.9179564081482603e+00 +0.0000000000000000e+00 +8.4999996724493698e+00 -2.8824625735458360e-02 -5.3817076916267403e-01 +5.3473248800187789e-03
8.5999999999999854e+00 +7.9179080406733844e+00 +0.0000000000000000e+00 +8.5999996607521734e+00 -2.8824658038579996e-02 -5.3817104895527246e-01 +5.3474449955947679e-03
8.6999999999999851e+00 +7.9178591074916076e+00 +0.0000000000000000e+00 +8.6999996487797571e+00 -2.8824686828382365e-02 -5.3817134746149975e-01 +5.3475645004920974e-03
8.7999999999999847e+00 +7.9178096086026173e+00 +0.0000000000000000e+00 +8.7999996365289235e+00 -2.8824712611815552e-02 -5.3817166339187594e-01 +5.3476834000250285e-03
8.8999999999999844e+00 +7.9177595440060839e+00 +0.0000000000000000e+00 +8.8999996239964698e+00 -2.8824735895792437e-02 -5.3817199545686167e-01 +5.3478016995014976e-03
8.9999999999999840e+00 +7.9177089137016594e+00 +0.0000000000000000e+00 +8.9999996111791969e+00 -2.8824757187187716e-02 -5.3817234236685740e-01 +5.3479194042229247e-03
9.0999999999999837e+00 +7.9176577176889813e+00 +0.0000000000000000e+00 +9.0999995980739037e+00 -2.8824776992836719e-02 -5.3817270283220220e-01 +5.3480365194840222e-03
9.1999999999999833e+00 +7.9176059559676721e+00 +0.0000000000000000e+00 +9.1999995846773910e+00 -2.8824795819534402e-02 -5.3817307556317273e-01 +5.3481530505726012e-03
9.2999999999999829e+00 +7.9175536285373420e+00 +0.0000000000000000e+00 +9.2999995709864560e+00 -2.8824814174034170e-02 -5.3817345926998228e-01 +5.3482690027693777e-03
9.3999999999999826e+00 +7.9175007353975895e+00 +0.0000000000000000e+00 +9.3999995569979014e+00 -2.8824832563046809e-02 -5.3817385266277862e-01 +5.3483843813477740e-03
9.4999999999999822e+00 +7.9174472765480033e+00 +0.0000000000000000e+00 +9.4999995427085242e+00 -2.8824851493239424e-02 -5.3817425445164402e-01 +5.3484991915737435e-03
9.5999999999999819e+00 +7.9173932519881625e+00 +0.0000000000000000e+00 +9.5999995281151236e+00 -2.8824871471234293e-02 -5.3817466334659370e-01 +5.3486134387055575e-03
9.6999999999999815e+00 +7.9173386617176389e+00 +0.0000000000000000e+00 +9.6999995132145003e+00 -2.8824893003607799e-02 -5.3817507805757436e-01 +5.3487271279936298e-03
9.7999999999999812e+00 +7.9172835057359983e+00 +0.0000000000000000e+00 +9.7999994980034550e+00 -2.8824916596889349e-02 -5.3817549729446368e-01 +5.3488402646803155e-03
9.8999999999999808e+00 +7.9172277840428027e+00 +0.0000000000000000e+00 +9.8999994824787851e+00 -2.8824942757560226e-02 -5.3817591976706880e-01 +5.3489528539997213e-03
9.9999999999999805e+00 +7.9171714966376090e+00 +0.0000000000000000e+00 +9.9999994666372913e+00 -2.8824971992052559e-02 -5.3817634418512483e-01 +5.3490649011775091e-03
1.0099999999999980e+01 +7.9171146435199731e+00 +0.0000000000000000e+00 +1.0099999450475771e+01 -2.8825004714132480e-02 -5.3817676946744664e-01 +5.3491764116940501e-03
1.0199999999999980e+01 +7.9170572246894499e+00 +0.0000000000000000e+00 +1.0199999433991026e+01 -2.8825040967072651e-02 -5.3817719536947772e-01 +5.3492873920767871e-03
1.0299999999999979e+01 +7.9169992401455938e+00 +0.0000000000000000e+00 +1.0299999417179855e+01 -2.8825080701548999e-02 -5.3817762185596785e-01 +5.3493978491144789e-03
1.0399999999999979e+01 +7.9169406898879586e+00 +0.0000000000000000e+00 +1.0399999400039057e+01 -2.8825123868266845e-02 -5.3817804889184118e-01 +5.3495077895944895e-03
1.0499999999999979e+01 +7.9168815739160969e+00 +0.0000000000000000e+00 +1.0499999382565433e+01 -2.8825170417961815e-02 -5.3817847644220063e-01 +5.3496172203027752e-03
1.0599999999999978e+01 +7.9168218922295610e+00 +0.0000000000000000e+00 +1.0599999364755780e+01 -2.8825220301400684e-02 -5.3817890447233119e-01 +5.3497261480238605e-03
1.0699999999999978e+01 +7.9167616448279032e+00 +0.0000000000000000e+00 +1.0699999346606898e+01 -2.8825273469382229e-02 -5.3817933294770615e-01 +5.3498345795408445e-03
1.0799999999999978e+01 +7.9167008317106751e+00 +0.0000000000000000e+00 +1.0799999328115586e+01 -2.8825329872738181e-02 -5.3817976183399230e-01 +5.3499425216353936e-03
1.0899999999999977e+01 +7.9166394528774271e+00 +0.0000000000000000e+00 +1.0899999309278645e+01 -2.8825389462333970e-02 -5.3818019109705328e-01 +5.3500499810877214e-03
1.0999999999999977e+01 +7.9165775083277108e+00 +0.0000000000000000e+00 +1.0999999290092873e+01 -2.8825452189069706e-02 -5.3818062070295547e-01 +5.3501569646765878e-03
1.1099999999999977e+01 +7.9165149980610767e+00 +0.0000000000000000e+00 +1.1099999270555070e+01 -2.8825518003880977e-02 -5.3818105061797261e-01 +5.3502634791792883e-03
1.1199999999999976e+01 +7.9164519220770746e+00 +0.0000000000000000e+00 +1.1199999250662037e+01 -2.8825586857739765e-02 -5.3818148080859007e-01 +5.3503695313716461e-03
1.1299999999999976e+01 +7.9163882803752541e+00 +0.0000000000000000e+00 +1.1299999230410570e+01 -2.8825658701655293e-02 -5.3818191124151127e-01 +5.3504751280280061e-03
1.1399999999999975e+01 +7.9163240729551649e+00 +0.0000000000000000e+00 +1.1399999209797471e+01 -2.8825733486674891e-02 -5.3818234188366021e-01 +5.3505802759212153e-03
1.1499999999999975e+01 +7.9162592998163559e+00 +0.0000000000000000e+00 +1.1499999188819539e+01 -2.8825811163884874e-02 -5.3818277270218795e-01 +5.3506849818226272e-03
1.1599999999999975e+01 +7.9161939609583767e+00 +0.0000000000000000e+00 +1.1599999167473571e+01 -2.8825891684411391e-02 -5.3818320366447747e-01 +5.3507892525020868e-03
1.1699999999999974e+01 +7.9161280563807770e+00 +0.0000000000000000e+00 +1.1699999145756369e+01 -2.8825974999421335e-02 -5.3818363473814745e-01 +5.3508930947279137e-03
1.1799999999999974e+01 +7.9160615860831047e+00 +0.0000000000000000e+00 +1.1799999123664731e+01 -2.8826061060123136e-02 -5.3818406589105805e-01 +5.3509965152669040e-03
