# field on trajectory
# s[mm] rx[mm] ry[mm] rz[mm] bx[T] by[T] bz[T]
0.0000000000000000e+00 +8.1529999999999987e+00 +0.0000000000000000e+00 +0.0000000000000000e+00 -3.1085693985038861e-02 -5.9291736585426225e-01 +5.9802539573420646e-03
1.0000000000000001e-01 +8.1529997167589450e+00 +0.0000000000000000e+00 +9.9999999999465169e-02 -3.1085580853213741e-02 -5.9291732436338873e-01 +5.9802649845708024e-03
2.0000000000000001e-01 +8.1529988670358122e+00 +0.0000000000000000e+00 +1.9999999999572132e-01 -3.1085464797943343e-02 -5.9291727028426144e-01 +5.9802775476306622e-03
3.0000000000000004e-01 +8.1529974508306520e+00 +0.0000000000000000e+00 +2.9999999998555943e-01 -3.1085346468485802e-02 -5.9291720457786556e-01 +5.9802916484801502e-03
4.0000000000000002e-01 +8.1529954681435264e+00 +0.0000000000000000e+00 +3.9999999996577046e-01 -3.1085226514095236e-02 -5.9291712820518438e-01 +5.9803072890767858e-03
5.0000000000000000e-01 +8.1529929189745083e+00 +0.0000000000000000e+00 +4.9999999993314548e-01 -3.1085105584022329e-02 -5.9291704212719987e-01 +5.9803244713772337e-03
5.9999999999999998e-01 +8.1529898033236812e+00 +0.0000000000000000e+00 +5.9999999988447539e-01 -3.1084984327515074e-02 -5.9291694730489419e-01 +5.9803431973374519e-03
6.9999999999999996e-01 +8.1529861211911339e+00 +0.0000000000000000e+00 +6.9999999981655114e-01 -3.1084863393819405e-02 -5.9291684469925177e-01 +5.9803634689128251e-03
7.9999999999999993e-01 +8.1529818725769658e+00 +0.0000000000000000e+00 +7.9999999972616387e-01 -3.1084743432179936e-02 -5.9291673527125743e-01 +5.9803852880583154e-03
8.9999999999999991e-01 +8.1529770574812819e+00 +0.0000000000000000e+00 +8.9999999961010446e-01 -3.1084625091840613e-02 -5.9291661998190193e-01 +5.9804086567285990e-03
9.9999999999999989e-01 +8.1529716759041921e+00 +0.0000000000000000e+00 +9.9999999946516394e-01 -3.1084509022045379e-02 -5.9291649979217953e-01 +5.9804335768782052e-03
1.0999999999999999e+00 +8.1529657278458103e+00 +0.0000000000000000e+00 +1.0999999992881333e+00 -3.1084395872038886e-02 -5.9291637566309163e-01 +5.9804600504616582e-03
1.2000000000000000e+00 +8.1529592133062572e+00 +0.0000000000000000e+00 +1.1999999990758035e+00 -3.1084286291067187e-02 -5.9291624855564595e-01 +5.9804880794336289e-03
1.3000000000000000e+00 +8.1529521322856517e+00 +0.0000000000000000e+00 +1.2999999988249655e+00 -3.1084180928378374e-02 -5.9291611943085909e-01 +5.9805176657490586e-03
1.4000000000000001e+00 +8.1529444847841201e+00 +0.0000000000000000e+00 +1.3999999985324103e+00 -3.1084080433223294e-02 -5.9291598924975764e-01 +5.9805488113633164e-03
1.5000000000000002e+00 +8.1529362708017850e+00 +0.0000000000000000e+00 +1.4999999981949290e+00 -3.1083985454856244e-02 -5.9291585897337873e-01 +5.9805815182323299e-03
1.6000000000000003e+00 +8.1529274903387723e+00 +0.0000000000000000e+00 +1.5999999978093127e+00 -3.1083896642535608e-02 -5.9291572956277139e-01 +5.9806157883127284e-03
1.7000000000000004e+00 +8.1529181433952047e+00 +0.0000000000000000e+00 +1.6999999973723523e+00 -3.1083814645524590e-02 -5.9291560197899840e-01 +5.9806516235619920e-03
1.8000000000000005e+00 +8.1529082299712048e+00 +0.0000000000000000e+00 +1.7999999968808387e+00 -3.1083740113091857e-02 -5.9291547718313609e-01 +5.9806890259385855e-03
1.9000000000000006e+00 +8.1528977500668915e+00 +0.0000000000000000e+00 +1.8999999963315630e+00 -3.1083673694512242e-02 -5.9291535613627766e-01 +5.9807279974020957e-03
2.0000000000000004e+00 +8.1528867036823822e+00 +0.0000000000000000e+00 +1.9999999957213164e+00 -3.1083616039067431e-02 -5.9291523979953220e-01 +5.9807685399133875e-03
2.1000000000000005e+00 +8.1528750908177869e+00 +0.0000000000000000e+00 +2.0999999950468897e+00 -3.1083567643433341e-02 -5.9291512904424204e-01 +5.9808106269868917e-03
2.2000000000000006e+00 +8.1528629114732123e+00 +0.0000000000000000e+00 +2.1999999943050739e+00 -3.1083528393838777e-02 -5.9291502438262123e-01 +5.9808541183466579e-03
2.3000000000000007e+00 +8.1528501656487595e+00 +0.0000000000000000e+00 +2.2999999934926598e+00 -3.1083498023902052e-02 -5.9291492623709019e-01 +5.9808988452688377e-03
2.4000000000000008e+00 +8.1528368533445210e+00 +0.0000000000000000e+00 +2.3999999926064390e+00 -3.1083476267243781e-02 -5.9291483503005860e-01 +5.9809446390293322e-03
2.5000000000000009e+00 +8.1528229745605856e+00 +0.0000000000000000e+00 +2.4999999916432021e+00 -3.1083462857486886e-02 -5.9291475118392023e-01 +5.9809913309037243e-03
2.6000000000000010e+00 +8.1528085292970331e+00 +0.0000000000000000e+00 +2.5999999905997404e+00 -3.1083457528256482e-02 -5.9291467512105300e-01 +5.9810387521672028e-03
2.7000000000000011e+00 +8.1527935175539366e+00 +0.0000000000000000e+00 +2.6999999894728446e+00 -3.1083460013179909e-02 -5.9291460726381584e-01 +5.9810867340945083e-03
2.8000000000000012e+00 +8.1527779393313615e+00 +0.0000000000000000e+00 +2.7999999882593056e+00 -3.1083470045886640e-02 -5.9291454803454668e-01 +5.9811351079598540e-03
2.9000000000000012e+00 +8.1527617946293649e+00 +0.0000000000000000e+00 +2.8999999869559150e+00 -3.1083487360008231e-02 -5.9291449785555994e-01 +5.9811837050368624e-03
3.0000000000000013e+00 +8.1527450834479964e+00 +0.0000000000000000e+00 +2.9999999855594632e+00 -3.1083511689178292e-02 -5.9291445714914481e-01 +5.9812323565985002e-03
3.1000000000000014e+00 +8.1527278057872934e+00 +0.0000000000000000e+00 +3.0999999840667418e+00 -3.1083542767032443e-02 -5.9291442633756286e-01 +5.9812808939170084e-03
3.2000000000000015e+00 +8.1527099616472878e+00 +0.0000000000000000e+00 +3.1999999824745413e+00 -3.1083580327208291e-02 -5.9291440584304589e-01 +5.9813291482638375e-03
3.3000000000000016e+00 +8.1526915510279991e+00 +0.0000000000000000e+00 +3.2999999807796532e+00 -3.1083624103345340e-02 -5.9291439608779339e-01 +5.9813769509095794e-03
3.4000000000000017e+00 +8.1526725739294363e+00 +0.0000000000000000e+00 +3.3999999789788680e+00 -3.1083673829084953e-02 -5.9291439749397135e-01 +5.9814241331239059e-03
3.5000000000000018e+00 +8.1526530303515994e+00 +0.0000000000000000e+00 +3.4999999770689771e+00 -3.1083729238070342e-02 -5.9291441048370852e-01 +5.9814705261754834e-03
3.6000000000000019e+00 +8.1526329202944758e+00 +0.0000000000000000e+00 +3.5999999750467713e+00 -3.1083790063946490e-02 -5.9291443547909584e-01 +5.9815159613319331e-03
3.7000000000000020e+00 +8.1526122437580426e+00 +0.0000000000000000e+00 +3.6999999729090418e+00 -3.1083856040360094e-02 -5.9291447290218247e-01 +5.9815602698597408e-03
3.8000000000000020e+00 +8.1525910007422659e+00 +0.0000000000000000e+00 +3.7999999706525793e+00 -3.1083926900959569e-02 -5.9291452317497517e-01 +5.9816032830242042e-03
3.9000000000000021e+00 +8.1525691912470961e+00 +0.0000000000000000e+00 +3.8999999682741753e+00 -3.1084002379394949e-02 -5.9291458671943575e-01 +5.9816448320893657e-03
4.0000000000000018e+00 +8.1525468152724745e+00 +0.0000000000000000e+00 +3.9999999657706202e+00 -3.1084082209317847e-02 -5.9291466395747827e-01 +5.9816847483179303e-03
4.1000000000000014e+00 +8.1525238728183282e+00 +0.0000000000000000e+00 +4.0999999631387052e+00 -3.1084166037802365e-02 -5.9291475501355029e-01 +5.9817229218788936e-03
4.2000000000000011e+00 +8.1525003638845703e+00 +0.0000000000000000e+00 +4.1999999603752221e+00 -3.1084253165609092e-02 -5.9291485882240780e-01 +5.9817594785718546e-03
4.3000000000000007e+00 +8.1524762884711031e+00 +0.0000000000000000e+00 +4.2999999574769605e+00 -3.1084342806925042e-02 -5.9291497402140647e-01 +5.9817946031058070e-03
4.4000000000000004e+00 +8.1524516465778181e+00 +0.0000000000000000e+00 +4.3999999544407125e+00 -3.1084434175943677e-02 -5.9291509924792951e-01 +5.9818284801917646e-03
4.5000000000000000e+00 +8.1524264382045946e+00 +0.0000000000000000e+00 +4.4999999512632680e+00 -3.1084526486865029e-02 -5.9291523313938965e-01 +5.9818612945428881e-03
4.5999999999999996e+00 +8.1524006633513064e+00 +0.0000000000000000e+00 +4.5999999479414191e+00 -3.1084618953895946e-02 -5.9291537433323183e-01 +5.9818932308746105e-03
4.6999999999999993e+00 +8.1523743220178204e+00 +0.0000000000000000e+00 +4.6999999444719558e+00 -3.1084710791250351e-02 -5.9291552146693438e-01 +5.9819244739047744e-03
4.7999999999999989e+00 +8.1523474142039962e+00 +0.0000000000000000e+00 +4.7999999408516700e+00 -3.1084801213149462e-02 -5.9291567317801286e-01 +5.9819552083537689e-03
4.8999999999999986e+00 +8.1523199399096899e+00 +0.0000000000000000e+00 +4.8999999370773519e+00 -3.1084889433822011e-02 -5.9291582810402155e-01 +5.9819856189446529e-03
4.9999999999999982e+00 +8.1522918991347542e+00 +0.0000000000000000e+00 +4.9999999331457925e+00 -3.1084974667504504e-02 -5.9291598488255648e-01 +5.9820158904032921e-03
5.0999999999999979e+00 +8.1522632918790414e+00 +0.0000000000000000e+00 +5.0999999290537836e+00 -3.1085056128441431e-02 -5.9291614215125721e-01 +5.9820462074584909e-03
5.1999999999999975e+00 +8.1522341181424007e+00 +0.0000000000000000e+00 +5.1999999247981155e+00 -3.1085133030885500e-02 -5.9291629854780992e-01 +5.9820767548421257e-03
5.2999999999999972e+00 +8.1522043779246847e+00 +0.0000000000000000e+00 +5.2999999203755790e+00 -3.1085204589097921e-02 -5.9291645270994942e-01 +5.9821077172892718e-03
5.3999999999999968e+00 +8.1521740712257476e+00 +0.0000000000000000e+00 +5.3999999157829652e+00 -3.1085270017348562e-02 -5.9291660327546136e-01 +5.9821392795383378e-03
5.4999999999999964e+00 +8.1521431980454455e+00 +0.0000000000000000e+00 +5.4999999110170652e+00 -3.1085328529916259e-02 -5.9291674888218515e-01 +5.9821716263311940e-03
5.5999999999999961e+00 +8.1521117583836418e+00 +0.0000000000000000e+00 +5.5999999060746699e+00 -3.1085379341088976e-02 -5.9291688816801635e-01 +5.9822049424133198e-03
5.6999999999999957e+00 +8.1520797522402031e+00 +0.0000000000000000e+00 +5.6999999009525704e+00 -3.1085421665164141e-02 -5.9291701977090838e-01 +5.9822394125339040e-03
5.7999999999999954e+00 +8.1520471796150051e+00 +0.0000000000000000e+00 +5.7999998956475567e+00 -3.1085454716448795e-02 -5.9291714232887593e-01 +5.9822752214460069e-03
5.8999999999999950e+00 +8.1520140405079324e+00 +0.0000000000000000e+00 +5.8999998901564208e+00 -3.1085477709259863e-02 -5.9291725447999633e-01 +5.9823125539066680e-03
5.9999999999999947e+00 +8.1519803349188784e+00 +0.0000000000000000e+00 +5.9999998844759537e+00 -3.1085489857924413e-02 -5.9291735486241293e-01 +5.9823515946770519e-03
6.0999999999999943e+00 +8.1519460628477489e+00 +0.0000000000000000e+00 +6.0999998786029455e+00 -3.1085490618205733e-02 -5.9291744253185352e-01 +5.9823924861513045e-03
6.1999999999999940e+00 +8.1519112242944622e+00 +0.0000000000000000e+00 +6.1999998725341872e+00 -3.1085480411571664e-02 -5.9291751821416072e-01 +5.9824352012404361e-03
6.2999999999999936e+00 +8.1518758192589456e+00 +0.0000000000000000e+00 +6.2999998662664707e+00 -3.1085459900892308e-02 -5.9291758305269671e-01 +5.9824796704832017e-03
6.3999999999999932e+00 +8.1518398477411385e+00 +0.0000000000000000e+00 +6.3999998597965861e+00 -3.1085429749008013e-02 -5.9291763819081633e-01 +5.9825258244171437e-03
6.4999999999999929e+00 +8.1518033097409894e+00 +0.0000000000000000e+00 +6.4999998531213246e+00 -3.1085390618728035e-02 -5.9291768477186724e-01 +5.9825735935784725e-03
6.5999999999999925e+00 +8.1517662052584541e+00 +0.0000000000000000e+00 +6.5999998462374778e+00 -3.1085343172829214e-02 -5.9291772393918818e-01 +5.9826229085019915e-03
6.6999999999999922e+00 +8.1517285342934969e+00 +0.0000000000000000e+00 +6.6999998391418361e+00 -3.1085288074054602e-02 -5.9291775683610837e-01 +5.9826736997209973e-03
6.7999999999999918e+00 +8.1516902968460876e+00 +0.0000000000000000e+00 +6.7999998318311903e+00 -3.1085225985112160e-02 -5.9291778460594768e-01 +5.9827258977671891e-03
6.8999999999999915e+00 +8.1516514929161996e+00 +0.0000000000000000e+00 +6.8999998243023315e+00 -3.1085157568673413e-02 -5.9291780839201513e-01 +5.9827794331705738e-03
6.9999999999999911e+00 +8.1516121225038134e+00 +0.0000000000000000e+00 +6.9999998165520507e+00 -3.1085083487372059e-02 -5.9291782933760795e-01 +5.9828342364593740e-03
7.0999999999999908e+00 +8.1515721856089094e+00 +0.0000000000000000e+00 +7.0999998085771390e+00 -3.1085004403802730e-02 -5.9291784858601093e-01 +5.9828902381599434e-03
7.1999999999999904e+00 +8.1515316822314698e+00 +0.0000000000000000e+00 +7.1999998003743872e+00 -3.1084920980519570e-02 -5.9291786728049711e-01 +5.9829473687966536e-03
7.2999999999999901e+00 +8.1514906123714788e+00 +0.0000000000000000e+00 +7.2999997919405866e+00 -3.1084833880034936e-02 -5.9291788656432498e-01 +5.9830055588918308e-03
7.3999999999999897e+00 +8.1514489760289184e+00 +0.0000000000000000e+00 +7.3999997832725271e+00 -3.1084743764818058e-02 -5.9291790758073903e-01 +5.9830647389656488e-03
7.4999999999999893e+00 +8.1514067732037692e+00 +0.0000000000000000e+00 +7.4999997743670006e+00 -3.1084651297293632e-02 -5.9291793147296812e-01 +5.9831248395360208e-03
7.5999999999999890e+00 +8.1513640038960116e+00 +0.0000000000000000e+00 +7.5999997652207982e+00 -3.1084557139840620e-02 -5.9291795938422598e-01 +5.9831857911185459e-03
7.6999999999999886e+00 +8.1513206681056189e+00 +0.0000000000000000e+00 +7.6999997558307101e+00 -3.1084461954790758e-02 -5.9291799245770904e-01 +5.9832475242263747e-03
7.7999999999999883e+00 +8.1512767658325611e+00 +0.0000000000000000e+00 +7.7999997461935280e+00 -3.1084366404427310e-02 -5.9291803183659719e-01 +5.9833099693701553e-03
7.8999999999999879e+00 +8.1512322970768007e+00 +0.0000000000000000e+00 +7.8999997363060430e+00 -3.1084271150983705e-02 -5.9291807866405155e-01 +5.9833730570579124e-03
7.9999999999999876e+00 +8.1511872618382952e+00 +0.0000000000000000e+00 +7.9999997261650453e+00 -3.1084176856642193e-02 -5.9291813408321481e-01 +5.9834367177949753e-03
8.0999999999999872e+00 +8.1511416601169930e+00 +0.0000000000000000e+00 +8.0999997157673267e+00 -3.1084084086608371e-02 -5.9291819905573095e-01 +5.9835008975964365e-03
8.1999999999999869e+00 +8.1510954919128338e+00 +0.0000000000000000e+00 +8.1999997051096774e+00 -3.1083993018360220e-02 -5.9291827381729234e-01 +5.9835656045264104e-03
8.2999999999999865e+00 +8.1510487572257482e+00 +0.0000000000000000e+00 +8.2999996941888874e+00 -3.1083903732467277e-02 -5.9291835842206664e-01 +5.9836308621621153e-03
8.3999999999999861e+00 +8.1510014560556563e+00 +0.0000000000000000e+00 +8.3999996830017487e+00 -3.1083816309523723e-02 -5.9291845292417655e-01 +5.9836966940813707e-03
8.4999999999999858e+00 +8.1509535884024693e+00 +0.0000000000000000e+00 +8.4999996715450532e+00 -3.1083730830149450e-02 -5.9291855737769739e-01 +5.9837631238626012e-03
8.5999999999999854e+00 +8.1509051542660895e+00 +0.0000000000000000e+00 +8.5999996598155910e+00 -3.1083647374991100e-02 -5.9291867183665536e-01 +5.9838301750848562e-03
8.6999999999999851e+00 +8.1508561536464086e+00 +0.0000000000000000e+00 +8.6999996478101522e+00 -3.1083566024723130e-02 -5.9291879635502787e-01 +5.9838978713278182e-03
8.7999999999999847e+00 +8.1508065865433075e+00 +0.0000000000000000e+00 +8.7999996355255288e+00 -3.1083486860048897e-02 -5.9291893098674053e-01 +5.9839662361718376e-03
8.8999999999999844e+00 +8.1507564529566618e+00 +0.0000000000000000e+00 +8.8999996229585125e+00 -3.1083409961701596e-02 -5.9291907578566516e-01 +5.9840352931979143e-03
8.9999999999999840e+00 +8.1507057528863331e+00 +0.0000000000000000e+00 +8.9999996101058919e+00 -3.1083335410445473e-02 -5.9291923080562103e-01 +5.9841050659877482e-03
9.0999999999999837e+00 +8.1506544863321757e+00 +0.0000000000000000e+00 +9.0999995969644587e+00 -3.1083263287076723e-02 -5.9291939610036981e-01 +5.9841755781237195e-03
9.1999999999999833e+00 +8.1506026532940332e+00 +0.0000000000000000e+00 +9.1999995835310049e+00 -3.1083193672424632e-02 -5.9291957172361753e-01 +5.9842468531889279e-03
9.2999999999999829e+00 +8.1505502537717387e+00 +0.0000000000000000e+00 +9.2999995698023206e+00 -3.1083126647352639e-02 -5.9291975772901107e-01 +5.9843189147672071e-03
9.3999999999999826e+00 +8.1504972877651181e+00 +0.0000000000000000e+00 +9.3999995557751959e+00 -3.1083062292759273e-02 -5.9291995417013654e-01 +5.9843917864431133e-03
9.4999999999999822e+00 +8.1504437552739830e+00 +0.0000000000000000e+00 +9.4999995414464227e+00 -3.1083000689579362e-02 -5.9292016110051948e-01 +5.9844654918019781e-03
9.5999999999999819e+00 +8.1503896562981382e+00 +0.0000000000000000e+00 +9.5999995268127911e+00 -3.1082941918784981e-02 -5.9292037857362234e-01 +5.9845400544298859e-03
9.6999999999999815e+00 +8.1503349908373792e+00 +0.0000000000000000e+00 +9.6999995118710931e+00 -3.1082886061386521e-02 -5.9292060664284241e-01 +5.9846154979137124e-03
9.7999999999999812e+00 +8.1502797588914877e+00 +0.0000000000000000e+00 +9.7999994966181188e+00 -3.1082833198433753e-02 -5.9292084536151157e-01 +5.9846918458411266e-03
9.8999999999999808e+00 +8.1502239604602380e+00 +0.0000000000000000e+00 +9.8999994810506600e+00 -3.1082783411016873e-02 -5.9292109478289468e-01 +5.9847691218006200e-03
9.9999999999999805e+00 +8.1501675955433939e+00 +0.0000000000000000e+00 +9.9999994651655051e+00 -3.1082736780267559e-02 -5.9292135496018716e-01 +5.9848473493814983e-03
1.0099999999999980e+01 +8.1501106641407102e+00 +0.0000000000000000e+00 +1.0099999448959448e+01 -3.1082693470710455e-02 -5.9292162584426855e-01 +5.9849265436348895e-03
1.0199999999999980e+01 +8.1500531662519275e+00 +0.0000000000000000e+00 +1.0199999432429276e+01 -3.1082653980305595e-02 -5.9292190697700753e-01 +5.9850066854532117e-03
1.0299999999999979e+01 +8.1499951018767796e+00 +0.0000000000000000e+00 +1.0299999415571783e+01 -3.1082618890368400e-02 -5.9292219779809896e-01 +5.9850877471823681e-03
1.0399999999999979e+01 +8.1499364710149909e+00 +0.0000000000000000e+00 +1.0399999398383757e+01 -3.1082588782212775e-02 -5.9292249774732764e-01 +5.9851697011601554e-03
1.0499999999999979e+01 +8.1498772736662772e+00 +0.0000000000000000e+00 +1.0499999380861992e+01 -3.1082564237151035e-02 -5.9292280626457250e-01 +5.9852525197160401e-03
1.0599999999999978e+01 +8.1498175098303456e+00 +0.0000000000000000e+00 +1.0599999363003276e+01 -3.1082545836493780e-02 -5.9292312278980719e-01 +5.9853361751709766e-03
1.0699999999999978e+01 +8.1497571795068957e+00 +0.0000000000000000e+00 +1.0699999344804400e+01 -3.1082534161549848e-02 -5.9292344676310393e-01 +5.9854206398371884e-03
1.0799999999999978e+01 +8.1496962826956185e+00 +0.0000000000000000e+00 +1.0799999326262157e+01 -3.1082529793626232e-02 -5.9292377762463555e-01 +5.9855058860179894e-03
1.0899999999999977e+01 +8.1496348193962014e+00 +0.0000000000000000e+00 +1.0899999307373335e+01 -3.1082533314027969e-02 -5.9292411481467822e-01 +5.9855918860075687e-03
1.0999999999999977e+01 +8.1495727896083245e+00 +0.0000000000000000e+00 +1.0999999288134726e+01 -3.1082545304058056e-02 -5.9292445777361302e-01 +5.9856786120907933e-03
1.1099999999999977e+01 +8.1495101933316612e+00 +0.0000000000000000e+00 +1.1099999268543121e+01 -3.1082566345017396e-02 -5.9292480594192998e-01 +5.9857660365430169e-03
1.1199999999999976e+01 +8.1494470305658808e+00 +0.0000000000000000e+00 +1.1199999248595310e+01 -3.1082597018204698e-02 -5.9292515876022878e-01 +5.9858541316298612e-03
1.1299999999999976e+01 +8.1493833013106496e+00 +0.0000000000000000e+00 +1.1299999228288083e+01 -3.1082637904916381e-02 -5.9292551566922358e-01 +5.9859428696070376e-03
1.1399999999999975e+01 +8.1493190055656282e+00 +0.0000000000000000e+00 +1.1399999207618233e+01 -3.1082689586446444e-02 -5.9292587610974223e-01 +5.9860322227201250e-03
1.1499999999999975e+01 +8.1492541433304737e+00 +0.0000000000000000e+00 +1.1499999186582549e+01 -3.1082752644086477e-02 -5.9292623952273227e-01 +5.9861221632043927e-03
1.1599999999999975e+01 +8.1491887146048398e+00 +0.0000000000000000e+00 +1.1599999165177822e+01 -3.1082827659125491e-02 -5.9292660534926078e-01 +5.9862126632845777e-03
1.1699999999999974e+01 +8.1491227193883820e+00 +0.0000000000000000e+00 +1.1699999143400843e+01 -3.1082915212849858e-02 -5.9292697303051856e-01 +5.9863036951746983e-03
1.1799999999999974e+01 +8.1490561576807483e+00 +0.0000000000000000e+00 +1.1799999121248403e+01 -3.1083015886543233e-02 -5.9292734200782116e-01 +5.9863952310778490e-03
