# field on trajectory
# s[mm] rx[mm] ry[mm] rz[mm] bx[T] by[T] bz[T]
0.0000000000000000e+00 +7.9199999999999999e+00 +0.0000000000000000e+00 +0.0000000000000000e+00 -3.0779058081420764e-02 -5.6668973056643579e-01 +5.6123447362604675e-03
1.0000000000000001e-01 +7.9199997168511151e+00 +0.0000000000000000e+00 +9.9999999999465503e-02 -3.0779069179482924e-02 -5.6668991970781457e-01 +5.6124318782341748e-03
2.0000000000000001e-01 +7.9199988674043338e+00 +0.0000000000000000e+00 +1.9999999999572410e-01 -3.0779073111691445e-02 -5.6669010683377830e-01 +5.6125213118685168e-03
3.0000000000000004e-01 +7.9199974516594693e+00 +0.0000000000000000e+00 +2.9999999998556881e-01 -3.0779070220182368e-02 -5.6669029206217170e-01 +5.6126128990037355e-03
4.0000000000000002e-01 +7.9199954696163370e+00 +0.0000000000000000e+00 +3.9999999996579272e-01 -3.0779060847095842e-02 -5.6669047551085527e-01 +5.6127065014816690e-03
5.0000000000000000e-01 +7.9199929212747531e+00 +0.0000000000000000e+00 +4.9999999993318889e-01 -3.0779045334575768e-02 -5.6669065729770329e-01 +5.6128019811454780e-03
5.9999999999999998e-01 +7.9199898066345362e+00 +0.0000000000000000e+00 +5.9999999988455033e-01 -3.0779024024769508e-02 -5.6669083754060123e-01 +5.6128991998393761e-03
6.9999999999999996e-01 +7.9199861256955062e+00 +0.0000000000000000e+00 +6.9999999981667016e-01 -3.0778997259827492e-02 -5.6669101635744357e-01 +5.6129980194083414e-03
7.9999999999999993e-01 +7.9199818784574845e+00 +0.0000000000000000e+00 +7.9999999972634139e-01 -3.0778965381902789e-02 -5.6669119386612810e-01 +5.6130983016978346e-03
8.9999999999999991e-01 +7.9199770649202943e+00 +0.0000000000000000e+00 +8.9999999961035704e-01 -3.0778928733150863e-02 -5.6669137018455751e-01 +5.6131999085535268e-03
9.9999999999999989e-01 +7.9199716850837589e+00 +0.0000000000000000e+00 +9.9999999946551021e-01 -3.0778887655729108e-02 -5.6669154543063283e-01 +5.6133027018210151e-03
1.0999999999999999e+00 +7.9199657389477034e+00 +0.0000000000000000e+00 +1.0999999992885938e+00 -3.0778842491796576e-02 -5.6669171972225296e-01 +5.6134065433455496e-03
1.2000000000000000e+00 +7.9199592265119545e+00 +0.0000000000000000e+00 +1.1999999990764012e+00 -3.0778793583513538e-02 -5.6669189317731072e-01 +5.6135112949717439e-03
1.3000000000000000e+00 +7.9199521477763382e+00 +0.0000000000000000e+00 +1.2999999988257251e+00 -3.0778741273041168e-02 -5.6669206591369070e-01 +5.6136168185433053e-03
1.4000000000000001e+00 +7.9199445027406830e+00 +0.0000000000000000e+00 +1.3999999985333587e+00 -3.0778685902541188e-02 -5.6669223804926583e-01 +5.6137229759027516e-03
1.5000000000000002e+00 +7.9199362914048166e+00 +0.0000000000000000e+00 +1.4999999981960948e+00 -3.0778627814175483e-02 -5.6669240970189549e-01 +5.6138296288911352e-03
1.6000000000000003e+00 +7.9199275137685676e+00 +0.0000000000000000e+00 +1.5999999978107267e+00 -3.0778567350105725e-02 -5.6669258098942155e-01 +5.6139366393477457e-03
1.7000000000000004e+00 +7.9199181698317647e+00 +0.0000000000000000e+00 +1.6999999973740472e+00 -3.0778504852493064e-02 -5.6669275202966718e-01 +5.6140438691098648e-03
1.8000000000000005e+00 +7.9199082595942381e+00 +0.0000000000000000e+00 +1.7999999968828495e+00 -3.0778440663497726e-02 -5.6669292294043250e-01 +5.6141511800124567e-03
1.9000000000000006e+00 +7.9198977830558173e+00 +0.0000000000000000e+00 +1.8999999963339267e+00 -3.0778375125278676e-02 -5.6669309383949273e-01 +5.6142584338878991e-03
2.0000000000000004e+00 +7.9198867402163309e+00 +0.0000000000000000e+00 +1.9999999957240715e+00 -3.0778308579993221e-02 -5.6669326484459526e-01 +5.6143654925657101e-03
2.1000000000000005e+00 +7.9198751310756093e+00 +0.0000000000000000e+00 +2.0999999950500770e+00 -3.0778241318453536e-02 -5.6669343600023392e-01 +5.6144722471659107e-03
2.2000000000000006e+00 +7.9198629556334819e+00 +0.0000000000000000e+00 +2.1999999943087363e+00 -3.0778173426097354e-02 -5.6669360705798810e-01 +5.6145787059810092e-03
2.3000000000000007e+00 +7.9198502138897773e+00 +0.0000000000000000e+00 +2.2999999934968427e+00 -3.0778104937018023e-02 -5.6669377769620355e-01 +5.6146849065971220e-03
2.4000000000000008e+00 +7.9198369058443268e+00 +0.0000000000000000e+00 +2.3999999926111886e+00 -3.0778035885307694e-02 -5.6669394759321823e-01 +5.6147908866007777e-03
2.5000000000000009e+00 +7.9198230314969598e+00 +0.0000000000000000e+00 +2.4999999916485676e+00 -3.0777966305057053e-02 -5.6669411642736089e-01 +5.6148966835790747e-03
2.6000000000000010e+00 +7.9198085908475084e+00 +0.0000000000000000e+00 +2.5999999906057720e+00 -3.0777896230355196e-02 -5.6669428387695342e-01 +5.6150023351198338e-03
2.7000000000000011e+00 +7.9197935838958058e+00 +0.0000000000000000e+00 +2.6999999894795952e+00 -3.0777825695289460e-02 -5.6669444962030957e-01 +5.6151078788117675e-03
2.8000000000000012e+00 +7.9197780106416875e+00 +0.0000000000000000e+00 +2.7999999882668303e+00 -3.0777754733945187e-02 -5.6669461333573590e-01 +5.6152133522446345e-03
2.9000000000000012e+00 +7.9197618710849893e+00 +0.0000000000000000e+00 +2.8999999869642701e+00 -3.0777683380405620e-02 -5.6669477470153140e-01 +5.6153187930093927e-03
3.0000000000000013e+00 +7.9197451652255513e+00 +0.0000000000000000e+00 +2.9999999855687078e+00 -3.0777611668751689e-02 -5.6669493339598931e-01 +5.6154242386983804e-03
3.1000000000000014e+00 +7.9197278930632153e+00 +0.0000000000000000e+00 +3.0999999840769363e+00 -3.0777539633061811e-02 -5.6669508909739519e-01 +5.6155297269054457e-03
3.2000000000000015e+00 +7.9197100545978261e+00 +0.0000000000000000e+00 +3.1999999824857484e+00 -3.0777467307411783e-02 -5.6669524148402917e-01 +5.6156352952261377e-03
3.3000000000000016e+00 +7.9196916498292325e+00 +0.0000000000000000e+00 +3.2999999807919371e+00 -3.0777394725874509e-02 -5.6669539023416493e-01 +5.6157409812578399e-03
3.4000000000000017e+00 +7.9196726787572853e+00 +0.0000000000000000e+00 +3.3999999789922954e+00 -3.0777321922519946e-02 -5.6669553502607095e-01 +5.6158468225999481e-03
3.5000000000000018e+00 +7.9196531413818416e+00 +0.0000000000000000e+00 +3.4999999770836165e+00 -3.0777248931414810e-02 -5.6669567553800992e-01 +5.6159528568540222e-03
3.6000000000000019e+00 +7.9196330377027611e+00 +0.0000000000000000e+00 +3.5999999750626932e+00 -3.0777175786622483e-02 -5.6669581144823966e-01 +5.6160591216239484e-03
3.7000000000000020e+00 +7.9196123677199086e+00 +0.0000000000000000e+00 +3.6999999729263187e+00 -3.0777102522202792e-02 -5.6669594243501287e-01 +5.6161656545160943e-03
3.8000000000000020e+00 +7.9195911314331546e+00 +0.0000000000000000e+00 +3.7999999706712857e+00 -3.0777029172211857e-02 -5.6669606817657769e-01 +5.6162724931394774e-03
3.9000000000000021e+00 +7.9195693288423739e+00 +0.0000000000000000e+00 +3.8999999682943871e+00 -3.0776955770701914e-02 -5.6669618835117808e-01 +5.6163796751059194e-03
4.0000000000000018e+00 +7.9195469599474464e+00 +0.0000000000000000e+00 +3.9999999657924161e+00 -3.0776882351721140e-02 -5.6669630263705417e-01 +5.6164872380302074e-03
4.1000000000000014e+00 +7.9195240247482594e+00 +0.0000000000000000e+00 +4.0999999631621655e+00 -3.0776808972325057e-02 -5.6669641105663027e-01 +5.6165952215672934e-03
4.2000000000000011e+00 +7.9195005232447047e+00 +0.0000000000000000e+00 +4.1999999604004286e+00 -3.0776735781609131e-02 -5.6669651500909057e-01 +5.6167036735221970e-03
4.3000000000000007e+00 +7.9194764554366799e+00 +0.0000000000000000e+00 +4.2999999575039975e+00 -3.0776662951669777e-02 -5.6669661623782674e-01 +5.6168126437364458e-03
4.4000000000000004e+00 +7.9194518213240830e+00 +0.0000000000000000e+00 +4.3999999544696662e+00 -3.0776590654591644e-02 -5.6669671648625275e-01 +5.6169221820506028e-03
4.5000000000000000e+00 +7.9194266209068154e+00 +0.0000000000000000e+00 +4.4999999512942273e+00 -3.0776519062447071e-02 -5.6669681749780698e-01 +5.6170323383041695e-03
4.5999999999999996e+00 +7.9194008541847767e+00 +0.0000000000000000e+00 +4.5999999479744735e+00 -3.0776448347295503e-02 -5.6669692101595348e-01 +5.6171431623354903e-03
4.6999999999999993e+00 +7.9193745211578648e+00 +0.0000000000000000e+00 +4.6999999445071987e+00 -3.0776378681182898e-02 -5.6669702878418315e-01 +5.6172547039816598e-03
4.7999999999999989e+00 +7.9193476218259713e+00 +0.0000000000000000e+00 +4.7999999408891947e+00 -3.0776310236141264e-02 -5.6669714254601689e-01 +5.6173670130784288e-03
4.8999999999999986e+00 +7.9193201561889843e+00 +0.0000000000000000e+00 +4.8999999371172551e+00 -3.0776243184187944e-02 -5.6669726404500587e-01 +5.6174801394601121e-03
4.9999999999999982e+00 +7.9192921242467831e+00 +0.0000000000000000e+00 +4.9999999331881728e+00 -3.0776177697325196e-02 -5.6669739502473382e-01 +5.6175941329594890e-03
5.0999999999999979e+00 +7.9192635259992370e+00 +0.0000000000000000e+00 +5.0999999290987406e+00 -3.0776113947539485e-02 -5.6669753722881855e-01 +5.6177090434077108e-03
5.1999999999999975e+00 +7.9192343614462049e+00 +0.0000000000000000e+00 +5.1999999248457511e+00 -3.0776052106801045e-02 -5.6669769240091361e-01 +5.6178249206342056e-03
5.2999999999999972e+00 +7.9192046305875321e+00 +0.0000000000000000e+00 +5.2999999204259973e+00 -3.0775992347063259e-02 -5.6669786228471120e-01 +5.6179418144665901e-03
5.3999999999999968e+00 +7.9191743334230509e+00 +0.0000000000000000e+00 +5.3999999158362728e+00 -3.0775934840262059e-02 -5.6669804862394124e-01 +5.6180597747305669e-03
5.4999999999999964e+00 +7.9191434699525747e+00 +0.0000000000000000e+00 +5.4999999110733704e+00 -3.0775879758315423e-02 -5.6669825316237565e-01 +5.6181788512498360e-03
5.5999999999999961e+00 +7.9191120401759001e+00 +0.0000000000000000e+00 +5.5999999061340819e+00 -3.0775827273122752e-02 -5.6669847764382864e-01 +5.6182990938459920e-03
5.6999999999999957e+00 +7.9190800440928042e+00 +0.0000000000000000e+00 +5.6999999010152012e+00 -3.0775777556564334e-02 -5.6669872381215902e-01 +5.6184205523384457e-03
5.7999999999999954e+00 +7.9190474817030418e+00 +0.0000000000000000e+00 +5.7999998957135208e+00 -3.0775730780500787e-02 -5.6669899341127139e-01 +5.6185432765443058e-03
5.8999999999999950e+00 +7.9190143530063439e+00 +0.0000000000000000e+00 +5.8999998902258346e+00 -3.0775687116772442e-02 -5.6669928818511817e-01 +5.6186673162783099e-03
5.9999999999999947e+00 +7.9189806580024173e+00 +0.0000000000000000e+00 +5.9999998845489344e+00 -3.0775646737198840e-02 -5.6669960987770096e-01 +5.6187927213527077e-03
6.0999999999999943e+00 +7.9189463966909415e+00 +0.0000000000000000e+00 +6.0999998786796130e+00 -3.0775609821102334e-02 -5.6669995957578223e-01 +5.6189195152271665e-03
6.1999999999999940e+00 +7.9189115690715672e+00 +0.0000000000000000e+00 +6.1999998726146641e+00 -3.0775576577899245e-02 -5.6670033573698186e-01 +5.6190476159577781e-03
6.2999999999999936e+00 +7.9188761751439207e+00 +0.0000000000000000e+00 +6.2999998663508796e+00 -3.0775547224560464e-02 -5.6670073616161731e-01 +5.6191769152462920e-03
6.3999999999999932e+00 +7.9188402149076031e+00 +0.0000000000000000e+00 +6.3999998598850532e+00 -3.0775521978093478e-02 -5.6670115864999260e-01 +5.6193073047900227e-03
6.4999999999999929e+00 +7.9188036883621944e+00 +0.0000000000000000e+00 +6.4999998532139767e+00 -3.0775501055544080e-02 -5.6670160100239719e-01 +5.6194386762817069e-03
6.5999999999999925e+00 +7.9187665955072530e+00 +0.0000000000000000e+00 +6.5999998463344438e+00 -3.0775484673998123e-02 -5.6670206101910470e-01 +5.6195709214093498e-03
6.6999999999999922e+00 +7.9187289363423208e+00 +0.0000000000000000e+00 +6.6999998392432465e+00 -3.0775473050583244e-02 -5.6670253650037228e-01 +5.6197039318560578e-03
6.7999999999999918e+00 +7.9186907108669233e+00 +0.0000000000000000e+00 +6.7999998319371775e+00 -3.0775466402470527e-02 -5.6670302524643890e-01 +5.6198375992998952e-03
6.8999999999999915e+00 +7.9186519190805740e+00 +0.0000000000000000e+00 +6.8999998244130305e+00 -3.0775464946876344e-02 -5.6670352505752541e-01 +5.6199718154137232e-03
6.9999999999999911e+00 +7.9186125609827753e+00 +0.0000000000000000e+00 +6.9999998166675974e+00 -3.0775468901063995e-02 -5.6670403373383293e-01 +5.6201064718650537e-03
7.0999999999999908e+00 +7.9185726365730202e+00 +0.0000000000000000e+00 +7.0999998086976710e+00 -3.0775478482345429e-02 -5.6670454907554169e-01 +5.6202414603158798e-03
7.1999999999999904e+00 +7.9185321458507945e+00 +0.0000000000000000e+00 +7.1999998005000441e+00 -3.0775493908083026e-02 -5.6670506888281058e-01 +5.6203766724225376e-03
7.2999999999999901e+00 +7.9184910888155811e+00 +0.0000000000000000e+00 +7.2999997920715094e+00 -3.0775515395691261e-02 -5.6670559095577488e-01 +5.6205119998355424e-03
7.3999999999999897e+00 +7.9184494654668596e+00 +0.0000000000000000e+00 +7.3999997834088598e+00 -3.0775543162638485e-02 -5.6670611309454710e-01 +5.6206473341994263e-03
7.4999999999999893e+00 +7.9184072758041095e+00 +0.0000000000000000e+00 +7.4999997745088871e+00 -3.0775577426448590e-02 -5.6670663309921465e-01 +5.6207825671526100e-03
7.5999999999999890e+00 +7.9183645198268122e+00 +0.0000000000000000e+00 +7.5999997653683851e+00 -3.0775618404702793e-02 -5.6670714876983896e-01 +5.6209175903272181e-03
7.6999999999999886e+00 +7.9183211975344552e+00 +0.0000000000000000e+00 +7.6999997559841455e+00 -3.0775666315041309e-02 -5.6670765790645472e-01 +5.6210522953489420e-03
7.7999999999999883e+00 +7.9182773089265304e+00 +0.0000000000000000e+00 +7.7999997463529622e+00 -3.0775721375165099e-02 -5.6670815830906918e-01 +5.6211865738368810e-03
7.8999999999999879e+00 +7.9182328540025395e+00 +0.0000000000000000e+00 +7.8999997364716270e+00 -3.0775783802837575e-02 -5.6670864777766050e-01 +5.6213203174033891e-03
7.9999999999999876e+00 +7.9181878327619950e+00 +0.0000000000000000e+00 +7.9999997263369327e+00 -3.0775853815886385e-02 -5.6670912411217711e-01 +5.6214534176539177e-03
8.0999999999999872e+00 +7.9181422452044226e+00 +0.0000000000000000e+00 +8.0999997159456711e+00 -3.0775931385959302e-02 -5.6670958563219098e-01 +5.6215858020560996e-03
8.1999999999999869e+00 +7.9180960913293621e+00 +0.0000000000000000e+00 +8.1999997052946352e+00 -3.0776015499751012e-02 -5.6671003273589116e-01 +5.6217175415548071e-03
8.2999999999999865e+00 +7.9180493711363686e+00 +0.0000000000000000e+00 +8.2999996943806185e+00 -3.0776104897692957e-02 -5.6671046634113686e-01 +5.6218487429751324e-03
8.3999999999999861e+00 +7.9180020846250097e+00 +0.0000000000000000e+00 +8.3999996832004129e+00 -3.0776198320194837e-02 -5.6671088736580055e-01 +5.6219795131545467e-03
8.4999999999999858e+00 +7.9179542317948668e+00 +0.0000000000000000e+00 +8.4999996717508122e+00 -3.0776294507643565e-02 -5.6671129672776543e-01 +5.6221099589433251e-03
8.5999999999999854e+00 +7.9179058126455315e+00 +0.0000000000000000e+00 +8.5999996600286082e+00 -3.0776392200402351e-02 -5.6671169534492816e-01 +5.6222401872049917e-03
8.6999999999999851e+00 +7.9178568271766077e+00 +0.0000000000000000e+00 +8.6999996480305928e+00 -3.0776490138809641e-02 -5.6671208413519791e-01 +5.6223703048167446e-03
8.7999999999999847e+00 +7.9178072753877080e+00 +0.0000000000000000e+00 +8.7999996357535597e+00 -3.0776587063178127e-02 -5.6671246401649744e-01 +5.6225004186698834e-03
8.8999999999999844e+00 +7.9177571572784542e+00 +0.0000000000000000e+00 +8.8999996231943008e+00 -3.0776681713793802e-02 -5.6671283590676269e-01 +5.6226306356702447e-03
8.9999999999999840e+00 +7.9177064728484758e+00 +0.0000000000000000e+00 +8.9999996103496098e+00 -3.0776772830914956e-02 -5.6671320072394427e-01 +5.6227610627386316e-03
9.0999999999999837e+00 +7.9176552220974106e+00 +0.0000000000000000e+00 +9.0999995972162786e+00 -3.0776859154771082e-02 -5.6671355938600620e-01 +5.6228918068112442e-03
9.1999999999999833e+00 +7.9176034050249013e+00 +0.0000000000000000e+00 +9.1999995837910991e+00 -3.0776939425562051e-02 -5.6671391281092809e-01 +5.6230229748401124e-03
9.2999999999999829e+00 +7.9175510216305964e+00 +0.0000000000000000e+00 +9.2999995700708649e+00 -3.0777012383456984e-02 -5.6671426191670393e-01 +5.6231546737935270e-03
9.3999999999999826e+00 +7.9174980719141486e+00 +0.0000000000000000e+00 +9.3999995560523679e+00 -3.0777076768593325e-02 -5.6671460762134362e-01 +5.6232870106564673e-03
9.4999999999999822e+00 +7.9174445558752140e+00 +0.0000000000000000e+00 +9.4999995417324019e+00 -3.0777131321075821e-02 -5.6671495084287182e-01 +5.6234200924310329e-03
9.5999999999999819e+00 +7.9173904735134517e+00 +0.0000000000000000e+00 +9.5999995271077587e+00 -3.0777174780975591e-02 -5.6671529249933106e-01 +5.6235540261368845e-03
9.6999999999999815e+00 +7.9173358248285215e+00 +0.0000000000000000e+00 +9.6999995121752303e+00 -3.0777205888329037e-02 -5.6671563350877874e-01 +5.6236889188116595e-03
9.7999999999999812e+00 +7.9172806098200850e+00 +0.0000000000000000e+00 +9.7999994969316102e+00 -3.0777223383136945e-02 -5.6671597478928937e-01 +5.6238248775114128e-03
9.8999999999999808e+00 +7.9172248284878020e+00 +0.0000000000000000e+00 +9.8999994813736905e+00 -3.0777226005363457e-02 -5.6671631725895533e-01 +5.6239620093110473e-03
9.9999999999999805e+00 +7.9171684808313323e+00 +0.0000000000000000e+00 +9.9999994654982629e+00 -3.0777212494935102e-02 -5.6671666183588576e-01 +5.6241004213047462e-03
1.0099999999999980e+01 +7.9171115668503331e+00 +0.0000000000000000e+00 +1.0099999449302121e+01 -3.0777182036502582e-02 -5.6671700941697190e-01 +5.6242401825190597e-03
1.0199999999999980e+01 +7.9170540865444590e+00 +0.0000000000000000e+00 +1.0199999432782059e+01 -3.0777135593757218e-02 -5.6671736081414414e-01 +5.6243812096403462e-03
1.0299999999999979e+01 +7.9169960399133608e+00 +0.0000000000000000e+00 +1.0299999415934867e+01 -3.0777074575127818e-02 -5.6671771681801919e-01 +5.6245233812631011e-03
1.0399999999999979e+01 +7.9169374269566841e+00 +0.0000000000000000e+00 +1.0399999398757338e+01 -3.0777000389002707e-02 -5.6671807821912656e-01 +5.6246665759762280e-03
1.0499999999999979e+01 +7.9168782476740702e+00 +0.0000000000000000e+00 +1.0499999381246266e+01 -3.0776914443728806e-02 -5.6671844580790687e-01 +5.6248106723628018e-03
1.0599999999999978e+01 +7.9168185020651531e+00 +0.0000000000000000e+00 +1.0599999363398441e+01 -3.0776818147610577e-02 -5.6671882037470822e-01 +5.6249555489998916e-03
1.0699999999999978e+01 +7.9167581901295607e+00 +0.0000000000000000e+00 +1.0699999345210658e+01 -3.0776712908909071e-02 -5.6671920270978504e-01 +5.6251010844583366e-03
1.0799999999999978e+01 +7.9166973118669119e+00 +0.0000000000000000e+00 +1.0799999326679709e+01 -3.0776600135841013e-02 -5.6671959360329638e-01 +5.6252471573025537e-03
1.0899999999999977e+01 +7.9166358672768187e+00 +0.0000000000000000e+00 +1.0899999307802386e+01 -3.0776481236577689e-02 -5.6671999384530225e-01 +5.6253936460903325e-03
1.0999999999999977e+01 +7.9165738563588830e+00 +0.0000000000000000e+00 +1.0999999288575481e+01 -3.0776357619244087e-02 -5.6672040422576253e-01 +5.6255404293726165e-03
1.1099999999999977e+01 +7.9165112791126964e+00 +0.0000000000000000e+00 +1.1099999268995786e+01 -3.0776230691917889e-02 -5.6672082553453440e-01 +5.6256873856933244e-03
1.1199999999999976e+01 +7.9164481355378404e+00 +0.0000000000000000e+00 +1.1199999249060095e+01 -3.0776101862628413e-02 -5.6672125856137057e-01 +5.6258343935891185e-03
1.1299999999999976e+01 +7.9163844256338836e+00 +0.0000000000000000e+00 +1.1299999228765200e+01 -3.0775972539355739e-02 -5.6672170409591616e-01 +5.6259813315892165e-03
1.1399999999999975e+01 +7.9163201494003834e+00 +0.0000000000000000e+00 +1.1399999208107893e+01 -3.0775844130029650e-02 -5.6672216292770727e-01 +5.6261280782151767e-03
1.1499999999999975e+01 +7.9162553068368826e+00 +0.0000000000000000e+00 +1.1499999187084967e+01 -3.0775718042528696e-02 -5.6672263584616867e-01 +5.6262745119807101e-03
1.1599999999999975e+01 +7.9161898979429104e+00 +0.0000000000000000e+00 +1.1599999165693214e+01 -3.0775595684679153e-02 -5.6672312364061095e-01 +5.6264205113914440e-03
1.1699999999999974e+01 +7.9161239227179827e+00 +0.0000000000000000e+00 +1.1699999143929427e+01 -3.0775478464254130e-02 -5.6672362710023005e-01 +5.6265659549447553e-03
1.1799999999999974e+01 +7.9160573811615969e+00 +0.0000000000000000e+00 +1.1799999121790396e+01 -3.0775367788972476e-02 -5.6672414701410256e-01 +5.6267107211295311e-03
