# multipoles
# s[mm] polynom_b[n=0][T/m^n] polynom_b[n=1][T/m^n] polynom_b[n=2][T/m^n] polynom_b[n=3][T/m^n] polynom_b[n=4][T/m^n] polynom_b[n=5][T/m^n] polynom_b[n=6][T/m^n] 
+0.0000000000000000e+00 -5.9431040279777714e-01 +8.1042430445195706e+00 -3.9583932474427480e-01 +6.6136993277930785e+01 +6.2438830858098322e+02 -5.2554598336322524e+05 -1.4796401349332009e+07 
-1.0000000000000001e-01 -5.9431024778376040e-01 +8.1042630930651320e+00 -3.9948543181053536e-01 +6.5644409775449645e+01 +7.2075756939831433e+02 -5.2302150088327582e+05 -1.5219484586968377e+07 
-2.0000000000000001e-01 -5.9431009839187576e-01 +8.1042800635668844e+00 -4.0280908893966422e-01 +6.5206016455801674e+01 +8.0987273875937387e+02 -5.2074326618046034e+05 -1.5605681113782629e+07 
-3.0000000000000004e-01 -5.9430995491745020e-01 +8.1042940258162641e+00 -4.0579227624333397e-01 +6.4821575914521546e+01 +8.9143305445706631e+02 -5.1871144823913660e+05 -1.5954215397860425e+07 
-4.0000000000000002e-01 -5.9430981765577173e-01 +8.1043050496019067e+00 -4.0841697862312615e-01 +6.4490850852605092e+01 +9.6513784332293574e+02 -5.1692621672769426e+05 -1.6264312325086776e+07 
-5.0000000000000000e-01 -5.9430968690215735e-01 +8.1043132047073403e+00 -4.1066517600423419e-01 +6.4213604143835056e+01 +1.0306863285105935e+03 -5.1538774239233864e+05 -1.6535196264563259e+07 
-5.9999999999999998e-01 -5.9430956295187909e-01 +8.1043185609199124e+00 -4.1251885449980619e-01 +6.3989598573806497e+01 +1.0877778538891566e+03 -5.1409619552031945e+05 -1.6766092169007858e+07 
-6.9999999999999996e-01 -5.9430944610022873e-01 +8.1043211880212667e+00 -4.1395999676704781e-01 +6.3818597121677520e+01 +1.1361116897681388e+03 -5.1305174757048651e+05 -1.6956224619020354e+07 
-7.9999999999999993e-01 -5.9430933664245955e-01 +8.1043211557946186e+00 -4.1497058991708657e-01 +6.3700362741869760e+01 +1.1753871872197001e+03 -5.1225456988280948e+05 -1.7104818569911543e+07 
-8.9999999999999991e-01 -5.9430923487381404e-01 +8.1043185340153538e+00 -4.1553262171353600e-01 +6.3634658656158258e+01 +1.2053037045015665e+03 -5.1170483540293714e+05 -1.7211098997194342e+07 
-9.9999999999999989e-01 -5.9430914108956956e-01 +8.1043133924608739e+00 -4.1562807644580885e-01 +6.3621248042271567e+01 +1.2255605377553013e+03 -5.1140271680813032e+05 -1.7274290589766506e+07 
-1.0999999999999999e+00 -5.9430905558493996e-01 +8.1043058009014661e+00 -4.1523894491581520e-01 +6.3659894343830949e+01 +1.2358570951310558e+03 -5.1134838840424456e+05 -1.7293618537945393e+07 
-1.2000000000000000e+00 -5.9430897865515542e-01 +8.1042958291066594e+00 -4.1434721585815587e-01 +6.3750361039141325e+01 +1.2358927431296806e+03 -5.1154202463983826e+05 -1.7268307826067820e+07 
-1.3000000000000000e+00 -5.9430891059543545e-01 +8.1042835468429253e+00 -4.1293487962239372e-01 +6.3892411734730864e+01 +1.2253668793149991e+03 -5.1198380072102771e+05 -1.7197583587149177e+07 
-1.4000000000000001e+00 -5.9430885170100589e-01 +8.1042690238703177e+00 -4.1098392534309758e-01 +6.4085810276075350e+01 +1.2039788730442033e+03 -5.1267389327290526e+05 -1.7080670804276250e+07 
-1.5000000000000002e+00 -5.9430880226706329e-01 +8.1042523299491727e+00 -4.0847634620246503e-01 +6.4330320530076932e+01 +1.1714281693880107e+03 -5.1361247899869498e+05 -1.6916794815802060e+07 
-1.6000000000000003e+00 -5.9430876258879517e-01 +8.1042335348251164e+00 -4.0539413564693944e-01 +6.4625706831243775e+01 +1.1274142100030997e+03 -5.1479973729025578e+05 -1.6705180919769706e+07 
-1.7000000000000004e+00 -5.9430873296139786e-01 +8.1042127082505768e+00 -4.0171928682754043e-01 +6.4971733375147707e+01 +1.0716364334255668e+03 -5.1623584674282320e+05 -1.6445054403543588e+07 
-1.8000000000000005e+00 -5.9430871368006710e-01 +8.1041899199656982e+00 -3.9743379288603492e-01 +6.5368164742659332e+01 +1.0037942741680245e+03 -5.1792098809993995e+05 -1.6135640522960983e+07 
-1.9000000000000006e+00 -5.9430870503997091e-01 +8.1041652397087685e+00 -3.9251965017752510e-01 +6.5814765628894023e+01 +9.2358722395591292e+02 -5.1985534276038874e+05 -1.5776164795342024e+07 
-2.0000000000000004e+00 -5.9430870733627328e-01 +8.1041387372108069e+00 -3.8695885618768050e-01 +6.6311300985713359e+01 +8.3071479254197266e+02 -5.2203909354613285e+05 -1.5365852807599202e+07 
-2.1000000000000005e+00 -5.9430872074052521e-01 +8.1041105088974774e+00 -3.8074125724554364e-01 +6.6856542305444663e+01 +7.2503850440821407e+02 -5.2446722176580620e+05 -1.4904511038827866e+07 
-2.2000000000000006e+00 -5.9430874493173302e-01 +8.1040807584169414e+00 -3.7388818815045810e-01 +6.7445265327422590e+01 +6.0707599201144467e+02 -5.2711420954125351e+05 -1.4394312468778795e+07 
-2.3000000000000007e+00 -5.9430877946624350e-01 +8.1040497163514811e+00 -3.6642887938760310e-01 +6.8071240704440598e+01 +4.7751095166018882e+02 -5.2994948806659132e+05 -1.3838032231096134e+07 
-2.4000000000000008e+00 -5.9430882390039752e-01 +8.1040176132684323e+00 -3.5839256256247276e-01 +6.8728239520763125e+01 +3.3702710528485221e+02 -5.3294249105557974e+05 -1.3238445592731601e+07 
-2.5000000000000009e+00 -5.9430887779057529e-01 +8.1039846797460644e+00 -3.4980846460984993e-01 +6.9410032514779417e+01 +1.8630809040951721e+02 -5.3606265017469320e+05 -1.2598327431213517e+07 
-2.6000000000000010e+00 -5.9430894069314777e-01 +8.1039511463572449e+00 -3.4070581387526833e-01 +7.0110390558685779e+01 +2.6037576853442637e+01 -5.3927939784212713e+05 -1.1920452793756165e+07 
-2.7000000000000011e+00 -5.9430901216451759e-01 +8.1039172436748679e+00 -3.3111383505218167e-01 +7.0823084485850544e+01 -1.4310082929576544e+02 -5.4256216620758048e+05 -1.1207596440503826e+07 
-2.8000000000000012e+00 -5.9430909176108437e-01 +8.1038832022735363e+00 -3.2106175384390356e-01 +7.1541885058597302e+01 -3.2042349383136792e+02 -5.4588038701446087e+05 -1.0462533290619519e+07 
-2.9000000000000012e+00 -5.9430917903927316e-01 +8.1038492527251442e+00 -3.1057879259194049e-01 +7.2260563058458814e+01 -5.0524684288201200e+02 -5.4920349204277759e+05 -9.6880379873746131e+06 
-3.0000000000000013e+00 -5.9430927355553298e-01 +8.1038156256069183e+00 -2.9969417180052077e-01 +7.2972889076548370e+01 -6.9688732522076759e+02 -5.5250091196610220e+05 -8.8868851000236496e+06 
-3.1000000000000014e+00 -5.9430937486633728e-01 +8.1037825514916157e+00 -2.8843710897900726e-01 +7.3672633773254802e+01 -8.9466143842375641e+02 -5.5574207780482841e+05 -8.0618489908002336e+06 
-3.2000000000000015e+00 -5.9430948252816140e-01 +8.1037502609566872e+00 -2.7683682176024482e-01 +7.4353567623965262e+01 -1.0978856699881580e+03 -5.5889641949149198e+05 -7.2157040916117402e+06 
-3.3000000000000016e+00 -5.9430959609753131e-01 +8.1037189845806346e+00 -2.6492252223723933e-01 +7.5009460994687089e+01 -1.3058766010068632e+03 -5.6193336624339828e+05 -6.3512244226343287e+06 
-3.4000000000000017e+00 -5.9430971513099284e-01 +8.1036889529428091e+00 -2.5272342076887749e-01 +7.5634084170806716e+01 -1.5179508320556204e+03 -5.6482234680920385e+05 -5.4711839503419437e+06 
-3.5000000000000018e+00 -5.9430983918509250e-01 +8.1036603966283671e+00 -2.4026872764632376e-01 +7.6221207187574635e+01 -1.7334249581649008e+03 -5.6753278842155193e+05 -4.5783566879927721e+06 
-3.6000000000000019e+00 -5.9430996781644796e-01 +8.1036335462176510e+00 -2.2758764565213577e-01 +7.6764600148459792e+01 -1.9516156984709194e+03 -5.7003411868739268e+05 -3.6755161116211005e+06 
-3.7000000000000020e+00 -5.9431010058168743e-01 +8.1036086323023913e+00 -2.1470937623983033e-01 +7.7258032727047805e+01 -2.1718397890128745e+03 -5.7229576263639762e+05 -2.7654356418055799e+06 
-3.8000000000000020e+00 -5.9431023703745589e-01 +8.1035858854696556e+00 -2.0166311975959780e-01 +7.7695274650312214e+01 -2.3934139708122166e+03 -5.7428714558359492e+05 -1.8508887217400556e+06 
-3.9000000000000021e+00 -5.9431037674047860e-01 +8.1035655363131021e+00 -1.8847806740384260e-01 +7.8070095358999893e+01 -2.6156551430227400e+03 -5.7597769113650045e+05 -9.3464808800059045e+05 
-4.0000000000000018e+00 -5.9431051924746647e-01 +8.1035478154307885e+00 -1.7518341263753301e-01 +7.8376264065498688e+01 -2.8378801484843543e+03 -5.7733682154103275e+05 -1.9486784821368179e+04 
-4.1000000000000014e+00 -5.9431066417210865e-01 +8.1035329174966755e+00 -1.6181365169415754e-01 +7.8608670098796594e+01 -3.0593531293001697e+03 -5.7833934493423218e+05 +8.9154890942937334e+05 
-4.2000000000000011e+00 -5.9431081135334551e-01 +8.1035208968647616e+00 -1.4842389834916767e-01 +7.8766713099420954e+01 -3.2791505429621225e+03 -5.7898128735347278e+05 +1.7944285240476127e+06 
-4.3000000000000007e+00 -5.9431096068586498e-01 +8.1035117736189566e+00 -1.3507426522032936e-01 +7.8850929017226605e+01 -3.4963079996844103e+03 -5.7926389812219492e+05 +2.6849033209288125e+06 
-4.4000000000000004e+00 -5.9431111206437615e-01 +8.1035055678474759e+00 -1.2182486347669670e-01 +7.8861853692873112e+01 -3.7098611335135674e+03 -5.7918842594930949e+05 +3.5587246643524002e+06 
-4.5000000000000000e+00 -5.9431126538359191e-01 +8.1035022996465589e+00 -1.0873580406634920e-01 +7.8800022714215373e+01 -3.9188455821805487e+03 -5.7875611802052241e+05 +4.4116439334819000e+06 
-4.5999999999999996e+00 -5.9431142053825847e-01 +8.1035019891200939e+00 -9.5867194399361519e-02 +7.8665971451973292e+01 -4.1222970535402610e+03 -5.7796822028368048e+05 +5.2394128512438918e+06 
-4.6999999999999993e+00 -5.9431157742314444e-01 +8.1035046563758009e+00 -8.3279139938386523e-02 +7.8460235162989875e+01 -4.3192512890194694e+03 -5.7682597800925816e+05 +6.0377832903431887e+06 
-4.7999999999999989e+00 -5.9431173593301123e-01 +8.1035103215385256e+00 -7.1031747674928508e-02 +7.8183348611569869e+01 -4.5087440031182714e+03 -5.7533063362512679e+05 +6.8025070036571287e+06 
-4.8999999999999986e+00 -5.9431189596265499e-01 +8.1035190047321475e+00 -5.9185120607900710e-02 +7.7835846578795568e+01 -4.6898109889395873e+03 -5.7348342961754999e+05 +7.5293361247954546e+06 
-4.9999999999999982e+00 -5.9431205740688797e-01 +8.1035307260950091e+00 -4.7799360444567715e-02 +7.7418263436215227e+01 -4.8614880634840920e+03 -5.7128560611595132e+05 +8.2140229001629082e+06 
-5.0999999999999979e+00 -5.9431222016054708e-01 +8.1035455057757186e+00 -3.6934566836858793e-02 +7.6931133259242145e+01 -5.0228110849555087e+03 -5.6873840152871842e+05 +8.8523197809212059e+06 
-5.1999999999999975e+00 -5.9431238411848064e-01 +8.1035633639276394e+00 -2.6650838303856294e-02 +7.6374989990981533e+01 -5.1728159345204576e+03 -5.6584305349989864e+05 +9.4399793302069474e+06 
-5.2999999999999972e+00 -5.9431254917555632e-01 +8.1035843207192499e+00 -1.7008271944519041e-02 +7.5750367140479085e+01 -5.3105385221326560e+03 -5.6260079715089814e+05 +9.9727542553334665e+06 
-5.3999999999999968e+00 -5.9431271522666029e-01 +8.1036083963286565e+00 -8.0669631955523433e-03 +7.5057797936407695e+01 -5.4350147914118133e+03 -5.5901286596186121e+05 +1.0446397430234076e+07 
-5.4999999999999964e+00 -5.9431288216671052e-01 +8.1036356109438010e+00 +1.1299591578965744e-04 +7.4297815346535444e+01 -5.5452807549776271e+03 -5.5508049194597313e+05 +1.0856662069739468e+07 
-5.5999999999999961e+00 -5.9431304989062061e-01 +8.1036659847639747e+00 +7.4715118332115788e-03 +7.3470951998374133e+01 -5.6403723973755450e+03 -5.5080490508999408e+05 +1.1199301259581313e+07 
-5.6999999999999957e+00 -5.9431321829333617e-01 +8.1036995380028838e+00 +1.3948494380234634e-02 +7.2577740127959345e+01 -5.7193257725098247e+03 -5.4618733316575119e+05 +1.1470068431068037e+07 
-5.7999999999999954e+00 -5.9431338726984184e-01 +8.1037362908831216e+00 +1.9483857211621283e-02 +7.1618711714799630e+01 -5.7811770075063232e+03 -5.4122900242575887e+05 +1.1664717365353728e+07 
-5.8999999999999950e+00 -5.9431355671511721e-01 +8.1037762636417980e+00 +2.4017512862039153e-02 +7.0594398332384330e+01 -5.8249622141880482e+03 -5.3593113679232018e+05 +1.1779001789199557e+07 
-5.9999999999999947e+00 -5.9431372652417869e-01 +8.1038194765303135e+00 +2.7489377441778030e-02 +6.9505331154812168e+01 -5.8497175756963179e+03 -5.3029495788981160e+05 +1.1808675778774170e+07 
-6.0999999999999943e+00 -5.9431389657704570e-01 +8.1038658791456832e+00 +2.9855657370236849e-02 +6.8353464615213824e+01 -5.8547835340341917e+03 -5.2432930724361155e+05 +1.1750877695345456e+07 
-6.1999999999999940e+00 -5.9431406667872633e-01 +8.1039151226893917e+00 +3.1138552824763296e-02 +6.7146694974039733e+01 -5.8407337316710355e+03 -5.1807464642169472e+05 +1.1608385965465052e+07 
-6.2999999999999936e+00 -5.9431423661169380e-01 +8.1039667797213930e+00 +3.1377010024857585e-02 +6.5894467980429269e+01 -5.8084548028848294e+03 -5.1157964715064975e+05 +1.1385417886523684e+07 
-6.3999999999999932e+00 -5.9431440615838671e-01 +8.1040204227936261e+00 +3.0609972879253149e-02 +6.4606229694414168e+01 -5.7588333567008294e+03 -5.0489298315358715e+05 +1.1086190695677798e+07 
-6.4999999999999929e+00 -5.9431457510113905e-01 +8.1040756244668621e+00 +2.8876374021658387e-02 +6.3291426036075705e+01 -5.6927558028454014e+03 -4.9806332760191173e+05 +1.0714920726516601e+07 
-6.5999999999999925e+00 -5.9431474322224009e-01 +8.1041319572969375e+00 +2.6215142866449773e-02 +6.1959503141028058e+01 -5.6111085127696078e+03 -4.9113935504453536e+05 +1.0275824200611200e+07 
-6.6999999999999922e+00 -5.9431491030385519e-01 +8.1041889938408058e+00 +2.2665195473386173e-02 +6.0619907240165794e+01 -5.5147776224209338e+03 -4.8416974086872558e+05 +9.7731162731868532e+06 
-6.7999999999999918e+00 -5.9431507612809198e-01 +8.1042463066534847e+00 +1.8265442828766319e-02 +5.9282084714399502e+01 -5.4046491911011199e+03 -4.7720316151524748e+05 +9.2110117953022867e+06 
-6.8999999999999915e+00 -5.9431524047699336e-01 +8.1043034682875650e+00 +1.3054790337961223e-02 +5.7955482131176858e+01 -5.2816091937674482e+03 -4.7028829475033825e+05 +8.5937252820055429e+06 
-6.9999999999999911e+00 -5.9431540313247255e-01 +8.1043600513010521e+00 +7.0721296778862722e-03 +5.6649546024842522e+01 -5.1465433684257086e+03 -4.6347381841264491e+05 +7.9254701936306013e+06 
-7.0999999999999908e+00 -5.9431556387636364e-01 +8.1044156282491304e+00 +3.5634520118774018e-04 +5.5373723118385904e+01 -5.0003373344237316e+03 -4.5680841164411965e+05 +7.2104594870419623e+06 
-7.1999999999999904e+00 -5.9431572249040765e-01 +8.1044697716785130e+00 -7.0536877459745203e-03 +5.4137460506617124e+01 -4.8438765654636081e+03 -4.5034075600652269e+05 +6.4529055037679430e+06 
-7.2999999999999901e+00 -5.9431587875626857e-01 +8.1045220541479566e+00 -1.5119100774883206e-02 +5.2950205074316067e+01 -4.6780464248457320e+03 -4.4411953213754750e+05 +5.6570201255427161e+06 
-7.3999999999999897e+00 -5.9431603245545817e-01 +8.1045720482029502e+00 -2.3801041487769542e-02 +5.1821404203447976e+01 -4.5037320008839270e+03 -4.3819342377716838e+05 +4.8270140133256353e+06 
-7.4999999999999893e+00 -5.9431618336941672e-01 +8.1046193263923527e+00 -3.3060663630627408e-02 +5.0760505335444378e+01 -4.3218182878210218e+03 -4.3261111535150331e+05 +3.9670974478798998e+06 
-7.5999999999999890e+00 -5.9431633127946737e-01 +8.1046634612663269e+00 -4.2859132593267298e-02 +4.9776956002739496e+01 -4.1331900864091695e+03 -4.2742129206675210e+05 +3.0814798745709686e+06 
-7.6999999999999886e+00 -5.9431647596682258e-01 +8.1047040253657858e+00 -5.3157624434918095e-02 +4.8880204142642313e+01 -3.9387320216847565e+03 -4.2267264175536268e+05 +2.1743699826919222e+06 
-7.7999999999999883e+00 -5.9431661721257090e-01 +8.1047405912362489e+00 -6.3917327221245004e-02 +4.8079697720649492e+01 -3.7393285207454073e+03 -4.1841385275615333e+05 +1.2499756111608157e+06 
-7.8999999999999879e+00 -5.9431675479768487e-01 +8.1047727314226616e+00 -7.5099440870805015e-02 +4.7384884868336179e+01 -3.5358638106845888e+03 -4.1469361467280932e+05 +3.1250372464557382e+05 
-7.9999999999999876e+00 -5.9431688850301556e-01 +8.1048000184577642e+00 -8.6665176182649628e-02 +4.6805214214700527e+01 -3.3292219466632837e+03 -4.1156062024028349e+05 -6.3383942379341833e+05 
-8.0999999999999872e+00 -5.9431701826203054e-01 +8.1048221617520184e+00 -9.8569030720469172e-02 +4.6346949956348389e+01 -3.1203397762463778e+03 -4.0904720673892059e+05 -1.5847000396653761e+06 
-8.1999999999999869e+00 -5.9431714464975816e-01 +8.1048394254278779e+00 -1.1074174100075529e-01 +4.6003353311592406e+01 -2.9102793326222522e+03 -4.0711917464042181e+05 -2.5355910439056144e+06 
-8.2999999999999865e+00 -5.9431726840937160e-01 +8.1048522145860726e+00 -1.2310890408668368e-01 +4.5764354524529779e+01 -2.7001114726184228e+03 -4.0572533710156399e+05 -3.4821104616246764e+06 
-8.3999999999999861e+00 -5.9431739028413666e-01 +8.1048609343138995e+00 -1.3559610833227825e-01 +4.5619884144190962e+01 -2.4909071837774868e+03 -4.0481450888935389e+05 -4.4198557977536134e+06 
-8.4999999999999858e+00 -5.9431751101740460e-01 +8.1048659896816186e+00 -1.4812893277609401e-01 +4.5559873143034480e+01 -2.2837376064735909e+03 -4.0433550701862905e+05 -5.3444239085003696e+06 
-8.5999999999999854e+00 -5.9431763135259685e-01 +8.1048677857392111e+00 -1.6063295013304899e-01 +4.5574252998663439e+01 -2.0796739664704592e+03 -4.0423715120351908e+05 -6.2514113527398510e+06 
-8.6999999999999851e+00 -5.9431775203323367e-01 +8.1048667275183863e+00 -1.7303372247744184e-01 +4.5652955640277391e+01 -1.8797876652860107e+03 -4.0446826356370200e+05 -7.1364139382814532e+06 
-8.7999999999999847e+00 -5.9431787380294743e-01 +8.1048632200303299e+00 -1.8525679994847746e-01 +4.5785913508364835e+01 -1.6851502988780505e+03 -4.0497766894166794e+05 -7.9950266519596763e+06 
-8.8999999999999844e+00 -5.9431799740541236e-01 +8.1048576682690356e+00 -1.9722773028601256e-01 +4.5963059444344388e+01 -1.4968334721487913e+03 -4.0571419423557480e+05 -8.8228445511146002e+06 
-8.9999999999999840e+00 -5.9431812358444447e-01 +8.1048504772038559e+00 -2.0887204541270352e-01 +4.6174326924780686e+01 -1.3159090601359831e+03 -4.0662666981069365e+05 -9.6154615067865420e+06 
-9.0999999999999837e+00 -5.9431825308395203e-01 +8.1048420517837059e+00 -2.2011526774959783e-01 +4.6409649911998372e+01 -1.1434490842190642e+03 -4.0766392854507884e+05 -1.0368470803467132e+07 
-9.1999999999999833e+00 -5.9431838664794290e-01 +8.1048327969379255e+00 -2.3088291040272732e-01 +4.6658962844413985e+01 -9.8052570337462714e+02 -4.0877480582862662e+05 -1.1077465193638822e+07 
-9.2999999999999829e+00 -5.9431852502052263e-01 +8.1048231175694330e+00 -2.4110047626940173e-01 +4.6912200823445893e+01 -8.2821123736617847e+02 -4.0990814061007486e+05 -1.1738036772220433e+07 
-9.3999999999999826e+00 -5.9431866894592622e-01 +8.1048134185615126e+00 -2.5069345499956941e-01 +4.7159299417316014e+01 -6.8757821615023784e+02 -4.1101277426131914e+05 -1.2345776765068823e+07 
-9.4999999999999822e+00 -5.9431881916845741e-01 +8.1048041047712758e+00 -2.5958733004856799e-01 +4.7390194845611497e+01 -5.5969925165194593e+02 -4.1203755163399642e+05 -1.2896276122125486e+07 
-9.5999999999999819e+00 -5.9431897643260023e-01 +8.1047955810332848e+00 -2.6770756525369549e-01 +4.7594823866580676e+01 -4.4564728689490863e+02 -4.1293132038552314e+05 -1.3385124349980915e+07 
-9.6999999999999815e+00 -5.9431914148291998e-01 +8.1047882521589774e+00 -2.7497961707343316e-01 +4.7763123797538576e+01 -3.4649536429100749e+02 -4.1364293111141544e+05 -1.3807910612195741e+07 
-9.7999999999999812e+00 -5.9431931506409441e-01 +8.1047825229251007e+00 -2.8132893095253081e-01 +4.7885032846890311e+01 -2.6331669247457455e+02 -4.1412123925553664e+05 -1.4160223417773558e+07 
-9.8999999999999808e+00 -5.9431949792094707e-01 +8.1047787980938608e+00 -2.8668093662178556e-01 +4.7950489521499449e+01 -1.9718473837439927e+02 -4.1431510165735625e+05 -1.4437650176042505e+07 
-9.9999999999999805e+00 -5.9431969079842006e-01 +8.1047774823940326e+00 -2.9096105267113792e-01 +4.7949433160504483e+01 -1.4917313428671062e+02 -4.1417337952642929e+05 -1.4635777647785384e+07 
-1.0099999999999980e+01 -5.9431989426626941e-01 +8.1047788731247223e+00 -2.9411888786208845e-01 +4.7874620309089792e+01 -1.1996446192636928e+02 -4.1365927433169814e+05 -1.4751854725985086e+07 
