# field on trajectory
# s[mm] rx[mm] ry[mm] rz[mm] bx[T] by[T] bz[T]
0.0000000000000000e+00 +8.1529999999999987e+00 +0.0000000000000000e+00 +0.0000000000000000e+00 -2.9091540977887853e-02 -5.6484864233942012e-01 +5.6450235124024016e-03
1.0000000000000001e-01 +8.1529997168852582e+00 +0.0000000000000000e+00 +9.9999999999465641e-02 -2.9091570168495062e-02 -5.6484878757365886e-01 +5.6450448133405469e-03
2.0000000000000001e-01 +8.1529988675409335e+00 +0.0000000000000000e+00 +1.9999999999572513e-01 -2.9091593442608459e-02 -5.6484895379317235e-01 +5.6450665261769265e-03
3.0000000000000004e-01 +8.1529974519668595e+00 +0.0000000000000000e+00 +2.9999999998557225e-01 -2.9091611647740993e-02 -5.6484913910251422e-01 +5.6450886338880509e-03
4.0000000000000002e-01 +8.1529954701628498e+00 +0.0000000000000000e+00 +3.9999999996580093e-01 -2.9091625631397094e-02 -5.6484934160624545e-01 +5.6451111194507709e-03
5.0000000000000000e-01 +8.1529929221287016e+00 +0.0000000000000000e+00 +4.9999999993320493e-01 -2.9091636241073953e-02 -5.6484955940893333e-01 +5.6451339658423706e-03
5.9999999999999998e-01 +8.1529898078641985e+00 +0.0000000000000000e+00 +5.9999999988457808e-01 -2.9091644324262780e-02 -5.6484979061515228e-01 +5.6451571560406991e-03
6.9999999999999996e-01 +8.1529861273691075e+00 +0.0000000000000000e+00 +6.9999999981671424e-01 -2.9091650728450005e-02 -5.6485003332948414e-01 +5.6451806730242627e-03
7.9999999999999993e-01 +8.1529818806431855e+00 +0.0000000000000000e+00 +7.9999999972640723e-01 -2.9091656301118540e-02 -5.6485028565651707e-01 +5.6452044997723399e-03
8.9999999999999991e-01 +8.1529770676861801e+00 +0.0000000000000000e+00 +8.9999999961045085e-01 -2.9091661889749019e-02 -5.6485054570084736e-01 +5.6452286192650789e-03
9.9999999999999989e-01 +8.1529716884978303e+00 +0.0000000000000000e+00 +9.9999999946563889e-01 -2.9091668341821048e-02 -5.6485081156707806e-01 +5.6452530144836281e-03
1.0999999999999999e+00 +8.1529657430778713e+00 +0.0000000000000000e+00 +1.0999999992887652e+00 -2.9091676504814427e-02 -5.6485108135981876e-01 +5.6452776684102176e-03
1.2000000000000000e+00 +8.1529592314260331e+00 +0.0000000000000000e+00 +1.1999999990766237e+00 -2.9091687226210427e-02 -5.6485135318368840e-01 +5.6453025640282803e-03
1.3000000000000000e+00 +8.1529521535420422e+00 +0.0000000000000000e+00 +1.2999999988260078e+00 -2.9091701353492962e-02 -5.6485162514331111e-01 +5.6453276843225677e-03
1.4000000000000001e+00 +8.1529445094256268e+00 +0.0000000000000000e+00 +1.3999999985337117e+00 -2.9091719734149885e-02 -5.6485189534331937e-01 +5.6453530122792363e-03
1.5000000000000002e+00 +8.1529362990765168e+00 +0.0000000000000000e+00 +1.4999999981965288e+00 -2.9091743215674253e-02 -5.6485216188835363e-01 +5.6453785308859849e-03
1.6000000000000003e+00 +8.1529275224944460e+00 +0.0000000000000000e+00 +1.5999999978112533e+00 -2.9091772645565474e-02 -5.6485242288306070e-01 +5.6454042231321271e-03
1.7000000000000004e+00 +8.1529181796791512e+00 +0.0000000000000000e+00 +1.6999999973746787e+00 -2.9091808871330650e-02 -5.6485267643209647e-01 +5.6454300720087339e-03
1.8000000000000005e+00 +8.1529082706303804e+00 +0.0000000000000000e+00 +1.7999999968835989e+00 -2.9091852740485747e-02 -5.6485292064012305e-01 +5.6454560605087179e-03
1.9000000000000006e+00 +8.1528977953478883e+00 +0.0000000000000000e+00 +1.8999999963348075e+00 -2.9091905100556873e-02 -5.6485315361181088e-01 +5.6454821716269568e-03
2.0000000000000004e+00 +8.1528867538314422e+00 +0.0000000000000000e+00 +1.9999999957250985e+00 -2.9091966799081492e-02 -5.6485337345183873e-01 +5.6455083883603912e-03
2.1000000000000005e+00 +8.1528751460808238e+00 +0.0000000000000000e+00 +2.0999999950512653e+00 -2.9092038387372832e-02 -5.6485357853831974e-01 +5.6455347082751519e-03
2.2000000000000006e+00 +8.1528629720958250e+00 +0.0000000000000000e+00 +2.1999999943101023e+00 -2.9092119231804811e-02 -5.6485376834308021e-01 +5.6455611872076976e-03
2.3000000000000007e+00 +8.1528502318762577e+00 +0.0000000000000000e+00 +2.2999999934984028e+00 -2.9092208402513538e-02 -5.6485394261137289e-01 +5.6455878955636914e-03
2.4000000000000008e+00 +8.1528369254219477e+00 +0.0000000000000000e+00 +2.3999999926129605e+00 -2.9092304969632284e-02 -5.6485410108844303e-01 +5.6456149037510499e-03
2.5000000000000009e+00 +8.1528230527327370e+00 +0.0000000000000000e+00 +2.4999999916505695e+00 -2.9092408003290843e-02 -5.6485424351953084e-01 +5.6456422821800452e-03
2.6000000000000010e+00 +8.1528086138084817e+00 +0.0000000000000000e+00 +2.5999999906080231e+00 -2.9092516573614821e-02 -5.6485436964986935e-01 +5.6456701012633660e-03
2.7000000000000011e+00 +8.1527936086490573e+00 +0.0000000000000000e+00 +2.6999999894821154e+00 -2.9092629750724942e-02 -5.6485447922468213e-01 +5.6456984314162051e-03
2.8000000000000012e+00 +8.1527780372543539e+00 +0.0000000000000000e+00 +2.7999999882696400e+00 -2.9092746604736461e-02 -5.6485457198918265e-01 +5.6457273430563573e-03
2.9000000000000012e+00 +8.1527618996242790e+00 +0.0000000000000000e+00 +2.8999999869673907e+00 -2.9092866205758409e-02 -5.6485464768857385e-01 +5.6457569066042899e-03
3.0000000000000013e+00 +8.1527451957587562e+00 +0.0000000000000000e+00 +2.9999999855721615e+00 -2.9092987623892948e-02 -5.6485470606804600e-01 +5.6457871924832370e-03
3.1000000000000014e+00 +8.1527279256577287e+00 +0.0000000000000000e+00 +3.0999999840807462e+00 -2.9093109929234695e-02 -5.6485474687277515e-01 +5.6458182711192654e-03
3.2000000000000015e+00 +8.1527100893211557e+00 +0.0000000000000000e+00 +3.1999999824899379e+00 -2.9093232191870013e-02 -5.6485476984792315e-01 +5.6458502129413841e-03
3.3000000000000016e+00 +8.1526916867490158e+00 +0.0000000000000000e+00 +3.2999999807965308e+00 -2.9093353481876427e-02 -5.6485477473863488e-01 +5.6458830883816076e-03
3.4000000000000017e+00 +8.1526727179413037e+00 +0.0000000000000000e+00 +3.3999999789973190e+00 -2.9093472869321877e-02 -5.6485476129003831e-01 +5.6459169678750448e-03
3.5000000000000018e+00 +8.1526531828980335e+00 +0.0000000000000000e+00 +3.4999999770890957e+00 -2.9093589424264033e-02 -5.6485472924724278e-01 +5.6459519218599952e-03
3.6000000000000019e+00 +8.1526330816192392e+00 +0.0000000000000000e+00 +3.5999999750686551e+00 -2.9093702216749683e-02 -5.6485467835533743e-01 +5.6459880207780115e-03
3.7000000000000020e+00 +8.1526124141049721e+00 +0.0000000000000000e+00 +3.6999999729327908e+00 -2.9093810316814021e-02 -5.6485460835939072e-01 +5.6460253350739988e-03
3.8000000000000020e+00 +8.1525911803553015e+00 +0.0000000000000000e+00 +3.7999999706782965e+00 -2.9093912794479967e-02 -5.6485451900444839e-01 +5.6460639351962986e-03
3.9000000000000021e+00 +8.1525693803703181e+00 +0.0000000000000000e+00 +3.8999999683019664e+00 -2.9094008719757522e-02 -5.6485441003553261e-01 +5.6461038915967630e-03
4.0000000000000018e+00 +8.1525470141501337e+00 +0.0000000000000000e+00 +3.9999999658005936e+00 -2.9094097162643079e-02 -5.6485428119764014e-01 +5.6461452747308440e-03
4.1000000000000014e+00 +8.1525240816948763e+00 +0.0000000000000000e+00 +4.0999999631709727e+00 -2.9094177548046350e-02 -5.6485413269139517e-01 +5.6461881198795420e-03
4.2000000000000011e+00 +8.1525005830046968e+00 +0.0000000000000000e+00 +4.1999999604098965e+00 -2.9094250720581534e-02 -5.6485396654001085e-01 +5.6462323216120366e-03
4.3000000000000007e+00 +8.1524765180797605e+00 +0.0000000000000000e+00 +4.2999999575141601e+00 -2.9094317879797025e-02 -5.6485378522235230e-01 +5.6462777393150370e-03
4.4000000000000004e+00 +8.1524518869202502e+00 +0.0000000000000000e+00 +4.3999999544805561e+00 -2.9094380225249607e-02 -5.6485359121728529e-01 +5.6463242323698563e-03
4.5000000000000000e+00 +8.1524266895263615e+00 +0.0000000000000000e+00 +4.4999999513058793e+00 -2.9094438956505153e-02 -5.6485338700367738e-01 +5.6463716601519876e-03
4.5999999999999996e+00 +8.1524009258983003e+00 +0.0000000000000000e+00 +4.5999999479869231e+00 -2.9094495273139332e-02 -5.6485317506039778e-01 +5.6464198820306644e-03
4.6999999999999993e+00 +8.1523745960362781e+00 +0.0000000000000000e+00 +4.6999999445204814e+00 -2.9094550374738314e-02 -5.6485295786631962e-01 +5.6464687573684336e-03
4.7999999999999989e+00 +8.1523476999405151e+00 +0.0000000000000000e+00 +4.7999999409033478e+00 -2.9094605460899453e-02 -5.6485273790031776e-01 +5.6465181455207149e-03
4.8999999999999986e+00 +8.1523202376112316e+00 +0.0000000000000000e+00 +4.8999999371323169e+00 -2.9094661731231947e-02 -5.6485251764127131e-01 +5.6465679058353667e-03
4.9999999999999982e+00 +8.1522922090486496e+00 +0.0000000000000000e+00 +4.9999999332041813e+00 -2.9094720385357598e-02 -5.6485229956806349e-01 +5.6466178976522629e-03
5.0999999999999979e+00 +8.1522636142529876e+00 +0.0000000000000000e+00 +5.0999999291157359e+00 -2.9094782622911482e-02 -5.6485208615958160e-01 +5.6466679803028478e-03
5.1999999999999975e+00 +8.1522344532244606e+00 +0.0000000000000000e+00 +5.1999999248637740e+00 -2.9094849643542638e-02 -5.6485187989471908e-01 +5.6467180131097089e-03
5.2999999999999972e+00 +8.1522047259632746e+00 +0.0000000000000000e+00 +5.2999999204450896e+00 -2.9094922646914757e-02 -5.6485168325237323e-01 +5.6467678553861400e-03
5.3999999999999968e+00 +8.1521744324696304e+00 +0.0000000000000000e+00 +5.3999999158564771e+00 -2.9095002832706902e-02 -5.6485149871144935e-01 +5.6468173664357135e-03
5.4999999999999964e+00 +8.1521435727437108e+00 +0.0000000000000000e+00 +5.4999999110947302e+00 -2.9095091400614195e-02 -5.6485132875085764e-01 +5.6468664055518373e-03
5.5999999999999961e+00 +8.1521121467856883e+00 +0.0000000000000000e+00 +5.5999999061566426e+00 -2.9095189550348455e-02 -5.6485117584951650e-01 +5.6469148320173355e-03
5.6999999999999957e+00 +8.1520801545957173e+00 +0.0000000000000000e+00 +5.6999999010390079e+00 -2.9095298481638984e-02 -5.6485104248635110e-01 +5.6469625051039979e-03
5.7999999999999954e+00 +8.1520475961739329e+00 +0.0000000000000000e+00 +5.7999998957386198e+00 -2.9095419394233209e-02 -5.6485093114029494e-01 +5.6470092840721648e-03
5.8999999999999950e+00 +8.1520144715204452e+00 +0.0000000000000000e+00 +5.8999998902522730e+00 -2.9095553487897361e-02 -5.6485084429029009e-01 +5.6470550281702810e-03
5.9999999999999947e+00 +8.1519807806353448e+00 +0.0000000000000000e+00 +5.9999998845767601e+00 -2.9095701962417196e-02 -5.6485078441528735e-01 +5.6470995966344710e-03
6.0999999999999943e+00 +8.1519465235186903e+00 +0.0000000000000000e+00 +6.0999998787088758e+00 -2.9095865604546297e-02 -5.6485075338308532e-01 +5.6471428832440577e-03
6.1999999999999940e+00 +8.1519117001705155e+00 +0.0000000000000000e+00 +6.1999998726454137e+00 -2.9096043548840628e-02 -5.6485075061682799e-01 +5.6471849199942600e-03
6.2999999999999936e+00 +8.1518763105908238e+00 +0.0000000000000000e+00 +6.2999998663831684e+00 -2.9096234516813309e-02 -5.6485077492848146e-01 +5.6472257734361793e-03
6.3999999999999932e+00 +8.1518403547795923e+00 +0.0000000000000000e+00 +6.3999998599189327e+00 -2.9096437229989360e-02 -5.6485082512999729e-01 +5.6472655101218973e-03
6.4999999999999929e+00 +8.1518038327367730e+00 +0.0000000000000000e+00 +6.4999998532495011e+00 -2.9096650409905989e-02 -5.6485090003331262e-01 +5.6473041966046298e-03
6.5999999999999925e+00 +8.1517667444622894e+00 +0.0000000000000000e+00 +6.5999998463716665e+00 -2.9096872778112858e-02 -5.6485099845034803e-01 +5.6473418994388578e-03
6.6999999999999922e+00 +8.1517290899560457e+00 +0.0000000000000000e+00 +6.6999998392822233e+00 -2.9097103056172479e-02 -5.6485111919300934e-01 +5.6473786851804807e-03
6.7999999999999918e+00 +8.1516908692179229e+00 +0.0000000000000000e+00 +6.7999998319779653e+00 -2.9097339965660357e-02 -5.6485126107318495e-01 +5.6474146203869613e-03
6.8999999999999915e+00 +8.1516520822477787e+00 +0.0000000000000000e+00 +6.8999998244556862e+00 -2.9097582228165449e-02 -5.6485142290274715e-01 +5.6474497716174632e-03
6.9999999999999911e+00 +8.1516127290454534e+00 +0.0000000000000000e+00 +6.9999998167121795e+00 -2.9097828565290324e-02 -5.6485160349355001e-01 +5.6474842054329904e-03
7.0999999999999908e+00 +8.1515728096107676e+00 +0.0000000000000000e+00 +7.0999998087442391e+00 -2.9098077698651553e-02 -5.6485180165743043e-01 +5.6475179883965533e-03
7.1999999999999904e+00 +8.1515323239435222e+00 +0.0000000000000000e+00 +7.1999998005486585e+00 -2.9098328349879979e-02 -5.6485201620620595e-01 +5.6475511870732811e-03
7.2999999999999901e+00 +8.1514912720435042e+00 +0.0000000000000000e+00 +7.2999997921222324e+00 -2.9098579240620960e-02 -5.6485224595167582e-01 +5.6475838680305921e-03
7.3999999999999897e+00 +8.1514496539104861e+00 +0.0000000000000000e+00 +7.3999997834617535e+00 -2.9098829092534789e-02 -5.6485248970561996e-01 +5.6476160978383219e-03
7.4999999999999893e+00 +8.1514074695442229e+00 +0.0000000000000000e+00 +7.4999997745640155e+00 -2.9099076627296855e-02 -5.6485274627979787e-01 +5.6476479430688700e-03
7.5999999999999890e+00 +8.1513647189444605e+00 +0.0000000000000000e+00 +7.5999997654258129e+00 -2.9099320566598051e-02 -5.6485301448594882e-01 +5.6476794702973532e-03
7.6999999999999886e+00 +8.1513214021109306e+00 +0.0000000000000000e+00 +7.6999997560439386e+00 -2.9099559632144986e-02 -5.6485329313579102e-01 +5.6477107461017266e-03
7.7999999999999883e+00 +8.1512775190433562e+00 +0.0000000000000000e+00 +7.7999997464151862e+00 -2.9099792545660360e-02 -5.6485358104102168e-01 +5.6477418370629532e-03
7.8999999999999879e+00 +8.1512330697414495e+00 +0.0000000000000000e+00 +7.8999997365363495e+00 -2.9100018028883203e-02 -5.6485387701331524e-01 +5.6477728097651218e-03
7.9999999999999876e+00 +8.1511880542049155e+00 +0.0000000000000000e+00 +7.9999997264042229e+00 -2.9100234803569210e-02 -5.6485417986432451e-01 +5.6478037307956105e-03
8.0999999999999872e+00 +8.1511424724334525e+00 +0.0000000000000000e+00 +8.0999997160155992e+00 -2.9100441838756715e-02 -5.6485448840817343e-01 +5.6478346606473901e-03
8.1999999999999869e+00 +8.1510963244267511e+00 +0.0000000000000000e+00 +8.1999997053672722e+00 -2.9100639092553244e-02 -5.6485480146894906e-01 +5.6478656354257842e-03
8.2999999999999865e+00 +8.1510496101845007e+00 +0.0000000000000000e+00 +8.2999996944560355e+00 -2.9100826770301045e-02 -5.6485511787323373e-01 +5.6478966851428022e-03
8.3999999999999861e+00 +8.1510023297063867e+00 +0.0000000000000000e+00 +8.3999996832786827e+00 -2.9101005077301213e-02 -5.6485543644761049e-01 +5.6479278398153194e-03
8.4999999999999858e+00 +8.1509544829920895e+00 +0.0000000000000000e+00 +8.4999996718320077e+00 -2.9101174218812354e-02 -5.6485575601866622e-01 +5.6479591294652572e-03
8.5999999999999854e+00 +8.1509060700412910e+00 +0.0000000000000000e+00 +8.5999996601128039e+00 -2.9101334400049073e-02 -5.6485607541299110e-01 +5.6479905841197485e-03
8.6999999999999851e+00 +8.1508570908536715e+00 +0.0000000000000000e+00 +8.6999996481178652e+00 -2.9101485826180610e-02 -5.6485639345717764e-01 +5.6480222338113183e-03
8.7999999999999847e+00 +8.1508075454289148e+00 +0.0000000000000000e+00 +8.7999996358439851e+00 -2.9101628702329366e-02 -5.6485670897782281e-01 +5.6480541085780602e-03
8.8999999999999844e+00 +8.1507574337667066e+00 +0.0000000000000000e+00 +8.8999996232879575e+00 -2.9101763233569476e-02 -5.6485702080152644e-01 +5.6480862384637983e-03
8.9999999999999840e+00 +8.1507067558667359e+00 +0.0000000000000000e+00 +8.9999996104465758e+00 -2.9101889624925385e-02 -5.6485732775489372e-01 +5.6481186535182661e-03
9.0999999999999837e+00 +8.1506555117286972e+00 +0.0000000000000000e+00 +9.0999995973166321e+00 -2.9102008081370454e-02 -5.6485762866453271e-01 +5.6481513837972923e-03
9.1999999999999833e+00 +8.1506037013522903e+00 +0.0000000000000000e+00 +9.1999995838949218e+00 -2.9102118807825473e-02 -5.6485792235705745e-01 +5.6481844593629562e-03
9.2999999999999829e+00 +8.1505513247372221e+00 +0.0000000000000000e+00 +9.2999995701782385e+00 -2.9102222009157269e-02 -5.6485820765908668e-01 +5.6482179102837681e-03
9.3999999999999826e+00 +8.1504983818832084e+00 +0.0000000000000000e+00 +9.3999995561633742e+00 -2.9102317890177292e-02 -5.6485848339724432e-01 +5.6482517666348528e-03
9.4999999999999822e+00 +8.1504448727899756e+00 +0.0000000000000000e+00 +9.4999995418471244e+00 -2.9102406655640151e-02 -5.6485874839815975e-01 +5.6482860584981072e-03
9.5999999999999819e+00 +8.1503907974572591e+00 +0.0000000000000000e+00 +9.5999995272262808e+00 -2.9102488510242178e-02 -5.6485900148846868e-01 +5.6483208159623889e-03
9.6999999999999815e+00 +8.1503361558848066e+00 +0.0000000000000000e+00 +9.6999995122976390e+00 -2.9102563658620101e-02 -5.6485924149481226e-01 +5.6483560691236792e-03
9.7999999999999812e+00 +8.1502809480723801e+00 +0.0000000000000000e+00 +9.7999994970579909e+00 -2.9102632305349457e-02 -5.6485946724383862e-01 +5.6483918480852609e-03
9.8999999999999808e+00 +8.1502251740197540e+00 +0.0000000000000000e+00 +9.8999994815041319e+00 -2.9102694654943341e-02 -5.6485967756220279e-01 +5.6484281829578941e-03
9.9999999999999805e+00 +8.1501688337267204e+00 +0.0000000000000000e+00 +9.9999994656328539e+00 -2.9102750911850859e-02 -5.6485987127656612e-01 +5.6484651038599858e-03
1.0099999999999980e+01 +8.1501119271930857e+00 +0.0000000000000000e+00 +1.0099999449440951e+01 -2.9102801407423523e-02 -5.6486004768452225e-01 +5.6485026399071981e-03
1.0199999999999980e+01 +8.1500544544186759e+00 +0.0000000000000000e+00 +1.0199999432925217e+01 -2.9102846980857522e-02 -5.6486020796741621e-01 +5.6485408161788542e-03
1.0299999999999979e+01 +8.1499964154033329e+00 +0.0000000000000000e+00 +1.0299999416082446e+01 -2.9102888598341967e-02 -5.6486035377758714e-01 +5.6485796567462910e-03
1.0399999999999979e+01 +8.1499378101469109e+00 +0.0000000000000000e+00 +1.0399999398909431e+01 -2.9102927226095986e-02 -5.6486048676743783e-01 +5.6486191856830129e-03
1.0499999999999979e+01 +8.1498786386492785e+00 +0.0000000000000000e+00 +1.0499999381402965e+01 -2.9102963830369536e-02 -5.6486060858943299e-01 +5.6486594270647025e-03
1.0599999999999978e+01 +8.1498189009103168e+00 +0.0000000000000000e+00 +1.0599999363559842e+01 -2.9102999377444389e-02 -5.6486072089610284e-01 +5.6487004049692573e-03
1.0699999999999978e+01 +8.1497585969299138e+00 +0.0000000000000000e+00 +1.0699999345376856e+01 -2.9103034833635046e-02 -5.6486082534004367e-01 +5.6487421434768216e-03
1.0799999999999978e+01 +8.1496977267079664e+00 +0.0000000000000000e+00 +1.0799999326850800e+01 -2.9103071165289620e-02 -5.6486092357392081e-01 +5.6487846666697988e-03
1.0899999999999977e+01 +8.1496362902443771e+00 +0.0000000000000000e+00 +1.0899999307978469e+01 -2.9103109338790810e-02 -5.6486101725046778e-01 +5.6488279986328955e-03
1.0999999999999977e+01 +8.1495742875390551e+00 +0.0000000000000000e+00 +1.0999999288756657e+01 -2.9103150320556787e-02 -5.6486110802249090e-01 +5.6488721634531374e-03
1.1099999999999977e+01 +8.1495117185919117e+00 +0.0000000000000000e+00 +1.1099999269182156e+01 -2.9103195077042111e-02 -5.6486119754286801e-01 +5.6489171852199087e-03
1.1199999999999976e+01 +8.1494485834028580e+00 +0.0000000000000000e+00 +1.1199999249251761e+01 -2.9103244574738660e-02 -5.6486128746455222e-01 +5.6489630880249648e-03
1.1299999999999976e+01 +8.1493848819718053e+00 +0.0000000000000000e+00 +1.1299999228962264e+01 -2.9103299780176537e-02 -5.6486137944057258e-01 +5.6490098959624787e-03
1.1399999999999975e+01 +8.1493206142986647e+00 +0.0000000000000000e+00 +1.1399999208310460e+01 -2.9103361659924987e-02 -5.6486147512403517e-01 +5.6490576331290482e-03
1.1499999999999975e+01 +8.1492557803833403e+00 +0.0000000000000000e+00 +1.1499999187293142e+01 -2.9103431180593310e-02 -5.6486157616812571e-01 +5.6491063236237442e-03
1.1599999999999975e+01 +8.1491903802257344e+00 +0.0000000000000000e+00 +1.1599999165907104e+01 -2.9103509308831779e-02 -5.6486168422611016e-01 +5.6491559915481260e-03
1.1699999999999974e+01 +8.1491244138257404e+00 +0.0000000000000000e+00 +1.1699999144149137e+01 -2.9103597011332517e-02 -5.6486180095133742e-01 +5.6492066610062709e-03
1.1799999999999974e+01 +8.1490578811832428e+00 +0.0000000000000000e+00 +1.1799999122016038e+01 -2.9103695254830468e-02 -5.6486192799723944e-01 +5.6492583561048113e-03
