# trajectory
# s[mm] rx[mm] ry[mm] rz[mm] px[rad] py[rad] pz[rad]
0.0000000000000000e+00 +8.1649999999999991e+00 +0.0000000000000000e+00 +0.0000000000000000e+00 +0.0000000000000000e+00 +0.0000000000000000e+00 +1.0000000000000000e+00
-1.0000000000000001e-01 +8.1649997170515114e+00 +0.0000000000000000e+00 -9.9999999999466266e-02 +5.6589701498520994e-06 +0.0000000000000000e+00 +9.9999999998398803e-01
-2.0000000000000001e-01 +8.1649988682058865e+00 +0.0000000000000000e+00 -1.9999999999573015e-01 +1.1317942777692637e-05 +0.0000000000000000e+00 +9.9999999993595212e-01
-3.0000000000000004e-01 +8.1649974534628686e+00 +0.0000000000000000e+00 -2.9999999998558924e-01 +1.6976918030695911e-05 +0.0000000000000000e+00 +9.9999999985589216e-01
-4.0000000000000002e-01 +8.1649954728221878e+00 +0.0000000000000000e+00 -3.9999999996584112e-01 +2.2635896045036478e-05 +0.0000000000000000e+00 +9.9999999974380815e-01
-5.0000000000000000e-01 +8.1649929262835634e+00 +0.0000000000000000e+00 -4.9999999993328342e-01 +2.8294876945889200e-05 +0.0000000000000000e+00 +9.9999999959969998e-01
-5.9999999999999998e-01 +8.1649898138466988e+00 +0.0000000000000000e+00 -5.9999999988471364e-01 +3.3953860847429288e-05 +0.0000000000000000e+00 +9.9999999942356765e-01
-6.9999999999999996e-01 +8.1649861355112900e+00 +0.0000000000000000e+00 -6.9999999981692951e-01 +3.9612847852832341e-05 +0.0000000000000000e+00 +9.9999999921541116e-01
-7.9999999999999993e-01 +8.1649818912770211e+00 +0.0000000000000000e+00 -7.9999999972672842e-01 +4.5271838054274381e-05 +0.0000000000000000e+00 +9.9999999897523040e-01
-8.9999999999999991e-01 +8.1649770811435687e+00 +0.0000000000000000e+00 -8.9999999961090804e-01 +5.0930831532931909e-05 +0.0000000000000000e+00 +9.9999999870302525e-01
-9.9999999999999989e-01 +8.1649717051106023e+00 +0.0000000000000000e+00 -9.9999999946626594e-01 +5.6589828358981923e-05 +0.0000000000000000e+00 +9.9999999839879572e-01
-1.0999999999999999e+00 +8.1649657631777828e+00 +0.0000000000000000e+00 -1.0999999992895997e+00 +6.2248828591601965e-05 +0.0000000000000000e+00 +9.9999999806254170e-01
-1.2000000000000000e+00 +8.1649592553447690e+00 +0.0000000000000000e+00 -1.1999999990777068e+00 +6.7907832278970160e-05 +0.0000000000000000e+00 +9.9999999769426318e-01
-1.3000000000000000e+00 +8.1649521816112109e+00 +0.0000000000000000e+00 -1.2999999988273849e+00 +7.3566839458265223e-05 +0.0000000000000000e+00 +9.9999999729396005e-01
-1.4000000000000001e+00 +8.1649445419767588e+00 +0.0000000000000000e+00 -1.3999999985354314e+00 +7.9225850155666515e-05 +0.0000000000000000e+00 +9.9999999686163232e-01
-1.5000000000000002e+00 +8.1649363364410608e+00 +0.0000000000000000e+00 -1.4999999981986438e+00 +8.4884864386354075e-05 +0.0000000000000000e+00 +9.9999999639727988e-01
-1.6000000000000003e+00 +8.1649275650037634e+00 +0.0000000000000000e+00 -1.5999999978138197e+00 +9.0543882154508625e-05 +0.0000000000000000e+00 +9.9999999590090272e-01
-1.7000000000000004e+00 +8.1649182276645131e+00 +0.0000000000000000e+00 -1.6999999973777569e+00 +9.6202903453311618e-05 +0.0000000000000000e+00 +9.9999999537250073e-01
-1.8000000000000005e+00 +8.1649083244229566e+00 +0.0000000000000000e+00 -1.7999999968872524e+00 +1.0186192826494525e-04 +0.0000000000000000e+00 +9.9999999481207380e-01
-1.9000000000000006e+00 +8.1648978552787437e+00 +0.0000000000000000e+00 -1.8999999963391041e+00 +1.0752095656059250e-04 +0.0000000000000000e+00 +9.9999999421962193e-01
-2.0000000000000004e+00 +8.1648868202315299e+00 +0.0000000000000000e+00 -1.9999999957301093e+00 +1.1317998830043712e-04 +0.0000000000000000e+00 +9.9999999359514513e-01
-2.1000000000000005e+00 +8.1648752192809706e+00 +0.0000000000000000e+00 -2.0999999950570656e+00 +1.1883902343440797e-04 +0.0000000000000000e+00 +9.9999999293864328e-01
-2.2000000000000006e+00 +8.1648630524267318e+00 +0.0000000000000000e+00 -2.1999999943167703e+00 +1.2449806191036620e-04 +0.0000000000000000e+00 +9.9999999225011627e-01
-2.3000000000000007e+00 +8.1648503196684796e+00 +0.0000000000000000e+00 -2.2999999935060211e+00 +1.3015710368229251e-04 +0.0000000000000000e+00 +9.9999999152956420e-01
-2.4000000000000008e+00 +8.1648370210058872e+00 +0.0000000000000000e+00 -2.3999999926216153e+00 +1.3581614871103153e-04 +0.0000000000000000e+00 +9.9999999077698687e-01
-2.5000000000000009e+00 +8.1648231564386293e+00 +0.0000000000000000e+00 -2.4999999916603506e+00 +1.4147519696429197e-04 +0.0000000000000000e+00 +9.9999998999238426e-01
-2.6000000000000010e+00 +8.1648087259663864e+00 +0.0000000000000000e+00 -2.5999999906190245e+00 +1.4713424841664675e-04 +0.0000000000000000e+00 +9.9999998917575639e-01
-2.7000000000000011e+00 +8.1647937295888404e+00 +0.0000000000000000e+00 -2.6999999894944344e+00 +1.5279330304953322e-04 +0.0000000000000000e+00 +9.9999998832710313e-01
-2.8000000000000012e+00 +8.1647781673056716e+00 +0.0000000000000000e+00 -2.7999999882833775e+00 +1.5845236085125326e-04 +0.0000000000000000e+00 +9.9999998744642449e-01
-2.9000000000000012e+00 +8.1647620391165638e+00 +0.0000000000000000e+00 -2.8999999869826514e+00 +1.6411142181697346e-04 +0.0000000000000000e+00 +9.9999998653372046e-01
-3.0000000000000013e+00 +8.1647453450212026e+00 +0.0000000000000000e+00 -2.9999999855890538e+00 +1.6977048594872532e-04 +0.0000000000000000e+00 +9.9999998558899084e-01
-3.1000000000000014e+00 +8.1647280850192683e+00 +0.0000000000000000e+00 -3.0999999840993819e+00 +1.7542955325540547e-04 +0.0000000000000000e+00 +9.9999998461223571e-01
-3.2000000000000015e+00 +8.1647102591104446e+00 +0.0000000000000000e+00 -3.1999999825104335e+00 +1.8108862375277584e-04 +0.0000000000000000e+00 +9.9999998360345499e-01
-3.3000000000000016e+00 +8.1646918672944100e+00 +0.0000000000000000e+00 -3.2999999808190057e+00 +1.8674769746346390e-04 +0.0000000000000000e+00 +9.9999998256264855e-01
-3.4000000000000017e+00 +8.1646729095708430e+00 +0.0000000000000000e+00 -3.3999999790218958e+00 +1.9240677441696288e-04 +0.0000000000000000e+00 +9.9999998148981639e-01
-3.5000000000000018e+00 +8.1646533859394168e+00 +0.0000000000000000e+00 -3.4999999771159014e+00 +1.9806585464963200e-04 +0.0000000000000000e+00 +9.9999998038495841e-01
-3.6000000000000019e+00 +8.1646332963998027e+00 +0.0000000000000000e+00 -3.5999999750978198e+00 +2.0372493820469670e-04 +0.0000000000000000e+00 +9.9999997924807460e-01
-3.7000000000000020e+00 +8.1646126409516651e+00 +0.0000000000000000e+00 -3.6999999729644486e+00 +2.0938402513224897e-04 +0.0000000000000000e+00 +9.9999997807916485e-01
-3.8000000000000020e+00 +8.1645914195946627e+00 +0.0000000000000000e+00 -3.7999999707125851e+00 +2.1504311548924755e-04 +0.0000000000000000e+00 +9.9999997687822906e-01
-3.9000000000000021e+00 +8.1645696323284511e+00 +0.0000000000000000e+00 -3.8999999683390270e+00 +2.2070220933951819e-04 +0.0000000000000000e+00 +9.9999997564526721e-01
-4.0000000000000018e+00 +8.1645472791526768e+00 +0.0000000000000000e+00 -3.9999999658405709e+00 +2.2636130675375400e-04 +0.0000000000000000e+00 +9.9999997438027921e-01
-4.1000000000000014e+00 +8.1645243600669790e+00 +0.0000000000000000e+00 -4.0999999632140147e+00 +2.3202040780891215e-04 +0.0000000000000000e+00 +9.9999997308326494e-01
-4.2000000000000011e+00 +8.1645008750709902e+00 +0.0000000000000000e+00 -4.1999999604561564e+00 +2.3767951258157473e-04 +0.0000000000000000e+00 +9.9999997175422439e-01
-4.3000000000000007e+00 +8.1644768241643355e+00 +0.0000000000000000e+00 -4.2999999575637924e+00 +2.4333862114130924e-04 +0.0000000000000000e+00 +9.9999997039315747e-01
-4.4000000000000004e+00 +8.1644522073466330e+00 +0.0000000000000000e+00 -4.3999999545337207e+00 +2.4899773355006465e-04 +0.0000000000000000e+00 +9.9999996900006405e-01
-4.5000000000000000e+00 +8.1644270246174955e+00 +0.0000000000000000e+00 -4.4999999513627378e+00 +2.5465684986217106e-04 +0.0000000000000000e+00 +9.9999996757494403e-01
-4.5999999999999996e+00 +8.1644012759765285e+00 +0.0000000000000000e+00 -4.5999999480476417e+00 +2.6031597012433910e-04 +0.0000000000000000e+00 +9.9999996611779740e-01
-4.6999999999999993e+00 +8.1643749614233361e+00 +0.0000000000000000e+00 -4.6999999445852296e+00 +2.6597509437565969e-04 +0.0000000000000000e+00 +9.9999996462862406e-01
-4.7999999999999989e+00 +8.1643480809575184e+00 +0.0000000000000000e+00 -4.7999999409722989e+00 +2.7163422264760330e-04 +0.0000000000000000e+00 +9.9999996310742401e-01
-4.8999999999999986e+00 +8.1643206345786723e+00 +0.0000000000000000e+00 -4.8999999372056466e+00 +2.7729335496401962e-04 +0.0000000000000000e+00 +9.9999996155419701e-01
-4.9999999999999982e+00 +8.1642926222863910e+00 +0.0000000000000000e+00 -4.9999999332820702e+00 +2.8295249134113688e-04 +0.0000000000000000e+00 +9.9999995996894309e-01
-5.0999999999999979e+00 +8.1642640440802676e+00 +0.0000000000000000e+00 -5.0999999291983675e+00 +2.8861163178756132e-04 +0.0000000000000000e+00 +9.9999995835166222e-01
-5.1999999999999975e+00 +8.1642348999598973e+00 +0.0000000000000000e+00 -5.1999999249513351e+00 +2.9427077630427657e-04 +0.0000000000000000e+00 +9.9999995670235431e-01
-5.2999999999999972e+00 +8.1642051899248713e+00 +0.0000000000000000e+00 -5.2999999205377710e+00 +2.9992992488464293e-04 +0.0000000000000000e+00 +9.9999995502101924e-01
-5.3999999999999968e+00 +8.1641749139747848e+00 +0.0000000000000000e+00 -5.3999999159544716e+00 +3.0558907751439686e-04 +0.0000000000000000e+00 +9.9999995330765690e-01
-5.4999999999999964e+00 +8.1641440721092344e+00 +0.0000000000000000e+00 -5.4999999111982349e+00 +3.1124823417165003e-04 +0.0000000000000000e+00 +9.9999995156226729e-01
-5.5999999999999961e+00 +8.1641126643278170e+00 +0.0000000000000000e+00 -5.5999999062658574e+00 +3.1690739482688880e-04 +0.0000000000000000e+00 +9.9999994978485041e-01
-5.6999999999999957e+00 +8.1640806906301364e+00 +0.0000000000000000e+00 -5.6999999011541371e+00 +3.2256655944297333e-04 +0.0000000000000000e+00 +9.9999994797540614e-01
-5.7999999999999954e+00 +8.1640481510157983e+00 +0.0000000000000000e+00 -5.7999998958598713e+00 +3.2822572797513679e-04 +0.0000000000000000e+00 +9.9999994613393439e-01
-5.8999999999999950e+00 +8.1640150454844136e+00 +0.0000000000000000e+00 -5.8999998903798563e+00 +3.3388490037098459e-04 +0.0000000000000000e+00 +9.9999994426043515e-01
-5.9999999999999947e+00 +8.1639813740355986e+00 +0.0000000000000000e+00 -5.9999998847108902e+00 +3.3954407657049344e-04 +0.0000000000000000e+00 +9.9999994235490841e-01
-6.0999999999999943e+00 +8.1639471366689751e+00 +0.0000000000000000e+00 -6.0999998788497702e+00 +3.4520325650650861e-04 +0.0000000000000000e+00 +9.9999994041735407e-01
-6.1999999999999940e+00 +8.1639123333841752e+00 +0.0000000000000000e+00 -6.1999998727932937e+00 +3.5086244011022270e-04 +0.0000000000000000e+00 +9.9999993844777213e-01
-6.2999999999999936e+00 +8.1638769641808331e+00 +0.0000000000000000e+00 -6.2999998665382577e+00 +3.5652162731665484e-04 +0.0000000000000000e+00 +9.9999993644616259e-01
-6.3999999999999932e+00 +8.1638410290585934e+00 +0.0000000000000000e+00 -6.3999998600814587e+00 +3.6218081806514929e-04 +0.0000000000000000e+00 +9.9999993441252533e-01
-6.4999999999999929e+00 +8.1638045280171045e+00 +0.0000000000000000e+00 -6.4999998534196948e+00 +3.6784001229937569e-04 +0.0000000000000000e+00 +9.9999993234686035e-01
-6.5999999999999925e+00 +8.1637674610560200e+00 +0.0000000000000000e+00 -6.5999998465497631e+00 +3.7349920996732939e-04 +0.0000000000000000e+00 +9.9999993024916756e-01
-6.6999999999999922e+00 +8.1637298281749988e+00 +0.0000000000000000e+00 -6.6999998394684610e+00 +3.7915841102133209e-04 +0.0000000000000000e+00 +9.9999992811944705e-01
-6.7999999999999918e+00 +8.1636916293737052e+00 +0.0000000000000000e+00 -6.7999998321725847e+00 +3.8481761541803194e-04 +0.0000000000000000e+00 +9.9999992595769860e-01
-6.8999999999999915e+00 +8.1636528646518052e+00 +0.0000000000000000e+00 -6.8999998246589325e+00 +3.9047682311840417e-04 +0.0000000000000000e+00 +9.9999992376392233e-01
-6.9999999999999911e+00 +8.1636135340089719e+00 +0.0000000000000000e+00 -6.9999998169243014e+00 +3.9613603408775156e-04 +0.0000000000000000e+00 +9.9999992153811812e-01
-7.0999999999999908e+00 +8.1635736374448804e+00 +0.0000000000000000e+00 -7.0999998089654888e+00 +4.0179524829570484e-04 +0.0000000000000000e+00 +9.9999991928028586e-01
-7.1999999999999904e+00 +8.1635331749592073e+00 +0.0000000000000000e+00 -7.1999998007792909e+00 +4.0745446571622325e-04 +0.0000000000000000e+00 +9.9999991699042567e-01
-7.2999999999999901e+00 +8.1634921465516310e+00 +0.0000000000000000e+00 -7.2999997923625060e+00 +4.1311368632759502e-04 +0.0000000000000000e+00 +9.9999991466853733e-01
-7.3999999999999897e+00 +8.1634505522218355e+00 +0.0000000000000000e+00 -7.3999997837119311e+00 +4.1877291011243798e-04 +0.0000000000000000e+00 +9.9999991231462093e-01
-7.4999999999999893e+00 +8.1634083919695026e+00 +0.0000000000000000e+00 -7.4999997748243628e+00 +4.2443213705770002e-04 +0.0000000000000000e+00 +9.9999990992867638e-01
-7.5999999999999890e+00 +8.1633656657943181e+00 +0.0000000000000000e+00 -7.5999997656965990e+00 +4.3009136715465982e-04 +0.0000000000000000e+00 +9.9999990751070356e-01
-7.6999999999999886e+00 +8.1633223736959675e+00 +0.0000000000000000e+00 -7.6999997563254361e+00 +4.3575060039892735e-04 +0.0000000000000000e+00 +9.9999990506070247e-01
-7.7999999999999883e+00 +8.1632785156741345e+00 +0.0000000000000000e+00 -7.7999997467076714e+00 +4.4140983679044458e-04 +0.0000000000000000e+00 +9.9999990257867311e-01
-7.8999999999999879e+00 +8.1632340917285049e+00 +0.0000000000000000e+00 -7.8999997368401029e+00 +4.4706907633348605e-04 +0.0000000000000000e+00 +9.9999990006461537e-01
-7.9999999999999876e+00 +8.1631891018587623e+00 +0.0000000000000000e+00 -7.9999997267195271e+00 +4.5272831903665962e-04 +0.0000000000000000e+00 +9.9999989751852913e-01
-8.0999999999999872e+00 +8.1631435460645907e+00 +0.0000000000000000e+00 -8.0999997163427420e+00 +4.5838756491287818e-04 +0.0000000000000000e+00 +9.9999989494041441e-01
-8.1999999999999869e+00 +8.1630974243456720e+00 +0.0000000000000000e+00 -8.1999997057065439e+00 +4.6404681397904158e-04 +0.0000000000000000e+00 +9.9999989233027120e-01
-8.2999999999999865e+00 +8.1630507367016865e+00 +0.0000000000000000e+00 -8.2999996948077293e+00 +4.6970606625571827e-04 +0.0000000000000000e+00 +9.9999988968809939e-01
-8.3999999999999861e+00 +8.1630034831323126e+00 +0.0000000000000000e+00 -8.3999996836430952e+00 +4.7536532176711653e-04 +0.0000000000000000e+00 +9.9999988701389886e-01
-8.4999999999999858e+00 +8.1629556636372254e+00 +0.0000000000000000e+00 -8.4999996722094409e+00 +4.8102458054108459e-04 +0.0000000000000000e+00 +9.9999988430766962e-01
-8.5999999999999854e+00 +8.1629072782160961e+00 +0.0000000000000000e+00 -8.5999996605035616e+00 +4.8668384260911086e-04 +0.0000000000000000e+00 +9.9999988156941155e-01
-8.6999999999999851e+00 +8.1628583268685926e+00 +0.0000000000000000e+00 -8.6999996485222546e+00 +4.9234310800632395e-04 +0.0000000000000000e+00 +9.9999987879912455e-01
-8.7999999999999847e+00 +8.1628088095943827e+00 +0.0000000000000000e+00 -8.7999996362623190e+00 +4.9800237677149301e-04 +0.0000000000000000e+00 +9.9999987599680862e-01
-8.8999999999999844e+00 +8.1627587263931254e+00 +0.0000000000000000e+00 -8.8999996237205501e+00 +5.0366164894702771e-04 +0.0000000000000000e+00 +9.9999987316246364e-01
-8.9999999999999840e+00 +8.1627080772644778e+00 +0.0000000000000000e+00 -8.9999996108937452e+00 +5.0932092457897855e-04 +0.0000000000000000e+00 +9.9999987029608950e-01
-9.0999999999999837e+00 +8.1626568622080917e+00 +0.0000000000000000e+00 -9.0999995977787016e+00 +5.1498020371703701e-04 +0.0000000000000000e+00 +9.9999986739768609e-01
-9.1999999999999833e+00 +8.1626050812236155e+00 +0.0000000000000000e+00 -9.1999995843722147e+00 +5.2063948641453575e-04 +0.0000000000000000e+00 +9.9999986446725342e-01
-9.2999999999999829e+00 +8.1625527343106885e+00 +0.0000000000000000e+00 -9.2999995706710834e+00 +5.2629877272844874e-04 +0.0000000000000000e+00 +9.9999986150479137e-01
-9.3999999999999826e+00 +8.1624998214689466e+00 +0.0000000000000000e+00 -9.3999995566721051e+00 +5.3195806271939133e-04 +0.0000000000000000e+00 +9.9999985851029982e-01
-9.4999999999999822e+00 +8.1624463426980203e+00 +0.0000000000000000e+00 -9.4999995423720751e+00 +5.3761735645162072e-04 +0.0000000000000000e+00 +9.9999985548377868e-01
-9.5999999999999819e+00 +8.1623922979975294e+00 +0.0000000000000000e+00 -9.5999995277677925e+00 +5.4327665399303592e-04 +0.0000000000000000e+00 +9.9999985242522782e-01
-9.6999999999999815e+00 +8.1623376873670921e+00 +0.0000000000000000e+00 -9.6999995128560528e+00 +5.4893595541517803e-04 +0.0000000000000000e+00 +9.9999984933464714e-01
-9.7999999999999812e+00 +8.1622825108063157e+00 +0.0000000000000000e+00 -9.7999994976336531e+00 +5.5459526079323039e-04 +0.0000000000000000e+00 +9.9999984621203664e-01
-9.8999999999999808e+00 +8.1622267683147989e+00 +0.0000000000000000e+00 -9.8999994820973924e+00 +5.6025457020601873e-04 +0.0000000000000000e+00 +9.9999984305739609e-01
-9.9999999999999805e+00 +8.1621704598921365e+00 +0.0000000000000000e+00 -9.9999994662440663e+00 +5.6591388373601170e-04 +0.0000000000000000e+00 +9.9999983987072538e-01
-1.0099999999999980e+01 +8.1621135855379112e+00 +0.0000000000000000e+00 -1.0099999450070470e+01 +5.7157320146922035e-04 +0.0000000000000000e+00 +9.9999983665202441e-01
-1.0199999999999980e+01 +8.1620561452516984e+00 +0.0000000000000000e+00 -1.0199999433573403e+01 +5.7723252349409649e-04 +0.0000000000000000e+00 +9.9999983340129306e-01
-1.0299999999999979e+01 +8.1619981390330647e+00 +0.0000000000000000e+00 -1.0299999416749660e+01 +5.8289184990043008e-04 +0.0000000000000000e+00 +9.9999983011853122e-01
-1.0399999999999979e+01 +8.1619395668815677e+00 +0.0000000000000000e+00 -1.0399999399596041e+01 +5.8855118077924789e-04 +0.0000000000000000e+00 +9.9999982680373878e-01
-1.0499999999999979e+01 +8.1618804287967563e+00 +0.0000000000000000e+00 -1.0499999382109340e+01 +5.9421051622281316e-04 +0.0000000000000000e+00 +9.9999982345691563e-01
-1.0599999999999978e+01 +8.1618207247781687e+00 +0.0000000000000000e+00 -1.0599999364286356e+01 +5.9986985632462433e-04 +0.0000000000000000e+00 +9.9999982007806154e-01
-1.0699999999999978e+01 +8.1617604548253340e+00 +0.0000000000000000e+00 -1.0699999346123885e+01 +6.0552920117941421e-04 +0.0000000000000000e+00 +9.9999981666717641e-01
-1.0799999999999978e+01 +8.1616996189377709e+00 +0.0000000000000000e+00 -1.0799999327618725e+01 +6.1118855088314935e-04 +0.0000000000000000e+00 +9.9999981322426013e-01
-1.0899999999999977e+01 +8.1616382171149908e+00 +0.0000000000000000e+00 -1.0899999308767670e+01 +6.1684790553302878e-04 +0.0000000000000000e+00 +9.9999980974931257e-01
-1.0999999999999977e+01 +8.1615762493564947e+00 +0.0000000000000000e+00 -1.0999999289567519e+01 +6.2250726522748321e-04 +0.0000000000000000e+00 +9.9999980624233353e-01
-1.1099999999999977e+01 +8.1615137156617727e+00 +0.0000000000000000e+00 -1.1099999270015068e+01 +6.2816663006617414e-04 +0.0000000000000000e+00 +9.9999980270332289e-01
-1.1199999999999976e+01 +8.1614506160303062e+00 +0.0000000000000000e+00 -1.1199999250107116e+01 +6.3382600014999253e-04 +0.0000000000000000e+00 +9.9999979913228054e-01
-1.1299999999999976e+01 +8.1613869504615639e+00 +0.0000000000000000e+00 -1.1299999229840457e+01 +6.3948537558105819e-04 +0.0000000000000000e+00 +9.9999979552920626e-01
-1.1399999999999975e+01 +8.1613227189550077e+00 +0.0000000000000000e+00 -1.1399999209211890e+01 +6.4514475646271858e-04 +0.0000000000000000e+00 +9.9999979189409993e-01
-1.1499999999999975e+01 +8.1612579215100869e+00 +0.0000000000000000e+00 -1.1499999188218210e+01 +6.5080414289954761e-04 +0.0000000000000000e+00 +9.9999978822696134e-01
-1.1599999999999975e+01 +8.1611925581262401e+00 +0.0000000000000000e+00 -1.1599999166856215e+01 +6.5646353499734474e-04 +0.0000000000000000e+00 +9.9999978452779037e-01
-1.1699999999999974e+01 +8.1611266288028954e+00 +0.0000000000000000e+00 -1.1699999145122700e+01 +6.6212293286313376e-04 +0.0000000000000000e+00 +9.9999978079658680e-01
