# field on trajectory
# s[mm] rx[mm] ry[mm] rz[mm] bx[T] by[T] bz[T]
0.0000000000000000e+00 +8.1530000000000005e+00 +0.0000000000000000e+00 +0.0000000000000000e+00 -2.9443653632671919e-02 -5.6522474185014582e-01 +5.6297852188755782e-03
1.0000000000000001e-01 +8.1529997163961507e+00 +0.0000000000000000e+00 +9.9999999999463796e-02 -2.9443620440277318e-02 -5.6522466477730204e-01 +5.6298031532861070e-03
2.0000000000000001e-01 +8.1529988655856904e+00 +0.0000000000000000e+00 +1.9999999999571000e-01 -2.9443590233772139e-02 -5.6522459689032711e-01 +5.6298222748738828e-03
2.9999999999999999e-01 +8.1529974475670297e+00 +0.0000000000000000e+00 +2.9999999998552201e-01 -2.9443563207730922e-02 -5.6522453759282265e-01 +5.6298425121997344e-03
4.0000000000000002e-01 +8.1529954623438208e+00 +0.0000000000000000e+00 +3.9999999996568297e-01 -2.9443539556726964e-02 -5.6522448628832667e-01 +5.6298637938250341e-03
5.0000000000000000e-01 +8.1529929099124292e+00 +0.0000000000000000e+00 +4.9999999993297400e-01 -2.9443519475336341e-02 -5.6522444238041070e-01 +5.6298860483125464e-03
5.9999999999999998e-01 +8.1529897902728408e+00 +0.0000000000000000e+00 +5.9999999988417896e-01 -2.9443503158132087e-02 -5.6522440527260231e-01 +5.6299092042254271e-03
6.9999999999999996e-01 +8.1529861034287006e+00 +0.0000000000000000e+00 +6.9999999981608096e-01 -2.9443490799682944e-02 -5.6522437436838324e-01 +5.6299331901270644e-03
8.0000000000000004e-01 +8.1529818493763706e+00 +0.0000000000000000e+00 +7.9999999972546199e-01 -2.9443482594556744e-02 -5.6522434907128061e-01 +5.6299579345818135e-03
9.0000000000000002e-01 +8.1529770281158598e+00 +0.0000000000000000e+00 +8.9999999960910604e-01 -2.9443478737314534e-02 -5.6522432878478379e-01 +5.6299833661539829e-03
1.0000000000000000e+00 +8.1529716396507901e+00 +0.0000000000000000e+00 +9.9999999946379403e-01 -2.9443479422509352e-02 -5.6522431291234798e-01 +5.6300094134076840e-03
1.1000000000000001e+00 +8.1529656839775306e+00 +0.0000000000000000e+00 +1.0999999992863101e+00 -2.9443484844689602e-02 -5.6522430085748154e-01 +5.6300360049075550e-03
1.2000000000000000e+00 +8.1529591610960797e+00 +0.0000000000000000e+00 +1.1999999990734400e+00 -2.9443495198393222e-02 -5.6522429202366387e-01 +5.6300630692177585e-03
1.3000000000000000e+00 +8.1529520710100805e+00 +0.0000000000000000e+00 +1.2999999988219599e+00 -2.9443510678146399e-02 -5.6522428581434936e-01 +5.6300905349018311e-03
1.3999999999999999e+00 +8.1529444137122500e+00 +0.0000000000000000e+00 +1.3999999985286500e+00 -2.9443531478468517e-02 -5.6522428163308291e-01 +5.6301183305236882e-03
1.5000000000000000e+00 +8.1529361892135093e+00 +0.0000000000000000e+00 +1.4999999981903001e+00 -2.9443557793858627e-02 -5.6522427888327731e-01 +5.6301463846451828e-03
1.6000000000000001e+00 +8.1529273975065699e+00 +0.0000000000000000e+00 +1.5999999978037001e+00 -2.9443589818809551e-02 -5.6522427696849786e-01 +5.6301746258288427e-03
1.7000000000000000e+00 +8.1529180385914497e+00 +0.0000000000000000e+00 +1.6999999973656199e+00 -2.9443627747795870e-02 -5.6522427529226815e-01 +5.6302029826356976e-03
1.8000000000000000e+00 +8.1529081124681397e+00 +0.0000000000000000e+00 +1.7999999968728499e+00 -2.9443671775275817e-02 -5.6522427325812974e-01 +5.6302313836257200e-03
1.8999999999999999e+00 +8.1528976191402798e+00 +0.0000000000000000e+00 +1.8999999963221601e+00 -2.9443722095688497e-02 -5.6522427026961741e-01 +5.6302597573574002e-03
2.0000000000000000e+00 +8.1528865586042194e+00 +0.0000000000000000e+00 +1.9999999957103500e+00 -2.9443778903457177e-02 -5.6522426573034523e-01 +5.6302880323884511e-03
2.1000000000000001e+00 +8.1528749308599799e+00 +0.0000000000000000e+00 +2.0999999950341901e+00 -2.9443842265748095e-02 -5.6522425927448050e-01 +5.6303161506099765e-03
2.2000000000000002e+00 +8.1528627359111905e+00 +0.0000000000000000e+00 +2.1999999942904802e+00 -2.9443911740773036e-02 -5.6522425145840272e-01 +5.6303441072519580e-03
2.2999999999999998e+00 +8.1528499737542006e+00 +0.0000000000000000e+00 +2.2999999934759798e+00 -2.9443986759518311e-02 -5.6522424306912156e-01 +5.6303719108786905e-03
2.3999999999999999e+00 +8.1528366443890299e+00 +0.0000000000000000e+00 +2.3999999925874800e+00 -2.9444066752980332e-02 -5.6522423489363816e-01 +5.6303995700526599e-03
2.5000000000000000e+00 +8.1528227478193003e+00 +0.0000000000000000e+00 +2.4999999916217801e+00 -2.9444151152167922e-02 -5.6522422771894720e-01 +5.6304270933344542e-03
2.6000000000000001e+00 +8.1528082840413791e+00 +0.0000000000000000e+00 +2.5999999905756401e+00 -2.9444239388109163e-02 -5.6522422233212233e-01 +5.6304544892835104e-03
2.7000000000000002e+00 +8.1527932530552807e+00 +0.0000000000000000e+00 +2.6999999894458502e+00 -2.9444330891849124e-02 -5.6522421952023261e-01 +5.6304817664571518e-03
2.7999999999999998e+00 +8.1527776548646198e+00 +0.0000000000000000e+00 +2.7999999882291999e+00 -2.9444425094452210e-02 -5.6522422007034501e-01 +5.6305089334104889e-03
2.8999999999999999e+00 +8.1527614894657692e+00 +0.0000000000000000e+00 +2.8999999869224702e+00 -2.9444521427009016e-02 -5.6522422476960987e-01 +5.6305359986971752e-03
3.0000000000000000e+00 +8.1527447568587394e+00 +0.0000000000000000e+00 +2.9999999855224302e+00 -2.9444619320634021e-02 -5.6522423440517744e-01 +5.6305629708684425e-03
3.1000000000000001e+00 +8.1527274570471508e+00 +0.0000000000000000e+00 +3.0999999840258798e+00 -2.9444718206467945e-02 -5.6522424976420016e-01 +5.6305898584729924e-03
3.2000000000000002e+00 +8.1527095900273707e+00 +0.0000000000000000e+00 +3.1999999824295902e+00 -2.9444817515684629e-02 -5.6522427163391764e-01 +5.6306166700577651e-03
3.2999999999999998e+00 +8.1526911557994008e+00 +0.0000000000000000e+00 +3.2999999807303602e+00 -2.9444916679488679e-02 -5.6522430080157315e-01 +5.6306434141669692e-03
3.3999999999999999e+00 +8.1526721543668792e+00 +0.0000000000000000e+00 +3.3999999789249502e+00 -2.9445015129117874e-02 -5.6522433805441719e-01 +5.6306700993419721e-03
3.5000000000000000e+00 +8.1526525857261696e+00 +0.0000000000000000e+00 +3.4999999770101602e+00 -2.9445112295850000e-02 -5.6522438417979148e-01 +5.6306967341220654e-03
3.6000000000000001e+00 +8.1526324498772702e+00 +0.0000000000000000e+00 +3.5999999749827598e+00 -2.9445207611000560e-02 -5.6522443996504634e-01 +5.6307233270435049e-03
3.7000000000000002e+00 +8.1526117468238208e+00 +0.0000000000000000e+00 +3.6999999728395401e+00 -2.9445300505925111e-02 -5.6522450619754194e-01 +5.6307498866393956e-03
3.7999999999999998e+00 +8.1525904765621799e+00 +0.0000000000000000e+00 +3.7999999705772902e+00 -2.9445390412026144e-02 -5.6522458366473527e-01 +5.6307764214404534e-03
3.8999999999999999e+00 +8.1525686390959908e+00 +0.0000000000000000e+00 +3.8999999681927799e+00 -2.9445476760749198e-02 -5.6522467315406677e-01 +5.6308029399737601e-03
4.0000000000000000e+00 +8.1525462344179704e+00 +0.0000000000000000e+00 +3.9999999656827998e+00 -2.9445558983592957e-02 -5.6522477545310523e-01 +5.6308294507640870e-03
4.0999999999999996e+00 +8.1525232625354001e+00 +0.0000000000000000e+00 +4.0999999630441302e+00 -2.9445636634256124e-02 -5.6522489111155327e-01 +5.6308559785211952e-03
4.2000000000000002e+00 +8.1524997234482708e+00 +0.0000000000000000e+00 +4.1999999602735496e+00 -2.9445709755094140e-02 -5.6522501972800332e-01 +5.6308826127121356e-03
4.2999999999999998e+00 +8.1524756171529607e+00 +0.0000000000000000e+00 +4.2999999573678496e+00 -2.9445778510614192e-02 -5.6522516066325557e-01 +5.6309094589969489e-03
4.4000000000000004e+00 +8.1524509436494608e+00 +0.0000000000000000e+00 +4.3999999543238104e+00 -2.9445843065309715e-02 -5.6522531327805015e-01 +5.6309366230395388e-03
4.5000000000000000e+00 +8.1524257029377605e+00 +0.0000000000000000e+00 +4.4999999511382098e+00 -2.9445903583660383e-02 -5.6522547693309033e-01 +5.6309642105082901e-03
4.5999999999999996e+00 +8.1523998950215208e+00 +0.0000000000000000e+00 +4.5999999478078299e+00 -2.9445960230128923e-02 -5.6522565098901256e-01 +5.6309923270761036e-03
4.7000000000000002e+00 +8.1523735198970808e+00 +0.0000000000000000e+00 +4.6999999443294600e+00 -2.9446013169164228e-02 -5.6522583480646915e-01 +5.6310210784215912e-03
4.7999999999999998e+00 +8.1523465775644599e+00 +0.0000000000000000e+00 +4.7999999406998803e+00 -2.9446062565195101e-02 -5.6522602774603803e-01 +5.6310505702285348e-03
4.9000000000000004e+00 +8.1523190680272801e+00 +0.0000000000000000e+00 +4.8999999369158704e+00 -2.9446108582628704e-02 -5.6522622916822118e-01 +5.6310809081862147e-03
5.0000000000000000e+00 +8.1522909912819195e+00 +0.0000000000000000e+00 +4.9999999329742204e+00 -2.9446151385853610e-02 -5.6522643843352638e-01 +5.6311121979905959e-03
5.0999999999999996e+00 +8.1522623473319999e+00 +0.0000000000000000e+00 +5.0999999288717000e+00 -2.9446191139232032e-02 -5.6522665490235091e-01 +5.6311445453435102e-03
5.2000000000000002e+00 +8.1522331361738907e+00 +0.0000000000000000e+00 +5.1999999246051098e+00 -2.9446228007104412e-02 -5.6522687793509074e-01 +5.6311780559541178e-03
5.2999999999999998e+00 +8.1522033578075899e+00 +0.0000000000000000e+00 +5.2999999201712198e+00 -2.9446262153783261e-02 -5.6522710689205335e-01 +5.6312128355383937e-03
5.4000000000000004e+00 +8.1521730122331100e+00 +0.0000000000000000e+00 +5.3999999155668199e+00 -2.9446293743553047e-02 -5.6522734113348372e-01 +5.6312489898197211e-03
5.5000000000000000e+00 +8.1521420994540694e+00 +0.0000000000000000e+00 +5.4999999107886799e+00 -2.9446322940667152e-02 -5.6522758001953188e-01 +5.6312866245289400e-03
5.5999999999999996e+00 +8.1521106194668391e+00 +0.0000000000000000e+00 +5.5999999058335996e+00 -2.9446349909350869e-02 -5.6522782291033413e-01 +5.6313258454055333e-03
5.7000000000000002e+00 +8.1520785722750606e+00 +0.0000000000000000e+00 +5.6999999006983604e+00 -2.9446374813793662e-02 -5.6522806916589863e-01 +5.6313667581967966e-03
5.7999999999999998e+00 +8.1520459578750906e+00 +0.0000000000000000e+00 +5.7999998953797300e+00 -2.9446397818153773e-02 -5.6522831814621377e-01 +5.6314094686593348e-03
5.9000000000000004e+00 +8.1520127762669308e+00 +0.0000000000000000e+00 +5.8999998898744996e+00 -2.9446419086552003e-02 -5.6522856921116149e-01 +5.6314540825584992e-03
5.9999999999999902e+00 +8.1519790274505795e+00 +0.0000000000000000e+00 +5.9999998841794504e+00 -2.9446438783071675e-02 -5.6522882172054179e-01 +5.6315007056690182e-03
6.0999999999999899e+00 +8.1519447114296799e+00 +0.0000000000000000e+00 +6.0999998782913698e+00 -2.9446457069661158e-02 -5.6522907518569343e-01 +5.6315494154360168e-03
6.1999999999999904e+00 +8.1519098282005906e+00 +0.0000000000000000e+00 +6.1999998722070400e+00 -2.9446474099859642e-02 -5.6522932972456952e-01 +5.6316001759552795e-03
6.2999999999999901e+00 +8.1518743777669407e+00 +0.0000000000000000e+00 +6.2999998659232403e+00 -2.9446490025083080e-02 -5.6522958560672709e-01 +5.6316529229832593e-03
6.3999999999999897e+00 +8.1518383601214701e+00 +0.0000000000000000e+00 +6.3999998594367504e+00 -2.9446504996726831e-02 -5.6522984310182278e-01 +5.6317075922767664e-03
6.4999999999999902e+00 +8.1518017752750893e+00 +0.0000000000000000e+00 +6.4999998527443603e+00 -2.9446519166152509e-02 -5.6523010247939054e-01 +5.6317641195905615e-03
6.5999999999999899e+00 +8.1517646232205205e+00 +0.0000000000000000e+00 +6.5999998458428504e+00 -2.9446532684702455e-02 -5.6523036400912419e-01 +5.6318224406801259e-03
6.6999999999999904e+00 +8.1517269039541098e+00 +0.0000000000000000e+00 +6.6999998387290001e+00 -2.9446545703689746e-02 -5.6523062796070844e-01 +5.6318824912998415e-03
6.7999999999999901e+00 +8.1516886174867995e+00 +0.0000000000000000e+00 +6.7999998313996004e+00 -2.9446558374392574e-02 -5.6523089460373666e-01 +5.6319442072020002e-03
6.8999999999999897e+00 +8.1516497638112906e+00 +0.0000000000000000e+00 +6.8999998238514202e+00 -2.9446570848067385e-02 -5.6523116420796504e-01 +5.6320075241393158e-03
6.9999999999999902e+00 +8.1516103429239593e+00 +0.0000000000000000e+00 +6.9999998160812602e+00 -2.9446583275938642e-02 -5.6523143704314516e-01 +5.6320723778630786e-03
7.0999999999999899e+00 +8.1515703548320708e+00 +0.0000000000000000e+00 +7.0999998080858804e+00 -2.9446595809195019e-02 -5.6523171337896816e-01 +5.6321387041224739e-03
7.1999999999999904e+00 +8.1515297995356395e+00 +0.0000000000000000e+00 +7.1999997998620904e+00 -2.9446608598996150e-02 -5.6523199348520758e-01 +5.6322064386659263e-03
7.2999999999999901e+00 +8.1514886770310095e+00 +0.0000000000000000e+00 +7.2999997914066501e+00 -2.9446621796470226e-02 -5.6523227763169170e-01 +5.6322755172406999e-03
7.3999999999999897e+00 +8.1514469873182005e+00 +0.0000000000000000e+00 +7.3999997827163604e+00 -2.9446635552710123e-02 -5.6523256608824823e-01 +5.6323458755922215e-03
7.4999999999999902e+00 +8.1514047304008308e+00 +0.0000000000000000e+00 +7.4999997737879900e+00 -2.9446650018772513e-02 -5.6523285912470678e-01 +5.6324174494639815e-03
7.5999999999999899e+00 +8.1513619062752696e+00 +0.0000000000000000e+00 +7.5999997646183202e+00 -2.9446665345681567e-02 -5.6523315701098220e-01 +5.6324901745982746e-03
7.6999999999999904e+00 +8.1513185149451601e+00 +0.0000000000000000e+00 +7.6999997552041499e+00 -2.9446681684422032e-02 -5.6523346001696584e-01 +5.6325639867349647e-03
7.7999999999999901e+00 +8.1512745564032194e+00 +0.0000000000000000e+00 +7.7999997455422498e+00 -2.9446699185945988e-02 -5.6523376841266526e-01 +5.6326388216128174e-03
7.8999999999999897e+00 +8.1512300306567305e+00 +0.0000000000000000e+00 +7.8999997356294100e+00 -2.9446718001161283e-02 -5.6523408246800921e-01 +5.6327146149673614e-03
7.9999999999999902e+00 +8.1511849377056897e+00 +0.0000000000000000e+00 +7.9999997254624002e+00 -2.9446738280939869e-02 -5.6523440245301781e-01 +5.6327913025325353e-03
8.0999999999999908e+00 +8.1511392775464593e+00 +0.0000000000000000e+00 +8.0999997150380096e+00 -2.9446760101359552e-02 -5.6523472848119272e-01 +5.6328688162795137e-03
8.1999999999999904e+00 +8.1510930501790408e+00 +0.0000000000000000e+00 +8.1999997043530293e+00 -2.9446783239456206e-02 -5.6523506003971735e-01 +5.6329470731311350e-03
8.2999999999999901e+00 +8.1510462556034309e+00 +0.0000000000000000e+00 +8.2999996934042404e+00 -2.9446807397539718e-02 -5.6523539645925391e-01 +5.6330259862400062e-03
8.3999999999999897e+00 +8.1509988938232691e+00 +0.0000000000000000e+00 +8.3999996821884100e+00 -2.9446832277957583e-02 -5.6523573707050567e-01 +5.6331054687481273e-03
8.4999999999999893e+00 +8.1509509648349194e+00 +0.0000000000000000e+00 +8.4999996707023406e+00 -2.9446857583100942e-02 -5.6523608120430280e-01 +5.6331854337874042e-03
8.5999999999999908e+00 +8.1509024686420197e+00 +0.0000000000000000e+00 +8.5999996589427994e+00 -2.9446883015400042e-02 -5.6523642819149311e-01 +5.6332657944781813e-03
8.6999999999999904e+00 +8.1508534052409196e+00 +0.0000000000000000e+00 +8.6999996469065692e+00 -2.9446908277331811e-02 -5.6523677736305467e-01 +5.6333464639300558e-03
8.7999999999999794e+00 +8.1508037746316404e+00 +0.0000000000000000e+00 +8.7999996345904599e+00 -2.9446933071416909e-02 -5.6523712805001547e-01 +5.6334273552406822e-03
8.8999999999999808e+00 +8.1507535768178094e+00 +0.0000000000000000e+00 +8.8999996219912205e+00 -2.9446957100221164e-02 -5.6523747958345383e-01 +5.6335083814954478e-03
8.9999999999999805e+00 +8.1507028117957798e+00 +0.0000000000000000e+00 +8.9999996091056396e+00 -2.9446980066361744e-02 -5.6523783129458605e-01 +5.6335894557680019e-03
9.0999999999999801e+00 +8.1506514795655693e+00 +0.0000000000000000e+00 +9.0999995959305195e+00 -2.9447001672504091e-02 -5.6523818251468372e-01 +5.6336704911190650e-03
9.1999999999999797e+00 +8.1505995801308000e+00 +0.0000000000000000e+00 +9.1999995824626293e+00 -2.9447021621363423e-02 -5.6523853257507550e-01 +5.6337514005960947e-03
9.2999999999999794e+00 +8.1505471134878498e+00 +0.0000000000000000e+00 +9.2999995686987500e+00 -2.9447039615710855e-02 -5.6523888080723372e-01 +5.6338320972338235e-03
9.3999999999999808e+00 +8.1504940796366991e+00 +0.0000000000000000e+00 +9.3999995546356701e+00 -2.9447055358370430e-02 -5.6523922654269232e-01 +5.6339124940530672e-03
9.4999999999999805e+00 +8.1504404785773694e+00 +0.0000000000000000e+00 +9.4999995402701707e+00 -2.9447068552222008e-02 -5.6523956911307627e-01 +5.6339925040606734e-03
9.5999999999999801e+00 +8.1503863103171206e+00 +0.0000000000000000e+00 +9.5999995255990296e+00 -2.9447078900199895e-02 -5.6523990785004907e-01 +5.6340720402486260e-03
9.6999999999999797e+00 +8.1503315748450404e+00 +0.0000000000000000e+00 +9.6999995106190298e+00 -2.9447086105305005e-02 -5.6524024208550938e-01 +5.6341510155957291e-03
9.7999999999999794e+00 +8.1502762721684103e+00 +0.0000000000000000e+00 +9.7999994953269702e+00 -2.9447089870591088e-02 -5.6524057115131399e-01 +5.6342293430643991e-03
9.8999999999999808e+00 +8.1502204022835905e+00 +0.0000000000000000e+00 +9.8999994797196091e+00 -2.9447089899178523e-02 -5.6524089437950320e-01 +5.6343069356026296e-03
9.9999999999999805e+00 +8.1501639651905897e+00 +0.0000000000000000e+00 +9.9999994637937508e+00 -2.9447085894249703e-02 -5.6524121110219205e-01 +5.6343837061425253e-03
1.0100000000000000e+01 +8.1501069608966592e+00 +0.0000000000000000e+00 +1.0099999447546200e+01 -2.9447077762453904e-02 -5.6524152096600233e-01 +5.6344595907122479e-03
1.0199999999999999e+01 +8.1500493893909205e+00 +0.0000000000000000e+00 +1.0199999430973600e+01 -2.9447066224127419e-02 -5.6524182487558505e-01 +5.6345346177869371e-03
1.0300000000000001e+01 +8.1499912506769796e+00 +0.0000000000000000e+00 +1.0299999414073000e+01 -2.9447052203024786e-02 -5.6524212404983698e-01 +5.6346088389652429e-03
1.0400000000000000e+01 +8.1499325447584905e+00 +0.0000000000000000e+00 +1.0399999396840901e+01 -2.9447036622908609e-02 -5.6524241970751987e-01 +5.6346823058600285e-03
1.0500000000000000e+01 +8.1498732716317992e+00 +0.0000000000000000e+00 +1.0499999379274200e+01 -2.9447020407552756e-02 -5.6524271306731388e-01 +5.6347550700993716e-03
1.0600000000000000e+01 +8.1498134313005703e+00 +0.0000000000000000e+00 +1.0599999361369800e+01 -2.9447004480736262e-02 -5.6524300534770089e-01 +5.6348271833258105e-03
1.0699999999999999e+01 +8.1497530237611500e+00 +0.0000000000000000e+00 +1.0699999343124301e+01 -2.9446989766249498e-02 -5.6524329776707227e-01 +5.6348986971979150e-03
1.0800000000000001e+01 +8.1496920490171796e+00 +0.0000000000000000e+00 +1.0799999324534600e+01 -2.9446977187888128e-02 -5.6524359154361392e-01 +5.6349696633895396e-03
1.0900000000000000e+01 +8.1496305070650106e+00 +0.0000000000000000e+00 +1.0899999305597399e+01 -2.9446967669459291e-02 -5.6524388789541469e-01 +5.6350401335913845e-03
1.1000000000000000e+01 +8.1495683979046607e+00 +0.0000000000000000e+00 +1.0999999286309500e+01 -2.9446962134777020e-02 -5.6524418804037635e-01 +5.6351101595105415e-03
1.1100000000000000e+01 +8.1495057215361193e+00 +0.0000000000000000e+00 +1.1099999266667700e+01 -2.9446961507663912e-02 -5.6524449319624104e-01 +5.6351797928711990e-03
1.1199999999999999e+01 +8.1494424779630208e+00 +0.0000000000000000e+00 +1.1199999246668799e+01 -2.9446966711949563e-02 -5.6524480458055670e-01 +5.6352490854147423e-03
1.1300000000000001e+01 +8.1493786671817396e+00 +0.0000000000000000e+00 +1.1299999226309600e+01 -2.9446978671475277e-02 -5.6524512341075839e-01 +5.6353180889010543e-03
1.1400000000000000e+01 +8.1493142891922599e+00 +0.0000000000000000e+00 +1.1399999205586900e+01 -2.9446998310089498e-02 -5.6524545090408118e-01 +5.6353868551080426e-03
1.1500000000000000e+01 +8.1492493440018698e+00 +0.0000000000000000e+00 +1.1499999184497300e+01 -2.9447026551646355e-02 -5.6524578827752603e-01 +5.6354554358317641e-03
1.1600000000000000e+01 +8.1491838315996592e+00 +0.0000000000000000e+00 +1.1599999163037801e+01 -2.9447064320016394e-02 -5.6524613674805491e-01 +5.6355238828888583e-03
1.1699999999999999e+01 +8.1491177519928897e+00 +0.0000000000000000e+00 +1.1699999141205099e+01 -2.9447112539071407e-02 -5.6524649753230460e-01 +5.6355922481140614e-03
1.1800000000000001e+01 +8.1490511051779304e+00 +0.0000000000000000e+00 +1.1799999118996000e+01 -2.9447172132696594e-02 -5.6524687184680789e-01 +5.6356605833629333e-03
