# multipoles
# s[mm] polynom_b[n=0][T/m^n] polynom_b[n=1][T/m^n] polynom_b[n=2][T/m^n] polynom_b[n=3][T/m^n] polynom_b[n=4][T/m^n] polynom_b[n=5][T/m^n] polynom_b[n=6][T/m^n] 
+0.0000000000000000e+00 -5.3664574218085659e-01 +7.3478938888095939e+00 -7.9827658807827195e-01 -1.2755808489167711e+01 +6.2161263350875734e+03 -2.1074581696445911e+05 -3.9983893050989218e+07 
+1.0000000000000001e-01 -5.3664570078382301e-01 +7.3478522357738685e+00 -7.9455179831098821e-01 -1.1848571842458453e+01 +6.1595272308580879e+03 -2.1553543025392949e+05 -3.9770664908977710e+07 
+2.0000000000000001e-01 -5.3664565335933578e-01 +7.3478089509693296e+00 -7.9126350533369350e-01 -1.0921010987722875e+01 +6.1059139299676508e+03 -2.2039353803104040e+05 -3.9557575235428095e+07 
+3.0000000000000004e-01 -5.3664560063306188e-01 +7.3477644566620492e+00 -7.8837380996620809e-01 -9.9803521516495852e+00 +6.0548463055196753e+03 -2.2528808253026905e+05 -3.9343466104718223e+07 
+4.0000000000000002e-01 -5.3664554333067849e-01 +7.3477191751244488e+00 -7.8584481124781547e-01 -9.0338217148979325e+00 +6.0058841936387771e+03 -2.3018700522640653e+05 -3.9127179408146255e+07 
+5.0000000000000000e-01 -5.3664548217786212e-01 +7.3476735286261805e+00 -7.8363860841400079e-01 -8.0886459553587304e+00 +5.9585874351975899e+03 -2.3505824829053695e+05 -3.8907557062724277e+07 
+5.9999999999999998e-01 -5.3664541790028553e-01 +7.3476279394497155e+00 -7.8171730107173110e-01 -7.1520514937538628e+00 +5.9125158783888028e+03 -2.3986975202225192e+05 -3.8683441022678226e+07 
+6.9999999999999996e-01 -5.3664535122363877e-01 +7.3475828298707420e+00 -7.8004298694787255e-01 -6.2312647348783630e+00 +5.8672293370331872e+03 -2.4458945804065684e+05 -3.8453673080834903e+07 
+7.9999999999999993e-01 -5.3664528287361324e-01 +7.3475386221686607e+00 -7.7857776397841250e-01 -5.3335121655781288e+00 +5.8222876331028419e+03 -2.4918530757863613e+05 -3.8217095081470288e+07 
+8.9999999999999991e-01 -5.3664521357591755e-01 +7.3474957386274573e+00 -7.7728372825755299e-01 -4.4660203887904908e+00 +5.7772505539267513e+03 -2.5362524124553142e+05 -3.7972548703155227e+07 
+9.9999999999999989e-01 -5.3664514405627017e-01 +7.3474546015257660e+00 -7.7612297516309181e-01 -3.6360158327216845e+00 +5.7316778791722327e+03 -2.5787720071434506e+05 -3.7718875604147457e+07 
+1.0999999999999999e+00 -5.3664507504041270e-01 +7.3474156331469569e+00 -7.7505759857554357e-01 -2.8507250413246217e+00 +5.6851293676277273e+03 -2.6190912703186186e+05 -3.7454917361561686e+07 
+1.2000000000000000e+00 -5.3664500725411379e-01 +7.3473792557753228e+00 -7.7404968927226925e-01 -2.1173745761938005e+00 +5.6371647226262185e+03 -2.6568896115368640e+05 -3.7179515297154956e+07 
+1.3000000000000000e+00 -5.3664494142314834e-01 +7.3473458916834176e+00 -7.7306133892784590e-01 -1.4431906421308616e+00 +5.5873436748203594e+03 -2.6918464610765496e+05 -3.6891510887633994e+07 
+1.4000000000000001e+00 -5.3664487827333440e-01 +7.3473159631565430e+00 -7.7205463458793466e-01 -8.3539979659201880e-01 +5.5352258738214559e+03 -2.7236412289620558e+05 -3.6589745242029078e+07 
+1.5000000000000002e+00 -5.3664481853049606e-01 +7.3472898924692362e+00 -7.7099166415215914e-01 -3.0122828175493299e-01 +5.4803709949814884e+03 -2.7519533430496999e+05 -3.6273059613214426e+07 
+1.6000000000000003e+00 -5.3664476292052488e-01 +7.3472681018970842e+00 -7.6983450899775419e-01 +1.5209764882718424e-01 +5.4223386028540008e+03 -2.7764622305000946e+05 -3.5940294759597227e+07 
+1.7000000000000004e+00 -5.3664471216932308e-01 +7.3472510137082256e+00 -7.6854525013376673e-01 +5.1735195868321571e-01 +5.3606882625650551e+03 -2.7968473304519599e+05 -3.5590291460268952e+07 
+1.8000000000000005e+00 -5.3664466700282398e-01 +7.3472390501720142e+00 -7.6708596732996071e-01 +7.8730858794980707e-01 +5.2949795322421651e+03 -2.8127880803170695e+05 -3.5221890500714801e+07 
+1.9000000000000006e+00 -5.3664462814702596e-01 +7.3472326335520286e+00 -7.6541873377810210e-01 +9.5474164579994658e-01 +5.2247718560378053e+03 -2.8239639264474704e+05 -3.4833932150333717e+07 
+2.0000000000000004e+00 -5.3664459632794970e-01 +7.3472321861050629e+00 -7.6350562243652187e-01 +1.0124254412356175e+00 +5.1496246911607477e+03 -2.8300543260096572e+05 -3.4425256783395633e+07 
+2.1000000000000005e+00 -5.3664457216849293e-01 +7.3472380061109126e+00 -7.6131587220562302e-01 +9.5506512717502667e-01 +5.0692178944223078e+03 -2.8308191976545419e+05 -3.3995144594504803e+07 
+2.2000000000000006e+00 -5.3664455587637261e-01 +7.3472498960821566e+00 -7.5884607773962165e-01 +7.8509016459967684e-01 +4.9836942664808785e+03 -2.8263423483851005e+05 -3.3544562816867445e+07 
+2.3000000000000007e+00 -5.3664454755480406e-01 +7.3472675346043026e+00 -7.5609935062916944e-01 +5.0686125014001282e-01 +4.8933077775108668e+03 -2.8167890583178517e+05 -3.3074882689997409e+07 
+2.4000000000000008e+00 -5.3664454730702538e-01 +7.3472906002633138e+00 -7.5307879926644272e-01 +1.2473905313685719e-01 +4.7983123378405617e+03 -2.8023246054998878e+05 -3.2587475175202496e+07 
+2.5000000000000009e+00 -5.3664455523627874e-01 +7.3473187716409916e+00 -7.4978753127034015e-01 -3.5691566727882945e-01 +4.6989618428542472e+03 -2.7831142722890369e+05 -3.2083711167065416e+07 
+2.6000000000000010e+00 -5.3664457144580380e-01 +7.3473517273180606e+00 -7.4622865434741925e-01 -9.3374215020430817e-01 +4.5955101902882689e+03 -2.7593233403561276e+05 -3.1564961578387197e+07 
+2.7000000000000011e+00 -5.3664459603884396e-01 +7.3473891458715359e+00 -7.4240527486504626e-01 -1.6013795680982252e+00 +4.4882112502308146e+03 -2.7311170940816210e+05 -3.1032597190957416e+07 
+2.8000000000000012e+00 -5.3664462911864330e-01 +7.3474307058783639e+00 -7.3832049853814574e-01 -2.3554671195925088e+00 +4.3773188801828346e+03 -2.6986608155741630e+05 -3.0487988734253492e+07 
+2.9000000000000012e+00 -5.3664467078844857e-01 +7.3474760859103343e+00 -7.3397742969966340e-01 -3.1916439079842354e+00 +4.2630869053111246e+03 -2.6621197910917504e+05 -2.9932506773071006e+07 
+3.0000000000000013e+00 -5.3664472115147521e-01 +7.3475249645377154e+00 -7.2937917596835344e-01 -4.1055490266947068e+00 +4.1457692139617957e+03 -2.6216593065965880e+05 -2.9367522184278887e+07 
+3.1000000000000014e+00 -5.3664478031097440e-01 +7.3475770203309132e+00 -7.2452883860104356e-01 -5.0928216228307894e+00 +4.0256195640019246e+03 -2.5774446437173139e+05 -2.8794405206859943e+07 
+3.2000000000000015e+00 -5.3664484837013482e-01 +7.3476319318526215e+00 -7.1942952592888831e-01 -6.1491006858443047e+00 +3.9028918466517339e+03 -2.5296410915375495e+05 -2.8214526720644318e+07 
+3.3000000000000016e+00 -5.3664492543217379e-01 +7.3476893776670416e+00 -7.1408434106848928e-01 -7.2700252884000145e+00 +3.7778398472354756e+03 -2.4784139334707981e+05 -2.7629257094658487e+07 
+3.4000000000000017e+00 -5.3664501160028988e-01 +7.3477490363334459e+00 -7.0849638769940815e-01 -8.4512344302695741e+00 +3.6507173532739639e+03 -2.4239284553947620e+05 -2.7039966694081601e+07 
+3.5000000000000018e+00 -5.3664510697765100e-01 +7.3478105864096754e+00 -7.0266877195414135e-01 -9.6883671314254833e+00 +3.5217781946867376e+03 -2.3663499406051045e+05 -2.6448026088398460e+07 
+3.6000000000000019e+00 -5.3664521166741552e-01 +7.3478737064509625e+00 -6.9660459906763839e-01 -1.0977062405123837e+01 +3.3912761750547547e+03 -2.3058436711524945e+05 -2.5854805707793102e+07 
+3.7000000000000020e+00 -5.3664532577273194e-01 +7.3479380750084768e+00 -6.9030697329278601e-01 -1.2312959211898026e+01 +3.2594650684815060e+03 -2.2425749306825022e+05 -2.5261675825514868e+07 
+3.8000000000000020e+00 -5.3664544939670367e-01 +7.3480033706319485e+00 -6.8377900257190460e-01 -1.3691696551730772e+01 +3.1265987112132971e+03 -2.1767089986719712e+05 -2.4670007003661074e+07 
+3.9000000000000021e+00 -5.3664558264244566e-01 +7.3480692718626139e+00 -6.7702379107846555e-01 -1.5108913253410281e+01 +2.9929308577305464e+03 -2.1084111627632365e+05 -2.4081169401000787e+07 
+4.0000000000000018e+00 -5.3664572561301316e-01 +7.3481354572474373e+00 -6.7004444788234618e-01 -1.6560248393275831e+01 +2.8587153442683489e+03 -2.0378466945148169e+05 -2.3496533551043391e+07 
+4.1000000000000014e+00 -5.3664587837216304e-01 +7.3482016222370969e+00 -6.6284877180584589e-01 -1.8041001181922173e+01 +2.7242309107081805e+03 -1.9652140450604272e+05 -2.2917443591984954e+07 
+4.2000000000000011e+00 -5.3664604082170642e-01 +7.3482675286352661e+00 -6.5546445834824019e-01 -1.9544967870219971e+01 +2.5898600460063349e+03 -1.8908531741422252e+05 -2.2345113546657883e+07 
+4.3000000000000007e+00 -5.3664621282177416e-01 +7.3483329544977556e+00 -6.4792445772711516e-01 -2.1065530495257867e+01 +2.4560119171020410e+03 -1.8151417847927549e+05 -2.1780717014337987e+07 
+4.4000000000000004e+00 -5.3664639423244020e-01 +7.3483976778822830e+00 -6.4026172677111015e-01 -2.2596071175014970e+01 +2.3230958103143776e+03 -1.7384575757548722e+05 -2.1225428138684273e+07 
+4.5000000000000000e+00 -5.3664658491373984e-01 +7.3484614768537435e+00 -6.3250922666871001e-01 -2.4129972248660497e+01 +2.1915210870345486e+03 -1.6611782339200779e+05 -2.0680421389891259e+07 
+4.5999999999999996e+00 -5.3664678472569360e-01 +7.3485241294888883e+00 -6.2469991974263450e-01 -2.5660616413892331e+01 +2.0616971227870604e+03 -1.5836814264115840e+05 -2.0146871276769344e+07 
+4.6999999999999993e+00 -5.3664699352827183e-01 +7.3485854138639981e+00 -6.1686677436264126e-01 -2.7181386375152698e+01 +1.9340334024111135e+03 -1.5063448208384484e+05 -1.9625952803062633e+07 
+4.7999999999999989e+00 -5.3664721118139647e-01 +7.3486451080669077e+00 -6.0904276366680543e-01 -2.8685665180546145e+01 +1.8089394887585242e+03 -1.4295460661979619e+05 -1.9118841298157170e+07 
+4.8999999999999986e+00 -5.3664743754494881e-01 +7.3487029901925727e+00 -6.0126086610244955e-01 -3.0166836106904135e+01 +1.6868250423543552e+03 -1.3536627992104180e+05 -1.8626712536632769e+07 
+4.9999999999999982e+00 -5.3664767247877299e-01 +7.3487588383430555e+00 -5.9355406375973507e-01 -3.1618282646497690e+01 +1.5680997817937748e+03 -1.2790726455598953e+05 -1.8150742527018704e+07 
+5.0999999999999979e+00 -5.3664791584268667e-01 +7.3488124306341369e+00 -5.8595534160794616e-01 -3.3033388699961101e+01 +1.4531734723330965e+03 -1.2061532086778928e+05 -1.7692107464283764e+07 
+5.1999999999999975e+00 -5.3664816749640765e-01 +7.3488635451850888e+00 -5.7849769630864811e-01 -3.4405538290176288e+01 +1.3424560902341013e+03 -1.1352820861813784e+05 -1.7251984503752857e+07 
+5.2999999999999972e+00 -5.3664842729965267e-01 +7.3489119601278698e+00 -5.7121412424896456e-01 -3.5728115810872623e+01 +1.2363575995129695e+03 -1.0668368559712092e+05 -1.6831550709718954e+07 
+5.3999999999999968e+00 -5.3664869511207636e-01 +7.3489574536034166e+00 -5.6413762905352938e-01 -3.6994505927112648e+01 +1.1352880909804699e+03 -1.0011950819063895e+05 -1.6431983704278871e+07 
+5.4999999999999964e+00 -5.3664897079325147e-01 +7.3489998037661550e+00 -5.5730122383088543e-01 -3.8198093714242923e+01 +1.0396578247019982e+03 -9.3873430554033112e+04 -1.6054461869781271e+07 
+5.5999999999999961e+00 -5.3664925420272891e-01 +7.3490387887774871e+00 -5.5073792391504761e-01 -3.9332264451846271e+01 +9.4987709234639749e+02 -8.7983205865814016e+04 -1.5700163692502597e+07 
+5.6999999999999957e+00 -5.3664954519997865e-01 +7.3490741868124747e+00 -5.4448075392789019e-01 -4.0390403821655845e+01 +8.6635635172904142e+02 -8.2486585172559280e+04 -1.5370268405864041e+07 
+5.7999999999999954e+00 -5.3664984364441304e-01 +7.3491057760599929e+00 -5.3856274534755222e-01 -4.1365897922382558e+01 +7.8950617922248261e+02 -7.7421317283561293e+04 -1.5065955754910221e+07 
+5.8999999999999950e+00 -5.3665014939539846e-01 +7.3491333347168846e+00 -5.3301693472434442e-01 -4.2252133088012357e+01 +7.1973723667385843e+02 -7.2825149864088380e+04 -1.4788405844216686e+07 
+5.9999999999999947e+00 -5.3665046231223457e-01 +7.3491566409983378e+00 -5.2787636604469523e-01 -4.3042496182892251e+01 +6.5746031323870841e+02 -6.8735827736076375e+04 -1.4538799325628690e+07 
+6.0999999999999943e+00 -5.3665078214681916e-01 +7.3491755356637842e+00 -5.2316830734411868e-01 -4.3731990724309220e+01 +6.0300157071764852e+02 -6.5181578697092460e+04 -1.4318097739867806e+07 
+6.1999999999999940e+00 -5.3665110823870432e-01 +7.3491901031863494e+00 -5.1889699479129625e-01 -4.4322189898855143e+01 +5.5636566185045501e+02 -6.2151155038654557e+04 -1.4126536986260835e+07 
+6.2999999999999936e+00 -5.3665143982872843e-01 +7.3492004874991474e+00 -5.1506089923795406e-01 -4.4816341291043301e+01 +5.1748117693998506e+02 -5.9623038101738224e+04 -1.3964211840988243e+07 
+6.3999999999999932e+00 -5.3665177615775583e-01 +7.3492068325380817e+00 -5.1165848755033283e-01 -4.5217692529615363e+01 +4.8627661875257292e+02 -5.7575708841825661e+04 -1.3831216646273499e+07 
+6.4999999999999929e+00 -5.3665211646664646e-01 +7.3492092822358064e+00 -5.0868822821124671e-01 -4.5529491098727391e+01 +4.6268052097281958e+02 -5.5987648979627833e+04 -1.3727645903986352e+07 
+6.5999999999999925e+00 -5.3665245999631783e-01 +7.3492079805252670e+00 -5.0614858135819063e-01 -4.5754984435423182e+01 +4.4662124386776259e+02 -5.4837340437040555e+04 -1.3653593264270525e+07 
+6.6999999999999922e+00 -5.3665280598766485e-01 +7.3492030713343146e+00 -5.0403801006237503e-01 -4.5897419776149277e+01 +4.3802719458784350e+02 -5.4103266216240547e+04 -1.3609152587816404e+07 
+6.7999999999999918e+00 -5.3665315368162259e-01 +7.3491946985948013e+00 -5.0235497275339969e-01 -4.5960044410096522e+01 +4.3682668945597851e+02 -5.3763908939432455e+04 -1.3594417312134478e+07 
+6.8999999999999915e+00 -5.3665350231913722e-01 +7.3491830062326793e+00 -5.0109792606866388e-01 -4.5946105400415362e+01 +4.4294799558351019e+02 -5.3797752435978247e+04 -1.3609480610552905e+07 
+6.9999999999999911e+00 -5.3665385114120157e-01 +7.3491681381740017e+00 -5.0026532094359388e-01 -4.5858849745422560e+01 +4.5631926685284071e+02 -5.4183280831797114e+04 -1.3654435121718496e+07 
+7.0999999999999908e+00 -5.3665419938879044e-01 +7.3491502383401803e+00 -4.9985561029448539e-01 -4.5701524238230220e+01 +4.7686868434096567e+02 -5.4898979358933699e+04 -1.3729373600487061e+07 
+7.1999999999999904e+00 -5.3665454630294429e-01 +7.3491294506557345e+00 -4.9986723925941801e-01 -4.5477375696886220e+01 +5.0452427301018889e+02 -5.5923333000099425e+04 -1.3834388051401507e+07 
+7.2999999999999901e+00 -5.3665489112471776e-01 +7.3491059190376626e+00 -5.0029865074791613e-01 -4.5189650650395379e+01 +5.3921400490005681e+02 -5.7234828303174676e+04 -1.3969570215696162e+07 
+7.3999999999999897e+00 -5.3665523309517060e-01 +7.3490797874017915e+00 -5.0114828741385375e-01 -4.4841595513545052e+01 +5.8086583934116447e+02 -5.8811952395368426e+04 -1.4135011769935952e+07 
+7.4999999999999893e+00 -5.3665557145543141e-01 +7.3490511996642844e+00 -5.0241458315832899e-01 -4.4436456635837182e+01 +6.2940755849748257e+02 -6.0633192666110357e+04 -1.4330803535847457e+07 
+7.5999999999999890e+00 -5.3665590544662989e-01 +7.3490202997344145e+00 -5.0409597163186670e-01 -4.3977480089287326e+01 +6.8476692990992524e+02 -6.2677037995091981e+04 -1.4557036257388471e+07 
+7.6999999999999886e+00 -5.3665623430993281e-01 +7.3489872315193079e+00 -5.0619088250101729e-01 -4.3467911796027032e+01 +7.4687163883875860e+02 -6.4921978031317187e+04 -1.4813800287632329e+07 
+7.7999999999999883e+00 -5.3665655728654216e-01 +7.3489521389264834e+00 -5.0869774048608807e-01 -4.2910997605223336e+01 +8.1564926176709776e+02 -6.7346502723612110e+04 -1.5101185441040372e+07 
+7.8999999999999879e+00 -5.3665687361770631e-01 +7.3489151658561376e+00 -5.1161496481624580e-01 -4.2309983062351179e+01 +8.9102726405939416e+02 -6.9929103669583448e+04 -1.5419281006361932e+07 
+7.9999999999999876e+00 -5.3665718254469785e-01 +7.3488764562060886e+00 -5.1494097196595878e-01 -4.1668113564289001e+01 +9.7293304667117127e+02 -7.2648273313616024e+04 -1.5768175963990817e+07 
+8.0999999999999872e+00 -5.3665748358233434e-01 +7.3488361677476846e+00 -5.1866834483790747e-01 -4.0988722801539573e+01 +1.0611754877191845e+03 -7.5484494119767784e+04 -1.6147319868056079e+07 
+8.1999999999999869e+00 -5.3665777732564846e-01 +7.3487945194755211e+00 -5.2276910541540722e-01 -4.0275246040749252e+01 +1.1551325649765304e+03 -7.8428245333639468e+04 -1.6553681274854762e+07 
+8.2999999999999865e+00 -5.3665806463620980e-01 +7.3487517471283237e+00 -5.2721085574788684e-01 -3.9531074833104128e+01 +1.2540846368311672e+03 -8.1473103796296302e+04 -1.6983621279040758e+07 
+8.3999999999999861e+00 -5.3665834637566023e-01 +7.3487080864453942e+00 -5.3196119271730691e-01 -3.8759600605547774e+01 +1.3573119901370135e+03 -8.4612647659562528e+04 -1.7433500660153884e+07 
+8.4999999999999858e+00 -5.3665862340561765e-01 +7.3486637731598918e+00 -5.3698771983533344e-01 -3.7964214483878465e+01 +1.4640950715955457e+03 -8.7840457290184408e+04 -1.7899681015874274e+07 
+8.5999999999999854e+00 -5.3665889658778476e-01 +7.3486190430037466e+00 -5.4225803457589550e-01 -3.7148307461941023e+01 +1.5737142517592374e+03 -9.1150114222837889e+04 -1.8378523647979960e+07 
+8.6999999999999851e+00 -5.3665916678387948e-01 +7.3485741317024607e+00 -5.4773973609357252e-01 -3.6315270215125061e+01 +1.6854499649931693e+03 -9.4535202347138140e+04 -1.8866390210705958e+07 
+8.7999999999999847e+00 -5.3665943485565404e-01 +7.3485292749812849e+00 -5.5340042388382038e-01 -3.5468493301807179e+01 +1.7985826924641576e+03 -9.7989306679744011e+04 -1.9359642650332190e+07 
+8.8999999999999844e+00 -5.3665970166490073e-01 +7.3484847085616192e+00 -5.5920769703703155e-01 -3.4611367045800876e+01 +1.9123929473059354e+03 -1.0150601409315730e+05 -1.9854643132511511e+07 
+8.9999999999999840e+00 -5.3665996807346406e-01 +7.3484406681583163e+00 -5.6512915238876371e-01 -3.3747281456363098e+01 +2.0261612384228190e+03 -1.0507891378056323e+05 -2.0347753866240572e+07 
+9.0999999999999837e+00 -5.3666023494321680e-01 +7.3483973894841528e+00 -5.7113238780004982e-01 -3.2879626348505532e+01 +2.1391681344295475e+03 -1.0870159659767167e+05 -2.0835337410736192e+07 
+9.1999999999999833e+00 -5.3666050313607105e-01 +7.3483551082492662e+00 -5.7718500157681563e-01 -3.2011791342523360e+01 +2.2506942573511647e+03 -1.1236765502532074e+05 -2.1313756656414472e+07 
+9.2999999999999829e+00 -5.3666077351399133e-01 +7.3483140601563557e+00 -5.8325458985390055e-01 -3.1147165698805317e+01 +2.3600202295863251e+03 -1.1607068419747740e+05 -2.1779374564612683e+07 
+9.3999999999999826e+00 -5.3666104693898320e-01 +7.3482744809070724e+00 -5.8930874879682527e-01 -3.0289138513300944e+01 +2.4664267182129220e+03 -1.1980428075409887e+05 -2.2228554382173441e+07 
+9.4999999999999822e+00 -5.3666132427309787e-01 +7.3482366061956128e+00 -5.9531507446033560e-01 -2.9441098536314136e+01 +2.5691944375020475e+03 -1.2356204387947223e+05 -2.2657659666554697e+07 
+9.5999999999999819e+00 -5.3666160637842331e-01 +7.3482006717148103e+00 -6.0124116262699379e-01 -2.8606434324705113e+01 +2.6676041364947228e+03 -1.2733757449023033e+05 -2.3063054201228242e+07 
+9.6999999999999815e+00 -5.3666189411710874e-01 +7.3481669131503216e+00 -6.0705460818669665e-01 -2.7788534087372181e+01 +2.7609366039274132e+03 -1.3112447610641716e+05 -2.3441102061234690e+07 
+9.7999999999999812e+00 -5.3666218835134771e-01 +7.3481355661850083e+00 -6.1272300477211672e-01 -2.6990785808790953e+01 +2.8484726470624150e+03 -1.3491635414036768e+05 -2.3788167475947667e+07 
+9.8999999999999808e+00 -5.3666248994336818e-01 +7.3481068664938061e+00 -6.1821394805005681e-01 -2.6216577086163497e+01 +2.9294931644182266e+03 -1.3870681688508650e+05 -2.4100615198236104e+07 
+9.9999999999999805e+00 -5.3666279975546671e-01 +7.3480810497509514e+00 -6.2349503114239346e-01 -2.5469295365390504e+01 +3.0032790609659814e+03 -1.4248947373778161e+05 -2.4374810075558007e+07 
+1.0099999999999980e+01 -5.3666311835630220e-01 +7.3480582878375085e+00 -6.2854923481594382e-01 -2.4751610716094188e+01 +3.0694316680911738e+03 -1.4625803051803951e+05 -2.4608641907853436e+07 
