# field on trajectory
# s[mm] rx[mm] ry[mm] rz[mm] bx[T] by[T] bz[T]
0.0000000000000000e+00 +8.1530000000000094e+00 +0.0000000000000000e+00 +0.0000000000000000e+00 -2.8971919355836043e-02 -5.3653616786176639e-01 +5.3102949305727483e-03
1.0000000000000001e-01 +8.1529997159377707e+00 +0.0000000000000000e+00 +1.0008006405070299e-01 -2.8972018078921188e-02 -5.3653619168857025e-01 +5.3103278172589542e-03
2.0000000000000001e-01 +8.1529988637557800e+00 +0.0000000000000000e+00 +2.0016012809818201e-01 -2.8972117048815627e-02 -5.3653622188961347e-01 +5.3103627399010847e-03
2.9999999999999999e-01 +8.1529974434524792e+00 +0.0000000000000000e+00 +3.0024019213920999e-01 -2.8972216297155608e-02 -5.3653625695129348e-01 +5.3103997013385666e-03
4.0000000000000002e-01 +8.1529954550242092e+00 +0.0000000000000000e+00 +4.0032025617056399e-01 -2.8972315855587190e-02 -5.3653629536002401e-01 +5.3104387044115428e-03
5.0000000000000000e-01 +8.1529928984782600e+00 +0.0000000000000000e+00 +5.0040032018901703e-01 -2.8972415755758665e-02 -5.3653633560214187e-01 +5.3104797519599335e-03
5.9999999999999998e-01 +8.1529897738146193e+00 +0.0000000000000000e+00 +6.0048038419134497e-01 -2.8972516029325400e-02 -5.3653637616403871e-01 +5.3105228468248080e-03
6.9999999999999996e-01 +8.1529860810223909e+00 +0.0000000000000000e+00 +7.0056044817432195e-01 -2.8972616707948821e-02 -5.3653641553218767e-01 +5.3105679918486843e-03
8.0000000000000004e-01 +8.1529818201124709e+00 +0.0000000000000000e+00 +8.0064051213472498e-01 -2.8972717823281289e-02 -5.3653645219290369e-01 +5.3106151898731132e-03
9.0000000000000002e-01 +8.1529769910812302e+00 +0.0000000000000000e+00 +9.0072057606932698e-01 -2.8972819406977938e-02 -5.3653648463260872e-01 +5.3106644437414070e-03
1.0000000000000000e+00 +8.1529715939250291e+00 +0.0000000000000000e+00 +1.0008006399749001e+00 -2.8972921490688610e-02 -5.3653651133772606e-01 +5.3107157562975850e-03
1.1000000000000001e+00 +8.1529656286511507e+00 +0.0000000000000000e+00 +1.1008807038482300e+00 -2.8973024106051203e-02 -5.3653653079459873e-01 +5.3107691303855772e-03
1.2000000000000000e+00 +8.1529590952522994e+00 +0.0000000000000000e+00 +1.2009607676860801e+00 -2.8973127284699286e-02 -5.3653654148967711e-01 +5.3108245688511515e-03
1.3000000000000000e+00 +8.1529519937357708e+00 +0.0000000000000000e+00 +1.3010408314852300e+00 -2.8973231058248356e-02 -5.3653654190930422e-01 +5.3108820745397601e-03
1.3999999999999999e+00 +8.1529443240979198e+00 +0.0000000000000000e+00 +1.4011208952424601e+00 -2.8973335458303332e-02 -5.3653653053990225e-01 +5.3109416502984614e-03
1.5000000000000000e+00 +8.1529360863350995e+00 +0.0000000000000000e+00 +1.5012009589545301e+00 -2.8973440516452089e-02 -5.3653650586789314e-01 +5.3110032989751380e-03
1.6000000000000001e+00 +8.1529272804509691e+00 +0.0000000000000000e+00 +1.6012810226182299e+00 -2.8973546264260054e-02 -5.3653646637964381e-01 +5.3110670234179742e-03
1.7000000000000000e+00 +8.1529179064491508e+00 +0.0000000000000000e+00 +1.7013610862303301e+00 -2.8973652733270822e-02 -5.3653641056151991e-01 +5.3111328264760166e-03
1.8000000000000000e+00 +8.1529079643223703e+00 +0.0000000000000000e+00 +1.8014411497875999e+00 -2.8973759955007974e-02 -5.3653633689996516e-01 +5.3112007110000048e-03
1.8999999999999999e+00 +8.1528974540779000e+00 +0.0000000000000000e+00 +1.9015212132868200e+00 -2.8973867960962789e-02 -5.3653624388131416e-01 +5.3112706798405188e-03
2.0000000000000000e+00 +8.1528863757084800e+00 +0.0000000000000000e+00 +2.0016012767247702e+00 -2.8973976782603279e-02 -5.3653612999200939e-01 +5.3113427358500971e-03
2.1000000000000001e+00 +8.1528747292177304e+00 +0.0000000000000000e+00 +2.1016813400982199e+00 -2.8974086466759648e-02 -5.3653599443837563e-01 +5.3114168689769245e-03
2.2000000000000002e+00 +8.1528625146056601e+00 +0.0000000000000000e+00 +2.2017614034039301e+00 -2.8974197118945413e-02 -5.3653583917169678e-01 +5.3114930199706064e-03
2.2999999999999998e+00 +8.1528497318759001e+00 +0.0000000000000000e+00 +2.3018414666387002e+00 -2.8974308858653756e-02 -5.3653566679729159e-01 +5.3115711178573170e-03
2.3999999999999999e+00 +8.1528363810211903e+00 +0.0000000000000000e+00 +2.4019215297993002e+00 -2.8974421805378018e-02 -5.3653547992055139e-01 +5.3116510916641196e-03
2.5000000000000000e+00 +8.1528224620451493e+00 +0.0000000000000000e+00 +2.5020015928824901e+00 -2.8974536078604264e-02 -5.3653528114678040e-01 +5.3117328704172777e-03
2.6000000000000001e+00 +8.1528079749477893e+00 +0.0000000000000000e+00 +2.6020816558850601e+00 -2.8974651797817972e-02 -5.3653507308129933e-01 +5.3118163831432580e-03
2.7000000000000002e+00 +8.1527929197291105e+00 +0.0000000000000000e+00 +2.7021617188037701e+00 -2.8974769082503685e-02 -5.3653485832942127e-01 +5.3119015588683847e-03
2.7999999999999998e+00 +8.1527772963891003e+00 +0.0000000000000000e+00 +2.8022417816354102e+00 -2.8974888052146142e-02 -5.3653463949644820e-01 +5.3119883266187825e-03
2.8999999999999999e+00 +8.1527611049277802e+00 +0.0000000000000000e+00 +2.9023218443767500e+00 -2.8975008826231226e-02 -5.3653441918767208e-01 +5.3120766154202866e-03
3.0000000000000000e+00 +8.1527443453451305e+00 +0.0000000000000000e+00 +3.0024019070245598e+00 -2.8975131524247147e-02 -5.3653420000837337e-01 +5.3121663542983833e-03
3.1000000000000001e+00 +8.1527270176411495e+00 +0.0000000000000000e+00 +3.1024819695756198e+00 -2.8975256265685419e-02 -5.3653398456382018e-01 +5.3122574722781332e-03
3.2000000000000002e+00 +8.1527091218158603e+00 +0.0000000000000000e+00 +3.2025620320267101e+00 -2.8975383170041960e-02 -5.3653377545926839e-01 +5.3123498983841033e-03
3.2999999999999998e+00 +8.1526906578692397e+00 +0.0000000000000000e+00 +3.3026420943745900e+00 -2.8975512356818157e-02 -5.3653357529996037e-01 +5.3124435616402977e-03
3.3999999999999999e+00 +8.1526716258013003e+00 +0.0000000000000000e+00 +3.4027221566160502e+00 -2.8975643945521896e-02 -5.3653338669112449e-01 +5.3125383910700699e-03
3.5000000000000000e+00 +8.1526520256120403e+00 +0.0000000000000000e+00 +3.5028022187478500e+00 -2.8975778055668675e-02 -5.3653321223797457e-01 +5.3126343156960762e-03
3.6000000000000001e+00 +8.1526318572978198e+00 +0.0000000000000000e+00 +3.6028822807667802e+00 -2.8975914806784055e-02 -5.3653305454573530e-01 +5.3127312645404523e-03
3.7000000000000002e+00 +8.1526111208659096e+00 +0.0000000000000000e+00 +3.7029623426696099e+00 -2.8976054318399076e-02 -5.3653291621953636e-01 +5.3128291666236747e-03
3.7999999999999998e+00 +8.1525898163126804e+00 +0.0000000000000000e+00 +3.8030424044531101e+00 -2.8976196710059746e-02 -5.3653279986456903e-01 +5.3129279509661039e-03
3.8999999999999999e+00 +8.1525679436344909e+00 +0.0000000000000000e+00 +3.9031224661140600e+00 -2.8976342101323976e-02 -5.3653270808600884e-01 +5.3130275465871077e-03
4.0000000000000000e+00 +8.1525455028386205e+00 +0.0000000000000000e+00 +4.0032025276492398e+00 -2.8976490611754488e-02 -5.3653264348891083e-01 +5.3131278825044237e-03
4.0999999999999996e+00 +8.1525224939177896e+00 +0.0000000000000000e+00 +4.1032825890554099e+00 -2.8976642233100081e-02 -5.3653260795478408e-01 +5.3132288962753097e-03
4.2000000000000002e+00 +8.1524989168792708e+00 +0.0000000000000000e+00 +4.2033626503293604e+00 -2.8976796492540969e-02 -5.3653260073514397e-01 +5.3133305564903874e-03
4.2999999999999998e+00 +8.1524747717157897e+00 +0.0000000000000000e+00 +4.3034427114678504e+00 -2.8976952811778790e-02 -5.3653262048435613e-01 +5.3134328387899471e-03
4.4000000000000004e+00 +8.1524500584346207e+00 +0.0000000000000000e+00 +4.4035227724676700e+00 -2.8977110612535228e-02 -5.3653266585668036e-01 +5.3135357188137953e-03
4.5000000000000000e+00 +8.1524247770285001e+00 +0.0000000000000000e+00 +4.5036028333255800e+00 -2.8977269316564854e-02 -5.3653273550648239e-01 +5.3136391722034418e-03
4.5999999999999996e+00 +8.1523989275046898e+00 +0.0000000000000000e+00 +4.6036828940383696e+00 -2.8977428345645335e-02 -5.3653282808802227e-01 +5.3137431745999891e-03
4.7000000000000002e+00 +8.1523725098559208e+00 +0.0000000000000000e+00 +4.7037629546028104e+00 -2.8977587121590286e-02 -5.3653294225566817e-01 +5.3138477016463261e-03
4.7999999999999998e+00 +8.1523455240894709e+00 +0.0000000000000000e+00 +4.8038430150156701e+00 -2.8977745066239520e-02 -5.3653307666368222e-01 +5.3139527289850028e-03
4.9000000000000004e+00 +8.1523179701980606e+00 +0.0000000000000000e+00 +4.9039230752737302e+00 -2.8977901601471887e-02 -5.3653322996643649e-01 +5.3140582322604175e-03
5.0000000000000000e+00 +8.1522898481889605e+00 +0.0000000000000000e+00 +5.0040031353737602e+00 -2.8978056149195443e-02 -5.3653340081819767e-01 +5.3141641871167064e-03
5.0999999999999996e+00 +8.1522611580549000e+00 +0.0000000000000000e+00 +5.1040831953125396e+00 -2.8978208131360407e-02 -5.3653358787334304e-01 +5.3142705691999383e-03
5.2000000000000002e+00 +8.1522318997995207e+00 +0.0000000000000000e+00 +5.2041632550868497e+00 -2.8978356969950696e-02 -5.3653378978617261e-01 +5.3143773541562567e-03
5.2999999999999998e+00 +8.1522020734228100e+00 +0.0000000000000000e+00 +5.3042433146934496e+00 -2.8978502086991199e-02 -5.3653400521101757e-01 +5.3144845176329959e-03
5.4000000000000004e+00 +8.1521716789247893e+00 +0.0000000000000000e+00 +5.4043233741291203e+00 -2.8978642904547793e-02 -5.3653423280221268e-01 +5.3145920352784476e-03
5.5000000000000000e+00 +8.1521407163090807e+00 +0.0000000000000000e+00 +5.5044034333906504e+00 -2.8978778844727587e-02 -5.3653447121407138e-01 +5.3146998827416298e-03
5.5999999999999996e+00 +8.1521091855684098e+00 +0.0000000000000000e+00 +5.6044834924747899e+00 -2.8978909329686067e-02 -5.3653471910099260e-01 +5.3148080356734059e-03
5.7000000000000002e+00 +8.1520770867064094e+00 +0.0000000000000000e+00 +5.7045635513783299e+00 -2.8979033781620114e-02 -5.3653497511730053e-01 +5.3149164697248921e-03
5.7999999999999998e+00 +8.1520444197231008e+00 +0.0000000000000000e+00 +5.8046436100980499e+00 -2.8979151622775232e-02 -5.3653523791735225e-01 +5.3150251605485789e-03
5.9000000000000004e+00 +8.1520111846184609e+00 +0.0000000000000000e+00 +5.9047236686307096e+00 -2.8979262275445661e-02 -5.3653550615551249e-01 +5.3151340837980978e-03
5.9999999999999902e+00 +8.1519773813925003e+00 +0.0000000000000000e+00 +6.0048037269731003e+00 -2.8979365161992735e-02 -5.3653577848617207e-01 +5.3152432151308453e-03
6.0999999999999899e+00 +8.1519430100452208e+00 +0.0000000000000000e+00 +6.1048837851219799e+00 -2.8979459879584564e-02 -5.3653605377450064e-01 +5.3153525571090522e-03
6.1999999999999904e+00 +8.1519080705766100e+00 +0.0000000000000000e+00 +6.2049638430741396e+00 -2.8979546630894411e-02 -5.3653633161595315e-01 +5.3154622055110110e-03
6.2999999999999901e+00 +8.1518725629866804e+00 +0.0000000000000000e+00 +6.3050439008263499e+00 -2.8979625749596383e-02 -5.3653661176404666e-01 +5.3155722762892156e-03
6.3999999999999897e+00 +8.1518364872754301e+00 +0.0000000000000000e+00 +6.4051239583753699e+00 -2.8979697569308405e-02 -5.3653689397230975e-01 +5.3156828853954596e-03
6.4999999999999902e+00 +8.1517998434428591e+00 +0.0000000000000000e+00 +6.5052040157180002e+00 -2.8979762423589371e-02 -5.3653717799427947e-01 +5.3157941487807919e-03
6.5999999999999899e+00 +8.1517626314889604e+00 +0.0000000000000000e+00 +6.6052840728510001e+00 -2.8979820645936377e-02 -5.3653746358350440e-01 +5.3159061823954724e-03
6.6999999999999904e+00 +8.1517248514137499e+00 +0.0000000000000000e+00 +6.7053641297711399e+00 -2.8979872569781958e-02 -5.3653775049354357e-01 +5.3160191021889422e-03
6.7999999999999901e+00 +8.1516865032135701e+00 +0.0000000000000000e+00 +6.8054441864752100e+00 -2.8979918528492701e-02 -5.3653803847799542e-01 +5.3161330241100436e-03
6.8999999999999897e+00 +8.1516475868957095e+00 +0.0000000000000000e+00 +6.9055242429599701e+00 -2.8979958855360727e-02 -5.3653832729038842e-01 +5.3162480641058924e-03
6.9999999999999902e+00 +8.1516081024565192e+00 +0.0000000000000000e+00 +7.0056042992222096e+00 -2.8979993883609528e-02 -5.3653861668434544e-01 +5.3163643381234759e-03
7.0999999999999899e+00 +8.1515680498960101e+00 +0.0000000000000000e+00 +7.1056843552586999e+00 -2.8980023946385415e-02 -5.3653890641347479e-01 +5.3164819621085158e-03
7.1999999999999904e+00 +8.1515274292141804e+00 +0.0000000000000000e+00 +7.2057644110662000e+00 -2.8980049376756207e-02 -5.3653919623139879e-01 +5.3166010520056999e-03
7.2999999999999901e+00 +8.1514862404073902e+00 +0.0000000000000000e+00 +7.3058444666415099e+00 -2.8980070507709798e-02 -5.3653948589177980e-01 +5.3167217237589173e-03
7.3999999999999897e+00 +8.1514444834829192e+00 +0.0000000000000000e+00 +7.4059245219813796e+00 -2.8980087672145764e-02 -5.3653977514821516e-01 +5.3168440933101264e-03
7.4999999999999902e+00 +8.1514021584334806e+00 +0.0000000000000000e+00 +7.5060045770826100e+00 -2.8980101202882511e-02 -5.3654006375442398e-01 +5.3169682766012203e-03
7.5999999999999899e+00 +8.1513592652663593e+00 +0.0000000000000000e+00 +7.6060846319419504e+00 -2.8980111432643042e-02 -5.3654035146403412e-01 +5.3170943895718111e-03
7.6999999999999904e+00 +8.1513158039779192e+00 +0.0000000000000000e+00 +7.7061646865561997e+00 -2.8980118694062227e-02 -5.3654063803076901e-01 +5.3172225481610789e-03
7.7999999999999901e+00 +8.1512717745681602e+00 +0.0000000000000000e+00 +7.8062447409221098e+00 -2.8980123319678273e-02 -5.3654092320834201e-01 +5.3173528683066670e-03
7.8999999999999897e+00 +8.1512271770334301e+00 +0.0000000000000000e+00 +7.9063247950364799e+00 -2.8980125641932784e-02 -5.3654120675051054e-01 +5.3174854659451629e-03
7.9999999999999902e+00 +8.1511820113773901e+00 +0.0000000000000000e+00 +8.0064048488960609e+00 -2.8980125993172692e-02 -5.3654148841102722e-01 +5.3176204569953343e-03
8.0999999999999908e+00 +8.1511362776036496e+00 +0.0000000000000000e+00 +8.1064849024976393e+00 -2.8980124746724872e-02 -5.3654176808656995e-01 +5.3177578842839605e-03
8.1999999999999904e+00 +8.1510899757086008e+00 +0.0000000000000000e+00 +8.2065649558379903e+00 -2.8980122411600483e-02 -5.3654204614604306e-01 +5.3178975491528372e-03
8.2999999999999901e+00 +8.1510431056885899e+00 +0.0000000000000000e+00 +8.3066450089139003e+00 -2.8980119524829765e-02 -5.3654232305574889e-01 +5.3180392031388270e-03
8.3999999999999897e+00 +8.1509956675508892e+00 +0.0000000000000000e+00 +8.4067250617221205e+00 -2.8980116623475514e-02 -5.3654259928193504e-01 +5.3181825977752124e-03
8.4999999999999893e+00 +8.1509476612882299e+00 +0.0000000000000000e+00 +8.5068051142594392e+00 -2.8980114244644611e-02 -5.3654287529098188e-01 +5.3183274845935010e-03
8.5999999999999908e+00 +8.1508990869078808e+00 +0.0000000000000000e+00 +8.6068851665226305e+00 -2.8980112925478193e-02 -5.3654315154918886e-01 +5.3184736151211847e-03
8.6999999999999904e+00 +8.1508499444025801e+00 +0.0000000000000000e+00 +8.7069652185084596e+00 -2.8980113203164640e-02 -5.3654342852298964e-01 +5.3186207408838287e-03
8.7999999999999794e+00 +8.1508002337759500e+00 +0.0000000000000000e+00 +8.8070452702137203e+00 -2.8980115614931138e-02 -5.3654370667876561e-01 +5.3187686134031111e-03
8.8999999999999808e+00 +8.1507499550316407e+00 +0.0000000000000000e+00 +8.9071253216351796e+00 -2.8980120698049575e-02 -5.3654398648292589e-01 +5.3189169841975272e-03
8.9999999999999805e+00 +8.1506991081623692e+00 +0.0000000000000000e+00 +9.0072053727696098e+00 -2.8980128989842365e-02 -5.3654426840199010e-01 +5.3190656047831675e-03
9.0999999999999801e+00 +8.1506476931717806e+00 +0.0000000000000000e+00 +9.1072854236137797e+00 -2.8980141027675443e-02 -5.3654455290242575e-01 +5.3192142266719816e-03
9.1999999999999797e+00 +8.1505957100635005e+00 +0.0000000000000000e+00 +9.2073654741644795e+00 -2.8980157348964166e-02 -5.3654484045073236e-01 +5.3193626013725258e-03
9.2999999999999794e+00 +8.1505431588302599e+00 +0.0000000000000000e+00 +9.3074455244184708e+00 -2.8980178491179100e-02 -5.3654513151351924e-01 +5.3195104803906998e-03
9.3999999999999808e+00 +8.1504900394757005e+00 +0.0000000000000000e+00 +9.4075255743725297e+00 -2.8980204991839040e-02 -5.3654542655734783e-01 +5.3196576152280397e-03
9.4999999999999805e+00 +8.1504363520034495e+00 +0.0000000000000000e+00 +9.5076056240234408e+00 -2.8980237388516929e-02 -5.3654572604881179e-01 +5.3198037573824663e-03
9.5999999999999801e+00 +8.1503820964062506e+00 +0.0000000000000000e+00 +9.6076856733679694e+00 -2.8980276218845604e-02 -5.3654603045461791e-01 +5.3199486583490052e-03
9.6999999999999797e+00 +8.1503272726913600e+00 +0.0000000000000000e+00 +9.7077657224029004e+00 -2.8980322020509434e-02 -5.3654634024139969e-01 +5.3200920696178178e-03
9.7999999999999794e+00 +8.1502718808515109e+00 +0.0000000000000000e+00 +9.8078457711250007e+00 -2.8980375331257274e-02 -5.3654665587593187e-01 +5.3202337426763047e-03
9.8999999999999808e+00 +8.1502159208903304e+00 +0.0000000000000000e+00 +9.9079258195310498e+00 -2.8980436688894069e-02 -5.3654697782494354e-01 +5.3203734290071117e-03
9.9999999999999805e+00 +8.1501593928078400e+00 +0.0000000000000000e+00 +1.0008005867617801e+01 -2.8980506631185697e-02 -5.3654730655514715e-01 +5.3205108801293484e-03
1.0100000000000000e+01 +8.1501022966040200e+00 +0.0000000000000000e+00 +1.0108085915382100e+01 -2.8980585444370720e-02 -5.3654764233893026e-01 +5.3206459463101949e-03
1.0199999999999999e+01 +8.1500446322825209e+00 +0.0000000000000000e+00 +1.0208165962820599e+01 -2.8980672621910106e-02 -5.3654798483618449e-01 +5.3207787890053558e-03
1.0300000000000001e+01 +8.1499863998360507e+00 +0.0000000000000000e+00 +1.0308246009930199e+01 -2.8980767501510012e-02 -5.3654833358651477e-01 +5.3209096308155547e-03
1.0400000000000000e+01 +8.1499275992682705e+00 +0.0000000000000000e+00 +1.0408326056707599e+01 -2.8980869420888917e-02 -5.3654868812941447e-01 +5.3210386943403675e-03
1.0500000000000000e+01 +8.1498682305791608e+00 +0.0000000000000000e+00 +1.0508406103149600e+01 -2.8980977717783685e-02 -5.3654904800437275e-01 +5.3211662021793475e-03
1.0600000000000000e+01 +8.1498082937723701e+00 +0.0000000000000000e+00 +1.0608486149253000e+01 -2.8981091729947051e-02 -5.3654941275082113e-01 +5.3212923769314783e-03
1.0699999999999999e+01 +8.1497477888406102e+00 +0.0000000000000000e+00 +1.0708566195014500e+01 -2.8981210795153683e-02 -5.3654978190823699e-01 +5.3214174411962871e-03
1.0800000000000001e+01 +8.1496867157875403e+00 +0.0000000000000000e+00 +1.0808646240430900e+01 -2.8981334251192002e-02 -5.3655015501598435e-01 +5.3215416175722259e-03
1.0900000000000000e+01 +8.1496250746131391e+00 +0.0000000000000000e+00 +1.0908726285499000e+01 -2.8981461435870243e-02 -5.3655053161341948e-01 +5.3216651286577691e-03
1.1000000000000000e+01 +8.1495628653174208e+00 +0.0000000000000000e+00 +1.1008806330215601e+01 -2.8981591687015383e-02 -5.3655091123986176e-01 +5.3217881970511636e-03
1.1100000000000000e+01 +8.1495000879040198e+00 +0.0000000000000000e+00 +1.1108886374577500e+01 -2.8981724342472082e-02 -5.3655129343456776e-01 +5.3219110453501632e-03
1.1199999999999999e+01 +8.1494367423620098e+00 +0.0000000000000000e+00 +1.1208966418581401e+01 -2.8981858740110122e-02 -5.3655167773686319e-01 +5.3220338961534105e-03
1.1300000000000001e+01 +8.1493728287059604e+00 +0.0000000000000000e+00 +1.1309046462224000e+01 -2.8981994217809198e-02 -5.3655206368584718e-01 +5.3221569720574525e-03
1.1400000000000000e+01 +8.1493083469249505e+00 +0.0000000000000000e+00 +1.1409126505502300e+01 -2.8982130113479117e-02 -5.3655245082076675e-01 +5.3222804956605599e-03
1.1500000000000000e+01 +8.1492432970226201e+00 +0.0000000000000000e+00 +1.1509206548412800e+01 -2.8982265765044566e-02 -5.3655283868072168e-01 +5.3224046895597619e-03
1.1600000000000000e+01 +8.1491776789989707e+00 +0.0000000000000000e+00 +1.1609286590952600e+01 -2.8982400510452554e-02 -5.3655322680479522e-01 +5.3225297763522025e-03
1.1699999999999999e+01 +8.1491114928576298e+00 +0.0000000000000000e+00 +1.1709366633118099e+01 -2.8982533687669936e-02 -5.3655361473200325e-01 +5.3226559786346186e-03
1.1800000000000001e+01 +8.1490447385876905e+00 +0.0000000000000000e+00 +1.1809446674906400e+01 -2.8982664634690923e-02 -5.3655400200142334e-01 +5.3227835190047231e-03
