# multipoles
# s[mm] polynom_b[n=0][T/m^n] polynom_b[n=1][T/m^n] polynom_b[n=2][T/m^n] polynom_b[n=3][T/m^n] polynom_b[n=4][T/m^n] polynom_b[n=5][T/m^n] polynom_b[n=6][T/m^n] 
+0.0000000000000000e+00 -5.5249188478616928e-01 +7.5972289953785568e+00 -8.3709989587871389e-02 -1.7377887587346596e+01 -9.3529233586635328e+03 -8.2548835178626527e+04 +2.8824951459139626e+07 
+1.0000000000000001e-01 -5.5249189830020529e-01 +7.5972063967170218e+00 -7.8217221621477401e-02 -1.6462579982376276e+01 -9.4824060029505054e+03 -8.7138456104606186e+04 +2.9427664021059554e+07 
+2.0000000000000001e-01 -5.5249192424652493e-01 +7.5971771550280955e+00 -7.1286970716009826e-02 -1.5413515879956748e+01 -9.6388550756627992e+03 -9.2375437402350770e+04 +3.0158859124846105e+07 
+2.9999999999999999e-01 -5.5249196321456917e-01 +7.5971418909568600e+00 -6.3163988179030864e-02 -1.4240809845838879e+01 -9.8172554954097086e+03 -9.8233158068742210e+04 +3.0994570618137907e+07 
+4.0000000000000002e-01 -5.5249201579374840e-01 +7.5971012251427874e+00 -5.4093022978022383e-02 -1.2954576239305380e+01 -1.0012592239101787e+04 -1.0468499861225266e+05 +3.1910832684480123e+07 
+5.0000000000000000e-01 -5.5249208257349092e-01 +7.5970557782206427e+00 -4.4318827965501788e-02 -1.1564929269560794e+01 -1.0219850215295348e+04 -1.1170434058569456e+05 +3.2883679209902316e+07 
+5.9999999999999998e-01 -5.5249216414320923e-01 +7.5970061708259298e+00 -3.4086154687342961e-02 -1.0081983184512564e+01 -1.0434014354957699e+04 -1.1926456536683835e+05 +3.3889144185772382e+07 
+6.9999999999999996e-01 -5.5249226109223304e-01 +7.5969530235899816e+00 -2.3639762127474481e-02 -8.5158521521243546e+00 -1.0650069434214431e+04 -1.2733905474184659e+05 +3.4903260824691601e+07 
+8.0000000000000004e-01 -5.5249237400994766e-01 +7.5968969571519160e+00 -1.3224410297108228e-02 -6.8766506385826167e+00 -1.0863000192216416e+04 -1.3590118857142780e+05 +3.5902062104186691e+07 
+9.0000000000000002e-01 -5.5249250348567591e-01 +7.5968385921528254e+00 -3.0848653653733032e-03 -5.1744932602329028e+00 -1.1067791221169711e+04 -1.4492434555598701e+05 +3.6861580199194394e+07 
+1.0000000000000000e+00 -5.5249265010868442e-01 +7.5967785492438971e+00 +6.5341005589896646e-03 -3.4194950494041558e+00 -1.1259426963933010e+04 -1.5438190156507140e+05 +3.7757846445273370e+07 
+1.1000000000000001e+00 -5.5249281386403115e-01 +7.5967174864177576e+00 +1.5432538898219843e-02 -1.6245273654671417e+00 -1.1433960202892580e+04 -1.6422000762743180e+05 +3.8572274121076554e+07 
+1.2000000000000000e+00 -5.5249299235348881e-01 +7.5966561971823108e+00 +2.3594355769051185e-02 +1.8679833062755316e-01 -1.1591795974155792e+04 -1.7427740350968431e+05 +3.9308102837749451e+07 
+1.3000000000000000e+00 -5.5249318259155755e-01 +7.5965955054443093e+00 +3.1050581465379194e-02 +1.9882567997117573e+00 -1.1734447477113852e+04 -1.8436634376362033e+05 +3.9974105176835842e+07 
+1.3999999999999999e+00 -5.5249338159283135e-01 +7.5965362351158081e+00 +3.7832248144959682e-02 +3.7536226850902983e+00 -1.1863427955846340e+04 -1.9429908243272282e+05 +4.0579053944103837e+07 
+1.5000000000000000e+00 -5.5249358637183443e-01 +7.5964792101125287e+00 +4.3970397695106016e-02 +5.4566705768858235e+00 -1.1980250855948874e+04 -2.0388787348453503e+05 +4.1131722934469633e+07 
+1.6000000000000001e+00 -5.5249379394332698e-01 +7.5964252543569240e+00 +4.9496086032052550e-02 +7.0711749391483005e+00 -1.2086429914066732e+04 -2.1294497043607172e+05 +4.1640887379044838e+07 
+1.7000000000000000e+00 -5.5249400132208049e-01 +7.5963751917738600e+00 +5.4440378788770082e-02 +8.5709102508398729e+00 -1.2183479075274585e+04 -2.2128262723279459e+05 +4.2115323551257119e+07 
+1.8000000000000000e+00 -5.5249420552297424e-01 +7.5963298462952036e+00 +5.8834357484309603e-02 +9.9296508979224321e+00 -1.2272912620810832e+04 -2.2871309770119406e+05 +4.2563809401498042e+07 
+1.8999999999999999e+00 -5.5249440356096990e-01 +7.5962900418579036e+00 +6.2709119877507449e-02 +1.1121171240433608e+01 -1.2356245178330408e+04 -2.3504863597919510e+05 +4.2995124616159670e+07 
+2.0000000000000000e+00 -5.5249459245122290e-01 +7.5962566024045088e+00 +6.6095783898865737e-02 +1.2119245615968811e+01 -1.2434991801374683e+04 -2.4010149661144678e+05 +4.3418051005776502e+07 
+2.1000000000000001e+00 -5.5249477039763040e-01 +7.5962302279105174e+00 +6.9038160183832742e-02 +1.2902530995358966e+01 -1.2510328509492860e+04 -2.4372806667027163e+05 +4.3838250536917336e+07 
+2.2000000000000002e+00 -5.5249494028029034e-01 +7.5962111499815359e+00 +7.1621280106441101e-02 +1.3468360777917631e+01 -1.2581913400995791e+04 -2.4595578216068956e+05 +4.4248374379556641e+07 
+2.2999999999999998e+00 -5.5249510612876063e-01 +7.5961994900515322e+00 +7.3938075512399379e-02 +1.3818524840183883e+01 -1.2648984014067666e+04 -2.4685349970347542e+05 +4.4637683834013999e+07 
+2.3999999999999999e+00 -5.5249527197250381e-01 +7.5961953695362423e+00 +7.6081463734537863e-02 +1.3954813261027985e+01 -1.2710777506162924e+04 -2.4649007530672898e+05 +4.4995438022043817e+07 
+2.5000000000000000e+00 -5.5249544184089727e-01 +7.5961989098352820e+00 +7.8144347837596620e-02 +1.3879016221408342e+01 -1.2766530646628964e+04 -2.4493436356996707e+05 +4.5310893812668301e+07 
+2.6000000000000001e+00 -5.5249561976335382e-01 +7.5962102323258858e+00 +8.0219621289561172e-02 +1.3592924155038542e+01 -1.2815479898007099e+04 -2.4225521837026044e+05 +4.5573306180048190e+07 
+2.7000000000000002e+00 -5.5249580976916357e-01 +7.5962294583628767e+00 +8.2400157557846160e-02 +1.3098327703731094e+01 -1.2856861204327004e+04 -2.3852149237985851e+05 +4.5771927153342508e+07 
+2.7999999999999998e+00 -5.5249601588751296e-01 +7.5962567092758491e+00 +8.4778811751149402e-02 +1.2397017776101757e+01 -1.2889910010811544e+04 -2.3380203725721664e+05 +4.5896005871250518e+07 
+2.8999999999999999e+00 -5.5249624214756277e-01 +7.5962921063696660e+00 +8.7448419219218809e-02 +1.1490785482490029e+01 -1.2913861225136196e+04 -2.2816570301895050e+05 +4.5934788357890256e+07 
+3.0000000000000000e+00 -5.5249649257836453e-01 +7.5963357709173307e+00 +9.0501795088819531e-02 +1.0381422303701134e+01 -1.2927949200012030e+04 -2.2168133876946251e+05 +4.5877517416505925e+07 
+3.1000000000000001e+00 -5.5249677016860854e-01 +7.5963875399832812e+00 +9.4015895786382406e-02 +9.0758127117764698e+00 -1.2932029193745226e+04 -2.1442714397713853e+05 +4.5719254896946341e+07 
+3.2000000000000002e+00 -5.5249707385603208e-01 +7.5964460602689341e+00 +9.8025861376696430e-02 +7.6034668654650224e+00 -1.2928867986288487e+04 -2.0653447062278588e+05 +4.5480146787116326e+07 
+3.2999999999999998e+00 -5.5249740159331417e-01 +7.5965096670350398e+00 +1.0256187340036604e-01 +6.0001242803378636e+00 -1.2922070519319759e+04 -1.9815190271817593e+05 +4.5187084111182198e+07 
+3.3999999999999999e+00 -5.5249775133305301e-01 +7.5965766955772205e+00 +1.0765411625198362e-01 +4.3015237468872050e+00 -1.2915241921608436e+04 -1.8942802210758036e+05 +4.4866959258340731e+07 
+3.5000000000000000e+00 -5.5249812102787921e-01 +7.5966454812224766e+00 +1.1333278223079112e-01 +2.5434034692146108e+00 -1.2911987617531306e+04 -1.8051140952455497e+05 +4.4546666545499191e+07 
+3.6000000000000001e+00 -5.5249850863034344e-01 +7.5967143593416422e+00 +1.1962806815922239e-01 +7.6150073153875153e-01 -1.2915913276203675e+04 -1.7155064286558490e+05 +4.4253102027014673e+07 
+3.7000000000000002e+00 -5.5249891209288204e-01 +7.5967816653464864e+00 +1.2657017255683517e-01 -1.0084479809331290e+00 -1.2930624771080775e+04 -1.6269429811754706e+05 +4.4013163347851433e+07 
+3.7999999999999998e+00 -5.5249932936798973e-01 +7.5968457346943774e+00 +1.3418930750985236e-01 -2.7307070878394333e+00 -1.2959728419432447e+04 -1.5409094895214913e+05 +4.3853750934345111e+07 
+3.8999999999999999e+00 -5.5249975840799359e-01 +7.5969049028918416e+00 +1.4251568505611262e-01 -4.3695419752944193e+00 -1.3006830735556005e+04 -1.4588916661354830e+05 +4.3801766863973387e+07 
+4.0000000000000000e+00 -5.5250019716529208e-01 +7.5969575054959719e+00 +1.5157953110536948e-01 -5.8892189903028722e+00 -1.3075538710260229e+04 -1.3823752024781608e+05 +4.3884116242412001e+07 
+4.0999999999999996e+00 -5.5250064322491599e-01 +7.5970022195379459e+00 +1.6135387239671545e-01 -7.2605389158853404e+00 -1.3167792746269371e+04 -1.3125686737746099e+05 +4.4117572000191011e+07 
+4.2000000000000002e+00 -5.5250109263721359e-01 +7.5970391520748519e+00 +1.7156404240495698e-01 -8.4833487726775534e+00 -1.3278488200662463e+04 -1.2493648919775515e+05 +4.4476605378276482e+07 
+4.2999999999999998e+00 -5.5250154105118632e-01 +7.5970687844543470e+00 +1.8186845077044184e-01 -9.5655025535905356e+00 -1.3400656365495439e+04 -1.1922750262985664e+05 +4.4924618695941471e+07 
+4.4000000000000004e+00 -5.5250198411584373e-01 +7.5970915980112412e+00 +1.9192551075172731e-01 -1.0514853621553520e+01 -1.3527328616848796e+04 -1.1408102878920840e+05 +4.5425014697899669e+07 
+4.5000000000000000e+00 -5.5250241748023987e-01 +7.5971080740628167e+00 +2.0139364035280125e-01 -1.1339254525081897e+01 -1.3651536441174458e+04 -1.0944819420500951e+05 +4.5941196698346600e+07 
+4.5999999999999996e+00 -5.5250283679344470e-01 +7.5971186939096471e+00 +2.0993126241952703e-01 -1.2046557014844597e+01 -1.3766311438879940e+04 -1.0528013071489653e+05 +4.6436568599812016e+07 
+4.7000000000000002e+00 -5.5250323770463095e-01 +7.5971239388317588e+00 +2.1719680453737125e-01 -1.2644611916431659e+01 -1.3864685319211949e+04 -1.0152797622443375e+05 +4.6874534859574594e+07 
+4.7999999999999998e+00 -5.5250361586298957e-01 +7.5971242900900275e+00 +2.2284869923446532e-01 -1.3141269153476014e+01 -1.3939689907363958e+04 -9.8142874606508340e+04 +4.7218500529694766e+07 
+4.9000000000000004e+00 -5.5250396691775883e-01 +7.5971202289231270e+00 +2.2654538693063617e-01 -1.3544377643596031e+01 -1.3984357198061116e+04 -9.5075976320166257e+04 +4.7431871505093411e+07 
+5.0000000000000000e+00 -5.5250428651825279e-01 +7.5971122365464669e+00 +2.2794530950209108e-01 -1.3861785260484861e+01 -1.3991719236135499e+04 -9.2278438718035133e+04 +4.7478053953436740e+07 
+5.0999999999999996e+00 -5.5250457197821345e-01 +7.5971007694399812e+00 +2.2682520081386731e-01 -1.4099645697117252e+01 -1.3956974392288552e+04 -8.9719671066440511e+04 +4.7330874286367930e+07 
+5.2000000000000002e+00 -5.5250482723029981e-01 +7.5970861478339176e+00 +2.2343043396482676e-01 -1.4255634700554779e+01 -1.3883939273648441e+04 -8.7453458721691626e+04 +4.7005955277812667e+07 
+5.2999999999999998e+00 -5.5250505785368287e-01 +7.5970686483450285e+00 +2.1812270331080874e-01 -1.4324866968866834e+01 -1.3778581187411013e+04 -8.5557697037262231e+04 +4.6529443169746473e+07 
+5.4000000000000004e+00 -5.5250526942746037e-01 +7.5970485475711600e+00 +2.1126368251673847e-01 -1.4302456942209126e+01 -1.3646866931743623e+04 -8.4110281212062837e+04 +4.5927481495244995e+07 
+5.5000000000000000e+00 -5.5250546753059360e-01 +7.5970261220890176e+00 +2.0321501778838558e-01 -1.4183518802157094e+01 -1.3494762642405218e+04 -8.3189105952837024e+04 +4.5226210267205454e+07 
+5.5999999999999996e+00 -5.5250565774200378e-01 +7.5970016484554472e+00 +1.9433833044671128e-01 -1.3963166533293558e+01 -1.3328233846838999e+04 -8.2872065003968586e+04 +4.4451766251331948e+07 
+5.7000000000000002e+00 -5.5250584564045868e-01 +7.5969754032081305e+00 +1.8499521479760464e-01 -1.3636513952715731e+01 -1.3153245408792709e+04 -8.3237050899007445e+04 +4.3630282661208257e+07 
+5.7999999999999998e+00 -5.5250603680463328e-01 +7.5969476628590975e+00 +1.7554723174052883e-01 -1.3198674550952282e+01 -1.2975761403111972e+04 -8.4361955751912639e+04 +4.2787888553886138e+07 
+5.9000000000000004e+00 -5.5250623681311162e-01 +7.5969187039005517e+00 +1.6635591896634672e-01 -1.2644761675477907e+01 -1.2801745303931353e+04 -8.6324670110419902e+04 +4.1950709709401421e+07 
+5.9999999999999902e+00 -5.5250645124430975e-01 +7.5968888027998638e+00 +1.5778277666066853e-01 -1.1969888480423984e+01 -1.2637159709615615e+04 -8.9203082690254407e+04 +4.1144867341186740e+07 
+6.0999999999999899e+00 -5.5250668451507479e-01 +7.5968583097726956e+00 +1.5009964319389299e-01 -1.1175085294588238e+01 -1.2486593564920759e+04 -9.3026290468903666e+04 +4.0391113165223502e+07 
+6.1999999999999904e+00 -5.5250693651910854e-01 +7.5968278816059627e+00 +1.4323413280732303e-01 -1.0285012191944501e+01 -1.2349254779863826e+04 -9.7631010714139149e+04 +3.9688502236825809e+07 
+6.2999999999999901e+00 -5.5250720604946002e-01 +7.5967982551117013e+00 +1.3703129449695312e-01 -9.3302730728495966e+00 -1.2223032519639168e+04 -1.0280614185584927e+05 +3.9030606874730840e+07 
+6.3999999999999897e+00 -5.5250749189958859e-01 +7.5967701671624672e+00 +1.3133622978377724e-01 -8.3414737747967074e+00 -1.2105817080664527e+04 -1.0834057102147500e+05 +3.8411005189662650e+07 
+6.4999999999999902e+00 -5.5250779286315788e-01 +7.5967443546938700e+00 +1.2599409575265880e-01 -7.3492221253597600e+00 -1.1995499964882392e+04 -1.1402317387729292e+05 +3.7823281494503945e+07 
+6.5999999999999899e+00 -5.5250810773430592e-01 +7.5967215547068383e+00 +1.2085010445634156e-01 -6.3841279968196183e+00 -1.1889973871666067e+04 -1.1964281436520621e+05 +3.7261026276510052e+07 
+6.6999999999999904e+00 -5.5250843530753313e-01 +7.5967025042696319e+00 +1.1574953049298618e-01 -5.4768033756912873e+00 -1.1787132849635640e+04 -1.2498834429718881e+05 +3.6717836943051152e+07 
+6.7999999999999901e+00 -5.5250877437758783e-01 +7.5966879405190717e+00 +1.1053770737967918e-01 -4.6578624119030412e+00 -1.1684872232036414e+04 -1.2984860305839505e+05 +3.6187317526365459e+07 
+6.8999999999999897e+00 -5.5250912373974959e-01 +7.5966786006652267e+00 +1.0506003233937991e-01 -3.9579215436173651e+00 -1.1581088734753928e+04 -1.3401241694069948e+05 +3.5663079172755368e+07 
+6.9999999999999902e+00 -5.5250948218970930e-01 +7.5966752219913909e+00 +9.9161973097516481e-02 -3.4075993931772732e+00 -1.1473680580331347e+04 -1.3726860035317240e+05 +3.5138740680729292e+07 
+7.0999999999999899e+00 -5.5250984843271522e-01 +7.5966782972582108e+00 +9.2727613512821785e-02 -3.0287540621709050e+00 -1.1361051600999825e+04 -1.3946850512251389e+05 +3.4609402625957698e+07 
+7.1999999999999904e+00 -5.5251022062040511e-01 +7.5966873164161122e+00 +8.5780008439162475e-02 -2.8087819748205169e+00 -1.1243488498188852e+04 -1.4070763261178852e+05 +3.4076293944573931e+07 
+7.2999999999999901e+00 -5.5251059671875147e-01 +7.5967015118387922e+00 +7.8373270808628270e-02 -2.7265563971781592e+00 -1.1121714618288022e+04 -1.4114155735767123e+05 +3.3542222176670946e+07 
+7.3999999999999897e+00 -5.5251097469326282e-01 +7.5967201158594300e+00 +7.0561445747801946e-02 -2.7609491542263327e+00 -1.0996451754141548e+04 -1.4092586447309065e+05 +3.3009986534924589e+07 
+7.4999999999999902e+00 -5.5251135250898809e-01 +7.5967423607730984e+00 +6.2398511015714926e-02 -2.8908307278133392e+00 -1.0868420145332357e+04 -1.4021614860789850e+05 +3.2482377835488256e+07 
+7.5999999999999899e+00 -5.5251172813059524e-01 +7.5967674788339234e+00 +5.3938375626793530e-02 -3.0950701540648717e+00 -1.0738338436887389e+04 -1.3916801463983179e+05 +3.1962178248484973e+07 
+7.6999999999999904e+00 -5.5251209952224145e-01 +7.5967947022544600e+00 +4.5234876746373526e-02 -3.3525350127780564e+00 -1.0606923613165885e+04 -1.3793707774523908e+05 +3.1452160958478037e+07 
+7.7999999999999901e+00 -5.5251246464768755e-01 +7.5968232632012054e+00 +3.6341776983352468e-02 -3.6420912728047052e+00 -1.0474890939321665e+04 -1.3667896439945826e+05 +3.0955089854236633e+07 
+7.8999999999999897e+00 -5.5251282147007408e-01 +7.5968523937971906e+00 +2.7312759329099254e-02 -3.9426033693441971e+00 -1.0342953850063563e+04 -1.3554931196226639e+05 +3.0473718950860295e+07 
+7.9999999999999902e+00 -5.5251316795209715e-01 +7.5968813261117516e+00 +1.8201427863206065e-02 -4.2329339829888681e+00 -1.0211823965888529e+04 -1.3470376981762171e+05 +3.0010792471444219e+07 
+8.0999999999999908e+00 -5.5251350322208448e-01 +7.5969093963511494e+00 +9.0950944763458878e-03 -4.4968057452364816e+00 -1.0082783049296377e+04 -1.3425726780961710e+05 +2.9571236884783249e+07 
+8.1999999999999904e+00 -5.5251383134876053e-01 +7.5969363880686203e+00 +2.4946385309557932e-04 -4.7373466109795244e+00 -9.9599289290514989e+03 -1.3415836414254591e+05 +2.9170429186805986e+07 
+8.2999999999999901e+00 -5.5251415770423384e-01 +7.5969622037062203e+00 -8.0295351616814364e-03 -4.9625445541259641e+00 -9.8481939649704509e+03 -1.3431273787896818e+05 +2.8826758473864961e+07 
+8.3999999999999897e+00 -5.5251448766086730e-01 +7.5969867455564826e+00 -1.5435915837016496e-02 -5.1803825755345043e+00 -9.7525118948116524e+03 -1.3462609678723669e+05 +2.8558621184113838e+07 
+8.4999999999999893e+00 -5.5251482659132922e-01 +7.5970099157690854e+00 -2.1663637050481306e-02 -5.3988387827251394e+00 -9.6778177793402265e+03 -1.3500417848068234e+05 +2.8384420994968545e+07 
+8.5999999999999908e+00 -5.5251517986848253e-01 +7.5970316163355225e+00 -2.6406602522781684e-02 -5.6258859141241606e+00 -9.6290480276740909e+03 -1.3535275323463068e+05 +2.8322568980007768e+07 
+8.6999999999999904e+00 -5.5251555286555265e-01 +7.5970517490923077e+00 -2.9358652787613505e-02 -5.8694914157902254e+00 -9.6111405608352252e+03 -1.3557762356840601e+05 +2.8391484421295471e+07 
+8.7999999999999794e+00 -5.5251595095598793e-01 +7.5970702157128178e+00 -3.0213572062423096e-02 -6.1376171790512712e+00 -9.6290346861675953e+03 -1.3558462581754423e+05 +2.8609594232533891e+07 
+8.8999999999999808e+00 -5.5251637951352395e-01 +7.5970869177042921e+00 -2.8665078774080741e-02 -6.4382194412741427e+00 -9.6876712922071838e+03 -1.3527963071114928e+05 +2.8995333930613242e+07 
+8.9999999999999805e+00 -5.5251684391226596e-01 +7.5971017564053280e+00 -2.4406825184551072e-02 -6.7792486285527591e+00 -9.7919928519520126e+03 -1.3456854319311996e+05 +2.9567147756222863e+07 
+9.0999999999999801e+00 -5.5251734755624482e-01 +7.5971145317378648e+00 -1.7261723912324153e-02 -7.1608451278165930e+00 -9.9448695086188818e+03 -1.3340941556456790e+05 +3.0335479666880630e+07 
+9.1999999999999797e+00 -5.5251788562836812e-01 +7.5971246482254777e+00 -7.6120183475466520e-03 -7.5517696620426991e+00 -1.0140379623577484e+04 -1.3197941020962090e+05 +3.1277186808149308e+07 
+9.2999999999999794e+00 -5.5251845116897536e-01 +7.5971314143966788e+00 +4.0093124178159825e-03 -7.9128371644590336e+00 -1.0370273397024852e+04 -1.3051361399422730e+05 +3.2360349146024838e+07 
+9.3999999999999808e+00 -5.5251903721796491e-01 +7.5971341390419145e+00 +1.7069220210410727e-02 -8.2048708467173661e+00 -1.0626299757498313e+04 -1.2924706414242765e+05 +3.3553040943529557e+07 
+9.4999999999999805e+00 -5.5251963681487326e-01 +7.5971321312271085e+00 +3.1034593789425770e-02 -8.3887028991243184e+00 -1.0900206446282258e+04 -1.2841474233651259e+05 +3.4823330970783852e+07 
+9.5999999999999801e+00 -5.5252024299878288e-01 +7.5971247002927740e+00 +4.5372253329163427e-02 -8.4251744886260234e+00 -1.1183739910772219e+04 -1.2825157464450411e+05 +3.6139281995348521e+07 
+9.6999999999999797e+00 -5.5252084880852315e-01 +7.5971111558697544e+00 +5.9548951579752249e-02 -8.2751362485362154e+00 -1.1468645330339476e+04 -1.2899242856801278e+05 +3.7468950919151045e+07 
+9.7999999999999794e+00 -5.5252144728236741e-01 +7.5970908078805603e+00 +7.3031369407292213e-02 -7.8994483412396441e+00 -1.1746666528138454e+04 -1.3087211259228717e+05 +3.8780388353578374e+07 
+9.8999999999999808e+00 -5.5252203145825984e-01 +7.5970629665519134e+00 +8.5286116536072459e-02 -7.2589808603858543e+00 -1.2009545988197628e+04 -1.3412537372508043e+05 +4.0041638710528277e+07 
+9.9999999999999805e+00 -5.5252259437367479e-01 +7.5970269424176013e+00 +9.5779726879406238e-02 -6.3146139640237973e+00 -1.2249024777227141e+04 -1.3898689878725339e+05 +4.1220739673694655e+07 
+1.0100000000000000e+01 -5.5252313089157257e-01 +7.5969823752129848e+00 +1.0410877099102180e-01 -5.0424154172288409e+00 -1.2458686083735949e+04 -1.4560666241534339e+05 +4.2292410911986910e+07 
