# trajectory
# s[mm] rx[mm] ry[mm] rz[mm] px[rad] py[rad] pz[rad]
0.0000000000000000e+00 +8.1649999999999991e+00 +0.0000000000000000e+00 +0.0000000000000000e+00 +0.0000000000000000e+00 +0.0000000000000000e+00 +1.0000000000000000e+00
-1.0000000000000001e-01 +8.1649997171453830e+00 +0.0000000000000000e+00 -9.9999999999466613e-02 +5.6570924617953005e-06 +0.0000000000000000e+00 +9.9999999998399869e-01
-2.0000000000000001e-01 +8.1649988685814794e+00 +0.0000000000000000e+00 -1.9999999999573298e-01 +1.1314185744000576e-05 +0.0000000000000000e+00 +9.9999999993599464e-01
-3.0000000000000004e-01 +8.1649974543082067e+00 +0.0000000000000000e+00 -2.9999999998559879e-01 +1.6971279833535996e-05 +0.0000000000000000e+00 +9.9999999985598786e-01
-4.0000000000000002e-01 +8.1649954743254867e+00 +0.0000000000000000e+00 -3.9999999996586377e-01 +2.2628374714252419e-05 +0.0000000000000000e+00 +9.9999999974397835e-01
-5.0000000000000000e-01 +8.1649929286332394e+00 +0.0000000000000000e+00 -4.9999999993332767e-01 +2.8285470366931410e-05 +0.0000000000000000e+00 +9.9999999959996611e-01
-5.9999999999999998e-01 +8.1649898172313886e+00 +0.0000000000000000e+00 -5.9999999988479025e-01 +3.3942566769285266e-05 +0.0000000000000000e+00 +9.9999999942395112e-01
-6.9999999999999996e-01 +8.1649861401198613e+00 +0.0000000000000000e+00 -6.9999999981705119e-01 +3.9599663895957033e-05 +0.0000000000000000e+00 +9.9999999921593330e-01
-7.9999999999999993e-01 +8.1649818972985866e+00 +0.0000000000000000e+00 -7.9999999972691016e-01 +4.5256761718520556e-05 +0.0000000000000000e+00 +9.9999999897591274e-01
-8.9999999999999991e-01 +8.1649770887674951e+00 +0.0000000000000000e+00 -8.9999999961116695e-01 +5.0913860205480501e-05 +0.0000000000000000e+00 +9.9999999870388945e-01
-9.9999999999999989e-01 +8.1649717145265246e+00 +0.0000000000000000e+00 -9.9999999946662133e-01 +5.6570959322272413e-05 +0.0000000000000000e+00 +9.9999999839986331e-01
-1.0999999999999999e+00 +8.1649657745756112e+00 +0.0000000000000000e+00 -1.0999999992900729e+00 +6.2228059031262762e-05 +0.0000000000000000e+00 +9.9999999806383433e-01
-1.2000000000000000e+00 +8.1649592689146999e+00 +0.0000000000000000e+00 -1.1999999990783214e+00 +6.7885159291749026e-05 +0.0000000000000000e+00 +9.9999999769580261e-01
-1.3000000000000000e+00 +8.1649521975437356e+00 +0.0000000000000000e+00 -1.2999999988281667e+00 +7.3542260059959686e-05 +0.0000000000000000e+00 +9.9999999729576805e-01
-1.4000000000000001e+00 +8.1649445604626720e+00 +0.0000000000000000e+00 -1.3999999985364084e+00 +7.9199361289054390e-05 +0.0000000000000000e+00 +9.9999999686373064e-01
-1.5000000000000002e+00 +8.1649363576714649e+00 +0.0000000000000000e+00 -1.4999999981998462e+00 +8.4856462929123937e-05 +0.0000000000000000e+00 +9.9999999639969039e-01
-1.6000000000000003e+00 +8.1649275891700750e+00 +0.0000000000000000e+00 -1.5999999978152797e+00 +9.0513564927190428e-05 +0.0000000000000000e+00 +9.9999999590364730e-01
-1.7000000000000004e+00 +8.1649182549584687e+00 +0.0000000000000000e+00 -1.6999999973795088e+00 +9.6170667227207319e-05 +0.0000000000000000e+00 +9.9999999537560136e-01
-1.8000000000000005e+00 +8.1649083550366210e+00 +0.0000000000000000e+00 -1.7999999968893332e+00 +1.0182776977005952e-04 +0.0000000000000000e+00 +9.9999999481555257e-01
-1.9000000000000006e+00 +8.1648978894045090e+00 +0.0000000000000000e+00 -1.8999999963415526e+00 +1.0748487249356350e-04 +0.0000000000000000e+00 +9.9999999422350105e-01
-2.0000000000000004e+00 +8.1648868580621183e+00 +0.0000000000000000e+00 -1.9999999957329666e+00 +1.1314197533246738e-04 +0.0000000000000000e+00 +9.9999999359944669e-01
-2.1000000000000005e+00 +8.1648752610094402e+00 +0.0000000000000000e+00 -2.0999999950603749e+00 +1.1879907821935674e-04 +0.0000000000000000e+00 +9.9999999294338948e-01
-2.2000000000000006e+00 +8.1648630982464745e+00 +0.0000000000000000e+00 -2.1999999943205775e+00 +1.2445618109461722e-04 +0.0000000000000000e+00 +9.9999999225532943e-01
-2.3000000000000007e+00 +8.1648503697732231e+00 +0.0000000000000000e+00 -2.2999999935103741e+00 +1.3011328391639704e-04 +0.0000000000000000e+00 +9.9999999153526664e-01
-2.4000000000000008e+00 +8.1648370755896931e+00 +0.0000000000000000e+00 -2.3999999926265643e+00 +1.3577038666151263e-04 +0.0000000000000000e+00 +9.9999999078320101e-01
-2.5000000000000009e+00 +8.1648232156958933e+00 +0.0000000000000000e+00 -2.4999999916659474e+00 +1.4142748932544850e-04 +0.0000000000000000e+00 +9.9999998999913253e-01
-2.6000000000000010e+00 +8.1648087900918309e+00 +0.0000000000000000e+00 -2.5999999906253239e+00 +1.4708459192235712e-04 +0.0000000000000000e+00 +9.9999998918306132e-01
-2.7000000000000011e+00 +8.1647937987775112e+00 +0.0000000000000000e+00 -2.6999999895014932e+00 +1.5274169448505886e-04 +0.0000000000000000e+00 +9.9999998833498727e-01
-2.8000000000000012e+00 +8.1647782417529342e+00 +0.0000000000000000e+00 -2.7999999882912547e+00 +1.5839879706504181e-04 +0.0000000000000000e+00 +9.9999998745491037e-01
-2.9000000000000012e+00 +8.1647621190180946e+00 +0.0000000000000000e+00 -2.8999999869914084e+00 +1.6405589973246158e-04 +0.0000000000000000e+00 +9.9999998654283073e-01
-3.0000000000000013e+00 +8.1647454305729816e+00 +0.0000000000000000e+00 -2.9999999855987540e+00 +1.6971300257614120e-04 +0.0000000000000000e+00 +9.9999998559874825e-01
-3.1000000000000014e+00 +8.1647281764175705e+00 +0.0000000000000000e+00 -3.0999999841100911e+00 +1.7537010570357089e-04 +0.0000000000000000e+00 +9.9999998462266282e-01
-3.2000000000000015e+00 +8.1647103565518275e+00 +0.0000000000000000e+00 -3.1999999825222196e+00 +1.8102720924090788e-04 +0.0000000000000000e+00 +9.9999998361457454e-01
-3.3000000000000016e+00 +8.1646919709757046e+00 +0.0000000000000000e+00 -3.2999999808319394e+00 +1.8668431333297616e-04 +0.0000000000000000e+00 +9.9999998257448330e-01
-3.4000000000000017e+00 +8.1646730196891379e+00 +0.0000000000000000e+00 -3.3999999790360498e+00 +1.9234141814326630e-04 +0.0000000000000000e+00 +9.9999998150238911e-01
-3.5000000000000018e+00 +8.1646535026920457e+00 +0.0000000000000000e+00 -3.4999999771313504e+00 +1.9799852385393512e-04 +0.0000000000000000e+00 +9.9999998039829197e-01
-3.6000000000000019e+00 +8.1646334199843302e+00 +0.0000000000000000e+00 -3.5999999751146414e+00 +2.0365563066580551e-04 +0.0000000000000000e+00 +9.9999997926219175e-01
-3.7000000000000020e+00 +8.1646127715658690e+00 +0.0000000000000000e+00 -3.6999999729827220e+00 +2.0931273879836604e-04 +0.0000000000000000e+00 +9.9999997809408836e-01
-3.8000000000000020e+00 +8.1645915574365180e+00 +0.0000000000000000e+00 -3.7999999707323924e+00 +2.1496984848977079e-04 +0.0000000000000000e+00 +9.9999997689398179e-01
-3.9000000000000021e+00 +8.1645697775961104e+00 +0.0000000000000000e+00 -3.8999999683604516e+00 +2.2062695999683891e-04 +0.0000000000000000e+00 +9.9999997566187193e-01
-4.0000000000000018e+00 +8.1645474320444489e+00 +0.0000000000000000e+00 -3.9999999658637000e+00 +2.2628407359505441e-04 +0.0000000000000000e+00 +9.9999997439775867e-01
-4.1000000000000014e+00 +8.1645245207813115e+00 +0.0000000000000000e+00 -4.0999999632389370e+00 +2.3194118957700456e-04 +0.0000000000000000e+00 +9.9999997310164190e-01
-4.2000000000000011e+00 +8.1645010438064443e+00 +0.0000000000000000e+00 -4.1999999604829616e+00 +2.3759830823520651e-04 +0.0000000000000000e+00 +9.9999997177352151e-01
-4.3000000000000007e+00 +8.1644770011195664e+00 +0.0000000000000000e+00 -4.2999999575925747e+00 +2.4325542984493425e-04 +0.0000000000000000e+00 +9.9999997041339739e-01
-4.4000000000000004e+00 +8.1644523927203689e+00 +0.0000000000000000e+00 -4.3999999545645752e+00 +2.4891255466265739e-04 +0.0000000000000000e+00 +9.9999996902126953e-01
-4.5000000000000000e+00 +8.1644272186085196e+00 +0.0000000000000000e+00 -4.4999999513957620e+00 +2.5456968292604119e-04 +0.0000000000000000e+00 +9.9999996759713772e-01
-4.5999999999999996e+00 +8.1644014787836614e+00 +0.0000000000000000e+00 -4.5999999480829361e+00 +2.6022681485394659e-04 +0.0000000000000000e+00 +9.9999996614100184e-01
-4.6999999999999993e+00 +8.1643751732454195e+00 +0.0000000000000000e+00 -4.6999999446228964e+00 +2.6588395064643035e-04 +0.0000000000000000e+00 +9.9999996465286178e-01
-4.7999999999999989e+00 +8.1643483019933978e+00 +0.0000000000000000e+00 -4.7999999410124419e+00 +2.7154109048474495e-04 +0.0000000000000000e+00 +9.9999996313271744e-01
-4.8999999999999986e+00 +8.1643208650271824e+00 +0.0000000000000000e+00 -4.8999999372483725e+00 +2.7719823453133878e-04 +0.0000000000000000e+00 +9.9999996158056870e-01
-4.9999999999999982e+00 +8.1642928623463469e+00 +0.0000000000000000e+00 -4.9999999333274880e+00 +2.8285538292985621e-04 +0.0000000000000000e+00 +9.9999995999641544e-01
-5.0999999999999979e+00 +8.1642642939504473e+00 +0.0000000000000000e+00 -5.0999999292465885e+00 +2.8851253580513766e-04 +0.0000000000000000e+00 +9.9999995838025757e-01
-5.1999999999999975e+00 +8.1642351598390324e+00 +0.0000000000000000e+00 -5.1999999250024729e+00 +2.9416969326321961e-04 +0.0000000000000000e+00 +9.9999995673209496e-01
-5.2999999999999972e+00 +8.1642054600116385e+00 +0.0000000000000000e+00 -5.2999999205919410e+00 +2.9982685539133480e-04 +0.0000000000000000e+00 +9.9999995505192751e-01
-5.3999999999999968e+00 +8.1641751944677949e+00 +0.0000000000000000e+00 -5.3999999160117920e+00 +3.0548402225791233e-04 +0.0000000000000000e+00 +9.9999995333975511e-01
-5.4999999999999964e+00 +8.1641443632070256e+00 +0.0000000000000000e+00 -5.4999999112588256e+00 +3.1114119391257769e-04 +0.0000000000000000e+00 +9.9999995159557764e-01
-5.5999999999999961e+00 +8.1641129662288510e+00 +0.0000000000000000e+00 -5.5999999063298409e+00 +3.1679837038615303e-04 +0.0000000000000000e+00 +9.9999994981939511e-01
-5.6999999999999957e+00 +8.1640810035327878e+00 +0.0000000000000000e+00 -5.6999999012216378e+00 +3.2245555169065716e-04 +0.0000000000000000e+00 +9.9999994801120740e-01
-5.7999999999999954e+00 +8.1640484751183529e+00 +0.0000000000000000e+00 -5.7999998959310153e+00 +3.2811273781930574e-04 +0.0000000000000000e+00 +9.9999994617101440e-01
-5.8999999999999950e+00 +8.1640153809850649e+00 +0.0000000000000000e+00 -5.8999998904547732e+00 +3.3376992874651143e-04 +0.0000000000000000e+00 +9.9999994429881600e-01
-5.9999999999999947e+00 +8.1639817211324459e+00 +0.0000000000000000e+00 -5.9999998847897116e+00 +3.3942712442788401e-04 +0.0000000000000000e+00 +9.9999994239461221e-01
-6.0999999999999943e+00 +8.1639474955600235e+00 +0.0000000000000000e+00 -6.0999998789326293e+00 +3.4508432480108767e-04 +0.0000000000000000e+00 +9.9999994045840290e-01
-6.1999999999999940e+00 +8.1639127042673323e+00 +0.0000000000000000e+00 -6.1999998728803254e+00 +3.5074152979526892e-04 +0.0000000000000000e+00 +9.9999993849018798e-01
-6.2999999999999936e+00 +8.1638773472539139e+00 +0.0000000000000000e+00 -6.2999998666295998e+00 +3.5639873934048457e-04 +0.0000000000000000e+00 +9.9999993648996754e-01
-6.3999999999999932e+00 +8.1638414245193154e+00 +0.0000000000000000e+00 -6.3999998601772523e+00 +3.6205595336855881e-04 +0.0000000000000000e+00 +9.9999993445774138e-01
-6.4999999999999929e+00 +8.1638049360630927e+00 +0.0000000000000000e+00 -6.4999998535200811e+00 +3.6771317181308322e-04 +0.0000000000000000e+00 +9.9999993239350959e-01
-6.5999999999999925e+00 +8.1637678818848070e+00 +0.0000000000000000e+00 -6.5999998466548870e+00 +3.7337039460941690e-04 +0.0000000000000000e+00 +9.9999993029727208e-01
-6.6999999999999922e+00 +8.1637302619840266e+00 +0.0000000000000000e+00 -6.6999998395784690e+00 +3.7902762169468639e-04 +0.0000000000000000e+00 +9.9999992816902872e-01
-6.7999999999999918e+00 +8.1636920763603271e+00 +0.0000000000000000e+00 -6.7999998322876261e+00 +3.8468485300778587e-04 +0.0000000000000000e+00 +9.9999992600877952e-01
-6.8999999999999915e+00 +8.1636533250132874e+00 +0.0000000000000000e+00 -6.8999998247791581e+00 +3.9034208848937702e-04 +0.0000000000000000e+00 +9.9999992381652436e-01
-6.9999999999999911e+00 +8.1636140079424937e+00 +0.0000000000000000e+00 -6.9999998170498641e+00 +3.9599932808188925e-04 +0.0000000000000000e+00 +9.9999992159226325e-01
-7.0999999999999908e+00 +8.1635741251475373e+00 +0.0000000000000000e+00 -7.0999998090965439e+00 +4.0165657172951959e-04 +0.0000000000000000e+00 +9.9999991933599619e-01
-7.1999999999999904e+00 +8.1635336766280151e+00 +0.0000000000000000e+00 -7.1999998009159967e+00 +4.0731381937823293e-04 +0.0000000000000000e+00 +9.9999991704772306e-01
-7.2999999999999901e+00 +8.1634926623835309e+00 +0.0000000000000000e+00 -7.2999997925050213e+00 +4.1297107097576193e-04 +0.0000000000000000e+00 +9.9999991472744387e-01
-7.3999999999999897e+00 +8.1634510824136903e+00 +0.0000000000000000e+00 -7.3999997838604177e+00 +4.1862832647160712e-04 +0.0000000000000000e+00 +9.9999991237515851e-01
-7.4999999999999893e+00 +8.1634089367181080e+00 +0.0000000000000000e+00 -7.4999997749789857e+00 +4.2428558581703691e-04 +0.0000000000000000e+00 +9.9999990999086696e-01
-7.5999999999999890e+00 +8.1633662252964001e+00 +0.0000000000000000e+00 -7.5999997658575245e+00 +4.2994284896508784e-04 +0.0000000000000000e+00 +9.9999990757456925e-01
-7.6999999999999886e+00 +8.1633229481481902e+00 +0.0000000000000000e+00 -7.6999997564928329e+00 +4.3560011587056441e-04 +0.0000000000000000e+00 +9.9999990512626524e-01
-7.7999999999999883e+00 +8.1632791052731033e+00 +0.0000000000000000e+00 -7.7999997468817108e+00 +4.4125738649003927e-04 +0.0000000000000000e+00 +9.9999990264595495e-01
-7.8999999999999879e+00 +8.1632346966707701e+00 +0.0000000000000000e+00 -7.8999997370209574e+00 +4.4691466078185330e-04 +0.0000000000000000e+00 +9.9999990013363826e-01
-7.9999999999999876e+00 +8.1631897223408263e+00 +0.0000000000000000e+00 -7.9999997269073715e+00 +4.5257193870611563e-04 +0.0000000000000000e+00 +9.9999989758931518e-01
-8.0999999999999872e+00 +8.1631441822829096e+00 +0.0000000000000000e+00 -8.0999997165377540e+00 +4.5822922022477336e-04 +0.0000000000000000e+00 +9.9999989501298558e-01
-8.1999999999999869e+00 +8.1630980764966630e+00 +0.0000000000000000e+00 -8.1999997059089029e+00 +4.6388650530237703e-04 +0.0000000000000000e+00 +9.9999989240464959e-01
-8.2999999999999865e+00 +8.1630514049817311e+00 +0.0000000000000000e+00 -8.2999996950176183e+00 +4.6954379390684624e-04 +0.0000000000000000e+00 +9.9999988976430698e-01
-8.3999999999999861e+00 +8.1630041677377640e+00 +0.0000000000000000e+00 -8.3999996838606990e+00 +4.7520108600953930e-04 +0.0000000000000000e+00 +9.9999988709195786e-01
-8.4999999999999858e+00 +8.1629563647644137e+00 +0.0000000000000000e+00 -8.4999996724349440e+00 +4.8085838158525327e-04 +0.0000000000000000e+00 +9.9999988438760201e-01
-8.5999999999999854e+00 +8.1629079960613318e+00 +0.0000000000000000e+00 -8.5999996607371525e+00 +4.8651568061222421e-04 +0.0000000000000000e+00 +9.9999988165123954e-01
-8.6999999999999851e+00 +8.1628590616281755e+00 +0.0000000000000000e+00 -8.6999996487641251e+00 +4.9217298307212721e-04 +0.0000000000000000e+00 +9.9999987888287034e-01
-8.7999999999999847e+00 +8.1628095614646021e+00 +0.0000000000000000e+00 -8.7999996365126609e+00 +4.9783028895007643e-04 +0.0000000000000000e+00 +9.9999987608249430e-01
-8.8999999999999844e+00 +8.1627594955702705e+00 +0.0000000000000000e+00 -8.8999996239795571e+00 +5.0348759823462530e-04 +0.0000000000000000e+00 +9.9999987325011142e-01
-8.9999999999999840e+00 +8.1627088639448413e+00 +0.0000000000000000e+00 -8.9999996111616163e+00 +5.0914491091776668e-04 +0.0000000000000000e+00 +9.9999987038572169e-01
-9.0999999999999837e+00 +8.1626576665879735e+00 +0.0000000000000000e+00 -9.0999995980556356e+00 +5.1480222699493280e-04 +0.0000000000000000e+00 +9.9999986748932501e-01
-9.1999999999999833e+00 +8.1626059034993297e+00 +0.0000000000000000e+00 -9.1999995846584142e+00 +5.2045954646499568e-04 +0.0000000000000000e+00 +9.9999986456092138e-01
-9.2999999999999829e+00 +8.1625535746785687e+00 +0.0000000000000000e+00 -9.2999995709667527e+00 +5.2611686933026693e-04 +0.0000000000000000e+00 +9.9999986160051069e-01
-9.3999999999999826e+00 +8.1625006801253512e+00 +0.0000000000000000e+00 -9.3999995569774502e+00 +5.3177419559649814e-04 +0.0000000000000000e+00 +9.9999985860809282e-01
-9.4999999999999822e+00 +8.1624472198393363e+00 +0.0000000000000000e+00 -9.4999995426873056e+00 +5.3743152527288075e-04 +0.0000000000000000e+00 +9.9999985558366777e-01
-9.5999999999999819e+00 +8.1623931938201828e+00 +0.0000000000000000e+00 -9.5999995280931181e+00 +5.4308885837204646e-04 +0.0000000000000000e+00 +9.9999985252723544e-01
-9.6999999999999815e+00 +8.1623386020675479e+00 +0.0000000000000000e+00 -9.6999995131916865e+00 +5.4874619491006717e-04 +0.0000000000000000e+00 +9.9999984943879583e-01
-9.7999999999999812e+00 +8.1622834445810852e+00 +0.0000000000000000e+00 -9.7999994979798100e+00 +5.5440353490645515e-04 +0.0000000000000000e+00 +9.9999984631834882e-01
-9.8999999999999808e+00 +8.1622277213604502e+00 +0.0000000000000000e+00 -9.8999994824542892e+00 +5.6006087838416329e-04 +0.0000000000000000e+00 +9.9999984316589430e-01
-9.9999999999999805e+00 +8.1621714324052910e+00 +0.0000000000000000e+00 -9.9999994666119214e+00 +5.6571822536958518e-04 +0.0000000000000000e+00 +9.9999983998143227e-01
-1.0099999999999980e+01 +8.1621145777152577e+00 +0.0000000000000000e+00 -1.0099999450449507e+01 +5.7137557589262769e-04 +0.0000000000000000e+00 +9.9999983676496262e-01
-1.0199999999999980e+01 +8.1620571572899934e+00 +0.0000000000000000e+00 -1.0199999433963846e+01 +5.7703292998750899e-04 +0.0000000000000000e+00 +9.9999983351648536e-01
-1.0299999999999979e+01 +8.1619991711291391e+00 +0.0000000000000000e+00 -1.0299999417151737e+01 +5.8269028769355623e-04 +0.0000000000000000e+00 +9.9999983023600025e-01
-1.0399999999999979e+01 +8.1619406192323325e+00 +0.0000000000000000e+00 -1.0399999400009978e+01 +5.8834764905527765e-04 +0.0000000000000000e+00 +9.9999982692350731e-01
-1.0499999999999979e+01 +8.1618815015992041e+00 +0.0000000000000000e+00 -1.0499999382535371e+01 +5.9400501412236266e-04 +0.0000000000000000e+00 +9.9999982357900641e-01
-1.0599999999999978e+01 +8.1618218182293827e+00 +0.0000000000000000e+00 -1.0599999364724713e+01 +5.9966238294968124e-04 +0.0000000000000000e+00 +9.9999982020249745e-01
-1.0699999999999978e+01 +8.1617615691224881e+00 +0.0000000000000000e+00 -1.0699999346574804e+01 +6.0531975559728406e-04 +0.0000000000000000e+00 +9.9999981679398031e-01
-1.0799999999999978e+01 +8.1617007542781348e+00 +0.0000000000000000e+00 -1.0799999328082443e+01 +6.1097713213040196e-04 +0.0000000000000000e+00 +9.9999981335345489e-01
-1.0899999999999977e+01 +8.1616393736959303e+00 +0.0000000000000000e+00 -1.0899999309244429e+01 +6.1663451261944561e-04 +0.0000000000000000e+00 +9.9999980988092119e-01
-1.0999999999999977e+01 +8.1615774273754766e+00 +0.0000000000000000e+00 -1.0999999290057561e+01 +6.2229189714000570e-04 +0.0000000000000000e+00 +9.9999980637637897e-01
-1.1099999999999977e+01 +8.1615149153163653e+00 +0.0000000000000000e+00 -1.1099999270518637e+01 +6.2794928577285204e-04 +0.0000000000000000e+00 +9.9999980283982814e-01
-1.1199999999999976e+01 +8.1614518375181824e+00 +0.0000000000000000e+00 -1.1199999250624458e+01 +6.3360667860393389e-04 +0.0000000000000000e+00 +9.9999979927126859e-01
-1.1299999999999976e+01 +8.1613881939805015e+00 +0.0000000000000000e+00 -1.1299999230371823e+01 +6.3926407572437909e-04 +0.0000000000000000e+00 +9.9999979567070019e-01
-1.1399999999999975e+01 +8.1613239847028911e+00 +0.0000000000000000e+00 -1.1399999209757530e+01 +6.4492147723049429e-04 +0.0000000000000000e+00 +9.9999979203812284e-01
-1.1499999999999975e+01 +8.1612592096849070e+00 +0.0000000000000000e+00 -1.1499999188778380e+01 +6.5057888322376416e-04 +0.0000000000000000e+00 +9.9999978837353631e-01
-1.1599999999999975e+01 +8.1611938689260946e+00 +0.0000000000000000e+00 -1.1599999167431172e+01 +6.5623629381085155e-04 +0.0000000000000000e+00 +9.9999978467694051e-01
-1.1699999999999974e+01 +8.1611279624259883e+00 +0.0000000000000000e+00 -1.1699999145712702e+01 +6.6189370910359690e-04 +0.0000000000000000e+00 +9.9999978094833530e-01
