# field on trajectory
# s[mm] rx[mm] ry[mm] rz[mm] bx[T] by[T] bz[T]
0.0000000000000000e+00 +7.9199999999999999e+00 +0.0000000000000000e+00 +0.0000000000000000e+00 -3.1149572522535248e-02 -5.9423298865516105e-01 +5.9982453979784611e-03
1.0000000000000001e-01 +7.9199997170480323e+00 +0.0000000000000000e+00 +9.9999999999466266e-02 -3.1149619924056789e-02 -5.9423284772495244e-01 +5.9982469531471190e-03
2.0000000000000001e-01 +7.9199988681922191e+00 +0.0000000000000000e+00 +1.9999999999573004e-01 -3.1149672938965162e-02 -5.9423270042436749e-01 +5.9982480621935787e-03
3.0000000000000004e-01 +7.9199974534326998e+00 +0.0000000000000000e+00 +2.9999999998558891e-01 -3.1149730990250740e-02 -5.9423254789582014e-01 +5.9982487304270637e-03
4.0000000000000002e-01 +7.9199954727696209e+00 +0.0000000000000000e+00 +3.9999999996584035e-01 -3.1149793500900112e-02 -5.9423239128170757e-01 +5.9982489631572313e-03
5.0000000000000000e-01 +7.9199929262031308e+00 +0.0000000000000000e+00 +4.9999999993328192e-01 -3.1149859893896986e-02 -5.9423223172441242e-01 +5.9982487656942843e-03
5.9999999999999998e-01 +7.9199898137333813e+00 +0.0000000000000000e+00 +5.9999999988471120e-01 -3.1149929592222861e-02 -5.9423207036630699e-01 +5.9982481433490404e-03
6.9999999999999996e-01 +7.9199861353605270e+00 +0.0000000000000000e+00 +6.9999999981692562e-01 -3.1150002018857880e-02 -5.9423190834975270e-01 +5.9982471014330433e-03
7.9999999999999993e-01 +7.9199818910847215e+00 +0.0000000000000000e+00 +7.9999999972672275e-01 -3.1150076596781630e-02 -5.9423174681710533e-01 +5.9982456452586461e-03
8.9999999999999991e-01 +7.9199770809061185e+00 +0.0000000000000000e+00 +8.9999999961090027e-01 -3.1150152748973869e-02 -5.9423158691071465e-01 +5.9982437801391082e-03
9.9999999999999989e-01 +7.9199717048248708e+00 +0.0000000000000000e+00 +9.9999999946625562e-01 -3.1150229898415420e-02 -5.9423142977292964e-01 +5.9982415113886845e-03
1.0999999999999999e+00 +7.9199657628411284e+00 +0.0000000000000000e+00 +1.0999999992895864e+00 -3.1150307468088848e-02 -5.9423127654609798e-01 +5.9982388443227189e-03
1.2000000000000000e+00 +7.9199592549550371e+00 +0.0000000000000000e+00 +1.1999999990776899e+00 -3.1150384880979352e-02 -5.9423112837257019e-01 +5.9982357842577405e-03
1.3000000000000000e+00 +7.9199521811667379e+00 +0.0000000000000000e+00 +1.2999999988273641e+00 -3.1150461560075497e-02 -5.9423098639470229e-01 +5.9982323365115522e-03
1.4000000000000001e+00 +7.9199445414763661e+00 +0.0000000000000000e+00 +1.3999999985354064e+00 -3.1150536928369998e-02 -5.9423085175485624e-01 +5.9982285064033233e-03
1.5000000000000002e+00 +7.9199363358840502e+00 +0.0000000000000000e+00 +1.4999999981986141e+00 -3.1150610408860583e-02 -5.9423072559540413e-01 +5.9982242992536834e-03
1.6000000000000003e+00 +7.9199275643899103e+00 +0.0000000000000000e+00 +1.5999999978137851e+00 -3.1150681424550700e-02 -5.9423060905872982e-01 +5.9982197203848203e-03
1.7000000000000004e+00 +7.9199182269940573e+00 +0.0000000000000000e+00 +1.6999999973777169e+00 -3.1150749398450386e-02 -5.9423050328723170e-01 +5.9982147751205632e-03
1.8000000000000005e+00 +7.9199083236965926e+00 +0.0000000000000000e+00 +1.7999999968872069e+00 -3.1150813753576954e-02 -5.9423040942332328e-01 +5.9982094687864784e-03
1.9000000000000006e+00 +7.9198978544976057e+00 +0.0000000000000000e+00 +1.8999999963390528e+00 -3.1150873912955936e-02 -5.9423032860943892e-01 +5.9982038067099668e-03
2.0000000000000004e+00 +7.9198868193971741e+00 +0.0000000000000000e+00 +1.9999999957300520e+00 -3.1150929299621721e-02 -5.9423026198803297e-01 +5.9981977942203477e-03
2.1000000000000005e+00 +7.9198752183953616e+00 +0.0000000000000000e+00 +2.0999999950570025e+00 -3.1150979580401129e-02 -5.9423021035891910e-01 +5.9981914456699072e-03
2.2000000000000006e+00 +7.9198630514922179e+00 +0.0000000000000000e+00 +2.1999999943167015e+00 -3.1151025397258392e-02 -5.9423017315126980e-01 +5.9981848114959669e-03
2.3000000000000007e+00 +7.9198503186877778e+00 +0.0000000000000000e+00 +2.2999999935059465e+00 -3.1151067635940013e-02 -5.9423014945158859e-01 +5.9981779511563650e-03
2.4000000000000008e+00 +7.9198370199820651e+00 +0.0000000000000000e+00 +2.3999999926215354e+00 -3.1151107182190489e-02 -5.9423013834636873e-01 +5.9981709241080762e-03
2.5000000000000009e+00 +7.9198231553750915e+00 +0.0000000000000000e+00 +2.4999999916602653e+00 -3.1151144921751705e-02 -5.9423013892209264e-01 +5.9981637898069940e-03
2.6000000000000010e+00 +7.9198087248668561e+00 +0.0000000000000000e+00 +2.5999999906189339e+00 -3.1151181740362261e-02 -5.9423015026522941e-01 +5.9981566077076985e-03
2.7000000000000011e+00 +7.9197937284573490e+00 +0.0000000000000000e+00 +2.6999999894943389e+00 -3.1151218523756904e-02 -5.9423017146223422e-01 +5.9981494372632416e-03
2.8000000000000012e+00 +7.9197781661465498e+00 +0.0000000000000000e+00 +2.7999999882832780e+00 -3.1151256157665900e-02 -5.9423020159954520e-01 +5.9981423379249161e-03
2.9000000000000012e+00 +7.9197620379344311e+00 +0.0000000000000000e+00 +2.8999999869825484e+00 -3.1151295527814364e-02 -5.9423023976358313e-01 +5.9981353691420372e-03
3.0000000000000013e+00 +7.9197453438209573e+00 +0.0000000000000000e+00 +2.9999999855889476e+00 -3.1151337519921697e-02 -5.9423028504074871e-01 +5.9981285903617163e-03
3.1000000000000014e+00 +7.9197280838060857e+00 +0.0000000000000000e+00 +3.0999999840992736e+00 -3.1151383019700926e-02 -5.9423033651742174e-01 +5.9981220610286403e-03
3.2000000000000015e+00 +7.9197102578897676e+00 +0.0000000000000000e+00 +3.1999999825103238e+00 -3.1151432912858108e-02 -5.9423039327995852e-01 +5.9981158405848500e-03
3.3000000000000016e+00 +7.9196918660719495e+00 +0.0000000000000000e+00 +3.2999999808188956e+00 -3.1151488085091706e-02 -5.9423045441469102e-01 +5.9981099884695117e-03
3.4000000000000017e+00 +7.9196729083525748e+00 +0.0000000000000000e+00 +3.3999999790217865e+00 -3.1151549422091928e-02 -5.9423051900792512e-01 +5.9981045641186968e-03
3.5000000000000018e+00 +7.9196533847315820e+00 +0.0000000000000000e+00 +3.4999999771157944e+00 -3.1151617809540146e-02 -5.9423058614593816e-01 +5.9980996269651575e-03
3.6000000000000019e+00 +7.9196332952089081e+00 +0.0000000000000000e+00 +3.5999999750977163e+00 -3.1151694133108265e-02 -5.9423065491497795e-01 +5.9980952364381071e-03
3.7000000000000020e+00 +7.9196126397844875e+00 +0.0000000000000000e+00 +3.6999999729643500e+00 -3.1151779278458067e-02 -5.9423072440126090e-01 +5.9980914519629936e-03
3.8000000000000020e+00 +7.9195914184582552e+00 +0.0000000000000000e+00 +3.7999999707124932e+00 -3.1151874131240612e-02 -5.9423079369097032e-01 +5.9980883329612735e-03
3.9000000000000021e+00 +7.9195696312301465e+00 +0.0000000000000000e+00 +3.8999999683389430e+00 -3.1151979577095635e-02 -5.9423086187025520e-01 +5.9980859388501957e-03
4.0000000000000018e+00 +7.9195472781000973e+00 +0.0000000000000000e+00 +3.9999999658404972e+00 -3.1152096501650860e-02 -5.9423092802522748e-01 +5.9980843290425708e-03
4.1000000000000014e+00 +7.9195243590680446e+00 +0.0000000000000000e+00 +4.0999999632139534e+00 -3.1152225489436546e-02 -5.9423099147740555e-01 +5.9980835232970016e-03
4.2000000000000011e+00 +7.9195008741339290e+00 +0.0000000000000000e+00 +4.1999999604561093e+00 -3.1152365920635323e-02 -5.9423105249006569e-01 +5.9980833827707834e-03
4.3000000000000007e+00 +7.9194768232976935e+00 +0.0000000000000000e+00 +4.2999999575637622e+00 -3.1152516874348612e-02 -5.9423111156194186e-01 +5.9980837289720212e-03
4.4000000000000004e+00 +7.9194522065592823e+00 +0.0000000000000000e+00 +4.3999999545337101e+00 -3.1152677429684233e-02 -5.9423116919178887e-01 +5.9980843834098688e-03
4.5000000000000000e+00 +7.9194270239186411e+00 +0.0000000000000000e+00 +4.4999999513627493e+00 -3.1152846665756993e-02 -5.9423122587838362e-01 +5.9980851675946788e-03
4.5999999999999996e+00 +7.9194012753757166e+00 +0.0000000000000000e+00 +4.5999999480476781e+00 -3.1153023661689119e-02 -5.9423128212052712e-01 +5.9980859030381037e-03
4.6999999999999993e+00 +7.9193749609304556e+00 +0.0000000000000000e+00 +4.6999999445852945e+00 -3.1153207496610918e-02 -5.9423133841704634e-01 +5.9980864112532534e-03
4.7999999999999989e+00 +7.9193480805828065e+00 +0.0000000000000000e+00 +4.7999999409723957e+00 -3.1153397249661222e-02 -5.9423139526679514e-01 +5.9980865137548101e-03
4.8999999999999986e+00 +7.9193206343327152e+00 +0.0000000000000000e+00 +4.8999999372057790e+00 -3.1153591999988031e-02 -5.9423145316865877e-01 +5.9980860320591727e-03
4.9999999999999982e+00 +7.9192926221801274e+00 +0.0000000000000000e+00 +4.9999999332822416e+00 -3.1153790826748979e-02 -5.9423151262155194e-01 +5.9980847876845815e-03
5.0999999999999979e+00 +7.9192640441249873e+00 +0.0000000000000000e+00 +5.0999999291985816e+00 -3.1153992809111870e-02 -5.9423157412442396e-01 +5.9980826021512508e-03
5.1999999999999975e+00 +7.9192349001672380e+00 +0.0000000000000000e+00 +5.1999999249515962e+00 -3.1154197026255326e-02 -5.9423163817625879e-01 +5.9980792969814983e-03
5.2999999999999972e+00 +7.9192051903068181e+00 +0.0000000000000000e+00 +5.2999999205380837e+00 -3.1154402557369228e-02 -5.9423170527607783e-01 +5.9980746936998839e-03
5.3999999999999968e+00 +7.9191749145436656e+00 +0.0000000000000000e+00 +5.3999999159548411e+00 -3.1154608481655313e-02 -5.9423177592294096e-01 +5.9980686138333362e-03
5.4999999999999964e+00 +7.9191440728777138e+00 +0.0000000000000000e+00 +5.4999999111986657e+00 -3.1154813878327744e-02 -5.9423185061594896e-01 +5.9980608789112896e-03
5.5999999999999961e+00 +7.9191126653088926e+00 +0.0000000000000000e+00 +5.5999999062663548e+00 -3.1155017826613569e-02 -5.9423192985424500e-01 +5.9980513104658066e-03
5.6999999999999957e+00 +7.9190806918371273e+00 +0.0000000000000000e+00 +5.6999999011547064e+00 -3.1155219405753411e-02 -5.9423201413701687e-01 +5.9980397300317201e-03
5.7999999999999954e+00 +7.9190481524623388e+00 +0.0000000000000000e+00 +5.7999998958605179e+00 -3.1155417695001894e-02 -5.9423210396349846e-01 +5.9980259591467591e-03
5.8999999999999950e+00 +7.9190150471844429e+00 +0.0000000000000000e+00 +5.8999998903805873e+00 -3.1155611773628279e-02 -5.9423219983297193e-01 +5.9980098193516893e-03
5.9999999999999947e+00 +7.9189813760033489e+00 +0.0000000000000000e+00 +5.9999998847117118e+00 -3.1155800720916949e-02 -5.9423230224476964e-01 +5.9979911321904342e-03
6.0999999999999943e+00 +7.9189471389189601e+00 +0.0000000000000000e+00 +6.0999998788506886e+00 -3.1155983814179396e-02 -5.9423241161208906e-01 +5.9979697925519760e-03
6.1999999999999940e+00 +7.9189123359311742e+00 +0.0000000000000000e+00 +6.1999998727943151e+00 -3.1156161122786508e-02 -5.9423252800342041e-01 +5.9979459886961677e-03
6.2999999999999936e+00 +7.9188769670398811e+00 +0.0000000000000000e+00 +6.2999998665393893e+00 -3.1156332914124917e-02 -5.9423265140107495e-01 +5.9979199822268849e-03
6.3999999999999932e+00 +7.9188410322449636e+00 +0.0000000000000000e+00 +6.3999998600827084e+00 -3.1156499455582971e-02 -5.9423278178736949e-01 +5.9978920347496505e-03
6.4999999999999929e+00 +7.9188045315463000e+00 +0.0000000000000000e+00 +6.4999998534210697e+00 -3.1156661014550693e-02 -5.9423291914462506e-01 +5.9978624078717013e-03
6.5999999999999925e+00 +7.9187674649437598e+00 +0.0000000000000000e+00 +6.5999998465512713e+00 -3.1156817858419731e-02 -5.9423306345516658e-01 +5.9978313632020296e-03
6.6999999999999922e+00 +7.9187298324372071e+00 +0.0000000000000000e+00 +6.6999998394701095e+00 -3.1156970254583288e-02 -5.9423321470132384e-01 +5.9977991623514299e-03
6.7999999999999918e+00 +7.9186916340264988e+00 +0.0000000000000000e+00 +6.7999998321743824e+00 -3.1157118470436052e-02 -5.9423337286543054e-01 +5.9977660669325696e-03
6.8999999999999915e+00 +7.9186528697114857e+00 +0.0000000000000000e+00 +6.8999998246608882e+00 -3.1157262773374116e-02 -5.9423353792982325e-01 +5.9977323385600172e-03
6.9999999999999911e+00 +7.9186135394920116e+00 +0.0000000000000000e+00 +6.9999998169264233e+00 -3.1157403430794980e-02 -5.9423370987684332e-01 +5.9976982388503190e-03
7.0999999999999908e+00 +7.9185736433679148e+00 +0.0000000000000000e+00 +7.0999998089677856e+00 -3.1157540710097419e-02 -5.9423388868883475e-01 +5.9976640294220340e-03
7.1999999999999904e+00 +7.9185331813390256e+00 +0.0000000000000000e+00 +7.1999998007817725e+00 -3.1157674878681419e-02 -5.9423407434814512e-01 +5.9976299718957913e-03
7.2999999999999901e+00 +7.9184921534051691e+00 +0.0000000000000000e+00 +7.2999997923651820e+00 -3.1157806203948164e-02 -5.9423426683712499e-01 +5.9975963278943419e-03
7.3999999999999897e+00 +7.9184505595661623e+00 +0.0000000000000000e+00 +7.3999997837148106e+00 -3.1157934953299923e-02 -5.9423446613812803e-01 +5.9975633590426116e-03
7.4999999999999893e+00 +7.9184083998218178e+00 +0.0000000000000000e+00 +7.4999997748274563e+00 -3.1158061394140010e-02 -5.9423467223351045e-01 +5.9975313269677519e-03
7.5999999999999890e+00 +7.9183656741719393e+00 +0.0000000000000000e+00 +7.5999997656999163e+00 -3.1158185793872684e-02 -5.9423488510563083e-01 +5.9975004932991864e-03
7.6999999999999886e+00 +7.9183223826163269e+00 +0.0000000000000000e+00 +7.6999997563289888e+00 -3.1158308419903122e-02 -5.9423510473685126e-01 +5.9974711196686750e-03
7.7999999999999883e+00 +7.9182785251547720e+00 +0.0000000000000000e+00 +7.7999997467114701e+00 -3.1158429539637329e-02 -5.9423533110953453e-01 +5.9974434677103478e-03
7.8999999999999879e+00 +7.9182341017870606e+00 +0.0000000000000000e+00 +7.8999997368441583e+00 -3.1158549420482021e-02 -5.9423556420604606e-01 +5.9974177990607730e-03
7.9999999999999876e+00 +7.9181891125129722e+00 +0.0000000000000000e+00 +7.9999997267238507e+00 -3.1158668329844666e-02 -5.9423580400875375e-01 +5.9973943753589987e-03
8.0999999999999872e+00 +7.9181435573322796e+00 +0.0000000000000000e+00 +8.0999997163473445e+00 -3.1158786511050088e-02 -5.9423605031123927e-01 +5.9973733724633382e-03
8.1999999999999869e+00 +7.9180974362447500e+00 +0.0000000000000000e+00 +8.1999997057114378e+00 -3.1158904111076666e-02 -5.9423630215192547e-01 +5.9973546230961058e-03
8.2999999999999865e+00 +7.9180507492501455e+00 +0.0000000000000000e+00 +8.2999996948129269e+00 -3.1159021252782592e-02 -5.9423655838043787e-01 +5.9973378741899914e-03
8.3999999999999861e+00 +7.9180034963482235e+00 +0.0000000000000000e+00 +8.3999996836486091e+00 -3.1159138058984879e-02 -5.9423681784639126e-01 +5.9973228726718777e-03
8.4999999999999858e+00 +7.9179556775387381e+00 +0.0000000000000000e+00 +8.4999996722152815e+00 -3.1159254652458106e-02 -5.9423707939939130e-01 +5.9973093654626421e-03
8.5999999999999854e+00 +7.9179072928214422e+00 +0.0000000000000000e+00 +8.5999996605097433e+00 -3.1159371155933171e-02 -5.9423734188903232e-01 +5.9972970994769557e-03
8.6999999999999851e+00 +7.9178583421960873e+00 +0.0000000000000000e+00 +8.6999996485287898e+00 -3.1159487692095925e-02 -5.9423760416489824e-01 +5.9972858216230975e-03
8.7999999999999847e+00 +7.9178088256624255e+00 +0.0000000000000000e+00 +8.7999996362692201e+00 -3.1159604383585972e-02 -5.9423786507656129e-01 +5.9972752788027568e-03
8.8999999999999844e+00 +7.9177587432202099e+00 +0.0000000000000000e+00 +8.8999996237278314e+00 -3.1159721352995318e-02 -5.9423812347358140e-01 +5.9972652179108316e-03
8.9999999999999840e+00 +7.9177080948691962e+00 +0.0000000000000000e+00 +8.9999996109014191e+00 -3.1159838722867126e-02 -5.9423837820550585e-01 +5.9972553858352448e-03
9.0999999999999837e+00 +7.9176568806091430e+00 +0.0000000000000000e+00 +9.0999995977867822e+00 -3.1159956615694415e-02 -5.9423862812187001e-01 +5.9972455294567484e-03
9.1999999999999833e+00 +7.9176051004398147e+00 +0.0000000000000000e+00 +9.1999995843807181e+00 -3.1160075153918797e-02 -5.9423887207219439e-01 +5.9972353956487187e-03
9.2999999999999829e+00 +7.9175527543609805e+00 +0.0000000000000000e+00 +9.2999995706800238e+00 -3.1160194459929159e-02 -5.9423910890598652e-01 +5.9972247312769789e-03
9.3999999999999826e+00 +7.9174998423724166e+00 +0.0000000000000000e+00 +9.3999995566814967e+00 -3.1160314656060402e-02 -5.9423933747273860e-01 +5.9972132831995918e-03
9.4999999999999822e+00 +7.9174463644739070e+00 +0.0000000000000000e+00 +9.4999995423819339e+00 -3.1160435864592172e-02 -5.9423955662192840e-01 +5.9972007982666753e-03
9.5999999999999819e+00 +7.9173923206652450e+00 +0.0000000000000000e+00 +9.5999995277781327e+00 -3.1160558207747536e-02 -5.9423976520301824e-01 +5.9971870233202071e-03
9.6999999999999815e+00 +7.9173377109462333e+00 +0.0000000000000000e+00 +9.6999995128668903e+00 -3.1160681807691694e-02 -5.9423996206545371e-01 +5.9971717051938243e-03
9.7999999999999812e+00 +7.9172825353166871e+00 +0.0000000000000000e+00 +9.7999994976450058e+00 -3.1160806786530784e-02 -5.9424014605866504e-01 +5.9971545907126491e-03
9.8999999999999808e+00 +7.9172267937764325e+00 +0.0000000000000000e+00 +9.8999994821092745e+00 -3.1160933266310486e-02 -5.9424031603206429e-01 +5.9971354266930739e-03
9.9999999999999805e+00 +7.9171704863253094e+00 +0.0000000000000000e+00 +9.9999994662564937e+00 -3.1161061369014795e-02 -5.9424047083504694e-01 +5.9971139599425865e-03
1.0099999999999980e+01 +7.9171136129631723e+00 +0.0000000000000000e+00 +1.0099999450083462e+01 -3.1161191212530560e-02 -5.9424060980949112e-01 +5.9970900044158254e-03
1.0199999999999980e+01 +7.9170561736898915e+00 +0.0000000000000000e+00 +1.0199999433586978e+01 -3.1161322898570851e-02 -5.9424073426728996e-01 +5.9970636426918186e-03
1.0299999999999979e+01 +7.9169981685053488e+00 +0.0000000000000000e+00 +1.0299999416763836e+01 -3.1161456524825493e-02 -5.9424084601282501e-01 +5.9970350245105745e-03
1.0399999999999979e+01 +7.9169395974094403e+00 +0.0000000000000000e+00 +1.0399999399610834e+01 -3.1161592189002912e-02 -5.9424094685045092e-01 +5.9970042996158749e-03
1.0499999999999979e+01 +7.9168804604020711e+00 +0.0000000000000000e+00 +1.0499999382124772e+01 -3.1161729988830825e-02 -5.9424103858449240e-01 +5.9969716177553879e-03
1.0599999999999978e+01 +7.9168207574831557e+00 +0.0000000000000000e+00 +1.0599999364302445e+01 -3.1161870022057055e-02 -5.9424112301924426e-01 +5.9969371286807934e-03
1.0699999999999978e+01 +7.9167604886526162e+00 +0.0000000000000000e+00 +1.0699999346140650e+01 -3.1162012386450246e-02 -5.9424120195897057e-01 +5.9969009821478955e-03
1.0799999999999978e+01 +7.9166996539103787e+00 +0.0000000000000000e+00 +1.0799999327636186e+01 -3.1162157179800653e-02 -5.9424127720790465e-01 +5.9968633279167570e-03
1.0899999999999977e+01 +7.9166382532563730e+00 +0.0000000000000000e+00 +1.0899999308785850e+01 -3.1162304499920839e-02 -5.9424135057024663e-01 +5.9968243157518001e-03
1.0999999999999977e+01 +7.9165762866905318e+00 +0.0000000000000000e+00 +1.0999999289586437e+01 -3.1162454444646475e-02 -5.9424142385016554e-01 +5.9967840954219462e-03
1.1099999999999977e+01 +7.9165137542127866e+00 +0.0000000000000000e+00 +1.1099999270034749e+01 -3.1162607111837080e-02 -5.9424149885179622e-01 +5.9967428167007116e-03
1.1199999999999976e+01 +7.9164506558230681e+00 +0.0000000000000000e+00 +1.1199999250127579e+01 -3.1162762599376729e-02 -5.9424157737923877e-01 +5.9967006293663539e-03
1.1299999999999976e+01 +7.9163869915213034e+00 +0.0000000000000000e+00 +1.1299999229861728e+01 -3.1162921005174888e-02 -5.9424166123655908e-01 +5.9966576832019645e-03
1.1399999999999975e+01 +7.9163227613074145e+00 +0.0000000000000000e+00 +1.1399999209233989e+01 -3.1163082427167067e-02 -5.9424175222778763e-01 +5.9966141279956028e-03
1.1499999999999975e+01 +7.9162579651813170e+00 +0.0000000000000000e+00 +1.1499999188241164e+01 -3.1163246963315679e-02 -5.9424185215691872e-01 +5.9965701135404129e-03
1.1599999999999975e+01 +7.9161926031429166e+00 +0.0000000000000000e+00 +1.1599999166880048e+01 -3.1163414711610680e-02 -5.9424196282790853e-01 +5.9965257896347325e-03
1.1699999999999974e+01 +7.9161266751921104e+00 +0.0000000000000000e+00 +1.1699999145147439e+01 -3.1163585770070446e-02 -5.9424208604467710e-01 +5.9964813060822218e-03
1.1799999999999974e+01 +7.9160601813287839e+00 +0.0000000000000000e+00 +1.1799999123040134e+01 -3.1163760236742385e-02 -5.9424222361110501e-01 +5.9964368126919727e-03
