# trajectory
# s[mm] rx[mm] ry[mm] rz[mm] px[rad] py[rad] pz[rad]
0.0000000000000000e+00 +8.1649999999999991e+00 +0.0000000000000000e+00 +0.0000000000000000e+00 +0.0000000000000000e+00 +0.0000000000000000e+00 +1.0000000000000000e+00
-1.0000000000000001e-01 +8.1649997168813311e+00 +0.0000000000000000e+00 -9.9999999999465614e-02 +5.6623735051752656e-06 +0.0000000000000000e+00 +9.9999999998396871e-01
-2.0000000000000001e-01 +8.1649988675252718e+00 +0.0000000000000000e+00 -1.9999999999572499e-01 +1.1324747822453680e-05 +0.0000000000000000e+00 +9.9999999993587496e-01
-3.0000000000000004e-01 +8.1649974519317379e+00 +0.0000000000000000e+00 -2.9999999998557186e-01 +1.6987123012178980e-05 +0.0000000000000000e+00 +9.9999999985571875e-01
-4.0000000000000002e-01 +8.1649954701006386e+00 +0.0000000000000000e+00 -3.9999999996579999e-01 +2.2649499131244802e-05 +0.0000000000000000e+00 +9.9999999974350007e-01
-5.0000000000000000e-01 +8.1649929220318782e+00 +0.0000000000000000e+00 -4.9999999993320310e-01 +2.8311876233094604e-05 +0.0000000000000000e+00 +9.9999999959921881e-01
-5.9999999999999998e-01 +8.1649898077253571e+00 +0.0000000000000000e+00 -5.9999999988457497e-01 +3.3974254367721612e-05 +0.0000000000000000e+00 +9.9999999942287499e-01
-6.9999999999999996e-01 +8.1649861271809687e+00 +0.0000000000000000e+00 -6.9999999981670935e-01 +3.9636633581668749e-05 +0.0000000000000000e+00 +9.9999999921446858e-01
-7.9999999999999993e-01 +8.1649818803986030e+00 +0.0000000000000000e+00 -7.9999999972639990e-01 +4.5299013918028596e-05 +0.0000000000000000e+00 +9.9999999897399960e-01
-8.9999999999999991e-01 +8.1649770673781461e+00 +0.0000000000000000e+00 -8.9999999961044042e-01 +5.0961395416443331e-05 +0.0000000000000000e+00 +9.9999999870146805e-01
-9.9999999999999989e-01 +8.1649716881194792e+00 +0.0000000000000000e+00 -9.9999999946562468e-01 +5.6623778113104680e-05 +0.0000000000000000e+00 +9.9999999839687381e-01
-1.0999999999999999e+00 +8.1649657426224813e+00 +0.0000000000000000e+00 -1.0999999992887464e+00 +6.2286162040753895e-05 +0.0000000000000000e+00 +9.9999999806021700e-01
-1.2000000000000000e+00 +8.1649592308870282e+00 +0.0000000000000000e+00 -1.1999999990765993e+00 +6.7948547228681701e-05 +0.0000000000000000e+00 +9.9999999769149750e-01
-1.3000000000000000e+00 +8.1649521529129920e+00 +0.0000000000000000e+00 -1.2999999988259772e+00 +7.3610933702728275e-05 +0.0000000000000000e+00 +9.9999999729071520e-01
-1.4000000000000001e+00 +8.1649445087002430e+00 +0.0000000000000000e+00 -1.3999999985336735e+00 +7.9273321485283203e-05 +0.0000000000000000e+00 +9.9999999685787022e-01
-1.5000000000000002e+00 +8.1649362982486497e+00 +0.0000000000000000e+00 -1.4999999981964824e+00 +8.4935710595285507e-05 +0.0000000000000000e+00 +9.9999999639296255e-01
-1.6000000000000003e+00 +8.1649275215580790e+00 +0.0000000000000000e+00 -1.5999999978111974e+00 +9.0598101048223583e-05 +0.0000000000000000e+00 +9.9999999589599209e-01
-1.7000000000000004e+00 +8.1649181786283958e+00 +0.0000000000000000e+00 -1.6999999973746120e+00 +9.6260492856135193e-05 +0.0000000000000000e+00 +9.9999999536695883e-01
-1.8000000000000005e+00 +8.1649082694594632e+00 +0.0000000000000000e+00 -1.7999999968835203e+00 +1.0192288602760747e-04 +0.0000000000000000e+00 +9.9999999480586277e-01
-1.9000000000000006e+00 +8.1648977940511447e+00 +0.0000000000000000e+00 -1.8999999963347158e+00 +1.0758528056777693e-04 +0.0000000000000000e+00 +9.9999999421270380e-01
-2.0000000000000004e+00 +8.1648867524033033e+00 +0.0000000000000000e+00 -1.9999999957249923e+00 +1.1324767647832946e-04 +0.0000000000000000e+00 +9.9999999358748193e-01
-2.1000000000000005e+00 +8.1648751445158023e+00 +0.0000000000000000e+00 -2.0999999950511437e+00 +1.1891007375755699e-04 +0.0000000000000000e+00 +9.9999999293019726e-01
-2.2000000000000006e+00 +8.1648629703885049e+00 +0.0000000000000000e+00 -2.1999999943099633e+00 +1.2457247240098106e-04 +0.0000000000000000e+00 +9.9999999224084968e-01
-2.3000000000000007e+00 +8.1648502300212762e+00 +0.0000000000000000e+00 -2.2999999934982451e+00 +1.3023487240197622e-04 +0.0000000000000000e+00 +9.9999999151943908e-01
-2.4000000000000008e+00 +8.1648369234139793e+00 +0.0000000000000000e+00 -2.3999999926127824e+00 +1.3589727375182674e-04 +0.0000000000000000e+00 +9.9999999076596557e-01
-2.5000000000000009e+00 +8.1648230505664809e+00 +0.0000000000000000e+00 -2.4999999916503692e+00 +1.4155967643972650e-04 +0.0000000000000000e+00 +9.9999998998042905e-01
-2.6000000000000010e+00 +8.1648086114786480e+00 +0.0000000000000000e+00 -2.5999999906077993e+00 +1.4722208045277895e-04 +0.0000000000000000e+00 +9.9999998916282951e-01
-2.7000000000000011e+00 +8.1647936061503472e+00 +0.0000000000000000e+00 -2.6999999894818663e+00 +1.5288448577599701e-04 +0.0000000000000000e+00 +9.9999998831316694e-01
-2.8000000000000012e+00 +8.1647780345814489e+00 +0.0000000000000000e+00 -2.7999999882693638e+00 +1.5854689239230301e-04 +0.0000000000000000e+00 +9.9999998743144136e-01
-2.9000000000000012e+00 +8.1647618967718252e+00 +0.0000000000000000e+00 -2.8999999869670856e+00 +1.6420930028252865e-04 +0.0000000000000000e+00 +9.9999998651765276e-01
-3.0000000000000013e+00 +8.1647451927213499e+00 +0.0000000000000000e+00 -2.9999999855718253e+00 +1.6987170942541488e-04 +0.0000000000000000e+00 +9.9999998557180103e-01
-3.1000000000000014e+00 +8.1647279224298988e+00 +0.0000000000000000e+00 -3.0999999840803767e+00 +1.7553411979761186e-04 +0.0000000000000000e+00 +9.9999998459388628e-01
-3.2000000000000015e+00 +8.1647100858973509e+00 +0.0000000000000000e+00 -3.1999999824895338e+00 +1.8119653137367884e-04 +0.0000000000000000e+00 +9.9999998358390840e-01
-3.3000000000000016e+00 +8.1646916831235856e+00 +0.0000000000000000e+00 -3.2999999807960898e+00 +1.8685894412608407e-04 +0.0000000000000000e+00 +9.9999998254186739e-01
-3.4000000000000017e+00 +8.1646727141084874e+00 +0.0000000000000000e+00 -3.3999999789968385e+00 +1.9252135802520475e-04 +0.0000000000000000e+00 +9.9999998146776325e-01
-3.5000000000000018e+00 +8.1646531788519425e+00 +0.0000000000000000e+00 -3.4999999770885735e+00 +1.9818377303932688e-04 +0.0000000000000000e+00 +9.9999998036159599e-01
-3.6000000000000019e+00 +8.1646330773538427e+00 +0.0000000000000000e+00 -3.5999999750680889e+00 +2.0384618913464521e-04 +0.0000000000000000e+00 +9.9999997922336548e-01
-3.7000000000000020e+00 +8.1646124096140813e+00 +0.0000000000000000e+00 -3.6999999729321780e+00 +2.0950860627526311e-04 +0.0000000000000000e+00 +9.9999997805307184e-01
-3.8000000000000020e+00 +8.1645911756325553e+00 +0.0000000000000000e+00 -3.7999999706776344e+00 +2.1517102442319242e-04 +0.0000000000000000e+00 +9.9999997685071496e-01
-3.9000000000000021e+00 +8.1645693754091653e+00 +0.0000000000000000e+00 -3.8999999683012523e+00 +2.2083344353835348e-04 +0.0000000000000000e+00 +9.9999997561629494e-01
-4.0000000000000018e+00 +8.1645470089438170e+00 +0.0000000000000000e+00 -3.9999999657998249e+00 +2.2649586357857489e-04 +0.0000000000000000e+00 +9.9999997434981169e-01
-4.1000000000000014e+00 +8.1645240762364200e+00 +0.0000000000000000e+00 -4.0999999631701458e+00 +2.3215828450020575e-04 +0.0000000000000000e+00 +9.9999997305126520e-01
-4.2000000000000011e+00 +8.1645005772868888e+00 +0.0000000000000000e+00 -4.1999999604090092e+00 +2.3782070626485139e-04 +0.0000000000000000e+00 +9.9999997172065558e-01
-4.3000000000000007e+00 +8.1644765120951401e+00 +0.0000000000000000e+00 -4.2999999575132080e+00 +2.4348312884610903e-04 +0.0000000000000000e+00 +9.9999997035798271e-01
-4.4000000000000004e+00 +8.1644518806610922e+00 +0.0000000000000000e+00 -4.3999999544795365e+00 +2.4914555223018025e-04 +0.0000000000000000e+00 +9.9999996896324661e-01
-4.5000000000000000e+00 +8.1644266829846668e+00 +0.0000000000000000e+00 -4.4999999513047886e+00 +2.5480797641587086e-04 +0.0000000000000000e+00 +9.9999996753644727e-01
-4.5999999999999996e+00 +8.1644009190657822e+00 +0.0000000000000000e+00 -4.5999999479857570e+00 +2.6047040141459119e-04 +0.0000000000000000e+00 +9.9999996607758468e-01
-4.6999999999999993e+00 +8.1643745889043569e+00 +0.0000000000000000e+00 -4.6999999445192362e+00 +2.6613282725035582e-04 +0.0000000000000000e+00 +9.9999996458665874e-01
-4.7999999999999989e+00 +8.1643476925003036e+00 +0.0000000000000000e+00 -4.7999999409020200e+00 +2.7179525395978389e-04 +0.0000000000000000e+00 +9.9999996306366956e-01
-4.8999999999999986e+00 +8.1643202298535336e+00 +0.0000000000000000e+00 -4.8999999371309011e+00 +2.7745768159209900e-04 +0.0000000000000000e+00 +9.9999996150861703e-01
-4.9999999999999982e+00 +8.1642922009639527e+00 +0.0000000000000000e+00 -4.9999999332026741e+00 +2.8312011020912930e-04 +0.0000000000000000e+00 +9.9999995992150115e-01
-5.0999999999999979e+00 +8.1642636058314579e+00 +0.0000000000000000e+00 -5.0999999291141327e+00 +2.8878253988530754e-04 +0.0000000000000000e+00 +9.9999995830232180e-01
-5.1999999999999975e+00 +8.1642344444559374e+00 +0.0000000000000000e+00 -5.1999999248620696e+00 +2.9444497070767113e-04 +0.0000000000000000e+00 +9.9999995665107899e-01
-5.2999999999999972e+00 +8.1642047168372738e+00 +0.0000000000000000e+00 -5.2999999204432795e+00 +3.0010740277586234e-04 +0.0000000000000000e+00 +9.9999995496777272e-01
-5.3999999999999968e+00 +8.1641744229753375e+00 +0.0000000000000000e+00 -5.3999999158545551e+00 +3.0576983620212816e-04 +0.0000000000000000e+00 +9.9999995325240287e-01
-5.4999999999999964e+00 +8.1641435628699845e+00 +0.0000000000000000e+00 -5.4999999110926909e+00 +3.1143227111132051e-04 +0.0000000000000000e+00 +9.9999995150496945e-01
-5.5999999999999961e+00 +8.1641121365210605e+00 +0.0000000000000000e+00 -5.5999999061544798e+00 +3.1709470764089632e-04 +0.0000000000000000e+00 +9.9999994972547235e-01
-5.6999999999999957e+00 +8.1640801439283965e+00 +0.0000000000000000e+00 -5.6999999010367164e+00 +3.2275714594091757e-04 +0.0000000000000000e+00 +9.9999994791391145e-01
-5.7999999999999954e+00 +8.1640475850918079e+00 +0.0000000000000000e+00 -5.7999998957361933e+00 +3.2841958617405145e-04 +0.0000000000000000e+00 +9.9999994607028664e-01
-5.8999999999999950e+00 +8.1640144600110922e+00 +0.0000000000000000e+00 -5.8999998902497044e+00 +3.3408202851557047e-04 +0.0000000000000000e+00 +9.9999994419459792e-01
-5.9999999999999947e+00 +8.1639807686860291e+00 +0.0000000000000000e+00 -5.9999998845740441e+00 +3.3974447315335244e-04 +0.0000000000000000e+00 +9.9999994228684519e-01
-6.0999999999999943e+00 +8.1639465111163787e+00 +0.0000000000000000e+00 -6.0999998787060052e+00 +3.4540692028688558e-04 +0.0000000000000000e+00 +9.9999994034702833e-01
-6.1999999999999940e+00 +8.1639116873018818e+00 +0.0000000000000000e+00 -6.1999998726423815e+00 +3.5106937011632270e-04 +0.0000000000000000e+00 +9.9999993837514722e-01
-6.2999999999999936e+00 +8.1638762972422594e+00 +0.0000000000000000e+00 -6.2999998663799666e+00 +3.5673182283153527e-04 +0.0000000000000000e+00 +9.9999993637120166e-01
-6.3999999999999932e+00 +8.1638403409372131e+00 +0.0000000000000000e+00 -6.3999998599155532e+00 +3.6239427861111843e-04 +0.0000000000000000e+00 +9.9999993433519163e-01
-6.4999999999999929e+00 +8.1638038183864285e+00 +0.0000000000000000e+00 -6.4999998532459360e+00 +3.6805673762239130e-04 +0.0000000000000000e+00 +9.9999993226711703e-01
-6.5999999999999925e+00 +8.1637667295895753e+00 +0.0000000000000000e+00 -6.5999998463679077e+00 +3.7371920002139724e-04 +0.0000000000000000e+00 +9.9999993016697775e-01
-6.6999999999999922e+00 +8.1637290745463069e+00 +0.0000000000000000e+00 -6.6999998392782629e+00 +3.7938166595290391e-04 +0.0000000000000000e+00 +9.9999992803477356e-01
-6.7999999999999918e+00 +8.1636908532562629e+00 +0.0000000000000000e+00 -6.7999998319737944e+00 +3.8504413555040371e-04 +0.0000000000000000e+00 +9.9999992587050446e-01
-6.8999999999999915e+00 +8.1636520657190701e+00 +0.0000000000000000e+00 -6.8999998244512950e+00 +3.9070660893611382e-04 +0.0000000000000000e+00 +9.9999992367417034e-01
-6.9999999999999911e+00 +8.1636127119343449e+00 +0.0000000000000000e+00 -6.9999998167075592e+00 +3.9636908622097658e-04 +0.0000000000000000e+00 +9.9999992144577110e-01
-7.0999999999999908e+00 +8.1635727919016929e+00 +0.0000000000000000e+00 -7.0999998087393799e+00 +4.0203156750465971e-04 +0.0000000000000000e+00 +9.9999991918530651e-01
-7.1999999999999904e+00 +8.1635323056207092e+00 +0.0000000000000000e+00 -7.1999998005435515e+00 +4.0769405287555658e-04 +0.0000000000000000e+00 +9.9999991689277656e-01
-7.2999999999999901e+00 +8.1634912530909798e+00 +0.0000000000000000e+00 -7.2999997921168669e+00 +4.1335654241078646e-04 +0.0000000000000000e+00 +9.9999991456818116e-01
-7.3999999999999897e+00 +8.1634496343120855e+00 +0.0000000000000000e+00 -7.3999997834561189e+00 +4.1901903617619477e-04 +0.0000000000000000e+00 +9.9999991221152018e-01
-7.4999999999999893e+00 +8.1634074492836017e+00 +0.0000000000000000e+00 -7.4999997745581020e+00 +4.2468153422635342e-04 +0.0000000000000000e+00 +9.9999990982279352e-01
-7.5999999999999890e+00 +8.1633646980050969e+00 +0.0000000000000000e+00 -7.5999997654196090e+00 +4.3034403660456116e-04 +0.0000000000000000e+00 +9.9999990740200118e-01
-7.6999999999999886e+00 +8.1633213804761358e+00 +0.0000000000000000e+00 -7.6999997560374336e+00 +4.3600654334284377e-04 +0.0000000000000000e+00 +9.9999990494914293e-01
-7.7999999999999883e+00 +8.1632774966962813e+00 +0.0000000000000000e+00 -7.7999997464083686e+00 +4.4166905446195443e-04 +0.0000000000000000e+00 +9.9999990246421877e-01
-7.8999999999999879e+00 +8.1632330466650966e+00 +0.0000000000000000e+00 -7.8999997365292085e+00 +4.4733156997137400e-04 +0.0000000000000000e+00 +9.9999989994722860e-01
-7.9999999999999876e+00 +8.1631880303821411e+00 +0.0000000000000000e+00 -7.9999997263967462e+00 +4.5299408986931145e-04 +0.0000000000000000e+00 +9.9999989739817241e-01
-8.0999999999999872e+00 +8.1631424478469761e+00 +0.0000000000000000e+00 -8.0999997160077744e+00 +4.5865661414338219e-04 +0.0000000000000000e+00 +9.9999989481704998e-01
-8.1999999999999869e+00 +8.1630962990591662e+00 +0.0000000000000000e+00 -8.1999997053590867e+00 +4.6431914277806870e-04 +0.0000000000000000e+00 +9.9999989220386143e-01
-8.2999999999999865e+00 +8.1630495840182746e+00 +0.0000000000000000e+00 -8.2999996944474770e+00 +4.6998167576218055e-04 +0.0000000000000000e+00 +9.9999988955860653e-01
-8.3999999999999861e+00 +8.1630023027238678e+00 +0.0000000000000000e+00 -8.3999996832697388e+00 +4.7564421308953235e-04 +0.0000000000000000e+00 +9.9999988688128527e-01
-8.4999999999999858e+00 +8.1629544551755124e+00 +0.0000000000000000e+00 -8.4999996718226658e+00 +4.8130675475894374e-04 +0.0000000000000000e+00 +9.9999988417189756e-01
-8.5999999999999854e+00 +8.1629060413727714e+00 +0.0000000000000000e+00 -8.5999996601030499e+00 +4.8696930077423914e-04 +0.0000000000000000e+00 +9.9999988143044338e-01
-8.6999999999999851e+00 +8.1628570613152114e+00 +0.0000000000000000e+00 -8.6999996481076849e+00 +4.9263185114424752e-04 +0.0000000000000000e+00 +9.9999987865692264e-01
-8.7999999999999847e+00 +8.1628075150023971e+00 +0.0000000000000000e+00 -8.7999996358333643e+00 +4.9829440588280223e-04 +0.0000000000000000e+00 +9.9999987585133521e-01
-8.8999999999999844e+00 +8.1627574024338898e+00 +0.0000000000000000e+00 -8.8999996232768819e+00 +5.0395696500874084e-04 +0.0000000000000000e+00 +9.9999987301368098e-01
-8.9999999999999840e+00 +8.1627067236092490e+00 +0.0000000000000000e+00 -8.9999996104350313e+00 +5.0961952854590474e-04 +0.0000000000000000e+00 +9.9999987014395997e-01
-9.0999999999999837e+00 +8.1626554785280323e+00 +0.0000000000000000e+00 -9.0999995973046044e+00 +5.1528209652313914e-04 +0.0000000000000000e+00 +9.9999986724217205e-01
-9.1999999999999833e+00 +8.1626036671897957e+00 +0.0000000000000000e+00 -9.1999995838823967e+00 +5.2094466897429270e-04 +0.0000000000000000e+00 +9.9999986430831711e-01
-9.2999999999999829e+00 +8.1625512895940879e+00 +0.0000000000000000e+00 -9.2999995701652001e+00 +5.2660724593821739e-04 +0.0000000000000000e+00 +9.9999986134239505e-01
-9.3999999999999826e+00 +8.1624983457404561e+00 +0.0000000000000000e+00 -9.3999995561498082e+00 +5.3226982745876799e-04 +0.0000000000000000e+00 +9.9999985834440575e-01
-9.4999999999999822e+00 +8.1624448356284418e+00 +0.0000000000000000e+00 -9.4999995418330130e+00 +5.3793241358480212e-04 +0.0000000000000000e+00 +9.9999985531434910e-01
-9.5999999999999819e+00 +8.1623907592575833e+00 +0.0000000000000000e+00 -9.5999995272116081e+00 +5.4359500437017991e-04 +0.0000000000000000e+00 +9.9999985225222510e-01
-9.6999999999999815e+00 +8.1623361166274115e+00 +0.0000000000000000e+00 -9.6999995122823890e+00 +5.4925759987376366e-04 +0.0000000000000000e+00 +9.9999984915803353e-01
-9.7999999999999812e+00 +8.1622809077374505e+00 +0.0000000000000000e+00 -9.7999994970421458e+00 +5.5492020015941745e-04 +0.0000000000000000e+00 +9.9999984603177428e-01
-9.8999999999999808e+00 +8.1622251325872188e+00 +0.0000000000000000e+00 -9.8999994814876739e+00 +5.6058280529600719e-04 +0.0000000000000000e+00 +9.9999984287344723e-01
-9.9999999999999805e+00 +8.1621687911762280e+00 +0.0000000000000000e+00 -9.9999994656157654e+00 +5.6624541535739989e-04 +0.0000000000000000e+00 +9.9999983968305228e-01
-1.0099999999999980e+01 +8.1621118835039805e+00 +0.0000000000000000e+00 -1.0099999449423215e+01 +5.7190803042195758e-04 +0.0000000000000000e+00 +9.9999983646058932e-01
-1.0199999999999980e+01 +8.1620544095699739e+00 +0.0000000000000000e+00 -1.0199999432906814e+01 +5.7757065056696988e-04 +0.0000000000000000e+00 +9.9999983320605823e-01
-1.0299999999999979e+01 +8.1619963693736963e+00 +0.0000000000000000e+00 -1.0299999416063358e+01 +5.8323327586308656e-04 +0.0000000000000000e+00 +9.9999982991945879e-01
-1.0399999999999979e+01 +8.1619377629146275e+00 +0.0000000000000000e+00 -1.0399999398889637e+01 +5.8889590637381170e-04 +0.0000000000000000e+00 +9.9999982660079101e-01
-1.0499999999999979e+01 +8.1618785901922450e+00 +0.0000000000000000e+00 -1.0499999381382446e+01 +5.9455854215550367e-04 +0.0000000000000000e+00 +9.9999982325005465e-01
-1.0599999999999978e+01 +8.1618188512060197e+00 +0.0000000000000000e+00 -1.0599999363538579e+01 +6.0022118325737484e-04 +0.0000000000000000e+00 +9.9999981986724962e-01
-1.0699999999999978e+01 +8.1617585459554149e+00 +0.0000000000000000e+00 -1.0699999345354827e+01 +6.0588382972149191e-04 +0.0000000000000000e+00 +9.9999981645237590e-01
-1.0799999999999978e+01 +8.1616976744398944e+00 +0.0000000000000000e+00 -1.0799999326827985e+01 +6.1154648158277597e-04 +0.0000000000000000e+00 +9.9999981300543328e-01
-1.0899999999999977e+01 +8.1616362366589179e+00 +0.0000000000000000e+00 -1.0899999307954845e+01 +6.1720913886900231e-04 +0.0000000000000000e+00 +9.9999980952642165e-01
-1.0999999999999977e+01 +8.1615742326119403e+00 +0.0000000000000000e+00 -1.0999999288732200e+01 +6.2287180160080049e-04 +0.0000000000000000e+00 +9.9999980601534089e-01
-1.1099999999999977e+01 +8.1615116622984161e+00 +0.0000000000000000e+00 -1.1099999269156843e+01 +6.2853446979165440e-04 +0.0000000000000000e+00 +9.9999980247219100e-01
-1.1199999999999976e+01 +8.1614485257178000e+00 +0.0000000000000000e+00 -1.1199999249225568e+01 +6.3419714344790240e-04 +0.0000000000000000e+00 +9.9999979889697177e-01
-1.1299999999999976e+01 +8.1613848228695449e+00 +0.0000000000000000e+00 -1.1299999228935167e+01 +6.3985982256873708e-04 +0.0000000000000000e+00 +9.9999979528968319e-01
-1.1399999999999975e+01 +8.1613205537531037e+00 +0.0000000000000000e+00 -1.1399999208282434e+01 +6.4552250714620561e-04 +0.0000000000000000e+00 +9.9999979165032504e-01
-1.1499999999999975e+01 +8.1612557183679328e+00 +0.0000000000000000e+00 -1.1499999187264162e+01 +6.5118519716520949e-04 +0.0000000000000000e+00 +9.9999978797889744e-01
-1.1599999999999975e+01 +8.1611903167134887e+00 +0.0000000000000000e+00 -1.1599999165877144e+01 +6.5684789260350468e-04 +0.0000000000000000e+00 +9.9999978427540015e-01
-1.1699999999999974e+01 +8.1611243487892313e+00 +0.0000000000000000e+00 -1.1699999144118172e+01 +6.6251059343170162e-04 +0.0000000000000000e+00 +9.9999978053983318e-01
