# multipoles
# s[mm] polynom_b[n=0][T/m^n] polynom_b[n=1][T/m^n] polynom_b[n=2][T/m^n] polynom_b[n=3][T/m^n] polynom_b[n=4][T/m^n] polynom_b[n=5][T/m^n] polynom_b[n=6][T/m^n] 
+0.0000000000000000e+00 -5.9269356481372859e-01 +8.1094054298097529e+00 -7.9045468874692371e-01 -3.7660218218369607e-01 +6.6211708296554652e+03 -2.1457002339880422e+05 -3.3059305354228768e+07 
+1.0000000000000001e-01 -5.9269364731630025e-01 +8.1093978092312735e+00 -7.9442368669677299e-01 -4.6269711972083336e-02 +6.6969970405336871e+03 -2.1669967247980469e+05 -3.3384980024904966e+07 
+2.0000000000000001e-01 -5.9269373074417031e-01 +8.1093896349471972e+00 -7.9845110839180800e-01 +2.8021351269840467e-01 +6.7743449910455020e+03 -2.1876221191642759e+05 -3.3716959123219930e+07 
+2.9999999999999999e-01 -5.9269381611244265e-01 +8.1093810074293131e+00 -8.0245801805560624e-01 +6.0069801634637732e-01 +6.8519113638740564e+03 -2.2074543490679160e+05 -3.4050006582841322e+07 
+4.0000000000000002e-01 -5.9269390443635350e-01 +8.1093720271633867e+00 -8.0636547618413246e-01 +9.1303389715759353e-01 +6.9283927685354774e+03 -2.2263713212506726e+05 -3.4378885985340983e+07 
+5.0000000000000000e-01 -5.9269399673103251e-01 +8.1093627946264633e+00 -8.1009454475817388e-01 +1.2150715027414163e+00 +7.0024858380851401e+03 -2.2442509567448334e+05 -3.4698361014773190e+07 
+5.9999999999999998e-01 -5.9269409401168360e-01 +8.1093534102916802e+00 -8.1356628404712716e-01 +1.5046612914394459e+00 +7.0728871742053789e+03 -2.2609711827047277e+05 -3.5003195212846927e+07 
+6.9999999999999996e-01 -5.9269419729342998e-01 +8.1093439746370723e+00 -8.1670175647412857e-01 +1.7796535779343854e+00 +7.1382934147065162e+03 -2.2764099177510929e+05 -3.5288152283154465e+07 
+8.0000000000000004e-01 -5.9269430759145425e-01 +8.1093345881285721e+00 -8.1942202074423931e-01 +2.0378990267967096e+00 +7.1974011294047932e+03 -2.2904451005112700e+05 -3.5547995618000075e+07 
+9.0000000000000002e-01 -5.9269442592093979e-01 +8.1093253512344070e+00 -8.2164813492985345e-01 +2.2772482430348959e+00 +7.2489068709772864e+03 -2.3029546659287886e+05 -3.5777488518535882e+07 
+1.0000000000000000e+00 -5.9269455329707899e-01 +8.1093163644148234e+00 -8.2330115554571459e-01 +2.4955520638685869e+00 +7.2915071598103350e+03 -2.3138165620130044e+05 -3.5971394128965773e+07 
+1.1000000000000001e+00 -5.9269469073510328e-01 +8.1093077281223866e+00 -8.2430214201942853e-01 +2.6906615606651179e+00 +7.3238985739354284e+03 -2.3229087501896947e+05 -3.6124475878993981e+07 
+1.2000000000000000e+00 -5.9269483925012723e-01 +8.1092995428067063e+00 -8.2457214950729063e-01 +2.8604279017037588e+00 +7.3447776091735732e+03 -2.3301091972314569e+05 -3.6231496810685255e+07 
+1.3000000000000000e+00 -5.9269499985739615e-01 +8.1092919089055986e+00 -8.2403223138190307e-01 +3.0027026025690096e+00 +7.3528407235178875e+03 -2.3352958895594711e+05 -3.6287219778847978e+07 
+1.3999999999999999e+00 -5.9269517357215118e-01 +8.1092849268522471e+00 -8.2260344144151232e-01 +3.1153373315645680e+00 +7.3467843856087875e+03 -2.3383468222334629e+05 -3.6286407704175435e+07 
+1.5000000000000000e+00 -5.9269536140959234e-01 +8.1092786970683282e+00 -8.2020683108732773e-01 +3.1961841172633814e+00 +7.3253050147159047e+03 -2.3391400111987916e+05 -3.6223823266387790e+07 
+1.6000000000000001e+00 -5.9269556438495186e-01 +8.1092733199671585e+00 -8.1676345167662445e-01 +3.2430952313293635e+00 +7.2870990321271602e+03 -2.3375534856131661e+05 -3.6094229168985188e+07 
+1.7000000000000000e+00 -5.9269578351346275e-01 +8.1092688959508354e+00 -8.1219435376501625e-01 +3.2539233111873229e+00 +7.2308628394813377e+03 -2.3334652960756977e+05 -3.5892388017576031e+07 
+1.8000000000000000e+00 -5.9269601981043674e-01 +8.1092655254086825e+00 -8.0642058205990108e-01 +3.2265213735381097e+00 +7.1552927291274955e+03 -2.3267535144142748e+05 -3.5613061908982582e+07 
+1.8999999999999999e+00 -5.9269627429110350e-01 +8.1092633087230990e+00 -7.9936318457427735e-01 +3.1587426764998141e+00 +7.0590850574463066e+03 -2.3172962265315847e+05 -3.5251013254378304e+07 
+2.0000000000000000e+00 -5.9269654797077287e-01 +8.1092623462539102e+00 -7.9094320616365055e-01 +3.0484411467325785e+00 +6.9409361208911969e+03 -2.3049715563207687e+05 -3.4801004189642191e+07 
+2.1000000000000001e+00 -5.9269684135409428e-01 +8.1092627116214722e+00 -7.8112208582220422e-01 +2.8944001979649223e+00 +6.8001679719156937e+03 -2.2897215906164772e+05 -3.4260268512086891e+07 
+2.2000000000000002e+00 -5.9269715289905933e-01 +8.1092643734478820e+00 -7.7002311447977978e-01 +2.6991299290137407e+00 +6.6386059138581804e+03 -2.2717490343260855e+05 -3.3635902595986724e+07 
+2.2999999999999998e+00 -5.9269748055067151e-01 +8.1092672745713799e+00 -7.5781012756657495e-01 +2.4660753589887734e+00 +6.4587013203733268e+03 -2.2513230201392682e+05 -3.2937463026324924e+07 
+2.3999999999999999e+00 -5.9269782225401613e-01 +8.1092713578442090e+00 -7.4464695847244178e-01 +2.1986811252544625e+00 +6.2629055315953492e+03 -2.2287126596319038e+05 -3.2174506236508403e+07 
+2.5000000000000000e+00 -5.9269817595411656e-01 +8.1092765661251729e+00 -7.3069744143640025e-01 +1.9003917063710194e+00 +6.0536699072917299e+03 -2.2041870566962333e+05 -3.1356588756527159e+07 
+2.6000000000000001e+00 -5.9269853959598362e-01 +8.1092828422864702e+00 -7.1612541291750409e-01 +1.5746512344193635e+00 +5.8334458541726126e+03 -2.1780152969184841e+05 -3.0493267343868632e+07 
+2.7000000000000002e+00 -5.9269891112474804e-01 +8.1092901292095672e+00 -7.0109470954956210e-01 +1.2249035929658532e+00 +5.6046847851177354e+03 -2.1504664528147882e+05 -2.9594098784415893e+07 
+2.7999999999999998e+00 -5.9269928848535747e-01 +8.1092983697947982e+00 -6.8576916974661251e-01 +8.5459216633373281e-01 +5.3698381542383004e+03 -2.1218095701817758e+05 -2.8668640069963358e+07 
+2.8999999999999999e+00 -5.9269966962289944e-01 +8.1093075069480491e+00 -6.7031263328037693e-01 +4.6716020791972157e-01 +5.1313574438051128e+03 -2.0923136891369187e+05 -2.7726448320320182e+07 
+3.0000000000000000e+00 -5.9270005248236901e-01 +8.1093174836028012e+00 -6.5488894177009194e-01 +6.6050202419400961e-02 +4.8916941802866413e+03 -2.0622478070790588e+05 -2.6777080878106397e+07 
+3.1000000000000001e+00 -5.9270043500876379e-01 +8.1093282427039952e+00 -6.3966194065070880e-01 -3.4529563462762558e-01 +4.6532999663271776e+03 -2.0318809089592673e+05 -2.5830095444208633e+07 
+3.2000000000000002e+00 -5.9270081514712225e-01 +8.1093397272217569e+00 -6.2479547510242872e-01 -7.6343580764046126e-01 +4.4186264077505411e+03 -2.0014819395021483e+05 -2.4895049741506685e+07 
+3.2999999999999998e+00 -5.9270119084237238e-01 +8.1093518801447999e+00 -6.1045339386882713e-01 -1.1849292928226420e+00 +4.1901251838675407e+03 -1.9713198194916826e+05 -2.3981501842303876e+07 
+3.3999999999999999e+00 -5.9270156003957564e-01 +8.1093646444863392e+00 -5.9679954881222486e-01 -1.6063357435568113e+00 +3.9702480426976890e+03 -1.9416634329133856e+05 -2.3099010153186634e+07 
+3.5000000000000000e+00 -5.9270192068361127e-01 +8.1093779632854091e+00 -5.8399779353752623e-01 -2.0242155163585900e+00 +3.7614467722956738e+03 -1.9127816259564713e+05 -2.2257133272003409e+07 
+3.6000000000000001e+00 -5.9270227071948955e-01 +8.1093917796007755e+00 -5.7221198463570189e-01 -2.4351294903213119e+00 +3.5661732244944210e+03 -1.8849432177179094e+05 -2.1465430099330384e+07 
+3.7000000000000002e+00 -5.9270260809210273e-01 +8.1094060365292631e+00 -5.6160598402267758e-01 -2.8356396027304926e+00 +3.3868793636938694e+03 -1.8584169691037398e+05 -2.0733460081468087e+07 
+3.7999999999999998e+00 -5.9270293074638558e-01 +8.1094206771928636e+00 -5.5234365291774301e-01 -3.2223084646367139e+00 +3.2260171479745136e+03 -1.8334716055940604e+05 -2.0070782632014606e+07 
+3.8999999999999999e+00 -5.9270323662721358e-01 +8.1094356447451297e+00 -5.4458886168176612e-01 -3.5916995569683157e+00 +3.0860387200765490e+03 -1.8103758056000495e+05 -1.9486958048360460e+07 
+4.0000000000000000e+00 -5.9270352367952173e-01 +8.1094508823686589e+00 -5.3850547797044723e-01 -3.9403771476542069e+00 +2.9693961787972480e+03 -1.7893982056687679e+05 -1.8991546415009312e+07 
+4.0999999999999996e+00 -5.9270379045209931e-01 +8.1094663149642017e+00 -5.3421358011850062e-01 -4.2649499956177079e+00 +2.8779311744119605e+03 -1.7707828576344642e+05 -1.8591782648998167e+07 
+4.2000000000000002e+00 -5.9270403791723092e-01 +8.1094817938422583e+00 -5.3165648225154460e-01 -4.5623778002358346e+00 +2.8110229252682607e+03 -1.7546604983506497e+05 -1.8285562064222071e+07 
+4.2999999999999998e+00 -5.9270426765503059e-01 +8.1094971518405945e+00 -5.3073288929812468e-01 -4.8297542531516147e+00 +2.7674298622370543e+03 -1.7411295223127029e+05 -1.8068436332452811e+07 
+4.4000000000000004e+00 -5.9270448124568709e-01 +8.1095122217831914e+00 -5.3134151143627240e-01 -5.0641727486511856e+00 +2.7459105101540899e+03 -1.7302883384719767e+05 -1.7935957554531377e+07 
+4.5000000000000000e+00 -5.9270468026931000e-01 +8.1095268364902608e+00 -5.3338105623652876e-01 -5.2627266799981607e+00 +2.7452233305875452e+03 -1.7222353528385458e+05 -1.7883677492481899e+07 
+4.5999999999999996e+00 -5.9270486630597818e-01 +8.1095408287679760e+00 -5.3675023838165015e-01 -5.4225091323918244e+00 +2.7641269137600475e+03 -1.7170689865971779e+05 -1.7907148501388513e+07 
+4.7000000000000002e+00 -5.9270504093581489e-01 +8.1095540314191457e+00 -5.4134776961805553e-01 -5.5406132157842887e+00 +2.8013797807157462e+03 -1.7148876560932954e+05 -1.8001922568775870e+07 
+4.7999999999999998e+00 -5.9270520573882690e-01 +8.1095662772266106e+00 -5.4707236768071998e-01 -5.6141315740457891e+00 +2.8557405546786486e+03 -1.7157898015263915e+05 -1.8163552137727097e+07 
+4.9000000000000004e+00 -5.9270536229507009e-01 +8.1095773989704067e+00 -5.5382274723602209e-01 -5.6401569173288886e+00 +2.9259677891897713e+03 -1.7198738550686865e+05 -1.8387589286688667e+07 
+5.0000000000000000e+00 -5.9270551218452416e-01 +8.1095872294105558e+00 -5.6149763082711313e-01 -5.6157814908736565e+00 +3.0108201721307087e+03 -1.7272382725483735e+05 -1.8669586692877073e+07 
+5.0999999999999996e+00 -5.9270565698721922e-01 +8.1095956012977499e+00 -5.6999573767371814e-01 -5.5380974262447200e+00 +3.1090563178399339e+03 -1.7379815119097754e+05 -1.9005096655153327e+07 
+5.2000000000000002e+00 -5.9270579828305958e-01 +8.1096023473647865e+00 -5.7921579366211562e-01 -5.4041964820552195e+00 +3.2194349491299085e+03 -1.7522020485203492e+05 -1.9389671939954840e+07 
+5.2999999999999998e+00 -5.9270593765197988e-01 +8.1096073003313425e+00 -5.8905652346483073e-01 -5.2111701972386690e+00 +3.3407147517753515e+03 -1.7699983657464394e+05 -1.9818865099419627e+07 
+5.4000000000000004e+00 -5.9270607667389597e-01 +8.1096102928952707e+00 -5.9941665602270677e-01 -4.9561096352074738e+00 +3.4716544757191818e+03 -1.7914689700359403e+05 -2.0288228948140096e+07 
+5.5000000000000000e+00 -5.9270621692863412e-01 +8.1096111577415506e+00 -6.1019491949760507e-01 -4.6361056662742719e+00 +3.6110128414926721e+03 -1.8167123736821598e+05 -2.0793316121098302e+07 
+5.5999999999999996e+00 -5.9270635999609755e-01 +8.1096097275362649e+00 -6.2129004874482507e-01 -4.2482487826147617e+00 +3.7575486775520044e+03 -1.8458271059693943e+05 -2.1329679717950568e+07 
+5.7000000000000002e+00 -5.9270650745601228e-01 +8.1096058349203233e+00 -6.3260077727848640e-01 -3.7896289443230029e+00 +3.9100207679813971e+03 -1.8789117211283979e+05 -2.1892872576076750e+07 
+5.7999999999999998e+00 -5.9270666088820878e-01 +8.1095993125183821e+00 -6.4402584212755776e-01 -3.2573358226184883e+00 +4.0671879453049946e+03 -1.9160647848150655e+05 -2.2478447718273338e+07 
+5.9000000000000004e+00 -5.9270682187236090e-01 +8.1095899929301041e+00 -6.5546398335759914e-01 -2.6484585661321285e+00 +4.2278090801332901e+03 -1.9573848868860927e+05 -2.3081958297682572e+07 
+5.9999999999999902e+00 -5.9270699198826993e-01 +8.1095777087384953e+00 -6.6681394169545627e-01 -1.9600860489640917e+00 +4.3906430331558622e+03 -2.0029706276574134e+05 -2.3698957367009185e+07 
+6.0999999999999899e+00 -5.9270717256732441e-01 +8.1095623777601897e+00 -6.7798225010613300e-01 -1.1914681975214521e+00 +4.5544592398832983e+03 -2.0528120784375211e+05 -2.4324891536499202e+07 
+6.1999999999999904e+00 -5.9270736395888135e-01 +8.1095442480299393e+00 -6.8890851290494315e-01 -3.5012770290610346e-01 +4.7181249832989633e+03 -2.1064791380707308e+05 -2.4955065556020997e+07 
+6.2999999999999901e+00 -5.9270756626951970e-01 +8.1095236476245365e+00 -6.9954104235581493e-01 +5.5443206094860520e-01 +4.8805448007224413e+03 -2.1634398973780160e+05 -2.5584815394975957e+07 
+6.3999999999999897e+00 -5.9270777960583465e-01 +8.1095009046075539e+00 -7.0982814532024952e-01 +1.5127082433781383e+00 +5.0406231415144848e+03 -2.2231624786897696e+05 -2.6209476675734725e+07 
+6.4999999999999902e+00 -5.9270800407442692e-01 +8.1094763470280444e+00 -7.1971812103075261e-01 +2.5151985472949114e+00 +5.1972643238330911e+03 -2.2851150376323040e+05 -2.6824384460878316e+07 
+6.5999999999999899e+00 -5.9270823978206644e-01 +8.1094503029205143e+00 -7.2915926246911478e-01 +3.5524012308472774e+00 +5.3493725616916072e+03 -2.3487657630855232e+05 -2.7424873388215832e+07 
+6.6999999999999904e+00 -5.9270848683550270e-01 +8.1094231003054471e+00 -7.3809985462649907e-01 +4.6148151035345819e+00 +5.4958519310064967e+03 -2.4135828773020278e+05 -2.8006277504188567e+07 
+6.7999999999999901e+00 -5.9270874534160256e-01 +8.1093950671835717e+00 -7.4648817211915819e-01 +5.6929397099939756e+00 +5.6356063300167043e+03 -2.4790346468126008e+05 -2.8563930096410785e+07 
+6.8999999999999897e+00 -5.9270901540725940e-01 +8.1093665315410437e+00 -7.5427248646259015e-01 +6.7772751658557402e+00 +5.7675396134885150e+03 -2.5445893725274564e+05 -2.9093164320247494e+07 
+6.9999999999999902e+00 -5.9270929713950338e-01 +8.1093378213488183e+00 -7.6140105610445219e-01 +7.8583221989962881e+00 +5.8905554037224138e+03 -2.6097153925313088e+05 -2.9589312302033238e+07 
+7.0999999999999899e+00 -5.9270959064536177e-01 +8.1093092645569449e+00 -7.6782213363553042e-01 +8.9265823127597201e+00 +6.0035572352617201e+03 -2.6738810915817961e+05 -3.0047705850416973e+07 
+7.1999999999999904e+00 -5.9270989603198210e-01 +8.1092811890994003e+00 -7.7348396004145337e-01 +9.9725576632649666e+00 +6.1054484349747618e+03 -2.7365548941926641e+05 -3.0463675856541201e+07 
+7.2999999999999901e+00 -5.9271021340661034e-01 +8.1092539228883016e+00 -7.7833476871779561e-01 +1.0986751219762779e+01 +6.1951322092350665e+03 -2.7972052737093793e+05 -3.0832552741322778e+07 
+7.3999999999999897e+00 -5.9271054287648073e-01 +8.1092277938242052e+00 -7.8232278375751962e-01 +1.1959666484818685e+01 +6.2715116063130172e+03 -2.8553007365181984e+05 -3.1149666263389807e+07 
+7.4999999999999902e+00 -5.9271088454908161e-01 +8.1092031297801004e+00 -7.8539621667372939e-01 +1.2881807960906432e+01 +6.3334894570501765e+03 -2.9103098489822965e+05 -3.1410345244896550e+07 
+7.5999999999999899e+00 -5.9271123853179097e-01 +8.1091802586149111e+00 -7.8750327137412435e-01 +1.3743680766575466e+01 +6.3799684704936544e+03 -2.9617012154014612e+05 -3.1609918032350559e+07 
+7.6999999999999904e+00 -5.9271160493219177e-01 +8.1091595081613015e+00 -7.8859214116959497e-01 +1.4535790985410259e+01 +6.4098511746472150e+03 -3.0089434979464574e+05 -3.1743712208225559e+07 
+7.7999999999999901e+00 -5.9271198385799395e-01 +8.1091412062348969e+00 -7.8861100446637433e-01 +1.5248645428074237e+01 +6.4220398392986326e+03 -3.0515054035676422e+05 -3.1807054238384649e+07 
+7.8999999999999897e+00 -5.9271237541691157e-01 +8.1091256806289280e+00 -7.8750803271414338e-01 +1.5872751779614561e+01 +6.4154366267953937e+03 -3.0888556922837067e+05 -3.1795270189411424e+07 
+7.9999999999999902e+00 -5.9271277971682546e-01 +8.1091132591135704e+00 -7.8523138397559888e-01 +1.6398618618964221e+01 +6.3889434674282602e+03 -3.1204631769563298e+05 -3.1703685120192915e+07 
+8.0999999999999908e+00 -5.9271319670246680e-01 +8.1091041782233777e+00 -7.8175731618670052e-01 +1.6819345558500636e+01 +6.3419566232951238e+03 -3.1459379411513318e+05 -3.1529672506167248e+07 
+8.1999999999999904e+00 -5.9271362564251195e-01 +8.1090983292715144e+00 -7.7717304241879259e-01 +1.7138167595202432e+01 +6.2757786855020249e+03 -3.1654596529332304e+05 -3.1278365574186631e+07 
+8.2999999999999901e+00 -5.9271406562990292e-01 +8.1090955217457203e+00 -7.7159330539386684e-01 +1.7360815165051278e+01 +6.1921735374066411e+03 -3.1793526549028273e+05 -3.0956735856802519e+07 
+8.3999999999999897e+00 -5.9271451575757583e-01 +8.1090955651601835e+00 -7.6513285242328655e-01 +1.7493018000386268e+01 +6.0929051379316606e+03 -3.1879412532532582e+05 -3.0571755185157798e+07 
+8.4999999999999893e+00 -5.9271497511844984e-01 +8.1090982690643632e+00 -7.5790643569354033e-01 +1.7540504849147922e+01 +5.9797375216412374e+03 -3.1915497001635109e+05 -3.0130395683778837e+07 
+8.5999999999999908e+00 -5.9271544280537380e-01 +8.1091034430365383e+00 -7.5002880872434763e-01 +1.7509003661538543e+01 +5.8544347405336675e+03 -3.1905022046346491e+05 -2.9639629518154319e+07 
+8.6999999999999904e+00 -5.9271591791116696e-01 +8.1091108966911278e+00 -7.4161473198070060e-01 +1.7404241375030999e+01 +5.7187609640900873e+03 -3.1851229201565939e+05 -2.9106429351368736e+07 
+8.7999999999999794e+00 -5.9271639952860344e-01 +8.1091204396720631e+00 -7.3277897115535262e-01 +1.7231944106324491e+01 +5.5744804489864555e+03 -3.1757359557492071e+05 -2.8537768206265997e+07 
+8.8999999999999808e+00 -5.9271688675045675e-01 +8.1091318816640179e+00 -7.2363629531840334e-01 +1.6997836828856112e+01 +5.4233575022338973e+03 -3.1626653575444617e+05 -2.7940619283445124e+07 
+8.9999999999999805e+00 -5.9271737866938223e-01 +8.1091450323824468e+00 -7.1430148045023978e-01 +1.6707643660772067e+01 +5.2671565478130105e+03 -3.1462351255330956e+05 -2.7321956277006727e+07 
+9.0999999999999801e+00 -5.9271787437803636e-01 +8.1091597015870462e+00 -7.0488930566943531e-01 +1.6367087469865542e+01 +5.1076420548621800e+03 -3.1267691906149901e+05 -2.6688753031268269e+07 
+9.1999999999999797e+00 -5.9271837296903374e-01 +8.1091756990716881e+00 -6.9551455494556735e-01 +1.5981890179929247e+01 +4.9465785710308855e+03 -3.1045914327686554e+05 -2.6047983700988356e+07 
+9.2999999999999794e+00 -5.9271887353493602e-01 +8.1091928346699973e+00 -6.8629202211465212e-01 +1.5557772589434997e+01 +4.7857308163946154e+03 -3.0800256701947871e+05 -2.5406623193510808e+07 
+9.3999999999999808e+00 -5.9271937516823325e-01 +8.1092109182577214e+00 -6.7733650179338223e-01 +1.5100454311680165e+01 +4.6268635073755022e+03 -3.0533956560597051e+05 -2.4771646320720188e+07 
+9.4999999999999805e+00 -5.9271987696137496e-01 +8.1092297597537275e+00 -6.6876279731767274e-01 +1.4615653762935320e+01 +4.4717415131524876e+03 -3.0250250785016757e+05 -2.4150028557795871e+07 
+9.5999999999999801e+00 -5.9272037800674227e-01 +8.1092491691133386e+00 -6.6068571983026292e-01 +1.4109088325439380e+01 +4.3221298324478812e+03 -2.9952375691833481e+05 -2.3548745914971851e+07 
+9.6999999999999797e+00 -5.9272087739672397e-01 +8.1092689563486715e+00 -6.5322008270220477e-01 +1.3586473770031537e+01 +4.1797934903742471e+03 -2.9643566702945717e+05 -2.2974774454523135e+07 
+9.7999999999999794e+00 -5.9272137422357796e-01 +8.1092889315024426e+00 -6.4648070793368950e-01 +1.3053525031799403e+01 +4.0464976596418692e+03 -2.9327058801610058e+05 -2.2435090866338708e+07 
+9.8999999999999808e+00 -5.9272186757951772e-01 +8.1093089046730249e+00 -6.4058242601639181e-01 +1.2515955462678853e+01 +3.9240076537773630e+03 -2.9006086092546012e+05 -2.1936672420950904e+07 
+9.9999999999999805e+00 -5.9272235655675687e-01 +8.1093286860025309e+00 -6.3564007091444197e-01 +1.1979477217723446e+01 +3.8140888420123811e+03 -2.8683882016879140e+05 -2.1486496578148596e+07 
+1.0100000000000000e+01 -5.9272284056396896e-01 +8.1093480930231845e+00 -6.3173549499924986e-01 +1.1449504775897120e+01 +3.7180759934604202e+03 -2.8363467968146154e+05 -2.1089923236551456e+07 
