# field on trajectory
# s[mm] rx[mm] ry[mm] rz[mm] bx[T] by[T] bz[T]
-0.0000000000000000e+00 +8.1530000000000005e+00 +0.0000000000000000e+00 -0.0000000000000000e+00 -8.4577865653434484e-04 -5.5249168949550675e-01 -1.0676504654912938e-03
-1.0000000000000001e-01 +8.1529997163961507e+00 +0.0000000000000000e+00 -9.9999999999463796e-02 -8.4540380869234182e-04 -5.5249151117695050e-01 -1.0676831408640234e-03
-2.0000000000000001e-01 +8.1529988655856904e+00 +0.0000000000000000e+00 -1.9999999999571000e-01 -8.4507450795358742e-04 -5.5249133962888630e-01 -1.0677151021916921e-03
-2.9999999999999999e-01 +8.1529974475670297e+00 +0.0000000000000000e+00 -2.9999999998552201e-01 -8.4479492274889298e-04 -5.5249117656976665e-01 -1.0677465942573170e-03
-4.0000000000000002e-01 +8.1529954623438208e+00 +0.0000000000000000e+00 -3.9999999996568297e-01 -8.4456922174528564e-04 -5.5249102371803649e-01 -1.0677778618381044e-03
-5.0000000000000000e-01 +8.1529929099124292e+00 +0.0000000000000000e+00 -4.9999999993297400e-01 -8.4440157389115069e-04 -5.5249088279225456e-01 -1.0678091497037280e-03
-5.9999999999999998e-01 +8.1529897902728408e+00 +0.0000000000000000e+00 -5.9999999988417896e-01 -8.4429614846156522e-04 -5.5249075551103888e-01 -1.0678407026142658e-03
-6.9999999999999996e-01 +8.1529861034287006e+00 +0.0000000000000000e+00 -6.9999999981608096e-01 -8.4425711510354134e-04 -5.5249064359309030e-01 -1.0678727653182936e-03
-8.0000000000000004e-01 +8.1529818493763706e+00 +0.0000000000000000e+00 -7.9999999972546199e-01 -8.4428864388115640e-04 -5.5249054875730530e-01 -1.0679055825511448e-03
-9.0000000000000002e-01 +8.1529770281158598e+00 +0.0000000000000000e+00 -8.9999999960910604e-01 -8.4439490532087973e-04 -5.5249047272271701e-01 -1.0679393990328410e-03
-1.0000000000000000e+00 +8.1529716396507901e+00 +0.0000000000000000e+00 -9.9999999946379403e-01 -8.4458007045678802e-04 -5.5249041720852365e-01 -1.0679744594661927e-03
-1.1000000000000001e+00 +8.1529656839775306e+00 +0.0000000000000000e+00 -1.0999999992863101e+00 -8.4484443354753064e-04 -5.5249038317259147e-01 -1.0680109101376535e-03
-1.2000000000000000e+00 +8.1529591610960797e+00 +0.0000000000000000e+00 -1.1999999990734400e+00 -8.4517277983447352e-04 -5.5249036852640387e-01 -1.0680485037354336e-03
-1.3000000000000000e+00 +8.1529520710100805e+00 +0.0000000000000000e+00 -1.2999999988219599e+00 -8.4554601695336034e-04 -5.5249037041954385e-01 -1.0680868945651565e-03
-1.3999999999999999e+00 +8.1529444137122500e+00 +0.0000000000000000e+00 -1.3999999985286500e+00 -8.4594505204467149e-04 -5.5249038600128375e-01 -1.0681257369563604e-03
-1.5000000000000000e+00 +8.1529361892135093e+00 +0.0000000000000000e+00 -1.4999999981903001e+00 -8.4635079160181551e-04 -5.5249041242027530e-01 -1.0681646852682505e-03
-1.6000000000000001e+00 +8.1529273975065699e+00 +0.0000000000000000e+00 -1.5999999978037001e+00 -8.4674414131884895e-04 -5.5249044682473702e-01 -1.0682033938964233e-03
-1.7000000000000000e+00 +8.1529180385914497e+00 +0.0000000000000000e+00 -1.6999999973656199e+00 -8.4710600593866138e-04 -5.5249048636217135e-01 -1.0682415172786701e-03
-1.8000000000000000e+00 +8.1529081124681397e+00 +0.0000000000000000e+00 -1.7999999968728499e+00 -8.4741728910093432e-04 -5.5249052817933331e-01 -1.0682787099012716e-03
-1.8999999999999999e+00 +8.1528976191402798e+00 +0.0000000000000000e+00 -1.8999999963221601e+00 -8.4765889319019145e-04 -5.5249056942211106e-01 -1.0683146263051246e-03
-2.0000000000000000e+00 +8.1528865586042194e+00 +0.0000000000000000e+00 -1.9999999957103500e+00 -8.4781171918380167e-04 -5.5249060723552312e-01 -1.0683489210920874e-03
-2.1000000000000001e+00 +8.1528749308599799e+00 +0.0000000000000000e+00 -2.0999999950341901e+00 -8.4786164770480515e-04 -5.5249063920324271e-01 -1.0683812865359889e-03
-2.2000000000000002e+00 +8.1528627359111905e+00 +0.0000000000000000e+00 -2.1999999942904802e+00 -8.4781448315863117e-04 -5.5249066466713970e-01 -1.0684115653686237e-03
-2.2999999999999998e+00 +8.1528499737542006e+00 +0.0000000000000000e+00 -2.2999999934759798e+00 -8.4768101124719857e-04 -5.5249068340919127e-01 -1.0684396379040451e-03
-2.3999999999999999e+00 +8.1528366443890299e+00 +0.0000000000000000e+00 -2.3999999925874800e+00 -8.4747201800169372e-04 -5.5249069521191962e-01 -1.0684653844191415e-03
-2.5000000000000000e+00 +8.1528227478193003e+00 +0.0000000000000000e+00 -2.4999999916217801e+00 -8.4719828986501401e-04 -5.5249069985848986e-01 -1.0684886851475531e-03
-2.6000000000000001e+00 +8.1528082840413791e+00 +0.0000000000000000e+00 -2.5999999905756401e+00 -8.4687061377415715e-04 -5.5249069713288868e-01 -1.0685094202737536e-03
-2.7000000000000002e+00 +8.1527932530552807e+00 +0.0000000000000000e+00 -2.6999999894458502e+00 -8.4649977724270337e-04 -5.5249068681993851e-01 -1.0685274699268011e-03
-2.7999999999999998e+00 +8.1527776548646198e+00 +0.0000000000000000e+00 -2.7999999882291999e+00 -8.4609656844325369e-04 -5.5249066870539509e-01 -1.0685427141742660e-03
-2.8999999999999999e+00 +8.1527614894657692e+00 +0.0000000000000000e+00 -2.8999999869224702e+00 -8.4567177628979947e-04 -5.5249064257612501e-01 -1.0685550330163057e-03
-3.0000000000000000e+00 +8.1527447568587394e+00 +0.0000000000000000e+00 -2.9999999855224302e+00 -8.4523619052020744e-04 -5.5249060822012097e-01 -1.0685643063794285e-03
-3.1000000000000001e+00 +8.1527274570471508e+00 +0.0000000000000000e+00 -3.0999999840258798e+00 -8.4480057977935434e-04 -5.5249056660102280e-01 -1.0685705196549864e-03
-3.2000000000000002e+00 +8.1527095900273707e+00 +0.0000000000000000e+00 -3.1999999824295902e+00 -8.4437562571093778e-04 -5.5249052338113247e-01 -1.0685740803568207e-03
-3.2999999999999998e+00 +8.1526911557994008e+00 +0.0000000000000000e+00 -3.2999999807303602e+00 -8.4397198905152232e-04 -5.5249048539734014e-01 -1.0685755015362812e-03
-3.3999999999999999e+00 +8.1526721543668792e+00 +0.0000000000000000e+00 -3.3999999789249502e+00 -8.4360033171564249e-04 -5.5249045948658670e-01 -1.0685752962455923e-03
-3.5000000000000000e+00 +8.1526525857261696e+00 +0.0000000000000000e+00 -3.4999999770101602e+00 -8.4327131687969776e-04 -5.5249045248593920e-01 -1.0685739775389855e-03
-3.6000000000000001e+00 +8.1526324498772702e+00 +0.0000000000000000e+00 -3.5999999749827598e+00 -8.4299560906598995e-04 -5.5249047123250017e-01 -1.0685720584735034e-03
-3.7000000000000002e+00 +8.1526117468238208e+00 +0.0000000000000000e+00 -3.6999999728395401e+00 -8.4278387422664761e-04 -5.5249052256339859e-01 -1.0685700521099613e-03
-3.7999999999999998e+00 +8.1525904765621799e+00 +0.0000000000000000e+00 -3.7999999705772902e+00 -8.4264677982739988e-04 -5.5249061331586691e-01 -1.0685684715140784e-03
-3.8999999999999999e+00 +8.1525686390959908e+00 +0.0000000000000000e+00 -3.8999999681927799e+00 -8.4259499493155251e-04 -5.5249075032712047e-01 -1.0685678297572131e-03
-4.0000000000000000e+00 +8.1525462344179704e+00 +0.0000000000000000e+00 -3.9999999656827998e+00 -8.4263919028361250e-04 -5.5249094043448999e-01 -1.0685686399176033e-03
-4.0999999999999996e+00 +8.1525232625354001e+00 +0.0000000000000000e+00 -4.0999999630441302e+00 -8.4278511565502459e-04 -5.5249118791536944e-01 -1.0685712812058131e-03
-4.2000000000000002e+00 +8.1524997234482708e+00 +0.0000000000000000e+00 -4.1999999602735496e+00 -8.4301883037754609e-04 -5.5249148680759519e-01 -1.0685755973407929e-03
-4.2999999999999998e+00 +8.1524756171529607e+00 +0.0000000000000000e+00 -4.2999999573678496e+00 -8.4332146924387548e-04 -5.5249182858856849e-01 -1.0685812981776573e-03
-4.4000000000000004e+00 +8.1524509436494608e+00 +0.0000000000000000e+00 -4.3999999543238104e+00 -8.4367416478583145e-04 -5.5249220473495408e-01 -1.0685880935842394e-03
-4.5000000000000000e+00 +8.1524257029377605e+00 +0.0000000000000000e+00 -4.4999999511382098e+00 -8.4405804712098145e-04 -5.5249260672266232e-01 -1.0685956934422419e-03
-4.5999999999999996e+00 +8.1523998950215208e+00 +0.0000000000000000e+00 -4.5999999478078299e+00 -8.4445424379936775e-04 -5.5249302602677264e-01 -1.0686038076482883e-03
-4.7000000000000002e+00 +8.1523735198970808e+00 +0.0000000000000000e+00 -4.6999999443294600e+00 -8.4484387965018544e-04 -5.5249345412157103e-01 -1.0686121461151929e-03
-4.7999999999999998e+00 +8.1523465775644599e+00 +0.0000000000000000e+00 -4.7999999406998803e+00 -8.4520807662865759e-04 -5.5249388248041975e-01 -1.0686204187729035e-03
-4.9000000000000004e+00 +8.1523190680272801e+00 +0.0000000000000000e+00 -4.8999999369158704e+00 -8.4552795366287198e-04 -5.5249430257571053e-01 -1.0686283355696093e-03
-5.0000000000000000e+00 +8.1522909912819195e+00 +0.0000000000000000e+00 -4.9999999329742204e+00 -8.4578462650062387e-04 -5.5249470587890004e-01 -1.0686356064730134e-03
-5.0999999999999996e+00 +8.1522623473319999e+00 +0.0000000000000000e+00 -5.0999999288717000e+00 -8.4596303085321574e-04 -5.5249508545814774e-01 -1.0686419868633772e-03
-5.2000000000000002e+00 +8.1522331361738907e+00 +0.0000000000000000e+00 -5.1999999246051098e+00 -8.4606339351072453e-04 -5.5249544077234880e-01 -1.0686474137084094e-03
-5.2999999999999998e+00 +8.1522033578075899e+00 +0.0000000000000000e+00 -5.2999999201712198e+00 -8.4608976472919963e-04 -5.5249577287865048e-01 -1.0686518693817009e-03
-5.4000000000000004e+00 +8.1521730122331100e+00 +0.0000000000000000e+00 -5.3999999155668199e+00 -8.4604619528839595e-04 -5.5249608283485085e-01 -1.0686553362702809e-03
-5.5000000000000000e+00 +8.1521420994540694e+00 +0.0000000000000000e+00 -5.4999999107886799e+00 -8.4593673653468072e-04 -5.5249637169941046e-01 -1.0686577967751883e-03
-5.5999999999999996e+00 +8.1521106194668391e+00 +0.0000000000000000e+00 -5.5999999058335996e+00 -8.4576544042389370e-04 -5.5249664053157010e-01 -1.0686592333122528e-03
-5.7000000000000002e+00 +8.1520785722750606e+00 +0.0000000000000000e+00 -5.6999999006983604e+00 -8.4553635956432019e-04 -5.5249689039127625e-01 -1.0686596283124980e-03
-5.7999999999999998e+00 +8.1520459578750906e+00 +0.0000000000000000e+00 -5.7999998953797300e+00 -8.4525354725955464e-04 -5.5249712233932979e-01 -1.0686589642229787e-03
-5.9000000000000004e+00 +8.1520127762669308e+00 +0.0000000000000000e+00 -5.8999998898744996e+00 -8.4492105755148484e-04 -5.5249733743733753e-01 -1.0686572235072355e-03
-5.9999999999999902e+00 +8.1519790274505795e+00 +0.0000000000000000e+00 -5.9999998841794504e+00 -8.4454294526322760e-04 -5.5249753674777635e-01 -1.0686543886459668e-03
-6.0999999999999899e+00 +8.1519447114296799e+00 +0.0000000000000000e+00 -6.0999998782913698e+00 -8.4412510080602492e-04 -5.5249772181430334e-01 -1.0686504604469386e-03
-6.1999999999999904e+00 +8.1519098282005906e+00 +0.0000000000000000e+00 -6.1999998722070400e+00 -8.4368075508487286e-04 -5.5249789610259370e-01 -1.0686455129846424e-03
-6.2999999999999901e+00 +8.1518743777669407e+00 +0.0000000000000000e+00 -6.2999998659232403e+00 -8.4322497622127054e-04 -5.5249806355903486e-01 -1.0686396386916598e-03
-6.3999999999999897e+00 +8.1518383601214701e+00 +0.0000000000000000e+00 -6.3999998594367504e+00 -8.4277283501815931e-04 -5.5249822813053018e-01 -1.0686329300539465e-03
-6.4999999999999902e+00 +8.1518017752750893e+00 +0.0000000000000000e+00 -6.4999998527443603e+00 -8.4233940506871349e-04 -5.5249839376429044e-01 -1.0686254796122940e-03
-6.5999999999999899e+00 +8.1517646232205205e+00 +0.0000000000000000e+00 -6.5999998458428504e+00 -8.4193976286456459e-04 -5.5249856440812506e-01 -1.0686173799647684e-03
-6.6999999999999904e+00 +8.1517269039541098e+00 +0.0000000000000000e+00 -6.6999998387290001e+00 -8.4158898790438730e-04 -5.5249874401028942e-01 -1.0686087237682810e-03
-6.7999999999999901e+00 +8.1516886174867995e+00 +0.0000000000000000e+00 -6.7999998313996004e+00 -8.4130216280236961e-04 -5.5249893651941351e-01 -1.0685996037403148e-03
-6.8999999999999897e+00 +8.1516497638112906e+00 +0.0000000000000000e+00 -6.8999998238514202e+00 -8.4109437339618617e-04 -5.5249914588476623e-01 -1.0685901126613073e-03
-6.9999999999999902e+00 +8.1516103429239593e+00 +0.0000000000000000e+00 -6.9999998160812602e+00 -8.4098070885538668e-04 -5.5249937605610011e-01 -1.0685803433762100e-03
-7.0999999999999899e+00 +8.1515703548320708e+00 +0.0000000000000000e+00 -7.0999998080858804e+00 -8.4097120054214716e-04 -5.5249962973435618e-01 -1.0685703614576731e-03
-7.1999999999999904e+00 +8.1515297995356395e+00 +0.0000000000000000e+00 -7.1999997998620904e+00 -8.4105563612046235e-04 -5.5249990462326715e-01 -1.0685601231238998e-03
-7.2999999999999901e+00 +8.1514886770310095e+00 +0.0000000000000000e+00 -7.2999997914066501e+00 -8.4121873960874005e-04 -5.5250019717578658e-01 -1.0685495571345570e-03
-7.3999999999999897e+00 +8.1514469873182005e+00 +0.0000000000000000e+00 -7.3999997827163604e+00 -8.4144523204276902e-04 -5.5250050384305693e-01 -1.0685385921077781e-03
-7.4999999999999902e+00 +8.1514047304008308e+00 +0.0000000000000000e+00 -7.4999997737879900e+00 -8.4171983136034200e-04 -5.5250082107434428e-01 -1.0685271565150044e-03
-7.5999999999999899e+00 +8.1513619062752696e+00 +0.0000000000000000e+00 -7.5999997646183202e+00 -8.4202725228583910e-04 -5.5250114531705785e-01 -1.0685151786759954e-03
-7.6999999999999904e+00 +8.1513185149451601e+00 +0.0000000000000000e+00 -7.6999997552041499e+00 -8.4235220621508417e-04 -5.5250147301657371e-01 -1.0685025867534620e-03
-7.7999999999999901e+00 +8.1512745564032194e+00 +0.0000000000000000e+00 -7.7999997455422498e+00 -8.4267940109997521e-04 -5.5250180061630949e-01 -1.0684893087481947e-03
-7.8999999999999897e+00 +8.1512300306567305e+00 +0.0000000000000000e+00 -7.8999997356294100e+00 -8.4299354133351772e-04 -5.5250212455746606e-01 -1.0684752724935426e-03
-7.9999999999999902e+00 +8.1511849377056897e+00 +0.0000000000000000e+00 -7.9999997254624002e+00 -8.4327932763453772e-04 -5.5250244127912829e-01 -1.0684604056506062e-03
-8.0999999999999908e+00 +8.1511392775464593e+00 +0.0000000000000000e+00 -8.0999997150380096e+00 -8.4352373162415047e-04 -5.5250274783198172e-01 -1.0684447643671043e-03
-8.1999999999999904e+00 +8.1510930501790408e+00 +0.0000000000000000e+00 -8.1999997043530293e+00 -8.4372282092871345e-04 -5.5250304372034209e-01 -1.0684289193271350e-03
-8.2999999999999901e+00 +8.1510462556034309e+00 +0.0000000000000000e+00 -8.2999996934042404e+00 -8.4387493686698090e-04 -5.5250332906195254e-01 -1.0684135698567989e-03
-8.3999999999999897e+00 +8.1509988938232691e+00 +0.0000000000000000e+00 -8.3999996821884100e+00 -8.4397841996654191e-04 -5.5250360397431342e-01 -1.0683994152725252e-03
-8.4999999999999893e+00 +8.1509509648349194e+00 +0.0000000000000000e+00 -8.4999996707023406e+00 -8.4403160994694210e-04 -5.5250386857476541e-01 -1.0683871548813830e-03
-8.5999999999999908e+00 +8.1509024686420197e+00 +0.0000000000000000e+00 -8.5999996589427994e+00 -8.4403284570297411e-04 -5.5250412298038043e-01 -1.0683774879810105e-03
-8.6999999999999904e+00 +8.1508534052409196e+00 +0.0000000000000000e+00 -8.6999996469065692e+00 -8.4398046528786003e-04 -5.5250436730807206e-01 -1.0683711138599786e-03
-8.7999999999999794e+00 +8.1508037746316404e+00 +0.0000000000000000e+00 -8.7999996345904599e+00 -8.4387280589660343e-04 -5.5250460167451509e-01 -1.0683687317977616e-03
-8.8999999999999808e+00 +8.1507535768178094e+00 +0.0000000000000000e+00 -8.8999996219912205e+00 -8.4370820384932499e-04 -5.5250482619614494e-01 -1.0683710410648777e-03
-8.9999999999999805e+00 +8.1507028117957798e+00 +0.0000000000000000e+00 -8.9999996091056396e+00 -8.4348499457458852e-04 -5.5250504098924347e-01 -1.0683787409231822e-03
-9.0999999999999801e+00 +8.1506514795655693e+00 +0.0000000000000000e+00 -9.0999995959305195e+00 -8.4320418763941482e-04 -5.5250524659915512e-01 -1.0683922540963493e-03
-9.1999999999999797e+00 +8.1505995801308000e+00 +0.0000000000000000e+00 -9.1999995824626293e+00 -8.4287749373406179e-04 -5.5250544528927592e-01 -1.0684108972054823e-03
-9.2999999999999794e+00 +8.1505471134878498e+00 +0.0000000000000000e+00 -9.2999995686987500e+00 -8.4251930255467968e-04 -5.5250563975512401e-01 -1.0684337104302636e-03
-9.3999999999999808e+00 +8.1504940796366991e+00 +0.0000000000000000e+00 -9.3999995546356701e+00 -8.4214400824494571e-04 -5.5250583269529441e-01 -1.0684597340570388e-03
-9.4999999999999805e+00 +8.1504404785773694e+00 +0.0000000000000000e+00 -9.4999995402701707e+00 -8.4176600951976874e-04 -5.5250602681157401e-01 -1.0684880084820842e-03
-9.5999999999999801e+00 +8.1503863103171206e+00 +0.0000000000000000e+00 -9.5999995255990296e+00 -8.4139970978898502e-04 -5.5250622480897338e-01 -1.0685175742147144e-03
-9.6999999999999797e+00 +8.1503315748450404e+00 +0.0000000000000000e+00 -9.6999995106190298e+00 -8.4105951728070342e-04 -5.5250642939600558e-01 -1.0685474718808725e-03
-9.7999999999999794e+00 +8.1502762721684103e+00 +0.0000000000000000e+00 -9.7999994953269702e+00 -8.4075984516504413e-04 -5.5250664328449817e-01 -1.0685767422258061e-03
-9.8999999999999808e+00 +8.1502204022835905e+00 +0.0000000000000000e+00 -9.8999994797196091e+00 -8.4051511167726933e-04 -5.5250686918989977e-01 -1.0686044261177126e-03
-9.9999999999999805e+00 +8.1501639651905897e+00 +0.0000000000000000e+00 -9.9999994637937508e+00 -8.4033974024116823e-04 -5.5250710983125706e-01 -1.0686295645507442e-03
-1.0100000000000000e+01 +8.1501069608966592e+00 +0.0000000000000000e+00 -1.0099999447546200e+01 -8.4024433236561580e-04 -5.5250736780901166e-01 -1.0686513372044134e-03
-1.0199999999999999e+01 +8.1500493893909205e+00 +0.0000000000000000e+00 -1.0199999430973600e+01 -8.4022418293596508e-04 -5.5250764523669049e-01 -1.0686694781080971e-03
-1.0300000000000001e+01 +8.1499912506769796e+00 +0.0000000000000000e+00 -1.0299999414073000e+01 -8.4027075696056861e-04 -5.5250794410432014e-01 -1.0686838599407193e-03
-1.0400000000000000e+01 +8.1499325447584905e+00 +0.0000000000000000e+00 -1.0399999396840901e+01 -8.4037551611517520e-04 -5.5250826640031137e-01 -1.0686943554681246e-03
-1.0500000000000000e+01 +8.1498732716317992e+00 +0.0000000000000000e+00 -1.0499999379274200e+01 -8.4052991865334536e-04 -5.5250861411147034e-01 -1.0687008375451809e-03
-1.0600000000000000e+01 +8.1498134313005703e+00 +0.0000000000000000e+00 -1.0599999361369800e+01 -8.4072541931708427e-04 -5.5250898922284308e-01 -1.0687031791175618e-03
-1.0699999999999999e+01 +8.1497530237611500e+00 +0.0000000000000000e+00 -1.0699999343124301e+01 -8.4095346924725192e-04 -5.5250939371778085e-01 -1.0687012532239555e-03
-1.0800000000000001e+01 +8.1496920490171796e+00 +0.0000000000000000e+00 -1.0799999324534600e+01 -8.4120551589424782e-04 -5.5250982957778383e-01 -1.0686949329978507e-03
-1.0900000000000000e+01 +8.1496305070650106e+00 +0.0000000000000000e+00 -1.0899999305597399e+01 -8.4147300292849178e-04 -5.5251029878256763e-01 -1.0686840916697483e-03
-1.1000000000000000e+01 +8.1495683979046607e+00 +0.0000000000000000e+00 -1.0999999286309500e+01 -8.4174737015113490e-04 -5.5251080330993418e-01 -1.0686686025690036e-03
-1.1100000000000000e+01 +8.1495057215361193e+00 +0.0000000000000000e+00 -1.1099999266667700e+01 -8.4202007573537150e-04 -5.5251134390861900e-01 -1.0686484373974268e-03
-1.1199999999999999e+01 +8.1494424779630208e+00 +0.0000000000000000e+00 -1.1199999246668799e+01 -8.4228266386095956e-04 -5.5251191641683473e-01 -1.0686239610174190e-03
-1.1300000000000001e+01 +8.1493786671817396e+00 +0.0000000000000000e+00 -1.1299999226309600e+01 -8.4252669893162917e-04 -5.5251251544400393e-01 -1.0685956365695968e-03
-1.1400000000000000e+01 +8.1493142891922599e+00 +0.0000000000000000e+00 -1.1399999205586900e+01 -8.4274374338431371e-04 -5.5251313559786230e-01 -1.0685639271872484e-03
-1.1500000000000000e+01 +8.1492493440018698e+00 +0.0000000000000000e+00 -1.1499999184497300e+01 -8.4292535765008664e-04 -5.5251377148439484e-01 -1.0685292959957328e-03
-1.1600000000000000e+01 +8.1491838315996592e+00 +0.0000000000000000e+00 -1.1599999163037801e+01 -8.4306310011504940e-04 -5.5251441770799214e-01 -1.0684922061122968e-03
-1.1699999999999999e+01 +8.1491177519928897e+00 +0.0000000000000000e+00 -1.1699999141205099e+01 -8.4314852708161582e-04 -5.5251506887114132e-01 -1.0684531206450020e-03
