# multipoles
# s[mm] polynom_b[n=0][T/m^n] polynom_b[n=1][T/m^n] polynom_b[n=2][T/m^n] polynom_b[n=3][T/m^n] polynom_b[n=4][T/m^n] polynom_b[n=5][T/m^n] polynom_b[n=6][T/m^n] 
-0.0000000000000000e+00 -5.5249188478616928e-01 +7.5972289953785568e+00 -8.3709989587871389e-02 -1.7377887587346596e+01 -9.3529233586635328e+03 -8.2548835178626527e+04 +2.8824951459139626e+07 
-1.0000000000000001e-01 -5.5249188287505935e-01 +7.5972443456923298e+00 -8.7580530498907086e-02 -1.8146865207032516e+01 -9.2541887855987552e+03 -7.8653780030493421e+04 +2.8368480988400124e+07 
-2.0000000000000001e-01 -5.5249189077789684e-01 +7.5972519036648780e+00 -8.9884115843834586e-02 -1.8747104654940372e+01 -9.1850503626510872e+03 -7.5582826800218681e+04 +2.8051186401179228e+07 
-2.9999999999999999e-01 -5.5249190646584401e-01 +7.5972511406241461e+00 -9.0736016613368678e-02 -1.9153738705827955e+01 -9.1431228874843637e+03 -7.3486096729834535e+04 +2.7859795680747982e+07 
-4.0000000000000002e-01 -5.5249192790996560e-01 +7.5972415278935559e+00 -9.0251509116847303e-02 -1.9341899933075734e+01 -9.1260210889852351e+03 -7.2513712538358304e+04 +2.7781036619690415e+07 
-5.0000000000000000e-01 -5.5249195308136190e-01 +7.5972225367849608e+00 -8.8545869971734567e-02 -1.9286720520587576e+01 -9.1313597280069644e+03 -7.2815799373781076e+04 +2.7801637321938675e+07 
-5.9999999999999998e-01 -5.5249197995109656e-01 +7.5971936386059369e+00 -8.5734375402028162e-02 -1.8963332476898049e+01 -9.1567536097967404e+03 -7.4542483497711000e+04 +2.7908326264747575e+07 
-6.9999999999999996e-01 -5.5249200649014685e-01 +7.5971543046566499e+00 -8.1932307219248365e-02 -1.8346867565052172e+01 -9.1998174730475239e+03 -7.7843892539859648e+04 +2.8087831783529039e+07 
-8.0000000000000004e-01 -5.5249203066952057e-01 +7.5971040062327306e+00 -7.7254948877991544e-02 -1.7412457398098400e+01 -9.2581660667109409e+03 -8.2870154834782530e+04 +2.8326882447666287e+07 
-9.0000000000000002e-01 -5.5249205046013672e-01 +7.5970422146266321e+00 -7.1817590560904990e-02 -1.6135233485483933e+01 -9.3294140530933746e+03 -8.9771399051307642e+04 +2.8612206605870534e+07 
-1.0000000000000000e+00 -5.5249206383285199e-01 +7.5969684011279064e+00 -6.5735525273769732e-02 -1.4490327258551178e+01 -9.4111760878747009e+03 -9.8697753913844426e+04 +2.8930532786219202e+07 
-1.1000000000000001e+00 -5.5249206918646621e-01 +7.5968826429343492e+00 -5.9121669193743252e-02 -1.2472282475984354e+01 -9.5012765719258114e+03 -1.0968670725868213e+05 +2.9270374108443595e+07 
-1.2000000000000000e+00 -5.5249206662431871e-01 +7.5967874408091074e+00 -5.2084553693663001e-02 -1.0153121843493260e+01 -9.5982264954456550e+03 -1.2232660718949068e+05 +2.9626514794758990e+07 
-1.3000000000000000e+00 -5.5249205667404411e-01 +7.5966859014720916e+00 -4.4732904385739125e-02 -7.6241985956036604e+00 -9.7006702891034129e+03 -1.3609385123809444e+05 +2.9995089790501781e+07 
-1.3999999999999999e+00 -5.5249203986344231e-01 +7.5965811316512770e+00 -3.7175438822020096e-02 -4.9768661781464640e+00 -9.8072524938580955e+03 -1.5046483567239798e+05 +3.0372234347755145e+07 
-1.5000000000000000e+00 -5.5249201672026005e-01 +7.5964762380788207e+00 -2.9520866814072590e-02 -2.3024781330511321e+00 -9.9166177412166999e+03 -1.6491595620195733e+05 +3.0754083865177561e+07 
-1.6000000000000001e+00 -5.5249198777250474e-01 +7.5963743274972018e+00 -2.1877886124927633e-02 +3.0761172513405971e-01 -1.0027410820742840e+04 -1.7892360696967129e+05 +3.1136774140613616e+07 
-1.7000000000000000e+00 -5.5249195354820957e-01 +7.5962785066578036e+00 -1.4355188609525005e-02 +2.7620493420763546e+00 -1.0138276549006607e+04 -1.9196418074258562e+05 +3.1516440680269171e+07 
-1.8000000000000000e+00 -5.5249191457559232e-01 +7.5961918823236667e+00 -7.0614476651861477e-03 +4.9694803541218535e+00 -1.0247859994243043e+04 -2.0351406855554055e+05 +3.1889219699933477e+07 
-1.8999999999999999e+00 -5.5249187138296030e-01 +7.5961175612698559e+00 -1.0532720581411062e-04 +6.8385500731805848e+00 -1.0354806293197680e+04 -2.1304965963214741e+05 +3.2251247191696070e+07 
-2.0000000000000000e+00 -5.5249182449889778e-01 +7.5960586502861114e+00 +6.4045307042703160e-03 +8.2779034164032321e+00 -1.0457760870020968e+04 -2.2004734101624647e+05 +3.2598659890743904e+07 
-2.1000000000000001e+00 -5.5249177456757281e-01 +7.5960173154471322e+00 +1.2386999367613522e-02 +9.2236691795154950e+00 -1.0555816505889348e+04 -2.2414425468727812e+05 +3.2929706333070286e+07 
-2.2000000000000002e+00 -5.5249172275218261e-01 +7.5959919525785935e+00 +1.7891891724703433e-02 +9.7220497214239874e+00 -1.0650393533451932e+04 -2.2562167529621295e+05 +3.3254085316637013e+07 
-2.2999999999999998e+00 -5.5249167035997426e-01 +7.5959800125007702e+00 +2.3006988370705167e-02 +9.8468226531673704e+00 -1.0743628891739070e+04 -2.2492233635500050e+05 +3.3585109941215008e+07 
-2.3999999999999999e+00 -5.5249161869808117e-01 +7.5959789460485778e+00 +2.7820060250784168e-02 +9.6717651352659963e+00 -1.0837659363940691e+04 -2.2248896905127150e+05 +3.3936092738850273e+07 
-2.5000000000000000e+00 -5.5249156907344665e-01 +7.5959862040747224e+00 +3.2418858970579549e-02 +9.2706537930077459e+00 -1.0934621398234403e+04 -2.1876430182211698e+05 +3.4320344856103443e+07 
-2.6000000000000001e+00 -5.5249152279292824e-01 +7.5959992374501857e+00 +3.6891120597305385e-02 +8.7172646775580116e+00 -1.1036651191515793e+04 -2.1419106009474941e+05 +3.4751176502849311e+07 
-2.7000000000000002e+00 -5.5249148116316904e-01 +7.5960154970656264e+00 +4.1324558961703665e-02 +8.0853732392112043e+00 -1.1145884560306031e+04 -2.0921196622374159e+05 +3.5241896353270493e+07 
-2.7999999999999998e+00 -5.5249144549061657e-01 +7.5960324338312635e+00 +4.5806869731945664e-02 +7.4487543081577572e+00 -1.1264457035727981e+04 -2.0426973936211446e+05 +3.5805812065464504e+07 
-2.8999999999999999e+00 -5.5249141708154048e-01 +7.5960474986816351e+00 +5.0425721358910332e-02 +6.8811819698620500e+00 -1.1394503688557616e+04 -1.9980709481356354e+05 +3.6456229461262926e+07 
-3.0000000000000000e+00 -5.5249139724196561e-01 +7.5960581425730824e+00 +5.5268758447651382e-02 +6.4564296156392365e+00 -1.1538159208819190e+04 -1.9626674431558530e+05 +3.7206452968364425e+07 
-3.1000000000000001e+00 -5.5249138748010318e-01 +7.5960624000575381e+00 +6.0429810137006656e-02 +6.2310926276578105e+00 -1.1697134750370820e+04 -1.9398731143277846e+05 +3.8065712349926330e+07 
-3.2000000000000002e+00 -5.5249139005285974e-01 +7.5960606680362224e+00 +6.6006893668318897e-02 +6.1915193320892641e+00 -1.1870918840309763e+04 -1.9287932853857803e+05 +3.9023921250113897e+07 
-3.2999999999999998e+00 -5.5249140738925506e-01 +7.5960539418855388e+00 +7.2093908190772008e-02 +6.3060780347701373e+00 -1.2058310484868882e+04 -1.9274313114244113e+05 +4.0065396269602381e+07 
-3.3999999999999999e+00 -5.5249144191841348e-01 +7.5960432169053549e+00 +7.8784771313592294e-02 +6.5431393059584968e+00 -1.2258109061538718e+04 -1.9337906776826136e+05 +4.1174455822786517e+07 
-3.5000000000000000e+00 -5.5249149606963144e-01 +7.5960294883120589e+00 +8.6173417616359757e-02 +6.8710762089898330e+00 -1.2469114296954787e+04 -1.9458750135219769e+05 +4.2335420054080799e+07 
-3.6000000000000001e+00 -5.5249157227234835e-01 +7.5960137512291830e+00 +9.4353805798159329e-02 +7.2582645755828432e+00 -1.2690126405746099e+04 -1.9616881082987669e+05 +4.3532611503623143e+07 
-3.7000000000000002e+00 -5.5249167295610402e-01 +7.5959970006770803e+00 +1.0341991269009182e-01 +7.6730833095143423e+00 -1.2919945972973044e+04 -1.9792339288359098e+05 +4.4750354536959268e+07 
-3.7999999999999998e+00 -5.5249180055068725e-01 +7.5959802315760410e+00 +1.1346574298283033e-01 +8.0839143023647306e+00 -1.3157374149729965e+04 -1.9965166143252829e+05 +4.5972976303161971e+07 
-3.8999999999999999e+00 -5.5249195748598012e-01 +7.5959644387300207e+00 +1.2458532219088134e-01 +8.4591429130608411e+00 -1.3401212511500555e+04 -2.0115405042033829e+05 +4.7184806038319230e+07 
-4.0000000000000000e+00 -5.5249214619216702e-01 +7.5959506168273379e+00 +1.3687270733167209e-01 +8.7671579303119493e+00 -1.3650263274746389e+04 -2.0223101348862590e+05 +4.8370176134309538e+07 
-4.0999999999999996e+00 -5.5249236756921938e-01 +7.5959396583863095e+00 +1.5034067216622396e-01 +8.9799761280781745e+00 -1.3902881041798355e+04 -2.0270830858484993e+05 +4.9514848587084070e+07 
-4.2000000000000002e+00 -5.5249261642294634e-01 +7.5959319948045092e+00 +1.6468353619537279e-01 +9.0869913919696081e+00 -1.4155813933987207e+04 -2.0253462622347751e+05 +5.0611440733526520e+07 
-4.2999999999999998e+00 -5.5249288604155977e-01 +7.5959279285954313e+00 +1.7951767472365127e-01 +9.0826794863162785e+00 -1.4405457481680160e+04 -2.0169498105575430e+05 +5.1654595755800687e+07 
-4.4000000000000004e+00 -5.5249316971327578e-01 +7.5959277623785129e+00 +1.9445946524470886e-01 +8.9615132251986047e+00 -1.4648207234698333e+04 -2.0017437191045762e+05 +5.2638956890062362e+07 
-4.5000000000000000e+00 -5.5249346072637251e-01 +7.5959317988999269e+00 +2.0912529083864073e-01 +8.7179618458224084e+00 -1.4880458820551454e+04 -1.9795777806492368e+05 +5.3559167678223059e+07 
-4.5999999999999996e+00 -5.5249375236913989e-01 +7.5959403410311515e+00 +2.2313153752469059e-01 +8.3464910430659867e+00 -1.5098607892397751e+04 -1.9503015947167127e+05 +5.4409871713717908e+07 
-4.7000000000000002e+00 -5.5249403792998830e-01 +7.5959536917837749e+00 +2.3609459678879399e-01 +7.8415625488652427e+00 -1.5299050172516163e+04 -1.9137645438462988e+05 +5.5185712836209215e+07 
-4.7999999999999998e+00 -5.5249431069735222e-01 +7.5959721543096395e+00 +2.4763086439501442e-01 +7.1976341352510209e+00 -1.5478181431568681e+04 -1.8698157945596750e+05 +5.5881335039098933e+07 
-4.9000000000000004e+00 -5.5249456395970264e-01 +7.5959960319169300e+00 +2.5735674126792241e-01 +6.4091591396923544e+00 -1.5632397500706489e+04 -1.8183042699724803e+05 +5.6491382514264442e+07 
-5.0000000000000000e+00 -5.5249479100560617e-01 +7.5960256280713141e+00 +2.6488863042786964e-01 +5.4705864952521130e+00 -1.5758094204543264e+04 -1.7590786545219232e+05 +5.7010499297831789e+07 
-5.0999999999999996e+00 -5.5249498683747700e-01 +7.5960609445968128e+00 +2.6992237438032024e-01 +4.3846071099336719e+00 -1.5852160645259335e+04 -1.6924425065625130e+05 +5.7432580137709670e+07 
-5.2000000000000002e+00 -5.5249515327609711e-01 +7.5961008400016743e+00 +2.7247628836976084e-01 +3.1838279345009566e+00 -1.5913619520000619e+04 -1.6202936587232570e+05 +5.7749444613102630e+07 
-5.2999999999999998e+00 -5.5249529383821505e-01 +7.5961439023360082e+00 +2.7265045794696791e-01 +1.9075873534255163e+00 -1.5942062825686533e+04 -1.5448730582873171e+05 +5.7952587711676635e+07 
-5.4000000000000004e+00 -5.5249541204029995e-01 +7.5961887196353697e+00 +2.7054493359723686e-01 +5.9522340841545951e-01 -1.5937081898984199e+04 -1.4684215920186872e+05 +5.8033501329699308e+07 
-5.5000000000000000e+00 -5.5249551139852271e-01 +7.5962338799106970e+00 +2.6625973184119289e-01 -7.1392589393974781e-01 -1.5898267442228815e+04 -1.3931801045107446e+05 +5.7983674421351895e+07 
-5.5999999999999996e+00 -5.5249559542880655e-01 +7.5962779711557511e+00 +2.5989483150306919e-01 -1.9805228446435423e+00 -1.5825209455128266e+04 -1.3213893807093980e+05 +5.7794592684246816e+07 
-5.7000000000000002e+00 -5.5249566764671865e-01 +7.5963195813367488e+00 +2.5155017357488801e-01 -3.1652297581095117e+00 -1.5717497230620706e+04 -1.2552901600802159e+05 +5.7457738536288917e+07 
-5.7999999999999998e+00 -5.5249573156756815e-01 +7.5963572983989733e+00 +2.4132566013846876e-01 -4.2287092010379252e+00 -1.5574719336552838e+04 -1.1971231213560887e+05 +5.6964591035265625e+07 
-5.9000000000000004e+00 -5.5249579070627597e-01 +7.5963897102579088e+00 +2.2932114791942299e-01 -5.1316237768429813e+00 -1.5396463492383864e+04 -1.1491288928982275e+05 +5.6306625293259844e+07 
-5.9999999999999902e+00 -5.5249584857745482e-01 +7.5964154048054695e+00 +2.1563645628810513e-01 -5.8346363750597110e+00 -1.5182316735391965e+04 -1.1135480351860861e+05 +5.5475313312200852e+07 
-6.0999999999999899e+00 -5.5249590869568999e-01 +7.5964334412323060e+00 +2.0042153560112438e-01 -6.3105057719459854e+00 -1.4933158171048737e+04 -1.0919466080817230e+05 +5.4469016502245955e+07 
-6.1999999999999904e+00 -5.5249597453580335e-01 +7.5964446939377321e+00 +1.8400231768955999e-01 -6.5780419463886437e+00 -1.4654438618737251e+04 -1.0833284465230689e+05 +5.3310401940053903e+07 
-6.2999999999999901e+00 -5.5249604955316367e-01 +7.5964504755439508e+00 +1.6674282815734709e-01 -6.6670498110812488e+00 -1.4352609547498494e+04 -1.0860864777012034e+05 +5.2027438500046648e+07 
-6.3999999999999897e+00 -5.5249613720336521e-01 +7.5964520985709756e+00 +1.4900710123960198e-01 -6.6073307379373247e+00 -1.4034122496688846e+04 -1.0986138559674885e+05 +5.0648095028604820e+07 
-6.4999999999999902e+00 -5.5249624094209904e-01 +7.5964508754302171e+00 +1.3115919203917331e-01 -6.4286823449356332e+00 -1.3705429312905431e+04 -1.1193039772270544e+05 +4.9200341487289719e+07 
-6.5999999999999899e+00 -5.5249636422537685e-01 +7.5964481184227708e+00 +1.1356316871774086e-01 -6.1608984088962888e+00 -1.3372981991268418e+04 -1.1465504854244192e+05 +4.7712148164684109e+07 
-6.6999999999999904e+00 -5.5249651050943838e-01 +7.5964451397302275e+00 +9.6583122372153260e-02 -5.8337685763329823e+00 -1.3043232868255223e+04 -1.1787472902779124e+05 +4.6211486604494177e+07 
-6.7999999999999901e+00 -5.5249668325059209e-01 +7.5964432514152138e+00 +8.0583156395263464e-02 -5.4770783500586981e+00 -1.2722634407967200e+04 -1.2142885693214842e+05 +4.4726328550616644e+07 
-6.8999999999999897e+00 -5.5249688590557910e-01 +7.5964437654167236e+00 +6.5927400631845393e-02 -5.1206089240219619e+00 -1.2417639472344485e+04 -1.2515687785433065e+05 +4.3284647234439634e+07 
-6.9999999999999902e+00 -5.5249712193131129e-01 +7.5964479935367386e+00 +5.2979998837489800e-02 -4.7941368114141669e+00 -1.2134701078738697e+04 -1.2889826724831384e+05 +4.1914416220023461e+07 
-7.0999999999999899e+00 -5.5249739295567590e-01 +7.5964568720615642e+00 +4.2000533228119911e-02 -4.5216924897242725e+00 -1.1878807295201710e+04 -1.3251421781046077e+05 +4.0638198668091625e+07 
-7.1999999999999904e+00 -5.5249769348296884e-01 +7.5964698116941944e+00 +3.2875665780547021e-02 -4.3034043920186704e+00 -1.1649918995887307e+04 -1.3596133720722003e+05 +3.9460742842950054e+07 
-7.2999999999999901e+00 -5.5249801628254724e-01 +7.5964858334888241e+00 +2.5409953850821194e-02 -4.1331482392424697e+00 -1.1446945530200335e+04 -1.3922247358132448e+05 +3.8383297299568191e+07 
-7.3999999999999897e+00 -5.5249835412365855e-01 +7.5965039586641714e+00 +1.9407965665562164e-02 -4.0048046723269790e+00 -1.1268796608018218e+04 -1.4228044459366828e+05 +3.7407112663356319e+07 
-7.4999999999999902e+00 -5.5249869977545407e-01 +7.5965232086124947e+00 +1.4674282391164115e-02 -3.9122595299694853e+00 -1.1114382340701210e+04 -1.4511803541693627e+05 +3.6533441798791327e+07 
-7.5999999999999899e+00 -5.5249904600704314e-01 +7.5965426049087537e+00 +1.1013495004888166e-02 -3.8494041086546100e+00 -1.0982613187016725e+04 -1.4771799718660844e+05 +3.5763539565559328e+07 
-7.6999999999999904e+00 -5.5249938558743050e-01 +7.5965611693124817e+00 +8.2302112942076386e-03 -3.8101352353940614e+00 -1.0872400092290660e+04 -1.5006304646043389e+05 +3.5098663493095949e+07 
-7.7999999999999901e+00 -5.5249971128557818e-01 +7.5965779237790780e+00 +6.1290469915592982e-03 -3.7883555927900896e+00 -1.0782654324523493e+04 -1.5213586329162985e+05 +3.4540073011107758e+07 
-7.8999999999999897e+00 -5.5250001587027331e-01 +7.5965918904617054e+00 +4.5146340062020094e-03 -3.7779737816586314e+00 -1.0712287637666554e+04 -1.5391909078312619e+05 +3.4089030242940024e+07 
-7.9999999999999902e+00 -5.5250029211028040e-01 +7.5966020917174690e+00 +3.1916199165229714e-03 -3.7729043824454327e+00 -1.0660212253600108e+04 -1.5539533513538999e+05 +3.3746799867811508e+07 
-8.0999999999999908e+00 -5.5250053526484033e-01 +7.5966077805949919e+00 +2.0262927979570891e-03 -3.7678502691903191e+00 -1.0625600909779789e+04 -1.5655582101411725e+05 +3.3513798329876043e+07 
-8.1999999999999904e+00 -5.5250075039330548e-01 +7.5966092825107951e+00 +1.0948869162283714e-03 -3.7647121422336838e+00 -1.0608130393922267e+04 -1.5740157452396231e+05 +3.3385033711755462e+07 
-8.2999999999999901e+00 -5.5250094497107849e-01 +7.5966072296589955e+00 +5.1737666872884807e-04 -3.7681893120632015e+00 -1.0607474186164563e+04 -1.5793007295803615e+05 +3.3353669168485429e+07 
-8.3999999999999897e+00 -5.5250112647357008e-01 +7.5966022540257612e+00 +4.1372945926837257e-04 -3.7829745510534343e+00 -1.0623305587435972e+04 -1.5813883629990608e+05 +3.3412866923960939e+07 
-8.4999999999999893e+00 -5.5250130237641726e-01 +7.5965949873840035e+00 +9.0392323906141731e-04 -3.8137539818015340e+00 -1.0655298047459970e+04 -1.5802542817833897e+05 +3.3555789835757196e+07 
-8.5999999999999908e+00 -5.5250148015524669e-01 +7.5965860612802691e+00 +2.1079300332576055e-03 -3.8652066831834180e+00 -1.0703124848092364e+04 -1.5758745831067508e+05 +3.3775599881661244e+07 
-8.6999999999999904e+00 -5.5250166728589623e-01 +7.5965761070343154e+00 +4.1457294735383369e-03 -3.9420046666580979e+00 -1.0766459358785385e+04 -1.5682258279071766e+05 +3.4065459374764316e+07 
-8.7999999999999794e+00 -5.5250187124423977e-01 +7.5965657557289443e+00 +7.1372971942501081e-03 -4.0488125673500388e+00 -1.0844974816310139e+04 -1.5572850603989974e+05 +3.4418529917057022e+07 
-8.8999999999999808e+00 -5.5250209950628226e-01 +7.5965556382059720e+00 +1.1202616067535422e-02 -4.1902875095492043e+00 -1.0938344534138743e+04 -1.5430298176078417e+05 +3.4827973387321480e+07 
-8.9999999999999805e+00 -5.5250235954813109e-01 +7.5965463850502859e+00 +1.6461661109759058e-02 -4.3710786470152643e+00 -1.1046241610563238e+04 -1.5254381574983842e+05 +3.5286950539713338e+07 
-9.0999999999999801e+00 -5.5250265692839184e-01 +7.5965385108741197e+00 +2.2948651576881741e-02 -4.5935561253902968e+00 -1.1167296927938443e+04 -1.5046231650183586e+05 +3.5785075637010224e+07 
-9.1999999999999797e+00 -5.5250298947803955e-01 +7.5965320064736979e+00 +3.0354213175020912e-02 -4.8492221318145994e+00 -1.1295961006569380e+04 -1.4813581667215301e+05 +3.6297881926468231e+07 
-9.2999999999999794e+00 -5.5250335307126042e-01 +7.5965267164050596e+00 +3.8281654326631082e-02 -5.1264151317805773e+00 -1.1425612512770918e+04 -1.4566130847569855e+05 +3.6797303558360398e+07 
-9.3999999999999808e+00 -5.5250374358201382e-01 +7.5965224853536455e+00 +4.6334244100731996e-02 -5.4134776510474643e+00 -1.1549629209424327e+04 -1.4313576056473530e+05 +3.7255270017593607e+07 
-9.4999999999999805e+00 -5.5250415688403665e-01 +7.5965191581299605e+00 +5.4115209039608828e-02 -5.6987561875856070e+00 -1.1661387894081076e+04 -1.4065611785193815e+05 +3.7643705774020128e+07 
-9.5999999999999801e+00 -5.5250458885080889e-01 +7.5965165796756597e+00 +6.1227735340275091e-02 -5.9706013995847202e+00 -1.1754264434714465e+04 -1.3831930038521998e+05 +3.7934530435071662e+07 
-9.6999999999999797e+00 -5.5250503535573992e-01 +7.5965145950654120e+00 +6.7274968118200426e-02 -6.2173681806693430e+00 -1.1821633755800247e+04 -1.3622220285150516e+05 +3.8099658682044551e+07 
-9.7999999999999794e+00 -5.5250549227188783e-01 +7.5965130495138053e+00 +7.1860009728690652e-02 -6.4274158534940868e+00 -1.1856869797118759e+04 -1.3446169347379400e+05 +3.8111000048356287e+07 
-9.8999999999999808e+00 -5.5250595547214831e-01 +7.5965117883742659e+00 +7.4585915812712789e-02 -6.5891081637892341e+00 -1.1853345438156686e+04 -1.3313461396678834e+05 +3.7940458559701025e+07 
-9.9999999999999805e+00 -5.5250642082918955e-01 +7.5965106571550134e+00 +7.5055701658303955e-02 -6.6908138838104456e+00 -1.1804432634972891e+04 -1.3233777537333252e+05 +3.7559933464691758e+07 
-1.0100000000000000e+01 -5.5250688490961142e-01 +7.5965095092299615e+00 +7.3007203302828061e-02 -6.7240193397442694e+00 -1.1706087191875780e+04 -1.3213913237321220e+05 +3.6953328312089913e+07 
