# field on trajectory
# s[mm] rx[mm] ry[mm] rz[mm] bx[T] by[T] bz[T]
0.0000000000000000e+00 +8.1529999999999987e+00 +0.0000000000000000e+00 +0.0000000000000000e+00 -3.0685041014742398e-02 -5.6488536037906600e-01 +5.5937050447315449e-03
1.0000000000000001e-01 +8.1529997168668462e+00 +0.0000000000000000e+00 +9.9999999999465572e-02 -3.0685050698041082e-02 -5.6488554660676626e-01 +5.5937914426298424e-03
2.0000000000000001e-01 +8.1529988674672627e+00 +0.0000000000000000e+00 +1.9999999999572457e-01 -3.0685052948054903e-02 -5.6488572945166737e-01 +5.5938799935043772e-03
3.0000000000000004e-01 +8.1529974518010668e+00 +0.0000000000000000e+00 +2.9999999998557042e-01 -3.0685048112601431e-02 -5.6488590915156844e-01 +5.5939705708426268e-03
4.0000000000000002e-01 +8.1529954698680775e+00 +0.0000000000000000e+00 +3.9999999996579655e-01 -3.0685036539501512e-02 -5.6488608594428336e-01 +5.5940630481337069e-03
5.0000000000000000e-01 +8.1529929216681172e+00 +0.0000000000000000e+00 +4.9999999993319633e-01 -3.0685018576579341e-02 -5.6488626006763820e-01 +5.5941572988680976e-03
5.9999999999999998e-01 +8.1529898072010116e+00 +0.0000000000000000e+00 +5.9999999988456321e-01 -3.0684994571662523e-02 -5.6488643175946773e-01 +5.5942531965373458e-03
6.9999999999999996e-01 +8.1529861264665886e+00 +0.0000000000000000e+00 +6.9999999981669059e-01 -3.0684964872582245e-02 -5.6488660125761303e-01 +5.5943506146337941e-03
7.9999999999999993e-01 +8.1529818794646776e+00 +0.0000000000000000e+00 +7.9999999972637181e-01 -3.0684929827173243e-02 -5.6488676879991828e-01 +5.5944494266502781e-03
8.9999999999999991e-01 +8.1529770661951133e+00 +0.0000000000000000e+00 +8.9999999961040045e-01 -3.0684889783273953e-02 -5.6488693462422701e-01 +5.5945495060798428e-03
9.9999999999999989e-01 +8.1529716866577271e+00 +0.0000000000000000e+00 +9.9999999946556972e-01 -3.0684845088726560e-02 -5.6488709896838063e-01 +5.5946507264154734e-03
1.0999999999999999e+00 +8.1529657408523555e+00 +0.0000000000000000e+00 +1.0999999992886731e+00 -3.0684796091377108e-02 -5.6488726207021300e-01 +5.5947529611497801e-03
1.2000000000000000e+00 +8.1529592287788351e+00 +0.0000000000000000e+00 +1.1999999990765040e+00 -3.0684743139075533e-02 -5.6488742416755011e-01 +5.5948560837747359e-03
1.3000000000000000e+00 +8.1529521504370042e+00 +0.0000000000000000e+00 +1.2999999988258557e+00 -3.0684686579675796e-02 -5.6488758549820461e-01 +5.5949599677813846e-03
1.4000000000000001e+00 +8.1529445058266994e+00 +0.0000000000000000e+00 +1.3999999985335219e+00 -3.0684626761035980e-02 -5.6488774629997507e-01 +5.5950644866595437e-03
1.5000000000000002e+00 +8.1529362949477608e+00 +0.0000000000000000e+00 +1.4999999981962955e+00 -3.0684564031018251e-02 -5.6488790681064083e-01 +5.5951695138975318e-03
1.6000000000000003e+00 +8.1529275178000287e+00 +0.0000000000000000e+00 +1.5999999978109702e+00 -3.0684498737489064e-02 -5.6488806726795959e-01 +5.5952749229818697e-03
1.7000000000000004e+00 +8.1529181743833412e+00 +0.0000000000000000e+00 +1.6999999973743394e+00 -3.0684431228319198e-02 -5.6488822790966564e-01 +5.5953805873970074e-03
1.8000000000000005e+00 +8.1529082646975386e+00 +0.0000000000000000e+00 +1.7999999968831963e+00 -3.0684361851383835e-02 -5.6488838897346516e-01 +5.5954863806250291e-03
1.9000000000000006e+00 +8.1528977887424592e+00 +0.0000000000000000e+00 +1.8999999963343346e+00 -3.0684290954562640e-02 -5.6488855069703403e-01 +5.5955921761453664e-03
2.0000000000000004e+00 +8.1528867465179413e+00 +0.0000000000000000e+00 +1.9999999957245473e+00 -3.0684218885739842e-02 -5.6488871331801482e-01 +5.5956978474345142e-03
2.1000000000000005e+00 +8.1528751380238216e+00 +0.0000000000000000e+00 +2.0999999950506281e+00 -3.0684145943778936e-02 -5.6488887697721146e-01 +5.5958032943110953e-03
2.2000000000000006e+00 +8.1528629632599365e+00 +0.0000000000000000e+00 +2.1999999943093700e+00 -3.0684072231444176e-02 -5.6488904142819496e-01 +5.5959085219728314e-03
2.3000000000000007e+00 +8.1528502222261228e+00 +0.0000000000000000e+00 +2.2999999934975666e+00 -3.0683997802472111e-02 -5.6488920632772299e-01 +5.5960135619625038e-03
2.4000000000000008e+00 +8.1528369149222151e+00 +0.0000000000000000e+00 +2.3999999926120115e+00 -3.0683922710595737e-02 -5.6488937133254680e-01 +5.5961184458230223e-03
2.5000000000000009e+00 +8.1528230413480482e+00 +0.0000000000000000e+00 +2.4999999916494975e+00 -3.0683847009543606e-02 -5.6488953609940917e-01 +5.5962232050975474e-03
2.6000000000000010e+00 +8.1528086015034571e+00 +0.0000000000000000e+00 +2.5999999906068183e+00 -3.0683770753039116e-02 -5.6488970028504792e-01 +5.5963278713296316e-03
2.7000000000000011e+00 +8.1527935953882782e+00 +0.0000000000000000e+00 +2.6999999894807671e+00 -3.0683693994799796e-02 -5.6488986354619541e-01 +5.5964324760633538e-03
2.8000000000000012e+00 +8.1527780230023481e+00 +0.0000000000000000e+00 +2.7999999882681377e+00 -3.0683616788536407e-02 -5.6489002553957879e-01 +5.5965370508434496e-03
2.9000000000000012e+00 +8.1527618843455034e+00 +0.0000000000000000e+00 +2.8999999869657227e+00 -3.0683539187952275e-02 -5.6489018592192197e-01 +5.5966416272154500e-03
3.0000000000000013e+00 +8.1527451794175860e+00 +0.0000000000000000e+00 +2.9999999855703159e+00 -3.0683461246742517e-02 -5.6489034434994534e-01 +5.5967462367258062e-03
3.1000000000000014e+00 +8.1527279082184378e+00 +0.0000000000000000e+00 +3.0999999840787105e+00 -3.0683383018593201e-02 -5.6489050048036693e-01 +5.5968509109220370e-03
3.2000000000000015e+00 +8.1527100707479025e+00 +0.0000000000000000e+00 +3.1999999824877001e+00 -3.0683304557180678e-02 -5.6489065396990390e-01 +5.5969556813528568e-03
3.3000000000000016e+00 +8.1526916670058256e+00 +0.0000000000000000e+00 +3.2999999807940781e+00 -3.0683225916170710e-02 -5.6489080447527151e-01 +5.5970605795683031e-03
3.4000000000000017e+00 +8.1526726969920578e+00 +0.0000000000000000e+00 +3.3999999789946376e+00 -3.0683147149217771e-02 -5.6489095165318570e-01 +5.5971656371198841e-03
3.5000000000000018e+00 +8.1526531607064516e+00 +0.0000000000000000e+00 +3.4999999770861718e+00 -3.0683068309964267e-02 -5.6489109516036284e-01 +5.5972708855607052e-03
3.6000000000000019e+00 +8.1526330581488651e+00 +0.0000000000000000e+00 +3.5999999750654741e+00 -3.0682989452039764e-02 -5.6489123465352120e-01 +5.5973763564455938e-03
3.7000000000000020e+00 +8.1526123893191578e+00 +0.0000000000000000e+00 +3.6999999729293380e+00 -3.0682910629060204e-02 -5.6489136978938037e-01 +5.5974820813312638e-03
3.8000000000000020e+00 +8.1525911542171965e+00 +0.0000000000000000e+00 +3.7999999706745564e+00 -3.0682831894627175e-02 -5.6489150022466361e-01 +5.5975880917764065e-03
3.9000000000000021e+00 +8.1525693528428498e+00 +0.0000000000000000e+00 +3.8999999682979229e+00 -3.0682753302327080e-02 -5.6489162561609785e-01 +5.5976944193418653e-03
4.0000000000000018e+00 +8.1525469851959933e+00 +0.0000000000000000e+00 +3.9999999657962313e+00 -3.0682674905730473e-02 -5.6489174562041400e-01 +5.5978010955907431e-03
4.1000000000000014e+00 +8.1525240512765063e+00 +0.0000000000000000e+00 +4.0999999631662742e+00 -3.0682596780787254e-02 -5.6489186023026461e-01 +5.5979081556010160e-03
4.2000000000000011e+00 +8.1525005510842767e+00 +0.0000000000000000e+00 +4.1999999604048455e+00 -3.0682519093017436e-02 -5.6489197078198017e-01 +5.5980156485020997e-03
4.3000000000000007e+00 +8.1524764846191928e+00 +0.0000000000000000e+00 +4.2999999575087378e+00 -3.0682442030327623e-02 -5.6489207894782911e-01 +5.5981236269357845e-03
4.4000000000000004e+00 +8.1524518518811462e+00 +0.0000000000000000e+00 +4.3999999544747448e+00 -3.0682365780615610e-02 -5.6489218640010719e-01 +5.5982321435434886e-03
4.5000000000000000e+00 +8.1524266528700302e+00 +0.0000000000000000e+00 +4.4999999512996602e+00 -3.0682290531770028e-02 -5.6489229481113601e-01 +5.5983412509662172e-03
4.5999999999999996e+00 +8.1524008875857383e+00 +0.0000000000000000e+00 +4.5999999479802769e+00 -3.0682216471670215e-02 -5.6489240585326861e-01 +5.5984510018445306e-03
4.6999999999999993e+00 +8.1523745560281586e+00 +0.0000000000000000e+00 +4.6999999445133884e+00 -3.0682143788185998e-02 -5.6489252119888689e-01 +5.5985614488184765e-03
4.7999999999999989e+00 +8.1523476581971757e+00 +0.0000000000000000e+00 +4.7999999408957885e+00 -3.0682072669177447e-02 -5.6489264252040761e-01 +5.5986726445275692e-03
4.8999999999999986e+00 +8.1523201940926704e+00 +0.0000000000000000e+00 +4.8999999371242700e+00 -3.0682003302494688e-02 -5.6489277149028094e-01 +5.5987846416107436e-03
4.9999999999999982e+00 +8.1522921637145132e+00 +0.0000000000000000e+00 +4.9999999331956255e+00 -3.0681935875977714e-02 -5.6489290978099416e-01 +5.5988974927063022e-03
5.0999999999999979e+00 +8.1522635670625654e+00 +0.0000000000000000e+00 +5.0999999291066489e+00 -3.0681870577456159e-02 -5.6489305906507281e-01 +5.5990112504518885e-03
5.1999999999999975e+00 +8.1522344041366797e+00 +0.0000000000000000e+00 +5.1999999248541338e+00 -3.0681807594749064e-02 -5.6489322101508166e-01 +5.5991259674844232e-03
5.2999999999999972e+00 +8.1522046749366943e+00 +0.0000000000000000e+00 +5.2999999204348738e+00 -3.0681747115664709e-02 -5.6489339730362831e-01 +5.5992416964400910e-03
5.3999999999999968e+00 +8.1521743794624317e+00 +0.0000000000000000e+00 +5.3999999158456609e+00 -3.0681689328000382e-02 -5.6489358960336378e-01 +5.5993584899542651e-03
5.4999999999999964e+00 +8.1521435177137018e+00 +0.0000000000000000e+00 +5.4999999110832896e+00 -3.0681634419542157e-02 -5.6489379958698438e-01 +5.5994764006614883e-03
5.5999999999999961e+00 +8.1521120896902932e+00 +0.0000000000000000e+00 +5.5999999061445527e+00 -3.0681582578064692e-02 -5.6489402892723295e-01 +5.5995954811954227e-03
5.6999999999999957e+00 +8.1520800953919785e+00 +0.0000000000000000e+00 +5.6999999010262430e+00 -3.0681533991331059e-02 -5.6489427929690261e-01 +5.5997157841888058e-03
5.7999999999999954e+00 +8.1520475348185073e+00 +0.0000000000000000e+00 +5.7999998957251542e+00 -3.0681488847092462e-02 -5.6489455236883601e-01 +5.5998373622734082e-03
5.8999999999999950e+00 +8.1520144079696060e+00 +0.0000000000000000e+00 +5.8999998902380799e+00 -3.0681447333088061e-02 -5.6489484981592919e-01 +5.5999602680799907e-03
5.9999999999999947e+00 +8.1519807148449779e+00 +0.0000000000000000e+00 +5.9999998845618130e+00 -3.0681409637044781e-02 -5.6489517331113182e-01 +5.6000845542382629e-03
6.0999999999999943e+00 +8.1519464554442997e+00 +0.0000000000000000e+00 +6.0999998786931462e+00 -3.0681375939034233e-02 -5.6489552389039188e-01 +5.6002102477246988e-03
6.1999999999999940e+00 +8.1519116297672216e+00 +0.0000000000000000e+00 +6.1999998726288732e+00 -3.0681346388561327e-02 -5.6489590004144608e-01 +5.6003372729045387e-03
6.2999999999999936e+00 +8.1518762378133669e+00 +0.0000000000000000e+00 +6.2999998663657877e+00 -3.0681321127524079e-02 -5.6489629961495347e-01 +5.6004655284862415e-03
6.3999999999999932e+00 +8.1518402795823359e+00 +0.0000000000000000e+00 +6.3999998599006824e+00 -3.0681300297862667e-02 -5.6489672046155204e-01 +5.6005949131733290e-03
6.4999999999999929e+00 +8.1518037550737095e+00 +0.0000000000000000e+00 +6.4999998532303502e+00 -3.0681284041561271e-02 -5.6489716043185567e-01 +5.6007253256642022e-03
6.5999999999999925e+00 +8.1517666642870470e+00 +0.0000000000000000e+00 +6.5999998463515839e+00 -3.0681272500650072e-02 -5.6489761737645350e-01 +5.6008566646519632e-03
6.6999999999999922e+00 +8.1517290072218920e+00 +0.0000000000000000e+00 +6.6999998392611770e+00 -3.0681265817207089e-02 -5.6489808914590833e-01 +5.6009888288242136e-03
6.7999999999999918e+00 +8.1516907838777737e+00 +0.0000000000000000e+00 +6.7999998319559234e+00 -3.0681264133360170e-02 -5.6489857359075479e-01 +5.6011217168628847e-03
6.8999999999999915e+00 +8.1516519942542072e+00 +0.0000000000000000e+00 +6.8999998244326148e+00 -3.0681267591288829e-02 -5.6489906856149896e-01 +5.6012552274440500e-03
6.9999999999999911e+00 +8.1516126383506968e+00 +0.0000000000000000e+00 +6.9999998166880451e+00 -3.0681276333226180e-02 -5.6489957190861573e-01 +5.6013892592377242e-03
7.0999999999999908e+00 +8.1515727161667417e+00 +0.0000000000000000e+00 +7.0999998087190077e+00 -3.0681290501460890e-02 -5.6490008148254744e-01 +5.6015237109077074e-03
7.1999999999999904e+00 +8.1515322277018303e+00 +0.0000000000000000e+00 +7.1999998005222947e+00 -3.0681310238339008e-02 -5.6490059513370372e-01 +5.6016584811113667e-03
7.2999999999999901e+00 +8.1514911729554509e+00 +0.0000000000000000e+00 +7.2999997920946997e+00 -3.0681335686265961e-02 -5.6490111071245885e-01 +5.6017934684994778e-03
7.3999999999999897e+00 +8.1514495519270866e+00 +0.0000000000000000e+00 +7.3999997834330156e+00 -3.0681366987708399e-02 -5.6490162606914984e-01 +5.6019285717160260e-03
7.4999999999999893e+00 +8.1514073646162242e+00 +0.0000000000000000e+00 +7.4999997745340359e+00 -3.0681404285196164e-02 -5.6490213905407682e-01 +5.6020636893980213e-03
7.5999999999999890e+00 +8.1513646110223483e+00 +0.0000000000000000e+00 +7.5999997653945526e+00 -3.0681447721324126e-02 -5.6490264751750008e-01 +5.6021987201753222e-03
7.6999999999999886e+00 +8.1513212911449529e+00 +0.0000000000000000e+00 +7.6999997560113593e+00 -3.0681497438754150e-02 -5.6490314930963836e-01 +5.6023335626704425e-03
7.7999999999999883e+00 +8.1512774049835368e+00 +0.0000000000000000e+00 +7.7999997463812498e+00 -3.0681553580217007e-02 -5.6490364228066958e-01 +5.6024681154983689e-03
7.8999999999999879e+00 +8.1512329525376064e+00 +0.0000000000000000e+00 +7.8999997365010159e+00 -3.0681616288514232e-02 -5.6490412428072678e-01 +5.6026022772663747e-03
7.9999999999999876e+00 +8.1511879338066802e+00 +0.0000000000000000e+00 +7.9999997263674514e+00 -3.0681685706520086e-02 -5.6490459315989816e-01 +5.6027359465738360e-03
8.0999999999999872e+00 +8.1511423487902892e+00 +0.0000000000000000e+00 +8.0999997159773489e+00 -3.0681761751938784e-02 -5.6490504727718160e-01 +5.6028690537987796e-03
8.1999999999999869e+00 +8.1510961974879805e+00 +0.0000000000000000e+00 +8.1999997053275013e+00 -3.0681843441528300e-02 -5.6490548702738663e-01 +5.6030016564654825e-03
8.2999999999999865e+00 +8.1510494798993136e+00 +0.0000000000000000e+00 +8.2999996944147014e+00 -3.0681929566774114e-02 -5.6490591331429207e-01 +5.6031338438953813e-03
8.3999999999999861e+00 +8.1510021960238639e+00 +0.0000000000000000e+00 +8.3999996832357429e+00 -3.0682018919127196e-02 -5.6490632704168620e-01 +5.6032657054218430e-03
8.4999999999999858e+00 +8.1509543458612175e+00 +0.0000000000000000e+00 +8.4999996717874176e+00 -3.0682110290002441e-02 -5.6490672911336581e-01 +5.6033973303905842e-03
8.5999999999999854e+00 +8.1509059294109729e+00 +0.0000000000000000e+00 +8.5999996600665192e+00 -3.0682202470777274e-02 -5.6490712043313873e-01 +5.6035288081601117e-03
8.6999999999999851e+00 +8.1508569466727394e+00 +0.0000000000000000e+00 +8.6999996480698414e+00 -3.0682294252790124e-02 -5.6490750190482208e-01 +5.6036602281021135e-03
8.7999999999999847e+00 +8.1508073976461368e+00 +0.0000000000000000e+00 +8.7999996357941761e+00 -3.0682384427339091e-02 -5.6490787443224488e-01 +5.6037916796019063e-03
8.8999999999999844e+00 +8.1507572823307921e+00 +0.0000000000000000e+00 +8.8999996232363170e+00 -3.0682471785680340e-02 -5.6490823891924535e-01 +5.6039232520588332e-03
8.9999999999999840e+00 +8.1507066007263411e+00 +0.0000000000000000e+00 +8.9999996103930577e+00 -3.0682555119026726e-02 -5.6490859626967527e-01 +5.6040550348866970e-03
9.0999999999999837e+00 +8.1506553528324286e+00 +0.0000000000000000e+00 +9.0999995972611902e+00 -3.0682633218546328e-02 -5.6490894738739583e-01 +5.6041871175141773e-03
9.1999999999999833e+00 +8.1506035386487028e+00 +0.0000000000000000e+00 +9.1999995838375082e+00 -3.0682704875360969e-02 -5.6490929317628213e-01 +5.6043195893852610e-03
9.2999999999999829e+00 +8.1505511581748191e+00 +0.0000000000000000e+00 +9.2999995701188034e+00 -3.0682768880544803e-02 -5.6490963454022003e-01 +5.6044525399596371e-03
9.3999999999999826e+00 +8.1504982114104365e+00 +0.0000000000000000e+00 +9.3999995561018697e+00 -3.0682824025122787e-02 -5.6490997238310914e-01 +5.6045860587131428e-03
9.4999999999999822e+00 +8.1504446983552192e+00 +0.0000000000000000e+00 +9.4999995417834988e+00 -3.0682869100069326e-02 -5.6491030760886174e-01 +5.6047202351381742e-03
9.5999999999999819e+00 +8.1503906190088315e+00 +0.0000000000000000e+00 +9.5999995271604863e+00 -3.0682902896306704e-02 -5.6491064112140355e-01 +5.6048551587441027e-03
9.6999999999999815e+00 +8.1503359733709413e+00 +0.0000000000000000e+00 +9.6999995122296223e+00 -3.0682924204703716e-02 -5.6491097382467403e-01 +5.6049909190576987e-03
9.7999999999999812e+00 +8.1502807614412163e+00 +0.0000000000000000e+00 +9.7999994969877022e+00 -3.0682931816074191e-02 -5.6491130662262679e-01 +5.6051276056235571e-03
9.8999999999999808e+00 +8.1502249832193261e+00 +0.0000000000000000e+00 +9.8999994814315180e+00 -3.0682924521175534e-02 -5.6491164041922948e-01 +5.6052653080045124e-03
9.9999999999999805e+00 +8.1501686387049368e+00 +0.0000000000000000e+00 +9.9999994655578615e+00 -3.0682901110707268e-02 -5.6491197611846522e-01 +5.6054041157820554e-03
1.0099999999999980e+01 +8.1501117278977127e+00 +0.0000000000000000e+00 +1.0099999449363526e+01 -3.0682860817149996e-02 -5.6491231461829838e-01 +5.6055440845812696e-03
1.0199999999999980e+01 +8.1500542507973179e+00 +0.0000000000000000e+00 +1.0199999432845306e+01 -3.0682804640324586e-02 -5.6491265679254998e-01 +5.6056851341348950e-03
1.0299999999999979e+01 +8.1499962074034098e+00 +0.0000000000000000e+00 +1.0299999415999993e+01 -3.0682734021874863e-02 -5.6491300350895168e-01 +5.6058271501976996e-03
1.0399999999999979e+01 +8.1499375977156436e+00 +0.0000000000000000e+00 +1.0399999398824381e+01 -3.0682650403415123e-02 -5.6491335563517098e-01 +5.6059700185210051e-03
1.0499999999999979e+01 +8.1498784217336677e+00 +0.0000000000000000e+00 +1.0499999381315261e+01 -3.0682555226529476e-02 -5.6491371403881008e-01 +5.6061136248525562e-03
1.0599999999999978e+01 +8.1498186794571250e+00 +0.0000000000000000e+00 +1.0599999363469427e+01 -3.0682449932771121e-02 -5.6491407958740414e-01 +5.6062578549363690e-03
1.0699999999999978e+01 +8.1497583708856496e+00 +0.0000000000000000e+00 +1.0699999345283674e+01 -3.0682335963661787e-02 -5.6491445314841870e-01 +5.6064025945125771e-03
1.0799999999999978e+01 +8.1496974960188702e+00 +0.0000000000000000e+00 +1.0799999326754792e+01 -3.0682214760691027e-02 -5.6491483558925026e-01 +5.6065477293173018e-03
1.0899999999999977e+01 +8.1496360548564049e+00 +0.0000000000000000e+00 +1.0899999307879574e+01 -3.0682087765315558e-02 -5.6491522777722281e-01 +5.6066931450824749e-03
1.0999999999999977e+01 +8.1495740473978628e+00 +0.0000000000000000e+00 +1.0999999288654813e+01 -3.0681956418958597e-02 -5.6491563057958671e-01 +5.6068387275357229e-03
1.1099999999999977e+01 +8.1495114736428409e+00 +0.0000000000000000e+00 +1.1099999269077303e+01 -3.0681822163009229e-02 -5.6491604486351776e-01 +5.6069843624001981e-03
1.1199999999999976e+01 +8.1494483335909269e+00 +0.0000000000000000e+00 +1.1199999249143836e+01 -3.0681686438821753e-02 -5.6491647149611490e-01 +5.6071299353944440e-03
1.1299999999999976e+01 +8.1493846272416945e+00 +0.0000000000000000e+00 +1.1299999228851206e+01 -3.0681550687714974e-02 -5.6491691134439914e-01 +5.6072753322322288e-03
1.1399999999999975e+01 +8.1493203545947051e+00 +0.0000000000000000e+00 +1.1399999208196204e+01 -3.0681416350971595e-02 -5.6491736527531100e-01 +5.6074204386224241e-03
1.1499999999999975e+01 +8.1492555156495055e+00 +0.0000000000000000e+00 +1.1499999187175625e+01 -3.0681284869837521e-02 -5.6491783415571062e-01 +5.6075651402688288e-03
1.1599999999999975e+01 +8.1491901104056286e+00 +0.0000000000000000e+00 +1.1599999165786260e+01 -3.0681157685521220e-02 -5.6491831885237376e-01 +5.6077093228700413e-03
1.1699999999999974e+01 +8.1491241388625895e+00 +0.0000000000000000e+00 +1.1699999144024902e+01 -3.0681036239193053e-02 -5.6491882023199325e-01 +5.6078528721192995e-03
1.1799999999999974e+01 +8.1490576010198872e+00 +0.0000000000000000e+00 +1.1799999121888344e+01 -3.0680921971984621e-02 -5.6491933916117487e-01 +5.6079956737043451e-03
