# field on trajectory
# s[mm] rx[mm] ry[mm] rz[mm] bx[T] by[T] bz[T]
0.0000000000000000e+00 +8.1649999999999991e+00 +0.0000000000000000e+00 +0.0000000000000000e+00 -2.9840274471147534e-02 -5.6507627370058877e-01 +5.7647449642698060e-03
1.0000000000000001e-01 +8.1649997167255979e+00 +0.0000000000000000e+00 +9.9999999999465031e-02 -2.9840091580237482e-02 -5.6507543419697981e-01 +5.7648680980484047e-03
2.0000000000000001e-01 +8.1649988669029554e+00 +0.0000000000000000e+00 +1.9999999999572030e-01 -2.9839910055004401e-02 -5.6507459938990756e-01 +5.7649889935405081e-03
3.0000000000000004e-01 +8.1649974505329084e+00 +0.0000000000000000e+00 +2.9999999998555604e-01 -2.9839729219178449e-02 -5.6507377070885856e-01 +5.7651074115148762e-03
4.0000000000000002e-01 +8.1649954676162881e+00 +0.0000000000000000e+00 +3.9999999996576252e-01 -2.9839548396480283e-02 -5.6507294958333409e-01 +5.7652231127404965e-03
5.0000000000000000e-01 +8.1649929181539171e+00 +0.0000000000000000e+00 +4.9999999993312999e-01 -2.9839366910624165e-02 -5.6507213744285056e-01 +5.7653358579868247e-03
5.9999999999999998e-01 +8.1649898021466090e+00 +0.0000000000000000e+00 +5.9999999988444874e-01 -2.9839184085321050e-02 -5.6507133571693968e-01 +5.7654454080240817e-03
6.9999999999999996e-01 +8.1649861195951683e+00 +0.0000000000000000e+00 +6.9999999981650907e-01 -2.9838999244281603e-02 -5.6507054583514837e-01 +5.7655515236235012e-03
7.9999999999999993e-01 +8.1649818705003874e+00 +0.0000000000000000e+00 +7.9999999972610125e-01 -2.9838811711219319e-02 -5.6506976922703944e-01 +5.7656539655575991e-03
8.9999999999999991e-01 +8.1649770548630443e+00 +0.0000000000000000e+00 +8.9999999961001576e-01 -2.9838620809853535e-02 -5.6506900732219156e-01 +5.7657524946004507e-03
9.9999999999999989e-01 +8.1649716726839028e+00 +0.0000000000000000e+00 +9.9999999946504281e-01 -2.9838425863912523e-02 -5.6506826155019974e-01 +5.7658468715279416e-03
1.0999999999999999e+00 +8.1649657239637108e+00 +0.0000000000000000e+00 +1.0999999992879728e+00 -2.9838226197136570e-02 -5.6506753334067594e-01 +5.7659368571180503e-03
1.2000000000000000e+00 +8.1649592087031984e+00 +0.0000000000000000e+00 +1.1999999990755958e+00 -2.9838021133281021e-02 -5.6506682412324738e-01 +5.7660222121511031e-03
1.3000000000000000e+00 +8.1649521269030778e+00 +0.0000000000000000e+00 +1.2999999988247026e+00 -2.9837809996119336e-02 -5.6506613532756023e-01 +5.7661026974100485e-03
1.4000000000000001e+00 +8.1649444785640384e+00 +0.0000000000000000e+00 +1.3999999985320835e+00 -2.9837592109446202e-02 -5.6506546838327643e-01 +5.7661780736807172e-03
1.5000000000000002e+00 +8.1649362636867497e+00 +0.0000000000000000e+00 +1.4999999981945287e+00 -2.9837366797080531e-02 -5.6506482472007602e-01 +5.7662481017521014e-03
1.6000000000000003e+00 +8.1649274822718567e+00 +0.0000000000000000e+00 +1.5999999978088286e+00 -2.9837133382868607e-02 -5.6506420576765659e-01 +5.7663125424166030e-03
1.7000000000000004e+00 +8.1649181343199810e+00 +0.0000000000000000e+00 +1.6999999973717739e+00 -2.9836891190687088e-02 -5.6506361295573415e-01 +5.7663711564703247e-03
1.8000000000000005e+00 +8.1649082198317160e+00 +0.0000000000000000e+00 +1.7999999968801548e+00 -2.9836639544446073e-02 -5.6506304771404214e-01 +5.7664237047133117e-03
1.9000000000000006e+00 +8.1648977388076283e+00 +0.0000000000000000e+00 +1.8999999963307617e+00 -2.9836377768092247e-02 -5.6506251147233366e-01 +5.7664699479498373e-03
2.0000000000000004e+00 +8.1648866912482578e+00 +0.0000000000000000e+00 +1.9999999957203851e+00 -2.9836105185611837e-02 -5.6506200566037956e-01 +5.7665096469886618e-03
2.1000000000000005e+00 +8.1648750771541110e+00 +0.0000000000000000e+00 +2.0999999950458155e+00 -2.9835821423006004e-02 -5.6506153115975011e-01 +5.7665426426022270e-03
2.2000000000000006e+00 +8.1648628965256638e+00 +0.0000000000000000e+00 +2.1999999943038433e+00 -2.9835527314194730e-02 -5.6506108665914645e-01 +5.7665690954014611e-03
2.3000000000000007e+00 +8.1648501493633621e+00 +0.0000000000000000e+00 +2.2999999934912587e+00 -2.9835223995072619e-02 -5.6506067029904739e-01 +5.7665892459548788e-03
2.4000000000000008e+00 +8.1648368356676233e+00 +0.0000000000000000e+00 +2.3999999926048523e+00 -2.9834912601530289e-02 -5.6506028021992616e-01 +5.7666033348285880e-03
2.5000000000000009e+00 +8.1648229554388401e+00 +0.0000000000000000e+00 +2.4999999916414146e+00 -2.9834594269451852e-02 -5.6505991456224758e-01 +5.7666116025857500e-03
2.6000000000000010e+00 +8.1648085086773801e+00 +0.0000000000000000e+00 +2.5999999905977362e+00 -2.9834270134712453e-02 -5.6505957146646590e-01 +5.7666142897860552e-03
2.7000000000000011e+00 +8.1647934953835879e+00 +0.0000000000000000e+00 +2.6999999894706077e+00 -2.9833941333175674e-02 -5.6505924907302330e-01 +5.7666116369851899e-03
2.8000000000000012e+00 +8.1647779155577869e+00 +0.0000000000000000e+00 +2.7999999882568192e+00 -2.9833609000691104e-02 -5.6505894552234581e-01 +5.7666038847343096e-03
2.9000000000000012e+00 +8.1647617692002807e+00 +0.0000000000000000e+00 +2.8999999869531612e+00 -2.9833274273091709e-02 -5.6505865895484253e-01 +5.7665912735795043e-03
3.0000000000000013e+00 +8.1647450563113591e+00 +0.0000000000000000e+00 +2.9999999855564243e+00 -2.9832938286191431e-02 -5.6505838751090265e-01 +5.7665740440612651e-03
3.1000000000000014e+00 +8.1647277768912954e+00 +0.0000000000000000e+00 +3.0999999840633987e+00 -2.9832602175782579e-02 -5.6505812933089328e-01 +5.7665524367139639e-03
3.2000000000000015e+00 +8.1647099309403472e+00 +0.0000000000000000e+00 +3.1999999824708754e+00 -2.9832267077633371e-02 -5.6505788255515643e-01 +5.7665266920653175e-03
3.3000000000000016e+00 +8.1646915184587652e+00 +0.0000000000000000e+00 +3.2999999807756444e+00 -2.9831934127485374e-02 -5.6505764532400826e-01 +5.7664970506358564e-03
3.4000000000000017e+00 +8.1646725394467854e+00 +0.0000000000000000e+00 +3.3999999789744964e+00 -2.9831604461050994e-02 -5.6505741577773516e-01 +5.7664637529383960e-03
3.5000000000000018e+00 +8.1646529939046406e+00 +0.0000000000000000e+00 +3.4999999770642214e+00 -2.9831279214010967e-02 -5.6505719205659255e-01 +5.7664270394774970e-03
3.6000000000000019e+00 +8.1646328818325546e+00 +0.0000000000000000e+00 +3.5999999750416105e+00 -2.9830959522011861e-02 -5.6505697230080154e-01 +5.7663871507489519e-03
3.7000000000000020e+00 +8.1646122032307495e+00 +0.0000000000000000e+00 +3.6999999729034538e+00 -2.9830646520663483e-02 -5.6505675465054717e-01 +5.7663443272392405e-03
3.8000000000000020e+00 +8.1645909580994438e+00 +0.0000000000000000e+00 +3.7999999706465419e+00 -2.9830341345536440e-02 -5.6505653724597682e-01 +5.7662988094250049e-03
3.9000000000000021e+00 +8.1645691464388559e+00 +0.0000000000000000e+00 +3.8999999682676654e+00 -2.9830045132159574e-02 -5.6505631822719604e-01 +5.7662508377725168e-03
4.0000000000000018e+00 +8.1645467682492079e+00 +0.0000000000000000e+00 +3.9999999657636147e+00 -2.9829759016017438e-02 -5.6505609573426818e-01 +5.7662006527371438e-03
4.1000000000000014e+00 +8.1645238235307218e+00 +0.0000000000000000e+00 +4.0999999631311805e+00 -2.9829483860408266e-02 -5.6505586815506159e-01 +5.7661484720214736e-03
4.2000000000000011e+00 +8.1645003122836268e+00 +0.0000000000000000e+00 +4.1999999603671530e+00 -2.9829219440039075e-02 -5.6505563486881605e-01 +5.7660944223544468e-03
4.3000000000000007e+00 +8.1644762345081592e+00 +0.0000000000000000e+00 +4.2999999574683230e+00 -2.9828965257474152e-02 -5.6505539550260508e-01 +5.7660386077218314e-03
4.4000000000000004e+00 +8.1644515902045587e+00 +0.0000000000000000e+00 +4.3999999544314807e+00 -2.9828720815279968e-02 -5.6505514968348847e-01 +5.7659811321086937e-03
4.5000000000000000e+00 +8.1644263793730723e+00 +0.0000000000000000e+00 +4.4999999512534172e+00 -2.9828485616025711e-02 -5.6505489703850986e-01 +5.7659220994995385e-03
4.5999999999999996e+00 +8.1644006020139539e+00 +0.0000000000000000e+00 +4.5999999479309226e+00 -2.9828259162284026e-02 -5.6505463719469873e-01 +5.7658616138784721e-03
4.6999999999999993e+00 +8.1643742581274665e+00 +0.0000000000000000e+00 +4.6999999444607869e+00 -2.9828040956631538e-02 -5.6505436977906764e-01 +5.7657997792293610e-03
4.7999999999999989e+00 +8.1643473477138784e+00 +0.0000000000000000e+00 +4.7999999408398013e+00 -2.9827830501649558e-02 -5.6505409441861520e-01 +5.7657366995359670e-03
4.8999999999999986e+00 +8.1643198707734648e+00 +0.0000000000000000e+00 +4.8999999370647567e+00 -2.9827627299924622e-02 -5.6505381074032324e-01 +5.7656724787821263e-03
4.9999999999999982e+00 +8.1642918273065135e+00 +0.0000000000000000e+00 +4.9999999331324423e+00 -2.9827430854049181e-02 -5.6505351837115736e-01 +5.7656072209518773e-03
5.0999999999999979e+00 +8.1642632173133176e+00 +0.0000000000000000e+00 +5.0999999290396500e+00 -2.9827240666622186e-02 -5.6505321693806732e-01 +5.7655410300296375e-03
5.1999999999999975e+00 +8.1642340407941791e+00 +0.0000000000000000e+00 +5.1999999247831701e+00 -2.9827056240249727e-02 -5.6505290606798630e-01 +5.7654740100003413e-03
5.2999999999999972e+00 +8.1642042977494125e+00 +0.0000000000000000e+00 +5.2999999203597925e+00 -2.9826877077545607e-02 -5.6505258538782943e-01 +5.7654062648495943e-03
5.3999999999999968e+00 +8.1641739881793391e+00 +0.0000000000000000e+00 +5.3999999157663083e+00 -2.9826702681132071e-02 -5.6505225452449703e-01 +5.7653378985638454e-03
5.4999999999999964e+00 +8.1641431120842913e+00 +0.0000000000000000e+00 +5.4999999109995086e+00 -2.9826532553640313e-02 -5.6505191310487024e-01 +5.7652690151305200e-03
5.5999999999999961e+00 +8.1641116694646136e+00 +0.0000000000000000e+00 +5.5999999060561834e+00 -2.9826366197711139e-02 -5.6505156075581398e-01 +5.7651997185381764e-03
5.6999999999999957e+00 +8.1640796603206596e+00 +0.0000000000000000e+00 +5.6999999009331228e+00 -2.9826203115995646e-02 -5.6505119710417440e-01 +5.7651301127766719e-03
5.7999999999999954e+00 +8.1640470846527950e+00 +0.0000000000000000e+00 +5.7999998956271179e+00 -2.9826042811155754e-02 -5.6505082177678101e-01 +5.7650603018373119e-03
5.8999999999999950e+00 +8.1640139424613984e+00 +0.0000000000000000e+00 +5.8999998901349597e+00 -2.9825884785864887e-02 -5.6505043440044378e-01 +5.7649903897129930e-03
5.9999999999999947e+00 +8.1639802337468588e+00 +0.0000000000000000e+00 +5.9999998844534383e+00 -2.9825728542808561e-02 -5.6505003460195502e-01 +5.7649204803983650e-03
6.0999999999999943e+00 +8.1639459585095775e+00 +0.0000000000000000e+00 +6.0999998785793448e+00 -2.9825573704592653e-02 -5.6504962238411260e-01 +5.7648506088171800e-03
6.1999999999999940e+00 +8.1639111167499685e+00 +0.0000000000000000e+00 +6.1999998725094700e+00 -2.9825420373466336e-02 -5.6504919925381580e-01 +5.7647805336042725e-03
6.2999999999999936e+00 +8.1638757084684581e+00 +0.0000000000000000e+00 +6.2999998662406043e+00 -2.9825268771595446e-02 -5.6504876709402918e-01 +5.7647099443269177e-03
6.3999999999999932e+00 +8.1638397336654798e+00 +0.0000000000000000e+00 +6.3999998597695384e+00 -2.9825119121153935e-02 -5.6504832778776426e-01 +5.7646385305587583e-03
6.4999999999999929e+00 +8.1638031923414740e+00 +0.0000000000000000e+00 +6.4999998530930627e+00 -2.9824971644324183e-02 -5.6504788321808008e-01 +5.7645659818800913e-03
6.5999999999999925e+00 +8.1637660844968885e+00 +0.0000000000000000e+00 +6.5999998462079681e+00 -2.9824826563297463e-02 -5.6504743526808721e-01 +5.7644919878781899e-03
6.6999999999999922e+00 +8.1637284101321743e+00 +0.0000000000000000e+00 +6.6999998391110456e+00 -2.9824684100274237e-02 -5.6504698582094959e-01 +5.7644162381476054e-03
6.7999999999999918e+00 +8.1636901692477810e+00 +0.0000000000000000e+00 +6.7999998317990853e+00 -2.9824544477464545e-02 -5.6504653675988570e-01 +5.7643384222904716e-03
6.8999999999999915e+00 +8.1636513618441615e+00 +0.0000000000000000e+00 +6.8999998242688783e+00 -2.9824407917088409e-02 -5.6504608996817296e-01 +5.7642582299168264e-03
6.9999999999999911e+00 +8.1636119879217652e+00 +0.0000000000000000e+00 +6.9999998165172155e+00 -2.9824274641376165e-02 -5.6504564732914775e-01 +5.7641753506448984e-03
7.0999999999999908e+00 +8.1635720474810363e+00 +0.0000000000000000e+00 +7.0999998085408871e+00 -2.9824144872568875e-02 -5.6504521072620939e-01 +5.7640894741014343e-03
7.1999999999999904e+00 +8.1635315405224134e+00 +0.0000000000000000e+00 +7.1999998003366850e+00 -2.9824018832918648e-02 -5.6504478204282194e-01 +5.7640002899219970e-03
7.2999999999999901e+00 +8.1634904670463282e+00 +0.0000000000000000e+00 +7.2999997919013984e+00 -2.9823896744689046e-02 -5.6504436316251605e-01 +5.7639074877512703e-03
7.3999999999999897e+00 +8.1634488270532017e+00 +0.0000000000000000e+00 +7.3999997832318192e+00 -2.9823778830155471e-02 -5.6504395596889201e-01 +5.7638107572433811e-03
7.4999999999999893e+00 +8.1634066205434426e+00 +0.0000000000000000e+00 +7.4999997743247375e+00 -2.9823665311605484e-02 -5.6504356234562159e-01 +5.7637097880621916e-03
7.5999999999999890e+00 +8.1633638475174468e+00 +0.0000000000000000e+00 +7.5999997651769444e+00 -2.9823556411339245e-02 -5.6504318417644994e-01 +5.7636042698816191e-03
7.6999999999999886e+00 +8.1633205079755946e+00 +0.0000000000000000e+00 +7.6999997557852309e+00 -2.9823452351669815e-02 -5.6504282334519895e-01 +5.7634938923859314e-03
7.7999999999999883e+00 +8.1632766019182501e+00 +0.0000000000000000e+00 +7.7999997461463870e+00 -2.9823353354923570e-02 -5.6504248173576876e-01 +5.7633783452700699e-03
7.8999999999999879e+00 +8.1632321293457561e+00 +0.0000000000000000e+00 +7.8999997362572039e+00 -2.9823259643440563e-02 -5.6504216123214024e-01 +5.7632573182399491e-03
7.9999999999999876e+00 +8.1631870902584360e+00 +0.0000000000000000e+00 +7.9999997261144724e+00 -2.9823171439574900e-02 -5.6504186371837739e-01 +5.7631305010127608e-03
8.0999999999999872e+00 +8.1631414846565882e+00 +0.0000000000000000e+00 +8.0999997157149828e+00 -2.9823088802149313e-02 -5.6504159069386162e-01 +5.7629977121951715e-03
8.1999999999999869e+00 +8.1630953125404879e+00 +0.0000000000000000e+00 +8.1999997050555269e+00 -2.9823011135797318e-02 -5.6504134211893642e-01 +5.7628592859165998e-03
8.2999999999999865e+00 +8.1630485739103875e+00 +0.0000000000000000e+00 +8.2999996941328948e+00 -2.9822937681576005e-02 -5.6504111756914555e-01 +5.7627156851850795e-03
8.3999999999999861e+00 +8.1630012687665126e+00 +0.0000000000000000e+00 +8.3999996829438768e+00 -2.9822867680509624e-02 -5.6504091661999667e-01 +5.7625673730059314e-03
8.4999999999999858e+00 +8.1629533971090655e+00 +0.0000000000000000e+00 +8.4999996714852646e+00 -2.9822800373588601e-02 -5.6504073884695916e-01 +5.7624148123816242e-03
8.5999999999999854e+00 +8.1629049589382277e+00 +0.0000000000000000e+00 +8.5999996597538484e+00 -2.9822735001768484e-02 -5.6504058382546241e-01 +5.7622584663116240e-03
8.6999999999999851e+00 +8.1628559542541552e+00 +0.0000000000000000e+00 +8.6999996477464183e+00 -2.9822670805968822e-02 -5.6504045113089452e-01 +5.7620987977922700e-03
8.7999999999999847e+00 +8.1628063830569833e+00 +0.0000000000000000e+00 +8.7999996354597663e+00 -2.9822607027072224e-02 -5.6504034033860084e-01 +5.7619362698166201e-03
8.8999999999999844e+00 +8.1627562453468236e+00 +0.0000000000000000e+00 +8.8999996228906824e+00 -2.9822542905923274e-02 -5.6504025102388367e-01 +5.7617713453743131e-03
8.9999999999999840e+00 +8.1627055411237670e+00 +0.0000000000000000e+00 +8.9999996100359567e+00 -2.9822477683327471e-02 -5.6504018276199852e-01 +5.7616044874514438e-03
9.0999999999999837e+00 +8.1626542703878844e+00 +0.0000000000000000e+00 +9.0999995968923812e+00 -2.9822410600050173e-02 -5.6504013512815376e-01 +5.7614361590303887e-03
9.1999999999999833e+00 +8.1626024331392255e+00 +0.0000000000000000e+00 +9.1999995834567443e+00 -2.9822340896815631e-02 -5.6504010769750923e-01 +5.7612668230896990e-03
9.2999999999999829e+00 +8.1625500293778206e+00 +0.0000000000000000e+00 +9.2999995697258377e+00 -2.9822267814305824e-02 -5.6504010004517469e-01 +5.7610969426039370e-03
9.3999999999999826e+00 +8.1624970591036767e+00 +0.0000000000000000e+00 +9.3999995556964535e+00 -2.9822190593159568e-02 -5.6504011174620827e-01 +5.7609269805435539e-03
9.4999999999999822e+00 +8.1624435223167850e+00 +0.0000000000000000e+00 +9.4999995413653817e+00 -2.9822108473971341e-02 -5.6504014237561528e-01 +5.7607573998747358e-03
9.5999999999999819e+00 +8.1623894190171171e+00 +0.0000000000000000e+00 +9.5999995267294125e+00 -2.9822020697290282e-02 -5.6504019150834517e-01 +5.7605886635592567e-03
9.6999999999999815e+00 +8.1623347492046250e+00 +0.0000000000000000e+00 +9.6999995117853359e+00 -2.9821926503619211e-02 -5.6504025871929286e-01 +5.7604212345543585e-03
9.7999999999999812e+00 +8.1622795128792429e+00 +0.0000000000000000e+00 +9.7999994965299422e+00 -2.9821825133413495e-02 -5.6504034358329402e-01 +5.7602555758125926e-03
9.8999999999999808e+00 +8.1622237100408874e+00 +0.0000000000000000e+00 +9.8999994809600231e+00 -2.9821715827080080e-02 -5.6504044567512690e-01 +5.7600921502816878e-03
9.9999999999999805e+00 +8.1621673406894590e+00 +0.0000000000000000e+00 +9.9999994650723689e+00 -2.9821597824976405e-02 -5.6504056456950746e-01 +5.7599314209044045e-03
1.0099999999999980e+01 +8.1621104048248387e+00 +0.0000000000000000e+00 +1.0099999448863770e+01 -2.9821470605508646e-02 -5.6504069974369509e-01 +5.7597737156221962e-03
1.0199999999999980e+01 +8.1620529024468933e+00 +0.0000000000000000e+00 +1.0199999432331017e+01 -2.9821334599485359e-02 -5.6504085028532591e-01 +5.7596188223779862e-03
1.0299999999999979e+01 +8.1619948335554753e+00 +0.0000000000000000e+00 +1.0299999415470902e+01 -2.9821190475885197e-02 -5.6504101518465666e-01 +5.7594663941092483e-03
1.0399999999999979e+01 +8.1619361981504195e+00 +0.0000000000000000e+00 +1.0399999398280213e+01 -2.9821038903762389e-02 -5.6504119343197168e-01 +5.7593160837484652e-03
1.0499999999999979e+01 +8.1618769962315501e+00 +0.0000000000000000e+00 +1.0499999380755742e+01 -2.9820880552248689e-02 -5.6504138401758408e-01 +5.7591675442229852e-03
1.0599999999999978e+01 +8.1618172277986769e+00 +0.0000000000000000e+00 +1.0599999362894279e+01 -2.9820716090555380e-02 -5.6504158593183562e-01 +5.7590204284549053e-03
1.0699999999999978e+01 +8.1617568928516011e+00 +0.0000000000000000e+00 +1.0699999344692614e+01 -2.9820546187975371e-02 -5.6504179816509881e-01 +5.7588743893609530e-03
1.0799999999999978e+01 +8.1616959913901113e+00 +0.0000000000000000e+00 +1.0799999326147539e+01 -2.9820371513885131e-02 -5.6504201970777534e-01 +5.7587290798523415e-03
1.0899999999999977e+01 +8.1616345234139871e+00 +0.0000000000000000e+00 +1.0899999307255843e+01 -2.9820192737746720e-02 -5.6504224955029902e-01 +5.7585841528346605e-03
1.0999999999999977e+01 +8.1615724889229995e+00 +0.0000000000000000e+00 +1.0999999288014317e+01 -2.9820010529109868e-02 -5.6504248668313573e-01 +5.7584392612077418e-03
1.1099999999999977e+01 +8.1615098879169139e+00 +0.0000000000000000e+00 +1.1099999268419753e+01 -2.9819825557613890e-02 -5.6504273009678463e-01 +5.7582940578655428e-03
1.1199999999999976e+01 +8.1614467203954888e+00 +0.0000000000000000e+00 +1.1199999248468938e+01 -2.9819638492989787e-02 -5.6504297878177734e-01 +5.7581481956960074e-03
1.1299999999999976e+01 +8.1613829863584755e+00 +0.0000000000000000e+00 +1.1299999228158665e+01 -2.9819450005062198e-02 -5.6504323172868032e-01 +5.7580013275809524e-03
1.1399999999999975e+01 +8.1613186858056235e+00 +0.0000000000000000e+00 +1.1399999207485724e+01 -2.9819260763751441e-02 -5.6504348792809489e-01 +5.7578531063959357e-03
1.1499999999999975e+01 +8.1612538187366788e+00 +0.0000000000000000e+00 +1.1499999186446905e+01 -2.9819071439075532e-02 -5.6504374637065824e-01 +5.7577031850101377e-03
1.1599999999999975e+01 +8.1611883851513820e+00 +0.0000000000000000e+00 +1.1599999165038998e+01 -2.9818882701152141e-02 -5.6504400604704441e-01 +5.7575512162862325e-03
1.1699999999999974e+01 +8.1611223850494774e+00 +0.0000000000000000e+00 +1.1699999143258795e+01 -2.9818695220200697e-02 -5.6504426594796375e-01 +5.7573968530802572e-03
1.1799999999999974e+01 +8.1610558184307056e+00 +0.0000000000000000e+00 +1.1799999121103085e+01 -2.9818509666544295e-02 -5.6504452506416492e-01 +5.7572397482414991e-03
