# multipoles
# s[mm] polynom_b[n=0][T/m^n] polynom_b[n=1][T/m^n] polynom_b[n=2][T/m^n] polynom_b[n=3][T/m^n] polynom_b[n=4][T/m^n] polynom_b[n=5][T/m^n] polynom_b[n=6][T/m^n] 
+0.0000000000000000e+00 -5.9480684020820584e-01 +8.1106108890526531e+00 -6.4563643429143880e-01 -1.3893027978233937e+01 -4.1974455596854505e+03 -1.8973576460643005e+05 +1.5201058819836380e+07 
+1.0000000000000001e-01 -5.9480681292287807e-01 +8.1105978758378310e+00 -6.4141963009703240e-01 -1.4124206454224035e+01 -4.2263848962525472e+03 -1.8760236848624496e+05 +1.5235541475484893e+07 
+2.0000000000000001e-01 -5.9480677580329766e-01 +8.1105857801934800e+00 -6.3864975222769838e-01 -1.4346985359292281e+01 -4.2336000606566922e+03 -1.8561411755734897e+05 +1.5187001157935081e+07 
+3.0000000000000004e-01 -5.9480672955260616e-01 +8.1105746416102473e+00 -6.3722170088443486e-01 -1.4563385710512170e+01 -4.2207836404957825e+03 -1.8375498131254024e+05 +1.5062170379054887e+07 
+4.0000000000000002e-01 -5.9480667487395500e-01 +8.1105644995878592e+00 -6.3703037521668415e-01 -1.4775428778960407e+01 -4.1896282424065994e+03 -1.8200892786562833e+05 +1.4867781745646153e+07 
+5.0000000000000000e-01 -5.9480661247050237e-01 +8.1105553936293404e+00 -6.3797067436270849e-01 -1.4985135917081914e+01 -4.1418264667525118e+03 -1.8035992497165117e+05 +1.4610567821715385e+07 
+5.9999999999999998e-01 -5.9480654304538538e-01 +8.1105473632450220e+00 -6.3993750057287047e-01 -1.5194528691874297e+01 -4.0790708539322663e+03 -1.7879193918358910e+05 +1.4297260890076872e+07 
+6.9999999999999996e-01 -5.9480646730177389e-01 +8.1105404479488037e+00 -6.4282575246889406e-01 -1.5405628745602801e+01 -4.0030540089883025e+03 -1.7728893674168127e+05 +1.3934593533383751e+07 
+7.9999999999999993e-01 -5.9480638594282353e-01 +8.1105346872588022e+00 -6.4653033108231273e-01 -1.5620457853283355e+01 -3.9154684891027127e+03 -1.7583488310695739e+05 +1.3529298105372602e+07 
+8.9999999999999991e-01 -5.9480629967169130e-01 +8.1105301206919460e+00 -6.5094613751192065e-01 -1.5841037719557532e+01 -3.8180068468549284e+03 -1.7441374427721064e+05 +1.3088106930290222e+07 
+9.9999999999999989e-01 -5.9480620919156380e-01 +8.1105267877707536e+00 -6.5596806972240274e-01 -1.6069390205543957e+01 -3.7123616935361679e+03 -1.7300948536357246e+05 +1.2617752613523239e+07 
+1.0999999999999999e+00 -5.9480611520558724e-01 +8.1105247280167063e+00 -6.6149103094086592e-01 -1.6307537134255050e+01 -3.6002255376653302e+03 -1.7160607170791971e+05 +1.2124967264536450e+07 
+1.2000000000000000e+00 -5.9480601841696779e-01 +8.1105239809506955e+00 -6.6740991752809165e-01 -1.6557500281192070e+01 -3.4832910170660016e+03 -1.7018746900245902e+05 +1.1616483606971627e+07 
+1.3000000000000000e+00 -5.9480591952888195e-01 +8.1105245860881521e+00 -6.7361962950158838e-01 -1.6821301254995760e+01 -3.3632506992325466e+03 -1.6873764389755338e+05 +1.1099034026814977e+07 
+1.4000000000000001e+00 -5.9480581924452269e-01 +8.1105265829509392e+00 -6.8001506527650757e-01 -1.7100961827492373e+01 -3.2417971804690687e+03 -1.6724056212042630e+05 +1.0579351042279910e+07 
+1.5000000000000002e+00 -5.9480571826709672e-01 +8.1105300110451779e+00 -6.8649112203195628e-01 -1.7398503287555020e+01 -3.1206230794378234e+03 -1.6568019222775340e+05 +1.0064167275348283e+07 
+1.6000000000000003e+00 -5.9480561729982140e-01 +8.1105349098858515e+00 -6.9294269549126897e-01 -1.7715947166964245e+01 -3.0014210426339487e+03 -1.6404050133214210e+05 +9.5602154773171823e+06 
+1.7000000000000004e+00 -5.9480551704590934e-01 +8.1105413189720963e+00 -6.9926468255007335e-01 -1.8055314511674030e+01 -2.8858836930301904e+03 -1.6230545936872571e+05 +9.0742282832168043e+06 
+1.8000000000000005e+00 -5.9480541820859090e-01 +8.1105492778025425e+00 -7.0535197757477541e-01 -1.8418626332150229e+01 -2.7757037034731629e+03 -1.6045903644088068e+05 +8.6129385661208313e+06 
+1.9000000000000006e+00 -5.9480532149112308e-01 +8.1105588258639063e+00 -7.1109947180104616e-01 -1.8807903253012945e+01 -2.6725738072896943e+03 -1.5848520491166713e+05 +8.1830794863140238e+06 
+2.0000000000000004e+00 -5.9480522759674970e-01 +8.1105700026374379e+00 -7.1640205880583341e-01 -1.9225165731763550e+01 -2.5781866894839841e+03 -1.5636793801647011e+05 +7.7913839598078942e+06 
+2.1000000000000005e+00 -5.9480513719346073e-01 +8.1105828000020672e+00 -7.2117343944295798e-01 -1.9671050665609705e+01 -2.4938854338270207e+03 -1.5409978189530611e+05 +7.4431062280745832e+06 
+2.2000000000000006e+00 -5.9480505080258350e-01 +8.1105970242727778e+00 -7.2540270624780556e-01 -2.0140728287013243e+01 -2.4196171879057051e+03 -1.5170752374829655e+05 +7.1376220561642507e+06 
+2.3000000000000007e+00 -5.9480496890740242e-01 +8.1106124365529357e+00 -7.2909783948022466e-01 -2.0628017846312709e+01 -2.3549807734580368e+03 -1.4922650701679959e+05 +6.8728470789985154e+06 
+2.4000000000000008e+00 -5.9480489199118225e-01 +8.1106287979468146e+00 -7.3226682215850258e-01 -2.1126738653760132e+01 -2.2995749608723763e+03 -1.4669207469750242e+05 +6.6466966967464788e+06 
+2.5000000000000009e+00 -5.9480482053715766e-01 +8.1106458695595922e+00 -7.3491764087476708e-01 -2.1630710086831726e+01 -2.2529984539869306e+03 -1.4413956928269003e+05 +6.4570859999294467e+06 
+2.6000000000000010e+00 -5.9480475502856067e-01 +8.1106634124860655e+00 -7.3705828287351627e-01 -2.2133751250335006e+01 -2.2148499451978937e+03 -1.4160433477598993e+05 +6.3019300360166049e+06 
+2.7000000000000011e+00 -5.9480469594859564e-01 +8.1106811878248006e+00 -7.3869673883134146e-01 -2.2629681421725007e+01 -2.1847280643908443e+03 -1.3912171400288914e+05 +6.1791435681170458e+06 
+2.8000000000000012e+00 -5.9480464378046471e-01 +8.1106989566672532e+00 -7.3984099946855053e-01 -2.3112319716630605e+01 -2.1622314424877191e+03 -1.3672705062431062e+05 +6.0866413764623450e+06 
+2.9000000000000012e+00 -5.9480459900730920e-01 +8.1107164801059675e+00 -7.4049906312553704e-01 -2.3575485339720689e+01 -2.1469585696331692e+03 -1.3445568763205875e+05 +6.0223375909064589e+06 
+3.0000000000000013e+00 -5.9480456211228661e-01 +8.1107335192251462e+00 -7.4067892593162399e-01 -2.4012997317624784e+01 -2.1385079800432786e+03 -1.3234296889880663e+05 +5.9841465645587323e+06 
+3.1000000000000014e+00 -5.9480453357849161e-01 +8.1107498351106919e+00 -7.4038859251715383e-01 -2.4418674800598751e+01 -2.1364780462235822e+03 -1.3042423739118240e+05 +5.9699818910635673e+06 
+3.2000000000000015e+00 -5.9480451388901467e-01 +8.1107651888427252e+00 -7.3963606680637772e-01 -2.4786336824552873e+01 -2.1404671629754525e+03 -1.2873483662043129e+05 +5.9777573017961634e+06 
+3.3000000000000016e+00 -5.9480450352690806e-01 +8.1107793415025178e+00 -7.3842935812996890e-01 -2.5109802561215773e+01 -2.1500736220338581e+03 -1.2731010905048705e+05 +6.0053860488477247e+06 
+3.4000000000000017e+00 -5.9480450297518517e-01 +8.1107920541627809e+00 -7.3677648019530939e-01 -2.5382891006214546e+01 -2.1648956372730609e+03 -1.2618539800750501e+05 +6.0507810378042273e+06 
+3.5000000000000018e+00 -5.9480451271681789e-01 +8.1108030878951496e+00 -7.3468545220569648e-01 -2.5599421213048423e+01 -2.1845313182780883e+03 -1.2539604626458975e+05 +6.1118546904425686e+06 
+3.6000000000000019e+00 -5.9480453323475779e-01 +8.1108122037708679e+00 -7.3216429479613476e-01 -2.5753212310791266e+01 -2.2085787585051507e+03 -1.2497739595978001e+05 +6.1865193929182366e+06 
+3.7000000000000020e+00 -5.9480456501188983e-01 +8.1108191628552149e+00 -7.2922103779565806e-01 -2.5838083373023295e+01 -2.2366358740857654e+03 -1.2496478927076244e+05 +6.2726866941282544e+06 
+3.8000000000000020e+00 -5.9480460853109562e-01 +8.1108237262123328e+00 -7.2586371043156805e-01 -2.5847853522352640e+01 -2.2683006015851311e+03 -1.2539356791239917e+05 +6.3682682767153326e+06 
+3.9000000000000021e+00 -5.9480466427518808e-01 +8.1108256548992870e+00 -7.2210035045660592e-01 -2.5776341798734524e+01 -2.3031707192161248e+03 -1.2629907378549706e+05 +6.4711750932276379e+06 
+4.0000000000000018e+00 -5.9480473272691581e-01 +8.1108247099743664e+00 -7.1793900353963713e-01 -2.5617367396614370e+01 -2.3408438589953385e+03 -1.2771664764399985e+05 +6.5793174255935354e+06 
+4.1000000000000014e+00 -5.9480481406988006e-01 +8.1108207354923447e+00 -7.1339761854477701e-01 -2.5367376136209511e+01 -2.3809114993266362e+03 -1.2966589536776282e+05 +6.6908552886237660e+06 
+4.2000000000000011e+00 -5.9480490730950641e-01 +8.1108138977961310e+00 -7.0853337104341529e-01 -2.5032952386669056e+01 -2.4229231826744649e+03 -1.3210520109150044e+05 +6.8047870474489406e+06 
+4.3000000000000007e+00 -5.9480501116127893e-01 +8.1108044414781535e+00 -7.0341312971071390e-01 -2.4623128099082269e+01 -2.4664142688461907e+03 -1.3497803760418284e+05 +6.9202834446353437e+06 
+4.4000000000000004e+00 -5.9480512434070765e-01 +8.1107926111488631e+00 -6.9810375898448518e-01 -2.4146935583350771e+01 -2.5109201980422222e+03 -1.3822787606317591e+05 +7.0365155809473889e+06 
+4.5000000000000000e+00 -5.9480524556333192e-01 +8.1107786514248836e+00 -6.9267211866821732e-01 -2.3613407155845248e+01 -2.5559765015442158e+03 -1.4179818806542206e+05 +7.1526549762375345e+06 
+4.5999999999999996e+00 -5.9480537354473795e-01 +8.1107628069378261e+00 -6.8718506194552886e-01 -2.3031575385518348e+01 -2.6011188355051208e+03 -1.4563244425913334e+05 +7.2678737182396883e+06 
+4.6999999999999993e+00 -5.9480550700055734e-01 +8.1107453223357346e+00 -6.8170943537724715e-01 -2.2410473142151826e+01 -2.6458829822866774e+03 -1.4967411403772628e+05 +7.3813444700619224e+06 
+4.7999999999999989e+00 -5.9480564464643126e-01 +8.1107264422763432e+00 -6.7631208308317114e-01 -2.1759133363968555e+01 -2.6898047716014767e+03 -1.5386666699632030e+05 +7.4922400940064620e+06 
+4.8999999999999986e+00 -5.9480578519807603e-01 +8.1107064114344354e+00 -6.7105983849525674e-01 -2.1086589266117816e+01 -2.7324202390277569e+03 -1.5815357173260438e+05 +7.5997344122917019e+06 
+4.9999999999999982e+00 -5.9480592737122340e-01 +8.1106854745050843e+00 -6.6601953220067334e-01 -2.0401874437257238e+01 -2.7732654735002111e+03 -1.6247829527972787e+05 +7.7030014678242616e+06 
+5.0999999999999979e+00 -5.9480606988167362e-01 +8.1106638761942946e+00 -6.6125798513687717e-01 -1.9714022545409478e+01 -2.8118767451804283e+03 -1.6678430488039993e+05 +7.8012161272122292e+06 
+5.1999999999999975e+00 -5.9480621144526591e-01 +8.1106418612283164e+00 -6.5684201152786770e-01 -1.9032067598377207e+01 -2.8477904583886934e+03 -1.7101506649588913e+05 +7.8935538810177259e+06 
+5.2999999999999972e+00 -5.9480635077791100e-01 +8.1106196743495698e+00 -6.5283841608937132e-01 -1.8365043815725141e+01 -2.8805431925087173e+03 -1.7511404557769664e+05 +7.9791910023148302e+06 
+5.3999999999999968e+00 -5.9480648659553381e-01 +8.1105975603249725e+00 -6.4931399995838202e-01 -1.7721985854083517e+01 -2.9096715979412475e+03 -1.7902470581614025e+05 +8.0573040724944202e+06 
+5.4999999999999964e+00 -5.9480661761416953e-01 +8.1105757639388987e+00 -6.4633554885856714e-01 -1.7111928604641918e+01 -2.9347126204901379e+03 -1.8269051029154594e+05 +8.1270710481800810e+06 
+5.5999999999999961e+00 -5.9480674254987675e-01 +8.1105545299931894e+00 -6.4396984453923445e-01 -1.6543907172836079e+01 -2.9552032781519188e+03 -1.8605492166798210e+05 +8.1876701802833527e+06 
+5.6999999999999957e+00 -5.9480686011877149e-01 +8.1105341033139098e+00 -6.4228365983688518e-01 -1.6026957057497398e+01 -2.9706807603192060e+03 -1.8906140118806195e+05 +8.2382804999275720e+06 
+5.7999999999999954e+00 -5.9480696903708874e-01 +8.1105147287528716e+00 -6.4134375128668097e-01 -1.5570114203546886e+01 -2.9806825659139577e+03 -1.9165340834942446e+05 +8.2780824672554750e+06 
+5.8999999999999950e+00 -5.9480706802106709e-01 +8.1104966511779804e+00 -6.4121687309219655e-01 -1.5182414684460070e+01 -2.9847462396210963e+03 -1.9377440285152529e+05 +8.3062567201204496e+06 
+5.9999999999999947e+00 -5.9480715578705390e-01 +8.1104801154879365e+00 -6.4196976451003140e-01 -1.4872895121121651e+01 -2.9824096045792603e+03 -1.9536784210701130e+05 +8.3219851640468761e+06 
+6.0999999999999943e+00 -5.9480723148823289e-01 +8.1104653238822788e+00 -6.4364519354685945e-01 -1.4648267235379071e+01 -2.9733525366420272e+03 -1.9639311715825347e+05 +8.3245494679410933e+06 
+6.1999999999999940e+00 -5.9480729599467619e-01 +8.1104523240010682e+00 -6.4619271005630174e-01 -1.4506823885991642e+01 -2.9578257502706556e+03 -1.9686876316582831e+05 +8.3138228233566945e+06 
+6.2999999999999936e+00 -5.9480735059826750e-01 +8.1104411287154807e+00 -6.4953923866709029e-01 -1.4444959627800571e+01 -2.9362217206685873e+03 -1.9682706011495175e+05 +8.2898660110263871e+06 
+6.3999999999999932e+00 -5.9480739659089310e-01 +8.1104317508773534e+00 -6.5361170656442424e-01 -1.4459068694019621e+01 -2.9089328542287503e+03 -1.9630028920819121e+05 +8.2527394729847480e+06 
+6.4999999999999929e+00 -5.9480743526440893e-01 +8.1104242033153113e+00 -6.5833704686420180e-01 -1.4545544942321305e+01 -2.8763514324948183e+03 -1.9532073292995500e+05 +8.2025030616096370e+06 
+6.5999999999999925e+00 -5.9480746791068384e-01 +8.1104184988448367e+00 -6.6364219441444128e-01 -1.4700782114454793e+01 -2.8388696813619754e+03 -1.9392067361382820e+05 +8.1392163409417188e+06 
+6.6999999999999922e+00 -5.9480749582155434e-01 +8.1104146502542083e+00 -6.6945409060597916e-01 -1.4921173488313650e+01 -2.7968796873988031e+03 -1.9213239529947232e+05 +8.0629382117310818e+06 
+6.7999999999999918e+00 -5.9480752028886885e-01 +8.1104126703107315e+00 -6.7569967909225481e-01 -1.5203112042861859e+01 -2.7507734699940488e+03 -1.8998818280951603e+05 +7.9737272321548034e+06 
+6.8999999999999915e+00 -5.9480754260444801e-01 +8.1104125717603619e+00 -6.8230590952238113e-01 -1.5542990463096713e+01 -2.7009429186163561e+03 -1.8752032168023734e+05 +7.8716413425103053e+06 
+6.9999999999999911e+00 -5.9480756406010982e-01 +8.1104143673257258e+00 -6.8919973539626356e-01 -1.5937201110534652e+01 -2.6477798277072225e+03 -1.8476109824905533e+05 +7.7567380174543336e+06 
+7.0999999999999908e+00 -5.9480758594763583e-01 +8.1104180696986656e+00 -6.9630811829108197e-01 -1.6382135808057789e+01 -2.5916758159013179e+03 -1.8174280089625341e+05 +7.6290738824289413e+06 
+7.1999999999999904e+00 -5.9480760955884471e-01 +8.1104236915547343e+00 -7.0355801861745138e-01 -1.6874186275907061e+01 -2.5330225033619217e+03 -1.7849771747087533e+05 +7.4887055632208940e+06 
+7.2999999999999901e+00 -5.9480763618547672e-01 +8.1104312455308456e+00 -7.1087641044380867e-01 -1.7409743502303002e+01 -2.4722112253768164e+03 -1.7505813888651237e+05 +7.3356883133539464e+06 
+7.3999999999999897e+00 -5.9480766711929156e-01 +8.1104407442454054e+00 -7.1819026894182059e-01 -1.7985198332076852e+01 -2.4096332755782546e+03 -1.7145635568754582e+05 +7.1700771844287021e+06 
+7.4999999999999893e+00 -5.9480770365204749e-01 +8.1104522002835182e+00 -7.2542657373433894e-01 -1.8596941061532807e+01 -2.3456798357560328e+03 -1.6772466033322277e+05 +6.9919266771279536e+06 
+7.5999999999999890e+00 -5.9480774707544981e-01 +8.1104656262024868e+00 -7.3251231466134137e-01 -1.9241361611442859e+01 -2.2807418713195261e+03 -1.6389534615035952e+05 +6.8012902580550155e+06 
+7.6999999999999886e+00 -5.9480779868119416e-01 +8.1104810345273748e+00 -7.3937448741772283e-01 -1.9914849396599418e+01 -2.2152102096714411e+03 -1.6000070809963121e+05 +6.5982207250691038e+06 
+7.7999999999999883e+00 -5.9480785976098571e-01 +8.1104984377505236e+00 -7.4594009051174814e-01 -2.0613793339094311e+01 -2.1494755979920274e+03 -1.5607304260228330e+05 +6.3827704799842462e+06 
+7.8999999999999879e+00 -5.9480793160647560e-01 +8.1105178483356131e+00 -7.5213613380695199e-01 -2.1334582001389002e+01 -2.0839285411185347e+03 -1.5214464674415078e+05 +6.1549907628631797e+06 
+7.9999999999999876e+00 -5.9480801550930373e-01 +8.1105392787097994e+00 -7.5788963267732534e-01 -2.2073603423803867e+01 -2.0189594212819418e+03 -1.4824781912213544e+05 +5.9149322421753900e+06 
+8.0999999999999872e+00 -5.9480811249038568e-01 +8.1105626921978189e+00 -7.6314607559236358e-01 -2.2827280232645208e+01 -1.9548802213068830e+03 -1.4441029849343924e+05 +5.6628207050174894e+06 
+8.1999999999999869e+00 -5.9480822250819920e-01 +8.1105878386000327e+00 -7.6791913375157916e-01 -2.3591048936483510e+01 -1.8917546430418652e+03 -1.4064780457469507e+05 +5.3996720477026198e+06 
+8.2999999999999865e+00 -5.9480834526044202e-01 +8.1106144099917650e+00 -7.7223808031931129e-01 -2.4359830473937219e+01 -1.8296034834890754e+03 -1.3697447069617832e+05 +5.1267378965368783e+06 
+8.3999999999999861e+00 -5.9480848044475820e-01 +8.1106420984650800e+00 -7.7613219113452847e-01 -2.5128546079261948e+01 -1.7684475312161530e+03 -1.3340442885735305e+05 +4.8452698987957966e+06 
+8.4999999999999858e+00 -5.9480862775874310e-01 +8.1106705961260754e+00 -7.7963074375229846e-01 -2.5892117200731580e+01 -1.7083075885645667e+03 -1.2995181049608484e+05 +4.5565198654646929e+06 
+8.5999999999999854e+00 -5.9480878689994876e-01 +8.1106995950891996e+00 -7.8276301767979861e-01 -2.6645465318067213e+01 -1.6492044576573721e+03 -1.2663074759829513e+05 +4.2617396748981159e+06 
+8.6999999999999851e+00 -5.9480895756585039e-01 +8.1107287874912029e+00 -7.8555829650295961e-01 -2.7383512341546233e+01 -1.5911589183009316e+03 -1.2345537040651054e+05 +3.9621812188101257e+06 
+8.7999999999999847e+00 -5.9480913945389224e-01 +8.1107578654796022e+00 -7.8804586455454639e-01 -2.8101180271820226e+01 -1.5341917724624936e+03 -1.2043980940928968e+05 +3.6590965594725274e+06 
+8.8999999999999844e+00 -5.9480933226143629e-01 +8.1107865212190067e+00 -7.9025501078020266e-01 -2.8793391372036037e+01 -1.4783237900244822e+03 -1.1759819438927673e+05 +3.3537377243270837e+06 
+8.9999999999999840e+00 -5.9480953568582051e-01 +8.1108144468912489e+00 -7.9221502286671619e-01 -2.9455068173815029e+01 -1.4235758112679925e+03 -1.1494465437525892e+05 +3.0473571665561665e+06 
+9.0999999999999837e+00 -5.9480974942426812e-01 +8.1108413346947010e+00 -7.9395519779355561e-01 -3.0081133431157287e+01 -1.3699685521957317e+03 -1.1249331799291050e+05 +2.7412068550533876e+06 
+9.1999999999999833e+00 -5.9480997317400430e-01 +8.1108668768420547e+00 -7.9550482707270009e-01 -3.0666510066246659e+01 -1.3175228850501660e+03 -1.1025831375928482e+05 +2.4365396057747356e+06 
+9.2999999999999829e+00 -5.9481020663214712e-01 +8.1108907655699536e+00 -7.9689321078522590e-01 -3.1206121432860964e+01 -1.2662595722406654e+03 -1.0825376860064907e+05 +2.1346078194886073e+06 
+9.3999999999999826e+00 -5.9481044949576334e-01 +8.1109126931283413e+00 -7.9814964995505022e-01 -3.1694890997207661e+01 -1.2161994135704604e+03 -1.0649380973553723e+05 +1.8366641846954804e+06 
+9.4999999999999822e+00 -5.9481070146185167e-01 +8.1109323517883798e+00 -7.9930344854324153e-01 -3.2127742565038723e+01 -1.1673632107206251e+03 -1.0499256336996485e+05 +1.5439615158625215e+06 
+9.5999999999999819e+00 -5.9481096222733476e-01 +8.1109494338435386e+00 -8.0038391448045165e-01 -3.2499600305902860e+01 -1.1197717472570357e+03 -1.0376415458731510e+05 +1.2577526545374561e+06 
+9.6999999999999815e+00 -5.9481123148909520e-01 +8.1109636315999296e+00 -8.0142035498757103e-01 -3.2805388458188553e+01 -1.0734458801642729e+03 -1.0282270909877295e+05 +9.7929091284994851e+05 
+9.7999999999999812e+00 -5.9481150894390844e-01 +8.1109746373946621e+00 -8.0244208446148257e-01 -3.3040031865869437e+01 -1.0284063918229303e+03 -1.0218235012394427e+05 +7.0982937026098557e+05 
+9.8999999999999808e+00 -5.9481179428847653e-01 +8.1109821435743612e+00 -8.0347842099207101e-01 -3.3198455329630200e+01 -9.8467405499636652e+02 -1.0185720223685418e+05 +4.5062118240798119e+05 
+9.9999999999999805e+00 -5.9481208721946144e-01 +8.1109858425178896e+00 -8.0455868109947992e-01 -3.3275584204031119e+01 -9.4226972856572399e+02 -1.0186138814789156e+05 +2.0292000534397413e+05 
+1.0099999999999980e+01 -5.9481238742856990e-01 +8.1109855477579380e+00 -8.0570682181762110e-01 -3.3268569166046184e+01 -9.0121489510853962e+02 -1.0220123909866906e+05 -3.2260285365419295e+04 
