# field on trajectory
# s[mm] rx[mm] ry[mm] rz[mm] bx[T] by[T] bz[T]
-0.0000000000000000e+00 +8.1530000000000094e+00 +0.0000000000000000e+00 -0.0000000000000000e+00 -3.0515961970796271e-02 -5.6443061020616792e-01 +5.6001844189905083e-03
-1.0000000000000001e-01 +8.1529997163925092e+00 +0.0000000000000000e+00 -9.9999999999463796e-02 -3.0515857379485357e-02 -5.6443059807953988e-01 +5.6001278096714660e-03
-2.0000000000000001e-01 +8.1529988655711296e+00 +0.0000000000000000e+00 -1.9999999999571000e-01 -3.0515745869585786e-02 -5.6443059819876107e-01 +5.6000714331413803e-03
-2.9999999999999999e-01 +8.1529974475415692e+00 +0.0000000000000000e+00 -2.9999999998552201e-01 -3.0515627844333666e-02 -5.6443061052520338e-01 +5.6000154386232487e-03
-4.0000000000000002e-01 +8.1529954622965306e+00 +0.0000000000000000e+00 -3.9999999996568197e-01 -3.0515503706962502e-02 -5.6443063502033908e-01 +5.5999599753403283e-03
-5.0000000000000000e-01 +8.1529929098396696e+00 +0.0000000000000000e+00 -4.9999999993297300e-01 -3.0515373860693772e-02 -5.6443067164555727e-01 +5.5999051925144337e-03
-5.9999999999999998e-01 +8.1529897901673394e+00 +0.0000000000000000e+00 -5.9999999988417696e-01 -3.0515238708744959e-02 -5.6443072036230379e-01 +5.5998512393676111e-03
-6.9999999999999996e-01 +8.1529861032831796e+00 +0.0000000000000000e+00 -6.9999999981607697e-01 -3.0515098654324106e-02 -5.6443078113196954e-01 +5.5997982651211815e-03
-8.0000000000000004e-01 +8.1529818491871993e+00 +0.0000000000000000e+00 -7.9999999972545699e-01 -3.0514954100634727e-02 -5.6443085391597425e-01 +5.5997464189968260e-03
-9.0000000000000002e-01 +8.1529770278793894e+00 +0.0000000000000000e+00 -8.9999999960909804e-01 -3.0514805450874889e-02 -5.6443093867573912e-01 +5.5996958502164866e-03
-1.0000000000000000e+00 +8.1529716393597500e+00 +0.0000000000000000e+00 -9.9999999946378304e-01 -3.0514653108237706e-02 -5.6443103537268569e-01 +5.5996467080026034e-03
-1.1000000000000001e+00 +8.1529656836210105e+00 +0.0000000000000000e+00 -1.0999999992862901e+00 -3.0514497475914854e-02 -5.6443114396829464e-01 +5.5995991415788817e-03
-1.2000000000000000e+00 +8.1529591606740706e+00 +0.0000000000000000e+00 -1.1999999990734200e+00 -3.0514338957086492e-02 -5.6443126442390656e-01 +5.5995533001684987e-03
-1.3000000000000000e+00 +8.1529520705153100e+00 +0.0000000000000000e+00 -1.2999999988219300e+00 -3.0514177954935367e-02 -5.6443139670097564e-01 +5.5995093329968921e-03
-1.3999999999999999e+00 +8.1529444131410909e+00 +0.0000000000000000e+00 -1.3999999985286200e+00 -3.0514014872641312e-02 -5.6443154076095814e-01 +5.5994673892908247e-03
-1.5000000000000000e+00 +8.1529361885550298e+00 +0.0000000000000000e+00 -1.4999999981902701e+00 -3.0513850113378722e-02 -5.6443169656525660e-01 +5.5994276182780248e-03
-1.6000000000000001e+00 +8.1529273967571498e+00 +0.0000000000000000e+00 -1.5999999978036501e+00 -3.0513684080321502e-02 -5.6443186407530188e-01 +5.5993901691882520e-03
-1.7000000000000000e+00 +8.1529180377474404e+00 +0.0000000000000000e+00 -1.6999999973655600e+00 -3.0513517176642201e-02 -5.6443204325252772e-01 +5.5993551912532124e-03
-1.8000000000000000e+00 +8.1529081115222706e+00 +0.0000000000000000e+00 -1.7999999968727800e+00 -3.0513349805513939e-02 -5.6443223405839837e-01 +5.5993228337070777e-03
-1.8999999999999999e+00 +8.1528976180852606e+00 +0.0000000000000000e+00 -1.8999999963220899e+00 -3.0513182370106421e-02 -5.6443243645432339e-01 +5.5992932457858153e-03
-2.0000000000000000e+00 +8.1528865574327902e+00 +0.0000000000000000e+00 -1.9999999957102601e+00 -3.0513015273592455e-02 -5.6443265040177082e-01 +5.5992665767285541e-03
-2.1000000000000001e+00 +8.1528749295721408e+00 +0.0000000000000000e+00 -2.0999999950340902e+00 -3.0512848884491670e-02 -5.6443287567742095e-01 +5.5992429455503203e-03
-2.2000000000000002e+00 +8.1528627344960096e+00 +0.0000000000000000e+00 -2.1999999942903599e+00 -3.0512683432736620e-02 -5.6443311131924290e-01 +5.5992223503651363e-03
-2.2999999999999998e+00 +8.1528499722080596e+00 +0.0000000000000000e+00 -2.2999999934758399e+00 -3.0512519113615685e-02 -5.6443335618040424e-01 +5.5992047590602894e-03
-2.3999999999999999e+00 +8.1528366427046404e+00 +0.0000000000000000e+00 -2.3999999925873299e+00 -3.0512356122431989e-02 -5.6443360911411644e-01 +5.5991901395234210e-03
-2.5000000000000000e+00 +8.1528227459894005e+00 +0.0000000000000000e+00 -2.4999999916215998e+00 -3.0512194654498823e-02 -5.6443386897351866e-01 +5.5991784596411999e-03
-2.6000000000000001e+00 +8.1528082820659602e+00 +0.0000000000000000e+00 -2.5999999905754398e+00 -3.0512034905144189e-02 -5.6443413461173508e-01 +5.5991696872997668e-03
-2.7000000000000002e+00 +8.1527932509234198e+00 +0.0000000000000000e+00 -2.6999999894456299e+00 -3.0511877069718210e-02 -5.6443440488198393e-01 +5.5991637903857125e-03
-2.7999999999999998e+00 +8.1527776525726896e+00 +0.0000000000000000e+00 -2.7999999882289601e+00 -3.0511721343579563e-02 -5.6443467863729535e-01 +5.5991607367830501e-03
-2.8999999999999999e+00 +8.1527614870065008e+00 +0.0000000000000000e+00 -2.8999999869222002e+00 -3.0511567922113517e-02 -5.6443495473081939e-01 +5.5991604943762220e-03
-3.0000000000000000e+00 +8.1527447542284808e+00 +0.0000000000000000e+00 -2.9999999855221300e+00 -3.0511417000721394e-02 -5.6443523201559975e-01 +5.5991630310476504e-03
-3.1000000000000001e+00 +8.1527274542386294e+00 +0.0000000000000000e+00 -3.0999999840255499e+00 -3.0511268774827960e-02 -5.6443550934468423e-01 +5.5991683146787239e-03
-3.2000000000000002e+00 +8.1527095870333106e+00 +0.0000000000000000e+00 -3.1999999824292300e+00 -3.0511123439883003e-02 -5.6443578557112417e-01 +5.5991763131496486e-03
-3.2999999999999998e+00 +8.1526911526198091e+00 +0.0000000000000000e+00 -3.2999999807299600e+00 -3.0510981191356694e-02 -5.6443605954785880e-01 +5.5991869943381282e-03
-3.3999999999999999e+00 +8.1526721509872004e+00 +0.0000000000000000e+00 -3.3999999789245101e+00 -3.0510842224753119e-02 -5.6443633012794014e-01 +5.5992003261215338e-03
-3.5000000000000000e+00 +8.1526525821464002e+00 +0.0000000000000000e+00 -3.4999999770096801e+00 -3.0510706735595233e-02 -5.6443659616422204e-01 +5.5992162763735583e-03
-3.6000000000000001e+00 +8.1526324460901396e+00 +0.0000000000000000e+00 -3.5999999749822500e+00 -3.0510574919442809e-02 -5.6443685650966757e-01 +5.5992348129672411e-03
-3.7000000000000002e+00 +8.1526117428220495e+00 +0.0000000000000000e+00 -3.6999999728389801e+00 -3.0510446971881912e-02 -5.6443711001712271e-01 +5.5992559037725083e-03
-3.7999999999999998e+00 +8.1525904723421299e+00 +0.0000000000000000e+00 -3.7999999705766800e+00 -3.0510323088532396e-02 -5.6443735553942764e-01 +5.5992795166571636e-03
-3.8999999999999999e+00 +8.1525686346503807e+00 +0.0000000000000000e+00 -3.8999999681921298e+00 -3.0510203465047833e-02 -5.6443759192938647e-01 +5.5993056194864471e-03
-4.0000000000000000e+00 +8.1525462297431694e+00 +0.0000000000000000e+00 -3.9999999656820902e+00 -3.0510088297118470e-02 -5.6443781803979465e-01 +5.5993341801231682e-03
-4.0999999999999996e+00 +8.1525232576241304e+00 +0.0000000000000000e+00 -4.0999999630433699e+00 -3.0509977759544716e-02 -5.6443803313518526e-01 +5.5993651712308466e-03
-4.2000000000000002e+00 +8.1524997182896204e+00 +0.0000000000000000e+00 -4.1999999602727298e+00 -3.0509871943453486e-02 -5.6443823812745519e-01 +5.5993985846882633e-03
-4.2999999999999998e+00 +8.1524756117469206e+00 +0.0000000000000000e+00 -4.2999999573669703e+00 -3.0509770919025469e-02 -5.6443843434025254e-01 +5.5994344171772948e-03
-4.4000000000000004e+00 +8.1524509379887604e+00 +0.0000000000000000e+00 -4.3999999543228601e+00 -3.0509674756422075e-02 -5.6443862309734383e-01 +5.5994726653810249e-03
-4.5000000000000000e+00 +8.1524256970187707e+00 +0.0000000000000000e+00 -4.4999999511372000e+00 -3.0509583525772706e-02 -5.6443880572241878e-01 +5.5995133259817819e-03
-4.5999999999999996e+00 +8.1523998888369498e+00 +0.0000000000000000e+00 -4.5999999478067499e+00 -3.0509497297178566e-02 -5.6443898353920496e-01 +5.5995563956623123e-03
-4.7000000000000002e+00 +8.1523735134396702e+00 +0.0000000000000000e+00 -4.6999999443283098e+00 -3.0509416140710399e-02 -5.6443915787146737e-01 +5.5996018711058177e-03
-4.7999999999999998e+00 +8.1523465708305594e+00 +0.0000000000000000e+00 -4.7999999406986600e+00 -3.0509340126401795e-02 -5.6443933004292679e-01 +5.5996497489951280e-03
-4.9000000000000004e+00 +8.1523190610096208e+00 +0.0000000000000000e+00 -4.8999999369145701e+00 -3.0509269324251468e-02 -5.6443950137734411e-01 +5.5997000260135914e-03
-5.0000000000000000e+00 +8.1522909839768491e+00 +0.0000000000000000e+00 -4.9999999329728402e+00 -3.0509203804219547e-02 -5.6443967319849564e-01 +5.5997526988448287e-03
-5.0999999999999996e+00 +8.1522623397286207e+00 +0.0000000000000000e+00 -5.0999999288702398e+00 -3.0509143636226827e-02 -5.6443984683019943e-01 +5.5998077641730435e-03
-5.2000000000000002e+00 +8.1522331282685592e+00 +0.0000000000000000e+00 -5.1999999246035600e+00 -3.0509088890148077e-02 -5.6444002359623469e-01 +5.5998652186822059e-03
-5.2999999999999998e+00 +8.1522033495966806e+00 +0.0000000000000000e+00 -5.2999999201695802e+00 -3.0509039635814326e-02 -5.6444020482042612e-01 +5.5999250590569385e-03
-5.4000000000000004e+00 +8.1521730037093203e+00 +0.0000000000000000e+00 -5.3999999155650800e+00 -3.0508995943010615e-02 -5.6444039182664585e-01 +5.5999872819825543e-03
-5.5000000000000000e+00 +8.1521420906137791e+00 +0.0000000000000000e+00 -5.4999999107868396e+00 -3.0508957881467784e-02 -5.6444058593870128e-01 +5.6000518841439403e-03
-5.5999999999999996e+00 +8.1521106102991308e+00 +0.0000000000000000e+00 -5.5999999058316599e+00 -3.0508925520872327e-02 -5.6444078848056300e-01 +5.6001188622278961e-03
-5.7000000000000002e+00 +8.1520785627762997e+00 +0.0000000000000000e+00 -5.6999999006963096e+00 -3.0508898930847517e-02 -5.6444100077605441e-01 +5.6001882129199871e-03
-5.7999999999999998e+00 +8.1520459480379905e+00 +0.0000000000000000e+00 -5.7999998953775700e+00 -3.0508878180967869e-02 -5.6444122414916431e-01 +5.6002599329077656e-03
-5.9000000000000004e+00 +8.1520127660915005e+00 +0.0000000000000000e+00 -5.8999998898722197e+00 -3.0508863340743240e-02 -5.6444145992379346e-01 +5.6003340188781909e-03
-5.9999999999999902e+00 +8.1519790169259103e+00 +0.0000000000000000e+00 -5.9999998841770603e+00 -3.0508854479630310e-02 -5.6444170942401128e-01 +5.6004104675202761e-03
-6.0999999999999899e+00 +8.1519447005521197e+00 +0.0000000000000000e+00 -6.0999998782888598e+00 -3.0508851554340705e-02 -5.6444197357473669e-01 +5.6004892553804296e-03
-6.1999999999999904e+00 +8.1519098169665103e+00 +0.0000000000000000e+00 -6.1999998722044003e+00 -3.0508854070861562e-02 -5.6444225170500228e-01 +5.6005702784409275e-03
-6.2999999999999901e+00 +8.1518743661654298e+00 +0.0000000000000000e+00 -6.2999998659204701e+00 -3.0508861422517897e-02 -5.6444254274487349e-01 +5.6006534125441158e-03
-6.3999999999999897e+00 +8.1518383481488907e+00 +0.0000000000000000e+00 -6.3999998594338496e+00 -3.0508873002652828e-02 -5.6444284562443525e-01 +5.6007385335339289e-03
-6.4999999999999902e+00 +8.1518017629241495e+00 +0.0000000000000000e+00 -6.4999998527413201e+00 -3.0508888204627452e-02 -5.6444315927376643e-01 +5.6008255172556977e-03
-6.5999999999999899e+00 +8.1517646104839496e+00 +0.0000000000000000e+00 -6.5999998458396698e+00 -3.0508906421830920e-02 -5.6444348262310873e-01 +5.6009142395579371e-03
-6.6999999999999904e+00 +8.1517268908319203e+00 +0.0000000000000000e+00 -6.6999998387256703e+00 -3.0508927047671257e-02 -5.6444381460267301e-01 +5.6010045762904205e-03
-6.7999999999999901e+00 +8.1516886039680703e+00 +0.0000000000000000e+00 -6.7999998313961196e+00 -3.0508949475582511e-02 -5.6444415414275317e-01 +5.6010964033054028e-03
-6.8999999999999897e+00 +8.1516497498923908e+00 +0.0000000000000000e+00 -6.8999998238477902e+00 -3.0508973099024547e-02 -5.6444450017370074e-01 +5.6011895964574220e-03
-6.9999999999999902e+00 +8.1516103286012402e+00 +0.0000000000000000e+00 -6.9999998160774597e+00 -3.0508997311485715e-02 -5.6444485162595281e-01 +5.6012840316036544e-03
-7.0999999999999899e+00 +8.1515703400982602e+00 +0.0000000000000000e+00 -7.0999998080819298e+00 -3.0509021506479547e-02 -5.6444520742995163e-01 +5.6013795846031247e-03
-7.1999999999999904e+00 +8.1515297843834595e+00 +0.0000000000000000e+00 -7.1999997998579603e+00 -3.0509045077550527e-02 -5.6444556651623035e-01 +5.6014761313176713e-03
-7.2999999999999901e+00 +8.1514886614531896e+00 +0.0000000000000000e+00 -7.2999997914023496e+00 -3.0509067418275339e-02 -5.6444592781541403e-01 +5.6015735476120038e-03
-7.3999999999999897e+00 +8.1514469713147300e+00 +0.0000000000000000e+00 -7.3999997827118804e+00 -3.0509087922257962e-02 -5.6444629025810988e-01 +5.6016717093526356e-03
-7.4999999999999902e+00 +8.1514047139571595e+00 +0.0000000000000000e+00 -7.4999997737833199e+00 -3.0509105983143051e-02 -5.6444665277513417e-01 +5.6017704924102713e-03
-7.5999999999999899e+00 +8.1513618893914099e+00 +0.0000000000000000e+00 -7.5999997646134698e+00 -3.0509120994600517e-02 -5.6444701429720412e-01 +5.6018697726567153e-03
-7.6999999999999904e+00 +8.1513184976138309e+00 +0.0000000000000000e+00 -7.6999997551991104e+00 -3.0509132350341830e-02 -5.6444737375522158e-01 +5.6019694259678253e-03
-7.7999999999999901e+00 +8.1512745386207808e+00 +0.0000000000000000e+00 -7.7999997455370096e+00 -3.0509139444115253e-02 -5.6444773008016214e-01 +5.6020693282224556e-03
-7.8999999999999897e+00 +8.1512300124159101e+00 +0.0000000000000000e+00 -7.8999997356239602e+00 -3.0509141669703976e-02 -5.6444808220302078e-01 +5.6021693553019360e-03
-7.9999999999999902e+00 +8.1511849189955701e+00 +0.0000000000000000e+00 -7.9999997254567399e+00 -3.0509138420933439e-02 -5.6444842905492654e-01 +5.6022693830913226e-03
-8.0999999999999908e+00 +8.1511392583670403e+00 +0.0000000000000000e+00 -8.0999997150321406e+00 -3.0509129222331784e-02 -5.6444876984851766e-01 +5.6023693127002566e-03
-8.1999999999999904e+00 +8.1510930305230396e+00 +0.0000000000000000e+00 -8.1999997043469399e+00 -3.0509114121131158e-02 -5.6444910492265266e-01 +5.6024691461315865e-03
-8.2999999999999901e+00 +8.1510462354672200e+00 +0.0000000000000000e+00 -8.2999996933979094e+00 -3.0509093295227961e-02 -5.6444943489758936e-01 +5.6025689106105501e-03
-8.3999999999999897e+00 +8.1509988731995708e+00 +0.0000000000000000e+00 -8.3999996821818605e+00 -3.0509066922516013e-02 -5.6444976039356853e-01 +5.6026686333630459e-03
-8.4999999999999893e+00 +8.1509509437164507e+00 +0.0000000000000000e+00 -8.4999996706955496e+00 -3.0509035180886265e-02 -5.6445008203080982e-01 +5.6027683416156136e-03
-8.5999999999999908e+00 +8.1509024470215099e+00 +0.0000000000000000e+00 -8.5999996589357703e+00 -3.0508998248222147e-02 -5.6445040042942696e-01 +5.6028680625945593e-03
-8.6999999999999904e+00 +8.1508533831147396e+00 +0.0000000000000000e+00 -8.6999996468993004e+00 -3.0508956302403824e-02 -5.6445071620950882e-01 +5.6029678235268018e-03
-8.7999999999999794e+00 +8.1508037519961398e+00 +0.0000000000000000e+00 -8.7999996345829192e+00 -3.0508909521306506e-02 -5.6445102999108965e-01 +5.6030676516395745e-03
-8.8999999999999808e+00 +8.1507535536620708e+00 +0.0000000000000000e+00 -8.8999996219834205e+00 -3.0508858082801755e-02 -5.6445134239417627e-01 +5.6031675741607017e-03
-8.9999999999999805e+00 +8.1507027881161793e+00 +0.0000000000000000e+00 -8.9999996090975891e+00 -3.0508802164752706e-02 -5.6445165403866016e-01 +5.6032676183177151e-03
-9.0999999999999801e+00 +8.1506514553584601e+00 +0.0000000000000000e+00 -9.0999995959221902e+00 -3.0508741945018493e-02 -5.6445196554440036e-01 +5.6033678113387138e-03
-9.1999999999999797e+00 +8.1505995553889097e+00 +0.0000000000000000e+00 -9.1999995824540193e+00 -3.0508677601452382e-02 -5.6445227753119431e-01 +5.6034681804520547e-03
-9.2999999999999794e+00 +8.1505470882038900e+00 +0.0000000000000000e+00 -9.2999995686898593e+00 -3.0508609311903193e-02 -5.6445259061880226e-01 +5.6035687528866321e-03
-9.3999999999999808e+00 +8.1504940538070496e+00 +0.0000000000000000e+00 -9.3999995546264898e+00 -3.0508537254210533e-02 -5.6445290542686266e-01 +5.6036695558709937e-03
-9.4999999999999805e+00 +8.1504404521983798e+00 +0.0000000000000000e+00 -9.4999995402606903e+00 -3.0508461606209045e-02 -5.6445322257497310e-01 +5.6037706166341961e-03
-9.5999999999999801e+00 +8.1503862833778804e+00 +0.0000000000000000e+00 -9.5999995255892507e+00 -3.0508382545726812e-02 -5.6445354268266124e-01 +5.6038719624055145e-03
-9.6999999999999797e+00 +8.1503315473419207e+00 +0.0000000000000000e+00 -9.6999995106089507e+00 -3.0508300250586498e-02 -5.6445386636940942e-01 +5.6039736204146831e-03
-9.7999999999999794e+00 +8.1502762440941297e+00 +0.0000000000000000e+00 -9.7999994953165697e+00 -3.0508214898600797e-02 -5.6445419425457100e-01 +5.6040756178910613e-03
-9.8999999999999808e+00 +8.1502203736345091e+00 +0.0000000000000000e+00 -9.8999994797088906e+00 -3.0508126667576567e-02 -5.6445452695745002e-01 +5.6041779820644490e-03
-9.9999999999999805e+00 +8.1501639359594300e+00 +0.0000000000000000e+00 -9.9999994637827001e+00 -3.0508035735314732e-02 -5.6445486509730003e-01 +5.6042807401650843e-03
-1.0100000000000000e+01 +8.1501069310761505e+00 +0.0000000000000000e+00 -1.0099999447534801e+01 -3.0507942380398834e-02 -5.6445520924009918e-01 +5.6043839090766162e-03
-1.0199999999999999e+01 +8.1500493589774106e+00 +0.0000000000000000e+00 -1.0199999430961901e+01 -3.0507847284602794e-02 -5.6445555973943096e-01 +5.6044874642974347e-03
-1.0300000000000001e+01 +8.1499912196668394e+00 +0.0000000000000000e+00 -1.0299999414060901e+01 -3.0507751230503720e-02 -5.6445591689566554e-01 +5.6045913709724315e-03
-1.0400000000000000e+01 +8.1499325131444493e+00 +0.0000000000000000e+00 -1.0399999396828500e+01 -3.0507655000691650e-02 -5.6445628100919065e-01 +5.6046955942395792e-03
-1.0500000000000000e+01 +8.1498732394065900e+00 +0.0000000000000000e+00 -1.0499999379261400e+01 -3.0507559377769885e-02 -5.6445665238041165e-01 +5.6048000992297529e-03
-1.0600000000000000e+01 +8.1498133984568994e+00 +0.0000000000000000e+00 -1.0599999361356600e+01 -3.0507465144350650e-02 -5.6445703130966729e-01 +5.6049048510656814e-03
-1.0699999999999999e+01 +8.1497529902953794e+00 +0.0000000000000000e+00 -1.0699999343110701e+01 -3.0507373083059942e-02 -5.6445741809731387e-01 +5.6050098148626099e-03
-1.0800000000000001e+01 +8.1496920149220404e+00 +0.0000000000000000e+00 -1.0799999324520600e+01 -3.0507283976536247e-02 -5.6445781304369491e-01 +5.6051149557278463e-03
-1.0900000000000000e+01 +8.1496304723332305e+00 +0.0000000000000000e+00 -1.0899999305583000e+01 -3.0507198607432326e-02 -5.6445821644917304e-01 +5.6052202387608394e-03
-1.1000000000000000e+01 +8.1495683625325892e+00 +0.0000000000000000e+00 -1.0999999286294800e+01 -3.0507117758410963e-02 -5.6445862861404161e-01 +5.6053256290521528e-03
-1.1100000000000000e+01 +8.1495056855201309e+00 +0.0000000000000000e+00 -1.1099999266652601e+01 -3.0507042212149733e-02 -5.6445904983861117e-01 +5.6054310916841257e-03
-1.1199999999999999e+01 +8.1494424412958306e+00 +0.0000000000000000e+00 -1.1199999246653300e+01 -3.0506972751339782e-02 -5.6445948042318028e-01 +5.6055365917303916e-03
-1.1300000000000001e+01 +8.1493786298560700e+00 +0.0000000000000000e+00 -1.1299999226293700e+01 -3.0506910158687561e-02 -5.6445992066806372e-01 +5.6056420942560067e-03
-1.1400000000000000e+01 +8.1493142512044905e+00 +0.0000000000000000e+00 -1.1399999205570500e+01 -3.0506855216910590e-02 -5.6446037087350698e-01 +5.6057475643163683e-03
-1.1500000000000000e+01 +8.1492493053447106e+00 +0.0000000000000000e+00 -1.1499999184480499e+01 -3.0506808708740726e-02 -5.6446083133974412e-01 +5.6058529669576231e-03
-1.1600000000000000e+01 +8.1491837922658306e+00 +0.0000000000000000e+00 -1.1599999163020600e+01 -3.0506771416930471e-02 -5.6446130236710856e-01 +5.6059582672176320e-03
-1.1699999999999999e+01 +8.1491177119787608e+00 +0.0000000000000000e+00 -1.1699999141187400e+01 -3.0506744124238174e-02 -5.6446178425575200e-01 +5.6060634301228884e-03
