# field on trajectory
# s[mm] rx[mm] ry[mm] rz[mm] bx[T] by[T] bz[T]
0.0000000000000000e+00 +7.9199999999999999e+00 +0.0000000000000000e+00 +0.0000000000000000e+00 -2.8326866697578890e-02 -5.3815171693736386e-01 +5.3485374958036000e-03
-1.0000000000000001e-01 +7.9199997171566832e+00 +0.0000000000000000e+00 -9.9999999999466682e-02 -2.8326735544633785e-02 -5.3815168514690270e-01 +5.3485801429870774e-03
-2.0000000000000001e-01 +7.9199988686267542e+00 +0.0000000000000000e+00 -1.9999999999573331e-01 -2.8326588287219744e-02 -5.3815166551051108e-01 +5.3486241804957457e-03
-3.0000000000000004e-01 +7.9199974544102334e+00 +0.0000000000000000e+00 -2.9999999998559995e-01 -2.8326426604987260e-02 -5.3815165713464053e-01 +5.3486695740131481e-03
-4.0000000000000002e-01 +7.9199954745071288e+00 +0.0000000000000000e+00 -3.9999999996586655e-01 -2.8326252177602134e-02 -5.3815165912574836e-01 +5.3487162892212770e-03
-5.0000000000000000e-01 +7.9199929289174396e+00 +0.0000000000000000e+00 -4.9999999993333311e-01 -2.8326066684742298e-02 -5.3815167059029734e-01 +5.3487642918009460e-03
-5.9999999999999998e-01 +7.9199898176411532e+00 +0.0000000000000000e+00 -5.9999999988479957e-01 -2.8325871806094836e-02 -5.3815169063475599e-01 +5.3488135474321673e-03
-6.9999999999999996e-01 +7.9199861406782492e+00 +0.0000000000000000e+00 -6.9999999981706595e-01 -2.8325669221352757e-02 -5.3815171836559716e-01 +5.3488640217945341e-03
-7.9999999999999993e-01 +7.9199818980286985e+00 +0.0000000000000000e+00 -7.9999999972693225e-01 -2.8325460610212020e-02 -5.3815175288929951e-01 +5.3489156805675824e-03
-8.9999999999999991e-01 +7.9199770896924653e+00 +0.0000000000000000e+00 -8.9999999961119848e-01 -2.8325247652368341e-02 -5.3815179331234508e-01 +5.3489684894311778e-03
-9.9999999999999989e-01 +7.9199717156695071e+00 +0.0000000000000000e+00 -9.9999999946666451e-01 -2.8325032027514175e-02 -5.3815183874122163e-01 +5.3490224140658946e-03
-1.0999999999999999e+00 +7.9199657759597759e+00 +0.0000000000000000e+00 -1.0999999992901304e+00 -2.8324815415335537e-02 -5.3815188828242000e-01 +5.3490774201533772e-03
-1.2000000000000000e+00 +7.9199592705632202e+00 +0.0000000000000000e+00 -1.1999999990783961e+00 -2.8324599495508980e-02 -5.3815194104243524e-01 +5.3491334733767274e-03
-1.3000000000000000e+00 +7.9199521994797850e+00 +0.0000000000000000e+00 -1.2999999988282616e+00 -2.8324385947698483e-02 -5.3815199612776610e-01 +5.3491905394208814e-03
-1.4000000000000001e+00 +7.9199445627094134e+00 +0.0000000000000000e+00 -1.3999999985365270e+00 -2.8324176451552285e-02 -5.3815205264491450e-01 +5.3492485839729742e-03
-1.5000000000000002e+00 +7.9199363602520449e+00 +0.0000000000000000e+00 -1.4999999981999921e+00 -2.8323972686699915e-02 -5.3815210970038674e-01 +5.3493075727227314e-03
-1.6000000000000003e+00 +7.9199275921076211e+00 +0.0000000000000000e+00 -1.5999999978154569e+00 -2.8323776332748962e-02 -5.3815216640069008e-01 +5.3493674713628288e-03
-1.7000000000000004e+00 +7.9199182582760814e+00 +0.0000000000000000e+00 -1.6999999973797215e+00 -2.8323589069282069e-02 -5.3815222185233591e-01 +5.3494282455892840e-03
-1.8000000000000005e+00 +7.9199083587573691e+00 +0.0000000000000000e+00 -1.7999999968895859e+00 -2.8323412575853819e-02 -5.3815227516183783e-01 +5.3494898611018207e-03
-1.9000000000000006e+00 +7.9198978935514281e+00 +0.0000000000000000e+00 -1.8999999963418499e+00 -2.8323248531987564e-02 -5.3815232543571145e-01 +5.3495522836042421e-03
-2.0000000000000004e+00 +7.9198868626582062e+00 +0.0000000000000000e+00 -1.9999999957333134e+00 -2.8323098617172457e-02 -5.3815237178047481e-01 +5.3496154788048303e-03
-2.1000000000000005e+00 +7.9198752660776544e+00 +0.0000000000000000e+00 -2.0999999950607768e+00 -2.8322964164432647e-02 -5.3815241346546816e-01 +5.3496794013984115e-03
-2.2000000000000006e+00 +7.9198631038097300e+00 +0.0000000000000000e+00 -2.1999999943210398e+00 -2.8322845121056164e-02 -5.3815245041131876e-01 +5.3497439620102168e-03
-2.3000000000000007e+00 +7.9198503758543941e+00 +0.0000000000000000e+00 -2.2999999935109021e+00 -2.8322741087903031e-02 -5.3815248270147553e-01 +5.3498090602477821e-03
-2.4000000000000008e+00 +7.9198370822116138e+00 +0.0000000000000000e+00 -2.3999999926271642e+00 -2.8322651665838406e-02 -5.3815251041938805e-01 +5.3498745957186187e-03
-2.5000000000000009e+00 +7.9198232228813596e+00 +0.0000000000000000e+00 -2.4999999916666256e+00 -2.8322576455734765e-02 -5.3815253364850679e-01 +5.3499404680299846e-03
-2.6000000000000010e+00 +7.9198087978636078e+00 +0.0000000000000000e+00 -2.5999999906260864e+00 -2.8322515058473892e-02 -5.3815255247228166e-01 +5.3500065767886594e-03
-2.7000000000000011e+00 +7.9197938071583396e+00 +0.0000000000000000e+00 -2.6999999895023468e+00 -2.8322467074949034e-02 -5.3815256697416258e-01 +5.3500728216007241e-03
-2.8000000000000012e+00 +7.9197782507655399e+00 +0.0000000000000000e+00 -2.7999999882922069e+00 -2.8322432106066980e-02 -5.3815257723759991e-01 +5.3501391020713404e-03
-2.9000000000000012e+00 +7.9197621286851980e+00 +0.0000000000000000e+00 -2.8999999869924662e+00 -2.8322409752750105e-02 -5.3815258334604188e-01 +5.3502053178045130e-03
-3.0000000000000013e+00 +7.9197454409173078e+00 +0.0000000000000000e+00 -2.9999999855999251e+00 -2.8322399615938514e-02 -5.3815258538293709e-01 +5.3502713684028865e-03
-3.1000000000000014e+00 +7.9197281874618684e+00 +0.0000000000000000e+00 -3.0999999841113830e+00 -2.8322401296592085e-02 -5.3815258343173189e-01 +5.3503371534675062e-03
-3.2000000000000015e+00 +7.9197103683188823e+00 +0.0000000000000000e+00 -3.1999999825236403e+00 -2.8322414395692580e-02 -5.3815257757587165e-01 +5.3504025725976010e-03
-3.3000000000000016e+00 +7.9196919834883559e+00 +0.0000000000000000e+00 -3.2999999808334968e+00 -2.8322438514245745e-02 -5.3815256789880028e-01 +5.3504675253903651e-03
-3.4000000000000017e+00 +7.9196730329702998e+00 +0.0000000000000000e+00 -3.3999999790377529e+00 -2.8322473253283374e-02 -5.3815255448395916e-01 +5.3505319114407184e-03
-3.5000000000000018e+00 +7.9196535167647291e+00 +0.0000000000000000e+00 -3.4999999771332080e+00 -2.8322518213865382e-02 -5.3815253741478697e-01 +5.3505956303411028e-03
-3.6000000000000019e+00 +7.9196334348716624e+00 +0.0000000000000000e+00 -3.5999999751166625e+00 -2.8322572997081939e-02 -5.3815251677472098e-01 +5.3506585816812434e-03
-3.7000000000000020e+00 +7.9196127872911219e+00 +0.0000000000000000e+00 -3.6999999729849162e+00 -2.8322637204055558e-02 -5.3815249264719445e-01 +5.3507206650479375e-03
-3.8000000000000020e+00 +7.9195915740231335e+00 +0.0000000000000000e+00 -3.7999999707347691e+00 -2.8322710435943123e-02 -5.3815246511563841e-01 +5.3507817800248223e-03
-3.9000000000000021e+00 +7.9195697950677273e+00 +0.0000000000000000e+00 -3.8999999683630211e+00 -2.8322792293938040e-02 -5.3815243426347992e-01 +5.3508418261921514e-03
-4.0000000000000018e+00 +7.9195474504249361e+00 +0.0000000000000000e+00 -3.9999999658664724e+00 -2.8322882379272322e-02 -5.3815240017414234e-01 +5.3509007031265800e-03
-4.1000000000000014e+00 +7.9195245400947964e+00 +0.0000000000000000e+00 -4.0999999632419231e+00 -2.8322980183897391e-02 -5.3815236304352687e-01 +5.3509583912563557e-03
-4.2000000000000011e+00 +7.9195010640773473e+00 +0.0000000000000000e+00 -4.1999999604861724e+00 -2.8323084762501977e-02 -5.3815232351745879e-01 +5.3510151944291999e-03
-4.3000000000000007e+00 +7.9194770223726323e+00 +0.0000000000000000e+00 -4.2999999575960208e+00 -2.8323195060441453e-02 -5.3815228235424872e-01 +5.3510714973484582e-03
-4.4000000000000004e+00 +7.9194524149806949e+00 +0.0000000000000000e+00 -4.3999999545682691e+00 -2.8323310023052935e-02 -5.3815224031221121e-01 +5.3511276847179280e-03
-4.5000000000000000e+00 +7.9194272419015794e+00 +0.0000000000000000e+00 -4.4999999513997162e+00 -2.8323428595653757e-02 -5.3815219814966597e-01 +5.3511841412419003e-03
-4.5999999999999996e+00 +7.9194015031353313e+00 +0.0000000000000000e+00 -4.5999999480871621e+00 -2.8323549723539912e-02 -5.3815215662493654e-01 +5.3512412516252194e-03
-4.6999999999999993e+00 +7.9193751986819949e+00 +0.0000000000000000e+00 -4.6999999446274074e+00 -2.8323672351984581e-02 -5.3815211649635342e-01 +5.3512994005733379e-03
-4.7999999999999989e+00 +7.9193483285416129e+00 +0.0000000000000000e+00 -4.7999999410172522e+00 -2.8323795426236510e-02 -5.3815207852225000e-01 +5.3513589727923593e-03
-4.8999999999999986e+00 +7.9193208927142269e+00 +0.0000000000000000e+00 -4.8999999372534955e+00 -2.8323917891518564e-02 -5.3815204346096746e-01 +5.3514203529890893e-03
-4.9999999999999982e+00 +7.9192928911998735e+00 +0.0000000000000000e+00 -4.9999999333329379e+00 -2.8324038693026122e-02 -5.3815201207085139e-01 +5.3514839258710914e-03
-5.0999999999999979e+00 +7.9192643239985872e+00 +0.0000000000000000e+00 -5.0999999292523794e+00 -2.8324156775925601e-02 -5.3815198511025419e-01 +5.3515500761467365e-03
-5.1999999999999975e+00 +7.9192351911103973e+00 +0.0000000000000000e+00 -5.1999999250086200e+00 -2.8324271085352879e-02 -5.3815196333753412e-01 +5.3516191885252468e-03
-5.2999999999999972e+00 +7.9192054925353270e+00 +0.0000000000000000e+00 -5.2999999205984594e+00 -2.8324380566411778e-02 -5.3815194751105577e-01 +5.3516916477167548e-03
-5.3999999999999968e+00 +7.9191752282733940e+00 +0.0000000000000000e+00 -5.3999999160186984e+00 -2.8324484164172548e-02 -5.3815193838919151e-01 +5.3517678384323499e-03
-5.4999999999999964e+00 +7.9191443983246090e+00 +0.0000000000000000e+00 -5.4999999112661362e+00 -2.8324580823670304e-02 -5.3815193673031991e-01 +5.3518481453841277e-03
-5.5999999999999961e+00 +7.9191130026889747e+00 +0.0000000000000000e+00 -5.5999999063375734e+00 -2.8324669489903493e-02 -5.3815194329282634e-01 +5.3519329532852435e-03
-5.6999999999999957e+00 +7.9190810413664847e+00 +0.0000000000000000e+00 -5.6999999012298090e+00 -2.8324749107832392e-02 -5.3815195883510503e-01 +5.3520226468499552e-03
-5.7999999999999954e+00 +7.9190485143571241e+00 +0.0000000000000000e+00 -5.7999998959396439e+00 -2.8324818622377550e-02 -5.3815198411555654e-01 +5.3521176107936812e-03
-5.8999999999999950e+00 +7.9190154216608670e+00 +0.0000000000000000e+00 -5.8999998904638780e+00 -2.8324876978418251e-02 -5.3815201989259043e-01 +5.3522182298330482e-03
-5.9999999999999947e+00 +7.9189817632776771e+00 +0.0000000000000000e+00 -5.9999998847993110e+00 -2.8324923120790976e-02 -5.3815206692462370e-01 +5.3523248886859351e-03
-6.0999999999999943e+00 +7.9189475392075055e+00 +0.0000000000000000e+00 -6.0999998789427430e+00 -2.8324956296308514e-02 -5.3815212579007343e-01 +5.3524378146685920e-03
-6.1999999999999940e+00 +7.9189127494502918e+00 +0.0000000000000000e+00 -6.1999998728909738e+00 -2.8324976959850937e-02 -5.3815219634731126e-01 +5.3525566054834495e-03
-6.2999999999999936e+00 +7.9188773940059631e+00 +0.0000000000000000e+00 -6.2999998666408032e+00 -2.8324985868348578e-02 -5.3815227827466838e-01 +5.3526807014268709e-03
-6.3999999999999932e+00 +7.9188414728744343e+00 +0.0000000000000000e+00 -6.3999998601890313e+00 -2.8324983778767493e-02 -5.3815237125043913e-01 +5.3528095427927847e-03
-6.4999999999999929e+00 +7.9188049860556085e+00 +0.0000000000000000e+00 -6.4999998535324579e+00 -2.8324971448111278e-02 -5.3815247495288066e-01 +5.3529425698725748e-03
-6.5999999999999925e+00 +7.9187679335493781e+00 +0.0000000000000000e+00 -6.5999998466678829e+00 -2.8324949633422702e-02 -5.3815258906021068e-01 +5.3530792229550027e-03
-6.6999999999999922e+00 +7.9187303153556243e+00 +0.0000000000000000e+00 -6.6999998395921070e+00 -2.8324919091785524e-02 -5.3815271325060687e-01 +5.3532189423260903e-03
-6.7999999999999918e+00 +7.9186921314742182e+00 +0.0000000000000000e+00 -6.7999998323019293e+00 -2.8324880580326145e-02 -5.3815284720220435e-01 +5.3533611682690368e-03
-6.8999999999999915e+00 +7.9186533819050196e+00 +0.0000000000000000e+00 -6.8999998247941505e+00 -2.8324834856215380e-02 -5.3815299059309474e-01 +5.3535053410641098e-03
-6.9999999999999911e+00 +7.9186140666478799e+00 +0.0000000000000000e+00 -6.9999998170655697e+00 -2.8324782676670150e-02 -5.3815314310132467e-01 +5.3536509009885587e-03
-7.0999999999999908e+00 +7.9185741857026395e+00 +0.0000000000000000e+00 -7.0999998091129868e+00 -2.8324724798955234e-02 -5.3815330440489395e-01 +5.3537972883165091e-03
-7.1999999999999904e+00 +7.9185337390691295e+00 +0.0000000000000000e+00 -7.1999998009332025e+00 -2.8324661980384976e-02 -5.3815347418175452e-01 +5.3539439433188700e-03
-7.2999999999999901e+00 +7.9184927267471741e+00 +0.0000000000000000e+00 -7.2999997925230158e+00 -2.8324594978325016e-02 -5.3815365210980859e-01 +5.3540903062632324e-03
-7.3999999999999897e+00 +7.9184511487365867e+00 +0.0000000000000000e+00 -7.3999997838792275e+00 -2.8324524550194026e-02 -5.3815383786690718e-01 +5.3542358174137900e-03
-7.4999999999999893e+00 +7.9184090050371738e+00 +0.0000000000000000e+00 -7.4999997749986367e+00 -2.8324451453465418e-02 -5.3815403113084892e-01 +5.3543799170312125e-03
-7.5999999999999890e+00 +7.9183662956487337e+00 +0.0000000000000000e+00 -7.5999997658780440e+00 -2.8324376445669069e-02 -5.3815423157937803e-01 +5.3545220453725768e-03
-7.6999999999999886e+00 +7.9183230205710569e+00 +0.0000000000000000e+00 -7.6999997565142486e+00 -2.8324300284393072e-02 -5.3815443889018322e-01 +5.3546616426912528e-03
-7.7999999999999883e+00 +7.9182791798039265e+00 +0.0000000000000000e+00 -7.7999997469040503e+00 -2.8324223727285429e-02 -5.3815465274089602e-01 +5.3547981492368243e-03
-7.8999999999999879e+00 +7.9182347733471197e+00 +0.0000000000000000e+00 -7.8999997370442498e+00 -2.8324147532055820e-02 -5.3815487280908980e-01 +5.3549310052549738e-03
-7.9999999999999876e+00 +7.9181898012004064e+00 +0.0000000000000000e+00 -7.9999997269316463e+00 -2.8324072456477271e-02 -5.3815509877227707e-01 +5.3550596509874069e-03
-8.0999999999999872e+00 +7.9181442633635504e+00 +0.0000000000000000e+00 -8.0999997165630386e+00 -2.8323999138630554e-02 -5.3815533040290098e-01 +5.3551836492311900e-03
-8.1999999999999869e+00 +7.9180981598363100e+00 +0.0000000000000000e+00 -8.1999997059352285e+00 -2.8323927737586775e-02 -5.3815556785335550e-01 +5.3553030530237543e-03
-8.2999999999999865e+00 +7.9180514906184367e+00 +0.0000000000000000e+00 -8.2999996950450150e+00 -2.8323858292605964e-02 -5.3815581137108692e-01 +5.3554180379673105e-03
-8.3999999999999861e+00 +7.9180042557096764e+00 +0.0000000000000000e+00 -8.3999996838891988e+00 -2.8323790842883556e-02 -5.3815606120361359e-01 +5.3555287796681990e-03
-8.4999999999999858e+00 +7.9179564551097679e+00 +0.0000000000000000e+00 -8.4999996724645772e+00 -2.8323725427548168e-02 -5.3815631759852833e-01 +5.3556354537370489e-03
-8.5999999999999854e+00 +7.9179080888184430e+00 +0.0000000000000000e+00 -8.5999996607679527e+00 -2.8323662085659378e-02 -5.3815658080350115e-01 +5.3557382357889349e-03
-8.6999999999999851e+00 +7.9178591568354264e+00 +0.0000000000000000e+00 -8.6999996487961244e+00 -2.8323600856205403e-02 -5.3815685106628197e-01 +5.3558373014435086e-03
-8.7999999999999847e+00 +7.9178096591604357e+00 +0.0000000000000000e+00 -8.7999996365458912e+00 -2.8323541778100918e-02 -5.3815712863470289e-01 +5.3559328263251731e-03
-8.8999999999999844e+00 +7.9177595957931812e+00 +0.0000000000000000e+00 -8.8999996240140540e+00 -2.8323484890184780e-02 -5.3815741375668158e-01 +5.3560249860632216e-03
-8.9999999999999840e+00 +7.9177089667333638e+00 +0.0000000000000000e+00 -8.9999996111974117e+00 -2.8323430231217753e-02 -5.3815770668022189e-01 +5.3561139562919840e-03
-9.0999999999999837e+00 +7.9176577719806778e+00 +0.0000000000000000e+00 -9.0999995980927633e+00 -2.8323377839880294e-02 -5.3815800765341870e-01 +5.3561999126509911e-03
-9.1999999999999833e+00 +7.9176060115348088e+00 +0.0000000000000000e+00 -9.1999995846969096e+00 -2.8323327754770294e-02 -5.3815831692445926e-01 +5.3562830307851157e-03
-9.2999999999999829e+00 +7.9175536853954327e+00 +0.0000000000000000e+00 -9.2999995710066514e+00 -2.8323280014400803e-02 -5.3815863474162529e-01 +5.3563634863447226e-03
-9.3999999999999826e+00 +7.9175007935622173e+00 +0.0000000000000000e+00 -9.3999995570187878e+00 -2.8323234657197799e-02 -5.3815896135329699e-01 +5.3564414549858242e-03
-9.4999999999999822e+00 +7.9174473360348205e+00 +0.0000000000000000e+00 -9.4999995427301176e+00 -2.8323191721497908e-02 -5.3815929700795440e-01 +5.3565171123702276e-03
-9.5999999999999819e+00 +7.9173933128128917e+00 +0.0000000000000000e+00 -9.5999995281374400e+00 -2.8323151245546206e-02 -5.3815964195418031e-01 +5.3565906341656901e-03
-9.6999999999999815e+00 +7.9173387238960702e+00 +0.0000000000000000e+00 -9.6999995132375556e+00 -2.8323113267493878e-02 -5.3815999644066270e-01 +5.3566621960460543e-03
-9.7999999999999812e+00 +7.9172835692839847e+00 +0.0000000000000000e+00 -9.7999994980272653e+00 -2.8323077825396066e-02 -5.3816036071619788e-01 +5.3567319736914235e-03
-9.8999999999999808e+00 +7.9172278489762542e+00 +0.0000000000000000e+00 -9.8999994825033681e+00 -2.8323044957209491e-02 -5.3816073502969197e-01 +5.3568001427882839e-03
-9.9999999999999805e+00 +7.9171715629724870e+00 +0.0000000000000000e+00 -9.9999994666626630e+00 -2.8323014700790312e-02 -5.3816111963016477e-01 +5.3568668790296729e-03
-1.0099999999999980e+01 +7.9171147112722808e+00 +0.0000000000000000e+00 -1.0099999450501949e+01 -2.8322987092465130e-02 -5.3816151465074613e-01 +5.3569323712731407e-03
-1.0199999999999980e+01 +7.9170572938752217e+00 +0.0000000000000000e+00 -1.0199999434018027e+01 -2.8322962162806442e-02 -5.3816191976059347e-01 +5.3569968610110152e-03
-1.0299999999999979e+01 +7.9169993107808860e+00 +0.0000000000000000e+00 -1.0299999417207696e+01 -2.8322939941013481e-02 -5.3816233451279605e-01 +5.3570606028893108e-03
-1.0399999999999979e+01 +7.9169407619888394e+00 +0.0000000000000000e+00 -1.0399999400067756e+01 -2.8322920456355222e-02 -5.3816275846036343e-01 +5.3571238515482990e-03
-1.0499999999999979e+01 +7.9168816474986388e+00 +0.0000000000000000e+00 -1.0499999382595007e+01 -2.8322903738172384e-02 -5.3816319115622535e-01 +5.3571868616223567e-03
-1.0599999999999978e+01 +7.9168219673098301e+00 +0.0000000000000000e+00 -1.0599999364786248e+01 -2.8322889815879489e-02 -5.3816363215322804e-01 +5.3572498877398093e-03
-1.0699999999999978e+01 +7.9167617214219526e+00 +0.0000000000000000e+00 -1.0699999346638277e+01 -2.8322878718966885e-02 -5.3816408100413260e-01 +5.3573131845227728e-03
-1.0799999999999978e+01 +7.9167009098345362e+00 +0.0000000000000000e+00 -1.0799999328147896e+01 -2.8322870477002812e-02 -5.3816453726161284e-01 +5.3573770065870017e-03
-1.0899999999999977e+01 +7.9166395325471042e+00 +0.0000000000000000e+00 -1.0899999309311903e+01 -2.8322865119635398e-02 -5.3816500047825189e-01 +5.3574416085417154e-03
-1.0999999999999977e+01 +7.9165775895591706e+00 +0.0000000000000000e+00 -1.0999999290127100e+01 -2.8322862676594739e-02 -5.3816547020654226e-01 +5.3575072449894645e-03
-1.1099999999999977e+01 +7.9165150808702442e+00 +0.0000000000000000e+00 -1.1099999270590283e+01 -2.8322863177694915e-02 -5.3816594599888135e-01 +5.3575741705259592e-03
-1.1199999999999976e+01 +7.9164520064798261e+00 +0.0000000000000000e+00 -1.1199999250698253e+01 -2.8322866652836058e-02 -5.3816642740757037e-01 +5.3576426397399088e-03
-1.1299999999999976e+01 +7.9163883663874133e+00 +0.0000000000000000e+00 -1.1299999230447812e+01 -2.8322873132006338e-02 -5.3816691398481176e-01 +5.3577129072128749e-03
-1.1399999999999975e+01 +7.9163241605924961e+00 +0.0000000000000000e+00 -1.1399999209835755e+01 -2.8322882645284094e-02 -5.3816740528270723e-01 +5.3577852275191020e-03
-1.1499999999999975e+01 +7.9162593890945594e+00 +0.0000000000000000e+00 -1.1499999188858885e+01 -2.8322895222839758e-02 -5.3816790085325461e-01 +5.3578598552253658e-03
-1.1599999999999975e+01 +7.9161940518930853e+00 +0.0000000000000000e+00 -1.1599999167514000e+01 -2.8322910894938047e-02 -5.3816840024834733e-01 +5.3579370448908177e-03
-1.1699999999999974e+01 +7.9161281489875508e+00 +0.0000000000000000e+00 -1.1699999145797898e+01 -2.8322929691939891e-02 -5.3816890301977083e-01 +5.3580170510668301e-03
