# field on trajectory
# s[mm] rx[mm] ry[mm] rz[mm] bx[T] by[T] bz[T]
0.0000000000000000e+00 +8.1649999999999991e+00 +0.0000000000000000e+00 +0.0000000000000000e+00 -2.9544702210756037e-02 -5.6473619941406539e-01 +5.6229805714570506e-03
1.0000000000000001e-01 +8.1649997168959256e+00 +0.0000000000000000e+00 +9.9999999999465669e-02 -2.9544712417920980e-02 -5.6473627437459140e-01 +5.6229777888435516e-03
2.0000000000000001e-01 +8.1649988675836553e+00 +0.0000000000000000e+00 +1.9999999999572543e-01 -2.9544744904718132e-02 -5.6473635296733571e-01 +5.6229731726143758e-03
3.0000000000000004e-01 +8.1649974520631083e+00 +0.0000000000000000e+00 +2.9999999998557336e-01 -2.9544798551666692e-02 -5.6473643446639499e-01 +5.6229668656174406e-03
4.0000000000000002e-01 +8.1649954703342029e+00 +0.0000000000000000e+00 +3.9999999996580349e-01 -2.9544872239293671e-02 -5.6473651814586412e-01 +5.6229590107016265e-03
5.0000000000000000e-01 +8.1649929223968556e+00 +0.0000000000000000e+00 +4.9999999993320998e-01 -2.9544964848131784e-02 -5.6473660327983732e-01 +5.6229497507170080e-03
5.9999999999999998e-01 +8.1649898082509811e+00 +0.0000000000000000e+00 +5.9999999988458685e-01 -2.9545075258717232e-02 -5.6473668914240815e-01 +5.6229392285150398e-03
6.9999999999999996e-01 +8.1649861278964941e+00 +0.0000000000000000e+00 +6.9999999981672822e-01 -2.9545202351587606e-02 -5.6473677500767505e-01 +5.6229275869487836e-03
7.9999999999999993e-01 +8.1649818813333077e+00 +0.0000000000000000e+00 +7.9999999972642810e-01 -2.9545345007279591e-02 -5.6473686014973690e-01 +5.6229149688731012e-03
8.9999999999999991e-01 +8.1649770685613383e+00 +0.0000000000000000e+00 +8.9999999961048061e-01 -2.9545502106326962e-02 -5.6473694384269890e-01 +5.6229015171448829e-03
9.9999999999999989e-01 +8.1649716895805007e+00 +0.0000000000000000e+00 +9.9999999946567986e-01 -2.9545672529258254e-02 -5.6473702536067127e-01 +5.6228873746232283e-03
1.0999999999999999e+00 +8.1649657443907149e+00 +0.0000000000000000e+00 +1.0999999992888199e+00 -2.9545855156594709e-02 -5.6473710397777221e-01 +5.6228726841696759e-03
1.2000000000000000e+00 +8.1649592329919010e+00 +0.0000000000000000e+00 +1.1999999990766947e+00 -2.9546048868848047e-02 -5.6473717896812792e-01 +5.6228575886484123e-03
1.3000000000000000e+00 +8.1649521553839843e+00 +0.0000000000000000e+00 +1.2999999988260984e+00 -2.9546252546518329e-02 -5.6473724960587368e-01 +5.6228422309264640e-03
1.4000000000000001e+00 +8.1649445115668939e+00 +0.0000000000000000e+00 +1.3999999985338252e+00 -2.9546465070091753e-02 -5.6473731516515702e-01 +5.6228267538739173e-03
1.5000000000000002e+00 +8.1649363015405658e+00 +0.0000000000000000e+00 +1.4999999981966690e+00 -2.9546685320038502e-02 -5.6473737492013709e-01 +5.6228113003641295e-03
1.6000000000000003e+00 +8.1649275253049396e+00 +0.0000000000000000e+00 +1.5999999978114239e+00 -2.9546912176810596e-02 -5.6473742814498673e-01 +5.6227960132739256e-03
1.7000000000000004e+00 +8.1649181828599620e+00 +0.0000000000000000e+00 +1.6999999973748838e+00 -2.9547144520839678e-02 -5.6473747411389341e-01 +5.6227810354838158e-03
1.8000000000000005e+00 +8.1649082742055867e+00 +0.0000000000000000e+00 +1.7999999968838432e+00 -2.9547381232534892e-02 -5.6473751210106171e-01 +5.6227665098782086e-03
1.9000000000000006e+00 +8.1648977993417766e+00 +0.0000000000000000e+00 +1.8999999963350958e+00 -2.9547621192280674e-02 -5.6473754138071197e-01 +5.6227525793455984e-03
2.0000000000000004e+00 +8.1648867582685032e+00 +0.0000000000000000e+00 +1.9999999957254357e+00 -2.9547863280434586e-02 -5.6473756122708496e-01 +5.6227393867787964e-03
2.1000000000000005e+00 +8.1648751509857469e+00 +0.0000000000000000e+00 +2.0999999950516570e+00 -2.9548106595811821e-02 -5.6473757117511636e-01 +5.6227270735558629e-03
2.2000000000000006e+00 +8.1648629774934989e+00 +0.0000000000000000e+00 +2.1999999943105539e+00 -2.9548351111155939e-02 -5.6473757180245798e-01 +5.6227157749806373e-03
2.3000000000000007e+00 +8.1648502377917573e+00 +0.0000000000000000e+00 +2.2999999934989201e+00 -2.9548597017700996e-02 -5.6473756394743568e-01 +5.6227056248372102e-03
2.4000000000000008e+00 +8.1648369318805312e+00 +0.0000000000000000e+00 +2.3999999926135502e+00 -2.9548844506690146e-02 -5.6473754844836888e-01 +5.6226967569082990e-03
2.5000000000000009e+00 +8.1648230597598364e+00 +0.0000000000000000e+00 +2.4999999916512379e+00 -2.9549093769377921e-02 -5.6473752614356953e-01 +5.6226893049748155e-03
2.6000000000000010e+00 +8.1648086214296942e+00 +0.0000000000000000e+00 +2.5999999906087772e+00 -2.9549344997032601e-02 -5.6473749787134131e-01 +5.6226834028154198e-03
2.7000000000000011e+00 +8.1647936168901349e+00 +0.0000000000000000e+00 +2.6999999894829627e+00 -2.9549598380938399e-02 -5.6473746446997652e-01 +5.6226791842060794e-03
2.8000000000000012e+00 +8.1647780461411923e+00 +0.0000000000000000e+00 +2.7999999882705882e+00 -2.9549854112397793e-02 -5.6473742677775451e-01 +5.6226767829196242e-03
2.9000000000000012e+00 +8.1647619091829036e+00 +0.0000000000000000e+00 +2.8999999869684476e+00 -2.9550112382733886e-02 -5.6473738563294185e-01 +5.6226763327253083e-03
3.0000000000000013e+00 +8.1647452060153114e+00 +0.0000000000000000e+00 +2.9999999855733348e+00 -2.9550373383292586e-02 -5.6473734187378721e-01 +5.6226779673883634e-03
3.1000000000000014e+00 +8.1647279366384602e+00 +0.0000000000000000e+00 +3.0999999840820442e+00 -2.9550637305445007e-02 -5.6473729633852376e-01 +5.6226818206695575e-03
3.2000000000000015e+00 +8.1647101010523961e+00 +0.0000000000000000e+00 +3.1999999824913701e+00 -2.9550904340589691e-02 -5.6473724986536489e-01 +5.6226880263247538e-03
3.3000000000000016e+00 +8.1646916992571654e+00 +0.0000000000000000e+00 +3.2999999807981060e+00 -2.9551174680154942e-02 -5.6473720329250277e-01 +5.6226967181044691e-03
3.4000000000000017e+00 +8.1646727312528160e+00 +0.0000000000000000e+00 +3.3999999789990465e+00 -2.9551448515601087e-02 -5.6473715745810704e-01 +5.6227080297534216e-03
3.5000000000000018e+00 +8.1646531970393941e+00 +0.0000000000000000e+00 +3.4999999770909853e+00 -2.9551726038422800e-02 -5.6473711320032371e-01 +5.6227220950101067e-03
3.6000000000000019e+00 +8.1646330966169458e+00 +0.0000000000000000e+00 +3.5999999750707170e+00 -2.9552007440151407e-02 -5.6473707135727236e-01 +5.6227390476063345e-03
3.7000000000000020e+00 +8.1646124299855121e+00 +0.0000000000000000e+00 +3.6999999729350352e+00 -2.9552292912357121e-02 -5.6473703276704557e-01 +5.6227590212668006e-03
3.8000000000000020e+00 +8.1645911971451319e+00 +0.0000000000000000e+00 +3.7999999706807341e+00 -2.9552582646651414e-02 -5.6473699826770618e-01 +5.6227821497086350e-03
3.9000000000000021e+00 +8.1645693980958427e+00 +0.0000000000000000e+00 +3.8999999683046078e+00 -2.9552876834689247e-02 -5.6473696869728696e-01 +5.6228085666409711e-03
4.0000000000000018e+00 +8.1645470328376728e+00 +0.0000000000000000e+00 +3.9999999658034504e+00 -2.9553175668171359e-02 -5.6473694489378679e-01 +5.6228384057644826e-03
4.1000000000000014e+00 +8.1645241013706471e+00 +0.0000000000000000e+00 +4.0999999631740556e+00 -2.9553479096309777e-02 -5.6473692759602001e-01 +5.6228717606816173e-03
4.2000000000000011e+00 +8.1645006036947834e+00 +0.0000000000000000e+00 +4.1999999604132183e+00 -2.9553786098193296e-02 -5.6473691714617202e-01 +5.6229085646315570e-03
4.3000000000000007e+00 +8.1644765398100940e+00 +0.0000000000000000e+00 +4.2999999575177323e+00 -2.9554095410355107e-02 -5.6473691378728264e-01 +5.6229487107645167e-03
4.4000000000000004e+00 +8.1644519097165826e+00 +0.0000000000000000e+00 +4.3999999544843913e+00 -2.9554405769301958e-02 -5.6473691776240387e-01 +5.6229920922322646e-03
4.5000000000000000e+00 +8.1644267134142456e+00 +0.0000000000000000e+00 +4.4999999513099898e+00 -2.9554715911511868e-02 -5.6473692931459996e-01 +5.6230386021883325e-03
4.5999999999999996e+00 +8.1644009509030724e+00 +0.0000000000000000e+00 +4.5999999479913214e+00 -2.9555024573431937e-02 -5.6473694868694846e-01 +5.6230881337882193e-03
4.6999999999999993e+00 +8.1643746221830433e+00 +0.0000000000000000e+00 +4.6999999445251799e+00 -2.9555330491476076e-02 -5.6473697612254248e-01 +5.6231405801896051e-03
4.7999999999999989e+00 +8.1643477272541336e+00 +0.0000000000000000e+00 +4.7999999409083607e+00 -2.9555632402022844e-02 -5.6473701186449143e-01 +5.6231958345525669e-03
4.8999999999999986e+00 +8.1643202661163077e+00 +0.0000000000000000e+00 +4.8999999371376566e+00 -2.9555929041413187e-02 -5.6473705615592085e-01 +5.6232537900397922e-03
4.9999999999999982e+00 +8.1642922387695211e+00 +0.0000000000000000e+00 +4.9999999332098621e+00 -2.9556219145948182e-02 -5.6473710923997578e-01 +5.6233143398167805e-03
5.0999999999999979e+00 +8.1642636452137225e+00 +0.0000000000000000e+00 +5.0999999291217710e+00 -2.9556501451886878e-02 -5.6473717135981938e-01 +5.6233773770520603e-03
5.1999999999999975e+00 +8.1642344854488496e+00 +0.0000000000000000e+00 +5.1999999248701778e+00 -2.9556774695444033e-02 -5.6473724275863646e-01 +5.6234427949174081e-03
5.2999999999999972e+00 +8.1642047594748313e+00 +0.0000000000000000e+00 +5.2999999204518762e+00 -2.9557037612787874e-02 -5.6473732367963336e-01 +5.6235104865880459e-03
5.3999999999999968e+00 +8.1641744672915895e+00 +0.0000000000000000e+00 +5.3999999158636607e+00 -2.9557288940037955e-02 -5.6473741436603941e-01 +5.6235803452428634e-03
5.4999999999999964e+00 +8.1641436088990318e+00 +0.0000000000000000e+00 +5.4999999111023250e+00 -2.9557527413262834e-02 -5.6473751506110692e-01 +5.6236522640646224e-03
5.5999999999999961e+00 +8.1641121842970605e+00 +0.0000000000000000e+00 +5.5999999061646637e+00 -2.9557751768477917e-02 -5.6473762600811506e-01 +5.6237261362401848e-03
5.6999999999999957e+00 +8.1640801934855638e+00 +0.0000000000000000e+00 +5.6999999010474696e+00 -2.9557960741643224e-02 -5.6473774745036787e-01 +5.6238018549606998e-03
5.7999999999999954e+00 +8.1640476364644226e+00 +0.0000000000000000e+00 +5.7999998957475380e+00 -2.9558153068661160e-02 -5.6473787963119726e-01 +5.6238793134218345e-03
5.8999999999999950e+00 +8.1640145132335036e+00 +0.0000000000000000e+00 +5.8999998902616619e+00 -2.9558327485374333e-02 -5.6473802279396412e-01 +5.6239584048239817e-03
5.9999999999999947e+00 +8.1639808237926648e+00 +0.0000000000000000e+00 +5.9999998845866358e+00 -2.9558482727563250e-02 -5.6473817718205799e-01 +5.6240390223724675e-03
6.0999999999999943e+00 +8.1639465681417533e+00 +0.0000000000000000e+00 +6.0999998787192542e+00 -2.9558618000636760e-02 -5.6473834304325676e-01 +5.6241210771394174e-03
6.1999999999999940e+00 +8.1639117462806023e+00 +0.0000000000000000e+00 +6.1999998726563108e+00 -2.9558734388746965e-02 -5.6473852064278229e-01 +5.6242045516477516e-03
6.2999999999999936e+00 +8.1638763582090359e+00 +0.0000000000000000e+00 +6.2999998663945993e+00 -2.9558833445766083e-02 -5.6473871025021416e-01 +5.6242894462837697e-03
6.3999999999999932e+00 +8.1638404039268657e+00 +0.0000000000000000e+00 +6.3999998599309134e+00 -2.9558916725600515e-02 -5.6473891213512828e-01 +5.6243757614350921e-03
6.4999999999999929e+00 +8.1638038834338893e+00 +0.0000000000000000e+00 +6.4999998532620475e+00 -2.9558985782192709e-02 -5.6473912656709779e-01 +5.6244634974906794e-03
6.5999999999999925e+00 +8.1637667967298935e+00 +0.0000000000000000e+00 +6.5999998463847955e+00 -2.9559042169522907e-02 -5.6473935381569362e-01 +5.6245526548408878e-03
6.6999999999999922e+00 +8.1637291438146509e+00 +0.0000000000000000e+00 +6.6999998392959519e+00 -2.9559087441611009e-02 -5.6473959415048181e-01 +5.6246432338774958e-03
6.7999999999999918e+00 +8.1636909246879217e+00 +0.0000000000000000e+00 +6.7999998319923094e+00 -2.9559123152518348e-02 -5.6473984784102538e-01 +5.6247352349937533e-03
6.8999999999999915e+00 +8.1636521393494537e+00 +0.0000000000000000e+00 +6.8999998244706635e+00 -2.9559150856349477e-02 -5.6474011515688338e-01 +5.6248286585844137e-03
6.9999999999999911e+00 +8.1636127877989786e+00 +0.0000000000000000e+00 +6.9999998167278070e+00 -2.9559172107254041e-02 -5.6474039636760986e-01 +5.6249235050457739e-03
7.0999999999999908e+00 +8.1635728700362176e+00 +0.0000000000000000e+00 +7.0999998087605345e+00 -2.9559188459428506e-02 -5.6474069174275521e-01 +5.6250197747757212e-03
7.1999999999999904e+00 +8.1635323860608739e+00 +0.0000000000000000e+00 +7.1999998005656396e+00 -2.9559201467118039e-02 -5.6474100155186380e-01 +5.6251174681737626e-03
7.2999999999999901e+00 +8.1634913358726404e+00 +0.0000000000000000e+00 +7.2999997921399160e+00 -2.9559212684618200e-02 -5.6474132606447569e-01 +5.6252165856410605e-03
7.3999999999999897e+00 +8.1634497194711919e+00 +0.0000000000000000e+00 +7.3999997834801574e+00 -2.9559223666276866e-02 -5.6474166555012484e-01 +5.6253171275804899e-03
7.4999999999999893e+00 +8.1634075368561891e+00 +0.0000000000000000e+00 +7.4999997745831584e+00 -2.9559235966495963e-02 -5.6474202027833997e-01 +5.6254190943966593e-03
7.5999999999999890e+00 +8.1633647880272768e+00 +0.0000000000000000e+00 +7.5999997654457125e+00 -2.9559251139733234e-02 -5.6474239051864317e-01 +5.6255224864959555e-03
7.6999999999999886e+00 +8.1633214729840873e+00 +0.0000000000000000e+00 +7.6999997560646136e+00 -2.9559270740504118e-02 -5.6474277654055105e-01 +5.6256273042865831e-03
7.7999999999999883e+00 +8.1632775917262332e+00 +0.0000000000000000e+00 +7.7999997464366553e+00 -2.9559296323383489e-02 -5.6474317861357270e-01 +5.6257335481786006e-03
7.8999999999999879e+00 +8.1632331442533133e+00 +0.0000000000000000e+00 +7.8999997365586321e+00 -2.9559329443007456e-02 -5.6474359700721111e-01 +5.6258412185839698e-03
7.9999999999999876e+00 +8.1631881305649099e+00 +0.0000000000000000e+00 +7.9999997264273377e+00 -2.9559371654075167e-02 -5.6474403199096124e-01 +5.6259503159165735e-03
8.0999999999999872e+00 +8.1631425506605879e+00 +0.0000000000000000e+00 +8.0999997160395658e+00 -2.9559424123028380e-02 -5.6474448357410645e-01 +5.6260608207486596e-03
8.1999999999999869e+00 +8.1630964045398962e+00 +0.0000000000000000e+00 +8.1999997053921092e+00 -2.9559486463042340e-02 -5.6474495072509390e-01 +5.6261726342777263e-03
8.2999999999999865e+00 +8.1630496922023674e+00 +0.0000000000000000e+00 +8.2999996944817624e+00 -2.9559557898944641e-02 -5.6474543215215656e-01 +5.6262856378548609e-03
8.3999999999999861e+00 +8.1630024136475221e+00 +0.0000000000000000e+00 +8.3999996833053192e+00 -2.9559637655535001e-02 -5.6474592656352340e-01 +5.6263997128281930e-03
8.4999999999999858e+00 +8.1629545688748646e+00 +0.0000000000000000e+00 +8.4999996718595732e+00 -2.9559724957584216e-02 -5.6474643266741709e-01 +5.6265147405427521e-03
8.5999999999999854e+00 +8.1629061578838904e+00 +0.0000000000000000e+00 +8.5999996601413180e+00 -2.9559819029833088e-02 -5.6474694917205626e-01 +5.6266306023403890e-03
8.6999999999999851e+00 +8.1628571806740826e+00 +0.0000000000000000e+00 +8.6999996481473492e+00 -2.9559919096991367e-02 -5.6474747478565368e-01 +5.6267471795596454e-03
8.7999999999999847e+00 +8.1628076372449154e+00 +0.0000000000000000e+00 +8.7999996358744585e+00 -2.9560024383736668e-02 -5.6474800821641669e-01 +5.6268643535356605e-03
8.8999999999999844e+00 +8.1627575275958559e+00 +0.0000000000000000e+00 +8.8999996233194398e+00 -2.9560134114713383e-02 -5.6474854817254694e-01 +5.6269820056000473e-03
8.9999999999999840e+00 +8.1627068517263659e+00 +0.0000000000000000e+00 +8.9999996104790867e+00 -2.9560247514531669e-02 -5.6474909336224088e-01 +5.6271000170807894e-03
9.0999999999999837e+00 +8.1626556096358982e+00 +0.0000000000000000e+00 +9.0999995973501928e+00 -2.9560363807766308e-02 -5.6474964249368753e-01 +5.6272182693021377e-03
9.1999999999999833e+00 +8.1626038013239057e+00 +0.0000000000000000e+00 +9.1999995839295519e+00 -2.9560482218955714e-02 -5.6475019427507100e-01 +5.6273366435844810e-03
9.2999999999999829e+00 +8.1625514267898360e+00 +0.0000000000000000e+00 +9.2999995702139575e+00 -2.9560601972600794e-02 -5.6475074741456854e-01 +5.6274550212442702e-03
9.3999999999999826e+00 +8.1624984860331367e+00 +0.0000000000000000e+00 +9.3999995562002052e+00 -2.9560722293163946e-02 -5.6475130062035062e-01 +5.6275732835938631e-03
9.4999999999999822e+00 +8.1624449790532552e+00 +0.0000000000000000e+00 +9.4999995418850869e+00 -2.9560842405067945e-02 -5.6475185260058125e-01 +5.6276913119414585e-03
9.5999999999999819e+00 +8.1623909058496391e+00 +0.0000000000000000e+00 +9.5999995272653962e+00 -2.9560961532694906e-02 -5.6475240206341826e-01 +5.6278089875909619e-03
9.6999999999999815e+00 +8.1623362664217396e+00 +0.0000000000000000e+00 +9.6999995123379268e+00 -2.9561078900385208e-02 -5.6475294771701046e-01 +5.6279261918418819e-03
9.7999999999999812e+00 +8.1622810607690131e+00 +0.0000000000000000e+00 +9.7999994970994724e+00 -2.9561193732436441e-02 -5.6475348826950211e-01 +5.6280428059892248e-03
9.8999999999999808e+00 +8.1622252888909177e+00 +0.0000000000000000e+00 +9.8999994815468249e+00 -2.9561305253102330e-02 -5.6475402242902750e-01 +5.6281587113233790e-03
9.9999999999999805e+00 +8.1621689507869206e+00 +0.0000000000000000e+00 +9.9999994656767797e+00 -2.9561412686591654e-02 -5.6475454890371524e-01 +5.6282737891299997e-03
1.0099999999999980e+01 +8.1621120464564960e+00 +0.0000000000000000e+00 +1.0099999449486130e+01 -2.9561515581669258e-02 -5.6475506669756359e-01 +5.6283879646178382e-03
1.0199999999999980e+01 +8.1620545758991252e+00 +0.0000000000000000e+00 +1.0199999432971671e+01 -2.9561614785502972e-02 -5.6475557599808468e-01 +5.6285013387063852e-03
1.0299999999999979e+01 +8.1619965391143001e+00 +0.0000000000000000e+00 +1.0299999416130195e+01 -2.9561711469884188e-02 -5.6475607728864541e-01 +5.6286140562428685e-03
1.0399999999999979e+01 +8.1619379361015199e+00 +0.0000000000000000e+00 +1.0399999398958494e+01 -2.9561806806621110e-02 -5.6475657105257793e-01 +5.6287262620732074e-03
1.0499999999999979e+01 +8.1618787668602923e+00 +0.0000000000000000e+00 +1.0499999381453364e+01 -2.9561901967539321e-02 -5.6475705777317542e-01 +5.6288381010419965e-03
1.0599999999999978e+01 +8.1618190313901309e+00 +0.0000000000000000e+00 +1.0599999363611596e+01 -2.9561998124482250e-02 -5.6475753793369599e-01 +5.6289497179924965e-03
1.0699999999999978e+01 +8.1617587296905540e+00 +0.0000000000000000e+00 +1.0699999345429987e+01 -2.9562096449311657e-02 -5.6475801201735820e-01 +5.6290612577666035e-03
1.0799999999999978e+01 +8.1616978617610911e+00 +0.0000000000000000e+00 +1.0799999326905327e+01 -2.9562198113908165e-02 -5.6475848050734156e-01 +5.6291728652048531e-03
1.0899999999999977e+01 +8.1616364276012732e+00 +0.0000000000000000e+00 +1.0899999308034412e+01 -2.9562304290171686e-02 -5.6475894388678594e-01 +5.6292846851463832e-03
1.0999999999999977e+01 +8.1615744272106365e+00 +0.0000000000000000e+00 +1.0999999288814035e+01 -2.9562416150022034e-02 -5.6475940263879021e-01 +5.6293968624289330e-03
1.1099999999999977e+01 +8.1615118605887247e+00 +0.0000000000000000e+00 +1.1099999269240989e+01 -2.9562534865399295e-02 -5.6475985724641165e-01 +5.6295095418888155e-03
1.1199999999999976e+01 +8.1614487277350829e+00 +0.0000000000000000e+00 +1.1199999249312068e+01 -2.9562661608264408e-02 -5.6476030819266487e-01 +5.6296228683609039e-03
1.1299999999999976e+01 +8.1613850286492617e+00 +0.0000000000000000e+00 +1.1299999229024065e+01 -2.9562797550599613e-02 -5.6476075596052144e-01 +5.6297369866786197e-03
1.1399999999999975e+01 +8.1613207633308136e+00 +0.0000000000000000e+00 +1.1399999208373774e+01 -2.9562943864408959e-02 -5.6476120103290905e-01 +5.6298520416739111e-03
1.1499999999999975e+01 +8.1612559317792943e+00 +0.0000000000000000e+00 +1.1499999187357988e+01 -2.9563101721718815e-02 -5.6476164389270944e-01 +5.6299681781772403e-03
1.1599999999999975e+01 +8.1611905339942634e+00 +0.0000000000000000e+00 +1.1599999165973500e+01 -2.9563272294578363e-02 -5.6476208502276026e-01 +5.6300855410175640e-03
1.1699999999999974e+01 +8.1611245699752786e+00 +0.0000000000000000e+00 +1.1699999144217106e+01 -2.9563456755060044e-02 -5.6476252490585077e-01 +5.6302042750223241e-03
1.1799999999999974e+01 +8.1610580397219028e+00 +0.0000000000000000e+00 +1.1799999122085596e+01 -2.9563656275260117e-02 -5.6476296402472426e-01 +5.6303245250174157e-03
