# multipoles
# s[mm] polynom_b[n=0][T/m^n] polynom_b[n=1][T/m^n] polynom_b[n=2][T/m^n] polynom_b[n=3][T/m^n] polynom_b[n=4][T/m^n] polynom_b[n=5][T/m^n] polynom_b[n=6][T/m^n] 
-0.0000000000000000e+00 -5.7222791536530682e-01 +7.8727643808922441e+00 -1.6432593782902134e+00 -5.0189827355706917e+01 +5.9634752312188484e+03 +4.1652458844305103e+04 -1.0372948311526978e+07 
-1.0000000000000001e-01 -5.7222767368036942e-01 +7.8727766827273289e+00 -1.6589283369705308e+00 -5.0371485108064618e+01 +6.2789734887254726e+03 +4.1685462297720514e+04 -1.1889598595799457e+07 
-2.0000000000000001e-01 -5.7222739904533781e-01 +7.8727872896388398e+00 -1.6746758964971764e+00 -5.0526933099610709e+01 +6.5820731400290679e+03 +4.1528385381394452e+04 -1.3314916011751577e+07 
-2.9999999999999999e-01 -5.7222710060737014e-01 +7.8727957560316941e+00 -1.6901426450837593e+00 -5.0638759123440941e+01 +6.8683984661190289e+03 +4.1083961807125132e+04 -1.4634422553803723e+07 
-4.0000000000000002e-01 -5.7222678751352485e-01 +7.8728016363144864e+00 -1.7049691787959573e+00 -5.0689551016214700e+01 +7.1335739087741931e+03 +4.0254925306391939e+04 -1.5833641027973920e+07 
-5.0000000000000000e-01 -5.7222646891092066e-01 +7.8728044848955419e+00 -1.7187960936248217e+00 -5.0661896573468894e+01 +7.3732239141020755e+03 +3.8944009280050486e+04 -1.6898094281994741e+07 
-5.9999999999999998e-01 -5.7222615394661402e-01 +7.8728038561796438e+00 -1.7312639898447915e+00 -5.0538383481661015e+01 +7.5829730108703570e+03 +3.7053946545322411e+04 -1.7813305561473988e+07 
-6.9999999999999996e-01 -5.7222585176760321e-01 +7.8727993045613935e+00 -1.7420134718179516e+00 -5.0301599149105925e+01 +7.7584458064172004e+03 +3.4487468477623959e+04 -1.8564798481136225e+07 
-8.0000000000000004e-01 -5.7222557152090647e-01 +7.8727903844319558e+00 -1.7506851487243138e+00 -4.9934130948854950e+01 +7.8952669952682745e+03 +3.1147306618665618e+04 -1.9138097045265537e+07 
-9.0000000000000002e-01 -5.7222532235348944e-01 +7.8727766501644592e+00 -1.7569196324025504e+00 -4.9418565812985619e+01 +7.9890613118185138e+03 +2.6936190428628430e+04 -1.9518725398138933e+07 
-1.0000000000000000e+00 -5.7222511341225046e-01 +7.8727576561178321e+00 -1.7603575399719107e+00 -4.8737490372076557e+01 +8.0354535822787157e+03 +2.1756848243373704e+04 -1.9692208070775289e+07 
-1.1000000000000001e+00 -5.7222495182608557e-01 +7.8727332136895054e+00 -1.7607525365349626e+00 -4.7882795505938091e+01 +8.0317418604677141e+03 +1.5569778858311347e+04 -1.9650596201912452e+07 
-1.2000000000000000e+00 -5.7222483665178414e-01 +7.8727041605876389e+00 -1.7583122069713533e+00 -4.6883539356489912e+01 +7.9819800565742680e+03 +8.5658280540346277e+03 -1.9412438516856380e+07 
-1.3000000000000000e+00 -5.7222476492818386e-01 +7.8726715906688796e+00 -1.7533580386825220e+00 -4.5778061167084147e+01 +7.8919265660845522e+03 +9.9325693134892026e+02 -1.9003004572261889e+07 
-1.3999999999999999e+00 -5.7222473369425753e-01 +7.8726365977841670e+00 -1.7462115099873015e+00 -4.4604700034073467e+01 +7.7673395751927555e+03 -6.8996743625574700e+03 -1.8447562812623288e+07 
-1.5000000000000000e+00 -5.7222473998890577e-01 +7.8726002757813109e+00 -1.7371940885674959e+00 -4.3401794972695676e+01 +7.6139770418055523e+03 -1.4864706332237203e+04 -1.7771380512334522e+07 
-1.6000000000000001e+00 -5.7222478085127670e-01 +7.8725637185087054e+00 -1.7266272252544799e+00 -4.2207685016176569e+01 +7.4375965595076050e+03 -2.2653579633676596e+04 -1.6999723076914109e+07 
-1.7000000000000000e+00 -5.7222485332054474e-01 +7.8725280198104102e+00 -1.7148323576087354e+00 -4.1060709074219410e+01 +7.2439554315383448e+03 -3.0018035955931882e+04 -1.6157854411828451e+07 
-1.8000000000000000e+00 -5.7222495443603549e-01 +7.8724942735360006e+00 -1.7021309004003116e+00 -3.9999206206806889e+01 +7.0388104808737644e+03 -3.6709816516680556e+04 -1.5271035994635172e+07 
-1.8999999999999999e+00 -5.7222508123715454e-01 +7.8724635735296724e+00 -1.6888442504199392e+00 -3.9061515303428358e+01 +6.8279181366934890e+03 -4.2480663996351563e+04 -1.4364527271821931e+07 
-2.0000000000000000e+00 -5.7222523076352094e-01 +7.8724370136417923e+00 -1.6752937808845001e+00 -3.8285975406429245e+01 +6.6170343297572272e+03 -4.7082320758916496e+04 -1.3463585167732820e+07 
-2.1000000000000001e+00 -5.7222539977655529e-01 +7.8724154168334417e+00 -1.6617623611035179e+00 -3.7701340575233623e+01 +6.4109584561915526e+03 -5.0331041926499413e+04 -1.2588966527319359e+07 
-2.2000000000000002e+00 -5.7222558396968182e-01 +7.8723985018903848e+00 -1.6483687891187497e+00 -3.7297538218466052e+01 +6.2104043058788784e+03 -5.2302942777652315e+04 -1.1741912648815978e+07 
-2.2999999999999998e+00 -5.7222577878063463e-01 +7.8723857061019187e+00 -1.6351883018197888e+00 -3.7054655144522023e+01 +6.0149987176248287e+03 -5.3139644824040981e+04 -1.0918404167061113e+07 
-2.3999999999999999e+00 -5.7222597964704680e-01 +7.8723764667591034e+00 -1.6222961458964997e+00 -3.6952777869298494e+01 +5.8243687313143791e+03 -5.2982772424132076e+04 -1.0114422713284692e+07 
-2.5000000000000000e+00 -5.7222618200651898e-01 +7.8723702211568032e+00 -1.6097675699594154e+00 -3.6971992643610406e+01 +5.6381414425715921e+03 -5.1973952722733644e+04 -9.3259502358746398e+06 
-2.6000000000000001e+00 -5.7222638129663017e-01 +7.8723664065912695e+00 -1.5976778337201782e+00 -3.7092385346116920e+01 +5.4559441797868503e+03 -5.0254816369709806e+04 -8.5489698524505291e+06 
-2.7000000000000002e+00 -5.7222657295485857e-01 +7.8723644603657954e+00 -1.5861022075225057e+00 -3.7294041608457306e+01 +5.2774044994231454e+03 -4.7966996915701391e+04 -7.7794658389094388e+06 
-2.7999999999999998e+00 -5.7222675241859844e-01 +7.8723638197861341e+00 -1.5751159709919493e+00 -3.7557046651921681e+01 +5.1021501679177982e+03 -4.5252131842075658e+04 -7.0134235664075660e+06 
-2.8999999999999999e+00 -5.7222691512519608e-01 +7.8723639221643866e+00 -1.5647944189342575e+00 -3.7861485365827654e+01 +4.9298092737688521e+03 -4.2251862209717503e+04 -6.2468300353222629e+06 
-3.0000000000000000e+00 -5.7222705651189365e-01 +7.8723642048210598e+00 -1.5552128585299121e+00 -3.8187442331819376e+01 +4.7600101822641718e+03 -3.9107832587828329e+04 -5.4756736798835658e+06 
-3.1000000000000001e+00 -5.7222717370697973e-01 +7.8723641863101461e+00 -1.5464007423294994e+00 -3.8516840774184779e+01 +4.5920935739364022e+03 -3.5948203255178232e+04 -4.6952232007609848e+06 
-3.2000000000000002e+00 -5.7222727048682687e-01 +7.8723637417985728e+00 -1.5382223353018347e+00 -3.8839694331946490e+01 +4.4246227597400866e+03 -3.2844583394620589e+04 -3.8998028662521201e+06 
-3.2999999999999998e+00 -5.7222735226042121e-01 +7.8723628440360480e+00 -1.5305052475289256e+00 -3.9148239673774547e+01 +4.2560618992455138e+03 -2.9853677784261741e+04 -3.0839923927903781e+06 
-3.3999999999999999e+00 -5.7222742443668784e-01 +7.8723614657816343e+00 -1.5230770966197882e+00 -3.9434714290640869e+01 +4.0848753187243278e+03 -2.7032184407350593e+04 -2.2423723417024803e+06 
-3.5000000000000000e+00 -5.7222749242459570e-01 +7.8723595798052628e+00 -1.5157655046195235e+00 -3.9691356578432433e+01 +3.9095274432074757e+03 -2.4436793813161450e+04 -1.3695237669343294e+06 
-3.6000000000000001e+00 -5.7222756163304167e-01 +7.8723571588873673e+00 -1.5083981030206257e+00 -3.9910405890488526e+01 +3.7284829006752566e+03 -2.2124188594732772e+04 -4.6002873592262249e+05 
-3.7000000000000002e+00 -5.7222763747083438e-01 +7.8723541758170699e+00 -1.5008025342589779e+00 -4.0084102521933652e+01 +3.5402065489854981e+03 -2.0151043322929159e+04 +4.9152954674226418e+05 
-3.7999999999999998e+00 -5.7222772534681532e-01 +7.8723506034022721e+00 -1.4928064480396248e+00 -4.0204688078589925e+01 +3.3431634086403083e+03 -1.8574022146402582e+04 +1.4905670525464616e+06 
-3.8999999999999999e+00 -5.7222783066972760e-01 +7.8723464144574073e+00 -1.4842375032243127e+00 -4.0264405151762070e+01 +3.1358186978920062e+03 -1.7449780552461165e+04 +2.5424987658716179e+06 
-4.0000000000000000e+00 -5.7222795884834121e-01 +7.8723415818124618e+00 -1.4749233706161342e+00 -4.0255497642429731e+01 +2.9166378894286022e+03 -1.6834963312073858e+04 +3.6527383987527331e+06 
-4.0999999999999996e+00 -5.7222811353417791e-01 +7.8723360223907255e+00 -1.4647964622204861e+00 -4.0171053541771940e+01 +2.6856929646957419e+03 -1.6779189860211904e+04 +4.8194873014150206e+06 
-4.2000000000000002e+00 -5.7222829140515319e-01 +7.8723294331783373e+00 -1.4541988478961663e+00 -4.0007839434672043e+01 +2.4493479757452169e+03 -1.7300816399314088e+04 +6.0126770666878596e+06 
-4.2999999999999998e+00 -5.7222848740944787e-01 +7.8723214569510498e+00 -1.4435727023857479e+00 -3.9763618229353611e+01 +2.2155072861523558e+03 -1.8409591292881101e+04 +7.1953099387320708e+06 
-4.4000000000000004e+00 -5.7222869649519292e-01 +7.8723117364988342e+00 -1.4333602037121702e+00 -3.9436153009112118e+01 +1.9920753845296401e+03 -2.0115263089279873e+04 +8.3303872819295032e+06 
-4.5000000000000000e+00 -5.7222891361033046e-01 +7.8722999146233219e+00 -1.4240035542929270e+00 -3.9023206939826046e+01 +1.7869572885711364e+03 -2.2427581131281499e+04 +9.3809076450733170e+06 
-4.5999999999999996e+00 -5.7222913370269490e-01 +7.8722856341356220e+00 -1.4159449672929585e+00 -3.8522543161805011e+01 +1.6080582899187684e+03 -2.5356296356005179e+04 +1.0309867957838338e+07 
-4.7000000000000002e+00 -5.7222935172002698e-01 +7.8722685378614363e+00 -1.4096266754884812e+00 -3.7931924939680023e+01 +1.4632841252383548e+03 -2.8911160446643993e+04 +1.1080262700538123e+07 
-4.7999999999999998e+00 -5.7222956260992153e-01 +7.8722482686373363e+00 -1.4054909269049431e+00 -3.7249115532458482e+01 +1.3605408940833836e+03 -3.3101926688401443e+04 +1.1655084288967161e+07 
-4.9000000000000004e+00 -5.7222976131979908e-01 +7.8722244693174570e+00 -1.4039799888610065e+00 -3.6471878358341606e+01 +1.3077351444014255e+03 -3.7938349125494336e+04 +1.1997322634697963e+07 
-5.0000000000000000e+00 -5.7222994279699391e-01 +7.8721967827647150e+00 -1.4055361468578382e+00 -3.5597976733980076e+01 +1.3127738473320146e+03 -4.3430184019722285e+04 +1.2069965281778244e+07 
-5.0999999999999996e+00 -5.7223010316731959e-01 +7.8721651163623401e+00 -1.4104659794195933e+00 -3.4631245589232172e+01 +1.3810945650154879e+03 -4.9548885661142194e+04 +1.1847525199536160e+07 
-5.2000000000000002e+00 -5.7223024342232576e-01 +7.8721303715557154e+00 -1.4185204761104986e+00 -3.3598108472716724e+01 +1.5080211034545086e+03 -5.6122350896976641e+04 +1.1351511600899432e+07 
-5.2999999999999998e+00 -5.7223036580834474e-01 +7.8720936821140679e+00 -1.4293083299514460e+00 -3.2530207668550197e+01 +1.6862847328538437e+03 -6.2944957440282567e+04 +1.0615433729445344e+07 
-5.4000000000000004e+00 -5.7223047257201221e-01 +7.8720561818020665e+00 -1.4424381901995702e+00 -3.1459185528847513e+01 +1.9086157802513992e+03 -6.9811080919720640e+04 +9.6728056923158132e+06 
-5.5000000000000000e+00 -5.7223056596028932e-01 +7.8720190043736782e+00 -1.4575186554342252e+00 -3.0416684293172565e+01 +2.1677434882725788e+03 -7.6515095982766448e+04 +8.5571471735926960e+06 
-5.5999999999999996e+00 -5.7223064822054326e-01 +7.8719832835806081e+00 -1.4741582739980146e+00 -2.9434346356245690e+01 +2.4563960211795420e+03 -8.2851374630147329e+04 +7.3019834164460162e+06 
-5.7000000000000002e+00 -5.7223072160046262e-01 +7.8719501531643203e+00 -1.4919655398402920e+00 -2.8543814033587733e+01 +2.7673003769322881e+03 -8.8614287526967033e+04 +5.9408456704841284e+06 
-5.7999999999999998e+00 -5.7223078834816643e-01 +7.8719207468616164e+00 -1.5105488936563969e+00 -2.7776729740891465e+01 +3.0931824085772291e+03 -9.3598202870095425e+04 +4.5072710966040613e+06 
-5.9000000000000004e+00 -5.7223085071217950e-01 +7.8718961983965450e+00 -1.5295167134256904e+00 -2.7164735751585727e+01 +3.4267666272080173e+03 -9.7597487757866882e+04 +3.0348037565504937e+06 
-5.9999999999999902e+00 -5.7223091094141054e-01 +7.8718776414890339e+00 -1.5484773219023233e+00 -2.6739474450120230e+01 +3.7607763527510947e+03 -1.0040650686524199e+05 +1.5569938554745840e+06 
-6.0999999999999899e+00 -5.7223097150010294e-01 +7.8718658946879891e+00 -1.5670390937555365e+00 -2.6522080351470400e+01 +4.0879304285702651e+03 -1.0188883073312919e+05 +1.0728558519697232e+05 
-6.1999999999999904e+00 -5.7223103545222787e-01 +7.8718605257473122e+00 -1.5848349184431250e+00 -2.6491673843546462e+01 +4.4012530048114786e+03 -1.0218420208374481e+05 -1.2822025215890177e+06 
-6.2999999999999901e+00 -5.7223110594942972e-01 +7.8718607920004455e+00 -1.6015094562428347e+00 -2.6616846915166754e+01 +4.6939159092609798e+03 -1.0150154047689337e+05 -2.5798622387802619e+06 
-6.3999999999999897e+00 -5.7223118614322788e-01 +7.8718659506806654e+00 -1.6167073985429297e+00 -2.6866187740204527e+01 +4.9590915361494181e+03 -1.0004979165279013e+05 -3.7540877326125582e+06 
-6.4999999999999902e+00 -5.7223127918485750e-01 +7.8718752589190455e+00 -1.6300734589770618e+00 -2.7208280627509691e+01 +5.1899526834156350e+03 -9.8037927776672179e+04 -4.7732748104499038e+06 
-6.5999999999999899e+00 -5.7223138822551722e-01 +7.8718879737385112e+00 -1.6412523795044496e+00 -2.7611705821058088e+01 +5.3796726744700209e+03 -9.5674948740725755e+04 -5.6058215067338608e+06 
-6.6999999999999904e+00 -5.7223151641617331e-01 +7.8719033520522821e+00 -1.6498889326518631e+00 -2.8045039410795628e+01 +5.5214253919302464e+03 -9.3169882864100116e+04 -6.2201282099352265e+06 
-6.7999999999999901e+00 -5.7223166690749883e-01 +7.8719206506612602e+00 -1.6556279188174214e+00 -2.8476853230219486e+01 +5.6083852311510991e+03 -9.0731787624685792e+04 -6.5845974488008711e+06 
-6.8999999999999897e+00 -5.7223184285008910e-01 +7.8719391262446585e+00 -1.6581141722826949e+00 -2.8875714545683987e+01 +5.6337272155746541e+03 -8.8569751636953442e+04 -6.6676344335687673e+06 
-6.9999999999999902e+00 -5.7223204739430333e-01 +7.8719580353562018e+00 -1.6569925601511040e+00 -2.9210185983544193e+01 +5.5906269723481137e+03 -8.6892894871666940e+04 -6.4376468995982846e+06 
-7.0999999999999899e+00 -5.7223228229477163e-01 +7.8719767202177016e+00 -1.6521118357344531e+00 -2.9456334841507623e+01 +5.4761154056199484e+03 -8.5856576052730787e+04 -5.8806894102827692e+06 
-7.1999999999999904e+00 -5.7223254391214529e-01 +7.8719950229406379e+00 -1.6441145985368988e+00 -2.9624201008452722e+01 +5.3024847659403749e+03 -8.5382676752245185e+04 -5.0533993372384310e+06 
-7.2999999999999901e+00 -5.7223282729584224e-01 +7.8720129507079104e+00 -1.6338383458798698e+00 -2.9733376682431135e+01 +5.0858429600517939e+03 -8.5329600309010508e+04 -4.0302556307808938e+06 
-7.3999999999999897e+00 -5.7223312749511324e-01 +7.8720305108575674e+00 -1.6221205910605823e+00 -2.9803459781264309e+01 +4.8422983929634756e+03 -8.5555713214187970e+04 -2.8857406799092898e+06 
-7.4999999999999902e+00 -5.7223343955908357e-01 +7.8720477108851608e+00 -1.6097988569036896e+00 -2.9854053956494447e+01 +4.5879598262933732e+03 -8.5919344844944455e+04 -1.6943396188368883e+06 
-7.5999999999999899e+00 -5.7223375853685043e-01 +7.8720645584440216e+00 -1.5977106740452944e+00 -2.9904768641087486e+01 +4.3389363532389953e+03 -8.6278787062638541e+04 -5.3054025023307255e+05 
-7.6999999999999904e+00 -5.7223407947735283e-01 +7.8720810613504293e+00 -1.5866935827484776e+00 -2.9975219239423016e+01 +4.1113374372163580e+03 -8.6492292963324886e+04 +5.3116674034399260e+05 
-7.7999999999999901e+00 -5.7223439742947191e-01 +7.8720972275938008e+00 -1.5775851379241996e+00 -3.0085027464626300e+01 +3.9212730125488588e+03 -8.6418074789094026e+04 +1.4162872710606714e+06 
-7.8999999999999897e+00 -5.7223470744191218e-01 +7.8721130653372180e+00 -1.5712228992017006e+00 -3.0253821412970741e+01 +3.7848533037094353e+03 -8.5914303296412661e+04 +2.0503246832445997e+06 
-7.9999999999999902e+00 -5.7223500456329779e-01 +7.8721285829354581e+00 -1.5684444384961032e+00 -3.0501235974575369e+01 +3.7181889788430872e+03 -8.4839105570197091e+04 +2.3587789583481858e+06 
-8.0999999999999908e+00 -5.7223528520997347e-01 +7.8721438918104498e+00 -1.5698317920556126e+00 -3.0843348848398001e+01 +3.7325419733691838e+03 -8.3080945999274394e+04 +2.2894593300178279e+06 
-8.1999999999999904e+00 -5.7223555125585657e-01 +7.8721592654086381e+00 -1.5749506011802188e+00 -3.1276139917208027e+01 +3.8195823159805732e+03 -8.0677627179208052e+04 +1.8810767577133884e+06 
-8.2999999999999901e+00 -5.7223580594716783e-01 +7.8721749533685932e+00 -1.5831114125008916e+00 -3.1788982837120365e+01 +3.9659804227053564e+03 -7.7711978208996661e+04 +1.1957402102364004e+06 
-8.3999999999999897e+00 -5.7223605253042598e-01 +7.8721912052385656e+00 -1.5936247283024496e+00 -3.2371248234110872e+01 +4.1584055831616806e+03 -7.4266844841920683e+04 +2.9556540347758477e+05 
-8.4999999999999893e+00 -5.7223629425241795e-01 +7.8722082705050811e+00 -1.6058010237921252e+00 -3.3012304672596187e+01 +4.3835263259438543e+03 -7.0425084075786013e+04 -7.5732698265879322e+05 
-8.5999999999999908e+00 -5.7223653436015554e-01 +7.8722263985799454e+00 -1.6189507381187991e+00 -3.3701518274751088e+01 +4.6280102375318638e+03 -6.6269566324595056e+04 -1.9008103911195502e+06 
-8.6999999999999904e+00 -5.7223677610098633e-01 +7.8722458388070393e+00 -1.6323842751524436e+00 -3.4428252904340269e+01 +4.8785239740183833e+03 -6.1883174350501642e+04 -3.0727524159866022e+06 
-8.7999999999999794e+00 -5.7223702272248489e-01 +7.8722668404523040e+00 -1.6454120058560380e+00 -3.5181869861772512e+01 +5.1217332925411347e+03 -5.7348805031965501e+04 -4.2110148910479657e+06 
-8.8999999999999808e+00 -5.7223727747248565e-01 +7.8722896527120243e+00 -1.6573442645949987e+00 -3.5951728129225707e+01 +5.3443029791384724e+03 -5.2749367878151083e+04 -5.2534535227115946e+06 
-8.9999999999999805e+00 -5.7223754359918699e-01 +7.8723145246919008e+00 -1.6674913475410285e+00 -3.6727183816947637e+01 +5.5328967988789864e+03 -4.8167788580142224e+04 -6.1379176104065599e+06 
-9.0999999999999801e+00 -5.7223782364474907e-01 +7.8723414591427074e+00 -1.6753224399261051e+00 -3.7494917456207489e+01 +5.6771299198173456e+03 -4.3698600733768748e+04 -6.8157472099341117e+06 
-9.1999999999999797e+00 -5.7223811716706774e-01 +7.8723696510403833e+00 -1.6809512941789264e+00 -3.8234617730327280e+01 +5.7787489140982943e+03 -3.9465262064705763e+04 -7.2939566148284413e+06 
-9.2999999999999794e+00 -5.7223842293009375e-01 +7.8723981391279185e+00 -1.6846568544122762e+00 -3.8925227116784924e+01 +5.8426517235097053e+03 -3.5593748313666816e+04 -7.5940859896472069e+06 
-9.3999999999999808e+00 -5.7223873969712380e-01 +7.8724259621997126e+00 -1.6867181566029308e+00 -3.9545689425230030e+01 +5.8737383561782754e+03 -3.2210030048872319e+04 -7.7376866464968706e+06 
-9.4999999999999805e+00 -5.7223906623082843e-01 +7.8724521590902921e+00 -1.6874143264886672e+00 -4.0074949408155518e+01 +5.8769108221378183e+03 -2.9440074445784536e+04 -7.7463207365293149e+06 
-9.5999999999999801e+00 -5.7223940129322171e-01 +7.8724757686689859e+00 -1.6870245764089709e+00 -4.0491952578219447e+01 +5.8570730832097224e+03 -2.7409846476865103e+04 -7.6415610546452440e+06 
-9.6999999999999797e+00 -5.7223974364579033e-01 +7.8724958298433352e+00 -1.6858282149968182e+00 -4.0775645321882074e+01 +5.8191312479218377e+03 -2.6245308246781409e+04 -7.4449920088735335e+06 
-9.7999999999999794e+00 -5.7224009204921966e-01 +7.8725113815611136e+00 -1.6841046453537416e+00 -4.0904974944318020e+01 +5.7679935412932118e+03 -2.6072418819405975e+04 -7.1782095052300887e+06 
-9.8999999999999808e+00 -5.7224044526359386e-01 +7.8725214628097495e+00 -1.6821333692654243e+00 -4.0858889636373675e+01 +5.7085703946765288e+03 -2.7017134489867447e+04 -6.8628214139659628e+06 
-9.9999999999999805e+00 -5.7224080204828165e-01 +7.8725251126183142e+00 -1.6801939871764981e+00 -4.0616338608603279e+01 +5.6457744499171458e+03 -2.9205406804150534e+04 -6.5204475219463268e+06 
-1.0100000000000000e+01 -5.7224116135228087e-01 +7.8725217325775541e+00 -1.6785262662533655e+00 -4.0165933296715764e+01 +5.5839592928349030e+03 -3.2702621671810983e+04 -6.1704876604252579e+06 
