# multipoles
# s[mm] polynom_b[n=0][T/m^n] polynom_b[n=1][T/m^n] polynom_b[n=2][T/m^n] polynom_b[n=3][T/m^n] polynom_b[n=4][T/m^n] polynom_b[n=5][T/m^n] polynom_b[n=6][T/m^n] 
+0.0000000000000000e+00 -5.6447741165274246e-01 +7.7265784186553956e+00 +7.0044127916916957e-02 +1.3457547892946755e+01 -3.8019881696481457e+03 -2.9435577528900263e+05 +3.2917120351832653e+06 
+1.0000000000000001e-01 -5.6447755406572842e-01 +7.7265544869610938e+00 +7.0353129223173549e-02 +1.4227274989334630e+01 -3.8197222933463463e+03 -2.9889742820117064e+05 +3.3923261992158592e+06 
+2.0000000000000001e-01 -5.6447769541238713e-01 +7.7265296950033839e+00 +7.0064495817930159e-02 +1.5010650971531891e+01 -3.8261381292655460e+03 -3.0350008191718132e+05 +3.4413023174143308e+06 
+2.9999999999999999e-01 -5.6447783531709061e-01 +7.7265042718991790e+00 +6.9167603121290611e-02 +1.5802448432117956e+01 -3.8212910710810402e+03 -3.0813657476734841e+05 +3.4397088439845401e+06 
+4.0000000000000002e-01 -5.6447797340429251e-01 +7.7264784467650252e+00 +6.7651824460796470e-02 +1.6597439943640254e+01 -3.8052364744961033e+03 -3.1277974489472579e+05 +3.3886140572063997e+06 
+5.0000000000000000e-01 -5.6447810929834141e-01 +7.7264524487277511e+00 +6.5506530615604977e-02 +1.7390397788118968e+01 -3.7780296462934471e+03 -3.1740242880780564e+05 +3.2890860012642187e+06 
+5.9999999999999998e-01 -5.6447824262368429e-01 +7.7264265069076430e+00 +6.2721097444046539e-02 +1.8176094420941943e+01 -3.7397259881362984e+03 -3.2197746400743321e+05 +3.1421931659187530e+06 
+6.9999999999999996e-01 -5.6447837300469306e-01 +7.7264008504396218e+00 +5.9284899005773668e-02 +1.8949301873652534e+01 -3.6903808707508788e+03 -3.2647768558413000e+05 +2.9490039022485409e+06 
+8.0000000000000004e-01 -5.6447850006576827e-01 +7.7263757084520055e+00 +5.5187308891206051e-02 +1.9704792367963499e+01 -3.6300496514880888e+03 -3.3087592977147538e+05 +2.7105864840584775e+06 
+9.0000000000000002e-01 -5.6447862343133193e-01 +7.7263513100814212e+00 +5.0417703681468209e-02 +2.0437337886257644e+01 -3.5587877451393770e+03 -3.3514503148821992e+05 +2.4280094583061091e+06 
+1.0000000000000000e+00 -5.6447874272582688e-01 +7.7263278844710586e+00 +4.4965461866787189e-02 +2.1141710215277655e+01 -3.4766505987022515e+03 -3.3925782456319284e+05 +2.1023415134405540e+06 
+1.1000000000000001e+00 -5.6447885757372696e-01 +7.7263056607708194e+00 +3.8819959025194972e-02 +2.1812680962357955e+01 -3.3836936016998502e+03 -3.4318714190585405e+05 +1.7346510550496285e+06 
+1.2000000000000000e+00 -5.6447896759941052e-01 +7.7262848681286842e+00 +3.1970576078016025e-02 +2.2445021791958773e+01 -3.2799722442901702e+03 -3.4690581684864836e+05 +1.3260069636158817e+06 
+1.3000000000000000e+00 -5.6447907242737938e-01 +7.7262657357055717e+00 +2.4406694870665283e-02 +2.3033504003845778e+01 -3.1655420288267874e+03 -3.5038668072671950e+05 +8.7747816091153445e+05 
+1.3999999999999999e+00 -5.6447917168213990e-01 +7.7262484926633315e+00 +1.6117697689647471e-02 +2.3572898883898773e+01 -3.0404584620767746e+03 -3.5360256493501004e+05 +3.9013357397372898e+05 
+1.5000000000000000e+00 -5.6447926498816114e-01 +7.7262333681716964e+00 +7.0929686963825218e-03 +2.4057977499185998e+01 -2.9047770838171832e+03 -3.5652629973325238e+05 -1.3495772085739180e+05 
+1.6000000000000001e+00 -5.6447935196996446e-01 +7.7262205914105033e+00 -2.6781055290366188e-03 +2.4483510642714744e+01 -2.7585534721127274e+03 -3.5913071396255691e+05 -6.9672649091310077e+05 
+1.7000000000000000e+00 -5.6447943225211583e-01 +7.7262103915612883e+00 -1.3206133042613921e-02 +2.4844269073637747e+01 -2.6018433045590245e+03 -3.6138863643918716e+05 -1.2941030396298817e+06 
+1.8000000000000000e+00 -5.6447950545918935e-01 +7.7262029978168112e+00 -2.4501725025620955e-02 +2.5135023253358778e+01 -2.4347021921036526e+03 -3.6327289446362929e+05 -1.9260180115822938e+06 
+1.8999999999999999e+00 -5.6447957121574988e-01 +7.7261986393746422e+00 -3.6575487428007931e-02 +2.5350543520438034e+01 -2.2571858381665065e+03 -3.6475631481062487e+05 -2.5914016349276891e+06 
+2.0000000000000000e+00 -5.6447962914645800e-01 +7.7261975454436600e+00 -4.9438021982132915e-02 +2.5485599903604896e+01 -2.0693500203076842e+03 -3.6581172266157338e+05 -3.2891838050123933e+06 
+2.1000000000000001e+00 -5.6447967915365127e-01 +7.7261998655291668e+00 -6.3082432570521513e-02 +2.5536560955592247e+01 -1.8714569388654431e+03 -3.6641946855470468e+05 -4.0177432288263878e+06 
+2.2000000000000002e+00 -5.6447972224776510e-01 +7.7262054320632334e+00 -7.7431181411218047e-02 +2.5506072883776387e+01 -1.6646073252098897e+03 -3.6658899284848885e+05 -4.7731962522034366e+06 
+2.2999999999999998e+00 -5.6447975971540976e-01 +7.7262139986362870e+00 -9.2388905894202594e-02 +2.5398322236644557e+01 -1.4501147146615099e+03 -3.6633675516416912e+05 -5.5510798170572100e+06 
+2.3999999999999999e+00 -5.6447979284326799e-01 +7.7262253188308581e+00 -1.0786023981743188e-01 +2.5217495797645171e+01 -1.2292927197533647e+03 -3.6567921644096472e+05 -6.3469304823614350e+06 
+2.5000000000000000e+00 -5.6447982291792886e-01 +7.7262391462230404e+00 -1.2374982176385246e-01 +2.4967780535607353e+01 -1.0034548609174700e+03 -3.6463283861820580e+05 -7.1562852562590884e+06 
+2.6000000000000001e+00 -5.6447985122604649e-01 +7.7262552343865547e+00 -1.3996228153384138e-01 +2.4653363469093431e+01 -7.7391482950119178e+02 -3.6321408377074247e+05 -7.9746803321718769e+06 
+2.7000000000000002e+00 -5.6447987905430708e-01 +7.7262733368790464e+00 -1.5640225693569976e-01 +2.4278432091838098e+01 -5.4198617906867401e+02 -3.6143941665236425e+05 -8.7976525282992013e+06 
+2.7999999999999998e+00 -5.6447990768926803e-01 +7.7262932072562984e+00 -1.7297438116748518e-01 +2.3847173939107503e+01 -3.0898254583767601e+02 -3.5932530209571612e+05 -9.6207382942575533e+06 
+2.8999999999999999e+00 -5.6447993841761246e-01 +7.7263145990589477e+00 -1.8958328708754074e-01 +2.3363776965229327e+01 -7.6217588256352485e+01 -3.5688820716801408e+05 -1.0439473940606842e+07 
+3.0000000000000000e+00 -5.6447997252592619e-01 +7.7263372658158396e+00 -2.0613360882941584e-01 +2.2832429471207153e+01 +1.5499505699676297e+02 -3.5414460080216877e+05 -1.1249395885689339e+07 
+3.1000000000000001e+00 -5.6448001130082348e-01 +7.7263609610484929e+00 -2.2252997896440072e-01 +2.2257319945838276e+01 +3.8334171435693924e+02 -3.5111095278429199e+05 -1.2046040349319220e+07 
+3.2000000000000002e+00 -5.6448005602893336e-01 +7.7263854382609907e+00 -2.3867703004903029e-01 +2.1642637375183071e+01 +6.0750869632279728e+02 -3.4780373555989860e+05 -1.2824943475291790e+07 
+3.2999999999999998e+00 -5.6448010799676962e-01 +7.7264104509386993e+00 -2.5447939730512514e-01 +2.0992571271097979e+01 +8.2618235811575778e+02 -3.4423942438589223e+05 -1.3581641601039553e+07 
+3.3999999999999999e+00 -5.6448016849099469e-01 +7.7264357525580944e+00 -2.6984171356601871e-01 +2.0311311392157307e+01 +1.0380489986320431e+03 -3.4043449569080467e+05 -1.4311670778676135e+07 
+3.5000000000000000e+00 -5.6448023879807041e-01 +7.7264610965762488e+00 -2.8466861359872131e-01 +1.9603048032726043e+01 +1.2417949413614201e+03 -3.3640542869947042e+05 -1.5010567158592373e+07 
+3.6000000000000001e+00 -5.6448032020459382e-01 +7.7264862364301088e+00 -2.9886473104820827e-01 +1.8871972055610023e+01 +1.4361064756407127e+03 -3.3216870563489600e+05 -1.5673866707598951e+07 
+3.7000000000000002e+00 -5.6448041399705073e-01 +7.7265109255382693e+00 -3.1233470189322970e-01 +1.8122274837866513e+01 +1.6196699269369476e+03 -3.2774081139096117e+05 -1.6297105555847278e+07 
+3.7999999999999998e+00 -5.6448052146194660e-01 +7.7265349173025069e+00 -3.2498316050978782e-01 +1.7358148215572534e+01 +1.7911715712731025e+03 -3.2313823315059231e+05 -1.6875819561441720e+07 
+3.8999999999999999e+00 -5.6448064388575370e-01 +7.7265579650975402e+00 -3.3671474333216322e-01 +1.6583784790907590e+01 +1.9492977110042345e+03 -3.1837746219125204e+05 -1.7405544689394265e+07 
+4.0000000000000000e+00 -5.6448078255493694e-01 +7.7265798222786204e+00 -3.4743408936363396e-01 +1.5803377705857930e+01 +2.0927346833670063e+03 -3.1347499252368161e+05 -1.7881817047653239e+07 
+4.0999999999999996e+00 -5.6448093856021697e-01 +7.7266002934960563e+00 -3.5706259580629279e-01 +1.5020758075381112e+01 +2.2204344323511582e+03 -3.0844807467108947e+05 -1.8301182233450603e+07 
+4.2000000000000002e+00 -5.6448111220485131e-01 +7.7266193906110701e+00 -3.6559077698075737e-01 +1.4238325921844396e+01 +2.3324349481435002e+03 -3.0331767895367678e+05 -1.8664269217088915e+07 
+4.2999999999999998e+00 -5.6448130359387627e-01 +7.7266371777876675e+00 -3.7302696109984051e-01 +1.3458130586144668e+01 +2.4290518065784195e+03 -2.9810590371230926e+05 -1.8972738951252438e+07 
+4.4000000000000004e+00 -5.6448151283245318e-01 +7.7266537191877456e+00 -3.7937947655394572e-01 +1.2682221405464611e+01 +2.5106005968913200e+03 -2.9283484701900522e+05 -1.9228252459958769e+07 
+4.5000000000000000e+00 -5.6448174002561435e-01 +7.7266690789591603e+00 -3.8465665801828064e-01 +1.1912648055077009e+01 +2.5773970299994626e+03 -2.8752660863542126e+05 -1.9432471332458958e+07 
+4.5999999999999996e+00 -5.6448198527842586e-01 +7.7266833212444688e+00 -3.8886684198114552e-01 +1.1151460303727566e+01 +2.6297568660757574e+03 -2.8220328862832632e+05 -1.9587057411464725e+07 
+4.7000000000000002e+00 -5.6448224869598485e-01 +7.7266965101804095e+00 -3.9201836534194162e-01 +1.0400708004557561e+01 +2.6679958764457829e+03 -2.7688698723399651e+05 -1.9693672579388149e+07 
+4.7999999999999998e+00 -5.6448253038331153e-01 +7.7267087098958793e+00 -3.9411956979467938e-01 +9.6624411682380327e+00 +2.6924299351090908e+03 -2.7159980534075038e+05 -1.9753979213733602e+07 
+4.9000000000000004e+00 -5.6448283044544423e-01 +7.7267199845127923e+00 -3.9517880014902440e-01 +8.9387099311711093e+00 +2.7033749871986806e+03 -2.6636384427370870e+05 -1.9769640038301192e+07 
+5.0000000000000000e+00 -5.6448314898743479e-01 +7.7267303981438191e+00 -3.9520440186926914e-01 +8.2315646052836531e+00 +2.7011469996244059e+03 -2.6120120604933123e+05 -1.9742317876432680e+07 
+5.0999999999999996e+00 -5.6448348611430843e-01 +7.7267400148952650e+00 -3.9420472891658265e-01 +7.5430556108562152e+00 +2.6860621117717783e+03 -2.5613399302282825e+05 -1.9673676374995165e+07 
+5.2000000000000002e+00 -5.6448384193108259e-01 +7.7267488988673119e+00 -3.9218813172961403e-01 +6.8752334503442221e+00 +2.6584364104121728e+03 -2.5118430769378596e+05 -1.9565378938868605e+07 
+5.2999999999999998e+00 -5.6448421654274550e-01 +7.7267571141518339e+00 -3.8916297040067221e-01 +6.2301487783684459e+00 +2.6185861775039502e+03 -2.4637425312353924e+05 -1.9419089901625775e+07 
+5.4000000000000004e+00 -5.6448461005431083e-01 +7.7267647248320452e+00 -3.8513760772842937e-01 +5.6098524005485020e+00 +2.5668277597493698e+03 -2.4172593289895868e+05 -1.9236473907187823e+07 
+5.5000000000000000e+00 -5.6448502257072986e-01 +7.7267717949855692e+00 -3.8012040634135758e-01 +5.0163951920685879e+00 +2.5034775155708840e+03 -2.3726145068746881e+05 -1.9019195662217859e+07 
+5.5999999999999996e+00 -5.6448545419704832e-01 +7.7267783886821935e+00 -3.7411973764504070e-01 +4.4518281410913998e+00 +2.4288519847288317e+03 -2.3300291042267269e+05 -1.8768920737882052e+07 
+5.7000000000000002e+00 -5.6448590503813389e-01 +7.7267845699820032e+00 -3.6714397679010297e-01 +3.9182024264162902e+00 +2.3432677944032707e+03 -2.2897241682493797e+05 -1.8487315129603975e+07 
+5.7999999999999998e+00 -5.6448637519901324e-01 +7.7267904029415098e+00 -3.5920149979322075e-01 +3.4175692139399088e+00 +2.2470416033618521e+03 -2.2519207414647180e+05 -1.8176044982993338e+07 
+5.9000000000000004e+00 -5.6448686478455445e-01 +7.7267959516087563e+00 -3.5030069160892569e-01 +2.9519798059318512e+00 +2.1404902585587070e+03 -2.2168398706194770e+05 -1.7836777349008944e+07 
+5.9999999999999902e+00 -5.6448737389977943e-01 +7.7268012800217871e+00 -3.4044993832956905e-01 +2.5234856525668397e+00 +2.0239306414187395e+03 -2.1847026065109822e+05 -1.7471179433967281e+07 
+6.0999999999999899e+00 -5.6448790233818447e-01 +7.7268064295007406e+00 -3.2967239198789722e-01 +2.1337215266186988e+00 +1.8977853702025084e+03 -2.1556820110405376e+05 -1.7080986061051480e+07 
+6.1999999999999904e+00 -5.6448844865985448e-01 +7.7268113385914541e+00 -3.1804757782503296e-01 +1.7831992568117321e+00 +1.7628796656997895e+03 -2.1297946167219331e+05 -1.6668209082692273e+07 
+6.2999999999999901e+00 -5.6448901111925631e-01 +7.7268159172249540e+00 -3.0566844424851114e-01 +1.4722785221071968e+00 +1.6201336457872283e+03 -2.1070261189418659e+05 -1.6234925906622602e+07 
+6.3999999999999897e+00 -5.6448958797076410e-01 +7.7268200753528182e+00 -2.9262794682685372e-01 +1.2013185553911367e+00 +1.4704675610872077e+03 -2.0873621948171451e+05 -1.5783214566122221e+07 
+6.4999999999999902e+00 -5.6449017746871777e-01 +7.7268237229551939e+00 -2.7901903776359416e-01 +9.7067790569359835e-01 +1.3148015989071364e+03 -2.0707884893670818e+05 -1.5315152798468933e+07 
+6.5999999999999899e+00 -5.6449077786752777e-01 +7.7268267700406712e+00 -2.6493467250370017e-01 +7.8071447167061048e-01 +1.1540559981534593e+03 -2.0572906185466985e+05 -1.4832818563671457e+07 
+6.6999999999999904e+00 -5.6449138742151383e-01 +7.7268291266489113e+00 -2.5046780675867769e-01 +6.3178540345381884e-01 +9.8915100465827948e+02 -2.0468541630037286e+05 -1.4338289864928246e+07 
+6.7999999999999901e+00 -5.6449200438497882e-01 +7.7268307028459091e+00 -2.3571140050343808e-01 +5.2424727482338451e-01 +8.2100693901694103e+02 -2.0394646792803382e+05 -1.3833645047307879e+07 
+6.8999999999999897e+00 -5.6449262701225322e-01 +7.7268314087310568e+00 -2.2075840901575411e-01 +4.5845585856775739e-01 +6.5054402945787274e+02 -2.0351076863222176e+05 -1.3320962014678275e+07 
+6.9999999999999902e+00 -5.6449325355764302e-01 +7.7268311544410322e+00 -2.0570179272884787e-01 +4.3476605222495829e-01 +4.7868259739816364e+02 -2.0337686624653733e+05 -1.2802319107586550e+07 
+7.0999999999999899e+00 -5.6449388227538300e-01 +7.7268298501411845e+00 -1.9063451219378341e-01 +4.5353210625466900e-01 +3.0634295937578412e+02 -2.0354330582091419e+05 -1.2279794629037902e+07 
+7.1999999999999904e+00 -5.6449451141972606e-01 +7.7268274060332072e+00 -1.7564952829395933e-01 +5.1510742996521786e-01 +1.3444543820345646e+02 -2.0400862858888050e+05 -1.1755466920651272e+07 
+7.2999999999999901e+00 -5.6449513924489914e-01 +7.7268237323616535e+00 -1.6083980656969218e-01 +6.1984439264966973e-01 -3.6089564113503236e+01 -2.0477137080828089e+05 -1.1231414681484625e+07 
+7.3999999999999897e+00 -5.6449576400509205e-01 +7.7268187394026535e+00 -1.4629830569539293e-01 +7.6809467454600877e-01 -2.0434177798105185e+02 -2.0583006587597230e+05 -1.0709715982851639e+07 
+7.4999999999999902e+00 -5.6449638395453283e-01 +7.7268123374759261e+00 -1.3211799482535749e-01 +9.6020891654811913e-01 -3.6939074328102760e+02 -2.0718324230618929e+05 -1.0192449788755916e+07 
+7.5999999999999899e+00 -5.6449699734732262e-01 +7.7268044369380666e+00 -1.1839183665324954e-01 +1.1965369151072092e+00 -5.3031612481201137e+02 -2.0882942488113389e+05 -9.6816944714993648e+06 
+7.6999999999999904e+00 -5.6449760243761771e-01 +7.7267949481885205e+00 -1.0521279875673391e-01 +1.4774274728169561e+00 -6.8619750508784216e+02 -2.1076713386067448e+05 -9.1795287745352127e+06 
+7.7999999999999901e+00 -5.6449819747954855e-01 +7.7267837816769873e+00 -9.2673850572440472e-02 +1.8032281858020947e+00 -8.3611443344314523e+02 -2.1299488378253576e+05 -8.6880316041608602e+06 
+7.8999999999999897e+00 -5.6449878072719606e-01 +7.7267708478861143e+00 -8.0867958269247336e-02 +2.1742859377535346e+00 -9.7914653170646841e+02 -2.1551118630868927e+05 -8.2092815030140625e+06 
+7.9999999999999902e+00 -5.6449935043463251e-01 +7.7267560573533771e+00 -6.9888094840827475e-02 +2.5909463227382981e+00 -1.1143732892123219e+03 -2.1831454705913793e+05 -7.7453576655599037e+06 
+8.0999999999999908e+00 -5.6449990527836180e-01 +7.7267393462116756e+00 -5.9807146964158599e-02 +3.0532438109452804e+00 -1.2410373728945872e+03 -2.2140185121279437e+05 -7.2981773363773366e+06 
+8.1999999999999904e+00 -5.6450044563123114e-01 +7.7267207736354200e+00 -5.0618324594440420e-02 +3.5590197257116958e+00 -1.3590281694999178e+03 -2.2475670745959235e+05 -6.8690586711234087e+06 
+8.2999999999999901e+00 -5.6450097229234197e-01 +7.7267004348270278e+00 -4.2295050891692207e-02 +4.1053278239986888e+00 -1.4683941844401234e+03 -2.2835767505234183e+05 -6.4591946288623372e+06 
+8.3999999999999897e+00 -5.6450148606084471e-01 +7.7266784249765976e+00 -3.4810745454282102e-02 +4.6892220883346445e+00 -1.5691839972482423e+03 -2.3218331368962384e+05 -6.0697778358762581e+06 
+8.4999999999999893e+00 -5.6450198773594995e-01 +7.7266548392641194e+00 -2.8138823366340448e-02 +5.3077567025343342e+00 -1.6614462817581098e+03 -2.3621218356970613e+05 -5.7020004700087998e+06 
+8.5999999999999908e+00 -5.6450247811684007e-01 +7.7266297728483559e+00 -2.2252695624714099e-02 +5.9579863751912630e+00 -1.7452297967542609e+03 -2.4042284727655721e+05 -5.3570543102313504e+06 
+8.6999999999999904e+00 -5.6450295800272998e-01 +7.7266033208778033e+00 -1.7125771832387574e-02 +6.6369660066589944e+00 -1.8205833380571742e+03 -2.4479386777616004e+05 -5.0361309557599509e+06 
+8.7999999999999794e+00 -5.6450342819290478e-01 +7.7265755784842245e+00 -1.2731452043068494e-02 +7.3417508755929308e+00 -1.8875558910447126e+03 -2.4930380948564349e+05 -4.7404211096292259e+06 
+8.8999999999999808e+00 -5.6450388948669217e-01 +7.7265466407832530e+00 -9.0431343794597201e-03 +8.0693966274329849e+00 -1.9461964854712649e+03 -2.5393123820867797e+05 -4.4711152679505982e+06 
+8.9999999999999805e+00 -5.6450434268338212e-01 +7.7265166028717225e+00 -6.0342135398116278e-03 +8.8169593330510487e+00 -1.9965542261329990e+03 -2.5865472141461543e+05 -4.2294035723551363e+06 
+9.0999999999999801e+00 -5.6450478858236397e-01 +7.7264855598312190e+00 -3.6780744475049059e-03 +9.5814953922906057e+00 -2.0386784160279396e+03 -2.6345282766946947e+05 -4.0164752154181255e+06 
+9.1999999999999797e+00 -5.6450522798300795e-01 +7.7264536067222460e+00 -1.9481036900007454e-03 +1.0360061696829025e+01 -2.0726183347828596e+03 -2.6830412755868240e+05 -3.8335195090093981e+06 
+9.2999999999999794e+00 -5.6450566168480376e-01 +7.7264208385862743e+00 -8.1767615354262255e-04 +1.1149715562374359e+01 -2.0984234942423495e+03 -2.7318719325177616e+05 -3.6817246611233805e+06 
+9.3999999999999808e+00 -5.6450609048719502e-01 +7.7263873504494658e+00 -2.6016438432547597e-04 +1.1947514628927534e+01 -2.1161434596325471e+03 -2.7808059793568804e+05 -3.5622786356416401e+06 
+9.4999999999999805e+00 -5.6450651518970052e-01 +7.7263532373105992e+00 -2.4893397186331705e-04 +1.2750517188857987e+01 -2.1258279430879520e+03 -2.8296291763431719e+05 -3.4763686877455390e+06 
+9.5999999999999801e+00 -5.6450693659186857e-01 +7.7263185941560293e+00 -7.5734632395478888e-04 +1.3555781762094142e+01 -2.1275267452584940e+03 -2.8781272876427043e+05 -3.4251816594706653e+06 
+9.6999999999999797e+00 -5.6450735549331710e-01 +7.7262835159443668e+00 -1.7587569455403864e-03 +1.4360367538957377e+01 -2.1212897892366113e+03 -2.9260861067791702e+05 -3.4099038158037071e+06 
+9.7999999999999794e+00 -5.6450777269366459e-01 +7.7262480976129133e+00 -3.2265133810285883e-03 +1.5161334176942972e+01 -2.1071671612917585e+03 -2.9732914442523877e+05 -3.4317206476560328e+06 
+9.8999999999999808e+00 -5.6450818899259037e-01 +7.7262124340803036e+00 -5.1339578012969391e-03 +1.5955741729393580e+01 -2.0852090632012937e+03 -3.0195291234106169e+05 -3.4918170950039942e+06 
+9.9999999999999805e+00 -5.6450860518984125e-01 +7.7261766202359974e+00 -7.4544267936758352e-03 +1.6740650933283657e+01 -2.0554658163170398e+03 -3.0645849963542633e+05 -3.5913775246416391e+06 
+1.0100000000000000e+01 -5.6450902198380148e-01 +7.7261407742477592e+00 -1.0162346891785806e-02 +1.7512880477616172e+01 -2.0180571107402584e+03 -3.1082468604923494e+05 -3.7309563841770911e+06 
