# multipoles
# s[mm] polynom_b[n=0][T/m^n] polynom_b[n=1][T/m^n] polynom_b[n=2][T/m^n] polynom_b[n=3][T/m^n] polynom_b[n=4][T/m^n] polynom_b[n=5][T/m^n] polynom_b[n=6][T/m^n] 
+0.0000000000000000e+00 -5.6632401000007049e-01 +7.7350076844771793e+00 -5.9981160128418187e-01 -6.0150720529716530e+01 +7.9682310811530606e+03 +1.6104787833797582e+05 -4.4362868240812875e+07 
-1.0000000000000001e-01 -5.6632398679711560e-01 +7.7349522286310259e+00 -6.0067046947276437e-01 -5.9210815635122195e+01 +7.9637687731446895e+03 +1.5755132427731046e+05 -4.4320659772435687e+07 
-2.0000000000000001e-01 -5.6632396816892772e-01 +7.7348929164114599e+00 -6.0105438248563436e-01 -5.8241912904698943e+01 +7.9502527976496494e+03 +1.5414143703191826e+05 -4.4229646886728980e+07 
-3.0000000000000004e-01 -5.6632395350614984e-01 +7.7348302636536692e+00 -6.0101264567330959e-01 -5.7248835449787727e+01 +7.9285926044358648e+03 +1.5081697464423827e+05 -4.4094204366914771e+07 
-4.0000000000000002e-01 -5.6632394219942950e-01 +7.7347647861845967e+00 -6.0059456237740627e-01 -5.6236406157452116e+01 +7.8996975958216199e+03 +1.4757669381829578e+05 -4.3918706758444980e+07 
-5.0000000000000000e-01 -5.6632393363938816e-01 +7.7346969998369453e+00 -5.9984943828823178e-01 -5.5209448089019581e+01 +7.8644772125326690e+03 +1.4441935221459283e+05 -4.3707528782169662e+07 
-5.9999999999999998e-01 -5.6632392721665814e-01 +7.7346274204428438e+00 -5.9882657755148161e-01 -5.4172784297259483e+01 +7.8238408610057668e+03 +1.4134370739348850e+05 -4.3465044986620754e+07 
-6.9999999999999996e-01 -5.6632392232187534e-01 +7.7345565638352731e+00 -5.9757528332218168e-01 -5.3131237874184286e+01 +7.7786979272835297e+03 +1.3834851712279528e+05 -4.3195629823667370e+07 
-7.9999999999999993e-01 -5.6632391834566587e-01 +7.7344849458507223e+00 -5.9614486030174640e-01 -5.2089632020683929e+01 +7.7299578272947083e+03 +1.3543253975167440e+05 -4.2903657887615286e+07 
-8.9999999999999991e-01 -5.6632391467868826e-01 +7.7344130823234440e+00 -5.9458460976372030e-01 -5.1052789881440113e+01 +7.6785299161344692e+03 +1.3259453327914188e+05 -4.2593503492175654e+07 
-9.9999999999999989e-01 -5.6632391071157573e-01 +7.7343414890912223e+00 -5.9294383639231096e-01 -5.0025534716634859e+01 +7.6253236149619052e+03 +1.2983325635065348e+05 -4.2269541263036609e+07 
-1.0999999999999999e+00 -5.6632390583499381e-01 +7.7342706819906537e+00 -5.9127184230084529e-01 -4.9012689761803031e+01 +7.5712483057788540e+03 +1.2714746744777396e+05 -4.1936145655522063e+07 
-1.2000000000000000e+00 -5.6632389943962569e-01 +7.7342011768686749e+00 -5.8961792910205524e-01 -4.8019078562640459e+01 +7.5172133727809169e+03 +1.2453592683651323e+05 -4.1597691155478284e+07 
-1.3000000000000000e+00 -5.6632389091613866e-01 +7.7341334895623177e+00 -5.8803140131187404e-01 -4.7049524383784565e+01 +7.4641282622946628e+03 +1.2199739313057238e+05 -4.1258552548407063e+07 
-1.4000000000000001e+00 -5.6632387965526110e-01 +7.7340681359189283e+00 -5.8656155889292572e-01 -4.6108850808313321e+01 +7.4129023544432830e+03 +1.1953062680536212e+05 -4.0923104340278521e+07 
-1.5000000000000002e+00 -5.6632386504769994e-01 +7.7340056317888886e+00 -5.8525770596548354e-01 -4.5201881511042252e+01 +7.3644451202458540e+03 +1.1713438884857546e+05 -4.0595721481937431e+07 
-1.6000000000000003e+00 -5.6632384648421596e-01 +7.7339464930164805e+00 -5.8416914323544888e-01 -4.4333440002553075e+01 +7.3196659868869465e+03 +1.1480743930304263e+05 -4.0280778746495925e+07 
-1.7000000000000004e+00 -5.6632382335556486e-01 +7.7338912354622398e+00 -5.8334517492776383e-01 -4.3508350278969353e+01 +7.2794744704767772e+03 +1.1254854104404458e+05 -3.9982651363730587e+07 
-1.8000000000000005e+00 -5.6632379505254138e-01 +7.7338403749779099e+00 -5.8283510331233546e-01 -4.2731436083764699e+01 +7.2447800693577974e+03 +1.1035645546485251e+05 -3.9705714499944612e+07 
-1.9000000000000006e+00 -5.6632376096598458e-01 +7.7337944274226054e+00 -5.8268822934616071e-01 -4.2007521401536259e+01 +7.2164922880522017e+03 +1.0822994542534892e+05 -3.9454343402512774e+07 
-2.0000000000000004e+00 -5.6632372048673740e-01 +7.7337539086612361e+00 -5.8295385730810800e-01 -4.1341430378048649e+01 +7.1955207198348207e+03 +1.0616777468571423e+05 -3.9232913773291819e+07 
-2.1000000000000005e+00 -5.6632367322539479e-01 +7.7337192386952447e+00 -5.8366489893027762e-01 -4.0737480070025796e+01 +7.1824685607623078e+03 +1.0417147259187851e+05 -3.9044452877441347e+07 
-2.2000000000000006e+00 -5.6632361967582656e-01 +7.7336904522121985e+00 -5.8478676996657031e-01 -4.0197889855413074e+01 +7.1766937373618985e+03 +1.0225343621380307e+05 -3.8886568597842224e+07 
-2.3000000000000007e+00 -5.6632356055382727e-01 +7.7336674871031779e+00 -5.8626752715633246e-01 -3.9724338627876925e+01 +7.1772378702156193e+03 +1.0042874239924741e+05 -3.8755507396601126e+07 
-2.4000000000000008e+00 -5.6632349657524594e-01 +7.7336502812515358e+00 -5.8805522192909276e-01 -3.9318505021802146e+01 +7.1831424928684355e+03 +9.8712466498077498e+04 -3.8647515352229565e+07 
-2.5000000000000009e+00 -5.6632342845592931e-01 +7.7336387725398144e+00 -5.9009790704113985e-01 -3.8982067617458398e+01 +7.1934491778521669e+03 +9.7119683569859713e+04 -3.8558838761893637e+07 
-2.6000000000000010e+00 -5.6632335691173852e-01 +7.7336328988496996e+00 -5.9234363446506122e-01 -3.8716704943095991e+01 +7.2071994929661469e+03 +9.5665468427302854e+04 -3.8485723920998827e+07 
-2.7000000000000011e+00 -5.6632328265856058e-01 +7.7336325980517957e+00 -5.9474045407974119e-01 -3.8524095155018088e+01 +7.2234349817815610e+03 +9.4364893721557630e+04 -3.8424417051182203e+07 
-2.8000000000000012e+00 -5.6632320641227818e-01 +7.7336378080135892e+00 -5.9723641666976979e-01 -3.8405916282100399e+01 +7.2411972136361483e+03 +9.3233031420965417e+04 -3.8371164516792901e+07 
-2.9000000000000012e+00 -5.6632312888879976e-01 +7.7336484666033849e+00 -5.9977957110488467e-01 -3.8363846328440864e+01 +7.2595277365756028e+03 +9.2284953381093612e+04 -3.8322212620787986e+07 
-3.0000000000000013e+00 -5.6632305080406931e-01 +7.7336645116754568e+00 -6.0231796179713748e-01 -3.8399562834209149e+01 +7.2774680217751220e+03 +9.1535728787487984e+04 -3.8273807322381169e+07 
-3.1000000000000014e+00 -5.6632297287400513e-01 +7.7336858810807101e+00 -6.0479963761144628e-01 -3.8514743202523839e+01 +7.2940596403220043e+03 +9.1000426119436495e+04 -3.8222195098779202e+07 
-3.2000000000000015e+00 -5.6632289581458284e-01 +7.7337125126644697e+00 -6.0717264040334351e-01 -3.8711064598642444e+01 +7.3083440404272733e+03 +9.0694112469270854e+04 -3.8163621873682268e+07 
-3.3000000000000016e+00 -5.6632282034176573e-01 +7.7337443442593186e+00 -6.0938501369582854e-01 -3.8990203766153741e+01 +7.3193627107343436e+03 +9.0631852566634087e+04 -3.8094333790625699e+07 
-3.4000000000000017e+00 -5.6632274717155584e-01 +7.7337813136981168e+00 -6.1138479747160879e-01 -3.9353837383417257e+01 +7.3261570902108651e+03 +9.0828710790831465e+04 -3.8010576808989927e+07 
-3.5000000000000018e+00 -5.6632267701992500e-01 +7.7338233587980154e+00 -6.1312003451625674e-01 -3.9803641609410562e+01 +7.3277686748597553e+03 +9.1299748581855878e+04 -3.7908597176801652e+07 
-3.6000000000000019e+00 -5.6632261060292954e-01 +7.7338704173662052e+00 -6.1453875780360201e-01 -4.0341292235156750e+01 +7.3232387884753507e+03 +9.2060025286339034e+04 -3.7784640368608579e+07 
-3.7000000000000020e+00 -5.6632254863658549e-01 +7.7339224272094453e+00 -6.1558900558173724e-01 -4.0968464964296523e+01 +7.3116088660963533e+03 +9.3124599817502036e+04 -3.7634952425480269e+07 
-3.8000000000000020e+00 -5.6632249183693451e-01 +7.7339793261120615e+00 -6.1621881243862242e-01 -4.1686834762507253e+01 +7.2919202828805292e+03 +9.4508526852296549e+04 -3.7455779141204260e+07 
-3.9000000000000021e+00 -5.6632244092004580e-01 +7.7340410518556926e+00 -6.1637620952721250e-01 -4.2498076441563242e+01 +7.2632143583223497e+03 +9.6226860266023679e+04 -3.7243366080677979e+07 
-4.0000000000000018e+00 -5.6632239660200490e-01 +7.7341075422105883e+00 -6.1600922589406104e-01 -4.3403864387809072e+01 +7.2245323833043931e+03 +9.8294651564889966e+04 -3.6993958711640738e+07 
-4.1000000000000014e+00 -5.6632235948008092e-01 +7.7341786052580392e+00 -6.1508763734761596e-01 -4.4403095775833783e+01 +7.1753382785798885e+03 +1.0071598193841297e+05 -3.6705526025082149e+07 
-4.2000000000000011e+00 -5.6632232967452756e-01 +7.7342535392807434e+00 -6.1366496453792219e-01 -4.5483719481188650e+01 +7.1167166186685481e+03 +1.0345079529763493e+05 -3.6382656842468143e+07 
-4.3000000000000007e+00 -5.6632230718563981e-01 +7.7343315172117713e+00 -6.1181490068073030e-01 -4.6630984977042679e+01 +7.0501405551118596e+03 +1.0644794074164605e+05 -3.6031528967692770e+07 
-4.4000000000000004e+00 -5.6632229201368345e-01 +7.7344117119962910e+00 -6.0961113755209995e-01 -4.7830142192787491e+01 +6.9770831618375332e+03 +1.0965627014957844e+05 -3.5658319730093420e+07 
-4.5000000000000000e+00 -5.6632228415881769e-01 +7.7344932965839028e+00 -6.0712737444870801e-01 -4.9066441267742732e+01 +6.8990176027794814e+03 +1.1302463667519507e+05 -3.5269206779840223e+07 
-4.5999999999999996e+00 -5.6632228362112547e-01 +7.7345754439383816e+00 -6.0443731485107222e-01 -5.0325132867806815e+01 +6.8174170699907936e+03 +1.1650189666394728e+05 -3.4870367797899947e+07 
-4.6999999999999993e+00 -5.6632229040064175e-01 +7.7346573270279606e+00 -6.0161466249572348e-01 -5.1591467898621687e+01 +6.7337547035612279e+03 +1.2003690795501195e+05 -3.4467980102138802e+07 
-4.7999999999999989e+00 -5.6632230449729060e-01 +7.7347381188302808e+00 -5.9873312812720569e-01 -5.2850697644713982e+01 +6.6495037132276420e+03 +1.2357853066379657e+05 -3.4068221210751481e+07 
-4.8999999999999986e+00 -5.6632232591089338e-01 +7.7348169923416812e+00 -5.9586642876225371e-01 -5.4088074075839735e+01 +6.5661373656073247e+03 +1.2707562904810131e+05 -3.3677268787842840e+07 
-4.9999999999999982e+00 -5.6632235464121461e-01 +7.7348931205604057e+00 -5.9308828169755845e-01 -5.5288849334217552e+01 +6.4851288638033066e+03 +1.3047706844316264e+05 -3.3301300051041164e+07 
-5.0999999999999979e+00 -5.6632239068786527e-01 +7.7349656765035970e+00 -5.9047241569966546e-01 -5.6438276259745123e+01 +6.4079515579708304e+03 +1.3373171838204167e+05 -3.2946492774556566e+07 
-5.1999999999999975e+00 -5.6632243405039451e-01 +7.7350338331990827e+00 -5.8809255992037235e-01 -5.7521608139738113e+01 +6.3360787325304818e+03 +1.3678845109791955e+05 -3.2619024269912105e+07 
-5.2999999999999972e+00 -5.6632248472822944e-01 +7.7350967636851271e+00 -5.8602245032945144e-01 -5.8524098722380799e+01 +6.2709837232742821e+03 +1.3959614164016239e+05 -3.2325071932916723e+07 
-5.3999999999999968e+00 -5.6632254272067883e-01 +7.7351536410202701e+00 -5.8433582972787623e-01 -5.9431002500135278e+01 +6.2141399148780411e+03 +1.4210366950064161e+05 -3.2070813224974431e+07 
-5.4999999999999964e+00 -5.6632260802692924e-01 +7.7352036382709937e+00 -5.8310644706335468e-01 -6.0227574361554133e+01 +6.1670207237352060e+03 +1.4425991660273541e+05 -3.1862425583058730e+07 
-5.5999999999999961e+00 -5.6632268064604574e-01 +7.7352459285277924e+00 -5.8240805753399971e-01 -6.0899070074070337e+01 +6.1310995980122689e+03 +1.4601377013879502e+05 -3.1706086417466462e+07 
-5.6999999999999957e+00 -5.6632276057698228e-01 +7.7352796848863514e+00 -5.8231442109717024e-01 -6.1430745727016294e+01 +6.1078499865140166e+03 +1.4731411927762884e+05 -3.1607972956525546e+07 
-5.7999999999999954e+00 -5.6632284781852149e-01 +7.7353040804680004e+00 -5.8289930922159305e-01 -6.1807858348372072e+01 +6.0987454619332711e+03 +1.4810985881128479e+05 -3.1574262822627842e+07 
-5.8999999999999950e+00 -5.6632294236934511e-01 +7.7353182884074387e+00 -5.8423649594346294e-01 -6.2015665537194046e+01 +6.1052595483202776e+03 +1.4834988695754579e+05 -3.1611133206144620e+07 
-5.9999999999999947e+00 -5.6632304422798430e-01 +7.7353214818589393e+00 -5.8639976312948472e-01 -6.2039425640885142e+01 +6.1288658169868559e+03 +1.4798310624195772e+05 -3.1724761328279074e+07 
-6.0999999999999943e+00 -5.6632315338738326e-01 +7.7353131577925947e+00 -5.8942648563851063e-01 -6.1870156719860908e+01 +6.1703591702428421e+03 +1.4697919968707362e+05 -3.1918482909768850e+07 
-6.1999999999999940e+00 -5.6632326982409587e-01 +7.7352940786336024e+00 -5.9322064404451158e-01 -6.1521534680861933e+01 +6.2280366551947927e+03 +1.4539074671081570e+05 -3.2185035807881877e+07 
-6.2999999999999936e+00 -5.6632339351249450e-01 +7.7352653162399534e+00 -5.9765579579573214e-01 -6.1012805225550906e+01 +6.2996228617416400e+03 +1.4329091536160783e+05 -3.2514693284042343e+07 
-6.3999999999999932e+00 -5.6632352442705880e-01 +7.7352279424430899e+00 -6.0260549190473045e-01 -6.0363213182564266e+01 +6.3828423212655152e+03 +1.4075286848515263e+05 -3.2897728446809351e+07 
-6.4999999999999929e+00 -5.6632366254240574e-01 +7.7351830290497965e+00 -6.0794327431922568e-01 -5.9592002575626523e+01 +6.4754194636176644e+03 +1.3784976422576202e+05 -3.3324414067342330e+07 
-6.5999999999999925e+00 -5.6632380783329295e-01 +7.7351316478463712e+00 -6.1354267594632139e-01 -5.8718416726648961e+01 +6.5750786212902321e+03 +1.3465475657845888e+05 -3.3785022607059367e+07 
-6.6999999999999922e+00 -5.6632396027464527e-01 +7.7350748705884946e+00 -6.1927721657418033e-01 -5.7761697967428105e+01 +6.6795439511022296e+03 +1.3124099374673711e+05 -3.4269825842527650e+07 
-6.7999999999999918e+00 -5.6632411984153996e-01 +7.7350137690060974e+00 -6.2502040697231287e-01 -5.6741087766503625e+01 +6.7865395225580041e+03 +1.2768161884522013e+05 -3.4769095308083691e+07 
-6.8999999999999915e+00 -5.6632428650920186e-01 +7.7349494148055147e+00 -6.3064574825716735e-01 -5.5675826793205303e+01 +6.8937893034746303e+03 +1.2404977029579262e+05 -3.5273102221973144e+07 
-6.9999999999999911e+00 -5.6632446025305005e-01 +7.7348828796554230e+00 -6.3602672750457945e-01 -5.4585154500815136e+01 +6.9990170841399022e+03 +1.2041857937822895e+05 -3.5772117141808465e+07 
-7.0999999999999908e+00 -5.6632464104866420e-01 +7.7348152352003314e+00 -6.4103682175049892e-01 -5.3488309513221765e+01 +7.0999465553412883e+03 +1.1686117248260223e+05 -3.6256410339708142e+07 
-7.1999999999999904e+00 -5.6632482887180924e-01 +7.7347475530530865e+00 -6.4554949575621612e-01 -5.2404529404072761e+01 +7.1943012694614272e+03 +1.1345066982611576e+05 -3.6716251623647928e+07 
-7.2999999999999901e+00 -5.6632502369844084e-01 +7.7346809047942244e+00 -6.4943820140603226e-01 -5.1353050669579901e+01 +7.2798046323211547e+03 +1.1026018528010679e+05 -3.7141910304910116e+07 
-7.3999999999999897e+00 -5.6632522550472386e-01 +7.7346163619684294e+00 -6.5257637587849116e-01 -5.0353108625145097e+01 +7.3541798735785005e+03 +1.0736282577866472e+05 -3.7523655070714936e+07 
-7.4999999999999893e+00 -5.6632543426700899e-01 +7.7345549960896083e+00 -6.5483744496366048e-01 -4.9423937538036100e+01 +7.4151501105486914e+03 +1.0483169206083672e+05 -3.7851754284851022e+07 
-7.5999999999999890e+00 -5.6632564996186829e-01 +7.7344978786340528e+00 -6.5609481925243385e-01 -4.8584770434174885e+01 +7.4604382830481545e+03 +1.0273987757531778e+05 -3.8116475696463674e+07 
-7.6999999999999886e+00 -5.6632587256608091e-01 +7.7344460810415381e+00 -6.5622189602346337e-01 -4.7854839118833311e+01 +7.4877671906185005e+03 +1.0116046857003780e+05 -3.8308086619109124e+07 
-7.7999999999999883e+00 -5.6632610205665967e-01 +7.7344006747169205e+00 -6.5509205635573775e-01 -4.7253374223223680e+01 +7.4948594398856003e+03 +1.0016654438605436e+05 -3.8416853681518853e+07 
-7.8999999999999879e+00 -5.6632633841084745e-01 +7.7343627310261134e+00 -6.5257866615108873e-01 -4.6799605074419880e+01 +7.4794374716588754e+03 +9.9831176669133667e+04 -3.8433042977888815e+07 
-7.9999999999999876e+00 -5.6632658160610450e-01 +7.7343333212921941e+00 -6.4855507846944160e-01 -4.6512759656432905e+01 +7.4392235990373592e+03 +1.0022742941901140e+05 -3.8346920213095970e+07 
-8.0999999999999872e+00 -5.6632683157563202e-01 +7.7343132391377427e+00 -6.4293836091809620e-01 -4.6407158999627974e+01 +7.3726605665765765e+03 +1.0140894926343854e+05 -3.8151671243719205e+07 
-8.1999999999999869e+00 -5.6632708805167253e-01 +7.7343022055396711e+00 -6.3580895211339072e-01 -4.6477676574088598e+01 +7.2808744347818701e+03 +1.0335070759972233e+05 -3.7851430245664164e+07 
-8.2999999999999865e+00 -5.6632735070961993e-01 +7.7342996821234138e+00 -6.2728548417125607e-01 -4.6714366792908471e+01 +7.1656152076321905e+03 +1.0600782305650365e+05 -3.7452893266938835e+07 
-8.3999999999999861e+00 -5.6632761922475960e-01 +7.7343051305503776e+00 -6.1748659865526179e-01 -4.7107285068686913e+01 +7.0286330440846050e+03 +1.0933541979207526e+05 -3.6962757058946259e+07 
-8.4999999999999858e+00 -5.6632789327228650e-01 +7.7343180125088731e+00 -6.0653094456060364e-01 -4.7646487539644617e+01 +6.8716782233238500e+03 +1.1328862576219694e+05 -3.6387718911460347e+07 
-8.5999999999999854e+00 -5.6632817252728984e-01 +7.7343377897280954e+00 -5.9453718014704193e-01 -4.8322031472653123e+01 +6.6965011781707453e+03 +1.1782257502633511e+05 -3.5734476808688633e+07 
-8.6999999999999851e+00 -5.6632845666475518e-01 +7.7343639239683810e+00 -5.8162397201923477e-01 -4.9123974988675137e+01 +6.5048524737611606e+03 +1.2289240617876046e+05 -3.5009729318536736e+07 
-8.7999999999999847e+00 -5.6632874535957711e-01 +7.7343958770309724e+00 -5.6790999392078234e-01 -5.0042377337003913e+01 +6.2984827871256639e+03 +1.2845326390067519e+05 -3.4220175502710685e+07 
-8.8999999999999844e+00 -5.6632903828650361e-01 +7.7344331107505457e+00 -5.5351393325072817e-01 -5.1067298678133739e+01 +6.0791430272622702e+03 +1.3446029768954663e+05 -3.3372515478677485e+07 
-8.9999999999999840e+00 -5.6632933512020656e-01 +7.7344750870007850e+00 -5.3855448219144031e-01 -5.2188800247507380e+01 +5.8485841667627792e+03 +1.4086866281161227e+05 -3.2473449619935431e+07 
-9.0999999999999837e+00 -5.6632963553521154e-01 +7.7345212677036317e+00 -5.2315034617300249e-01 -5.3396944622761808e+01 +5.6085574015213015e+03 +1.4763352182745116e+05 -3.1529679314828716e+07 
-9.1999999999999833e+00 -5.6632993920593377e-01 +7.7345711148106533e+00 -5.0742023927089064e-01 -5.4681795175468267e+01 +5.3608140609533921e+03 +1.5471004139159562e+05 -3.0547906532978684e+07 
-9.2999999999999829e+00 -5.6633024580665381e-01 +7.7346240903286594e+00 -4.9148288726622197e-01 -5.6033416825208555e+01 +5.1071056679340600e+03 +1.6205339664485899e+05 -2.9534834116600007e+07 
-9.3999999999999826e+00 -5.6633055501152696e-01 +7.7346796562976081e+00 -4.7545702574590598e-01 -5.7441875385966789e+01 +4.8491838960404921e+03 +1.6961876737721317e+05 -2.8497165559780072e+07 
-9.4999999999999822e+00 -5.6633086649458431e-01 +7.7347372748112182e+00 -4.5946140086515935e-01 -5.8897238172743563e+01 +4.5888005914297546e+03 +1.7736134156645168e+05 -2.7441605132955465e+07 
-9.5999999999999819e+00 -5.6633117992968274e-01 +7.7347964080031506e+00 -4.4361477403278554e-01 -6.0389573587833077e+01 +4.3277078513322604e+03 +1.8523631291806133e+05 -2.6374858230399702e+07 
-9.6999999999999815e+00 -5.6633149499057533e-01 +7.7348565180575521e+00 -4.2803591442260208e-01 -6.1908951439581578e+01 +4.0676578895021853e+03 +1.9319888276011319e+05 -2.5303630749728635e+07 
-9.7999999999999812e+00 -5.6633181135085187e-01 +7.7349170672082161e+00 -4.1284360492901523e-01 -6.3445442903885429e+01 +3.8104031416703369e+03 +2.0120425975873569e+05 -2.4234629576467846e+07 
-9.8999999999999808e+00 -5.6633212868395777e-01 +7.7349775177383853e+00 -3.9815664046122123e-01 -6.4989120533640673e+01 +3.5576962345535057e+03 +2.0920766001519246e+05 -2.3174562438162178e+07 
-9.9999999999999805e+00 -5.6633244666317073e-01 +7.7350373319767964e+00 -3.8409383041640016e-01 -6.6530058033637204e+01 +3.3112900448278037e+03 +2.1716430583314589e+05 -2.2130138195005246e+07 
-1.0099999999999980e+01 -5.6633276501924257e-01 +7.7350959909566885e+00 -3.7076081436676983e-01 -6.8057798748765876e+01 +3.0728625804995118e+03 +2.2502582592584868e+05 -2.1108120251960855e+07 
