# trajectory
# s[mm] rx[mm] ry[mm] rz[mm] px[rad] py[rad] pz[rad]
0.0000000000000000e+00 +8.1649999999999991e+00 +0.0000000000000000e+00 +0.0000000000000000e+00 +0.0000000000000000e+00 +0.0000000000000000e+00 +1.0000000000000000e+00
1.0000000000000001e-01 +8.1649997165798194e+00 +0.0000000000000000e+00 +9.9999999999464489e-02 -5.6684029880614040e-06 +0.0000000000000000e+00 +9.9999999998393463e-01
2.0000000000000001e-01 +8.1649988663195199e+00 +0.0000000000000000e+00 +1.9999999999571588e-01 -1.1336802399142125e-05 +0.0000000000000000e+00 +9.9999999993573851e-01
3.0000000000000004e-01 +8.1649974492194577e+00 +0.0000000000000000e+00 +2.9999999998554117e-01 -1.7005198256457743e-05 +0.0000000000000000e+00 +9.9999999985541166e-01
4.0000000000000002e-01 +8.1649954652799863e+00 +0.0000000000000000e+00 +3.9999999996572722e-01 -2.2673590595424296e-05 +0.0000000000000000e+00 +9.9999999974295417e-01
5.0000000000000000e-01 +8.1649929145014539e+00 +0.0000000000000000e+00 +4.9999999993306099e-01 -2.8341979463658242e-05 +0.0000000000000000e+00 +9.9999999959836616e-01
5.9999999999999998e-01 +8.1649897968842069e+00 +0.0000000000000000e+00 +5.9999999988432939e-01 -3.4010364920976420e-05 +0.0000000000000000e+00 +9.9999999942164763e-01
6.9999999999999996e-01 +8.1649861124285810e+00 +0.0000000000000000e+00 +6.9999999981631944e-01 -3.9678747039395982e-05 +0.0000000000000000e+00 +9.9999999921279858e-01
7.9999999999999993e-01 +8.1649818611349065e+00 +0.0000000000000000e+00 +7.9999999972581803e-01 -4.5347125903134352e-05 +0.0000000000000000e+00 +9.9999999897181913e-01
8.9999999999999991e-01 +8.1649770430035051e+00 +0.0000000000000000e+00 +8.9999999960961219e-01 -5.1015501608609099e-05 +0.0000000000000000e+00 +9.9999999869870937e-01
9.9999999999999989e-01 +8.1649716580346858e+00 +0.0000000000000000e+00 +9.9999999946448881e-01 -5.6683874264437882e-05 +0.0000000000000000e+00 +9.9999999839346931e-01
1.0999999999999999e+00 +8.1649657062287488e+00 +0.0000000000000000e+00 +1.0999999992872349e+00 -6.2352243991438302e-05 +0.0000000000000000e+00 +9.9999999805609896e-01
1.2000000000000000e+00 +8.1649591875859802e+00 +0.0000000000000000e+00 +1.1999999990746375e+00 -6.8020610922627824e-05 +0.0000000000000000e+00 +9.9999999768659842e-01
1.3000000000000000e+00 +8.1649521021066516e+00 +0.0000000000000000e+00 +1.2999999988234836e+00 -7.3688975203223584e-05 +0.0000000000000000e+00 +9.9999999728496769e-01
1.4000000000000001e+00 +8.1649444497910224e+00 +0.0000000000000000e+00 +1.3999999985305600e+00 -7.9357336990642266e-05 +0.0000000000000000e+00 +9.9999999685120677e-01
1.5000000000000002e+00 +8.1649362306393307e+00 +0.0000000000000000e+00 +1.4999999981926539e+00 -8.5025696454499967e-05 +0.0000000000000000e+00 +9.9999999638531567e-01
1.6000000000000003e+00 +8.1649274446518021e+00 +0.0000000000000000e+00 +1.5999999978065522e+00 -9.0694053776611944e-05 +0.0000000000000000e+00 +9.9999999588729449e-01
1.7000000000000004e+00 +8.1649180918286408e+00 +0.0000000000000000e+00 +1.6999999973690418e+00 -9.6362409150992515e-05 +0.0000000000000000e+00 +9.9999999535714323e-01
1.8000000000000005e+00 +8.1649081721700298e+00 +0.0000000000000000e+00 +1.7999999968769098e+00 -1.0203076278385477e-04 +0.0000000000000000e+00 +9.9999999479486190e-01
1.9000000000000006e+00 +8.1648976856761344e+00 +0.0000000000000000e+00 +1.8999999963269432e+00 -1.0769911489361040e-04 +0.0000000000000000e+00 +9.9999999420045049e-01
2.0000000000000004e+00 +8.1648866323470948e+00 +0.0000000000000000e+00 +1.9999999957159289e+00 -1.1336746571086946e-04 +0.0000000000000000e+00 +9.9999999357390901e-01
2.1000000000000005e+00 +8.1648750121830282e+00 +0.0000000000000000e+00 +2.0999999950406538e+00 -1.1903581547730789e-04 +0.0000000000000000e+00 +9.9999999291523745e-01
2.2000000000000006e+00 +8.1648628251840272e+00 +0.0000000000000000e+00 +2.1999999942979054e+00 -1.2470416443321266e-04 +0.0000000000000000e+00 +9.9999999222443581e-01
2.3000000000000007e+00 +8.1648500713501608e+00 +0.0000000000000000e+00 +2.2999999934844699e+00 -1.3037251280502706e-04 +0.0000000000000000e+00 +9.9999999150150409e-01
2.4000000000000008e+00 +8.1648367506814790e+00 +0.0000000000000000e+00 +2.3999999925971349e+00 -1.3604086080421847e-04 +0.0000000000000000e+00 +9.9999999074644219e-01
2.5000000000000009e+00 +8.1648228631780064e+00 +0.0000000000000000e+00 +2.4999999916326874e+00 -1.4170920862727822e-04 +0.0000000000000000e+00 +9.9999998995925021e-01
2.6000000000000010e+00 +8.1648084088397539e+00 +0.0000000000000000e+00 +2.5999999905879139e+00 -1.4737755645572175e-04 +0.0000000000000000e+00 +9.9999998913992805e-01
2.7000000000000011e+00 +8.1647933876667107e+00 +0.0000000000000000e+00 +2.6999999894596018e+00 -1.5304590445608840e-04 +0.0000000000000000e+00 +9.9999998828847569e-01
2.8000000000000012e+00 +8.1647777996588520e+00 +0.0000000000000000e+00 +2.7999999882445379e+00 -1.5871425277994158e-04 +0.0000000000000000e+00 +9.9999998740489315e-01
2.9000000000000012e+00 +8.1647616448161386e+00 +0.0000000000000000e+00 +2.8999999869395094e+00 -1.6438260156386870e-04 +0.0000000000000000e+00 +9.9999998648918031e-01
3.0000000000000013e+00 +8.1647449231385192e+00 +0.0000000000000000e+00 +2.9999999855413031e+00 -1.7005095092948130e-04 +0.0000000000000000e+00 +9.9999998554133718e-01
3.1000000000000014e+00 +8.1647276346259297e+00 +0.0000000000000000e+00 +3.0999999840467058e+00 -1.7571930098341499e-04 +0.0000000000000000e+00 +9.9999998456136374e-01
3.2000000000000015e+00 +8.1647097792782972e+00 +0.0000000000000000e+00 +3.1999999824525047e+00 -1.8138765181732953e-04 +0.0000000000000000e+00 +9.9999998354926001e-01
3.3000000000000016e+00 +8.1646913570955384e+00 +0.0000000000000000e+00 +3.2999999807554867e+00 -1.8705600350790898e-04 +0.0000000000000000e+00 +9.9999998250502586e-01
3.4000000000000017e+00 +8.1646723680775644e+00 +0.0000000000000000e+00 +3.3999999789524389e+00 -1.9272435611686166e-04 +0.0000000000000000e+00 +9.9999998142866131e-01
3.5000000000000018e+00 +8.1646528122242827e+00 +0.0000000000000000e+00 +3.4999999770401482e+00 -1.9839270969092038e-04 +0.0000000000000000e+00 +9.9999998032016635e-01
3.6000000000000019e+00 +8.1646326895355941e+00 +0.0000000000000000e+00 +3.5999999750154013e+00 -2.0406106426184244e-04 +0.0000000000000000e+00 +9.9999997917954098e-01
3.7000000000000020e+00 +8.1646120000113971e+00 +0.0000000000000000e+00 +3.6999999728749855e+00 -2.0972941984640981e-04 +0.0000000000000000e+00 +9.9999997800678520e-01
3.8000000000000020e+00 +8.1645907436515905e+00 +0.0000000000000000e+00 +3.7999999706156875e+00 -2.1539777644642919e-04 +0.0000000000000000e+00 +9.9999997680189889e-01
3.9000000000000021e+00 +8.1645689204560732e+00 +0.0000000000000000e+00 +3.8999999682342943e+00 -2.2106613404873225e-04 +0.0000000000000000e+00 +9.9999997556488207e-01
4.0000000000000018e+00 +8.1645465304247473e+00 +0.0000000000000000e+00 +3.9999999657275929e+00 -2.2673449262517576e-04 +0.0000000000000000e+00 +9.9999997429573473e-01
4.1000000000000014e+00 +8.1645235735575170e+00 +0.0000000000000000e+00 +4.0999999630923698e+00 -2.3240285213331347e-04 +0.0000000000000000e+00 +9.9999997299445698e-01
4.2000000000000011e+00 +8.1645000498542917e+00 +0.0000000000000000e+00 +4.1999999603254130e+00 -2.3807121252378594e-04 +0.0000000000000000e+00 +9.9999997166104870e-01
4.3000000000000007e+00 +8.1644759593149843e+00 +0.0000000000000000e+00 +4.2999999574235090e+00 -2.4373957374771032e-04 +0.0000000000000000e+00 +9.9999997029550991e-01
4.4000000000000004e+00 +8.1644513019395148e+00 +0.0000000000000000e+00 +4.3999999543834445e+00 -2.4940793575735229e-04 +0.0000000000000000e+00 +9.9999996889784060e-01
4.5000000000000000e+00 +8.1644260777278070e+00 +0.0000000000000000e+00 +4.4999999512020059e+00 -2.5507629850612631e-04 +0.0000000000000000e+00 +9.9999996746804076e-01
4.5999999999999996e+00 +8.1644002866797898e+00 +0.0000000000000000e+00 +4.5999999478759817e+00 -2.6074466194859580e-04 +0.0000000000000000e+00 +9.9999996600611041e-01
4.6999999999999993e+00 +8.1643739287953956e+00 +0.0000000000000000e+00 +4.6999999444021574e+00 -2.6641302604047355e-04 +0.0000000000000000e+00 +9.9999996451204953e-01
4.7999999999999989e+00 +8.1643470040745623e+00 +0.0000000000000000e+00 +4.7999999407773206e+00 -2.7208139073862177e-04 +0.0000000000000000e+00 +9.9999996298585814e-01
4.8999999999999986e+00 +8.1643195125172294e+00 +0.0000000000000000e+00 +4.8999999369982579e+00 -2.7774975600105244e-04 +0.0000000000000000e+00 +9.9999996142753622e-01
4.9999999999999982e+00 +8.1642914541233438e+00 +0.0000000000000000e+00 +4.9999999330617566e+00 -2.8341812178692762e-04 +0.0000000000000000e+00 +9.9999995983708378e-01
5.0999999999999979e+00 +8.1642628288928556e+00 +0.0000000000000000e+00 +5.0999999289646034e+00 -2.8908648805655972e-04 +0.0000000000000000e+00 +9.9999995821450083e-01
5.1999999999999975e+00 +8.1642336368257169e+00 +0.0000000000000000e+00 +5.1999999247035857e+00 -2.9475485477141184e-04 +0.0000000000000000e+00 +9.9999995655978735e-01
5.2999999999999972e+00 +8.1642038779218868e+00 +0.0000000000000000e+00 +5.2999999202754902e+00 -3.0042322189409801e-04 +0.0000000000000000e+00 +9.9999995487294335e-01
5.3999999999999968e+00 +8.1641735521813263e+00 +0.0000000000000000e+00 +5.3999999156771032e+00 -3.0609158938838356e-04 +0.0000000000000000e+00 +9.9999995315396883e-01
5.4999999999999964e+00 +8.1641426596039981e+00 +0.0000000000000000e+00 +5.4999999109052125e+00 -3.1175995721918553e-04 +0.0000000000000000e+00 +9.9999995140286380e-01
5.5999999999999961e+00 +8.1641112001898719e+00 +0.0000000000000000e+00 +5.5999999059566052e+00 -3.1742832535257292e-04 +0.0000000000000000e+00 +9.9999994961962835e-01
5.6999999999999957e+00 +8.1640791739389194e+00 +0.0000000000000000e+00 +5.6999999008280673e+00 -3.2309669375576707e-04 +0.0000000000000000e+00 +9.9999994780426238e-01
5.7999999999999954e+00 +8.1640465808511138e+00 +0.0000000000000000e+00 +5.7999998955163861e+00 -3.2876506239714215e-04 +0.0000000000000000e+00 +9.9999994595676589e-01
5.8999999999999950e+00 +8.1640134209264339e+00 +0.0000000000000000e+00 +5.8999998900183490e+00 -3.3443343124622550e-04 +0.0000000000000000e+00 +9.9999994407713899e-01
5.9999999999999947e+00 +8.1639796941648601e+00 +0.0000000000000000e+00 +5.9999998843307427e+00 -3.4010180027369788e-04 +0.0000000000000000e+00 +9.9999994216538157e-01
6.0999999999999943e+00 +8.1639454005663747e+00 +0.0000000000000000e+00 +6.0999998784503546e+00 -3.4577016945138475e-04 +0.0000000000000000e+00 +9.9999994022149374e-01
6.1999999999999940e+00 +8.1639105401309653e+00 +0.0000000000000000e+00 +6.1999998723739704e+00 -3.5143853875215360e-04 +0.0000000000000000e+00 +9.9999993824547539e-01
6.2999999999999936e+00 +8.1638751128586211e+00 +0.0000000000000000e+00 +6.2999998660983785e+00 -3.5710690814981099e-04 +0.0000000000000000e+00 +9.9999993623732664e-01
6.3999999999999932e+00 +8.1638391187493333e+00 +0.0000000000000000e+00 +6.3999998596203653e+00 -3.6277527761909299e-04 +0.0000000000000000e+00 +9.9999993419704736e-01
6.4999999999999929e+00 +8.1638025578030966e+00 +0.0000000000000000e+00 +6.4999998529367176e+00 -3.6844364713566508e-04 +0.0000000000000000e+00 +9.9999993212463767e-01
6.5999999999999925e+00 +8.1637654300199056e+00 +0.0000000000000000e+00 +6.5999998460442217e+00 -3.7411201667612165e-04 +0.0000000000000000e+00 +9.9999993002009757e-01
6.6999999999999922e+00 +8.1637277353997604e+00 +0.0000000000000000e+00 +6.6999998389396653e+00 -3.7978038621798606e-04 +0.0000000000000000e+00 +9.9999992788342706e-01
6.7999999999999918e+00 +8.1636894739426626e+00 +0.0000000000000000e+00 +6.7999998316198358e+00 -3.8544875573971016e-04 +0.0000000000000000e+00 +9.9999992571462615e-01
6.8999999999999915e+00 +8.1636506456486142e+00 +0.0000000000000000e+00 +6.8999998240815197e+00 -3.9111712522067418e-04 +0.0000000000000000e+00 +9.9999992351369482e-01
6.9999999999999911e+00 +8.1636112505176204e+00 +0.0000000000000000e+00 +6.9999998163215036e+00 -3.9678549464118633e-04 +0.0000000000000000e+00 +9.9999992128063309e-01
7.0999999999999908e+00 +8.1635712885496883e+00 +0.0000000000000000e+00 +7.0999998083365750e+00 -4.0245386398248244e-04 +0.0000000000000000e+00 +9.9999991901544094e-01
7.1999999999999904e+00 +8.1635307597448268e+00 +0.0000000000000000e+00 +7.1999998001235204e+00 -4.0812223322672588e-04 +0.0000000000000000e+00 +9.9999991671811850e-01
7.2999999999999901e+00 +8.1634896641030466e+00 +0.0000000000000000e+00 +7.2999997916791273e+00 -4.1379060235700697e-04 +0.0000000000000000e+00 +9.9999991438866564e-01
7.3999999999999897e+00 +8.1634480016243600e+00 +0.0000000000000000e+00 +7.3999997830001822e+00 -4.1945897135734281e-04 +0.0000000000000000e+00 +9.9999991202708238e-01
7.4999999999999893e+00 +8.1634057723087796e+00 +0.0000000000000000e+00 +7.4999997740834727e+00 -4.2512734021267685e-04 +0.0000000000000000e+00 +9.9999990963336882e-01
7.5999999999999890e+00 +8.1633629761563213e+00 +0.0000000000000000e+00 +7.5999997649257853e+00 -4.3079570890887852e-04 +0.0000000000000000e+00 +9.9999990720752485e-01
7.6999999999999886e+00 +8.1633196131670029e+00 +0.0000000000000000e+00 +7.6999997555239066e+00 -4.3646407743274296e-04 +0.0000000000000000e+00 +9.9999990474955058e-01
7.7999999999999883e+00 +8.1632756833408404e+00 +0.0000000000000000e+00 +7.7999997458746240e+00 -4.4213244577199048e-04 +0.0000000000000000e+00 +9.9999990225944602e-01
7.8999999999999879e+00 +8.1632311866778551e+00 +0.0000000000000000e+00 +7.8999997359747249e+00 -4.4780081391526617e-04 +0.0000000000000000e+00 +9.9999989973721115e-01
7.9999999999999876e+00 +8.1631861231780647e+00 +0.0000000000000000e+00 +7.9999997258209952e+00 -4.5346918185213959e-04 +0.0000000000000000e+00 +9.9999989718284588e-01
8.0999999999999872e+00 +8.1631404928414923e+00 +0.0000000000000000e+00 +8.0999997154102221e+00 -4.5913754957362991e-04 +0.0000000000000000e+00 +9.9999989459635030e-01
8.1999999999999869e+00 +8.1630942956681576e+00 +0.0000000000000000e+00 +8.1999997047391933e+00 -4.6480591707798879e-04 +0.0000000000000000e+00 +9.9999989197772443e-01
8.2999999999999865e+00 +8.1630475316580835e+00 +0.0000000000000000e+00 +8.2999996938046952e+00 -4.7047428437648300e-04 +0.0000000000000000e+00 +9.9999988932696826e-01
8.3999999999999861e+00 +8.1630002008112879e+00 +0.0000000000000000e+00 +8.3999996826035161e+00 -4.7614265149391972e-04 +0.0000000000000000e+00 +9.9999988664408179e-01
8.4999999999999858e+00 +8.1629523031277884e+00 +0.0000000000000000e+00 +8.4999996711324410e+00 -4.8181101846864622e-04 +0.0000000000000000e+00 +9.9999988392906503e-01
8.5999999999999854e+00 +8.1629038386075976e+00 +0.0000000000000000e+00 +8.5999996593882582e+00 -4.8747938535254921e-04 +0.0000000000000000e+00 +9.9999988118191785e-01
8.6999999999999851e+00 +8.1628548072507190e+00 +0.0000000000000000e+00 +8.6999996473677541e+00 -4.9314775221105450e-04 +0.0000000000000000e+00 +9.9999987840264037e-01
8.7999999999999847e+00 +8.1628052090571526e+00 +0.0000000000000000e+00 +8.7999996350677154e+00 -4.9881611912312631e-04 +0.0000000000000000e+00 +9.9999987559123249e-01
8.8999999999999844e+00 +8.1627550440268895e+00 +0.0000000000000000e+00 +8.8999996224849287e+00 -5.0448448618126683e-04 +0.0000000000000000e+00 +9.9999987274769409e-01
8.9999999999999840e+00 +8.1627043121599083e+00 +0.0000000000000000e+00 +8.9999996096161823e+00 -5.1015285349151590e-04 +0.0000000000000000e+00 +9.9999986987202516e-01
9.0999999999999837e+00 +8.1626530134561790e+00 +0.0000000000000000e+00 +9.0999995964582627e+00 -5.1582122117345018e-04 +0.0000000000000000e+00 +9.9999986696422560e-01
9.1999999999999833e+00 +8.1626011479156571e+00 +0.0000000000000000e+00 +9.1999995830079566e+00 -5.2148958936018282e-04 +0.0000000000000000e+00 +9.9999986402429542e-01
9.2999999999999829e+00 +8.1625487155382856e+00 +0.0000000000000000e+00 +9.2999995692620505e+00 -5.2715795819836266e-04 +0.0000000000000000e+00 +9.9999986105223448e-01
9.3999999999999826e+00 +8.1624957163239902e+00 +0.0000000000000000e+00 +9.3999995552173328e+00 -5.3282632784817387e-04 +0.0000000000000000e+00 +9.9999985804804270e-01
9.4999999999999822e+00 +8.1624421502726818e+00 +0.0000000000000000e+00 +9.4999995408705882e+00 -5.3849469848333523e-04 +0.0000000000000000e+00 +9.9999985501171995e-01
9.5999999999999819e+00 +8.1623880173842540e+00 +0.0000000000000000e+00 +9.5999995262186051e+00 -5.4416307029109962e-04 +0.0000000000000000e+00 +9.9999985194326613e-01
9.6999999999999815e+00 +8.1623333176585788e+00 +0.0000000000000000e+00 +9.6999995112581701e+00 -5.4983144347225336e-04 +0.0000000000000000e+00 +9.9999984884268112e-01
9.7999999999999812e+00 +8.1622780510955071e+00 +0.0000000000000000e+00 +9.7999994959860697e+00 -5.5549981824111548e-04 +0.0000000000000000e+00 +9.9999984570996470e-01
9.8999999999999808e+00 +8.1622222176948700e+00 +0.0000000000000000e+00 +9.8999994803990923e+00 -5.6116819482553734e-04 +0.0000000000000000e+00 +9.9999984254511676e-01
9.9999999999999805e+00 +8.1621658174564740e+00 +0.0000000000000000e+00 +9.9999994644940227e+00 -5.6683657346690171e-04 +0.0000000000000000e+00 +9.9999983934813719e-01
1.0099999999999980e+01 +8.1621088503801005e+00 +0.0000000000000000e+00 +1.0099999448267649e+01 -5.7250495441926925e-04 +0.0000000000000000e+00 +9.9999983611902576e-01
1.0199999999999980e+01 +8.1620513164655044e+00 +0.0000000000000000e+00 +1.0199999431716757e+01 -5.7817333793999724e-04 +0.0000000000000000e+00 +9.9999983285778227e-01
1.0299999999999979e+01 +8.1619932157124175e+00 +0.0000000000000000e+00 +1.0299999414838133e+01 -5.8384172428035833e-04 +0.0000000000000000e+00 +9.9999982956440658e-01
1.0399999999999979e+01 +8.1619345481205450e+00 +0.0000000000000000e+00 +1.0399999397628566e+01 -5.8951011368468906e-04 +0.0000000000000000e+00 +9.9999982623889849e-01
1.0499999999999979e+01 +8.1618753136895705e+00 +0.0000000000000000e+00 +1.0499999380084841e+01 -5.9517850639039113e-04 +0.0000000000000000e+00 +9.9999982288125777e-01
1.0599999999999978e+01 +8.1618155124191496e+00 +0.0000000000000000e+00 +1.0599999362203747e+01 -6.0084690262793272e-04 +0.0000000000000000e+00 +9.9999981949148420e-01
1.0699999999999978e+01 +8.1617551443089198e+00 +0.0000000000000000e+00 +1.0699999343982068e+01 -6.0651530262084978e-04 +0.0000000000000000e+00 +9.9999981606957766e-01
1.0799999999999978e+01 +8.1616942093584939e+00 +0.0000000000000000e+00 +1.0799999325416591e+01 -6.1218370658574735e-04 +0.0000000000000000e+00 +9.9999981261553783e-01
1.0899999999999977e+01 +8.1616327075674633e+00 +0.0000000000000000e+00 +1.0899999306504103e+01 -6.1785211473230103e-04 +0.0000000000000000e+00 +9.9999980912936459e-01
1.0999999999999977e+01 +8.1615706389354017e+00 +0.0000000000000000e+00 +1.0999999287241392e+01 -6.2352052726325847e-04 +0.0000000000000000e+00 +9.9999980561105783e-01
1.1099999999999977e+01 +8.1615080034618579e+00 +0.0000000000000000e+00 +1.1099999267625243e+01 -6.2918894437444055e-04 +0.0000000000000000e+00 +9.9999980206061723e-01
1.1199999999999976e+01 +8.1614448011463665e+00 +0.0000000000000000e+00 +1.1199999247652444e+01 -6.3485736625474329e-04 +0.0000000000000000e+00 +9.9999979847804266e-01
1.1299999999999976e+01 +8.1613810319884408e+00 +0.0000000000000000e+00 +1.1299999227319780e+01 -6.4052579308613894e-04 +0.0000000000000000e+00 +9.9999979486333390e-01
1.1399999999999975e+01 +8.1613166959875780e+00 +0.0000000000000000e+00 +1.1399999206624040e+01 -6.4619422504367792e-04 +0.0000000000000000e+00 +9.9999979121649074e-01
1.1499999999999975e+01 +8.1612517931432560e+00 +0.0000000000000000e+00 +1.1499999185562007e+01 -6.5186266229549027e-04 +0.0000000000000000e+00 +9.9999978753751295e-01
1.1599999999999975e+01 +8.1611863234549364e+00 +0.0000000000000000e+00 +1.1599999164130471e+01 -6.5753110500278722e-04 +0.0000000000000000e+00 +9.9999978382640042e-01
1.1699999999999974e+01 +8.1611202869220669e+00 +0.0000000000000000e+00 +1.1699999142326217e+01 -6.6319955331986297e-04 +0.0000000000000000e+00 +9.9999978008315282e-01
1.1799999999999974e+01 +8.1610536835440790e+00 +0.0000000000000000e+00 +1.1799999120146030e+01 -6.6886800739409617e-04 +0.0000000000000000e+00 +9.9999977630777004e-01
