# field on trajectory
# s[mm] rx[mm] ry[mm] rz[mm] bx[T] by[T] bz[T]
0.0000000000000000e+00 +8.1529999999999987e+00 +0.0000000000000000e+00 +0.0000000000000000e+00 -3.2238128380819291e-02 -5.9276224233310526e-01 +5.8691976424254666e-03
1.0000000000000001e-01 +8.1529997168330368e+00 +0.0000000000000000e+00 +9.9999999999465433e-02 -3.2238054432288978e-02 -5.9276228266969877e-01 +5.8692835612490233e-03
2.0000000000000001e-01 +8.1529988673321228e+00 +0.0000000000000000e+00 +1.9999999999572352e-01 -3.2237966066649776e-02 -5.9276233630696662e-01 +5.8693713635054965e-03
3.0000000000000004e-01 +8.1529974514972050e+00 +0.0000000000000000e+00 +2.9999999998556692e-01 -3.2237864291630676e-02 -5.9276240318001572e-01 +5.8694609645075294e-03
4.0000000000000002e-01 +8.1529954693282196e+00 +0.0000000000000000e+00 +3.9999999996578833e-01 -3.2237750114959010e-02 -5.9276248322395864e-01 +5.8695522795672080e-03
5.0000000000000000e-01 +8.1529929208250902e+00 +0.0000000000000000e+00 +4.9999999993318034e-01 -3.2237624544359293e-02 -5.9276257637391405e-01 +5.8696452239964210e-03
5.9999999999999998e-01 +8.1529898059877297e+00 +0.0000000000000000e+00 +5.9999999988453567e-01 -3.2237488587551821e-02 -5.9276268256500186e-01 +5.8697397131072023e-03
6.9999999999999996e-01 +8.1529861248160351e+00 +0.0000000000000000e+00 +6.9999999981664696e-01 -3.2237343252251610e-02 -5.9276280173234397e-01 +5.8698356622120954e-03
7.9999999999999993e-01 +8.1529818773098928e+00 +0.0000000000000000e+00 +7.9999999972630675e-01 -3.2237189546166993e-02 -5.9276293381106060e-01 +5.8699329866244935e-03
8.9999999999999991e-01 +8.1529770634691765e+00 +0.0000000000000000e+00 +8.9999999961030785e-01 -3.2237028476998539e-02 -5.9276307873626988e-01 +5.8700316016589982e-03
9.9999999999999989e-01 +8.1529716832937478e+00 +0.0000000000000000e+00 +9.9999999946544271e-01 -3.2236861052437643e-02 -5.9276323644308426e-01 +5.8701314226317801e-03
1.0999999999999999e+00 +8.1529657367834574e+00 +0.0000000000000000e+00 +1.0999999992885041e+00 -3.2236688280165467e-02 -5.9276340686660967e-01 +5.8702323648609110e-03
1.2000000000000000e+00 +8.1529592239381419e+00 +0.0000000000000000e+00 +1.1999999990762846e+00 -3.2236511167851555e-02 -5.9276358994194422e-01 +5.8703343436667344e-03
1.3000000000000000e+00 +8.1529521447576254e+00 +0.0000000000000000e+00 +1.2999999988255770e+00 -3.2236330723152656e-02 -5.9276378560417464e-01 +5.8704372743722134e-03
1.4000000000000001e+00 +8.1529444992417233e+00 +0.0000000000000000e+00 +1.3999999985331739e+00 -3.2236147953711505e-02 -5.9276399378837552e-01 +5.8705410723032796e-03
1.5000000000000002e+00 +8.1529362873902365e+00 +0.0000000000000000e+00 +1.4999999981958678e+00 -3.2235963867155527e-02 -5.9276421442960725e-01 +5.8706456527891819e-03
1.6000000000000003e+00 +8.1529275092029536e+00 +0.0000000000000000e+00 +1.5999999978104513e+00 -3.2235779471095655e-02 -5.9276444746291468e-01 +5.8707509311628535e-03
1.7000000000000004e+00 +8.1529181646796527e+00 +0.0000000000000000e+00 +1.6999999973737172e+00 -3.2235595773125042e-02 -5.9276469282332345e-01 +5.8708568227612487e-03
1.8000000000000005e+00 +8.1529082538200992e+00 +0.0000000000000000e+00 +1.7999999968824578e+00 -3.2235413780817873e-02 -5.9276495044583999e-01 +5.8709632429257072e-03
1.9000000000000006e+00 +8.1528977766240480e+00 +0.0000000000000000e+00 +1.8999999963334659e+00 -3.2235234501728084e-02 -5.9276522026544876e-01 +5.8710701070023019e-03
2.0000000000000004e+00 +8.1528867330912416e+00 +0.0000000000000000e+00 +1.9999999957235342e+00 -3.2235058943388115e-02 -5.9276550221711011e-01 +5.8711773303421781e-03
2.1000000000000005e+00 +8.1528751232214098e+00 +0.0000000000000000e+00 +2.0999999950494552e+00 -3.2234888008084585e-02 -5.9276579604669588e-01 +5.8712848477683434e-03
2.2000000000000006e+00 +8.1528629470142739e+00 +0.0000000000000000e+00 +2.1999999943080217e+00 -3.2234722177200331e-02 -5.9276610074380365e-01 +5.8713926719730974e-03
2.3000000000000007e+00 +8.1528502044695426e+00 +0.0000000000000000e+00 +2.2999999934960260e+00 -3.2234561826906948e-02 -5.9276641510896066e-01 +5.8715008351150873e-03
2.4000000000000008e+00 +8.1528368955869155e+00 +0.0000000000000000e+00 +2.3999999926102604e+00 -3.2234407333394076e-02 -5.9276673794268775e-01 +5.8716093693520115e-03
2.5000000000000009e+00 +8.1528230203660854e+00 +0.0000000000000000e+00 +2.4999999916475182e+00 -3.2234259072872647e-02 -5.9276706804550250e-01 +5.8717183068402292e-03
2.6000000000000010e+00 +8.1528085788067379e+00 +0.0000000000000000e+00 +2.5999999906045912e+00 -3.2234117421578147e-02 -5.9276740421791740e-01 +5.8718276797343630e-03
2.7000000000000011e+00 +8.1527935709085515e+00 +0.0000000000000000e+00 +2.6999999894782727e+00 -3.2233982755773744e-02 -5.9276774526044285e-01 +5.8719375201869107e-03
2.8000000000000012e+00 +8.1527779966712011e+00 +0.0000000000000000e+00 +2.7999999882653546e+00 -3.2233855451753529e-02 -5.9276808997358543e-01 +5.8720478603478468e-03
2.9000000000000012e+00 +8.1527618560943580e+00 +0.0000000000000000e+00 +2.8999999869626301e+00 -3.2233735885845737e-02 -5.9276843715785166e-01 +5.8721587323642471e-03
3.0000000000000013e+00 +8.1527451491776919e+00 +0.0000000000000000e+00 +2.9999999855668911e+00 -3.2233624434415950e-02 -5.9276878561374613e-01 +5.8722701683798671e-03
3.1000000000000014e+00 +8.1527278759208706e+00 +0.0000000000000000e+00 +3.0999999840749304e+00 -3.2233521473870319e-02 -5.9276913414177290e-01 +5.8723822005347821e-03
3.2000000000000015e+00 +8.1527100363235601e+00 +0.0000000000000000e+00 +3.1999999824835408e+00 -3.2233427380658722e-02 -5.9276948154243692e-01 +5.8724948609649823e-03
3.3000000000000016e+00 +8.1526916303854300e+00 +0.0000000000000000e+00 +3.2999999807895142e+00 -3.2233342531278075e-02 -5.9276982661624356e-01 +5.8726081818019638e-03
3.4000000000000017e+00 +8.1526726581061517e+00 +0.0000000000000000e+00 +3.3999999789896438e+00 -3.2233267302275430e-02 -5.9277016816370098e-01 +5.8727221951723725e-03
3.5000000000000018e+00 +8.1526531194853984e+00 +0.0000000000000000e+00 +3.4999999770807215e+00 -3.2233202070251252e-02 -5.9277050498531869e-01 +5.8728369331975845e-03
3.6000000000000019e+00 +8.1526330145228503e+00 +0.0000000000000000e+00 +3.5999999750595402e+00 -3.2233147211862642e-02 -5.9277083588161039e-01 +5.8729524279933108e-03
3.7000000000000020e+00 +8.1526123432181912e+00 +0.0000000000000000e+00 +3.6999999729228925e+00 -3.2233103103826467e-02 -5.9277115965309279e-01 +5.8730687116692335e-03
3.8000000000000020e+00 +8.1525911055711138e+00 +0.0000000000000000e+00 +3.7999999706675704e+00 -3.2233070122922640e-02 -5.9277147510028816e-01 +5.8731858163285919e-03
3.9000000000000021e+00 +8.1525693015813161e+00 +0.0000000000000000e+00 +3.8999999682903668e+00 -3.2233048645997298e-02 -5.9277178102372341e-01 +5.8733037740677924e-03
4.0000000000000018e+00 +8.1525469312485068e+00 +0.0000000000000000e+00 +3.9999999657880743e+00 -3.2233039049966057e-02 -5.9277207622393124e-01 +5.8734226169760246e-03
4.1000000000000014e+00 +8.1525239945724053e+00 +0.0000000000000000e+00 +4.0999999631574848e+00 -3.2233041451599651e-02 -5.9277235986274701e-01 +5.8735423872155598e-03
4.2000000000000011e+00 +8.1525004915527415e+00 +0.0000000000000000e+00 +4.1999999603953917e+00 -3.2233054926836535e-02 -5.9277263254719792e-01 +5.8736631672668465e-03
4.3000000000000007e+00 +8.1524764221892543e+00 +0.0000000000000000e+00 +4.2999999574985868e+00 -3.2233078291371127e-02 -5.9277289524562204e-01 +5.8737850496921257e-03
4.4000000000000004e+00 +8.1524517864816932e+00 +0.0000000000000000e+00 +4.3999999544638628e+00 -3.2233110360859248e-02 -5.9277314892637534e-01 +5.8739081270557303e-03
4.5000000000000000e+00 +8.1524265844298185e+00 +0.0000000000000000e+00 +4.4999999512880118e+00 -3.2233149950914697e-02 -5.9277339455783173e-01 +5.8740324919242994e-03
4.5999999999999996e+00 +8.1524008160333956e+00 +0.0000000000000000e+00 +4.5999999479678264e+00 -3.2233195877105790e-02 -5.9277363310838438e-01 +5.8741582368669878e-03
4.6999999999999993e+00 +8.1523744812921954e+00 +0.0000000000000000e+00 +4.6999999445000995e+00 -3.2233246954951736e-02 -5.9277386554644829e-01 +5.8742854544556805e-03
4.7999999999999989e+00 +8.1523475802059995e+00 +0.0000000000000000e+00 +4.7999999408816238e+00 -3.2233301999919278e-02 -5.9277409284045957e-01 +5.8744142372652080e-03
4.8999999999999986e+00 +8.1523201127745892e+00 +0.0000000000000000e+00 +4.8999999371091914e+00 -3.2233359827419102e-02 -5.9277431595887775e-01 +5.8745446778735444e-03
4.9999999999999982e+00 +8.1522920789977533e+00 +0.0000000000000000e+00 +4.9999999331795948e+00 -3.2233419252802417e-02 -5.9277453587018647e-01 +5.8746768688620402e-03
5.0999999999999979e+00 +8.1522634788752821e+00 +0.0000000000000000e+00 +5.0999999290896261e+00 -3.2233479091357278e-02 -5.9277475354289499e-01 +5.8748109028156142e-03
5.1999999999999975e+00 +8.1522343124069696e+00 +0.0000000000000000e+00 +5.1999999248360780e+00 -3.2233538158305361e-02 -5.9277496994553980e-01 +5.8749468723229784e-03
5.2999999999999972e+00 +8.1522045795926079e+00 +0.0000000000000000e+00 +5.2999999204157433e+00 -3.2233595268798251e-02 -5.9277518604668422e-01 +5.8750848699768467e-03
5.3999999999999968e+00 +8.1521742804319928e+00 +0.0000000000000000e+00 +5.3999999158254139e+00 -3.2233649237914060e-02 -5.9277540281492158e-01 +5.8752249883741404e-03
5.4999999999999964e+00 +8.1521434149249181e+00 +0.0000000000000000e+00 +5.4999999110618827e+00 -3.2233698880653812e-02 -5.9277562121887528e-01 +5.8753673201162038e-03
5.5999999999999961e+00 +8.1521119830711761e+00 +0.0000000000000000e+00 +5.5999999061219414e+00 -3.2233743011938105e-02 -5.9277584222720003e-01 +5.8755119578090230e-03
5.6999999999999957e+00 +8.1520799848705554e+00 +0.0000000000000000e+00 +5.6999999010023839e+00 -3.2233780446603480e-02 -5.9277606680858241e-01 +5.8756589940634207e-03
5.7999999999999954e+00 +8.1520474203228428e+00 +0.0000000000000000e+00 +5.7999998957000010e+00 -3.2233809999398989e-02 -5.9277629593174441e-01 +5.8758085214952842e-03
5.8999999999999950e+00 +8.1520142894278216e+00 +0.0000000000000000e+00 +5.8999998902115864e+00 -3.2233830484982719e-02 -5.9277653056544188e-01 +5.8759606327257628e-03
5.9999999999999947e+00 +8.1519805921852679e+00 +0.0000000000000000e+00 +5.9999998845339322e+00 -3.2233840717918225e-02 -5.9277677167846732e-01 +5.8761154203814895e-03
6.0999999999999943e+00 +8.1519463285949509e+00 +0.0000000000000000e+00 +6.0999998786638301e+00 -3.2233839885872917e-02 -5.9277702012479117e-01 +5.8762729115305412e-03
6.1999999999999940e+00 +8.1519114986566361e+00 +0.0000000000000000e+00 +6.1999998725980729e+00 -3.2233828669263720e-02 -5.9277727629897381e-01 +5.8764328709857896e-03
6.2999999999999936e+00 +8.1518761023700801e+00 +0.0000000000000000e+00 +6.2999998663334535e+00 -3.2233808121714787e-02 -5.9277754048072695e-01 +5.8765949979924393e-03
6.3999999999999932e+00 +8.1518401397350306e+00 +0.0000000000000000e+00 +6.3999998598667638e+00 -3.2233779296863614e-02 -5.9277781294976972e-01 +5.8767589917917322e-03
6.4999999999999929e+00 +8.1518036107512284e+00 +0.0000000000000000e+00 +6.4999998531947965e+00 -3.2233743248362264e-02 -5.9277809398582904e-01 +5.8769245516207755e-03
6.5999999999999925e+00 +8.1517665154184051e+00 +0.0000000000000000e+00 +6.5999998463143443e+00 -3.2233701029878478e-02 -5.9277838386864035e-01 +5.8770913767123619e-03
6.6999999999999922e+00 +8.1517288537362873e+00 +0.0000000000000000e+00 +6.6999998392221993e+00 -3.2233653695097043e-02 -5.9277868287794633e-01 +5.8772591662947828e-03
6.7999999999999918e+00 +8.1516906257045889e+00 +0.0000000000000000e+00 +6.7999998319151533e+00 -3.2233602297720751e-02 -5.9277899129349731e-01 +5.8774276195916403e-03
6.8999999999999915e+00 +8.1516518313230169e+00 +0.0000000000000000e+00 +6.8999998243899991e+00 -3.2233547891471724e-02 -5.9277930939505186e-01 +5.8775964358216788e-03
6.9999999999999911e+00 +8.1516124705912691e+00 +0.0000000000000000e+00 +6.9999998166435295e+00 -3.2233491530092591e-02 -5.9277963746237494e-01 +5.8777653141985813e-03
7.0999999999999908e+00 +8.1515725435090332e+00 +0.0000000000000000e+00 +7.0999998086725364e+00 -3.2233434267347608e-02 -5.9277997577523978e-01 +5.8779339539308173e-03
7.1999999999999904e+00 +8.1515320500759856e+00 +0.0000000000000000e+00 +7.1999998004738117e+00 -3.2233377157023936e-02 -5.9278032461342645e-01 +5.8781020542214317e-03
7.2999999999999901e+00 +8.1514909902917960e+00 +0.0000000000000000e+00 +7.2999997920441482e+00 -3.2233321252932726e-02 -5.9278068425672226e-01 +5.8782693142678749e-03
7.3999999999999897e+00 +8.1514493641561216e+00 +0.0000000000000000e+00 +7.3999997833803386e+00 -3.2233267608910390e-02 -5.9278105498492217e-01 +5.8784354332618314e-03
7.4999999999999893e+00 +8.1514071716686107e+00 +0.0000000000000000e+00 +7.4999997744791749e+00 -3.2233217278819740e-02 -5.9278143707782704e-01 +5.8786001103890186e-03
7.5999999999999890e+00 +8.1513644128288973e+00 +0.0000000000000000e+00 +7.5999997653374489e+00 -3.2233171316551214e-02 -5.9278183081524594e-01 +5.8787630448290185e-03
7.6999999999999886e+00 +8.1513210876366085e+00 +0.0000000000000000e+00 +7.6999997559519535e+00 -3.2233130776023987e-02 -5.9278223647699391e-01 +5.8789239357550874e-03
7.7999999999999883e+00 +8.1512771960913568e+00 +0.0000000000000000e+00 +7.7999997463194806e+00 -3.2233096711187223e-02 -5.9278265434289246e-01 +5.8790824823339869e-03
7.8999999999999879e+00 +8.1512327381927445e+00 +0.0000000000000000e+00 +7.8999997364368229e+00 -3.2233070176021249e-02 -5.9278308469277063e-01 +5.8792383837257883e-03
7.9999999999999876e+00 +8.1511877139403630e+00 +0.0000000000000000e+00 +7.9999997263007723e+00 -3.2233052224538719e-02 -5.9278352780646315e-01 +5.8793913390836998e-03
8.0999999999999872e+00 +8.1511421233337895e+00 +0.0000000000000000e+00 +8.0999997159081207e+00 -3.2233043573199158e-02 -5.9278398384565245e-01 +5.8795411407489674e-03
8.1999999999999869e+00 +8.1510959663725888e+00 +0.0000000000000000e+00 +8.1999997052556619e+00 -3.2233043588153064e-02 -5.9278445249935841e-01 +5.8796879538433175e-03
8.2999999999999865e+00 +8.1510492430563168e+00 +0.0000000000000000e+00 +8.2999996943401868e+00 -3.2233051298034381e-02 -5.9278493333837379e-01 +5.8798320366897508e-03
8.3999999999999861e+00 +8.1510019533845135e+00 +0.0000000000000000e+00 +8.3999996831584873e+00 -3.2233065731558548e-02 -5.9278542593341577e-01 +5.8799736476172291e-03
8.4999999999999858e+00 +8.1509540973567116e+00 +0.0000000000000000e+00 +8.4999996717073554e+00 -3.2233085917525078e-02 -5.9278592985512280e-01 +5.8801130449608599e-03
8.5999999999999854e+00 +8.1509056749724298e+00 +0.0000000000000000e+00 +8.5999996599835846e+00 -3.2233110884820067e-02 -5.9278644467405373e-01 +5.8802504870621398e-03
8.6999999999999851e+00 +8.1508566862311795e+00 +0.0000000000000000e+00 +8.6999996479839670e+00 -3.2233139662418635e-02 -5.9278696996068403e-01 +5.8803862322691575e-03
8.7999999999999847e+00 +8.1508071311324581e+00 +0.0000000000000000e+00 +8.7999996357052943e+00 -3.2233171279387442e-02 -5.9278750528540380e-01 +5.8805205389368164e-03
8.8999999999999844e+00 +8.1507570096757576e+00 +0.0000000000000000e+00 +8.8999996231443586e+00 -3.2233204764887148e-02 -5.9278805021851466e-01 +5.8806536654270403e-03
8.9999999999999840e+00 +8.1507063218605591e+00 +0.0000000000000000e+00 +8.9999996102979516e+00 -3.2233239148175004e-02 -5.9278860433022873e-01 +5.8807858701090060e-03
9.0999999999999837e+00 +8.1506550676863334e+00 +0.0000000000000000e+00 +9.0999995971628653e+00 -3.2233273458607214e-02 -5.9278916719066466e-01 +5.8809174113593462e-03
9.1999999999999833e+00 +8.1506032471525458e+00 +0.0000000000000000e+00 +9.1999995837358917e+00 -3.2233306725641536e-02 -5.9278973836984494e-01 +5.8810485475623694e-03
9.2999999999999829e+00 +8.1505508602586509e+00 +0.0000000000000000e+00 +9.2999995700138243e+00 -3.2233337978839705e-02 -5.9279031743769595e-01 +5.8811795371102749e-03
9.3999999999999826e+00 +8.1504979070040982e+00 +0.0000000000000000e+00 +9.3999995559934533e+00 -3.2233366247869981e-02 -5.9279090396404177e-01 +5.8813106384033829e-03
9.4999999999999822e+00 +8.1504443873883297e+00 +0.0000000000000000e+00 +9.4999995416715723e+00 -3.2233390562509581e-02 -5.9279149751860494e-01 +5.8814421098503282e-03
9.5999999999999819e+00 +8.1503903014107788e+00 +0.0000000000000000e+00 +9.5999995270449734e+00 -3.2233409952647209e-02 -5.9279209767100216e-01 +5.8815742098682934e-03
9.6999999999999815e+00 +8.1503356490708736e+00 +0.0000000000000000e+00 +9.6999995121104465e+00 -3.2233423448285545e-02 -5.9279270399074169e-01 +5.8817071968832223e-03
9.7999999999999812e+00 +8.1502804303680385e+00 +0.0000000000000000e+00 +9.7999994968647854e+00 -3.2233430079543768e-02 -5.9279331604722274e-01 +5.8818413293300290e-03
9.8999999999999808e+00 +8.1502246453016891e+00 +0.0000000000000000e+00 +9.8999994813047820e+00 -3.2233428876659968e-02 -5.9279393340973041e-01 +5.8819768656528226e-03
9.9999999999999805e+00 +8.1501682938712374e+00 +0.0000000000000000e+00 +9.9999994654272282e+00 -3.2233418869993702e-02 -5.9279455564743488e-01 +5.8821140643051297e-03
1.0099999999999980e+01 +8.1501113760760902e+00 +0.0000000000000000e+00 +1.0099999449228916e+01 -3.2233399338431300e-02 -5.9279518238633322e-01 +5.8822531077724416e-03
1.0199999999999980e+01 +8.1500538919156522e+00 +0.0000000000000000e+00 +1.0199999432706637e+01 -3.2233370554519851e-02 -5.9279581348013943e-01 +5.8823938746284544e-03
1.0299999999999979e+01 +8.1499958413893214e+00 +0.0000000000000000e+00 +1.0299999415857183e+01 -3.2233333039087549e-02 -5.9279644883954730e-01 +5.8825361674596207e-03
1.0399999999999979e+01 +8.1499372244964920e+00 +0.0000000000000000e+00 +1.0399999398677346e+01 -3.2233287312805718e-02 -5.9279708837530154e-01 +5.8826797888434784e-03
1.0499999999999979e+01 +8.1498780412365566e+00 +0.0000000000000000e+00 +1.0499999381163921e+01 -3.2233233896184425e-02 -5.9279773199819863e-01 +5.8828245413483976e-03
1.0599999999999978e+01 +8.1498182916089004e+00 +0.0000000000000000e+00 +1.0599999363313696e+01 -3.2233173309568063e-02 -5.9279837961908910e-01 +5.8829702275333485e-03
1.0699999999999978e+01 +8.1497579756129070e+00 +0.0000000000000000e+00 +1.0699999345123464e+01 -3.2233106073131068e-02 -5.9279903114887811e-01 +5.8831166499476529e-03
1.0799999999999978e+01 +8.1496970932479567e+00 +0.0000000000000000e+00 +1.0799999326590017e+01 -3.2233032706873423e-02 -5.9279968649852821e-01 +5.8832636111307421e-03
1.0899999999999977e+01 +8.1496356445134239e+00 +0.0000000000000000e+00 +1.0899999307710146e+01 -3.2232953730616458e-02 -5.9280034557906069e-01 +5.8834109136119148e-03
1.0999999999999977e+01 +8.1495736294086818e+00 +0.0000000000000000e+00 +1.0999999288480645e+01 -3.2232869663998333e-02 -5.9280100830155680e-01 +5.8835583599100945e-03
1.1099999999999977e+01 +8.1495110479330997e+00 +0.0000000000000000e+00 +1.1099999268898303e+01 -3.2232781026469724e-02 -5.9280167457716082e-01 +5.8837057525335792e-03
1.1199999999999976e+01 +8.1494479000860416e+00 +0.0000000000000000e+00 +1.1199999248959914e+01 -3.2232688337289511e-02 -5.9280234431708012e-01 +5.8838528939798140e-03
1.1299999999999976e+01 +8.1493841858668716e+00 +0.0000000000000000e+00 +1.1299999228662269e+01 -3.2232592115520313e-02 -5.9280301743258779e-01 +5.8839995867351284e-03
1.1399999999999975e+01 +8.1493199052749468e+00 +0.0000000000000000e+00 +1.1399999208002161e+01 -3.2232492880024173e-02 -5.9280369383502374e-01 +5.8841456332745035e-03
1.1499999999999975e+01 +8.1492550583096239e+00 +0.0000000000000000e+00 +1.1499999186976380e+01 -3.2232391149458188e-02 -5.9280437343579795e-01 +5.8842908360613282e-03
1.1599999999999975e+01 +8.1491896449702566e+00 +0.0000000000000000e+00 +1.1599999165581719e+01 -3.2232287442270142e-02 -5.9280505614638990e-01 +5.8844349975471551e-03
1.1699999999999974e+01 +8.1491236652561927e+00 +0.0000000000000000e+00 +1.1699999143814971e+01 -3.2232182276694124e-02 -5.9280574187835167e-01 +5.8845779201714549e-03
1.1799999999999974e+01 +8.1490571191667804e+00 +0.0000000000000000e+00 +1.1799999121672924e+01 -3.2232076170746145e-02 -5.9280643054330995e-01 +5.8847194063613717e-03
