# trajectory
# s[mm] rx[mm] ry[mm] rz[mm] px[rad] py[rad] pz[rad]
0.0000000000000000e+00 +8.1529999999999987e+00 +0.0000000000000000e+00 +0.0000000000000000e+00 +0.0000000000000000e+00 +0.0000000000000000e+00 +1.0000000000000000e+00
1.0000000000000001e-01 +8.1529997168699246e+00 +0.0000000000000000e+00 +9.9999999999465586e-02 -5.6626007345355232e-06 +0.0000000000000000e+00 +9.9999999998396749e-01
2.0000000000000001e-01 +8.1529988674799938e+00 +0.0000000000000000e+00 +1.9999999999572465e-01 -1.1325197161912855e-05 +0.0000000000000000e+00 +9.9999999993586997e-01
3.0000000000000004e-01 +8.1529974518306290e+00 +0.0000000000000000e+00 +2.9999999998557070e-01 -1.6987789452851756e-05 +0.0000000000000000e+00 +9.9999999985570753e-01
4.0000000000000002e-01 +8.1529954699222351e+00 +0.0000000000000000e+00 +3.9999999996579727e-01 -2.2650377771153249e-05 +0.0000000000000000e+00 +9.9999999974348019e-01
5.0000000000000000e-01 +8.1529929217552013e+00 +0.0000000000000000e+00 +4.9999999993319788e-01 -2.8312962273699602e-05 +0.0000000000000000e+00 +9.9999999959918806e-01
5.9999999999999998e-01 +8.1529898073299023e+00 +0.0000000000000000e+00 +5.9999999988456609e-01 -3.3975543110454327e-05 +0.0000000000000000e+00 +9.9999999942283124e-01
6.9999999999999996e-01 +8.1529861266466970e+00 +0.0000000000000000e+00 +6.9999999981669536e-01 -3.9638120424462186e-05 +0.0000000000000000e+00 +9.9999999921440974e-01
7.9999999999999993e-01 +8.1529818797059299e+00 +0.0000000000000000e+00 +7.9999999972637925e-01 -4.5300694351849187e-05 +0.0000000000000000e+00 +9.9999999897392355e-01
8.9999999999999991e-01 +8.1529770665079351e+00 +0.0000000000000000e+00 +8.9999999961041133e-01 -5.0963265021822636e-05 +0.0000000000000000e+00 +9.9999999870137279e-01
9.9999999999999989e-01 +8.1529716870530304e+00 +0.0000000000000000e+00 +9.9999999946558504e-01 -5.6625832556671147e-05 +0.0000000000000000e+00 +9.9999999839675757e-01
1.0999999999999999e+00 +8.1529657413415251e+00 +0.0000000000000000e+00 +1.0999999992886940e+00 -6.2288397071764707e-05 +0.0000000000000000e+00 +9.9999999806007778e-01
1.2000000000000000e+00 +8.1529592293737139e+00 +0.0000000000000000e+00 +1.1999999990765318e+00 -6.7950958675554738e-05 +0.0000000000000000e+00 +9.9999999769133363e-01
1.3000000000000000e+00 +8.1529521511498828e+00 +0.0000000000000000e+00 +1.2999999988258919e+00 -7.3613517469574136e-05 +0.0000000000000000e+00 +9.9999999729052502e-01
1.4000000000000001e+00 +8.1529445066703090e+00 +0.0000000000000000e+00 +1.3999999985335680e+00 -7.9276073548437365e-05 +0.0000000000000000e+00 +9.9999999685765206e-01
1.5000000000000002e+00 +8.1529362959352607e+00 +0.0000000000000000e+00 +1.4999999981963537e+00 -8.4938626999840521e-05 +0.0000000000000000e+00 +9.9999999639271475e-01
1.6000000000000003e+00 +8.1529275189449955e+00 +0.0000000000000000e+00 +1.5999999978110422e+00 -9.0601177904561493e-05 +0.0000000000000000e+00 +9.9999999589571320e-01
1.7000000000000004e+00 +8.1529181756997637e+00 +0.0000000000000000e+00 +1.6999999973744275e+00 -9.6263726336459981e-05 +0.0000000000000000e+00 +9.9999999536664741e-01
1.8000000000000005e+00 +8.1529082661998089e+00 +0.0000000000000000e+00 +1.7999999968833029e+00 -1.0192627236247769e-04 +0.0000000000000000e+00 +9.9999999480551738e-01
1.9000000000000006e+00 +8.1528977904453690e+00 +0.0000000000000000e+00 +1.8999999963344623e+00 -1.0758881604263841e-04 +0.0000000000000000e+00 +9.9999999421232322e-01
2.0000000000000004e+00 +8.1528867484366767e+00 +0.0000000000000000e+00 +1.9999999957246988e+00 -1.1325135743004817e-04 +0.0000000000000000e+00 +9.9999999358706493e-01
2.1000000000000005e+00 +8.1528751401739576e+00 +0.0000000000000000e+00 +2.0999999950508061e+00 -1.1891389657098968e-04 +0.0000000000000000e+00 +9.9999999292974251e-01
2.2000000000000006e+00 +8.1528629656574356e+00 +0.0000000000000000e+00 +2.1999999943095783e+00 -1.2457643350595972e-04 +0.0000000000000000e+00 +9.9999999224035596e-01
2.3000000000000007e+00 +8.1528502248873291e+00 +0.0000000000000000e+00 +2.2999999934978086e+00 -1.3023896827070639e-04 +0.0000000000000000e+00 +9.9999999151890540e-01
2.4000000000000008e+00 +8.1528369178638531e+00 +0.0000000000000000e+00 +2.3999999926122908e+00 -1.3590150089632367e-04 +0.0000000000000000e+00 +9.9999999076539081e-01
2.5000000000000009e+00 +8.1528230445872207e+00 +0.0000000000000000e+00 +2.4999999916498181e+00 -1.4156403140925142e-04 +0.0000000000000000e+00 +9.9999998997981232e-01
2.6000000000000010e+00 +8.1528086050576416e+00 +0.0000000000000000e+00 +2.5999999906071842e+00 -1.4722655983127563e-04 +0.0000000000000000e+00 +9.9999998916216981e-01
2.7000000000000011e+00 +8.1527935992753235e+00 +0.0000000000000000e+00 +2.6999999894811832e+00 -1.5288908617952849e-04 +0.0000000000000000e+00 +9.9999998831246339e-01
2.8000000000000012e+00 +8.1527780272404744e+00 +0.0000000000000000e+00 +2.7999999882686084e+00 -1.5855161046648858e-04 +0.0000000000000000e+00 +9.9999998743069318e-01
2.9000000000000012e+00 +8.1527618889532985e+00 +0.0000000000000000e+00 +2.8999999869662534e+00 -1.6421413269998101e-04 +0.0000000000000000e+00 +9.9999998651685906e-01
3.0000000000000013e+00 +8.1527451844140018e+00 +0.0000000000000000e+00 +2.9999999855709114e+00 -1.6987665288317757e-04 +0.0000000000000000e+00 +9.9999998557096115e-01
3.1000000000000014e+00 +8.1527279136227904e+00 +0.0000000000000000e+00 +3.0999999840793766e+00 -1.7553917101459693e-04 +0.0000000000000000e+00 +9.9999998459299944e-01
3.2000000000000015e+00 +8.1527100765798686e+00 +0.0000000000000000e+00 +3.1999999824884426e+00 -1.8120168708810478e-04 +0.0000000000000000e+00 +9.9999998358297404e-01
3.3000000000000016e+00 +8.1526916732854424e+00 +0.0000000000000000e+00 +3.2999999807949028e+00 -1.8686420109291401e-04 +0.0000000000000000e+00 +9.9999998254088485e-01
3.4000000000000017e+00 +8.1526727037397198e+00 +0.0000000000000000e+00 +3.3999999789955506e+00 -1.9252671301358488e-04 +0.0000000000000000e+00 +9.9999998146673208e-01
3.5000000000000018e+00 +8.1526531679429102e+00 +0.0000000000000000e+00 +3.4999999770871804e+00 -1.9818922283002525e-04 +0.0000000000000000e+00 +9.9999998036051563e-01
3.6000000000000019e+00 +8.1526330658952251e+00 +0.0000000000000000e+00 +3.5999999750665852e+00 -2.0385173051749069e-04 +0.0000000000000000e+00 +9.9999997922223560e-01
3.7000000000000020e+00 +8.1526123975968794e+00 +0.0000000000000000e+00 +3.6999999729305588e+00 -2.0951423604658479e-04 +0.0000000000000000e+00 +9.9999997805189200e-01
3.8000000000000020e+00 +8.1525911630480898e+00 +0.0000000000000000e+00 +3.7999999706758949e+00 -2.1517673938325921e-04 +0.0000000000000000e+00 +9.9999997684948494e-01
3.9000000000000021e+00 +8.1525693622490767e+00 +0.0000000000000000e+00 +3.8999999682993871e+00 -2.2083924048881405e-04 +0.0000000000000000e+00 +9.9999997561501441e-01
4.0000000000000018e+00 +8.1525469952000673e+00 +0.0000000000000000e+00 +3.9999999657978291e+00 -2.2650173931989796e-04 +0.0000000000000000e+00 +9.9999997434848054e-01
4.1000000000000014e+00 +8.1525240619012909e+00 +0.0000000000000000e+00 +4.0999999631680142e+00 -2.3216423582898553e-04 +0.0000000000000000e+00 +9.9999997304988331e-01
4.2000000000000011e+00 +8.1525005623529818e+00 +0.0000000000000000e+00 +4.1999999604067364e+00 -2.3782672996962648e-04 +0.0000000000000000e+00 +9.9999997171922272e-01
4.3000000000000007e+00 +8.1524764965553782e+00 +0.0000000000000000e+00 +4.2999999575107895e+00 -2.4348922170169455e-04 +0.0000000000000000e+00 +9.9999997035649890e-01
4.4000000000000004e+00 +8.1524518645087234e+00 +0.0000000000000000e+00 +4.3999999544769670e+00 -2.4915171099186453e-04 +0.0000000000000000e+00 +9.9999996896171184e-01
4.5000000000000000e+00 +8.1524266662132625e+00 +0.0000000000000000e+00 +4.4999999513020628e+00 -2.5481419781361208e-04 +0.0000000000000000e+00 +9.9999996753486164e-01
4.5999999999999996e+00 +8.1524009016692442e+00 +0.0000000000000000e+00 +4.5999999479828704e+00 -2.6047668214721344e-04 +0.0000000000000000e+00 +9.9999996607594832e-01
4.6999999999999993e+00 +8.1523745708769173e+00 +0.0000000000000000e+00 +4.6999999445161835e+00 -2.6613916397974529e-04 +0.0000000000000000e+00 +9.9999996458497198e-01
4.7999999999999989e+00 +8.1523476738365321e+00 +0.0000000000000000e+00 +4.7999999408987959e+00 -2.7180164330508450e-04 +0.0000000000000000e+00 +9.9999996306193262e-01
4.8999999999999986e+00 +8.1523202105483392e+00 +0.0000000000000000e+00 +4.8999999371275011e+00 -2.7746412012390778e-04 +0.0000000000000000e+00 +9.9999996150683024e-01
4.9999999999999982e+00 +8.1522921810125908e+00 +0.0000000000000000e+00 +4.9999999331990930e+00 -2.8312659444369151e-04 +0.0000000000000000e+00 +9.9999995991966495e-01
5.0999999999999979e+00 +8.1522635852295338e+00 +0.0000000000000000e+00 +5.0999999291103650e+00 -2.8878906627871127e-04 +0.0000000000000000e+00 +9.9999995830043675e-01
5.1999999999999975e+00 +8.1522344231994168e+00 +0.0000000000000000e+00 +5.1999999248581110e+00 -2.9445153565004173e-04 +0.0000000000000000e+00 +9.9999995664914565e-01
5.2999999999999972e+00 +8.1522046949224851e+00 +0.0000000000000000e+00 +5.2999999204391255e+00 -3.0011400258555621e-04 +0.0000000000000000e+00 +9.9999995496579175e-01
5.3999999999999968e+00 +8.1521744003989802e+00 +0.0000000000000000e+00 +5.3999999158502012e+00 -3.0577646711992619e-04 +0.0000000000000000e+00 +9.9999995325037505e-01
5.4999999999999964e+00 +8.1521435396291402e+00 +0.0000000000000000e+00 +5.4999999110881319e+00 -3.1143892929462116e-04 +0.0000000000000000e+00 +9.9999995150289556e-01
5.5999999999999961e+00 +8.1521121126131977e+00 +0.0000000000000000e+00 +5.5999999061497112e+00 -3.1710138915790818e-04 +0.0000000000000000e+00 +9.9999994972335327e-01
5.6999999999999957e+00 +8.1520801193513837e+00 +0.0000000000000000e+00 +5.6999999010317337e+00 -3.2276384676485127e-04 +0.0000000000000000e+00 +9.9999994791174829e-01
5.7999999999999954e+00 +8.1520475598439184e+00 +0.0000000000000000e+00 +5.7999998957309922e+00 -3.2842630217731121e-04 +0.0000000000000000e+00 +9.9999994606808063e-01
5.8999999999999950e+00 +8.1520144340910186e+00 +0.0000000000000000e+00 +5.8999998902442812e+00 -3.3408875546394505e-04 +0.0000000000000000e+00 +9.9999994419235028e-01
5.9999999999999947e+00 +8.1519807420928938e+00 +0.0000000000000000e+00 +5.9999998845683935e+00 -3.3975120670020557e-04 +0.0000000000000000e+00 +9.9999994228455724e-01
6.0999999999999943e+00 +8.1519464838497449e+00 +0.0000000000000000e+00 +6.0999998787001237e+00 -3.4541365596819251e-04 +0.0000000000000000e+00 +9.9999994034470152e-01
6.1999999999999940e+00 +8.1519116593617635e+00 +0.0000000000000000e+00 +6.1999998726362655e+00 -3.5107610335502124e-04 +0.0000000000000000e+00 +9.9999993837278311e-01
6.2999999999999936e+00 +8.1518762686291328e+00 +0.0000000000000000e+00 +6.2999998663736116e+00 -3.5673854895119174e-04 +0.0000000000000000e+00 +9.9999993636880202e-01
6.3999999999999932e+00 +8.1518403116520286e+00 +0.0000000000000000e+00 +6.3999998599089567e+00 -3.6240099285044002e-04 +0.0000000000000000e+00 +9.9999993433275824e-01
6.4999999999999929e+00 +8.1518037884306160e+00 +0.0000000000000000e+00 +6.4999998532390943e+00 -3.6806343514973831e-04 +0.0000000000000000e+00 +9.9999993226465178e-01
6.5999999999999925e+00 +8.1517666989650497e+00 +0.0000000000000000e+00 +6.5999998463608183e+00 -3.7372587594929481e-04 +0.0000000000000000e+00 +9.9999993016448263e-01
6.6999999999999922e+00 +8.1517290432554734e+00 +0.0000000000000000e+00 +6.6999998392709221e+00 -3.7938831535255384e-04 +0.0000000000000000e+00 +9.9999992803225080e-01
6.7999999999999918e+00 +8.1516908213020223e+00 +0.0000000000000000e+00 +6.7999998319661996e+00 -3.8505075346619559e-04 +0.0000000000000000e+00 +9.9999992586795616e-01
6.8999999999999915e+00 +8.1516520331048188e+00 +0.0000000000000000e+00 +6.8999998244434444e+00 -3.9071319040013625e-04 +0.0000000000000000e+00 +9.9999992367159884e-01
6.9999999999999911e+00 +8.1516126786639767e+00 +0.0000000000000000e+00 +6.9999998166994502e+00 -3.9637562626752783e-04 +0.0000000000000000e+00 +9.9999992144317873e-01
7.0999999999999908e+00 +8.1515727579795971e+00 +0.0000000000000000e+00 +7.0999998087310114e+00 -4.0203806118475823e-04 +0.0000000000000000e+00 +9.9999991918269582e-01
7.1999999999999904e+00 +8.1515322710517673e+00 +0.0000000000000000e+00 +7.1999998005349211e+00 -4.0770049527145106e-04 +0.0000000000000000e+00 +9.9999991689015000e-01
7.2999999999999901e+00 +8.1514912178805652e+00 +0.0000000000000000e+00 +7.2999997921079727e+00 -4.1336292865046579e-04 +0.0000000000000000e+00 +9.9999991456554138e-01
7.3999999999999897e+00 +8.1514495984660567e+00 +0.0000000000000000e+00 +7.3999997834469609e+00 -4.1902536144789755e-04 +0.0000000000000000e+00 +9.9999991220886975e-01
7.4999999999999893e+00 +8.1514074128082914e+00 +0.0000000000000000e+00 +7.4999997745486784e+00 -4.2468779379307715e-04 +0.0000000000000000e+00 +9.9999990982013520e-01
7.5999999999999890e+00 +8.1513646609073085e+00 +0.0000000000000000e+00 +7.5999997654099190e+00 -4.3035022581857095e-04 +0.0000000000000000e+00 +9.9999990739933764e-01
7.6999999999999886e+00 +8.1513213427631328e+00 +0.0000000000000000e+00 +7.6999997560274771e+00 -4.3601265766018103e-04 +0.0000000000000000e+00 +9.9999990494647706e-01
7.7999999999999883e+00 +8.1512774583757768e+00 +0.0000000000000000e+00 +7.7999997463981456e+00 -4.4167508945694493e-04 +0.0000000000000000e+00 +9.9999990246155335e-01
7.8999999999999879e+00 +8.1512330077452386e+00 +0.0000000000000000e+00 +7.8999997365187191e+00 -4.4733752135113578e-04 +0.0000000000000000e+00 +9.9999989994456639e-01
7.9999999999999876e+00 +8.1511879908714988e+00 +0.0000000000000000e+00 +7.9999997263859903e+00 -4.5299995348826213e-04 +0.0000000000000000e+00 +9.9999989739551620e-01
8.0999999999999872e+00 +8.1511424077545271e+00 +0.0000000000000000e+00 +8.0999997159967538e+00 -4.5866238601660137e-04 +0.0000000000000000e+00 +9.9999989481440266e-01
8.1999999999999869e+00 +8.1510962583942774e+00 +0.0000000000000000e+00 +8.1999997053478033e+00 -4.6432481908206705e-04 +0.0000000000000000e+00 +9.9999989220122576e-01
8.2999999999999865e+00 +8.1510495427906875e+00 +0.0000000000000000e+00 +8.2999996944359307e+00 -4.6998725282307611e-04 +0.0000000000000000e+00 +9.9999988955598540e-01
8.3999999999999861e+00 +8.1510022609436845e+00 +0.0000000000000000e+00 +8.3999996832579313e+00 -4.7564968737008270e-04 +0.0000000000000000e+00 +9.9999988687868147e-01
8.4999999999999858e+00 +8.1509544128531815e+00 +0.0000000000000000e+00 +8.4999996718105990e+00 -4.8131212284557818e-04 +0.0000000000000000e+00 +9.9999988416931396e-01
8.5999999999999854e+00 +8.1509059985190806e+00 +0.0000000000000000e+00 +8.5999996600907256e+00 -4.8697455936409166e-04 +0.0000000000000000e+00 +9.9999988142788265e-01
8.6999999999999851e+00 +8.1508570179412700e+00 +0.0000000000000000e+00 +8.6999996480951065e+00 -4.9263699703219006e-04 +0.0000000000000000e+00 +9.9999987865438766e-01
8.7999999999999847e+00 +8.1508074711196326e+00 +0.0000000000000000e+00 +8.7999996358205337e+00 -4.9829943594847850e-04 +0.0000000000000000e+00 +9.9999987584882877e-01
8.8999999999999844e+00 +8.1507573580540367e+00 +0.0000000000000000e+00 +8.8999996232638026e+00 -5.0396187620360060e-04 +0.0000000000000000e+00 +9.9999987301120596e-01
8.9999999999999840e+00 +8.1507066787443438e+00 +0.0000000000000000e+00 +8.9999996104217068e+00 -5.0962431788023870e-04 +0.0000000000000000e+00 +9.9999987014151925e-01
9.0999999999999837e+00 +8.1506554331904102e+00 +0.0000000000000000e+00 +9.0999995972910384e+00 -5.1528676105311430e-04 +0.0000000000000000e+00 +9.9999986723976853e-01
9.1999999999999833e+00 +8.1506036213920812e+00 +0.0000000000000000e+00 +9.1999995838685908e+00 -5.2094920578898832e-04 +0.0000000000000000e+00 +9.9999986430595367e-01
9.2999999999999829e+00 +8.1505512433491987e+00 +0.0000000000000000e+00 +9.2999995701511597e+00 -5.2661165214666129e-04 +0.0000000000000000e+00 +9.9999986134007468e-01
9.3999999999999826e+00 +8.1504982990615957e+00 +0.0000000000000000e+00 +9.3999995561355369e+00 -5.3227410017697393e-04 +0.0000000000000000e+00 +9.9999985834213145e-01
9.4999999999999822e+00 +8.1504447885291054e+00 +0.0000000000000000e+00 +9.4999995418185161e+00 -5.3793654992280730e-04 +0.0000000000000000e+00 +9.9999985531212399e-01
9.5999999999999819e+00 +8.1503907117515535e+00 +0.0000000000000000e+00 +9.5999995271968928e+00 -5.4359900141908335e-04 +0.0000000000000000e+00 +9.9999985225005228e-01
9.6999999999999815e+00 +8.1503360687287625e+00 +0.0000000000000000e+00 +9.6999995122674587e+00 -5.4926145469276521e-04 +0.0000000000000000e+00 +9.9999984915591622e-01
9.7999999999999812e+00 +8.1502808594605547e+00 +0.0000000000000000e+00 +9.7999994970270077e+00 -5.5492390976285741e-04 +0.0000000000000000e+00 +9.9999984602971570e-01
9.8999999999999808e+00 +8.1502250839467489e+00 +0.0000000000000000e+00 +9.8999994814723333e+00 -5.6058636664040647e-04 +0.0000000000000000e+00 +9.9999984287145083e-01
9.9999999999999805e+00 +8.1501687421871658e+00 +0.0000000000000000e+00 +9.9999994656002293e+00 -5.6624882532850117e-04 +0.0000000000000000e+00 +9.9999983968112149e-01
1.0099999999999980e+01 +8.1501118341816241e+00 +0.0000000000000000e+00 +1.0099999449407489e+01 -5.7191128582247933e-04 +0.0000000000000000e+00 +9.9999983645872759e-01
1.0199999999999980e+01 +8.1500543599299426e+00 +0.0000000000000000e+00 +1.0199999432890907e+01 -5.7757374811219725e-04 +0.0000000000000000e+00 +9.9999983320426922e-01
1.0299999999999979e+01 +8.1499963194319420e+00 +0.0000000000000000e+00 +1.0299999416047275e+01 -5.8323621218429845e-04 +0.0000000000000000e+00 +9.9999982991774627e-01
1.0399999999999979e+01 +8.1499377126874464e+00 +0.0000000000000000e+00 +1.0399999398873387e+01 -5.8889867802241959e-04 +0.0000000000000000e+00 +9.9999982659915887e-01
1.0499999999999979e+01 +8.1498785396962798e+00 +0.0000000000000000e+00 +1.0499999381366038e+01 -5.9456114560719022e-04 +0.0000000000000000e+00 +9.9999982324850689e-01
1.0599999999999978e+01 +8.1498188004582683e+00 +0.0000000000000000e+00 +1.0599999363522020e+01 -6.0022361491623218e-04 +0.0000000000000000e+00 +9.9999981986579023e-01
1.0699999999999978e+01 +8.1497584949732396e+00 +0.0000000000000000e+00 +1.0699999345338128e+01 -6.0588608592415899e-04 +0.0000000000000000e+00 +9.9999981645100899e-01
1.0799999999999978e+01 +8.1496976232410265e+00 +0.0000000000000000e+00 +1.0799999326811154e+01 -6.1154855860257561e-04 +0.0000000000000000e+00 +9.9999981300416318e-01
1.0899999999999977e+01 +8.1496361852614640e+00 +0.0000000000000000e+00 +1.0899999307937891e+01 -6.1721103292007768e-04 +0.0000000000000000e+00 +9.9999980952525269e-01
1.0999999999999977e+01 +8.1495741810343887e+00 +0.0000000000000000e+00 +1.0999999288715134e+01 -6.2287350884225113e-04 +0.0000000000000000e+00 +9.9999980601427763e-01
1.1099999999999977e+01 +8.1495116105596423e+00 +0.0000000000000000e+00 +1.1099999269139678e+01 -6.2853598633167177e-04 +0.0000000000000000e+00 +9.9999980247123788e-01
1.1199999999999976e+01 +8.1494484738370705e+00 +0.0000000000000000e+00 +1.1199999249208314e+01 -6.3419846534790451e-04 +0.0000000000000000e+00 +9.9999979889613344e-01
1.1299999999999976e+01 +8.1493847708665221e+00 +0.0000000000000000e+00 +1.1299999228917837e+01 -6.3986094584750298e-04 +0.0000000000000000e+00 +9.9999979528896443e-01
1.1399999999999975e+01 +8.1493205016478516e+00 +0.0000000000000000e+00 +1.1399999208265040e+01 -6.4552342778400901e-04 +0.0000000000000000e+00 +9.9999979164973074e-01
1.1499999999999975e+01 +8.1492556661809186e+00 +0.0000000000000000e+00 +1.1499999187246715e+01 -6.5118591110795187e-04 +0.0000000000000000e+00 +9.9999978797843248e-01
1.1599999999999975e+01 +8.1491902644655863e+00 +0.0000000000000000e+00 +1.1599999165859657e+01 -6.5684839576684770e-04 +0.0000000000000000e+00 +9.9999978427506964e-01
1.1699999999999974e+01 +8.1491242965017232e+00 +0.0000000000000000e+00 +1.1699999144100660e+01 -6.6251088170519925e-04 +0.0000000000000000e+00 +9.9999978053964211e-01
1.1799999999999974e+01 +8.1490577622892051e+00 +0.0000000000000000e+00 +1.1799999121966517e+01 -6.6817336886449482e-04 +0.0000000000000000e+00 +9.9999977677215002e-01
