# field on trajectory
# s[mm] rx[mm] ry[mm] rz[mm] bx[T] by[T] bz[T]
0.0000000000000000e+00 +8.1649999999999991e+00 +0.0000000000000000e+00 +0.0000000000000000e+00 -2.7821070171550815e-02 -5.3659700086968709e-01 +5.3139559979442415e-03
-1.0000000000000001e-01 +8.1649997170443154e+00 +0.0000000000000000e+00 -9.9999999999466238e-02 -2.7821068636866189e-02 -5.3659709969748137e-01 +5.3140392691958709e-03
-2.0000000000000001e-01 +8.1649988681771930e+00 +0.0000000000000000e+00 -1.9999999999572993e-01 -2.7821064841183574e-02 -5.3659721544166183e-01 +5.3141240826336620e-03
-3.0000000000000004e-01 +8.1649974533985095e+00 +0.0000000000000000e+00 -2.9999999998558852e-01 -2.7821058723007684e-02 -5.3659734756915545e-01 +5.3142102889382273e-03
-4.0000000000000002e-01 +8.1649954727081244e+00 +0.0000000000000000e+00 -3.9999999996583940e-01 -2.7821050220840197e-02 -5.3659749554688874e-01 +5.3142977387890004e-03
-5.0000000000000000e-01 +8.1649929261058833e+00 +0.0000000000000000e+00 -4.9999999993328004e-01 -2.7821039273182194e-02 -5.3659765884178512e-01 +5.3143862828646526e-03
-5.9999999999999998e-01 +8.1649898135916121e+00 +0.0000000000000000e+00 -5.9999999988470787e-01 -2.7821025818536856e-02 -5.3659783692077034e-01 +5.3144757718435369e-03
-6.9999999999999996e-01 +8.1649861351651261e+00 +0.0000000000000000e+00 -6.9999999981692029e-01 -2.7821009795411942e-02 -5.3659802925077116e-01 +5.3145660564040999e-03
-7.9999999999999993e-01 +8.1649818908262208e+00 +0.0000000000000000e+00 -7.9999999972671476e-01 -2.7820991142322428e-02 -5.3659823529871975e-01 +5.3146569872253345e-03
-8.9999999999999991e-01 +8.1649770805746780e+00 +0.0000000000000000e+00 -8.9999999961088872e-01 -2.7820969797793037e-02 -5.3659845453155319e-01 +5.3147484149871811e-03
-9.9999999999999989e-01 +8.1649717044102683e+00 +0.0000000000000000e+00 -9.9999999946623963e-01 -2.7820945700360838e-02 -5.3659868641621611e-01 +5.3148401903709780e-03
-1.0999999999999999e+00 +8.1649657623327467e+00 +0.0000000000000000e+00 -1.0999999992895648e+00 -2.7820918788577807e-02 -5.3659893041966256e-01 +5.3149321640598851e-03
-1.2000000000000000e+00 +8.1649592543418574e+00 +0.0000000000000000e+00 -1.1999999990776617e+00 -2.7820889001013423e-02 -5.3659918600885692e-01 +5.3150241867393018e-03
-1.3000000000000000e+00 +8.1649521804373304e+00 +0.0000000000000000e+00 -1.2999999988273276e+00 -2.7820856276257216e-02 -5.3659945265077658e-01 +5.3151161090973223e-03
-1.4000000000000001e+00 +8.1649445406188832e+00 +0.0000000000000000e+00 -1.3999999985353602e+00 -2.7820820552921299e-02 -5.3659972981241211e-01 +5.3152077818251330e-03
-1.5000000000000002e+00 +8.1649363348862263e+00 +0.0000000000000000e+00 -1.4999999981985566e+00 -2.7820781769643074e-02 -5.3660001696077053e-01 +5.3152990556174645e-03
-1.6000000000000003e+00 +8.1649275632390559e+00 +0.0000000000000000e+00 -1.5999999978137143e+00 -2.7820739865087655e-02 -5.3660031356287641e-01 +5.3153897811730137e-03
-1.7000000000000004e+00 +8.1649182256770594e+00 +0.0000000000000000e+00 -1.6999999973776305e+00 -2.7820694777950541e-02 -5.3660061908577239e-01 +5.3154798091948705e-03
-1.8000000000000005e+00 +8.1649083221999152e+00 +0.0000000000000000e+00 -1.7999999968871028e+00 -2.7820646446960123e-02 -5.3660093299652345e-01 +5.3155689903909443e-03
-1.9000000000000006e+00 +8.1648978528072931e+00 +0.0000000000000000e+00 -1.8999999963389285e+00 -2.7820594810880322e-02 -5.3660125476221487e-01 +5.3156571754744090e-03
-2.0000000000000004e+00 +8.1648868174988536e+00 +0.0000000000000000e+00 -1.9999999957299048e+00 -2.7820539808513116e-02 -5.3660158384995815e-01 +5.3157442151641147e-03
-2.1000000000000005e+00 +8.1648752162742486e+00 +0.0000000000000000e+00 -2.0999999950568293e+00 -2.7820481416501164e-02 -5.3660191970183135e-01 +5.3158300122337415e-03
-2.2000000000000006e+00 +8.1648630491331264e+00 +0.0000000000000000e+00 -2.1999999943164994e+00 -2.7820419762713159e-02 -5.3660226165969982e-01 +5.3159146776561332e-03
-2.3000000000000007e+00 +8.1648503160751265e+00 +0.0000000000000000e+00 -2.2999999935057120e+00 -2.7820355012813200e-02 -5.3660260904037194e-01 +5.3159983744532728e-03
-2.4000000000000008e+00 +8.1648370170998827e+00 +0.0000000000000000e+00 -2.3999999926212650e+00 -2.7820287332453227e-02 -5.3660296116065354e-01 +5.3160812656466517e-03
-2.5000000000000009e+00 +8.1648231522070240e+00 +0.0000000000000000e+00 -2.4999999916599553e+00 -2.7820216887269461e-02 -5.3660331733734556e-01 +5.3161635142569197e-03
-2.6000000000000010e+00 +8.1648087213961755e+00 +0.0000000000000000e+00 -2.5999999906185804e+00 -2.7820143842879064e-02 -5.3660367688724164e-01 +5.3162452833035237e-03
-2.7000000000000011e+00 +8.1647937246669589e+00 +0.0000000000000000e+00 -2.6999999894939375e+00 -2.7820068364876504e-02 -5.3660403912712940e-01 +5.3163267358043546e-03
-2.8000000000000012e+00 +8.1647781620189921e+00 +0.0000000000000000e+00 -2.7999999882828241e+00 -2.7819990618830205e-02 -5.3660440337378468e-01 +5.3164080347753743e-03
-2.9000000000000012e+00 +8.1647620334518916e+00 +0.0000000000000000e+00 -2.8999999869820372e+00 -2.7819910770278962e-02 -5.3660476894397302e-01 +5.3164893432302695e-03
-3.0000000000000013e+00 +8.1647453389652718e+00 +0.0000000000000000e+00 -2.9999999855883743e+00 -2.7819828984728564e-02 -5.3660513515444641e-01 +5.3165708241800884e-03
-3.1000000000000014e+00 +8.1647280785587473e+00 +0.0000000000000000e+00 -3.0999999840986328e+00 -2.7819745427648215e-02 -5.3660550132194162e-01 +5.3166526406328756e-03
-3.2000000000000015e+00 +8.1647102522319326e+00 +0.0000000000000000e+00 -3.1999999825096097e+00 -2.7819660264467118e-02 -5.3660586676318001e-01 +5.3167349555933302e-03
-3.3000000000000016e+00 +8.1646918599844440e+00 +0.0000000000000000e+00 -3.2999999808181024e+00 -2.7819573660570970e-02 -5.3660623079486280e-01 +5.3168179320624174e-03
-3.4000000000000017e+00 +8.1646729018158979e+00 +0.0000000000000000e+00 -3.3999999790209081e+00 -2.7819485781298489e-02 -5.3660659273367306e-01 +5.3169017330370397e-03
-3.5000000000000018e+00 +8.1646533777259123e+00 +0.0000000000000000e+00 -3.4999999771148240e+00 -2.7819396791937935e-02 -5.3660695189627128e-01 +5.3169865215096585e-03
-3.6000000000000019e+00 +8.1646332877141106e+00 +0.0000000000000000e+00 -3.5999999750966478e+00 -2.7819306857723644e-02 -5.3660730759929398e-01 +5.3170724604679415e-03
-3.7000000000000020e+00 +8.1646126317801162e+00 +0.0000000000000000e+00 -3.6999999729631763e+00 -2.7819216143832499e-02 -5.3660765915935416e-01 +5.3171597128943999e-03
-3.8000000000000020e+00 +8.1645914099235615e+00 +0.0000000000000000e+00 -3.7999999707112067e+00 -2.7819124815380510e-02 -5.3660800589303648e-01 +5.3172484417660362e-03
-3.9000000000000021e+00 +8.1645696221440804e+00 +0.0000000000000000e+00 -3.8999999683375366e+00 -2.7819033037419307e-02 -5.3660834711689775e-01 +5.3173388100539766e-03
-4.0000000000000018e+00 +8.1645472684413143e+00 +0.0000000000000000e+00 -3.9999999658389629e+00 -2.7818940974932666e-02 -5.3660868214746482e-01 +5.3174309807231153e-03
-4.1000000000000014e+00 +8.1645243488149095e+00 +0.0000000000000000e+00 -4.0999999632122828e+00 -2.7818848799836166e-02 -5.3660901049521403e-01 +5.3175250808348631e-03
-4.2000000000000011e+00 +8.1645008632645215e+00 +0.0000000000000000e+00 -4.1999999604542939e+00 -2.7818756712008497e-02 -5.3660933244652820e-01 +5.3176210938575188e-03
-4.3000000000000007e+00 +8.1644768117898110e+00 +0.0000000000000000e+00 -4.2999999575617931e+00 -2.7818664918324916e-02 -5.3660964848177539e-01 +5.3177189673595119e-03
-4.4000000000000004e+00 +8.1644521943904440e+00 +0.0000000000000000e+00 -4.3999999545315776e+00 -2.7818573625661216e-02 -5.3660995908133158e-01 +5.3178186489066777e-03
-4.5000000000000000e+00 +8.1644270110660955e+00 +0.0000000000000000e+00 -4.4999999513604454e+00 -2.7818483040894876e-02 -5.3661026472557904e-01 +5.3179200860621629e-03
-4.5999999999999996e+00 +8.1644012618164439e+00 +0.0000000000000000e+00 -4.5999999480451930e+00 -2.7818393370906129e-02 -5.3661056589491019e-01 +5.3180232263863626e-03
-4.6999999999999993e+00 +8.1643749466411712e+00 +0.0000000000000000e+00 -4.6999999445826175e+00 -2.7818304822579083e-02 -5.3661086306972550e-01 +5.3181280174368368e-03
-4.7999999999999989e+00 +8.1643480655399667e+00 +0.0000000000000000e+00 -4.7999999409695162e+00 -2.7818217602802779e-02 -5.3661115673043625e-01 +5.3182344067682283e-03
-4.8999999999999986e+00 +8.1643206185125194e+00 +0.0000000000000000e+00 -4.8999999372026863e+00 -2.7818131918472325e-02 -5.3661144735746469e-01 +5.3183423419321902e-03
-4.9999999999999982e+00 +8.1642926055585257e+00 +0.0000000000000000e+00 -4.9999999332789251e+00 -2.7818047976489985e-02 -5.3661173543124430e-01 +5.3184517704773122e-03
-5.0999999999999979e+00 +8.1642640266776816e+00 +0.0000000000000000e+00 -5.0999999291950298e+00 -2.7817965983766235e-02 -5.3661202143222075e-01 +5.3185626399490371e-03
-5.1999999999999975e+00 +8.1642348818696853e+00 +0.0000000000000000e+00 -5.1999999249477975e+00 -2.7817886147220913e-02 -5.3661230584085384e-01 +5.3186748978895793e-03
-5.2999999999999972e+00 +8.1642051711342400e+00 +0.0000000000000000e+00 -5.2999999205340247e+00 -2.7817808673784260e-02 -5.3661258913761589e-01 +5.3187884918378574e-03
-5.3999999999999968e+00 +8.1641748944710457e+00 +0.0000000000000000e+00 -5.3999999159505094e+00 -2.7817733770398097e-02 -5.3661287180299455e-01 +5.3189033693294098e-03
-5.4999999999999964e+00 +8.1641440518798056e+00 +0.0000000000000000e+00 -5.4999999111940490e+00 -2.7817661644016813e-02 -5.3661315431749324e-01 +5.3190194778963218e-03
-5.5999999999999961e+00 +8.1641126433602231e+00 +0.0000000000000000e+00 -5.5999999062614396e+00 -2.7817592501608545e-02 -5.3661343716163046e-01 +5.3191367650671376e-03
-5.6999999999999957e+00 +8.1640806689120016e+00 +0.0000000000000000e+00 -5.6999999011494795e+00 -2.7817526550156228e-02 -5.3661372081594250e-01 +5.3192551783667972e-03
-5.7999999999999954e+00 +8.1640481285348425e+00 +0.0000000000000000e+00 -5.7999998958549650e+00 -2.7817463996658728e-02 -5.3661400576098273e-01 +5.3193746653165466e-03
-5.8999999999999950e+00 +8.1640150222284458e+00 +0.0000000000000000e+00 -5.8999998903746942e+00 -2.7817405048131905e-02 -5.3661429247732340e-01 +5.3194951734338719e-03
-5.9999999999999947e+00 +8.1639813499925111e+00 +0.0000000000000000e+00 -5.9999998847054634e+00 -2.7817349911609685e-02 -5.3661458144555529e-01 +5.3196166502324097e-03
-6.0999999999999943e+00 +8.1639471118267330e+00 +0.0000000000000000e+00 -6.0999998788440699e+00 -2.7817298849886263e-02 -5.3661487306021982e-01 +5.3197390337473239e-03
-6.1999999999999940e+00 +8.1639123077308060e+00 +0.0000000000000000e+00 -6.1999998727873109e+00 -2.7817252348746876e-02 -5.3661516737158110e-01 +5.3198622241162185e-03
-6.2999999999999936e+00 +8.1638769377044209e+00 +0.0000000000000000e+00 -6.2999998665319836e+00 -2.7817210949756633e-02 -5.3661546434380902e-01 +5.3199861120113937e-03
-6.3999999999999932e+00 +8.1638410017472669e+00 +0.0000000000000000e+00 -6.3999998600748853e+00 -2.7817175194522363e-02 -5.3661576394104238e-01 +5.3201105881161455e-03
-6.4999999999999929e+00 +8.1638044998590278e+00 +0.0000000000000000e+00 -6.4999998534128123e+00 -2.7817145624694489e-02 -5.3661606612738844e-01 +5.3202355431252613e-03
-6.5999999999999925e+00 +8.1637674320393856e+00 +0.0000000000000000e+00 -6.5999998465425627e+00 -2.7817122781968826e-02 -5.3661637086692204e-01 +5.3203608677455253e-03
-6.6999999999999922e+00 +8.1637297982880206e+00 +0.0000000000000000e+00 -6.6999998394609328e+00 -2.7817107208088450e-02 -5.3661667812368419e-01 +5.3204864526962279e-03
-6.7999999999999918e+00 +8.1636915986046112e+00 +0.0000000000000000e+00 -6.7999998321647199e+00 -2.7817099444845492e-02 -5.3661698786168033e-01 +5.3206121887096657e-03
-6.8999999999999915e+00 +8.1636528329888307e+00 +0.0000000000000000e+00 -6.8999998246507213e+00 -2.7817100034082980e-02 -5.3661730004487940e-01 +5.3207379665316575e-03
-6.9999999999999911e+00 +8.1636135014403504e+00 +0.0000000000000000e+00 -6.9999998169157340e+00 -2.7817109517696673e-02 -5.3661761463721236e-01 +5.3208636769220248e-03
-7.0999999999999908e+00 +8.1635736039588416e+00 +0.0000000000000000e+00 -7.0999998089565555e+00 -2.7817128437636885e-02 -5.3661793160257165e-01 +5.3209892106551278e-03
-7.1999999999999904e+00 +8.1635331405439704e+00 +0.0000000000000000e+00 -7.1999998007699819e+00 -2.7817157335910291e-02 -5.3661825090480963e-01 +5.3211144585203476e-03
-7.2999999999999901e+00 +8.1634921111954011e+00 +0.0000000000000000e+00 -7.2999997923528106e+00 -2.7817196754581788e-02 -5.3661857250773548e-01 +5.3212393113225990e-03
-7.3999999999999897e+00 +8.1634505159127961e+00 +0.0000000000000000e+00 -7.3999997837018388e+00 -2.7817247235776273e-02 -5.3661889637511750e-01 +5.3213636598828306e-03
-7.4999999999999893e+00 +8.1634083546958145e+00 +0.0000000000000000e+00 -7.4999997748138636e+00 -2.7817309321680535e-02 -5.3661922247067850e-01 +5.3214873950385459e-03
-7.5999999999999890e+00 +8.1633656275441151e+00 +0.0000000000000000e+00 -7.5999997656856824e+00 -2.7817383554545029e-02 -5.3661955075809697e-01 +5.3216104076442804e-03
-7.6999999999999886e+00 +8.1633223344573516e+00 +0.0000000000000000e+00 -7.6999997563140914e+00 -2.7817470476685705e-02 -5.3661988120100423e-01 +5.3217325885721364e-03
-7.7999999999999883e+00 +8.1632784754351775e+00 +0.0000000000000000e+00 -7.7999997466958888e+00 -2.7817570630485816e-02 -5.3662021376298352e-01 +5.3218538287122625e-03
-7.8999999999999879e+00 +8.1632340504772429e+00 +0.0000000000000000e+00 -7.8999997368278700e+00 -2.7817684558397789e-02 -5.3662054840756956e-01 +5.3219740189733803e-03
-7.9999999999999876e+00 +8.1631890595831980e+00 +0.0000000000000000e+00 -7.9999997267068332e+00 -2.7817812802945024e-02 -5.3662088509824646e-01 +5.3220930502832706e-03
-8.0999999999999872e+00 +8.1631435027526873e+00 +0.0000000000000000e+00 -8.0999997163295756e+00 -2.7817955548654651e-02 -5.3662122387079636e-01 +5.3222108457038342e-03
-8.1999999999999869e+00 +8.1630973799853557e+00 +0.0000000000000000e+00 -8.1999997056928926e+00 -2.7818111547804714e-02 -5.3662156505038650e-01 +5.3223274567648290e-03
-8.2999999999999865e+00 +8.1630506912808460e+00 +0.0000000000000000e+00 -8.2999996947935823e+00 -2.7818279194574396e-02 -5.3662190903458151e-01 +5.3224429670997025e-03
-8.3999999999999861e+00 +8.1630034366387960e+00 +0.0000000000000000e+00 -8.3999996836284421e+00 -2.7818456883108768e-02 -5.3662225622100479e-01 +5.3225574603271639e-03
-8.4999999999999858e+00 +8.1629556160588397e+00 +0.0000000000000000e+00 -8.4999996721942690e+00 -2.7818643007517227e-02 -5.3662260700733944e-01 +5.3226710200506341e-03
-8.5999999999999854e+00 +8.1629072295406111e+00 +0.0000000000000000e+00 -8.5999996604878586e+00 -2.7818835961872072e-02 -5.3662296179133062e-01 +5.3227837298577031e-03
-8.6999999999999851e+00 +8.1628582770837355e+00 +0.0000000000000000e+00 -8.6999996485060098e+00 -2.7819034140207029e-02 -5.3662332097078791e-01 +5.3228956733195748e-03
-8.7999999999999847e+00 +8.1628087586878362e+00 +0.0000000000000000e+00 -8.7999996362455182e+00 -2.7819235936515786e-02 -5.3662368494358714e-01 +5.3230069339905133e-03
-8.8999999999999844e+00 +8.1627586743525313e+00 +0.0000000000000000e+00 -8.8999996237031809e+00 -2.7819439744750547e-02 -5.3662405410767255e-01 +5.3231175954073064e-03
-8.9999999999999840e+00 +8.1627080240774319e+00 +0.0000000000000000e+00 -8.9999996108757951e+00 -2.7819643958820559e-02 -5.3662442886105866e-01 +5.3232277410887041e-03
-9.0999999999999837e+00 +8.1626568078621453e+00 +0.0000000000000000e+00 -9.0999995977601564e+00 -2.7819846972590649e-02 -5.3662480960183268e-01 +5.3233374545348785e-03
-9.1999999999999833e+00 +8.1626050257062719e+00 +0.0000000000000000e+00 -9.1999995843530638e+00 -2.7820047179879785e-02 -5.3662519672815634e-01 +5.3234468192268737e-03
-9.2999999999999829e+00 +8.1625526776094048e+00 +0.0000000000000000e+00 -9.2999995706513126e+00 -2.7820242974459605e-02 -5.3662559063826820e-01 +5.3235559186260535e-03
-9.3999999999999826e+00 +8.1624997635711303e+00 +0.0000000000000000e+00 -9.3999995566517001e+00 -2.7820432750052981e-02 -5.3662599173048497e-01 +5.3236648361735502e-03
-9.4999999999999822e+00 +8.1624462835910272e+00 +0.0000000000000000e+00 -9.4999995423510235e+00 -2.7820614900332531e-02 -5.3662640040320475e-01 +5.3237736552897222e-03
-9.5999999999999819e+00 +8.1623922376686657e+00 +0.0000000000000000e+00 -9.5999995277460801e+00 -2.7820787818919192e-02 -5.3662681705490822e-01 +5.3238824593736037e-03
-9.6999999999999815e+00 +8.1623376258036071e+00 +0.0000000000000000e+00 -9.6999995128336671e+00 -2.7820949899380748e-02 -5.3662724208416124e-01 +5.3239913318023462e-03
-9.7999999999999812e+00 +8.1622824479954073e+00 +0.0000000000000000e+00 -9.7999994976105800e+00 -2.7821099535230428e-02 -5.3662767588961602e-01 +5.3241003559306842e-03
-9.8999999999999808e+00 +8.1622267042436079e+00 +0.0000000000000000e+00 -9.8999994820736159e+00 -2.7821235119925368e-02 -5.3662811887001449e-01 +5.3242096150903787e-03
-9.9999999999999805e+00 +8.1621703945477453e+00 +0.0000000000000000e+00 -9.9999994662195721e+00 -2.7821355046865240e-02 -5.3662857142418940e-01 +5.3243191925896587e-03
-1.0099999999999980e+01 +8.1621135189073435e+00 +0.0000000000000000e+00 -1.0099999450045246e+01 -2.7821458175483878e-02 -5.3662903378538362e-01 +5.3244291509960649e-03
-1.0199999999999980e+01 +8.1620560773219157e+00 +0.0000000000000000e+00 -1.0199999433547433e+01 -2.7821545229574775e-02 -5.3662950552414501e-01 +5.3245394699970392e-03
-1.0299999999999979e+01 +8.1619980697909682e+00 +0.0000000000000000e+00 -1.0299999416722930e+01 -2.7821617399027644e-02 -5.3662998604529677e-01 +5.3246501085720361e-03
-1.0399999999999979e+01 +8.1619394963139946e+00 +0.0000000000000000e+00 -1.0399999399568534e+01 -2.7821675873724680e-02 -5.3663047475361203e-01 +5.3247610257132379e-03
-1.0499999999999979e+01 +8.1618803568904834e+00 +0.0000000000000000e+00 -1.0499999382081041e+01 -2.7821721843540401e-02 -5.3663097105381463e-01 +5.3248721804259116e-03
-1.0599999999999978e+01 +8.1618206515199105e+00 +0.0000000000000000e+00 -1.0599999364257251e+01 -2.7821756498341524e-02 -5.3663147435057423e-01 +5.3249835317287835e-03
-1.0699999999999978e+01 +8.1617603802017484e+00 +0.0000000000000000e+00 -1.0699999346093957e+01 -2.7821781027986811e-02 -5.3663198404850843e-01 +5.3250950386544019e-03
-1.0799999999999978e+01 +8.1616995429354624e+00 +0.0000000000000000e+00 -1.0799999327587956e+01 -2.7821796622326898e-02 -5.3663249955217829e-01 +5.3252066602495060e-03
-1.0899999999999977e+01 +8.1616381397205089e+00 +0.0000000000000000e+00 -1.0899999308736048e+01 -2.7821804471204206e-02 -5.3663302026608906e-01 +5.3253183555753945e-03
-1.0999999999999977e+01 +8.1615761705563425e+00 +0.0000000000000000e+00 -1.0999999289535026e+01 -2.7821805764452718e-02 -5.3663354559468668e-01 +5.3254300837082885e-03
-1.1099999999999977e+01 +8.1615136354424109e+00 +0.0000000000000000e+00 -1.1099999269981689e+01 -2.7821801691897890e-02 -5.3663407494235849e-01 +5.3255418037396942e-03
-1.1199999999999976e+01 +8.1614505343781563e+00 +0.0000000000000000e+00 -1.1199999250072832e+01 -2.7821793443356491e-02 -5.3663460771343008e-01 +5.3256534747767870e-03
-1.1299999999999976e+01 +8.1613868673630208e+00 +0.0000000000000000e+00 -1.1299999229805252e+01 -2.7821782208636413e-02 -5.3663514331216433e-01 +5.3257650559427536e-03
-1.1399999999999975e+01 +8.1613226343964413e+00 +0.0000000000000000e+00 -1.1399999209175746e+01 -2.7821769177536586e-02 -5.3663568114276028e-01 +5.3258765063771826e-03
-1.1499999999999975e+01 +8.1612578354778513e+00 +0.0000000000000000e+00 -1.1499999188181111e+01 -2.7821755539846768e-02 -5.3663622060935146e-01 +5.3259877852364157e-03
-1.1599999999999975e+01 +8.1611924706066858e+00 +0.0000000000000000e+00 -1.1599999166818144e+01 -2.7821742485347446e-02 -5.3663676111600356e-01 +5.3260988516939242e-03
-1.1699999999999974e+01 +8.1611265397823765e+00 +0.0000000000000000e+00 -1.1699999145083639e+01 -2.7821731203809621e-02 -5.3663730206671489e-01 +5.3262096649406678e-03
