# trajectory
# s[mm] rx[mm] ry[mm] rz[mm] px[rad] py[rad] pz[rad]
0.0000000000000000e+00 +8.1529999999999987e+00 +0.0000000000000000e+00 +0.0000000000000000e+00 +0.0000000000000000e+00 +0.0000000000000000e+00 +1.0000000000000000e+00
1.0000000000000001e-01 +8.1529997169522712e+00 +0.0000000000000000e+00 +9.9999999999465905e-02 -5.6609547402256193e-06 +0.0000000000000000e+00 +9.9999999998397682e-01
2.0000000000000001e-01 +8.1529988678090071e+00 +0.0000000000000000e+00 +1.9999999999572715e-01 -1.1321910772883868e-05 +0.0000000000000000e+00 +9.9999999993590716e-01
3.0000000000000004e-01 +8.1529974525700677e+00 +0.0000000000000000e+00 +2.9999999998557914e-01 -1.6982868285990868e-05 +0.0000000000000000e+00 +9.9999999985579113e-01
4.0000000000000002e-01 +8.1529954712352950e+00 +0.0000000000000000e+00 +3.9999999996581714e-01 -2.2643827464294925e-05 +0.0000000000000000e+00 +9.9999999974362863e-01
5.0000000000000000e-01 +8.1529929238045131e+00 +0.0000000000000000e+00 +4.9999999993323663e-01 -2.8304788489276589e-05 +0.0000000000000000e+00 +9.9999999959941954e-01
5.9999999999999998e-01 +8.1529898102775284e+00 +0.0000000000000000e+00 +5.9999999988463282e-01 -3.3965751539148721e-05 +0.0000000000000000e+00 +9.9999999942316398e-01
6.9999999999999996e-01 +8.1529861306541314e+00 +0.0000000000000000e+00 +6.9999999981680117e-01 -3.9626716788856558e-05 +0.0000000000000000e+00 +9.9999999921486182e-01
7.9999999999999993e-01 +8.1529818849340927e+00 +0.0000000000000000e+00 +7.9999999972653701e-01 -4.5287684410077753e-05 +0.0000000000000000e+00 +9.9999999897451297e-01
8.9999999999999991e-01 +8.1529770731171656e+00 +0.0000000000000000e+00 +8.9999999961063559e-01 -5.0948654571222421e-05 +0.0000000000000000e+00 +9.9999999870211742e-01
9.9999999999999989e-01 +8.1529716952030888e+00 +0.0000000000000000e+00 +9.9999999946589224e-01 -5.6609627437433179e-05 +0.0000000000000000e+00 +9.9999999839767517e-01
1.0999999999999999e+00 +8.1529657511915836e+00 +0.0000000000000000e+00 +1.0999999992891023e+00 -6.2270603170585159e-05 +0.0000000000000000e+00 +9.9999999806118611e-01
1.2000000000000000e+00 +8.1529592410823550e+00 +0.0000000000000000e+00 +1.1999999990770611e+00 -6.7931581929286033e-05 +0.0000000000000000e+00 +9.9999999769265024e-01
1.3000000000000000e+00 +8.1529521648750922e+00 +0.0000000000000000e+00 +1.2999999988265640e+00 -7.3592563868876053e-05 +0.0000000000000000e+00 +9.9999999729206746e-01
1.4000000000000001e+00 +8.1529445225694701e+00 +0.0000000000000000e+00 +1.3999999985344063e+00 -7.9253549141428044e-05 +0.0000000000000000e+00 +9.9999999685943763e-01
1.5000000000000002e+00 +8.1529363141651476e+00 +0.0000000000000000e+00 +1.4999999981973833e+00 -8.4914537895747360e-05 +0.0000000000000000e+00 +9.9999999639476078e-01
1.6000000000000003e+00 +8.1529275396617695e+00 +0.0000000000000000e+00 +1.5999999978122903e+00 -9.0575530277371959e-05 +0.0000000000000000e+00 +9.9999999589803679e-01
1.7000000000000004e+00 +8.1529181990589663e+00 +0.0000000000000000e+00 +1.6999999973759226e+00 -9.6236526428572315e-05 +0.0000000000000000e+00 +9.9999999536926565e-01
1.8000000000000005e+00 +8.1529082923563543e+00 +0.0000000000000000e+00 +1.7999999968850753e+00 -1.0189752648835144e-04 +0.0000000000000000e+00 +9.9999999480844726e-01
1.9000000000000006e+00 +8.1528978195535338e+00 +0.0000000000000000e+00 +1.8999999963365437e+00 -1.0755853059244483e-04 +0.0000000000000000e+00 +9.9999999421558150e-01
2.0000000000000004e+00 +8.1528867806500962e+00 +0.0000000000000000e+00 +1.9999999957271233e+00 -1.1321953887332047e-04 +0.0000000000000000e+00 +9.9999999359066827e-01
2.1000000000000005e+00 +8.1528751756456153e+00 +0.0000000000000000e+00 +2.0999999950536092e+00 -1.1888055146030007e-04 +0.0000000000000000e+00 +9.9999999293370745e-01
2.2000000000000006e+00 +8.1528630045396557e+00 +0.0000000000000000e+00 +2.1999999943127966e+00 -1.2454156848089399e-04 +0.0000000000000000e+00 +9.9999999224469904e-01
2.3000000000000007e+00 +8.1528502673317664e+00 +0.0000000000000000e+00 +2.2999999935014808e+00 -1.3020259006213606e-04 +0.0000000000000000e+00 +9.9999999152364294e-01
2.4000000000000008e+00 +8.1528369640214855e+00 +0.0000000000000000e+00 +2.3999999926164568e+00 -1.3586361633070496e-04 +0.0000000000000000e+00 +9.9999999077053903e-01
2.5000000000000009e+00 +8.1528230946083386e+00 +0.0000000000000000e+00 +2.4999999916545201e+00 -1.4152464741292432e-04 +0.0000000000000000e+00 +9.9999998998538719e-01
2.6000000000000010e+00 +8.1528086590918374e+00 +0.0000000000000000e+00 +2.5999999906124658e+00 -1.4718568343476268e-04 +0.0000000000000000e+00 +9.9999998916818744e-01
2.7000000000000011e+00 +8.1527936574714825e+00 +0.0000000000000000e+00 +2.6999999894870892e+00 -1.5284672452183358e-04 +0.0000000000000000e+00 +9.9999998831893955e-01
2.8000000000000012e+00 +8.1527780897467608e+00 +0.0000000000000000e+00 +2.7999999882751854e+00 -1.5850777079939556e-04 +0.0000000000000000e+00 +9.9999998743764340e-01
2.9000000000000012e+00 +8.1527619559171463e+00 +0.0000000000000000e+00 +2.8999999869735498e+00 -1.6416882239235229e-04 +0.0000000000000000e+00 +9.9999998652429900e-01
3.0000000000000013e+00 +8.1527452559821008e+00 +0.0000000000000000e+00 +2.9999999855789770e+00 -1.6982987942525254e-04 +0.0000000000000000e+00 +9.9999998557890613e-01
3.1000000000000014e+00 +8.1527279899410754e+00 +0.0000000000000000e+00 +3.0999999840882624e+00 -1.7549094202229024e-04 +0.0000000000000000e+00 +9.9999998460146466e-01
3.2000000000000015e+00 +8.1527101577935071e+00 +0.0000000000000000e+00 +3.1999999824982015e+00 -1.8115201030730459e-04 +0.0000000000000000e+00 +9.9999998359197462e-01
3.3000000000000016e+00 +8.1526917595388202e+00 +0.0000000000000000e+00 +3.2999999808055893e+00 -1.8681308440378008e-04 +0.0000000000000000e+00 +9.9999998255043576e-01
3.4000000000000017e+00 +8.1526727951764286e+00 +0.0000000000000000e+00 +3.3999999790072204e+00 -1.9247416443484659e-04 +0.0000000000000000e+00 +9.9999998147684799e-01
3.5000000000000018e+00 +8.1526532647057319e+00 +0.0000000000000000e+00 +3.4999999770998906e+00 -1.9813525052327937e-04 +0.0000000000000000e+00 +9.9999998037121118e-01
3.6000000000000019e+00 +8.1526331681261190e+00 +0.0000000000000000e+00 +3.5999999750803946e+00 -2.0379634279149922e-04 +0.0000000000000000e+00 +9.9999997923352524e-01
3.7000000000000020e+00 +8.1526125054369647e+00 +0.0000000000000000e+00 +3.6999999729455273e+00 -2.0945744136157248e-04 +0.0000000000000000e+00 +9.9999997806379004e-01
3.8000000000000020e+00 +8.1525912766376329e+00 +0.0000000000000000e+00 +3.7999999706920842e+00 -2.1511854635521114e-04 +0.0000000000000000e+00 +9.9999997686200537e-01
3.9000000000000021e+00 +8.1525694817274754e+00 +0.0000000000000000e+00 +3.8999999683168602e+00 -2.2077965789377290e-04 +0.0000000000000000e+00 +9.9999997562817111e-01
4.0000000000000018e+00 +8.1525471207058313e+00 +0.0000000000000000e+00 +3.9999999658166501e+00 -2.2644077609826129e-04 +0.0000000000000000e+00 +9.9999997436228716e-01
4.1000000000000014e+00 +8.1525241935720292e+00 +0.0000000000000000e+00 +4.0999999631882496e+00 -2.3210190108889154e-04 +0.0000000000000000e+00 +9.9999997306435340e-01
4.2000000000000011e+00 +8.1525007003253833e+00 +0.0000000000000000e+00 +4.1999999604284532e+00 -2.3776303298031438e-04 +0.0000000000000000e+00 +9.9999997173436972e-01
4.3000000000000007e+00 +8.1524766409651992e+00 +0.0000000000000000e+00 +4.2999999575340553e+00 -2.4342417187683989e-04 +0.0000000000000000e+00 +9.9999997037233590e-01
4.4000000000000004e+00 +8.1524520154907716e+00 +0.0000000000000000e+00 +4.3999999545018520e+00 -2.4908531787200304e-04 +0.0000000000000000e+00 +9.9999996897825183e-01
4.5000000000000000e+00 +8.1524268239013864e+00 +0.0000000000000000e+00 +4.4999999513286379e+00 -2.5474647104856368e-04 +0.0000000000000000e+00 +9.9999996755211729e-01
4.5999999999999996e+00 +8.1524010661963207e+00 +0.0000000000000000e+00 +4.5999999480112077e+00 -2.6040763147850619e-04 +0.0000000000000000e+00 +9.9999996609393227e-01
4.6999999999999993e+00 +8.1523747423748461e+00 +0.0000000000000000e+00 +4.6999999445463558e+00 -2.6606879922303942e-04 +0.0000000000000000e+00 +9.9999996460369656e-01
4.7999999999999989e+00 +8.1523478524362289e+00 +0.0000000000000000e+00 +4.7999999409308787e+00 -2.7172997433259650e-04 +0.0000000000000000e+00 +9.9999996308141004e-01
4.8999999999999986e+00 +8.1523203963797322e+00 +0.0000000000000000e+00 +4.8999999371615699e+00 -2.7739115684683455e-04 +0.0000000000000000e+00 +9.9999996152707249e-01
4.9999999999999982e+00 +8.1522923742046114e+00 +0.0000000000000000e+00 +4.9999999332352250e+00 -2.8305234679463457e-04 +0.0000000000000000e+00 +9.9999995994068391e-01
5.0999999999999979e+00 +8.1522637859101241e+00 +0.0000000000000000e+00 +5.0999999291486384e+00 -2.8871354419410109e-04 +0.0000000000000000e+00 +9.9999995832224409e-01
5.1999999999999975e+00 +8.1522346314955243e+00 +0.0000000000000000e+00 +5.1999999248986057e+00 -2.9437474905256213e-04 +0.0000000000000000e+00 +9.9999995667175290e-01
5.2999999999999972e+00 +8.1522049109600658e+00 +0.0000000000000000e+00 +5.2999999204819206e+00 -3.0003596136656880e-04 +0.0000000000000000e+00 +9.9999995498921024e-01
5.3999999999999968e+00 +8.1521746243030027e+00 +0.0000000000000000e+00 +5.3999999158953793e+00 -3.0569718112189500e-04 +0.0000000000000000e+00 +9.9999995327461599e-01
5.4999999999999964e+00 +8.1521437715235940e+00 +0.0000000000000000e+00 +5.4999999111357756e+00 -3.1135840829353729e-04 +0.0000000000000000e+00 +9.9999995152796994e-01
5.5999999999999961e+00 +8.1521123526210992e+00 +0.0000000000000000e+00 +5.5999999061999048e+00 -3.1701964284571463e-04 +0.0000000000000000e+00 +9.9999994974927209e-01
5.6999999999999957e+00 +8.1520803675947811e+00 +0.0000000000000000e+00 +5.6999999010845617e+00 -3.2268088473186789e-04 +0.0000000000000000e+00 +9.9999994793852232e-01
5.7999999999999954e+00 +8.1520478164439094e+00 +0.0000000000000000e+00 +5.7999998957865406e+00 -3.2834213389465976e-04 +0.0000000000000000e+00 +9.9999994609572040e-01
5.8999999999999950e+00 +8.1520146991677613e+00 +0.0000000000000000e+00 +5.8999998903026372e+00 -3.3400339026597436e-04 +0.0000000000000000e+00 +9.9999994422086635e-01
5.9999999999999947e+00 +8.1519810157656192e+00 +0.0000000000000000e+00 +5.9999998846296458e+00 -3.3966465376691684e-04 +0.0000000000000000e+00 +9.9999994231396006e-01
6.0999999999999943e+00 +8.1519467662367742e+00 +0.0000000000000000e+00 +6.0999998787643612e+00 -3.4532592430827527e-04 +0.0000000000000000e+00 +9.9999994037500151e-01
6.1999999999999940e+00 +8.1519119505805264e+00 +0.0000000000000000e+00 +6.1999998727035779e+00 -3.5098720179560229e-04 +0.0000000000000000e+00 +9.9999993840399048e-01
6.2999999999999936e+00 +8.1518765687961867e+00 +0.0000000000000000e+00 +6.2999998664440913e+00 -3.5664848613429758e-04 +0.0000000000000000e+00 +9.9999993640092699e-01
6.3999999999999932e+00 +8.1518406208830747e+00 +0.0000000000000000e+00 +6.3999998599826950e+00 -3.6230977723007007e-04 +0.0000000000000000e+00 +9.9999993436581081e-01
6.4999999999999929e+00 +8.1518041068405189e+00 +0.0000000000000000e+00 +6.4999998533161847e+00 -3.6797107498893827e-04 +0.0000000000000000e+00 +9.9999993229864204e-01
6.5999999999999925e+00 +8.1517670266678586e+00 +0.0000000000000000e+00 +6.5999998464413547e+00 -3.7363237931723056e-04 +0.0000000000000000e+00 +9.9999993019942046e-01
6.6999999999999922e+00 +8.1517293803644399e+00 +0.0000000000000000e+00 +6.6999998393549998e+00 -3.7929369012158548e-04 +0.0000000000000000e+00 +9.9999992806814608e-01
6.7999999999999918e+00 +8.1516911679296218e+00 +0.0000000000000000e+00 +6.7999998320539152e+00 -3.8495500730895225e-04 +0.0000000000000000e+00 +9.9999992590481879e-01
6.8999999999999915e+00 +8.1516523893627699e+00 +0.0000000000000000e+00 +6.8999998245348948e+00 -3.9061633078659098e-04 +0.0000000000000000e+00 +9.9999992370943847e-01
6.9999999999999911e+00 +8.1516130446632591e+00 +0.0000000000000000e+00 +6.9999998167947339e+00 -3.9627766046207305e-04 +0.0000000000000000e+00 +9.9999992148200512e-01
7.0999999999999908e+00 +8.1515731338304747e+00 +0.0000000000000000e+00 +7.0999998088302272e+00 -4.0193899624328162e-04 +0.0000000000000000e+00 +9.9999991922251863e-01
7.1999999999999904e+00 +8.1515326568638109e+00 +0.0000000000000000e+00 +7.1999998006381691e+00 -4.0760033803841187e-04 +0.0000000000000000e+00 +9.9999991693097900e-01
7.2999999999999901e+00 +8.1514916137626710e+00 +0.0000000000000000e+00 +7.2999997922153543e+00 -4.1326168575597159e-04 +0.0000000000000000e+00 +9.9999991460738613e-01
7.3999999999999897e+00 +8.1514500045264668e+00 +0.0000000000000000e+00 +7.3999997835585773e+00 -4.1892303930478157e-04 +0.0000000000000000e+00 +9.9999991225174001e-01
7.4999999999999893e+00 +8.1514078291546195e+00 +0.0000000000000000e+00 +7.4999997746646336e+00 -4.2458439859397595e-04 +0.0000000000000000e+00 +9.9999990986404041e-01
7.5999999999999890e+00 +8.1513650876465604e+00 +0.0000000000000000e+00 +7.5999997655303169e+00 -4.3024576353300288e-04 +0.0000000000000000e+00 +9.9999990744428746e-01
7.6999999999999886e+00 +8.1513217800017284e+00 +0.0000000000000000e+00 +7.6999997561524225e+00 -4.3590713403162475e-04 +0.0000000000000000e+00 +9.9999990499248104e-01
7.7999999999999883e+00 +8.1512779062195726e+00 +0.0000000000000000e+00 +7.7999997465277451e+00 -4.4156850999991891e-04 +0.0000000000000000e+00 +9.9999990250862103e-01
7.8999999999999879e+00 +8.1512334662995496e+00 +0.0000000000000000e+00 +7.8999997366530783e+00 -4.4722989134827812e-04 +0.0000000000000000e+00 +9.9999989999270744e-01
7.9999999999999876e+00 +8.1511884602411264e+00 +0.0000000000000000e+00 +7.9999997265252176e+00 -4.5289127798741106e-04 +0.0000000000000000e+00 +9.9999989744474016e-01
8.0999999999999872e+00 +8.1511428880437791e+00 +0.0000000000000000e+00 +8.0999997161409585e+00 -4.5855266982862067e-04 +0.0000000000000000e+00 +9.9999989486471919e-01
8.1999999999999869e+00 +8.1510967497069906e+00 +0.0000000000000000e+00 +8.1999997054970937e+00 -4.6421406678686094e-04 +0.0000000000000000e+00 +9.9999989225264452e-01
8.2999999999999865e+00 +8.1510500452302530e+00 +0.0000000000000000e+00 +8.2999996945904186e+00 -4.6987546878379344e-04 +0.0000000000000000e+00 +9.9999988960851605e-01
8.3999999999999861e+00 +8.1510027746130671e+00 +0.0000000000000000e+00 +8.3999996834177288e+00 -4.7553687574806514e-04 +0.0000000000000000e+00 +9.9999988693233377e-01
8.4999999999999858e+00 +8.1509549378549391e+00 +0.0000000000000000e+00 +8.4999996719758180e+00 -4.8119828761530859e-04 +0.0000000000000000e+00 +9.9999988422409758e-01
8.5999999999999854e+00 +8.1509065349553822e+00 +0.0000000000000000e+00 +8.5999996602614797e+00 -4.8685970432814178e-04 +0.0000000000000000e+00 +9.9999988148380736e-01
8.6999999999999851e+00 +8.1508575659139133e+00 +0.0000000000000000e+00 +8.6999996482715112e+00 -4.9252112583616852e-04 +0.0000000000000000e+00 +9.9999987871146323e-01
8.7999999999999847e+00 +8.1508080307300563e+00 +0.0000000000000000e+00 +8.7999996360027044e+00 -4.9818255209597810e-04 +0.0000000000000000e+00 +9.9999987590706496e-01
8.8999999999999844e+00 +8.1507579294033370e+00 +0.0000000000000000e+00 +8.8999996234518548e+00 -5.0384398307114578e-04 +0.0000000000000000e+00 +9.9999987307061255e-01
8.9999999999999840e+00 +8.1507072619332863e+00 +0.0000000000000000e+00 +8.9999996106157578e+00 -5.0950541873223253e-04 +0.0000000000000000e+00 +9.9999987020210601e-01
9.0999999999999837e+00 +8.1506560283194354e+00 +0.0000000000000000e+00 +9.0999995974912071e+00 -5.1516685905678519e-04 +0.0000000000000000e+00 +9.9999986730154511e-01
9.1999999999999833e+00 +8.1506042285613205e+00 +0.0000000000000000e+00 +9.1999995840749982e+00 -5.2082830402933652e-04 +0.0000000000000000e+00 +9.9999986436892996e-01
9.2999999999999829e+00 +8.1505518626584763e+00 +0.0000000000000000e+00 +9.2999995703639247e+00 -5.2648975364140535e-04 +0.0000000000000000e+00 +9.9999986140426034e-01
9.3999999999999826e+00 +8.1504989306104392e+00 +0.0000000000000000e+00 +9.3999995563547820e+00 -5.3215120789149647e-04 +0.0000000000000000e+00 +9.9999985840753625e-01
9.4999999999999822e+00 +8.1504454324167437e+00 +0.0000000000000000e+00 +9.4999995420443639e+00 -5.3781266678510091e-04 +0.0000000000000000e+00 +9.9999985537875757e-01
9.5999999999999819e+00 +8.1503913680769262e+00 +0.0000000000000000e+00 +9.5999995274294658e+00 -5.4347413033469568e-04 +0.0000000000000000e+00 +9.9999985231792421e-01
9.6999999999999815e+00 +8.1503367375905214e+00 +0.0000000000000000e+00 +9.6999995125068814e+00 -5.4913559855974416e-04 +0.0000000000000000e+00 +9.9999984922503615e-01
9.7999999999999812e+00 +8.1502815409570584e+00 +0.0000000000000000e+00 +9.7999994972734044e+00 -5.5479707148669590e-04 +0.0000000000000000e+00 +9.9999984610009318e-01
9.8999999999999808e+00 +8.1502257781760665e+00 +0.0000000000000000e+00 +9.8999994817258301e+00 -5.6045854914898671e-04 +0.0000000000000000e+00 +9.9999984294309530e-01
9.9999999999999805e+00 +8.1501694492470698e+00 +0.0000000000000000e+00 +9.9999994658609541e+00 -5.6612003158703901e-04 +0.0000000000000000e+00 +9.9999983975404239e-01
1.0099999999999980e+01 +8.1501125541695885e+00 +0.0000000000000000e+00 +1.0099999449675570e+01 -5.7178151884799500e-04 +0.0000000000000000e+00 +9.9999983653293434e-01
1.0199999999999980e+01 +8.1500550929431377e+00 +0.0000000000000000e+00 +1.0199999433166472e+01 -5.7744301098278583e-04 +0.0000000000000000e+00 +9.9999983327977093e-01
1.0299999999999979e+01 +8.1499970655672271e+00 +0.0000000000000000e+00 +1.0299999416330454e+01 -5.8310450804319994e-04 +0.0000000000000000e+00 +9.9999982999455217e-01
1.0399999999999979e+01 +8.1499384720413630e+00 +0.0000000000000000e+00 +1.0399999399164313e+01 -5.8876601008161524e-04 +0.0000000000000000e+00 +9.9999982667727794e-01
1.0499999999999979e+01 +8.1498793123650444e+00 +0.0000000000000000e+00 +1.0499999381664841e+01 -5.9442751715099804e-04 +0.0000000000000000e+00 +9.9999982332794812e-01
1.0599999999999978e+01 +8.1498195865377649e+00 +0.0000000000000000e+00 +1.0599999363828834e+01 -6.0008902930490176e-04 +0.0000000000000000e+00 +9.9999981994656251e-01
1.0699999999999978e+01 +8.1497592945590132e+00 +0.0000000000000000e+00 +1.0699999345653085e+01 -6.0575054659746581e-04 +0.0000000000000000e+00 +9.9999981653312109e-01
1.0799999999999978e+01 +8.1496984364282721e+00 +0.0000000000000000e+00 +1.0799999327134389e+01 -6.1141206908341410e-04 +0.0000000000000000e+00 +9.9999981308762365e-01
1.0899999999999977e+01 +8.1496370121450212e+00 +0.0000000000000000e+00 +1.0899999308269541e+01 -6.1707359681805395e-04 +0.0000000000000000e+00 +9.9999980961007018e-01
1.0999999999999977e+01 +8.1495750217087313e+00 +0.0000000000000000e+00 +1.0999999289055335e+01 -6.2273512985727448e-04 +0.0000000000000000e+00 +9.9999980610046046e-01
1.1099999999999977e+01 +8.1495124651188711e+00 +0.0000000000000000e+00 +1.1099999269488565e+01 -6.2839666825754558e-04 +0.0000000000000000e+00 +9.9999980255879439e-01
1.1199999999999976e+01 +8.1494493423749006e+00 +0.0000000000000000e+00 +1.1199999249566025e+01 -6.3405821207591613e-04 +0.0000000000000000e+00 +9.9999979898507185e-01
1.1299999999999976e+01 +8.1493856534762745e+00 +0.0000000000000000e+00 +1.1299999229284509e+01 -6.3971976137001279e-04 +0.0000000000000000e+00 +9.9999979537929273e-01
1.1399999999999975e+01 +8.1493213984224422e+00 +0.0000000000000000e+00 +1.1399999208640814e+01 -6.4538131619803856e-04 +0.0000000000000000e+00 +9.9999979174145692e-01
1.1499999999999975e+01 +8.1492565772128476e+00 +0.0000000000000000e+00 +1.1499999187631733e+01 -6.5104287661877118e-04 +0.0000000000000000e+00 +9.9999978807156420e-01
1.1599999999999975e+01 +8.1491911898469294e+00 +0.0000000000000000e+00 +1.1599999166254060e+01 -6.5670444269156150e-04 +0.0000000000000000e+00 +9.9999978436961445e-01
1.1699999999999974e+01 +8.1491252363241191e+00 +0.0000000000000000e+00 +1.1699999144504588e+01 -6.6236601447633230e-04 +0.0000000000000000e+00 +9.9999978063560757e-01
1.1799999999999974e+01 +8.1490587166438413e+00 +0.0000000000000000e+00 +1.1799999122380113e+01 -6.6802759203357621e-04 +0.0000000000000000e+00 +9.9999977686954344e-01
