# multipoles
# s[mm] polynom_b[n=0][T/m^n] polynom_b[n=1][T/m^n] polynom_b[n=2][T/m^n] polynom_b[n=3][T/m^n] polynom_b[n=4][T/m^n] polynom_b[n=5][T/m^n] polynom_b[n=6][T/m^n] 
+0.0000000000000000e+00 -5.3675316161602549e-01 +7.3632140701532345e+00 -2.3508073867709764e-01 -2.7478776627369484e+01 +1.5221412784444433e+03 -3.8221227352864953e+04 -1.2961006210807038e+07 
+1.0000000000000001e-01 -5.3675320776460123e-01 +7.3632414942908850e+00 -2.3439418841167767e-01 -2.7538259455113227e+01 +1.5300900768101294e+03 -3.9427975553305223e+04 -1.2989009562381558e+07 
+2.0000000000000001e-01 -5.3675326251397937e-01 +7.3632694645745662e+00 -2.3375560768529460e-01 -2.7574780445954413e+01 +1.5381395754676105e+03 -4.0811956189063785e+04 -1.3012210886500666e+07 
+3.0000000000000004e-01 -5.3675332558609046e-01 +7.3632979380512333e+00 -2.3315112261092702e-01 -2.7591959103734645e+01 +1.5460509585904026e+03 -4.2345517430023741e+04 -1.3030131066212162e+07 
+4.0000000000000002e-01 -5.3675339670284772e-01 +7.3633268717789679e+00 -2.3256686259690271e-01 -2.7593415251032731e+01 +1.5535854749346217e+03 -4.4001005659892682e+04 -1.3042291290917011e+07 
+5.0000000000000000e-01 -5.3675347558617670e-01 +7.3633562228103004e+00 -2.3198895548719231e-01 -2.7582768535699394e+01 +1.5605043451554325e+03 -4.5750768342441050e+04 -1.3048212620130962e+07 
+5.9999999999999998e-01 -5.3675356195799517e-01 +7.3633859481965453e+00 -2.3140353037303632e-01 -2.7563638566695300e+01 +1.5665688113962287e+03 -4.7567153200778237e+04 -1.3047416206461962e+07 
+6.9999999999999996e-01 -5.3675365554022492e-01 +7.3634160049921418e+00 -2.3079671560479070e-01 -2.7539645031043001e+01 +1.5715401011810989e+03 -4.9422507544622873e+04 -1.3039423132676139e+07 
+7.9999999999999993e-01 -5.3675375605479625e-01 +7.3634463502474814e+00 -2.3015463890669396e-01 -2.7514407481927904e+01 +1.5751794320016131e+03 -5.1289179494922188e+04 -1.3023754439878959e+07 
+8.9999999999999991e-01 -5.3675386322362495e-01 +7.3634769410166170e+00 -2.2946342909998266e-01 -2.7491545562738665e+01 +1.5772480387148498e+03 -5.3139516674420534e+04 -1.2999931245624030e+07 
+9.9999999999999989e-01 -5.3675397676865566e-01 +7.3635077343466682e+00 -2.2870921128787433e-01 -2.7474678711629505e+01 +1.5775070860548774e+03 -5.4945867871493610e+04 -1.2967474340250839e+07 
+1.0999999999999999e+00 -5.3675409641181027e-01 +7.3635386872894557e+00 -2.2787811287775137e-01 -2.7467426460742150e+01 +1.5757177806477823e+03 -5.6680581389365485e+04 -1.2925904714235347e+07 
+1.2000000000000000e+00 -5.3675422187502619e-01 +7.3635697568904837e+00 -2.2695625892364499e-01 -2.7473408157709912e+01 +1.5716412841171077e+03 -5.8316006547794401e+04 -1.2874743150072953e+07 
+1.3000000000000000e+00 -5.3675435288023954e-01 +7.3636009001967491e+00 -2.2592977365346148e-01 -2.7496243158715362e+01 +1.5650387385207678e+03 -5.9824492628952816e+04 -1.2813510336548824e+07 
+1.4000000000000001e+00 -5.3675448914940149e-01 +7.3636320742512948e+00 -2.2478477879845252e-01 -2.7539550686354026e+01 +1.5556712391531385e+03 -6.1178389651097088e+04 -1.2741726752153005e+07 
+1.5000000000000002e+00 -5.3675463040445059e-01 +7.3636632360934202e+00 -2.2350739650080342e-01 -2.7606949821212066e+01 +1.5432998854226148e+03 -6.2350048440872204e+04 -1.2658912897359734e+07 
+1.6000000000000003e+00 -5.3675477636733182e-01 +7.3636943427635160e+00 -2.2208374727660010e-01 -2.7702059654958035e+01 +1.5276857444176844e+03 -6.3311819696217535e+04 -1.2564589127720602e+07 
+1.7000000000000004e+00 -5.3675492676001257e-01 +7.3637253512960896e+00 -2.2049994723899982e-01 -2.7828499067559971e+01 +1.5085897952795744e+03 -6.4036055321007429e+04 -1.2458275384592911e+07 
+1.8000000000000005e+00 -5.3675508130443939e-01 +7.3637562187236574e+00 -2.1874211424315554e-01 -2.7989886856472069e+01 +1.4857730511239993e+03 -6.4495107617151763e+04 -1.2339491789518073e+07 
+1.9000000000000006e+00 -5.3675523972259698e-01 +7.3637869020754145e+00 -2.1679635968411420e-01 -2.8189841678831570e+01 +1.4589963970454437e+03 -6.4661329656074144e+04 -1.2207757858778721e+07 
+2.0000000000000004e+00 -5.3675540173642500e-01 +7.3638173583765152e+00 -2.1464879902301728e-01 -2.8431982049366823e+01 +1.4280207927299803e+03 -6.4507075226786190e+04 -1.2062593475338209e+07 
+2.1000000000000005e+00 -5.3675556713029093e-01 +7.3638475249879995e+00 -2.1228892139632125e-01 -2.8718328647617636e+01 +1.3926747649933666e+03 -6.4015308465330017e+04 -1.1903632214424144e+07 
+2.2000000000000006e+00 -5.3675573593227632e-01 +7.3638772618380886e+00 -2.0972029876429396e-01 -2.9044487448005924e+01 +1.3530526091855054e+03 -6.3211998755114568e+04 -1.1730902473693263e+07 
+2.3000000000000007e+00 -5.3675590822992758e-01 +7.3639064097853435e+00 -2.0695016493028537e-01 -2.9404453583085086e+01 +1.3093137773349322e+03 -6.2134016189764858e+04 -1.1544515220089298e+07 
+2.4000000000000008e+00 -5.3675608411080911e-01 +7.3639348096909103e+00 -2.0398575080812784e-01 -2.9792222261994734e+01 +1.2616176612755039e+03 -6.0818230456352409e+04 -1.1344581118687008e+07 
+2.5000000000000009e+00 -5.3675626366244300e-01 +7.3639623024151488e+00 -2.0083429239110009e-01 -3.0201788695468657e+01 +1.2101237488708207e+03 -5.9301511220620283e+04 -1.1131211289417192e+07 
+2.6000000000000010e+00 -5.3675644697235059e-01 +7.3639887288194643e+00 -1.9750302506605821e-01 -3.0627148140638194e+01 +1.1549915101245933e+03 -5.7620727905911182e+04 -1.0904516746517504e+07 
+2.7000000000000011e+00 -5.3675663412803598e-01 +7.3640139297685181e+00 -1.9399918605953914e-01 -3.1062295967044211e+01 +1.0963804480254328e+03 -5.5812749314243105e+04 -1.0664608652750330e+07 
+2.8000000000000012e+00 -5.3675682521699264e-01 +7.3640377461270399e+00 -1.9033001350361184e-01 -3.1501227578053751e+01 +1.0344500772434358e+03 -5.3914444058755711e+04 -1.0411598206156150e+07 
+2.9000000000000012e+00 -5.3675702032667727e-01 +7.3640600187602816e+00 -1.8650274928685531e-01 -3.1937938413352658e+01 +9.6935997804392900e+02 -5.1962680594664846e+04 -1.0145596895837525e+07 
+3.0000000000000013e+00 -5.3675721954453814e-01 +7.3640805885431515e+00 -1.8252463669657279e-01 -3.2366424228811233e+01 +9.0126975713486058e+02 -4.9994325567306994e+04 -9.8667163292359170e+06 
+3.1000000000000014e+00 -5.3675742295798834e-01 +7.3640992963452776e+00 -1.7840292240032038e-01 -3.2780680667696252e+01 +8.3033907502927900e+02 -4.8046246294841185e+04 -9.5750683329746667e+06 
+3.2000000000000015e+00 -5.3675763065443050e-01 +7.3641159830444076e+00 -1.7414485452743303e-01 -3.3174703640285671e+01 +7.5672761947738866e+02 -4.6155308615242677e+04 -9.2707648528080452e+06 
+3.3000000000000016e+00 -5.3675784272122706e-01 +7.3641304895184581e+00 -1.6975768571582830e-01 -3.3542489114264782e+01 +6.8059515757320003e+02 -4.4358378048790400e+04 -8.9539181847138423e+06 
+3.4000000000000017e+00 -5.3675805924571862e-01 +7.3641426566519881e+00 -1.6524867099327090e-01 -3.3878033290322925e+01 +6.0210149473629986e+02 -4.2692318829793490e+04 -8.6246407759891190e+06 
+3.5000000000000018e+00 -5.3675828031521555e-01 +7.3641523253305756e+00 -1.6062506922577080e-01 -3.4175332451436020e+01 +5.2140650656503055e+02 -4.1193994760945410e+04 -8.2830453879909907e+06 
+3.6000000000000019e+00 -5.3675850601699426e-01 +7.3641593364455682e+00 -1.5589414307480604e-01 -3.4428383105093729e+01 +4.3867013415069425e+02 -3.9900268389311896e+04 -7.9292450624671821e+06 
+3.7000000000000020e+00 -5.3675873643830607e-01 +7.3641635308949898e+00 -1.5106315815694732e-01 -3.4631182007571240e+01 +3.5405236780656361e+02 -3.8848000882855958e+04 -7.5633530415392891e+06 
+3.8000000000000020e+00 -5.3675897166634834e-01 +7.3641647495760525e+00 -1.4613938707031540e-01 -3.4777725952575096e+01 +2.6771332748360697e+02 -3.8074053255458202e+04 -7.1854831598636778e+06 
+3.9000000000000021e+00 -5.3675921178832409e-01 +7.3641628333965521e+00 -1.4113010095690814e-01 -3.4862012107225766e+01 +1.7981309546872873e+02 -3.7615284415161252e+04 -6.7957490291896528e+06 
+4.0000000000000018e+00 -5.3675945689135074e-01 +7.3641576232667676e+00 -1.3604258228639687e-01 -3.4878037778683989e+01 +9.0511967628037496e+01 -3.7508552539781012e+04 -6.3942652557771197e+06 
+4.1000000000000014e+00 -5.3675970690161268e-01 +7.3641490306842341e+00 -1.3089005866659720e-01 -3.4821732381128918e+01 +8.0233448360459730e-02 -3.7779895568218286e+04 -5.9818420620958693e+06 
+4.2000000000000011e+00 -5.3675996111145530e-01 +7.3641372502745286e+00 -1.2571006010913141e-01 -3.4696902281860190e+01 -9.0747114807784598e+01 -3.8410499077066896e+04 -5.5622317931049727e+06 
+4.3000000000000007e+00 -5.3676021865732115e-01 +7.3641225477399859e+00 -1.2054631138584647e-01 -3.4509364151664236e+01 -1.8111273663422983e+02 -3.9369916683939242e+04 -5.1399635782396179e+06 
+4.4000000000000004e+00 -5.3676047867569265e-01 +7.3641051887827222e+00 -1.1544253330702246e-01 -3.4264934660025901e+01 -2.7015935933601338e+02 -4.0627701846965661e+04 -4.7195662490391973e+06 
+4.5000000000000000e+00 -5.3676074030304444e-01 +7.3640854391088659e+00 -1.1044244765728060e-01 -3.3969430613953683e+01 -3.5702968867606342e+02 -4.2153407020113787e+04 -4.3055687538890056e+06 
+4.5999999999999996e+00 -5.3676100267589033e-01 +7.3640635644256482e+00 -1.0558977266444607e-01 -3.3628668865480783e+01 -4.4086648762766953e+02 -4.3916584197105869e+04 -3.9024998018825580e+06 
+4.6999999999999993e+00 -5.3676126493076914e-01 +7.3640398304433239e+00 -1.0092822436323404e-01 -3.3248466366319334e+01 -5.2081255421177218e+02 -4.5886784588714509e+04 -3.5148879575401628e+06 
+4.7999999999999989e+00 -5.3676152620425188e-01 +7.3640145028717203e+00 -9.6501515156063450e-02 -3.2834640071353320e+01 -5.9601074932744291e+02 -4.8033559152868984e+04 -3.1472615095915124e+06 
+4.8999999999999986e+00 -5.3676178563293009e-01 +7.3639878474242408e+00 -9.2353355986096300e-02 -3.2393007049994246e+01 -6.6560395289809981e+02 -5.0326457962246532e+04 -2.8041486862233188e+06 
+4.9999999999999982e+00 -5.3676204235343994e-01 +7.3639601298194801e+00 -8.8527453396564856e-02 -3.1929384528289454e+01 -7.2873511851895739e+02 -5.2735029954534366e+04 -2.4900773980899970e+06 
+5.0999999999999979e+00 -5.3676229550242571e-01 +7.3639316157740540e+00 -8.5067513929146785e-02 -3.1449589696250531e+01 -7.8454719046581977e+02 -5.5228823995329389e+04 -2.2095756325280592e+06 
+5.1999999999999975e+00 -5.3676254421660130e-01 +7.3639025710076051e+00 -8.2017236466239096e-02 -3.0959439842387070e+01 -8.3218324943554717e+02 -5.7777388121477597e+04 -1.9671707600054895e+06 
+5.2999999999999972e+00 -5.3676278763269125e-01 +7.3638732612453106e+00 -7.9420319688519467e-02 -3.0464752419678845e+01 -8.7078637044617881e+02 -6.0350269156034614e+04 -1.7673902110609282e+06 
+5.3999999999999968e+00 -5.3676302488748662e-01 +7.3638439522120747e+00 -7.7320455406020283e-02 -2.9971344894063929e+01 -8.9949974541778192e+02 -6.2917013542016168e+04 -1.6147609056982452e+06 
+5.4999999999999964e+00 -5.3676325511777778e-01 +7.3638149096346428e+00 -7.5761336867909229e-02 -2.9485034791581892e+01 -9.1746652926871570e+02 -6.5447167081700500e+04 -1.5138099737761901e+06 
+5.5999999999999961e+00 -5.3676347746043351e-01 +7.3637863992415982e+00 -7.4786648446528811e-02 -2.9011639697969905e+01 -9.2383003354672110e+02 -6.7910274941198237e+04 -1.4690638431145439e+06 
+5.6999999999999957e+00 -5.3676369105237098e-01 +7.3637586867682190e+00 -7.4440070566019922e-02 -2.8556977413670669e+01 -9.1773363141789469e+02 -7.0275880691664919e+04 -1.4850486912608470e+06 
+5.7999999999999954e+00 -5.3676389503051625e-01 +7.3637320379501565e+00 -7.4765283272158922e-02 -2.8126865759275208e+01 -8.9832069164539860e+02 -7.2513527462568803e+04 -1.5662907606471395e+06 
+5.8999999999999950e+00 -5.3676408853189761e-01 +7.3637067185231633e+00 -7.5805956223658905e-02 -2.7727122553099932e+01 -8.6473476439769922e+02 -7.4592758096849808e+04 -1.7173154814462115e+06 
+5.9999999999999947e+00 -5.3676427069354704e-01 +7.3636829942298005e+00 -7.7605759680689237e-02 -2.7363565849471428e+01 -8.1611937679191487e+02 -7.6483113650686384e+04 -1.9426484368204582e+06 
+6.0999999999999943e+00 -5.3676444101781295e-01 +7.3636610839697578e+00 -8.0188603091342320e-02 -2.7040802173631675e+01 -7.5199601796955380e+02 -7.8160483971231122e+04 -2.2449565776356012e+06 
+6.1999999999999940e+00 -5.3676460046185170e-01 +7.3636410138753376e+00 -8.3498324486635980e-02 -2.6758170002906834e+01 -6.7343126048008241e+02 -7.9628912775253440e+04 -2.6192897214160422e+06 
+6.2999999999999936e+00 -5.3676475034495785e-01 +7.3636227603674023e+00 -8.7458466315825628e-02 -2.6513579265563735e+01 -5.8188746587255298e+02 -8.0900205591948281e+04 -3.0587400869005104e+06 
+6.3999999999999932e+00 -5.3676489198643529e-01 +7.3636062998611482e+00 -9.1992571799100947e-02 -2.6304939646680630e+01 -4.7882697864797217e+02 -8.1986169641001441e+04 -3.5563999708734127e+06 
+6.4999999999999929e+00 -5.3676502670558568e-01 +7.3635916087608280e+00 -9.7024184364707347e-02 -2.6130160444123753e+01 -3.6571215219842293e+02 -8.2898614680215876e+04 -4.1053615806259983e+06 
+6.5999999999999925e+00 -5.3676515582172590e-01 +7.3635786634577549e+00 -1.0247684691617349e-01 -2.5987150511646739e+01 -2.4400534942595982e+02 -8.3649353333904335e+04 -4.6987170692754695e+06 
+6.6999999999999922e+00 -5.3676528065416995e-01 +7.3635674403336218e+00 -1.0827410370192621e-01 -2.5873818344389349e+01 -1.1516891273374829e+02 -8.4250200638070513e+04 -5.3295586603685273e+06 
+6.7999999999999918e+00 -5.3676540252222926e-01 +7.3635579157580278e+00 -1.1433949995381784e-01 -2.5788071995856981e+01 +1.9334826952936304e+01 -8.4712974555932393e+04 -5.9909786003871458e+06 
+6.8999999999999915e+00 -5.3676552274521716e-01 +7.3635500660898838e+00 -1.2059658180522111e-01 -2.5727819142993663e+01 +1.5804355149543957e+02 -8.5049495540604403e+04 -6.6760691711874120e+06 
+6.9999999999999911e+00 -5.3676564264245641e-01 +7.3635438676737150e+00 -1.2696889543890250e-01 -2.5690966941527446e+01 +2.9949493997272788e+02 -8.5271587481898576e+04 -7.3779226180340024e+06 
+7.0999999999999908e+00 -5.3676576353324890e-01 +7.3635392968399414e+00 -1.3337999020640579e-01 -2.5675422061621891e+01 +4.4222672298829508e+02 -8.5391077434330204e+04 -8.0896313937674547e+06 
+7.1999999999999904e+00 -5.3676588673691927e-01 +7.3635363299092162e+00 -1.3975341402469149e-01 -2.5679090781323541e+01 +5.8477659910133957e+02 -8.5419795164376948e+04 -8.8042877703554574e+06 
+7.2999999999999901e+00 -5.3676601357279219e-01 +7.3635349431843071e+00 -1.4601271590786385e-01 -2.5699878785459912e+01 +7.2568228210665495e+02 -8.5369574236471250e+04 -9.5149840622919276e+06 
+7.3999999999999897e+00 -5.3676614536017930e-01 +7.3635351129563373e+00 -1.5208144734360568e-01 -2.5735691299484177e+01 +8.6348152545345874e+02 -8.5252251362751718e+04 -1.0214812737781137e+07 
+7.4999999999999893e+00 -5.3676628341840305e-01 +7.3635368154982386e+00 -1.5788316002066072e-01 -2.5784432928727185e+01 +9.9671208050711869e+02 -8.5079667269033322e+04 -1.0896866221840123e+07 
+7.5999999999999890e+00 -5.3676642906677974e-01 +7.3635400270731575e+00 -1.6334140707844289e-01 -2.5844007887295678e+01 +1.1239117175702177e+03 -8.4863665412569288e+04 -1.1554236990662480e+07 
+7.6999999999999886e+00 -5.3676658362462182e-01 +7.3635447239229759e+00 -1.6837974367215999e-01 -2.5912319660619566e+01 +1.2436182389065737e+03 -8.4616093957031364e+04 -1.2180017636592722e+07 
+7.7999999999999883e+00 -5.3676674841125660e-01 +7.3635508822762494e+00 -1.7292172429791186e-01 -2.5987271239474047e+01 +1.3543694275728258e+03 -8.4348804412560887e+04 -1.2767300626493244e+07 
+7.8999999999999879e+00 -5.3676692474599985e-01 +7.3635584783454888e+00 -1.7689090588547127e-01 -2.6066765027384015e+01 +1.4547031034238464e+03 -8.4073652213643116e+04 -1.3309178558094345e+07 
+7.9999999999999876e+00 -5.3676711394815613e-01 +7.3635674883232927e+00 -1.8021084834186438e-01 -2.6148702753927420e+01 +1.5431571342839025e+03 -8.3802497141469852e+04 -1.3798744211458048e+07 
+8.0999999999999872e+00 -5.3676731705135694e-01 +7.3635778867514734e+00 -1.8282388543666586e-01 -2.6231795763226039e+01 +1.6185945432779547e+03 -8.3541811960323379e+04 -1.4230468596767994e+07 
+8.1999999999999869e+00 -5.3676753395489296e-01 +7.3635896462762114e+00 -1.8474619771421716e-01 -2.6318208671696151e+01 +1.6812002773233835e+03 -8.3276121517924432e+04 -1.4604511457950378e+07 
+8.2999999999999865e+00 -5.3676776427624107e-01 +7.3636027404429543e+00 -1.8601217721562135e-01 -2.6411037013201906e+01 +1.7314968213626805e+03 -8.2984296044422343e+04 -1.4922505117750755e+07 
+8.3999999999999861e+00 -5.3676800763283072e-01 +7.3636171428069455e+00 -1.8665621932579218e-01 -2.6513376678197080e+01 +1.7700067278650265e+03 -8.2645204035320712e+04 -1.5186082246475946e+07 
+8.4999999999999858e+00 -5.3676826364214636e-01 +7.3636328269404814e+00 -1.8671271010418847e-01 -2.6628324106139125e+01 +1.7972523744279958e+03 -8.2237710990977328e+04 -1.5396874722602462e+07 
+8.5999999999999854e+00 -5.3676853192165186e-01 +7.3636497664346496e+00 -1.8621603537447098e-01 -2.6758976341014765e+01 +1.8137561338372834e+03 -8.1740679093908271e+04 -1.5556514433934210e+07 
+8.6999999999999851e+00 -5.3676881208886917e-01 +7.3636679348913248e+00 -1.8520057133744747e-01 -2.6908430799659946e+01 +1.8200402003759386e+03 -8.1132968545517608e+04 -1.5666632466853533e+07 
+8.7999999999999847e+00 -5.3676910376129072e-01 +7.3636873059349890e+00 -1.8370069444557896e-01 -2.7079785622026932e+01 +1.8166267708501266e+03 -8.0393435541417202e+04 -1.5728859949953269e+07 
+8.8999999999999844e+00 -5.3676940655642624e-01 +7.3637078532061313e+00 -1.8175077617024787e-01 -2.7276139468182635e+01 +1.8040379501368207e+03 -7.9500933477535407e+04 -1.5744827619741779e+07 
+8.9999999999999840e+00 -5.3676972009182589e-01 +7.3637295503587401e+00 -1.7938518016802121e-01 -2.7500591467100122e+01 +1.7827956974429146e+03 -7.8434313204236285e+04 -1.5716165565593952e+07 
+9.0999999999999837e+00 -5.3677004398502126e-01 +7.3637523710721595e+00 -1.7663826886155873e-01 -2.7756241549474044e+01 +1.7534219491514518e+03 -7.7172421136690522e+04 -1.5644503810376817e+07 
+9.1999999999999833e+00 -5.3677037785359250e-01 +7.3637762890385110e+00 -1.7354439549607137e-01 -2.8046190086965357e+01 +1.7164384676009811e+03 -7.5694101335795101e+04 -1.5531471589986963e+07 
+9.2999999999999829e+00 -5.3677072131508741e-01 +7.3638012779747530e+00 -1.7013791427359126e-01 -2.8373538249641413e+01 +1.6723670369923957e+03 -7.3978193435191468e+04 -1.5378698295752870e+07 
+9.3999999999999826e+00 -5.3677107398710633e-01 +7.3638273116152595e+00 -1.6645316898032131e-01 -2.8741387783494556e+01 +1.6217292434624878e+03 -7.2003533956066647e+04 -1.5187812420063300e+07 
+9.4999999999999822e+00 -5.3677143548725081e-01 +7.3638543637144034e+00 -1.6252450001359703e-01 -2.9152841103945971e+01 +1.5650466117282069e+03 -6.9748955718999146e+04 -1.4960442214719107e+07 
+9.5999999999999819e+00 -5.3677180543314051e-01 +7.3638824080497463e+00 -1.5838624194520270e-01 -2.9611001368802075e+01 +1.5028405577755921e+03 -6.7193287494925084e+04 -1.4698215464919744e+07 
+9.6999999999999815e+00 -5.3677218344239030e-01 +7.3639114184194643e+00 -1.5407272606124983e-01 -3.0118972424112485e+01 +1.4356324355661170e+03 -6.4315354259582055e+04 -1.4402759707070684e+07 
+9.7999999999999812e+00 -5.3677256913265259e-01 +7.3639413686450528e+00 -1.4961827506646866e-01 -3.0679858874413043e+01 +1.3639434380244347e+03 -6.1093976829161715e+04 -1.4075701765180102e+07 
+9.8999999999999808e+00 -5.3677296212159109e-01 +7.3639722325680808e+00 -1.4505720675750808e-01 -3.1296766002158297e+01 +1.2882946690066055e+03 -5.7507972288908044e+04 -1.3718668099202827e+07 
+9.9999999999999805e+00 -5.3677336202687487e-01 +7.3640039840569065e+00 -1.4042383415795137e-01 -3.1972799845463481e+01 +1.2092071531699905e+03 -5.3536154059977045e+04 -1.3333284896987718e+07 
+1.0099999999999980e+01 -5.3677376837744573e-01 +7.3640365562326293e+00 -1.3574818638795350e-01 -3.2708966585290746e+01 +1.1271469481131021e+03 -4.9171293246036788e+04 -1.2921239899765372e+07 
