# multipoles
# s[mm] polynom_b[n=0][T/m^n] polynom_b[n=1][T/m^n] polynom_b[n=2][T/m^n] polynom_b[n=3][T/m^n] polynom_b[n=4][T/m^n] polynom_b[n=5][T/m^n] polynom_b[n=6][T/m^n] 
-0.0000000000000000e+00 -5.3641848369113765e-01 +7.3402291382294598e+00 -8.4436387850731864e-01 +3.3583542840375536e+01 +4.2197564543312037e+03 -3.3342900669255707e+05 -1.8819693612301599e+07 
-1.0000000000000001e-01 -5.3641862675285623e-01 +7.3402290708970650e+00 -8.3348268844655005e-01 +3.3275052304664008e+01 +4.0807482079933839e+03 -3.3094261428716214e+05 -1.8307824805785805e+07 
-2.0000000000000001e-01 -5.3641878196813841e-01 +7.3402261472789654e+00 -8.2179744153520962e-01 +3.3028719931069460e+01 +3.9270033320864263e+03 -3.2878477555501199e+05 -1.7731219853109062e+07 
-2.9999999999999999e-01 -5.3641894839624360e-01 +7.3402207090542948e+00 -8.0942648453905486e-01 +3.2840261674528129e+01 +3.7604865550859076e+03 -3.2693830546787044e+05 -1.7098245682724111e+07 
-4.0000000000000002e-01 -5.3641912509645162e-01 +7.3402130979043081e+00 -7.9648816382562793e-01 +3.2705393452424829e+01 +3.5831625982063665e+03 -3.2538601882891823e+05 -1.6417269185447916e+07 
-5.0000000000000000e-01 -5.3641931112794927e-01 +7.3402036555060644e+00 -7.8310082719274066e-01 +3.2619831318507856e+01 +3.3969962076197617e+03 -3.2411073126471968e+05 -1.5696657361073025e+07 
-5.9999999999999998e-01 -5.3641950554996931e-01 +7.3401927235375881e+00 -7.6938282333158803e-01 +3.2579291316111885e+01 +3.2039521444968427e+03 -3.2309525838260050e+05 -1.4944777271953920e+07 
-6.9999999999999996e-01 -5.3641970742180956e-01 +7.3401806436773853e+00 -7.5545250339401715e-01 +3.2579489493514608e+01 +3.0059952187054200e+03 -3.2232241586226190e+05 -1.4169996212246668e+07 
-8.0000000000000004e-01 -5.3641991580263559e-01 +7.3401677576019404e+00 -7.4142821546952420e-01 +3.2616141974675266e+01 +2.8050901817909967e+03 -3.2177501987504470e+05 -1.3380681192795783e+07 
-9.0000000000000002e-01 -5.3642012975169173e-01 +7.3401544069955751e+00 -7.2742831160847965e-01 +3.2684964667023507e+01 +2.6032018621098377e+03 -3.2143588536128349e+05 -1.2585199589340104e+07 
-1.0000000000000000e+00 -5.3642034832823482e-01 +7.3401409335419983e+00 -7.1357114318479009e-01 +3.2781673512753073e+01 +2.4022950761712173e+03 -3.2128782751997613e+05 -1.1791918717440335e+07 
-1.1000000000000001e+00 -5.3642057059145476e-01 +7.3401276789290035e+00 -6.9997506078519833e-01 +3.2901984352856971e+01 +2.2043346299860291e+03 -3.2131366102277907e+05 -1.1009205848913573e+07 
-1.2000000000000000e+00 -5.3642079560064526e-01 +7.3401149848548268e+00 -6.8675841662515913e-01 +3.3041612733742369e+01 +2.0112853642040852e+03 -3.2149619886414567e+05 -1.0245428423643261e+07 
-1.3000000000000000e+00 -5.3642102241500633e-01 +7.3401031930145013e+00 -6.7403956264766396e-01 +3.3196274305645183e+01 +1.8251121185492957e+03 -3.2181825469093613e+05 -9.5089538806285709e+06 
-1.3999999999999999e+00 -5.3642125009381691e-01 +7.3400926451196389e+00 -6.6193685179799944e-01 +3.3361684253430838e+01 +1.6477797545652882e+03 -3.2226263951625960e+05 -8.8081497633998170e+06 
-1.5000000000000000e+00 -5.3642147769640414e-01 +7.3400836828815850e+00 -6.5056863333492887e-01 +3.3533557778323917e+01 +1.4812530734846521e+03 -3.2281216448906140e+05 -8.1513833464724878e+06 
-1.6000000000000001e+00 -5.3642170428200087e-01 +7.3400766480262973e+00 -6.4005326267088491e-01 +3.3707609663139785e+01 +1.3274969964191955e+03 -3.2344963837989146e+05 -7.5470224741862109e+06 
-1.7000000000000000e+00 -5.3642192890991225e-01 +7.3400718822852964e+00 -6.3050908888510326e-01 +3.3879554542694549e+01 +1.1884763360664256e+03 -3.2415786916858557e+05 -7.0034344987921780e+06 
-1.8000000000000000e+00 -5.3642215063951637e-01 +7.3400697274053268e+00 -6.2205446326379121e-01 +3.4045106614705567e+01 +1.0661559507904446e+03 -3.2491966234368307e+05 -6.5289869902217658e+06 
-1.8999999999999999e+00 -5.3642236853010217e-01 +7.3400705251404501e+00 -6.1480773744163153e-01 +3.4199979874113644e+01 +9.6250071537792167e+02 -3.2571782228220627e+05 -6.1320476133882906e+06 
-2.0000000000000000e+00 -5.3642258164109780e-01 +7.3400746172587041e+00 -6.0888726158238338e-01 +3.4339887904601333e+01 +8.7947548792902830e+02 -3.2653515103412856e+05 -5.8209839753095601e+06 
-2.1000000000000001e+00 -5.3642278926086284e-01 +7.3400822242163564e+00 -6.0437342813266604e-01 +3.4461452808349634e+01 +8.1842031121019568e+02 -3.2735634002227371e+05 -5.6015005859496407e+06 
-2.2000000000000002e+00 -5.3642299155176387e-01 +7.3400930977349237e+00 -6.0120019870631747e-01 +3.4564823168378865e+01 +7.7827849264907206e+02 -3.2817343807628308e+05 -5.4691105426867837e+06 
-2.2999999999999998e+00 -5.3642318888469087e-01 +7.3401068763643957e+00 -5.9926621807759328e-01 +3.4651001613298590e+01 +7.5741849884805947e+02 -3.2898027767439594e+05 -5.4168882525252486e+06 
-2.3999999999999999e+00 -5.3642338163057468e-01 +7.3401231986568192e+00 -5.9847013491968448e-01 +3.4720990721441730e+01 +7.5420886949054227e+02 -3.2977069103155652e+05 -5.4379084756460870e+06 
-2.5000000000000000e+00 -5.3642357016028264e-01 +7.3401417031610610e+00 -5.9871059424200024e-01 +3.4775793162997559e+01 +7.6701806993172431e+02 -3.3053851088948414e+05 -5.5252456166470451e+06 
-2.6000000000000001e+00 -5.3642375484469840e-01 +7.3401620284234896e+00 -5.9988624092699672e-01 +3.4816411685804781e+01 +7.9421455885402065e+02 -3.3127757044792786e+05 -5.6719740471105035e+06 
-2.7000000000000002e+00 -5.3642393605466754e-01 +7.3401838129859760e+00 -6.0189572235714950e-01 +3.4843849168374405e+01 +8.3416683666369488e+02 -3.3198170365575264e+05 -5.8711683356616218e+06 
-2.7999999999999998e+00 -5.3642411416105862e-01 +7.3402066953915819e+00 -6.0463768140891305e-01 +3.4859108453759013e+01 +8.8524331429645451e+02 -3.3264474424132111e+05 -6.1159026290156171e+06 
-2.8999999999999999e+00 -5.3642428953469778e-01 +7.3402303141728042e+00 -6.0801076334521165e-01 +3.4863192687575975e+01 +9.4581243852738453e+02 -3.3326052766763017e+05 -6.3992512354237661e+06 
-3.0000000000000000e+00 -5.3642446254639431e-01 +7.3402543078599365e+00 -6.1191361308833725e-01 +3.4857105083779814e+01 +1.0142426433908145e+03 -3.3382288978647557e+05 -6.7142884033993538e+06 
-3.1000000000000001e+00 -5.3642463356696746e-01 +7.3402783149787192e+00 -6.1624487140190298e-01 +3.4841848985949476e+01 +1.0889022744704023e+03 -3.3432566717704810e+05 -7.0540879531777939e+06 
-3.2000000000000002e+00 -5.3642480296716200e-01 +7.3403019740439133e+00 -6.2090318519763987e-01 +3.4818428053423581e+01 +1.1681597876806977e+03 -3.3476269822689897e+05 -7.4117242357340362e+06 
-3.2999999999999998e+00 -5.3642497111776122e-01 +7.3403249235652117e+00 -6.2578719303702945e-01 +3.4787846084646446e+01 +1.2503834669439095e+03 -3.3512782207938569e+05 -7.7802707690931847e+06 
-3.3999999999999999e+00 -5.3642513838948780e-01 +7.3403468020428448e+00 -6.3079553757615725e-01 +3.4751107155267178e+01 +1.3339416663119648e+03 -3.3541487947341526e+05 -8.1528014085017322e+06 
-3.5000000000000000e+00 -5.3642530515303866e-01 +7.3403672479694322e+00 -6.3582686049117909e-01 +3.4709215551509757e+01 +1.4172027066156265e+03 -3.3561771231150901e+05 -8.5223898373408914e+06 
-3.6000000000000001e+00 -5.3642547177912459e-01 +7.3403858998265354e+00 -6.4077980077053287e-01 +3.4663175875461611e+01 +1.4985348460931109e+03 -3.3573016428928770e+05 -8.8821094382535685e+06 
-3.7000000000000002e+00 -5.3642563863834225e-01 +7.3404023960840998e+00 -6.4555299778743480e-01 +3.4613993060108712e+01 +1.5763063402866144e+03 -3.3574608097030316e+05 -9.2250335823710095e+06 
-3.7999999999999998e+00 -5.3642580610132473e-01 +7.3404163752031346e+00 -6.5004509090969298e-01 +3.4562672295240134e+01 +1.6488854255288861e+03 -3.3565930936493905e+05 -9.5442355287744235e+06 
-3.8999999999999999e+00 -5.3642597453867791e-01 +7.3404274756286814e+00 -6.5415471840412898e-01 +3.4510219218296321e+01 +1.7146403051948669e+03 -3.3546369900555152e+05 -9.8327883785182387e+06 
-4.0000000000000000e+00 -5.3642614432090918e-01 +7.3404353357981851e+00 -6.5778051512879010e-01 +3.4457639781925813e+01 +1.7719391117045791e+03 -3.3515310126605810e+05 -1.0083764905474570e+07 
-4.0999999999999996e+00 -5.3642631566364374e-01 +7.3404396889695906e+00 -6.6084678967636101e-01 +3.4406200966211514e+01 +1.8195493187835259e+03 -3.3472663406683924e+05 -1.0291919801985115e+07 
-4.2000000000000002e+00 -5.3642648821192240e-01 +7.3404406201521288e+00 -6.6337456014075735e-01 +3.4358096500584800e+01 +1.8577045666504987e+03 -3.3420255097078974e+05 -1.0458095603437593e+07 
-4.2999999999999998e+00 -5.3642666147957097e-01 +7.3404382958401166e+00 -6.6540760922396447e-01 +3.4315731574325568e+01 +1.8869751335853746e+03 -3.3360348306837463e+05 -1.0584512942175141e+07 
-4.4000000000000004e+00 -5.3642683498032662e-01 +7.3404328825307505e+00 -6.6698971920100592e-01 +3.4281511350359963e+01 +1.9079312922820252e+03 -3.3295206144107331e+05 -1.0673392411493607e+07 
-4.5000000000000000e+00 -5.3642700822799494e-01 +7.3404245467267550e+00 -6.6816467827769332e-01 +3.4257840890517798e+01 +1.9211434257133492e+03 -3.3227091673953127e+05 -1.0726955101602115e+07 
-4.5999999999999996e+00 -5.3642718073632445e-01 +7.3404134549352822e+00 -6.6897627178797991e-01 +3.4247125182105613e+01 +1.9271818720600454e+03 -3.3158267931994272e+05 -1.0747421891280213e+07 
-4.7000000000000002e+00 -5.3642735201911829e-01 +7.3403997736727922e+00 -6.6946829263194840e-01 +3.4251769011533547e+01 +1.9266171085925009e+03 -3.3090997855016030e+05 -1.0737014284624150e+07 
-4.7999999999999998e+00 -5.3642752159011542e-01 +7.3403836694573545e+00 -6.6968453128004513e-01 +3.4274177182821397e+01 +1.9200195730330831e+03 -3.3027544406964676e+05 -1.0697953588163368e+07 
-4.9000000000000004e+00 -5.3642768896313153e-01 +7.3403653088139675e+00 -6.6966878494794313e-01 +3.4316754370579211e+01 +1.9079598369259347e+03 -3.2970170495067997e+05 -1.0632461732293027e+07 
-5.0000000000000000e+00 -5.3642785365189749e-01 +7.3403448582747295e+00 -6.6946485033363212e-01 +3.4381905117317700e+01 +1.8910084608985276e+03 -3.2921138969421107e+05 -1.0542760561041681e+07 
-5.0999999999999996e+00 -5.3642801517024163e-01 +7.3403224843781025e+00 -6.6911652851792447e-01 +3.4472033851737294e+01 +1.8697360952874724e+03 -3.2882712632179703e+05 -1.0431072331590317e+07 
-5.2000000000000002e+00 -5.3642817303192203e-01 +7.3402983536746484e+00 -6.6866762265786295e-01 +3.4589544737721447e+01 +1.8447134354393868e+03 -3.2857154154756427e+05 -1.0299619496672766e+07 
-5.2999999999999998e+00 -5.3642832675073915e-01 +7.3402726327135595e+00 -6.6816193711634908e-01 +3.4736842051202977e+01 +1.8165112030109085e+03 -3.2846726291983167e+05 -1.0150624607358497e+07 
-5.4000000000000004e+00 -5.3642847584046438e-01 +7.3402454880599679e+00 -6.6764328352123314e-01 +3.4916329699739599e+01 +1.7857002627733177e+03 -3.2853691609917162e+05 -9.9863108719277345e+06 
-5.5000000000000000e+00 -5.3642861981487355e-01 +7.3402170862828875e+00 -6.6715547340086878e-01 +3.5130411557007967e+01 +1.7528514837376088e+03 -3.2880312675716745e+05 -9.8089014969319664e+06 
-5.5999999999999996e+00 -5.3642875818780211e-01 +7.3401875939629111e+00 -6.6674232459228699e-01 +3.5381491257687948e+01 +1.7185358601080170e+03 -3.2928851942527445e+05 -9.6206202578620967e+06 
-5.7000000000000002e+00 -5.3642889047305442e-01 +7.3401571776884946e+00 -6.6644765313919840e-01 +3.5671972298289909e+01 +1.6833243581471704e+03 -3.3001571807710087e+05 -9.4236907712209765e+06 
-5.7999999999999998e+00 -5.3642901618442040e-01 +7.3401260040592327e+00 -6.6631528426914410e-01 +3.6004257953580371e+01 +1.6477881257585727e+03 -3.3100734566249215e+05 -9.2203374932959434e+06 
-5.9000000000000004e+00 -5.3642913483571064e-01 +7.3400942396813003e+00 -6.6638904539914900e-01 +3.6380751396104280e+01 +1.6124983589522353e+03 -3.3228602476990561e+05 -9.0127850805577338e+06 
-5.9999999999999902e+00 -5.3642924594078800e-01 +7.3400620511710040e+00 -6.6671276510705912e-01 +3.6803855355955129e+01 +1.5780262666588342e+03 -3.3387437534059794e+05 -8.8032581742364876e+06 
-6.0999999999999899e+00 -5.3642934935049813e-01 +7.3400296045100122e+00 -6.6731845763736364e-01 +3.7274531557607155e+01 +1.5448344448741784e+03 -3.3578498353011202e+05 -8.5936434878807310e+06 
-6.1999999999999904e+00 -5.3642944609646837e-01 +7.3399970724548700e+00 -6.6819534522789992e-01 +3.7788500358863068e+01 +1.5130229070069649e+03 -3.3799454871056654e+05 -8.3848262704392420e+06 
-6.2999999999999901e+00 -5.3642953746878053e-01 +7.3399646313220872e+00 -6.6932300357719021e-01 +3.8340283520989054e+01 +1.4826168219907847e+03 -3.4047170095684007e+05 -8.1775149903184352e+06 
-6.3999999999999897e+00 -5.3642962475756029e-01 +7.3399324574207112e+00 -6.7068100302451605e-01 +3.8924402884537749e+01 +1.4536412636975369e+03 -3.4318507046535995e+05 -7.9724176956876051e+06 
-6.4999999999999902e+00 -5.3642970925297684e-01 +7.3399007270527434e+00 -6.7224890977694329e-01 +3.9535380359486759e+01 +1.4261212417214820e+03 -3.4610328750166623e+05 -7.7702421815681541e+06 
-6.5999999999999899e+00 -5.3642979224520859e-01 +7.3398696165192066e+00 -6.7400628953149777e-01 +4.0167737744458613e+01 +1.4000817643205273e+03 -3.4919498134718079e+05 -7.5716962723035002e+06 
-6.6999999999999904e+00 -5.3642987502450878e-01 +7.3398393021055810e+00 -6.7593269894553543e-01 +4.0815997131270322e+01 +1.3755476778917316e+03 -3.5242878258977714e+05 -7.3774870663592005e+06 
-6.7999999999999901e+00 -5.3642995888116263e-01 +7.3398099600980542e+00 -6.7800769506655389e-01 +4.1474680438781704e+01 +1.3525438491143650e+03 -3.5577332044503186e+05 -7.1883218092628187e+06 
-6.8999999999999897e+00 -5.3643004510545056e-01 +7.3397817667743110e+00 -6.8021082618350948e-01 +4.2138309677775617e+01 +1.3310949892225813e+03 -3.5919722427803307e+05 -7.0049070540342629e+06 
-6.9999999999999902e+00 -5.3643013498774572e-01 +7.3397548983986445e+00 -6.8252163980477454e-01 +4.2801407064647165e+01 +1.3112258077003744e+03 -3.6266912419645308e+05 -6.8279493990426315e+06 
-7.0999999999999899e+00 -5.3643022981845756e-01 +7.3397295312345365e+00 -6.8491967610420579e-01 +4.3458494671655060e+01 +1.2929608846281594e+03 -3.6615764906132611e+05 -6.6581548726252951e+06 
-7.1999999999999904e+00 -5.3643033088802794e-01 +7.3397058415328829e+00 -6.8738447225984312e-01 +4.4104094750909724e+01 +1.2763247591366437e+03 -3.6963142831621610e+05 -6.4962293718232596e+06 
-7.2999999999999901e+00 -5.3643043948699498e-01 +7.3396840055371220e+00 -6.8989555741278241e-01 +4.4732729586626633e+01 +1.2613418293390250e+03 -3.7305909114347771e+05 -6.3428781746957954e+06 
-7.3999999999999897e+00 -5.3643055690583574e-01 +7.3396641994845133e+00 -6.9243245855759761e-01 +4.5338921441509100e+01 +1.2480364640089902e+03 -3.7640926610070374e+05 -6.1988064732170217e+06 
-7.4999999999999902e+00 -5.3643068443522146e-01 +7.3396465995970441e+00 -6.9497469346753149e-01 +4.5917192825986348e+01 +1.2364328761026297e+03 -3.7965058270500106e+05 -6.0647187925180681e+06 
-7.5999999999999899e+00 -5.3643082336572934e-01 +7.3396313820937493e+00 -6.9750177818312864e-01 +4.6462066119990837e+01 +1.2265552535421896e+03 -3.8275166918726242e+05 -5.9413195828631781e+06 
-7.6999999999999904e+00 -5.3643097498808379e-01 +7.3396187231802568e+00 -6.9999322174085898e-01 +4.6968063888447936e+01 +1.2184276714185860e+03 -3.8568115434020391e+05 -5.8293128374238033e+06 
-7.7999999999999901e+00 -5.3643114059305730e-01 +7.3396087990514154e+00 -7.0242852433262160e-01 +4.7429708779831074e+01 +1.2120740485181029e+03 -3.8840766688307468e+05 -5.7294018622070085e+06 
-7.8999999999999897e+00 -5.3643132147147043e-01 +7.3396017858968463e+00 -7.0478718435882026e-01 +4.7841523368152615e+01 +1.2075182870116862e+03 -3.9089983454450924e+05 -5.6422899573799148e+06 
-7.9999999999999902e+00 -5.3643151891413721e-01 +7.3395978598850826e+00 -7.0704868981305347e-01 +4.8198030641595309e+01 +1.2047840933937443e+03 -3.9312628738356370e+05 -5.5686795790915880e+06 
-8.0999999999999908e+00 -5.3643173394468779e-01 +7.3395971325261931e+00 -7.0919453716850933e-01 +4.8495093675124870e+01 +1.2038605505237417e+03 -3.9506268352683267e+05 -5.5090324545356426e+06 
-8.1999999999999904e+00 -5.3643196669426285e-01 +7.3395994865829941e+00 -7.1121125859219503e-01 +4.8733274819624000e+01 +1.2045887875989010e+03 -3.9670900051066442e+05 -5.4628330010112468e+06 
-8.2999999999999901e+00 -5.3643221710784705e-01 +7.3396047543090202e+00 -7.1308605057256325e-01 +4.8914166013211585e+01 +1.2067716910696217e+03 -3.9807048666736385e+05 -5.4293230949561391e+06 
-8.3999999999999897e+00 -5.3643248513032660e-01 +7.3396127679513876e+00 -7.1480610863007776e-01 +4.9039359346502486e+01 +1.2102121172324853e+03 -3.9915239108209003e+05 -5.4077444524314580e+06 
-8.4999999999999893e+00 -5.3643277070668594e-01 +7.3396233597486917e+00 -7.1635862760657565e-01 +4.9110447114683325e+01 +1.2147129083887075e+03 -3.9995996386336262e+05 -5.3973387358014239e+06 
-8.5999999999999908e+00 -5.3643307378178218e-01 +7.3396363619374814e+00 -7.1773080194675642e-01 +4.9129021627093550e+01 +1.2200768896030320e+03 -4.0049845503662707e+05 -5.3973475141588505e+06 
-8.6999999999999904e+00 -5.3643339430053771e-01 +7.3396516067484097e+00 -7.1890982917125057e-01 +4.9096675337443962e+01 +1.2261069407969867e+03 -4.0077311534411524e+05 -5.4070126235749833e+06 
-8.7999999999999794e+00 -5.3643373220776980e-01 +7.3396689264011190e+00 -7.1988290637521546e-01 +4.9015000968679203e+01 +1.2326059215883661e+03 -4.0078919690520113e+05 -5.4255757882800438e+06 
-8.8999999999999808e+00 -5.3643408744828114e-01 +7.3396881531130109e+00 -7.2063723046101358e-01 +4.8885591269655116e+01 +1.2393766855736023e+03 -4.0055195183337544e+05 -5.4522787130630361e+06 
-8.9999999999999805e+00 -5.3643445996693384e-01 +7.3397091190933290e+00 -7.2115999750067761e-01 +4.8710039191391836e+01 +1.2462220592098183e+03 -4.0006663326782803e+05 -5.4863629607835794e+06 
-9.0999999999999801e+00 -5.3643484970846345e-01 +7.3397316565460766e+00 -7.2143840664746073e-01 +4.8489937797503160e+01 +1.2529449214079427e+03 -3.9933849484624388e+05 -5.5270703448618818e+06 
-9.1999999999999797e+00 -5.3643525661758684e-01 +7.3397555976673505e+00 -7.2145965612209095e-01 +4.8226880335709744e+01 +1.2593481237354731e+03 -3.9837279109010170e+05 -5.5736425409877375e+06 
-9.2999999999999794e+00 -5.3643568063906344e-01 +7.3397807746449271e+00 -7.2121094579934886e-01 +4.7922460262664920e+01 +1.2652345411934314e+03 -3.9717477759030630e+05 -5.6253213328295369e+06 
-9.3999999999999808e+00 -5.3643612171754973e-01 +7.3398070196638487e+00 -7.2067947503925267e-01 +4.7578271070271640e+01 +1.2704070284041081e+03 -3.9574970996525034e+05 -5.6813483969623139e+06 
-9.4999999999999805e+00 -5.3643657979766513e-01 +7.3398341648979297e+00 -7.1985244440964136e-01 +4.7195906538433817e+01 +1.2746684555187544e+03 -3.9410284534396883e+05 -5.7409654846516708e+06 
-9.5999999999999801e+00 -5.3643705482408977e-01 +7.3398620425164429e+00 -7.1871705394173424e-01 +4.6776960537426746e+01 +1.2778216730739605e+03 -3.9223944120111037e+05 -5.8034142457996672e+06 
-9.6999999999999797e+00 -5.3643754674132593e-01 +7.3398904846815007e+00 -7.1726050853597745e-01 +4.6323027110857133e+01 +1.2796696127618336e+03 -3.9016475586520776e+05 -5.8679367076716507e+06 
-9.7999999999999794e+00 -5.3643805549399648e-01 +7.3399193235429818e+00 -7.1547000781012793e-01 +4.5835700615048239e+01 +1.2800150960954822e+03 -3.8788404929736722e+05 -5.9337743669221476e+06 
-9.8999999999999808e+00 -5.3643858102656561e-01 +7.3399483912487904e+00 -7.1333275766524562e-01 +4.5316575420276969e+01 +1.2786610534871502e+03 -3.8540258135693253e+05 -6.0001692303308016e+06 
-9.9999999999999805e+00 -5.3643912328336574e-01 +7.3399775199597279e+00 -7.1083596525066228e-01 +4.4767246124958938e+01 +1.2754104322643093e+03 -3.8272561371268349e+05 -6.0663633832431091e+06 
-1.0100000000000000e+01 -5.3643968183295254e-01 +7.3400065659432752e+00 -7.0798547159867886e-01 +4.4189843488924112e+01 +1.2702744671795392e+03 -3.7986301565624401e+05 -6.1322901259466382e+06 
