# trajectory
# s[mm] rx[mm] ry[mm] rz[mm] px[rad] py[rad] pz[rad]
0.0000000000000000e+00 +8.1529999999999987e+00 +0.0000000000000000e+00 +0.0000000000000000e+00 +0.0000000000000000e+00 +0.0000000000000000e+00 +1.0000000000000000e+00
-1.0000000000000001e-01 +8.1529997168144259e+00 +0.0000000000000000e+00 -9.9999999999465378e-02 +5.6637116500050595e-06 +0.0000000000000000e+00 +9.9999999998396116e-01
-2.0000000000000001e-01 +8.1529988672576206e+00 +0.0000000000000000e+00 -1.9999999999572299e-01 +1.1327424718743663e-05 +0.0000000000000000e+00 +9.9999999993584465e-01
-3.0000000000000004e-01 +8.1529974513294245e+00 +0.0000000000000000e+00 -2.9999999998556504e-01 +1.6991139528311177e-05 +0.0000000000000000e+00 +9.9999999985565047e-01
-4.0000000000000002e-01 +8.1529954690296478e+00 +0.0000000000000000e+00 -3.9999999996578384e-01 +2.2654856373799030e-05 +0.0000000000000000e+00 +9.9999999974337861e-01
-5.0000000000000000e-01 +8.1529929203580735e+00 +0.0000000000000000e+00 -4.9999999993317157e-01 +2.8318575523294690e-05 +0.0000000000000000e+00 +9.9999999959902897e-01
-5.9999999999999998e-01 +8.1529898053144585e+00 +0.0000000000000000e+00 -5.9999999988452046e-01 +3.3982297217881668e-05 +0.0000000000000000e+00 +9.9999999942260154e-01
-6.9999999999999996e-01 +8.1529861238985379e+00 +0.0000000000000000e+00 -6.9999999981662264e-01 +3.9646021671639539e-05 +0.0000000000000000e+00 +9.9999999921409632e-01
-7.9999999999999993e-01 +8.1529818761100259e+00 +0.0000000000000000e+00 -7.9999999972627045e-01 +4.5309749071643983e-05 +0.0000000000000000e+00 +9.9999999897351322e-01
-8.9999999999999991e-01 +8.1529770619486204e+00 +0.0000000000000000e+00 -8.9999999961025601e-01 +5.0973479577966831e-05 +0.0000000000000000e+00 +9.9999999870085210e-01
-9.9999999999999989e-01 +8.1529716814140034e+00 +0.0000000000000000e+00 -9.9999999946537155e-01 +5.6637213323676188e-05 +0.0000000000000000e+00 +9.9999999839611298e-01
-1.0999999999999999e+00 +8.1529657345058446e+00 +0.0000000000000000e+00 -1.0999999992884093e+00 +6.2300950414836482e-05 +0.0000000000000000e+00 +9.9999999805929574e-01
-1.2000000000000000e+00 +8.1529592212238065e+00 +0.0000000000000000e+00 -1.1999999990761614e+00 +6.7964690930508623e-05 +0.0000000000000000e+00 +9.9999999769040038e-01
-1.3000000000000000e+00 +8.1529521415675426e+00 +0.0000000000000000e+00 -1.2999999988254201e+00 +7.3628434922750138e-05 +0.0000000000000000e+00 +9.9999999728942679e-01
-1.4000000000000001e+00 +8.1529444955367047e+00 +0.0000000000000000e+00 -1.3999999985329774e+00 +7.9292182416615327e-05 +0.0000000000000000e+00 +9.9999999685637486e-01
-1.5000000000000002e+00 +8.1529362831309431e+00 +0.0000000000000000e+00 -1.4999999981956258e+00 +8.4955933410155431e-05 +0.0000000000000000e+00 +9.9999999639124459e-01
-1.6000000000000003e+00 +8.1529275043499077e+00 +0.0000000000000000e+00 -1.5999999978101571e+00 +9.0619687874418864e-05 +0.0000000000000000e+00 +9.9999999589403599e-01
-1.7000000000000004e+00 +8.1529181591932538e+00 +0.0000000000000000e+00 -1.6999999973733637e+00 +9.6283445753451416e-05 +0.0000000000000000e+00 +9.9999999536474893e-01
-1.8000000000000005e+00 +8.1529082476606458e+00 +0.0000000000000000e+00 -1.7999999968820377e+00 +1.0194720696429650e-04 +0.0000000000000000e+00 +9.9999999480338342e-01
-1.9000000000000006e+00 +8.1528977697517533e+00 +0.0000000000000000e+00 -1.8999999963329712e+00 +1.0761097139699540e-04 +0.0000000000000000e+00 +9.9999999420993935e-01
-2.0000000000000004e+00 +8.1528867254662636e+00 +0.0000000000000000e+00 -1.9999999957229564e+00 +1.1327473891458760e-04 +0.0000000000000000e+00 +9.9999999358441671e-01
-2.1000000000000005e+00 +8.1528751148038729e+00 +0.0000000000000000e+00 -2.0999999950487851e+00 +1.1893850935470929e-04 +0.0000000000000000e+00 +9.9999999292681541e-01
-2.2000000000000006e+00 +8.1528629377643007e+00 +0.0000000000000000e+00 -2.1999999943072499e+00 +1.2460228254717456e-04 +0.0000000000000000e+00 +9.9999999223713554e-01
-2.3000000000000007e+00 +8.1528501943472769e+00 +0.0000000000000000e+00 -2.2999999934951427e+00 +1.3026605833155628e-04 +0.0000000000000000e+00 +9.9999999151537700e-01
-2.4000000000000008e+00 +8.1528368845525527e+00 +0.0000000000000000e+00 -2.3999999926092559e+00 +1.3592983655878437e-04 +0.0000000000000000e+00 +9.9999999076153978e-01
-2.5000000000000009e+00 +8.1528230083798885e+00 +0.0000000000000000e+00 -2.4999999916463813e+00 +1.4159361709114568e-04 +0.0000000000000000e+00 +9.9999998997562378e-01
-2.6000000000000010e+00 +8.1528085658290621e+00 +0.0000000000000000e+00 -2.5999999906033113e+00 +1.4725739980228387e-04 +0.0000000000000000e+00 +9.9999998915762911e-01
-2.7000000000000011e+00 +8.1527935568998604e+00 +0.0000000000000000e+00 -2.6999999894768378e+00 +1.5292118457719926e-04 +0.0000000000000000e+00 +9.9999998830755565e-01
-2.8000000000000012e+00 +8.1527779815920827e+00 +0.0000000000000000e+00 -2.7999999882637532e+00 +1.5858497131224876e-04 +0.0000000000000000e+00 +9.9999998742540341e-01
-2.9000000000000012e+00 +8.1527618399055370e+00 +0.0000000000000000e+00 -2.8999999869608493e+00 +1.6424875991514552e-04 +0.0000000000000000e+00 +9.9999998651117239e-01
-3.0000000000000013e+00 +8.1527451318400406e+00 +0.0000000000000000e+00 -2.9999999855649184e+00 +1.6991255030495886e-04 +0.0000000000000000e+00 +9.9999998556486258e-01
-3.1000000000000014e+00 +8.1527278573954192e+00 +0.0000000000000000e+00 -3.0999999840727526e+00 +1.7557634241211400e-04 +0.0000000000000000e+00 +9.9999998458647399e-01
-3.2000000000000015e+00 +8.1527100165715041e+00 +0.0000000000000000e+00 -3.1999999824811440e+00 +1.8124013617839177e-04 +0.0000000000000000e+00 +9.9999998357600650e-01
-3.3000000000000016e+00 +8.1526916093681301e+00 +0.0000000000000000e+00 -3.2999999807868847e+00 +1.8690393155692831e-04 +0.0000000000000000e+00 +9.9999998253346012e-01
-3.4000000000000017e+00 +8.1526726357851391e+00 +0.0000000000000000e+00 -3.3999999789867670e+00 +1.9256772851221482e-04 +0.0000000000000000e+00 +9.9999998145883484e-01
-3.5000000000000018e+00 +8.1526530958223749e+00 +0.0000000000000000e+00 -3.4999999770775827e+00 +1.9823152702009715e-04 +0.0000000000000000e+00 +9.9999998035213067e-01
-3.6000000000000019e+00 +8.1526329894796827e+00 +0.0000000000000000e+00 -3.5999999750561238e+00 +2.0389532706777556e-04 +0.0000000000000000e+00 +9.9999997921334760e-01
-3.7000000000000020e+00 +8.1526123167569100e+00 +0.0000000000000000e+00 -3.6999999729191826e+00 +2.0955912865380419e-04 +0.0000000000000000e+00 +9.9999997804248553e-01
-3.8000000000000020e+00 +8.1525910776539003e+00 +0.0000000000000000e+00 -3.7999999706635514e+00 +2.1522293178809074e-04 +0.0000000000000000e+00 +9.9999997683954456e-01
-3.9000000000000021e+00 +8.1525692721704992e+00 +0.0000000000000000e+00 -3.8999999682860222e+00 +2.2088673649189603e-04 +0.0000000000000000e+00 +9.9999997560452458e-01
-4.0000000000000018e+00 +8.1525469003065485e+00 +0.0000000000000000e+00 -3.9999999657833869e+00 +2.2655054279783354e-04 +0.0000000000000000e+00 +9.9999997433742549e-01
-4.1000000000000014e+00 +8.1525239620618848e+00 +0.0000000000000000e+00 -4.0999999631524382e+00 +2.3221435074951980e-04 +0.0000000000000000e+00 +9.9999997303824728e-01
-4.2000000000000011e+00 +8.1525004574363411e+00 +0.0000000000000000e+00 -4.1999999603899676e+00 +2.3787816039773423e-04 +0.0000000000000000e+00 +9.9999997170698995e-01
-4.3000000000000007e+00 +8.1524763864297469e+00 +0.0000000000000000e+00 -4.2999999574927674e+00 +2.4354197179657909e-04 +0.0000000000000000e+00 +9.9999997034365351e-01
-4.4000000000000004e+00 +8.1524517490419228e+00 +0.0000000000000000e+00 -4.3999999544576296e+00 +2.4920578500313027e-04 +0.0000000000000000e+00 +9.9999996894823784e-01
-4.5000000000000000e+00 +8.1524265452726841e+00 +0.0000000000000000e+00 -4.4999999512813460e+00 +2.5486960007743725e-04 +0.0000000000000000e+00 +9.9999996752074294e-01
-4.5999999999999996e+00 +8.1524007751218424e+00 +0.0000000000000000e+00 -4.5999999479607085e+00 +2.6053341708252289e-04 +0.0000000000000000e+00 +9.9999996606116870e-01
-4.6999999999999993e+00 +8.1523744385892005e+00 +0.0000000000000000e+00 -4.6999999444925100e+00 +2.6619723608438357e-04 +0.0000000000000000e+00 +9.9999996456951512e-01
-4.7999999999999989e+00 +8.1523475356745561e+00 +0.0000000000000000e+00 -4.7999999408735423e+00 +2.7186105715198885e-04 +0.0000000000000000e+00 +9.9999996304578209e-01
-4.8999999999999986e+00 +8.1523200663776993e+00 +0.0000000000000000e+00 -4.8999999371005973e+00 +2.7752488035728156e-04 +0.0000000000000000e+00 +9.9999996148996961e-01
-4.9999999999999982e+00 +8.1522920306984119e+00 +0.0000000000000000e+00 -4.9999999331704670e+00 +2.8318870577517753e-04 +0.0000000000000000e+00 +9.9999995990207757e-01
-5.0999999999999979e+00 +8.1522634286364681e+00 +0.0000000000000000e+00 -5.0999999290799432e+00 +2.8885253348356573e-04 +0.0000000000000000e+00 +9.9999995828210597e-01
-5.1999999999999975e+00 +8.1522342601916353e+00 +0.0000000000000000e+00 -5.1999999248258186e+00 +2.9451636356330802e-04 +0.0000000000000000e+00 +9.9999995663005470e-01
-5.2999999999999972e+00 +8.1522045253636737e+00 +0.0000000000000000e+00 -5.2999999204048853e+00 +3.0018019609823914e-04 +0.0000000000000000e+00 +9.9999995494592375e-01
-5.3999999999999968e+00 +8.1521742241523310e+00 +0.0000000000000000e+00 -5.3999999158139342e+00 +3.0584403117516661e-04 +0.0000000000000000e+00 +9.9999995322971302e-01
-5.4999999999999964e+00 +8.1521433565573496e+00 +0.0000000000000000e+00 -5.4999999110497582e+00 +3.1150786888387060e-04 +0.0000000000000000e+00 +9.9999995148142240e-01
-5.5999999999999961e+00 +8.1521119225784631e+00 +0.0000000000000000e+00 -5.5999999061091490e+00 +3.1717170931710396e-04 +0.0000000000000000e+00 +9.9999994970105188e-01
-5.6999999999999957e+00 +8.1520799222153926e+00 +0.0000000000000000e+00 -5.6999999009888986e+00 +3.2283555257059209e-04 +0.0000000000000000e+00 +9.9999994788860136e-01
-5.7999999999999954e+00 +8.1520473554678521e+00 +0.0000000000000000e+00 -5.7999998956857999e+00 +3.2849939874303284e-04 +0.0000000000000000e+00 +9.9999994604407083e-01
-5.8999999999999950e+00 +8.1520142223355432e+00 +0.0000000000000000e+00 -5.8999998901966437e+00 +3.3416324793609646e-04 +0.0000000000000000e+00 +9.9999994416746008e-01
-5.9999999999999947e+00 +8.1519805228181603e+00 +0.0000000000000000e+00 -5.9999998845182230e+00 +3.3982710025442559e-04 +0.0000000000000000e+00 +9.9999994225876909e-01
-6.0999999999999943e+00 +8.1519462569153855e+00 +0.0000000000000000e+00 -6.0999998786473286e+00 +3.4549095580521276e-04 +0.0000000000000000e+00 +9.9999994031799777e-01
-6.1999999999999940e+00 +8.1519114246268884e+00 +0.0000000000000000e+00 -6.1999998725807535e+00 +3.5115481469355476e-04 +0.0000000000000000e+00 +9.9999993834514600e-01
-6.2999999999999936e+00 +8.1518760259523315e+00 +0.0000000000000000e+00 -6.2999998663152885e+00 +3.5681867701780760e-04 +0.0000000000000000e+00 +9.9999993634021367e-01
-6.3999999999999932e+00 +8.1518400608913666e+00 +0.0000000000000000e+00 -6.3999998598477266e+00 +3.6248254286916446e-04 +0.0000000000000000e+00 +9.9999993430320078e-01
-6.4999999999999929e+00 +8.1518035294436366e+00 +0.0000000000000000e+00 -6.4999998531748595e+00 +3.6814641233165642e-04 +0.0000000000000000e+00 +9.9999993223410710e-01
-6.5999999999999925e+00 +8.1517664316087775e+00 +0.0000000000000000e+00 -6.5999998462934792e+00 +3.7381028548215308e-04 +0.0000000000000000e+00 +9.9999993013293265e-01
-6.6999999999999922e+00 +8.1517287673864161e+00 +0.0000000000000000e+00 -6.6999998392003768e+00 +3.7947416239036329e-04 +0.0000000000000000e+00 +9.9999992799967730e-01
-6.7999999999999918e+00 +8.1516905367761723e+00 +0.0000000000000000e+00 -6.7999998318923449e+00 +3.8513804311883569e-04 +0.0000000000000000e+00 +9.9999992583434094e-01
-6.8999999999999915e+00 +8.1516517397776624e+00 +0.0000000000000000e+00 -6.8999998243661755e+00 +3.9080192772295946e-04 +0.0000000000000000e+00 +9.9999992363692358e-01
-6.9999999999999911e+00 +8.1516123763904957e+00 +0.0000000000000000e+00 -6.9999998166186606e+00 +3.9646581625096524e-04 +0.0000000000000000e+00 +9.9999992140742500e-01
-7.0999999999999908e+00 +8.1515724466142796e+00 +0.0000000000000000e+00 -7.0999998086465919e+00 +4.0212970874392557e-04 +0.0000000000000000e+00 +9.9999991914584518e-01
-7.1999999999999904e+00 +8.1515319504486143e+00 +0.0000000000000000e+00 -7.1999998004467605e+00 +4.0779360523575598e-04 +0.0000000000000000e+00 +9.9999991685218403e-01
-7.2999999999999901e+00 +8.1514908878930985e+00 +0.0000000000000000e+00 -7.2999997920159592e+00 +4.1345750575321562e-04 +0.0000000000000000e+00 +9.9999991452644155e-01
-7.3999999999999897e+00 +8.1514492589473289e+00 +0.0000000000000000e+00 -7.3999997833509799e+00 +4.1912141031590815e-04 +0.0000000000000000e+00 +9.9999991216861761e-01
-7.4999999999999893e+00 +8.1514070636109004e+00 +0.0000000000000000e+00 -7.4999997744486135e+00 +4.2478531893628272e-04 +0.0000000000000000e+00 +9.9999990977871211e-01
-7.5999999999999890e+00 +8.1513643018834063e+00 +0.0000000000000000e+00 -7.5999997653056530e+00 +4.3044923161963467e-04 +0.0000000000000000e+00 +9.9999990735672495e-01
-7.6999999999999886e+00 +8.1513209737644416e+00 +0.0000000000000000e+00 -7.6999997559188893e+00 +4.3611314836410655e-04 +0.0000000000000000e+00 +9.9999990490265611e-01
-7.7999999999999883e+00 +8.1512770792535996e+00 +0.0000000000000000e+00 -7.7999997462851152e+00 +4.4177706916068919e-04 +0.0000000000000000e+00 +9.9999990241650549e-01
-7.8999999999999879e+00 +8.1512326183504751e+00 +0.0000000000000000e+00 -7.8999997364011216e+00 +4.4744099399322243e-04 +0.0000000000000000e+00 +9.9999989989827309e-01
-7.9999999999999876e+00 +8.1511875910546667e+00 +0.0000000000000000e+00 -7.9999997262637006e+00 +4.5310492283839638e-04 +0.0000000000000000e+00 +9.9999989734795880e-01
-8.0999999999999872e+00 +8.1511419973657748e+00 +0.0000000000000000e+00 -8.0999997158696448e+00 +4.5876885566622578e-04 +0.0000000000000000e+00 +9.9999989476556261e-01
-8.1999999999999869e+00 +8.1510958372834015e+00 +0.0000000000000000e+00 -8.1999997052157454e+00 +4.6443279244525978e-04 +0.0000000000000000e+00 +9.9999989215108442e-01
-8.2999999999999865e+00 +8.1510491108071541e+00 +0.0000000000000000e+00 -8.2999996942987924e+00 +4.7009673314779110e-04 +0.0000000000000000e+00 +9.9999988950452423e-01
-8.3999999999999861e+00 +8.1510018179366419e+00 +0.0000000000000000e+00 -8.3999996831155794e+00 +4.7576067775032915e-04 +0.0000000000000000e+00 +9.9999988682588192e-01
-8.4999999999999858e+00 +8.1509539586714759e+00 +0.0000000000000000e+00 -8.4999996716628985e+00 +4.8142462623359985e-04 +0.0000000000000000e+00 +9.9999988411515750e-01
-8.5999999999999854e+00 +8.1509055330112670e+00 +0.0000000000000000e+00 -8.5999996599375415e+00 +4.8708857858254542e-04 +0.0000000000000000e+00 +9.9999988137235085e-01
-8.6999999999999851e+00 +8.1508565409556315e+00 +0.0000000000000000e+00 -8.6999996479363002e+00 +4.9275253478632400e-04 +0.0000000000000000e+00 +9.9999987859746198e-01
-8.7999999999999847e+00 +8.1508069825041822e+00 +0.0000000000000000e+00 -8.7999996356559649e+00 +4.9841649483830922e-04 +0.0000000000000000e+00 +9.9999987579049077e-01
-8.8999999999999844e+00 +8.1507568576565355e+00 +0.0000000000000000e+00 -8.8999996230933291e+00 +5.0408045873609009e-04 +0.0000000000000000e+00 +9.9999987295143711e-01
-8.9999999999999840e+00 +8.1507061664123075e+00 +0.0000000000000000e+00 -8.9999996102451831e+00 +5.0974442648147060e-04 +0.0000000000000000e+00 +9.9999987008030100e-01
-9.0999999999999837e+00 +8.1506549087711111e+00 +0.0000000000000000e+00 -9.0999995971083205e+00 +5.1540839808046938e-04 +0.0000000000000000e+00 +9.9999986717708234e-01
-9.1999999999999833e+00 +8.1506030847325626e+00 +0.0000000000000000e+00 -9.1999995836795314e+00 +5.2107237354331913e-04 +0.0000000000000000e+00 +9.9999986424178111e-01
-9.2999999999999829e+00 +8.1505506942962729e+00 +0.0000000000000000e+00 -9.2999995699556077e+00 +5.2673635288446664e-04 +0.0000000000000000e+00 +9.9999986127439722e-01
-9.3999999999999826e+00 +8.1504977374618548e+00 +0.0000000000000000e+00 -9.3999995559333414e+00 +5.3240033612257198e-04 +0.0000000000000000e+00 +9.9999985827493054e-01
-9.4999999999999822e+00 +8.1504442142289175e+00 +0.0000000000000000e+00 -9.4999995416095242e+00 +5.3806432328050826e-04 +0.0000000000000000e+00 +9.9999985524338109e-01
-9.5999999999999819e+00 +8.1503901245970667e+00 +0.0000000000000000e+00 -9.5999995269809482e+00 +5.4372831438536133e-04 +0.0000000000000000e+00 +9.9999985217974874e-01
-9.6999999999999815e+00 +8.1503354685659080e+00 +0.0000000000000000e+00 -9.6999995120444051e+00 +5.4939230946842918e-04 +0.0000000000000000e+00 +9.9999984908403339e-01
-9.7999999999999812e+00 +8.1502802461350399e+00 +0.0000000000000000e+00 -9.7999994967966852e+00 +5.5505630856522161e-04 +0.0000000000000000e+00 +9.9999984595623492e-01
-9.8999999999999808e+00 +8.1502244573040592e+00 +0.0000000000000000e+00 -9.8999994812345822e+00 +5.6072031171545955e-04 +0.0000000000000000e+00 +9.9999984279635323e-01
-9.9999999999999805e+00 +8.1501681020725592e+00 +0.0000000000000000e+00 -9.9999994653548860e+00 +5.6638431896307488e-04 +0.0000000000000000e+00 +9.9999983960438832e-01
-1.0099999999999980e+01 +8.1501111804401276e+00 +0.0000000000000000e+00 -1.0099999449154391e+01 +5.7204833035596548e-04 +0.0000000000000000e+00 +9.9999983638034007e-01
-1.0199999999999980e+01 +8.1500536924063471e+00 +0.0000000000000000e+00 -1.0199999432629886e+01 +5.7771234594330674e-04 +0.0000000000000000e+00 +9.9999983312420837e-01
-1.0299999999999979e+01 +8.1499956379707967e+00 +0.0000000000000000e+00 -1.0299999415778164e+01 +5.8337636577286375e-04 +0.0000000000000000e+00 +9.9999982983599311e-01
-1.0399999999999979e+01 +8.1499370171330501e+00 +0.0000000000000000e+00 -1.0399999398596016e+01 +5.8904038989074608e-04 +0.0000000000000000e+00 +9.9999982651569419e-01
-1.0499999999999979e+01 +8.1498778298926755e+00 +0.0000000000000000e+00 -1.0499999381080233e+01 +5.9470441834140713e-04 +0.0000000000000000e+00 +9.9999982316331149e-01
-1.0599999999999978e+01 +8.1498180762492360e+00 +0.0000000000000000e+00 -1.0599999363227608e+01 +6.0036845116764382e-04 +0.0000000000000000e+00 +9.9999981977884489e-01
-1.0699999999999978e+01 +8.1497577562022947e+00 +0.0000000000000000e+00 -1.0699999345034932e+01 +6.0603248841059566e-04 +0.0000000000000000e+00 +9.9999981636229429e-01
-1.0799999999999978e+01 +8.1496968697514056e+00 +0.0000000000000000e+00 -1.0799999326498996e+01 +6.1169653010974452e-04 +0.0000000000000000e+00 +9.9999981291365969e-01
-1.0899999999999977e+01 +8.1496354168961229e+00 +0.0000000000000000e+00 -1.0899999307616595e+01 +6.1736057630291366e-04 +0.0000000000000000e+00 +9.9999980943294087e-01
-1.0999999999999977e+01 +8.1495733976359936e+00 +0.0000000000000000e+00 -1.0999999288384515e+01 +6.2302462702626719e-04 +0.0000000000000000e+00 +9.9999980592013782e-01
-1.1099999999999977e+01 +8.1495108119705648e+00 +0.0000000000000000e+00 -1.1099999268799552e+01 +6.2868868231430940e-04 +0.0000000000000000e+00 +9.9999980237525044e-01
-1.1199999999999976e+01 +8.1494476598993781e+00 +0.0000000000000000e+00 -1.1199999248858497e+01 +6.3435274219988404e-04 +0.0000000000000000e+00 +9.9999979879827861e-01
-1.1299999999999976e+01 +8.1493839414219718e+00 +0.0000000000000000e+00 -1.1299999228558139e+01 +6.4001680671417374e-04 +0.0000000000000000e+00 +9.9999979518922222e-01
-1.1399999999999975e+01 +8.1493196565378803e+00 +0.0000000000000000e+00 -1.1399999207895272e+01 +6.4568087588669925e-04 +0.0000000000000000e+00 +9.9999979154808116e-01
-1.1499999999999975e+01 +8.1492548052466383e+00 +0.0000000000000000e+00 -1.1499999186866686e+01 +6.5134494974531873e-04 +0.0000000000000000e+00 +9.9999978787485533e-01
-1.1599999999999975e+01 +8.1491893875477750e+00 +0.0000000000000000e+00 -1.1599999165469173e+01 +6.5700902831622682e-04 +0.0000000000000000e+00 +9.9999978416954471e-01
-1.1699999999999974e+01 +8.1491234034408180e+00 +0.0000000000000000e+00 -1.1699999143699525e+01 +6.6267311162395413e-04 +0.0000000000000000e+00 +9.9999978043214910e-01
