# field on trajectory
# s[mm] rx[mm] ry[mm] rz[mm] bx[T] by[T] bz[T]
-0.0000000000000000e+00 +8.1530000000000094e+00 +0.0000000000000000e+00 -0.0000000000000000e+00 -2.7851603113370822e-02 -5.3668162409990872e-01 +5.3325900616337518e-03
-1.0000000000000001e-01 +8.1529997159377707e+00 +0.0000000000000000e+00 -1.0008006405070299e-01 -2.7851407594456350e-02 -5.3668148378698621e-01 +5.3325811005308990e-03
-2.0000000000000001e-01 +8.1529988637557800e+00 +0.0000000000000000e+00 -2.0016012809818201e-01 -2.7851210697836803e-02 -5.3668135460452771e-01 +5.3325734090365123e-03
-2.9999999999999999e-01 +8.1529974434524792e+00 +0.0000000000000000e+00 -3.0024019213920999e-01 -2.7851012486202510e-02 -5.3668123642060295e-01 +5.3325669602121862e-03
-4.0000000000000002e-01 +8.1529954550242092e+00 +0.0000000000000000e+00 -4.0032025617056399e-01 -2.7850813022240035e-02 -5.3668112910331223e-01 +5.3325617271200174e-03
-5.0000000000000000e-01 +8.1529928984782600e+00 +0.0000000000000000e+00 -5.0040032018901703e-01 -2.7850612368628506e-02 -5.3668103252068589e-01 +5.3325576828215432e-03
-5.9999999999999998e-01 +8.1529897738146193e+00 +0.0000000000000000e+00 -6.0048038419134497e-01 -2.7850410588048449e-02 -5.3668094654081533e-01 +5.3325548003789400e-03
-6.9999999999999996e-01 +8.1529860810223909e+00 +0.0000000000000000e+00 -7.0056044817432195e-01 -2.7850207743184679e-02 -5.3668087103187767e-01 +5.3325530528551823e-03
-8.0000000000000004e-01 +8.1529818201124709e+00 +0.0000000000000000e+00 -8.0064051213472498e-01 -2.7850003896714930e-02 -5.3668080586189060e-01 +5.3325524133115143e-03
-9.0000000000000002e-01 +8.1529769910812302e+00 +0.0000000000000000e+00 -9.0072057606932698e-01 -2.7849799111325770e-02 -5.3668075089897760e-01 +5.3325528548099866e-03
-1.0000000000000000e+00 +8.1529715939250291e+00 +0.0000000000000000e+00 -1.0008006399749001e+00 -2.7849593449708415e-02 -5.3668070601125673e-01 +5.3325543504122788e-03
-1.1000000000000001e+00 +8.1529656286511507e+00 +0.0000000000000000e+00 -1.1008807038482300e+00 -2.7849386974555870e-02 -5.3668067106675932e-01 +5.3325568731787754e-03
-1.2000000000000000e+00 +8.1529590952522994e+00 +0.0000000000000000e+00 -1.2009607676860801e+00 -2.7849179748574655e-02 -5.3668064593361153e-01 +5.3325603961703076e-03
-1.3000000000000000e+00 +8.1529519937357708e+00 +0.0000000000000000e+00 -1.3010408314852300e+00 -2.7848971834474722e-02 -5.3668063047981895e-01 +5.3325648924458929e-03
-1.3999999999999999e+00 +8.1529443240979198e+00 +0.0000000000000000e+00 -1.4011208952424601e+00 -2.7848763294981132e-02 -5.3668062457345000e-01 +5.3325703350644935e-03
-1.5000000000000000e+00 +8.1529360863350995e+00 +0.0000000000000000e+00 -1.5012009589545301e+00 -2.7848554192831266e-02 -5.3668062808255257e-01 +5.3325766970840835e-03
-1.6000000000000001e+00 +8.1529272804509691e+00 +0.0000000000000000e+00 -1.6012810226182299e+00 -2.7848344590773497e-02 -5.3668064087509815e-01 +5.3325839515609976e-03
-1.7000000000000000e+00 +8.1529179064491508e+00 +0.0000000000000000e+00 -1.7013610862303301e+00 -2.7848134551571535e-02 -5.3668066281903071e-01 +5.3325920715503313e-03
-1.8000000000000000e+00 +8.1529079643223703e+00 +0.0000000000000000e+00 -1.8014411497875999e+00 -2.7847924138010380e-02 -5.3668069378234518e-01 +5.3326010301066448e-03
-1.8999999999999999e+00 +8.1528974540779000e+00 +0.0000000000000000e+00 -1.9015212132868200e+00 -2.7847713412887724e-02 -5.3668073363289648e-01 +5.3326108002819447e-03
-2.0000000000000000e+00 +8.1528863757084800e+00 +0.0000000000000000e+00 -2.0016012767247702e+00 -2.7847502439027137e-02 -5.3668078223861004e-01 +5.3326213551278135e-03
-2.1000000000000001e+00 +8.1528747292177304e+00 +0.0000000000000000e+00 -2.1016813400982199e+00 -2.7847291301274110e-02 -5.3668083941725719e-01 +5.3326326924810425e-03
-2.2000000000000002e+00 +8.1528625146056601e+00 +0.0000000000000000e+00 -2.2017614034039301e+00 -2.7847080168383886e-02 -5.3668090479584685e-01 +5.3326449046833804e-03
-2.2999999999999998e+00 +8.1528497318759001e+00 +0.0000000000000000e+00 -2.3018414666387002e+00 -2.7846869229097234e-02 -5.3668097795591008e-01 +5.3326581065962783e-03
-2.3999999999999999e+00 +8.1528363810211903e+00 +0.0000000000000000e+00 -2.4019215297993002e+00 -2.7846658672151699e-02 -5.3668105847906789e-01 +5.3326724130834720e-03
-2.5000000000000000e+00 +8.1528224620451493e+00 +0.0000000000000000e+00 -2.5020015928824901e+00 -2.7846448686271015e-02 -5.3668114594687388e-01 +5.3326879390096261e-03
-2.6000000000000001e+00 +8.1528079749477893e+00 +0.0000000000000000e+00 -2.6020816558850601e+00 -2.7846239460169116e-02 -5.3668123994092420e-01 +5.3327047992416301e-03
-2.7000000000000002e+00 +8.1527929197291105e+00 +0.0000000000000000e+00 -2.7021617188037701e+00 -2.7846031182546784e-02 -5.3668134004283319e-01 +5.3327231086485747e-03
-2.7999999999999998e+00 +8.1527772963891003e+00 +0.0000000000000000e+00 -2.8022417816354102e+00 -2.7845824042089885e-02 -5.3668144583423627e-01 +5.3327429821019732e-03
-2.8999999999999999e+00 +8.1527611049277802e+00 +0.0000000000000000e+00 -2.9023218443767500e+00 -2.7845618227467488e-02 -5.3668155689679164e-01 +5.3327645344760080e-03
-3.0000000000000000e+00 +8.1527443453451305e+00 +0.0000000000000000e+00 -3.0024019070245598e+00 -2.7845413927330042e-02 -5.3668167281218593e-01 +5.3327878806477703e-03
-3.1000000000000001e+00 +8.1527270176411495e+00 +0.0000000000000000e+00 -3.1024819695756198e+00 -2.7845211330307526e-02 -5.3668179316213283e-01 +5.3328131354974688e-03
-3.2000000000000002e+00 +8.1527091218158603e+00 +0.0000000000000000e+00 -3.2025620320267101e+00 -2.7845010625007657e-02 -5.3668191752837902e-01 +5.3328404139086965e-03
-3.2999999999999998e+00 +8.1526906578692397e+00 +0.0000000000000000e+00 -3.3026420943745900e+00 -2.7844812000013982e-02 -5.3668204549270593e-01 +5.3328698307686506e-03
-3.3999999999999999e+00 +8.1526716258013003e+00 +0.0000000000000000e+00 -3.4027221566160502e+00 -2.7844615643884130e-02 -5.3668217663693196e-01 +5.3329015009683668e-03
-3.5000000000000000e+00 +8.1526520256120403e+00 +0.0000000000000000e+00 -3.5028022187478500e+00 -2.7844421745147886e-02 -5.3668231054291582e-01 +5.3329355394029542e-03
-3.6000000000000001e+00 +8.1526318572978198e+00 +0.0000000000000000e+00 -3.6028822807667802e+00 -2.7844230492306877e-02 -5.3668244679258570e-01 +5.3329720609721059e-03
-3.7000000000000002e+00 +8.1526111208659096e+00 +0.0000000000000000e+00 -3.7029623426696099e+00 -2.7844042073826913e-02 -5.3668258496783494e-01 +5.3330111805792507e-03
-3.7999999999999998e+00 +8.1525898163126804e+00 +0.0000000000000000e+00 -3.8030424044531101e+00 -2.7843856678144790e-02 -5.3668272465068545e-01 +5.3330530131334023e-03
-3.8999999999999999e+00 +8.1525679436344909e+00 +0.0000000000000000e+00 -3.9031224661140600e+00 -2.7843674493662221e-02 -5.3668286542321053e-01 +5.3330976735485921e-03
-4.0000000000000000e+00 +8.1525455028386205e+00 +0.0000000000000000e+00 -4.0032025276492398e+00 -2.7843495708739067e-02 -5.3668300686746018e-01 +5.3331452767418804e-03
-4.0999999999999996e+00 +8.1525224939177896e+00 +0.0000000000000000e+00 -4.1032825890554099e+00 -2.7843320495843663e-02 -5.3668314869373546e-01 +5.3331958901291950e-03
-4.2000000000000002e+00 +8.1524989168792708e+00 +0.0000000000000000e+00 -4.2033626503293604e+00 -2.7843148969782731e-02 -5.3668329107775925e-01 +5.3332494084722508e-03
-4.2999999999999998e+00 +8.1524747717157897e+00 +0.0000000000000000e+00 -4.3034427114678504e+00 -2.7842981232288708e-02 -5.3668343430105270e-01 +5.3333056873196942e-03
-4.4000000000000004e+00 +8.1524500584346207e+00 +0.0000000000000000e+00 -4.4035227724676700e+00 -2.7842817385102483e-02 -5.3668357864499483e-01 +5.3333645822144851e-03
-4.5000000000000000e+00 +8.1524247770285001e+00 +0.0000000000000000e+00 -4.5036028333255800e+00 -2.7842657529986294e-02 -5.3668372439103407e-01 +5.3334259486956725e-03
-4.5999999999999996e+00 +8.1523989275046898e+00 +0.0000000000000000e+00 -4.6036828940383696e+00 -2.7842501768713598e-02 -5.3668387182047006e-01 +5.3334896422958869e-03
-4.7000000000000002e+00 +8.1523725098559208e+00 +0.0000000000000000e+00 -4.7037629546028104e+00 -2.7842350203082056e-02 -5.3668402121466585e-01 +5.3335555185431167e-03
-4.7999999999999998e+00 +8.1523455240894709e+00 +0.0000000000000000e+00 -4.8038430150156701e+00 -2.7842202934903391e-02 -5.3668417285483150e-01 +5.3336234329582049e-03
-4.9000000000000004e+00 +8.1523179701980606e+00 +0.0000000000000000e+00 -4.9039230752737302e+00 -2.7842060066016337e-02 -5.3668432702223490e-01 +5.3336932410566291e-03
-5.0000000000000000e+00 +8.1522898481889605e+00 +0.0000000000000000e+00 -5.0040031353737602e+00 -2.7841921698276467e-02 -5.3668448399798374e-01 +5.3337647983459878e-03
-5.0999999999999996e+00 +8.1522611580549000e+00 +0.0000000000000000e+00 -5.1040831953125396e+00 -2.7841787933569256e-02 -5.3668464406323824e-01 +5.3338379603277827e-03
-5.2000000000000002e+00 +8.1522318997995207e+00 +0.0000000000000000e+00 -5.2041632550868497e+00 -2.7841658873801266e-02 -5.3668480749902070e-01 +5.3339125824951846e-03
-5.2999999999999998e+00 +8.1522020734228100e+00 +0.0000000000000000e+00 -5.3042433146934496e+00 -2.7841534620907424e-02 -5.3668497458631981e-01 +5.3339885203337331e-03
-5.4000000000000004e+00 +8.1521716789247893e+00 +0.0000000000000000e+00 -5.4043233741291203e+00 -2.7841415276850925e-02 -5.3668514560605973e-01 +5.3340656293207039e-03
-5.5000000000000000e+00 +8.1521407163090807e+00 +0.0000000000000000e+00 -5.5044034333906504e+00 -2.7841300943623248e-02 -5.3668532083907283e-01 +5.3341437649244879e-03
-5.5999999999999996e+00 +8.1521091855684098e+00 +0.0000000000000000e+00 -5.6044834924747899e+00 -2.7841191723251321e-02 -5.3668550056620223e-01 +5.3342227826052961e-03
-5.7000000000000002e+00 +8.1520770867064094e+00 +0.0000000000000000e+00 -5.7045635513783299e+00 -2.7841087717790283e-02 -5.3668568506813907e-01 +5.3343025378131750e-03
-5.7999999999999998e+00 +8.1520444197231008e+00 +0.0000000000000000e+00 -5.8046436100980499e+00 -2.7840989029330604e-02 -5.3668587462552597e-01 +5.3343828859887298e-03
-5.9000000000000004e+00 +8.1520111846184609e+00 +0.0000000000000000e+00 -5.9047236686307096e+00 -2.7840895759998180e-02 -5.3668606951892861e-01 +5.3344636825624946e-03
-5.9999999999999902e+00 +8.1519773813925003e+00 +0.0000000000000000e+00 -6.0048037269731003e+00 -2.7840808011944725e-02 -5.3668627002881653e-01 +5.3345447829593025e-03
-6.0999999999999899e+00 +8.1519430100452208e+00 +0.0000000000000000e+00 -6.1048837851219799e+00 -2.7840725773628568e-02 -5.3668647627585897e-01 +5.3346260920445060e-03
-6.1999999999999904e+00 +8.1519080705766100e+00 +0.0000000000000000e+00 -6.2049638430741396e+00 -2.7840648639475555e-02 -5.3668668782729256e-01 +5.3347076860165571e-03
-6.2999999999999901e+00 +8.1518725629866804e+00 +0.0000000000000000e+00 -6.3050439008263499e+00 -2.7840576118624064e-02 -5.3668690413060816e-01 +5.3347896781605359e-03
-6.3999999999999897e+00 +8.1518364872754301e+00 +0.0000000000000000e+00 -6.4051239583753699e+00 -2.7840507720207523e-02 -5.3668712463333068e-01 +5.3348721817665923e-03
-6.4999999999999902e+00 +8.1517998434428591e+00 +0.0000000000000000e+00 -6.5052040157180002e+00 -2.7840442953353958e-02 -5.3668734878302149e-01 +5.3349553101302034e-03
-6.5999999999999899e+00 +8.1517626314889604e+00 +0.0000000000000000e+00 -6.6052840728510001e+00 -2.7840381327185589e-02 -5.3668757602728057e-01 +5.3350391765524851e-03
-6.6999999999999904e+00 +8.1517248514137499e+00 +0.0000000000000000e+00 -6.7053641297711399e+00 -2.7840322350818503e-02 -5.3668780581374875e-01 +5.3351238943404565e-03
-6.7999999999999901e+00 +8.1516865032135701e+00 +0.0000000000000000e+00 -6.8054441864752100e+00 -2.7840265533363558e-02 -5.3668803759013672e-01 +5.3352095768076143e-03
-6.8999999999999897e+00 +8.1516475868957095e+00 +0.0000000000000000e+00 -6.9055242429599701e+00 -2.7840210383920316e-02 -5.3668827080411863e-01 +5.3352963372731181e-03
-6.9999999999999902e+00 +8.1516081024565192e+00 +0.0000000000000000e+00 -7.0056042992222096e+00 -2.7840156411585260e-02 -5.3668850490349629e-01 +5.3353842890637168e-03
-7.0999999999999899e+00 +8.1515680498960101e+00 +0.0000000000000000e+00 -7.1056843552586999e+00 -2.7840103125445579e-02 -5.3668873933609307e-01 +5.3354735455129329e-03
-7.1999999999999904e+00 +8.1515274292141804e+00 +0.0000000000000000e+00 -7.2057644110662000e+00 -2.7840050034580295e-02 -5.3668897354978373e-01 +5.3355642199616393e-03
-7.2999999999999901e+00 +8.1514862404073902e+00 +0.0000000000000000e+00 -7.3058444666415099e+00 -2.7839996648061204e-02 -5.3668920699252187e-01 +5.3356564257585866e-03
-7.3999999999999897e+00 +8.1514444834829192e+00 +0.0000000000000000e+00 -7.4059245219813796e+00 -2.7839942474946752e-02 -5.3668943911223610e-01 +5.3357502762596421e-03
-7.4999999999999902e+00 +8.1514021584334806e+00 +0.0000000000000000e+00 -7.5060045770826100e+00 -2.7839887024291750e-02 -5.3668966935701923e-01 +5.3358458848299312e-03
-7.5999999999999899e+00 +8.1513592652663593e+00 +0.0000000000000000e+00 -7.6060846319419504e+00 -2.7839829805135378e-02 -5.3668989717491500e-01 +5.3359433648419883e-03
-7.6999999999999904e+00 +8.1513158039779192e+00 +0.0000000000000000e+00 -7.7061646865561997e+00 -2.7839770326510912e-02 -5.3669012201410915e-01 +5.3360428296779028e-03
-7.7999999999999901e+00 +8.1512717745681602e+00 +0.0000000000000000e+00 -7.8062447409221098e+00 -2.7839708097439565e-02 -5.3669034332282339e-01 +5.3361443927285607e-03
-7.8999999999999897e+00 +8.1512271770334301e+00 +0.0000000000000000e+00 -7.9063247950364799e+00 -2.7839642626932923e-02 -5.3669056054937136e-01 +5.3362481673944247e-03
-7.9999999999999902e+00 +8.1511820113773901e+00 +0.0000000000000000e+00 -8.0064048488960609e+00 -2.7839573424015114e-02 -5.3669077314215241e-01 +5.3363542670765178e-03
-8.0999999999999908e+00 +8.1511362776036496e+00 +0.0000000000000000e+00 -8.1064849024976393e+00 -2.7839500120969297e-02 -5.3669098088386269e-01 +5.3364627660155766e-03
-8.1999999999999904e+00 +8.1510899757086008e+00 +0.0000000000000000e+00 -8.2065649558379903e+00 -2.7839422757344665e-02 -5.3669118466155452e-01 +5.3365736090464320e-03
-8.2999999999999901e+00 +8.1510431056885899e+00 +0.0000000000000000e+00 -8.3066450089139003e+00 -2.7839341456675104e-02 -5.3669138559003937e-01 +5.3366867143182627e-03
-8.3999999999999897e+00 +8.1509956675508892e+00 +0.0000000000000000e+00 -8.4067250617221205e+00 -2.7839256342480748e-02 -5.3669158478406942e-01 +5.3368019999831089e-03
-8.4999999999999893e+00 +8.1509476612882299e+00 +0.0000000000000000e+00 -8.5068051142594392e+00 -2.7839167538277778e-02 -5.3669178335852730e-01 +5.3369193841978219e-03
-8.5999999999999908e+00 +8.1508990869078808e+00 +0.0000000000000000e+00 -8.6068851665226305e+00 -2.7839075167566518e-02 -5.3669198242820892e-01 +5.3370387851219975e-03
-8.6999999999999904e+00 +8.1508499444025801e+00 +0.0000000000000000e+00 -8.7069652185084596e+00 -2.7838979353842736e-02 -5.3669218310804157e-01 +5.3371601209202006e-03
-8.7999999999999794e+00 +8.1508002337759500e+00 +0.0000000000000000e+00 -8.8070452702137203e+00 -2.7838880220587232e-02 -5.3669238651289430e-01 +5.3372833097601715e-03
-8.8999999999999808e+00 +8.1507499550316407e+00 +0.0000000000000000e+00 -8.9071253216351796e+00 -2.7838777891269765e-02 -5.3669259375766010e-01 +5.3374082698136914e-03
-8.9999999999999805e+00 +8.1506991081623692e+00 +0.0000000000000000e+00 -9.0072053727696098e+00 -2.7838672489353216e-02 -5.3669280595733737e-01 +5.3375349192575066e-03
-9.0999999999999801e+00 +8.1506476931717806e+00 +0.0000000000000000e+00 -9.1072854236137797e+00 -2.7838564138284488e-02 -5.3669302422686715e-01 +5.3376631762717362e-03
-9.1999999999999797e+00 +8.1505957100635005e+00 +0.0000000000000000e+00 -9.2073654741644795e+00 -2.7838452961498616e-02 -5.3669324968121679e-01 +5.3377929590408147e-03
-9.2999999999999794e+00 +8.1505431588302599e+00 +0.0000000000000000e+00 -9.3074455244184708e+00 -2.7838339082422735e-02 -5.3669348343545875e-01 +5.3379241857543424e-03
-9.3999999999999808e+00 +8.1504900394757005e+00 +0.0000000000000000e+00 -9.4075255743725297e+00 -2.7838222624467095e-02 -5.3669372660461068e-01 +5.3380567746055541e-03
-9.4999999999999805e+00 +8.1504363520034495e+00 +0.0000000000000000e+00 -9.5076056240234408e+00 -2.7838103711029138e-02 -5.3669398030371784e-01 +5.3381906437922283e-03
-9.5999999999999801e+00 +8.1503820964062506e+00 +0.0000000000000000e+00 -9.6076856733679694e+00 -2.7837982465497471e-02 -5.3669424564793122e-01 +5.3383257115175451e-03
-9.6999999999999797e+00 +8.1503272726913600e+00 +0.0000000000000000e+00 -9.7077657224029004e+00 -2.7837859011241431e-02 -5.3669452375232329e-01 +5.3384618959882897e-03
-9.7999999999999794e+00 +8.1502718808515109e+00 +0.0000000000000000e+00 -9.8078457711250007e+00 -2.7837733471622370e-02 -5.3669481573209954e-01 +5.3385991154171041e-03
-9.8999999999999808e+00 +8.1502159208903304e+00 +0.0000000000000000e+00 -9.9079258195310498e+00 -2.7837605969983185e-02 -5.3669512270241515e-01 +5.3387372880206504e-03
-9.9999999999999805e+00 +8.1501593928078400e+00 +0.0000000000000000e+00 -1.0008005867617801e+01 -2.7837476629648982e-02 -5.3669544577829276e-01 +5.3388763320177659e-03
-1.0100000000000000e+01 +8.1501022966040200e+00 +0.0000000000000000e+00 -1.0108085915382100e+01 -2.7837345562093618e-02 -5.3669578561671283e-01 +5.3390161581966210e-03
-1.0199999999999999e+01 +8.1500446322825209e+00 +0.0000000000000000e+00 -1.0208165962820599e+01 -2.7837212841484976e-02 -5.3669614143111466e-01 +5.3391566539136076e-03
-1.0300000000000001e+01 +8.1499863998360507e+00 +0.0000000000000000e+00 -1.0308246009930199e+01 -2.7837078534677134e-02 -5.3669651215130421e-01 +5.3392977019144899e-03
-1.0400000000000000e+01 +8.1499275992682705e+00 +0.0000000000000000e+00 -1.0408326056707599e+01 -2.7836942708532608e-02 -5.3669689670690512e-01 +5.3394391849356229e-03
-1.0500000000000000e+01 +8.1498682305791608e+00 +0.0000000000000000e+00 -1.0508406103149600e+01 -2.7836805429928599e-02 -5.3669729402746602e-01 +5.3395809857048086e-03
-1.0600000000000000e+01 +8.1498082937723701e+00 +0.0000000000000000e+00 -1.0608486149253000e+01 -2.7836666765754425e-02 -5.3669770304240372e-01 +5.3397229869404875e-03
-1.0699999999999999e+01 +8.1497477888406102e+00 +0.0000000000000000e+00 -1.0708566195014500e+01 -2.7836526782917682e-02 -5.3669812268110706e-01 +5.3398650713525880e-03
-1.0800000000000001e+01 +8.1496867157875403e+00 +0.0000000000000000e+00 -1.0808646240430900e+01 -2.7836385548335993e-02 -5.3669855187277415e-01 +5.3400071216406402e-03
-1.0900000000000000e+01 +8.1496250746131391e+00 +0.0000000000000000e+00 -1.0908726285499000e+01 -2.7836243128943134e-02 -5.3669898954651629e-01 +5.3401490204946188e-03
-1.1000000000000000e+01 +8.1495628653174208e+00 +0.0000000000000000e+00 -1.1008806330215601e+01 -2.7836099591687979e-02 -5.3669943463133007e-01 +5.3402906505944205e-03
-1.1100000000000000e+01 +8.1495000879040198e+00 +0.0000000000000000e+00 -1.1108886374577500e+01 -2.7835955003533464e-02 -5.3669988605606567e-01 +5.3404318946093429e-03
-1.1199999999999999e+01 +8.1494367423620098e+00 +0.0000000000000000e+00 -1.1208966418581401e+01 -2.7835809431464152e-02 -5.3670034274955980e-01 +5.3405726351991884e-03
-1.1300000000000001e+01 +8.1493728287059604e+00 +0.0000000000000000e+00 -1.1309046462224000e+01 -2.7835662942470724e-02 -5.3670080364033734e-01 +5.3407127550110468e-03
-1.1400000000000000e+01 +8.1493083469249505e+00 +0.0000000000000000e+00 -1.1409126505502300e+01 -2.7835515603570643e-02 -5.3670126765698534e-01 +5.3408521366828214e-03
-1.1500000000000000e+01 +8.1492432970226201e+00 +0.0000000000000000e+00 -1.1509206548412800e+01 -2.7835367481792592e-02 -5.3670173372785357e-01 +5.3409906628400193e-03
-1.1600000000000000e+01 +8.1491776789989707e+00 +0.0000000000000000e+00 -1.1609286590952600e+01 -2.7835218644184083e-02 -5.3670220078118736e-01 +5.3411282160968380e-03
-1.1699999999999999e+01 +8.1491114928576298e+00 +0.0000000000000000e+00 -1.1709366633118099e+01 -2.7835069157808996e-02 -5.3670266774507080e-01 +5.3412646790553988e-03
