# field on trajectory
# s[mm] rx[mm] ry[mm] rz[mm] bx[T] by[T] bz[T]
0.0000000000000000e+00 +8.1530000000000094e+00 +0.0000000000000000e+00 +0.0000000000000000e+00 -2.8728184939446521e-02 -5.3645278184999234e-01 +5.3228157270568226e-03
1.0000000000000001e-01 +8.1529997163925092e+00 +0.0000000000000000e+00 +9.9999999999463796e-02 -2.8728257969131175e-02 -5.3645277990583373e-01 +5.3228179120273040e-03
2.0000000000000001e-01 +8.1529988655711296e+00 +0.0000000000000000e+00 +1.9999999999571000e-01 -2.8728331832378953e-02 -5.3645276988177448e-01 +5.3228199313448965e-03
2.9999999999999999e-01 +8.1529974475415692e+00 +0.0000000000000000e+00 +2.9999999998552201e-01 -2.8728406809706609e-02 -5.3645275208780141e-01 +5.3228219958305735e-03
4.0000000000000002e-01 +8.1529954622965306e+00 +0.0000000000000000e+00 +3.9999999996568197e-01 -2.8728483181627393e-02 -5.3645272683399658e-01 +5.3228243163045549e-03
5.0000000000000000e-01 +8.1529929098396696e+00 +0.0000000000000000e+00 +4.9999999993297300e-01 -2.8728561228644006e-02 -5.3645269443036070e-01 +5.3228271035846942e-03
5.9999999999999998e-01 +8.1529897901673394e+00 +0.0000000000000000e+00 +5.9999999988417696e-01 -2.8728641231257842e-02 -5.3645265518694418e-01 +5.3228305684880151e-03
6.9999999999999996e-01 +8.1529861032831796e+00 +0.0000000000000000e+00 +6.9999999981607697e-01 -2.8728723469965634e-02 -5.3645260941373940e-01 +5.3228349218298080e-03
8.0000000000000004e-01 +8.1529818491871993e+00 +0.0000000000000000e+00 +7.9999999972545699e-01 -2.8728808225265738e-02 -5.3645255742075815e-01 +5.3228403744246013e-03
9.0000000000000002e-01 +8.1529770278793894e+00 +0.0000000000000000e+00 +8.9999999960909804e-01 -2.8728895777659035e-02 -5.3645249951800245e-01 +5.3228471370860798e-03
1.0000000000000000e+00 +8.1529716393597500e+00 +0.0000000000000000e+00 +9.9999999946378304e-01 -2.8728986407651088e-02 -5.3645243601546444e-01 +5.3228554206272479e-03
1.1000000000000001e+00 +8.1529656836210105e+00 +0.0000000000000000e+00 +1.0999999992862901e+00 -2.8729080395757139e-02 -5.3645236722317624e-01 +5.3228654358611566e-03
1.2000000000000000e+00 +8.1529591606740706e+00 +0.0000000000000000e+00 +1.1999999990734200e+00 -2.8729178022494580e-02 -5.3645229345102208e-01 +5.3228773935991821e-03
1.3000000000000000e+00 +8.1529520705153100e+00 +0.0000000000000000e+00 +1.2999999988219300e+00 -2.8729279568397680e-02 -5.3645221500897577e-01 +5.3228915046536207e-03
1.3999999999999999e+00 +8.1529444131410909e+00 +0.0000000000000000e+00 +1.3999999985286200e+00 -2.8729385314014175e-02 -5.3645213220699295e-01 +5.3229079798368028e-03
1.5000000000000000e+00 +8.1529361885550298e+00 +0.0000000000000000e+00 +1.4999999981902701e+00 -2.8729495539904743e-02 -5.3645204535495572e-01 +5.3229270299607135e-03
1.6000000000000001e+00 +8.1529273967571498e+00 +0.0000000000000000e+00 +1.5999999978036501e+00 -2.8729610526649359e-02 -5.3645195476274954e-01 +5.3229488658379804e-03
1.7000000000000000e+00 +8.1529180377474404e+00 +0.0000000000000000e+00 +1.6999999973655600e+00 -2.8729730554848103e-02 -5.3645186074023621e-01 +5.3229736982817778e-03
1.8000000000000000e+00 +8.1529081115222706e+00 +0.0000000000000000e+00 +1.7999999968727800e+00 -2.8729855905124765e-02 -5.3645176359727886e-01 +5.3230017381062783e-03
1.8999999999999999e+00 +8.1528976180852606e+00 +0.0000000000000000e+00 +1.8999999963220899e+00 -2.8729986858124865e-02 -5.3645166364365737e-01 +5.3230331961260091e-03
2.0000000000000000e+00 +8.1528865574327902e+00 +0.0000000000000000e+00 +1.9999999957102601e+00 -2.8730123694523418e-02 -5.3645156118917658e-01 +5.3230682831571048e-03
2.1000000000000001e+00 +8.1528749295721408e+00 +0.0000000000000000e+00 +2.0999999950340902e+00 -2.8730266511917891e-02 -5.3645145675611183e-01 +5.3231071637792546e-03
2.2000000000000002e+00 +8.1528627344960096e+00 +0.0000000000000000e+00 +2.1999999942903599e+00 -2.8730414675522724e-02 -5.3645135171715685e-01 +5.3231498176265889e-03
2.2999999999999998e+00 +8.1528499722080596e+00 +0.0000000000000000e+00 +2.2999999934758399e+00 -2.8730567367448612e-02 -5.3645124765750207e-01 +5.3231961780957132e-03
2.3999999999999999e+00 +8.1528366427046404e+00 +0.0000000000000000e+00 +2.3999999925873299e+00 -2.8730723769807818e-02 -5.3645114616238820e-01 +5.3232461785838380e-03
2.5000000000000000e+00 +8.1528227459894005e+00 +0.0000000000000000e+00 +2.4999999916215998e+00 -2.8730883064707183e-02 -5.3645104881700145e-01 +5.3232997524876981e-03
2.6000000000000001e+00 +8.1528082820659602e+00 +0.0000000000000000e+00 +2.5999999905754398e+00 -2.8731044434249470e-02 -5.3645095720652836e-01 +5.3233568332041147e-03
2.7000000000000002e+00 +8.1527932509234198e+00 +0.0000000000000000e+00 +2.6999999894456299e+00 -2.8731207060537337e-02 -5.3645087291626448e-01 +5.3234173541310574e-03
2.7999999999999998e+00 +8.1527776525726896e+00 +0.0000000000000000e+00 +2.7999999882289601e+00 -2.8731370125658122e-02 -5.3645079753134883e-01 +5.3234812486649711e-03
2.8999999999999999e+00 +8.1527614870065008e+00 +0.0000000000000000e+00 +2.8999999869222002e+00 -2.8731532811697508e-02 -5.3645073263705756e-01 +5.3235484502037267e-03
3.0000000000000000e+00 +8.1527447542284808e+00 +0.0000000000000000e+00 +2.9999999855221300e+00 -2.8731694300727091e-02 -5.3645067981859540e-01 +5.3236188921444837e-03
3.1000000000000001e+00 +8.1527274542386294e+00 +0.0000000000000000e+00 +3.0999999840255499e+00 -2.8731853774808334e-02 -5.3645064066120041e-01 +5.3236925078847704e-03
3.2000000000000002e+00 +8.1527095870333106e+00 +0.0000000000000000e+00 +3.1999999824292300e+00 -2.8732010415991188e-02 -5.3645061675014849e-01 +5.3237692308224782e-03
3.2999999999999998e+00 +8.1526911526198091e+00 +0.0000000000000000e+00 +3.2999999807299600e+00 -2.8732163406307010e-02 -5.3645060967064540e-01 +5.3238489943547998e-03
3.3999999999999999e+00 +8.1526721509872004e+00 +0.0000000000000000e+00 +3.3999999789245101e+00 -2.8732311927778236e-02 -5.3645062100804430e-01 +5.3239317318803823e-03
3.5000000000000000e+00 +8.1526525821464002e+00 +0.0000000000000000e+00 +3.4999999770096801e+00 -2.8732455162401638e-02 -5.3645065234755251e-01 +5.3240173767963644e-03
3.6000000000000001e+00 +8.1526324460901396e+00 +0.0000000000000000e+00 +3.5999999749822500e+00 -2.8732592292162084e-02 -5.3645070527452654e-01 +5.3241058625013594e-03
3.7000000000000002e+00 +8.1526117428220495e+00 +0.0000000000000000e+00 +3.6999999728389801e+00 -2.8732722499020043e-02 -5.3645078137426072e-01 +5.3241971223932788e-03
3.7999999999999998e+00 +8.1525904723421299e+00 +0.0000000000000000e+00 +3.7999999705766800e+00 -2.8732844964915571e-02 -5.3645088223209547e-01 +5.3242910898704428e-03
3.8999999999999999e+00 +8.1525686346503807e+00 +0.0000000000000000e+00 +3.8999999681921298e+00 -2.8732958871765548e-02 -5.3645100943339208e-01 +5.3243876983312920e-03
4.0000000000000000e+00 +8.1525462297431694e+00 +0.0000000000000000e+00 +3.9999999656820902e+00 -2.8733063401463501e-02 -5.3645116456356012e-01 +5.3244868811746712e-03
4.0999999999999996e+00 +8.1525232576241304e+00 +0.0000000000000000e+00 +4.0999999630433699e+00 -2.8733158012138899e-02 -5.3645134844790554e-01 +5.3245885631694242e-03
4.2000000000000002e+00 +8.1524997182896204e+00 +0.0000000000000000e+00 +4.1999999602727298e+00 -2.8733243266965618e-02 -5.3645155887150842e-01 +5.3246926345671937e-03
4.2999999999999998e+00 +8.1524756117469206e+00 +0.0000000000000000e+00 +4.2999999573669703e+00 -2.8733320005374402e-02 -5.3645179285932809e-01 +5.3247989769910015e-03
4.4000000000000004e+00 +8.1524509379887604e+00 +0.0000000000000000e+00 +4.3999999543228601e+00 -2.8733389066799273e-02 -5.3645204743646757e-01 +5.3249074720669778e-03
4.5000000000000000e+00 +8.1524256970187707e+00 +0.0000000000000000e+00 +4.4999999511372000e+00 -2.8733451290668014e-02 -5.3645231962798978e-01 +5.3250180014226059e-03
4.5999999999999996e+00 +8.1523998888369498e+00 +0.0000000000000000e+00 +4.5999999478067499e+00 -2.8733507516407793e-02 -5.3645260645902626e-01 +5.3251304466879045e-03
4.7000000000000002e+00 +8.1523735134396702e+00 +0.0000000000000000e+00 +4.6999999443283098e+00 -2.8733558583445232e-02 -5.3645290495477926e-01 +5.3252446894955299e-03
4.7999999999999998e+00 +8.1523465708305594e+00 +0.0000000000000000e+00 +4.7999999406986600e+00 -2.8733605331202450e-02 -5.3645321214044350e-01 +5.3253606114800926e-03
4.9000000000000004e+00 +8.1523190610096208e+00 +0.0000000000000000e+00 +4.8999999369145701e+00 -2.8733648599101210e-02 -5.3645352504128918e-01 +5.3254780942790514e-03
5.0000000000000000e+00 +8.1522909839768491e+00 +0.0000000000000000e+00 +4.9999999329728402e+00 -2.8733689226561752e-02 -5.3645384068263557e-01 +5.3255970195325844e-03
5.0999999999999996e+00 +8.1522623397286207e+00 +0.0000000000000000e+00 +5.0999999288702398e+00 -2.8733728053004184e-02 -5.3645415608988145e-01 +5.3257172688839383e-03
5.2000000000000002e+00 +8.1522331282685592e+00 +0.0000000000000000e+00 +5.1999999246035600e+00 -2.8733765917844552e-02 -5.3645446828842724e-01 +5.3258387239787557e-03
5.2999999999999998e+00 +8.1522033495966806e+00 +0.0000000000000000e+00 +5.2999999201695802e+00 -2.8733803660498991e-02 -5.3645477430375543e-01 +5.3259612664659705e-03
5.4000000000000004e+00 +8.1521730037093203e+00 +0.0000000000000000e+00 +5.3999999155650800e+00 -2.8733842120383910e-02 -5.3645507116143476e-01 +5.3260847779979404e-03
5.5000000000000000e+00 +8.1521420906137791e+00 +0.0000000000000000e+00 +5.4999999107868396e+00 -2.8733882136910513e-02 -5.3645535588701354e-01 +5.3262091402294515e-03
5.5999999999999996e+00 +8.1521106102991308e+00 +0.0000000000000000e+00 +5.5999999058316599e+00 -2.8733924549496036e-02 -5.3645562550623749e-01 +5.3263342348200205e-03
5.7000000000000002e+00 +8.1520785627762997e+00 +0.0000000000000000e+00 +5.6999999006963096e+00 -2.8733970197548586e-02 -5.3645587704475550e-01 +5.3264599434310021e-03
5.7999999999999998e+00 +8.1520459480379905e+00 +0.0000000000000000e+00 +5.7999998953775700e+00 -2.8734019920482516e-02 -5.3645610752841832e-01 +5.3265861477286933e-03
5.9000000000000004e+00 +8.1520127660915005e+00 +0.0000000000000000e+00 +5.8999998898722197e+00 -2.8734074557706001e-02 -5.3645631398303750e-01 +5.3267127293819957e-03
5.9999999999999902e+00 +8.1519790169259103e+00 +0.0000000000000000e+00 +5.9999998841770603e+00 -2.8734134948633739e-02 -5.3645649343463098e-01 +5.3268395700649795e-03
6.0999999999999899e+00 +8.1519447005521197e+00 +0.0000000000000000e+00 +6.0999998782888598e+00 -2.8734201679812183e-02 -5.3645664388310221e-01 +5.3269665639830025e-03
6.1999999999999904e+00 +8.1519098169665103e+00 +0.0000000000000000e+00 +6.1999998722044003e+00 -2.8734274326356817e-02 -5.3645676722440505e-01 +5.3270936554616751e-03
6.2999999999999901e+00 +8.1518743661654298e+00 +0.0000000000000000e+00 +6.2999998659204701e+00 -2.8734352210536242e-02 -5.3645686632843204e-01 +5.3272208013567688e-03
6.3999999999999897e+00 +8.1518383481488907e+00 +0.0000000000000000e+00 +6.3999998594338496e+00 -2.8734434654634076e-02 -5.3645694406499300e-01 +5.3273479585245528e-03
6.4999999999999902e+00 +8.1518017629241495e+00 +0.0000000000000000e+00 +6.4999998527413201e+00 -2.8734520980948308e-02 -5.3645700330378576e-01 +5.3274750838215052e-03
6.5999999999999899e+00 +8.1517646104839496e+00 +0.0000000000000000e+00 +6.5999998458396698e+00 -2.8734610511800374e-02 -5.3645704691455254e-01 +5.3276021341059172e-03
6.6999999999999904e+00 +8.1517268908319203e+00 +0.0000000000000000e+00 +6.6999998387256703e+00 -2.8734702569526139e-02 -5.3645707776689000e-01 +5.3277290662359610e-03
6.7999999999999901e+00 +8.1516886039680703e+00 +0.0000000000000000e+00 +6.7999998313961196e+00 -2.8734796476482222e-02 -5.3645709873035419e-01 +5.3278558370707611e-03
6.8999999999999897e+00 +8.1516497498923908e+00 +0.0000000000000000e+00 +6.8999998238477902e+00 -2.8734891555045366e-02 -5.3645711267442875e-01 +5.3279824034700926e-03
6.9999999999999902e+00 +8.1516103286012402e+00 +0.0000000000000000e+00 +6.9999998160774597e+00 -2.8734987127614530e-02 -5.3645712246854971e-01 +5.3281087222946397e-03
7.0999999999999899e+00 +8.1515703400982602e+00 +0.0000000000000000e+00 +7.0999998080819298e+00 -2.8735082516607415e-02 -5.3645713098202252e-01 +5.3282347504051385e-03
7.1999999999999904e+00 +8.1515297843834595e+00 +0.0000000000000000e+00 +7.1999997998579603e+00 -2.8735177044465519e-02 -5.3645714108409748e-01 +5.3283604446631872e-03
7.2999999999999901e+00 +8.1514886614531896e+00 +0.0000000000000000e+00 +7.2999997914023496e+00 -2.8735270033654708e-02 -5.3645715564396845e-01 +5.3284857619312091e-03
7.3999999999999897e+00 +8.1514469713147300e+00 +0.0000000000000000e+00 +7.3999997827118804e+00 -2.8735360806660466e-02 -5.3645717753066202e-01 +5.3286106590713506e-03
7.4999999999999902e+00 +8.1514047139571595e+00 +0.0000000000000000e+00 +7.4999997737833199e+00 -2.8735448685999806e-02 -5.3645720961324739e-01 +5.3287350929476264e-03
7.5999999999999899e+00 +8.1513618893914099e+00 +0.0000000000000000e+00 +7.5999997646134698e+00 -2.8735532994206611e-02 -5.3645725476054085e-01 +5.3288590204229021e-03
7.6999999999999904e+00 +8.1513184976138309e+00 +0.0000000000000000e+00 +7.6999997551991104e+00 -2.8735613053846344e-02 -5.3645731584136869e-01 +5.3289823983616010e-03
7.7999999999999901e+00 +8.1512745386207808e+00 +0.0000000000000000e+00 +7.7999997455370096e+00 -2.8735688187511224e-02 -5.3645739572445794e-01 +5.3291051836285852e-03
7.8999999999999897e+00 +8.1512300124159101e+00 +0.0000000000000000e+00 +7.8999997356239602e+00 -2.8735757717818097e-02 -5.3645749727837855e-01 +5.3292273330885808e-03
7.9999999999999902e+00 +8.1511849189955701e+00 +0.0000000000000000e+00 +7.9999997254567399e+00 -2.8735820967414883e-02 -5.3645762337164871e-01 +5.3293488036072530e-03
8.0999999999999908e+00 +8.1511392583670403e+00 +0.0000000000000000e+00 +8.0999997150321406e+00 -2.8735877464451779e-02 -5.3645777618719770e-01 +5.3294695615704619e-03
8.1999999999999904e+00 +8.1510930305230396e+00 +0.0000000000000000e+00 +8.1999997043469399e+00 -2.8735927559009680e-02 -5.3645795516635020e-01 +5.3295896114461429e-03
8.2999999999999901e+00 +8.1510462354672200e+00 +0.0000000000000000e+00 +8.2999996933979094e+00 -2.8735971806616238e-02 -5.3645815906488659e-01 +5.3297089672163936e-03
8.3999999999999897e+00 +8.1509988731995708e+00 +0.0000000000000000e+00 +8.3999996821818605e+00 -2.8736010762763966e-02 -5.3645838663856649e-01 +5.3298276428569878e-03
8.4999999999999893e+00 +8.1509509437164507e+00 +0.0000000000000000e+00 +8.4999996706955496e+00 -2.8736044982908979e-02 -5.3645863664312621e-01 +5.3299456523371487e-03
8.5999999999999908e+00 +8.1509024470215099e+00 +0.0000000000000000e+00 +8.5999996589357703e+00 -2.8736075022465554e-02 -5.3645890783419869e-01 +5.3300630096185233e-03
8.6999999999999904e+00 +8.1508533831147396e+00 +0.0000000000000000e+00 +8.6999996468993004e+00 -2.8736101436809065e-02 -5.3645919896739214e-01 +5.3301797286557486e-03
8.7999999999999794e+00 +8.1508037519961398e+00 +0.0000000000000000e+00 +8.7999996345829192e+00 -2.8736124781273322e-02 -5.3645950879826143e-01 +5.3302958233959735e-03
8.8999999999999808e+00 +8.1507535536620708e+00 +0.0000000000000000e+00 +8.8999996219834205e+00 -2.8736145611150794e-02 -5.3645983608233583e-01 +5.3304113077788920e-03
8.9999999999999805e+00 +8.1507027881161793e+00 +0.0000000000000000e+00 +8.9999996090975891e+00 -2.8736164481687032e-02 -5.3646017957503522e-01 +5.3305261957357136e-03
9.0999999999999801e+00 +8.1506514553584601e+00 +0.0000000000000000e+00 +9.0999995959221902e+00 -2.8736181948083760e-02 -5.3646053803175109e-01 +5.3306405011897488e-03
9.1999999999999797e+00 +8.1505995553889097e+00 +0.0000000000000000e+00 +9.1999995824540193e+00 -2.8736198565496140e-02 -5.3646091020781828e-01 +5.3307542380559040e-03
9.2999999999999794e+00 +8.1505470882038900e+00 +0.0000000000000000e+00 +9.2999995686898593e+00 -2.8736214889032913e-02 -5.3646129485854011e-01 +5.3308674202407445e-03
9.3999999999999808e+00 +8.1504940538070496e+00 +0.0000000000000000e+00 +9.3999995546264898e+00 -2.8736231473751029e-02 -5.3646169073910777e-01 +5.3309800616414271e-03
9.4999999999999805e+00 +8.1504404521983798e+00 +0.0000000000000000e+00 +9.4999995402606903e+00 -2.8736248874658511e-02 -5.3646209660467881e-01 +5.3310921761463258e-03
9.5999999999999801e+00 +8.1503862833778804e+00 +0.0000000000000000e+00 +9.5999995255892507e+00 -2.8736267646711902e-02 -5.3646251121035027e-01 +5.3312037776345059e-03
9.6999999999999797e+00 +8.1503315473419207e+00 +0.0000000000000000e+00 +9.6999995106089507e+00 -2.8736288344816282e-02 -5.3646293331118322e-01 +5.3313148799757773e-03
9.7999999999999794e+00 +8.1502762440941297e+00 +0.0000000000000000e+00 +9.7999994953165697e+00 -2.8736311523819984e-02 -5.3646336166212227e-01 +5.3314254970296647e-03
9.8999999999999808e+00 +8.1502203736345091e+00 +0.0000000000000000e+00 +9.8999994797088906e+00 -2.8736337738517415e-02 -5.3646379501807473e-01 +5.3315356426459895e-03
9.9999999999999805e+00 +8.1501639359594300e+00 +0.0000000000000000e+00 +9.9999994637827001e+00 -2.8736367543647865e-02 -5.3646423213390915e-01 +5.3316453306646349e-03
1.0100000000000000e+01 +8.1501069310761505e+00 +0.0000000000000000e+00 +1.0099999447534801e+01 -2.8736401386271707e-02 -5.3646467193417258e-01 +5.3317545735993540e-03
1.0199999999999999e+01 +8.1500493589774106e+00 +0.0000000000000000e+00 +1.0199999430961901e+01 -2.8736439282953483e-02 -5.3646511402284025e-01 +5.3318633786983323e-03
1.0300000000000001e+01 +8.1499912196668394e+00 +0.0000000000000000e+00 +1.0299999414060901e+01 -2.8736481142663136e-02 -5.3646555817377783e-01 +5.3319717518934386e-03
1.0400000000000000e+01 +8.1499325131444493e+00 +0.0000000000000000e+00 +1.0399999396828500e+01 -2.8736526874411063e-02 -5.3646600416103940e-01 +5.3320796991172181e-03
1.0500000000000000e+01 +8.1498732394065900e+00 +0.0000000000000000e+00 +1.0499999379261400e+01 -2.8736576387249298e-02 -5.3646645175887309e-01 +5.3321872263029438e-03
1.0600000000000000e+01 +8.1498133984568994e+00 +0.0000000000000000e+00 +1.0599999361356600e+01 -2.8736629590268490e-02 -5.3646690074164494e-01 +5.3322943393838331e-03
1.0699999999999999e+01 +8.1497529902953794e+00 +0.0000000000000000e+00 +1.0699999343110701e+01 -2.8736686392603163e-02 -5.3646735088392272e-01 +5.3324010442939284e-03
1.0800000000000001e+01 +8.1496920149220404e+00 +0.0000000000000000e+00 +1.0799999324520600e+01 -2.8736746703431501e-02 -5.3646780196045507e-01 +5.3325073469678583e-03
1.0900000000000000e+01 +8.1496304723332305e+00 +0.0000000000000000e+00 +1.0899999305583000e+01 -2.8736810431977882e-02 -5.3646825374620188e-01 +5.3326132533411631e-03
1.1000000000000000e+01 +8.1495683625325892e+00 +0.0000000000000000e+00 +1.0999999286294800e+01 -2.8736877487509815e-02 -5.3646870601625873e-01 +5.3327187693495226e-03
1.1100000000000000e+01 +8.1495056855201309e+00 +0.0000000000000000e+00 +1.1099999266652601e+01 -2.8736947779343276e-02 -5.3646915854594113e-01 +5.3328239009296178e-03
1.1199999999999999e+01 +8.1494424412958306e+00 +0.0000000000000000e+00 +1.1199999246653300e+01 -2.8737021216842417e-02 -5.3646961111076352e-01 +5.3329286540189100e-03
1.1300000000000001e+01 +8.1493786298560700e+00 +0.0000000000000000e+00 +1.1299999226293700e+01 -2.8737097709422160e-02 -5.3647006348646897e-01 +5.3330330345559519e-03
1.1400000000000000e+01 +8.1493142512044905e+00 +0.0000000000000000e+00 +1.1399999205570500e+01 -2.8737177166545072e-02 -5.3647051544895408e-01 +5.3331370484796196e-03
1.1500000000000000e+01 +8.1492493053447106e+00 +0.0000000000000000e+00 +1.1499999184480499e+01 -2.8737259497725348e-02 -5.3647096677432693e-01 +5.3332407017297086e-03
1.1600000000000000e+01 +8.1491837922658306e+00 +0.0000000000000000e+00 +1.1599999163020600e+01 -2.8737344612535479e-02 -5.3647141723901970e-01 +5.3333440002480614e-03
1.1699999999999999e+01 +8.1491177119787608e+00 +0.0000000000000000e+00 +1.1699999141187400e+01 -2.8737432420593515e-02 -5.3647186661952240e-01 +5.3334469499758952e-03
1.1800000000000001e+01 +8.1490510644762306e+00 +0.0000000000000000e+00 +1.1799999118977800e+01 -2.8737522831579418e-02 -5.3647231469268541e-01 +5.3335495568568383e-03
