# field on trajectory
# s[mm] rx[mm] ry[mm] rz[mm] bx[T] by[T] bz[T]
0.0000000000000000e+00 +8.1529999999999987e+00 +0.0000000000000000e+00 +0.0000000000000000e+00 -3.1284435180857842e-02 -5.9307946611041762e-01 +5.9417315797487078e-03
-1.0000000000000001e-01 +8.1529997166814709e+00 +0.0000000000000000e+00 -9.9999999999464878e-02 -3.1284409734016090e-02 -5.9307966729371009e-01 +5.9418134017236984e-03
-2.0000000000000001e-01 +8.1529988667257562e+00 +0.0000000000000000e+00 -1.9999999999571899e-01 -3.1284379176392582e-02 -5.9307987384106264e-01 +5.9418981876359278e-03
-3.0000000000000004e-01 +8.1529974501326592e+00 +0.0000000000000000e+00 -2.9999999998555149e-01 -3.1284343776669978e-02 -5.9308008464644391e-01 +5.9419858172116207e-03
-4.0000000000000002e-01 +8.1529954669019791e+00 +0.0000000000000000e+00 -3.9999999996575170e-01 -3.1284303803530283e-02 -5.9308029860382017e-01 +5.9420761701791903e-03
-5.0000000000000000e-01 +8.1529929170335098e+00 +0.0000000000000000e+00 -4.9999999993310879e-01 -3.1284259525655077e-02 -5.9308051460715572e-01 +5.9421691262686940e-03
-5.9999999999999998e-01 +8.1529898005270471e+00 +0.0000000000000000e+00 -5.9999999988441188e-01 -3.1284211211725865e-02 -5.9308073155041141e-01 +5.9422645652112537e-03
-6.9999999999999996e-01 +8.1529861173823814e+00 +0.0000000000000000e+00 -6.9999999981645034e-01 -3.1284159130424184e-02 -5.9308094832754288e-01 +5.9423623667385021e-03
-7.9999999999999993e-01 +8.1529818675993084e+00 +0.0000000000000000e+00 -7.9999999972601321e-01 -3.1284103550432089e-02 -5.9308116383250131e-01 +5.9424624105820344e-03
-8.9999999999999991e-01 +8.1529770511776203e+00 +0.0000000000000000e+00 -8.9999999960988986e-01 -3.1284044740432143e-02 -5.9308137695923080e-01 +5.9425645764728304e-03
-9.9999999999999989e-01 +8.1529716681171145e+00 +0.0000000000000000e+00 -9.9999999946486939e-01 -3.1283982969107879e-02 -5.9308158660166810e-01 +5.9426687441406995e-03
-1.0999999999999999e+00 +8.1529657184175921e+00 +0.0000000000000000e+00 -1.0999999992877409e+00 -3.1283918505144011e-02 -5.9308179165374220e-01 +5.9427747933137398e-03
-1.2000000000000000e+00 +8.1529592020788559e+00 +0.0000000000000000e+00 -1.1999999990752939e+00 -3.1283851617226612e-02 -5.9308199100937253e-01 +5.9428826037177503e-03
-1.3000000000000000e+00 +8.1529521191007159e+00 +0.0000000000000000e+00 -1.2999999988243172e+00 -3.1283782574043476e-02 -5.9308218356246778e-01 +5.9429920550756873e-03
-1.4000000000000001e+00 +8.1529444694829891e+00 +0.0000000000000000e+00 -1.3999999985316001e+00 -3.1283711644284326e-02 -5.9308236820692672e-01 +5.9431030271070943e-03
-1.5000000000000002e+00 +8.1529362532254996e+00 +0.0000000000000000e+00 -1.4999999981939318e+00 -3.1283639096641093e-02 -5.9308254383663517e-01 +5.9432153995275612e-03
-1.6000000000000003e+00 +8.1529274703280787e+00 +0.0000000000000000e+00 -1.5999999978081016e+00 -3.1283565199808142e-02 -5.9308270934546581e-01 +5.9433290520481416e-03
-1.7000000000000004e+00 +8.1529181207905701e+00 +0.0000000000000000e+00 -1.6999999973708986e+00 -3.1283490222482571e-02 -5.9308286362727802e-01 +5.9434438643748092e-03
-1.8000000000000005e+00 +8.1529082046128263e+00 +0.0000000000000000e+00 -1.7999999968791118e+00 -3.1283414433364465e-02 -5.9308300557591620e-01 +5.9435597162078892e-03
-1.9000000000000006e+00 +8.1528977217947123e+00 +0.0000000000000000e+00 -1.8999999963295306e+00 -3.1283338101157084e-02 -5.9308313408520774e-01 +5.9436764872415017e-03
-2.0000000000000004e+00 +8.1528866723361055e+00 +0.0000000000000000e+00 -1.9999999957189443e+00 -3.1283261494567276e-02 -5.9308324804896428e-01 +5.9437940571629979e-03
-2.1000000000000005e+00 +8.1528750562368959e+00 +0.0000000000000000e+00 -2.0999999950441417e+00 -3.1283184832332708e-02 -5.9308334679511121e-01 +5.9439123154706279e-03
-2.2000000000000006e+00 +8.1528628734969910e+00 +0.0000000000000000e+00 -2.1999999943019120e+00 -3.1283108133303213e-02 -5.9308343138808473e-01 +5.9440311909306183e-03
-2.3000000000000007e+00 +8.1528501241163109e+00 +0.0000000000000000e+00 -2.2999999934890445e+00 -3.1283031366359265e-02 -5.9308350332644644e-01 +5.9441506221276650e-03
-2.4000000000000008e+00 +8.1528368080947864e+00 +0.0000000000000000e+00 -2.3999999926023285e+00 -3.1282954500384964e-02 -5.9308356410875329e-01 +5.9442705476479034e-03
-2.5000000000000009e+00 +8.1528229254323588e+00 +0.0000000000000000e+00 -2.4999999916385534e+00 -3.1282877504268232e-02 -5.9308361523355901e-01 +5.9443909060793989e-03
-2.6000000000000010e+00 +8.1528084761289801e+00 +0.0000000000000000e+00 -2.5999999905945077e+00 -3.1282800346900959e-02 -5.9308365819941289e-01 +5.9445116360126058e-03
-2.7000000000000011e+00 +8.1527934601846113e+00 +0.0000000000000000e+00 -2.6999999894669808e+00 -3.1282722997179178e-02 -5.9308369450486198e-01 +5.9446326760408770e-03
-2.8000000000000012e+00 +8.1527778775992168e+00 +0.0000000000000000e+00 -2.7999999882527620e+00 -3.1282645424003247e-02 -5.9308372564845213e-01 +5.9447539647609401e-03
-2.9000000000000012e+00 +8.1527617283727665e+00 +0.0000000000000000e+00 -2.8999999869486404e+00 -3.1282567596277989e-02 -5.9308375312872741e-01 +5.9448754407733740e-03
-3.0000000000000013e+00 +8.1527450125052354e+00 +0.0000000000000000e+00 -2.9999999855514052e+00 -3.1282489482912922e-02 -5.9308377844423055e-01 +5.9449970426831153e-03
-3.1000000000000014e+00 +8.1527277299965988e+00 +0.0000000000000000e+00 -3.0999999840578458e+00 -3.1282411052822340e-02 -5.9308380309350606e-01 +5.9451187090999074e-03
-3.2000000000000015e+00 +8.1527098808468352e+00 +0.0000000000000000e+00 -3.1999999824647514e+00 -3.1282332274925558e-02 -5.9308382857509756e-01 +5.9452403786388218e-03
-3.3000000000000016e+00 +8.1526914650559199e+00 +0.0000000000000000e+00 -3.2999999807689107e+00 -3.1282253118147037e-02 -5.9308385638755090e-01 +5.9453619899207189e-03
-3.4000000000000017e+00 +8.1526724826238262e+00 +0.0000000000000000e+00 -3.3999999789671134e+00 -3.1282173551416576e-02 -5.9308388802941403e-01 +5.9454834815727388e-03
-3.5000000000000018e+00 +8.1526529335505256e+00 +0.0000000000000000e+00 -3.4999999770561483e+00 -3.1282093543669488e-02 -5.9308392499923746e-01 +5.9456047922287958e-03
-3.6000000000000019e+00 +8.1526328178359826e+00 +0.0000000000000000e+00 -3.5999999750328047e+00 -3.1282013063846696e-02 -5.9308396879557512e-01 +5.9457258605300402e-03
-3.7000000000000020e+00 +8.1526121354801546e+00 +0.0000000000000000e+00 -3.6999999728938717e+00 -3.1281932080895004e-02 -5.9308402091698476e-01 +5.9458466251253693e-03
-3.8000000000000020e+00 +8.1525908864829937e+00 +0.0000000000000000e+00 -3.7999999706361387e+00 -3.1281850563767220e-02 -5.9308408286202952e-01 +5.9459670246718938e-03
-3.9000000000000021e+00 +8.1525690708444412e+00 +0.0000000000000000e+00 -3.8999999682563944e+00 -3.1281768481422272e-02 -5.9308415612927767e-01 +5.9460869978354260e-03
-4.0000000000000018e+00 +8.1525466885644278e+00 +0.0000000000000000e+00 -3.9999999657514285e+00 -3.1281685802825449e-02 -5.9308424221730305e-01 +5.9462064832909688e-03
-4.1000000000000014e+00 +8.1525237396428718e+00 +0.0000000000000000e+00 -4.0999999631180293e+00 -3.1281602462996883e-02 -5.9308434231898532e-01 +5.9463254370712131e-03
-4.2000000000000011e+00 +8.1525002240796791e+00 +0.0000000000000000e+00 -4.1999999603529865e+00 -3.1281518261150679e-02 -5.9308445640440455e-01 +5.9464438846069511e-03
-4.3000000000000007e+00 +8.1524761418747396e+00 +0.0000000000000000e+00 -4.2999999574530898e+00 -3.1281432962538977e-02 -5.9308458413795651e-01 +5.9465618686757758e-03
-4.4000000000000004e+00 +8.1524514930279341e+00 +0.0000000000000000e+00 -4.3999999544151276e+00 -3.1281346332401247e-02 -5.9308472518405553e-01 +5.9466794320527502e-03
-4.5000000000000000e+00 +8.1524262775391279e+00 +0.0000000000000000e+00 -4.4999999512358890e+00 -3.1281258135963462e-02 -5.9308487920713593e-01 +5.9467966175101193e-03
-4.5999999999999996e+00 +8.1524004954081732e+00 +0.0000000000000000e+00 -4.5999999479121634e+00 -3.1281168138437059e-02 -5.9308504587165278e-01 +5.9469134678170471e-03
-4.6999999999999993e+00 +8.1523741466349140e+00 +0.0000000000000000e+00 -4.6999999444407399e+00 -3.1281076105018152e-02 -5.9308522484208603e-01 +5.9470300257393437e-03
-4.7999999999999989e+00 +8.1523472312191778e+00 +0.0000000000000000e+00 -4.7999999408184078e+00 -3.1280981800886495e-02 -5.9308541578293705e-01 +5.9471463340391743e-03
-4.8999999999999986e+00 +8.1523197491607853e+00 +0.0000000000000000e+00 -4.8999999370419562e+00 -3.1280884991204627e-02 -5.9308561835873352e-01 +5.9472624354748021e-03
-4.9999999999999982e+00 +8.1522917004595428e+00 +0.0000000000000000e+00 -4.9999999331081746e+00 -3.1280785441116933e-02 -5.9308583223402944e-01 +5.9473783728003059e-03
-5.0999999999999979e+00 +8.1522630851152460e+00 +0.0000000000000000e+00 -5.0999999290138511e+00 -3.1280682915748738e-02 -5.9308605707340600e-01 +5.9474941887653057e-03
-5.1999999999999975e+00 +8.1522339031276836e+00 +0.0000000000000000e+00 -5.1999999247557751e+00 -3.1280577180205396e-02 -5.9308629254147316e-01 +5.9476099261146836e-03
-5.2999999999999972e+00 +8.1522041544966299e+00 +0.0000000000000000e+00 -5.2999999203307357e+00 -3.1280467999571321e-02 -5.9308653830287128e-01 +5.9477256275883260e-03
-5.3999999999999968e+00 +8.1521738392218506e+00 +0.0000000000000000e+00 -5.3999999157355223e+00 -3.1280355138909151e-02 -5.9308679402227171e-01 +5.9478413359208221e-03
-5.4999999999999964e+00 +8.1521429573031021e+00 +0.0000000000000000e+00 -5.4999999109669240e+00 -3.1280238363258793e-02 -5.9308705936437800e-01 +5.9479570938412111e-03
-5.5999999999999961e+00 +8.1521115087401341e+00 +0.0000000000000000e+00 -5.5999999060217291e+00 -3.1280117437636479e-02 -5.9308733399392766e-01 +5.9480729440727007e-03
-5.6999999999999957e+00 +8.1520794935326837e+00 +0.0000000000000000e+00 -5.6999999008967279e+00 -3.1279992127033876e-02 -5.9308761757569284e-01 +5.9481889293323932e-03
-5.7999999999999954e+00 +8.1520469116804808e+00 +0.0000000000000000e+00 -5.7999998955887087e+00 -3.1279862196417214e-02 -5.9308790977448189e-01 +5.9483050923309980e-03
-5.8999999999999950e+00 +8.1520137631832483e+00 +0.0000000000000000e+00 -5.8999998900944606e+00 -3.1279727410726314e-02 -5.9308821025514080e-01 +5.9484214757725834e-03
-5.9999999999999947e+00 +8.1519800480406985e+00 +0.0000000000000000e+00 -5.9999998844107720e+00 -3.1279587534873692e-02 -5.9308851868255363e-01 +5.9485381223542732e-03
-6.0999999999999943e+00 +8.1519457662525401e+00 +0.0000000000000000e+00 -6.0999998785344332e+00 -3.1279442530684765e-02 -5.9308883470703022e-01 +5.9486550847130237e-03
-6.1999999999999940e+00 +8.1519109178184710e+00 +0.0000000000000000e+00 -6.1999998724622323e+00 -3.1279293147737683e-02 -5.9308915792045047e-01 +5.9487724552701963e-03
-6.2999999999999936e+00 +8.1518755027381840e+00 +0.0000000000000000e+00 -6.2999998661909586e+00 -3.1279140332563828e-02 -5.9308948790008031e-01 +5.9488903363966016e-03
-6.3999999999999932e+00 +8.1518395210113646e+00 +0.0000000000000000e+00 -6.3999998597174015e+00 -3.1278985031709741e-02 -5.9308982422318179e-01 +5.9490088304664512e-03
-6.4999999999999929e+00 +8.1518029726376913e+00 +0.0000000000000000e+00 -6.4999998530383492e+00 -3.1278828191737995e-02 -5.9309016646701329e-01 +5.9491280398575215e-03
-6.5999999999999925e+00 +8.1517658576168408e+00 +0.0000000000000000e+00 -6.5999998461505909e+00 -3.1278670759227967e-02 -5.9309051420882775e-01 +5.9492480669513072e-03
-6.6999999999999922e+00 +8.1517281759484810e+00 +0.0000000000000000e+00 -6.6999998390509159e+00 -3.1278513680776797e-02 -5.9309086702587277e-01 +5.9493690141332080e-03
-6.7999999999999918e+00 +8.1516899276322761e+00 +0.0000000000000000e+00 -6.7999998317361134e+00 -3.1278357903000098e-02 -5.9309122449538954e-01 +5.9494909837926645e-03
-6.8999999999999915e+00 +8.1516511126678850e+00 +0.0000000000000000e+00 -6.8999998242029719e+00 -3.1278204372532967e-02 -5.9309158619461333e-01 +5.9496140783233519e-03
-6.9999999999999911e+00 +8.1516117310549649e+00 +0.0000000000000000e+00 -6.9999998164482804e+00 -3.1278054036030650e-02 -5.9309195170077145e-01 +5.9497384001233212e-03
-7.0999999999999908e+00 +8.1515717827931677e+00 +0.0000000000000000e+00 -7.0999998084688283e+00 -3.1277907840169490e-02 -5.9309232059108430e-01 +5.9498640515951839e-03
-7.1999999999999904e+00 +8.1515312678821417e+00 +0.0000000000000000e+00 -7.1999998002614038e+00 -3.1277766731647755e-02 -5.9309269244276264e-01 +5.9499911351462553e-03
-7.2999999999999901e+00 +8.1514901863215332e+00 +0.0000000000000000e+00 -7.2999997918227963e+00 -3.1277631657186424e-02 -5.9309306683300855e-01 +5.9501197531887347e-03
-7.3999999999999897e+00 +8.1514485381109854e+00 +0.0000000000000000e+00 -7.3999997831497950e+00 -3.1277503563530130e-02 -5.9309344333901515e-01 +5.9502500081398714e-03
-7.4999999999999893e+00 +8.1514063232501410e+00 +0.0000000000000000e+00 -7.4999997742391882e+00 -3.1277383397447837e-02 -5.9309382153796464e-01 +5.9503820024221160e-03
-7.5999999999999890e+00 +8.1513635417386379e+00 +0.0000000000000000e+00 -7.5999997650877651e+00 -3.1277272105733868e-02 -5.9309420100702892e-01 +5.9505158384632996e-03
-7.6999999999999886e+00 +8.1513201935761170e+00 +0.0000000000000000e+00 -7.6999997556923150e+00 -3.1277170635208587e-02 -5.9309458132336801e-01 +5.9506516186967826e-03
-7.7999999999999883e+00 +8.1512762787622162e+00 +0.0000000000000000e+00 -7.7999997460496262e+00 -3.1277079932719311e-02 -5.9309496206413026e-01 +5.9507894455616359e-03
-7.8999999999999879e+00 +8.1512317972965729e+00 +0.0000000000000000e+00 -7.8999997361564880e+00 -3.1277000945141083e-02 -5.9309534280645149e-01 +5.9509294215027968e-03
-7.9999999999999876e+00 +8.1511867491788248e+00 +0.0000000000000000e+00 -7.9999997260096887e+00 -3.1276934619377590e-02 -5.9309572312745429e-01 +5.9510716489712349e-03
-8.0999999999999872e+00 +8.1511411344086095e+00 +0.0000000000000000e+00 -8.0999997156060175e+00 -3.1276881556125971e-02 -5.9309610279201863e-01 +5.9512161694805759e-03
-8.1999999999999869e+00 +8.1510949529855665e+00 +0.0000000000000000e+00 -8.1999997049422646e+00 -3.1276840971153221e-02 -5.9309648231609313e-01 +5.9513627807709782e-03
-8.2999999999999865e+00 +8.1510482049093334e+00 +0.0000000000000000e+00 -8.2999996940152165e+00 -3.1276811734001007e-02 -5.9309686240336412e-01 +5.9515112196342470e-03
-8.3999999999999861e+00 +8.1510008901795494e+00 +0.0000000000000000e+00 -8.3999996828216634e+00 -3.1276792714226405e-02 -5.9309724375747841e-01 +5.9516612228572982e-03
-8.4999999999999858e+00 +8.1509530087958506e+00 +0.0000000000000000e+00 -8.4999996713583936e+00 -3.1276782781402224e-02 -5.9309762708204161e-01 +5.9518125272219778e-03
-8.5999999999999854e+00 +8.1509045607578745e+00 +0.0000000000000000e+00 -8.5999996596221973e+00 -3.1276780805117491e-02 -5.9309801308061638e-01 +5.9519648695048905e-03
-8.6999999999999851e+00 +8.1508555460652516e+00 +0.0000000000000000e+00 -8.6999996476098627e+00 -3.1276785654977678e-02 -5.9309840245672274e-01 +5.9521179864772200e-03
-8.7999999999999847e+00 +8.1508059647176125e+00 +0.0000000000000000e+00 -8.7999996353181782e+00 -3.1276796200605188e-02 -5.9309879591383508e-01 +5.9522716149045573e-03
-8.8999999999999844e+00 +8.1507558167145824e+00 +0.0000000000000000e+00 -8.8999996227439322e+00 -3.1276811311639702e-02 -5.9309919415538115e-01 +5.9524254915467268e-03
-8.9999999999999840e+00 +8.1507051020557828e+00 +0.0000000000000000e+00 -8.9999996098839148e+00 -3.1276829857738588e-02 -5.9309959788474220e-01 +5.9525793531576060e-03
-9.0999999999999837e+00 +8.1506538207408283e+00 +0.0000000000000000e+00 -9.0999995967349143e+00 -3.1276850708577206e-02 -5.9310000780524974e-01 +5.9527329364849535e-03
-9.1999999999999833e+00 +8.1506019727693300e+00 +0.0000000000000000e+00 -9.1999995832937191e+00 -3.1276872733849409e-02 -5.9310042462018520e-01 +5.9528859782702380e-03
-9.2999999999999829e+00 +8.1505495581408915e+00 +0.0000000000000000e+00 -9.2999995695571176e+00 -3.1276894803267827e-02 -5.9310084903277882e-01 +5.9530382152484622e-03
-9.3999999999999826e+00 +8.1504965768551081e+00 +0.0000000000000000e+00 -9.3999995555218998e+00 -3.1276915786564254e-02 -5.9310128174620813e-01 +5.9531893841479749e-03
-9.4999999999999822e+00 +8.1504430289115692e+00 +0.0000000000000000e+00 -9.4999995411848541e+00 -3.1276934553490197e-02 -5.9310172346359580e-01 +5.9533392216903182e-03
-9.5999999999999819e+00 +8.1503889143098540e+00 +0.0000000000000000e+00 -9.5999995265427689e+00 -3.1276949973817018e-02 -5.9310217488801042e-01 +5.9534874645900378e-03
-9.6999999999999815e+00 +8.1503342330495325e+00 +0.0000000000000000e+00 -9.6999995115924325e+00 -3.1276960917336512e-02 -5.9310263672246266e-01 +5.9536338495545099e-03
-9.7999999999999812e+00 +8.1502789851301642e+00 +0.0000000000000000e+00 -9.7999994963306349e+00 -3.1276966253861227e-02 -5.9310310966990620e-01 +5.9537781132837772e-03
-9.8999999999999808e+00 +8.1502231705513015e+00 +0.0000000000000000e+00 -9.8999994807541647e+00 -3.1276964853224898e-02 -5.9310359443323424e-01 +5.9539199924703579e-03
-9.9999999999999805e+00 +8.1501667893124807e+00 +0.0000000000000000e+00 -9.9999994648598083e+00 -3.1276955585282741e-02 -5.9310409171528067e-01 +5.9540592237990846e-03
-1.0099999999999980e+01 +8.1501098414132294e+00 +0.0000000000000000e+00 -1.0099999448644358e+01 -3.1276937716136939e-02 -5.9310460196339398e-01 +5.9541956073803958e-03
-1.0199999999999980e+01 +8.1500523268530607e+00 +0.0000000000000000e+00 -1.0199999432104599e+01 -3.1276912096811105e-02 -5.9310512460317089e-01 +5.9543291970593406e-03
-1.0299999999999979e+01 +8.1499942456314791e+00 +0.0000000000000000e+00 -1.0299999415237323e+01 -3.1276879974516940e-02 -5.9310565880477051e-01 +5.9544601101212350e-03
-1.0399999999999979e+01 +8.1499355977479748e+00 +0.0000000000000000e+00 -1.0399999398039316e+01 -3.1276842596408568e-02 -5.9310620373835188e-01 +5.9545884638575039e-03
-1.0499999999999979e+01 +8.1498763832020309e+00 +0.0000000000000000e+00 -1.0499999380507369e+01 -3.1276801209581005e-02 -5.9310675857407147e-01 +5.9547143755658378e-03
-1.0599999999999978e+01 +8.1498166019931180e+00 +0.0000000000000000e+00 -1.0599999362638268e+01 -3.1276757061068604e-02 -5.9310732248208675e-01 +5.9548379625503564e-03
-1.0699999999999978e+01 +8.1497562541206978e+00 +0.0000000000000000e+00 -1.0699999344428804e+01 -3.1276711397843486e-02 -5.9310789463255353e-01 +5.9549593421217894e-03
-1.0799999999999978e+01 +8.1496953395842286e+00 +0.0000000000000000e+00 -1.0799999325875765e+01 -3.1276665466813895e-02 -5.9310847419562895e-01 +5.9550786315976248e-03
-1.0899999999999977e+01 +8.1496338583831562e+00 +0.0000000000000000e+00 -1.0899999306975939e+01 -3.1276620514822814e-02 -5.9310906034146826e-01 +5.9551959483022943e-03
-1.0999999999999977e+01 +8.1495718105169246e+00 +0.0000000000000000e+00 -1.0999999287726116e+01 -3.1276577788646225e-02 -5.9310965224022927e-01 +5.9553114095673484e-03
-1.1099999999999977e+01 +8.1495091959849688e+00 +0.0000000000000000e+00 -1.1099999268123081e+01 -3.1276538534991564e-02 -5.9311024906206866e-01 +5.9554251327315986e-03
-1.1199999999999976e+01 +8.1494460147867223e+00 +0.0000000000000000e+00 -1.1199999248163627e+01 -3.1276504000496294e-02 -5.9311084997714481e-01 +5.9555372351413121e-03
-1.1299999999999976e+01 +8.1493822669216112e+00 +0.0000000000000000e+00 -1.1299999227844539e+01 -3.1276475431726167e-02 -5.9311145415561717e-01 +5.9556478341503656e-03
-1.1399999999999975e+01 +8.1493179523890618e+00 +0.0000000000000000e+00 -1.1399999207162608e+01 -3.1276454075173730e-02 -5.9311206076764611e-01 +5.9557570471204194e-03
-1.1499999999999975e+01 +8.1492530711884967e+00 +0.0000000000000000e+00 -1.1499999186114621e+01 -3.1276441177256753e-02 -5.9311266898339443e-01 +5.9558649914210823e-03
-1.1599999999999975e+01 +8.1491876233193352e+00 +0.0000000000000000e+00 -1.1599999164697367e+01 -3.1276437984316660e-02 -5.9311327797302515e-01 +5.9559717844300834e-03
-1.1699999999999974e+01 +8.1491216087809999e+00 +0.0000000000000000e+00 -1.1699999142907634e+01 -3.1276445742616926e-02 -5.9311388690670497e-01 +5.9560775435334350e-03
