# field on trajectory
# s[mm] rx[mm] ry[mm] rz[mm] bx[T] by[T] bz[T]
0.0000000000000000e+00 +8.1529999999999987e+00 +0.0000000000000000e+00 +0.0000000000000000e+00 -2.8047625139742179e-02 -5.3664394971828311e-01 +5.3119043255117331e-03
1.0000000000000001e-01 +8.1529997170651285e+00 +0.0000000000000000e+00 +9.9999999999466321e-02 -2.8047751283009213e-02 -5.3664409202320329e-01 +5.3119287185107236e-03
2.0000000000000001e-01 +8.1529988682604184e+00 +0.0000000000000000e+00 +1.9999999999573054e-01 -2.8047871401504824e-02 -5.3664423439447362e-01 +5.3119518294059065e-03
3.0000000000000004e-01 +8.1529974535857175e+00 +0.0000000000000000e+00 +2.9999999998559057e-01 -2.8047985579984835e-02 -5.3664437720338920e-01 +5.3119739103624601e-03
4.0000000000000002e-01 +8.1529954730408765e+00 +0.0000000000000000e+00 +3.9999999996584434e-01 -2.8048093903200150e-02 -5.3664452082125713e-01 +5.3119952135488591e-03
5.0000000000000000e-01 +8.1529929266257426e+00 +0.0000000000000000e+00 +4.9999999993328975e-01 -2.8048196455896426e-02 -5.3664466561939328e-01 +5.3120159911364808e-03
5.9999999999999998e-01 +8.1529898143401649e+00 +0.0000000000000000e+00 +5.9999999988472474e-01 -2.8048293322813736e-02 -5.3664481196912439e-01 +5.3120364952992495e-03
6.9999999999999996e-01 +8.1529861361839870e+00 +0.0000000000000000e+00 +6.9999999981694716e-01 -2.8048384588686106e-02 -5.3664496024178587e-01 +5.3120569782132603e-03
7.9999999999999993e-01 +8.1529818921570545e+00 +0.0000000000000000e+00 +7.9999999972675495e-01 -2.8048470338241215e-02 -5.3664511080872135e-01 +5.3120776920563923e-03
8.9999999999999991e-01 +8.1529770822592074e+00 +0.0000000000000000e+00 +8.9999999961094590e-01 -2.8048550656199999e-02 -5.3664526404128277e-01 +5.3120988890079501e-03
9.9999999999999989e-01 +8.1529717064902858e+00 +0.0000000000000000e+00 +9.9999999946631801e-01 -2.8048625627276291e-02 -5.3664542031082962e-01 +5.3121208212482812e-03
1.0999999999999999e+00 +8.1529657648501246e+00 +0.0000000000000000e+00 +1.0999999992896692e+00 -2.8048695336176432e-02 -5.3664557998872808e-01 +5.3121437409584223e-03
1.2000000000000000e+00 +8.1529592573385550e+00 +0.0000000000000000e+00 +1.1999999990777972e+00 -2.8048759867598895e-02 -5.3664574344635019e-01 +5.3121679003196899e-03
1.3000000000000000e+00 +8.1529521839554047e+00 +0.0000000000000000e+00 +1.2999999988274999e+00 -2.8048819306233971e-02 -5.3664591105507509e-01 +5.3121935515133461e-03
1.4000000000000001e+00 +8.1529445447004978e+00 +0.0000000000000000e+00 +1.3999999985355753e+00 -2.8048873736763284e-02 -5.3664608318628537e-01 +5.3122209467201878e-03
1.5000000000000002e+00 +8.1529363395736514e+00 +0.0000000000000000e+00 +1.4999999981988215e+00 -2.8048923243859540e-02 -5.3664626021136952e-01 +5.3122503381202177e-03
1.6000000000000003e+00 +8.1529275685746807e+00 +0.0000000000000000e+00 +1.5999999978140360e+00 -2.8048967912186057e-02 -5.3664644250171956e-01 +5.3122819778922198e-03
1.7000000000000004e+00 +8.1529182317033939e+00 +0.0000000000000000e+00 +1.6999999973780167e+00 -2.8049007826396501e-02 -5.3664663042873118e-01 +5.3123161182134348e-03
1.8000000000000005e+00 +8.1529083289595921e+00 +0.0000000000000000e+00 +1.7999999968875615e+00 -2.8049043071134382e-02 -5.3664682436380307e-01 +5.3123530112591504e-03
1.9000000000000006e+00 +8.1528978603430708e+00 +0.0000000000000000e+00 +1.8999999963394685e+00 -2.8049073731032752e-02 -5.3664702467833592e-01 +5.3123929092023488e-03
2.0000000000000004e+00 +8.1528868258536207e+00 +0.0000000000000000e+00 +1.9999999957305352e+00 -2.8049099890713882e-02 -5.3664723174373263e-01 +5.3124360642133189e-03
2.1000000000000005e+00 +8.1528752254910213e+00 +0.0000000000000000e+00 +2.0999999950575599e+00 -2.8049121767214486e-02 -5.3664744600963288e-01 +5.3124826906738327e-03
2.2000000000000006e+00 +8.1528630592550488e+00 +0.0000000000000000e+00 +2.1999999943173401e+00 -2.8049140107267986e-02 -5.3664766823861554e-01 +5.3125328518215881e-03
2.3000000000000007e+00 +8.1528503271454689e+00 +0.0000000000000000e+00 +2.2999999935066735e+00 -2.8049155790037698e-02 -5.3664789927148859e-01 +5.3125865731087421e-03
2.4000000000000008e+00 +8.1528370291620380e+00 +0.0000000000000000e+00 +2.3999999926223583e+00 -2.8049169694693836e-02 -5.3664813994905114e-01 +5.3126438799877421e-03
2.5000000000000009e+00 +8.1528231653045040e+00 +0.0000000000000000e+00 +2.4999999916611921e+00 -2.8049182700415141e-02 -5.3664839111209373e-01 +5.3127047979114085e-03
2.6000000000000010e+00 +8.1528087355726004e+00 +0.0000000000000000e+00 +2.5999999906199731e+00 -2.8049195686390398e-02 -5.3664865360139435e-01 +5.3127693523330162e-03
2.7000000000000011e+00 +8.1527937399660519e+00 +0.0000000000000000e+00 +2.6999999894954985e+00 -2.8049209531820052e-02 -5.3664892825772015e-01 +5.3128375687063545e-03
2.8000000000000012e+00 +8.1527781784845690e+00 +0.0000000000000000e+00 +2.7999999882845663e+00 -2.8049225115917661e-02 -5.3664921592182302e-01 +5.3129094724858111e-03
2.9000000000000012e+00 +8.1527620511278496e+00 +0.0000000000000000e+00 +2.8999999869839748e+00 -2.8049243317911549e-02 -5.3664951743444056e-01 +5.3129850891264442e-03
3.0000000000000013e+00 +8.1527453578955758e+00 +0.0000000000000000e+00 +2.9999999855905215e+00 -2.8049265017046320e-02 -5.3664983363629370e-01 +5.3130644440840613e-03
3.1000000000000014e+00 +8.1527280987874136e+00 +0.0000000000000000e+00 +3.0999999841010042e+00 -2.8049291092584416e-02 -5.3665016536808541e-01 +5.3131475628152838e-03
3.2000000000000015e+00 +8.1527102738030148e+00 +0.0000000000000000e+00 +3.1999999825122205e+00 -2.8049322423807657e-02 -5.3665051347049963e-01 +5.3132344707776270e-03
3.3000000000000016e+00 +8.1526918829420136e+00 +0.0000000000000000e+00 +3.2999999808209681e+00 -2.8049359890018815e-02 -5.3665087878419959e-01 +5.3133251934295743e-03
3.4000000000000017e+00 +8.1526729262040245e+00 +0.0000000000000000e+00 +3.3999999790240452e+00 -2.8049404370543204e-02 -5.3665126214982684e-01 +5.3134197562306560e-03
3.5000000000000018e+00 +8.1526534035886424e+00 +0.0000000000000000e+00 +3.4999999771182493e+00 -2.8049456744730149e-02 -5.3665166440799938e-01 +5.3135181846415067e-03
3.6000000000000019e+00 +8.1526333150954446e+00 +0.0000000000000000e+00 +3.5999999751003782e+00 -2.8049517891954617e-02 -5.3665208639931083e-01 +5.3136205041239698e-03
3.7000000000000020e+00 +8.1526126607239870e+00 +0.0000000000000000e+00 +3.6999999729672295e+00 -2.8049588691618756e-02 -5.3665252896432902e-01 +5.3137267401411337e-03
3.8000000000000020e+00 +8.1525914404738042e+00 +0.0000000000000000e+00 +3.7999999707156009e+00 -2.8049670023153422e-02 -5.3665299294359370e-01 +5.3138369181574396e-03
3.9000000000000021e+00 +8.1525696543444059e+00 +0.0000000000000000e+00 +3.8999999683422901e+00 -2.8049762766019764e-02 -5.3665347917761697e-01 +5.3139510636387400e-03
4.0000000000000018e+00 +8.1525473023352824e+00 +0.0000000000000000e+00 +3.9999999658440952e+00 -2.8049867799710769e-02 -5.3665398850688018e-01 +5.3140692020523647e-03
4.1000000000000014e+00 +8.1525243844458952e+00 +0.0000000000000000e+00 +4.0999999632178135e+00 -2.8049985693912934e-02 -5.3665452141726677e-01 +5.3141913106070169e-03
4.2000000000000011e+00 +8.1525009006756832e+00 +0.0000000000000000e+00 +4.1999999604602429e+00 -2.8050115778968304e-02 -5.3665507697637649e-01 +5.3143171734710663e-03
4.3000000000000007e+00 +8.1524768510240619e+00 +0.0000000000000000e+00 +4.2999999575681809e+00 -2.8050257075362590e-02 -5.3665565389725467e-01 +5.3144465265516317e-03
4.4000000000000004e+00 +8.1524522354904239e+00 +0.0000000000000000e+00 +4.3999999545384245e+00 -2.8050408603559420e-02 -5.3665625089296742e-01 +5.3145791057545464e-03
4.5000000000000000e+00 +8.1524270540741419e+00 +0.0000000000000000e+00 +4.4999999513677729e+00 -2.8050569383998556e-02 -5.3665686667660217e-01 +5.3147146469842725e-03
4.5999999999999996e+00 +8.1524013067745660e+00 +0.0000000000000000e+00 +4.5999999480530223e+00 -2.8050738437094137e-02 -5.3665749996126944e-01 +5.3148528861437965e-03
4.6999999999999993e+00 +8.1523749935910299e+00 +0.0000000000000000e+00 +4.6999999445909708e+00 -2.8050914783232871e-02 -5.3665814946010537e-01 +5.3149935591345412e-03
4.7999999999999989e+00 +8.1523481145228480e+00 +0.0000000000000000e+00 +4.7999999409784158e+00 -2.8051097442772250e-02 -5.3665881388627201e-01 +5.3151364018562642e-03
4.8999999999999986e+00 +8.1523206695693222e+00 +0.0000000000000000e+00 +4.8999999372121552e+00 -2.8051285436038801e-02 -5.3665949195296070e-01 +5.3152811502069682e-03
4.9999999999999982e+00 +8.1522926587297384e+00 +0.0000000000000000e+00 +4.9999999332889864e+00 -2.8051477783326229e-02 -5.3666018237339186e-01 +5.3154275400827998e-03
5.0999999999999979e+00 +8.1522640820033700e+00 +0.0000000000000000e+00 +5.0999999292057066e+00 -2.8051673504893727e-02 -5.3666088386081856e-01 +5.3155753073779542e-03
5.1999999999999975e+00 +8.1522349393894782e+00 +0.0000000000000000e+00 +5.1999999249591129e+00 -2.8051871620964116e-02 -5.3666159512852718e-01 +5.3157241879845801e-03
5.2999999999999972e+00 +8.1522052308873132e+00 +0.0000000000000000e+00 +5.2999999205460036e+00 -2.8052071151722119e-02 -5.3666231488983918e-01 +5.3158739177926956e-03
5.3999999999999968e+00 +8.1521749564961183e+00 +0.0000000000000000e+00 +5.3999999159631766e+00 -2.8052271117312531e-02 -5.3666304185811320e-01 +5.3160242326900737e-03
5.4999999999999964e+00 +8.1521441162151280e+00 +0.0000000000000000e+00 +5.4999999112074285e+00 -2.8052470537838450e-02 -5.3666377474674654e-01 +5.3161748685621570e-03
5.5999999999999961e+00 +8.1521127100435695e+00 +0.0000000000000000e+00 +5.5999999062755572e+00 -2.8052668433359528e-02 -5.3666451226917611e-01 +5.3163255612919636e-03
5.6999999999999957e+00 +8.1520807379806666e+00 +0.0000000000000000e+00 +5.6999999011643592e+00 -2.8052863823890169e-02 -5.3666525313888214e-01 +5.3164760467599948e-03
5.7999999999999954e+00 +8.1520482000256393e+00 +0.0000000000000000e+00 +5.7999998958706334e+00 -2.8053055729397702e-02 -5.3666599606938781e-01 +5.3166260608441289e-03
5.8999999999999950e+00 +8.1520150961777045e+00 +0.0000000000000000e+00 +5.8999998903911761e+00 -2.8053243169800682e-02 -5.3666673977426160e-01 +5.3167753394195326e-03
5.9999999999999947e+00 +8.1519814264360804e+00 +0.0000000000000000e+00 +5.9999998847227847e+00 -2.8053425164967061e-02 -5.3666748296712008e-01 +5.3169236183585721e-03
6.0999999999999943e+00 +8.1519471907999836e+00 +0.0000000000000000e+00 +6.0999998788622571e+00 -2.8053600928343123e-02 -5.3666822451935992e-01 +5.3170707140254994e-03
6.1999999999999940e+00 +8.1519123892686345e+00 +0.0000000000000000e+00 +6.1999998728063908e+00 -2.8053770447874507e-02 -5.3666896393333618e-01 +5.3172167647631691e-03
6.2999999999999936e+00 +8.1518770218412548e+00 +0.0000000000000000e+00 +6.2999998665519827e+00 -2.8053933905161012e-02 -5.3666970086911525e-01 +5.3173619894103311e-03
6.3999999999999932e+00 +8.1518410885170667e+00 +0.0000000000000000e+00 +6.3999998600958303e+00 -2.8054091481832997e-02 -5.3667043498673550e-01 +5.3175066068066722e-03
6.4999999999999929e+00 +8.1518045892952991e+00 +0.0000000000000000e+00 +6.4999998534347307e+00 -2.8054243359552894e-02 -5.3667116594620390e-01 +5.3176508357928786e-03
6.5999999999999925e+00 +8.1517675241751810e+00 +0.0000000000000000e+00 +6.5999998465654812e+00 -2.8054389720016910e-02 -5.3667189340749533e-01 +5.3177948952106754e-03
6.6999999999999922e+00 +8.1517298931559470e+00 +0.0000000000000000e+00 +6.6999998394848799e+00 -2.8054530744956556e-02 -5.3667261703055114e-01 +5.3179390039029186e-03
6.7999999999999918e+00 +8.1516916962368366e+00 +0.0000000000000000e+00 +6.7999998321897230e+00 -2.8054666616140325e-02 -5.3667333647527848e-01 +5.3180833807136493e-03
6.8999999999999915e+00 +8.1516529334170915e+00 +0.0000000000000000e+00 +6.8999998246768079e+00 -2.8054797515375221e-02 -5.3667405140154723e-01 +5.3182282444881410e-03
6.9999999999999911e+00 +8.1516136046959584e+00 +0.0000000000000000e+00 +6.9999998169429327e+00 -2.8054923624508451e-02 -5.3667476146918891e-01 +5.3183738140729813e-03
7.0999999999999908e+00 +8.1515737100726895e+00 +0.0000000000000000e+00 +7.0999998089848937e+00 -2.8055045125428932e-02 -5.3667546633799679e-01 +5.3185203083161280e-03
7.1999999999999904e+00 +8.1515332495465440e+00 +0.0000000000000000e+00 +7.1999998007994890e+00 -2.8055162200069001e-02 -5.3667616566772203e-01 +5.3186679460669661e-03
7.2999999999999901e+00 +8.1514922231167866e+00 +0.0000000000000000e+00 +7.2999997923835158e+00 -2.8055275030405957e-02 -5.3667685911807372e-01 +5.3188169461763747e-03
7.3999999999999897e+00 +8.1514506307826853e+00 +0.0000000000000000e+00 +7.3999997837337705e+00 -2.8055383798463649e-02 -5.3667754634871734e-01 +5.3189675274967893e-03
7.4999999999999893e+00 +8.1514084725435190e+00 +0.0000000000000000e+00 +7.4999997748470513e+00 -2.8055488686314124e-02 -5.3667822701927259e-01 +5.3191199088822704e-03
7.5999999999999890e+00 +8.1513657483985700e+00 +0.0000000000000000e+00 +7.5999997657201543e+00 -2.8055589876079222e-02 -5.3667890078931257e-01 +5.3192743091885495e-03
7.6999999999999886e+00 +8.1513224583471295e+00 +0.0000000000000000e+00 +7.6999997563498779e+00 -2.8055687549932169e-02 -5.3667956731836208e-01 +5.3194309472731080e-03
7.7999999999999883e+00 +8.1512786023884960e+00 +0.0000000000000000e+00 +7.7999997467330182e+00 -2.8055781890099184e-02 -5.3668022626589540e-01 +5.3195900419952266e-03
7.8999999999999879e+00 +8.1512341805219748e+00 +0.0000000000000000e+00 +7.8999997368663735e+00 -2.8055873078861062e-02 -5.3668087729133640e-01 +5.3197518122160628e-03
7.9999999999999876e+00 +8.1511891927468838e+00 +0.0000000000000000e+00 +7.9999997267467400e+00 -2.8055961298554821e-02 -5.3668152005405600e-01 +5.3199164767986926e-03
8.0999999999999872e+00 +8.1511436390625445e+00 +0.0000000000000000e+00 +8.0999997163709150e+00 -2.8056046731194651e-02 -5.3668215441619604e-01 +5.3200841859060754e-03
8.1999999999999869e+00 +8.1510975194682889e+00 +0.0000000000000000e+00 +8.1999997057356957e+00 -2.8056129557307737e-02 -5.3668278105118727e-01 +5.3202548148933238e-03
8.2999999999999865e+00 +8.1510508339634598e+00 +0.0000000000000000e+00 +8.2999996948378794e+00 -2.8056209957034832e-02 -5.3668340083532906e-01 +5.3204281704167236e-03
8.3999999999999861e+00 +8.1510035825474034e+00 +0.0000000000000000e+00 +8.3999996836742632e+00 -2.8056288110504361e-02 -5.3668401464497040e-01 +5.3206040591372954e-03
8.4999999999999858e+00 +8.1509557652194751e+00 +0.0000000000000000e+00 +8.4999996722416444e+00 -2.8056364197831852e-02 -5.3668462335651212e-01 +5.3207822877209517e-03
8.5999999999999854e+00 +8.1509073819790334e+00 +0.0000000000000000e+00 +8.5999996605368203e+00 -2.8056438399119348e-02 -5.3668522784640860e-01 +5.3209626628386289e-03
8.6999999999999851e+00 +8.1508584328254425e+00 +0.0000000000000000e+00 +8.6999996485565880e+00 -2.8056510894454764e-02 -5.3668582899116901e-01 +5.3211449911664188e-03
8.7999999999999847e+00 +8.1508089177580718e+00 +0.0000000000000000e+00 +8.7999996362977448e+00 -2.8056581863911349e-02 -5.3668642766735830e-01 +5.3213290793857164e-03
8.8999999999999844e+00 +8.1507588367762889e+00 +0.0000000000000000e+00 +8.8999996237570862e+00 -2.8056651487547084e-02 -5.3668702475160224e-01 +5.3215147341833567e-03
8.9999999999999840e+00 +8.1507081898794667e+00 +0.0000000000000000e+00 +8.9999996109314111e+00 -2.8056719945404048e-02 -5.3668762112058410e-01 +5.3217017622517486e-03
9.0999999999999837e+00 +8.1506569770669781e+00 +0.0000000000000000e+00 +9.0999995978175168e+00 -2.8056787417507858e-02 -5.3668821765105112e-01 +5.3218899702890156e-03
9.1999999999999833e+00 +8.1506051983381962e+00 +0.0000000000000000e+00 +9.1999995844121987e+00 -2.8056854083867093e-02 -5.3668881521981315e-01 +5.3220791649991328e-03
9.2999999999999829e+00 +8.1505528536924921e+00 +0.0000000000000000e+00 +9.2999995707122540e+00 -2.8056920124472629e-02 -5.3668941470374509e-01 +5.3222691530920678e-03
9.3999999999999826e+00 +8.1504999431292351e+00 +0.0000000000000000e+00 +9.3999995567144818e+00 -2.8056985719297104e-02 -5.3669001697978991e-01 +5.3224597412839161e-03
9.4999999999999822e+00 +8.1504464666477912e+00 +0.0000000000000000e+00 +9.4999995424156776e+00 -2.8057051048294361e-02 -5.3669062292495850e-01 +5.3226507362970467e-03
9.5999999999999819e+00 +8.1503924242475243e+00 +0.0000000000000000e+00 +9.5999995278126384e+00 -2.8057116291398738e-02 -5.3669123341633229e-01 +5.3228419448602248e-03
9.6999999999999815e+00 +8.1503378159277915e+00 +0.0000000000000000e+00 +9.6999995129021617e+00 -2.8057181628524577e-02 -5.3669184933106528e-01 +5.3230331737087648e-03
9.7999999999999812e+00 +8.1502826416879444e+00 +0.0000000000000000e+00 +9.7999994976810427e+00 -2.8057247239565611e-02 -5.3669247154638566e-01 +5.3232242295846704e-03
9.8999999999999808e+00 +8.1502269015273292e+00 +0.0000000000000000e+00 +9.8999994821460806e+00 -2.8057313304394291e-02 -5.3669310093959577e-01 +5.3234149192367530e-03
9.9999999999999805e+00 +8.1501705954452852e+00 +0.0000000000000000e+00 +9.9999994662940708e+00 -2.8057380002861350e-02 -5.3669373838807699e-01 +5.3236050494207933e-03
1.0099999999999980e+01 +8.1501137234411409e+00 +0.0000000000000000e+00 +1.0099999450121812e+01 -2.8057447441918522e-02 -5.3669438452654827e-01 +5.3237944760383873e-03
1.0199999999999980e+01 +8.1500562855142160e+00 +0.0000000000000000e+00 +1.0199999433626100e+01 -2.8057515436982094e-02 -5.3669503901877935e-01 +5.3239832515508210e-03
1.0299999999999979e+01 +8.1499982816638230e+00 +0.0000000000000000e+00 +1.0299999416803733e+01 -2.8057583730561043e-02 -5.3669570128572419e-01 +5.3241714775515399e-03
1.0399999999999979e+01 +8.1499397118892656e+00 +0.0000000000000000e+00 +1.0399999399651506e+01 -2.8057652065134685e-02 -5.3669637074825371e-01 +5.3243592556242005e-03
1.0499999999999979e+01 +8.1498805761898403e+00 +0.0000000000000000e+00 +1.0499999382166216e+01 -2.8057720183152030e-02 -5.3669704682715202e-01 +5.3245466873423986e-03
1.0599999999999978e+01 +8.1498208745648348e+00 +0.0000000000000000e+00 +1.0599999364344662e+01 -2.8057787827030993e-02 -5.3669772894311685e-01 +5.3247338742694059e-03
1.0699999999999978e+01 +8.1497606070135333e+00 +0.0000000000000000e+00 +1.0699999346183638e+01 -2.8057854739157707e-02 -5.3669841651675465e-01 +5.3249209179578776e-03
1.0799999999999978e+01 +8.1496997735352128e+00 +0.0000000000000000e+00 +1.0799999327679943e+01 -2.8057920661885796e-02 -5.3669910896858020e-01 +5.3251079199495930e-03
1.0899999999999977e+01 +8.1496383741291432e+00 +0.0000000000000000e+00 +1.0899999308830372e+01 -2.8057985337535663e-02 -5.3669980571901310e-01 +5.3252949817751824e-03
1.0999999999999977e+01 +8.1495764087945926e+00 +0.0000000000000000e+00 +1.0999999289631724e+01 -2.8058048508393760e-02 -5.3670050618837628e-01 +5.3254822049538424e-03
1.1099999999999977e+01 +8.1495138775308256e+00 +0.0000000000000000e+00 +1.1099999270080794e+01 -2.8058109916711860e-02 -5.3670120979689284e-01 +5.3256696909930751e-03
1.1199999999999976e+01 +8.1494507803371015e+00 +0.0000000000000000e+00 +1.1199999250174379e+01 -2.8058169304706365e-02 -5.3670191596468519e-01 +5.3258575413884001e-03
1.1299999999999976e+01 +8.1493871172126777e+00 +0.0000000000000000e+00 +1.1299999229909277e+01 -2.8058226414557536e-02 -5.3670262411177172e-01 +5.3260458576230938e-03
1.1399999999999975e+01 +8.1493228881568101e+00 +0.0000000000000000e+00 +1.1399999209282283e+01 -2.8058280988408849e-02 -5.3670333365806400e-01 +5.3262347411679100e-03
1.1499999999999975e+01 +8.1492580931687524e+00 +0.0000000000000000e+00 +1.1499999188290195e+01 -2.8058332768366199e-02 -5.3670404402336636e-01 +5.3264242934808106e-03
1.1599999999999975e+01 +8.1491927322477569e+00 +0.0000000000000000e+00 +1.1599999166929809e+01 -2.8058381496497233e-02 -5.3670475462737155e-01 +5.3266146160066818e-03
1.1699999999999974e+01 +8.1491268053930774e+00 +0.0000000000000000e+00 +1.1699999145197923e+01 -2.8058426914830615e-02 -5.3670546488966031e-01 +5.3268058101770726e-03
1.1799999999999974e+01 +8.1490603126039662e+00 +0.0000000000000000e+00 +1.1799999123091332e+01 -2.8058468765355296e-02 -5.3670617422969769e-01 +5.3269979774099134e-03
