# trajectory
# s[mm] rx[mm] ry[mm] rz[mm] px[rad] py[rad] pz[rad]
0.0000000000000000e+00 +8.1529999999999987e+00 +0.0000000000000000e+00 +0.0000000000000000e+00 +0.0000000000000000e+00 +0.0000000000000000e+00 +1.0000000000000000e+00
1.0000000000000001e-01 +8.1529997170651285e+00 +0.0000000000000000e+00 +9.9999999999466321e-02 -5.6586976504801841e-06 +0.0000000000000000e+00 +9.9999999998398958e-01
2.0000000000000001e-01 +8.1529988682604184e+00 +0.0000000000000000e+00 +1.9999999999573054e-01 -1.1317396801351486e-05 +0.0000000000000000e+00 +9.9999999993595823e-01
3.0000000000000004e-01 +8.1529974535857175e+00 +0.0000000000000000e+00 +2.9999999998559057e-01 -1.6976097455089918e-05 +0.0000000000000000e+00 +9.9999999985590604e-01
4.0000000000000002e-01 +8.1529954730408765e+00 +0.0000000000000000e+00 +3.9999999996584434e-01 -2.2634799618086704e-05 +0.0000000000000000e+00 +9.9999999974383291e-01
5.0000000000000000e-01 +8.1529929266257426e+00 +0.0000000000000000e+00 +4.9999999993328975e-01 -2.8293503300648413e-05 +0.0000000000000000e+00 +9.9999999959973884e-01
5.9999999999999998e-01 +8.1529898143401649e+00 +0.0000000000000000e+00 +5.9999999988472474e-01 -3.3952208516997047e-05 +0.0000000000000000e+00 +9.9999999942362372e-01
6.9999999999999996e-01 +8.1529861361839870e+00 +0.0000000000000000e+00 +6.9999999981694716e-01 -3.9610915285270137e-05 +0.0000000000000000e+00 +9.9999999921548766e-01
7.9999999999999993e-01 +8.1529818921570545e+00 +0.0000000000000000e+00 +7.9999999972675495e-01 -4.5269623627520850e-05 +0.0000000000000000e+00 +9.9999999897533054e-01
8.9999999999999991e-01 +8.1529770822592074e+00 +0.0000000000000000e+00 +8.9999999961094590e-01 -5.0928333569718069e-05 +0.0000000000000000e+00 +9.9999999870315237e-01
9.9999999999999989e-01 +8.1529717064902858e+00 +0.0000000000000000e+00 +9.9999999946631801e-01 -5.6587045141746473e-05 +0.0000000000000000e+00 +9.9999999839895315e-01
1.0999999999999999e+00 +8.1529657648501246e+00 +0.0000000000000000e+00 +1.0999999992896692e+00 -6.2245758377406607e-05 +0.0000000000000000e+00 +9.9999999806273276e-01
1.2000000000000000e+00 +8.1529592573385550e+00 +0.0000000000000000e+00 +1.1999999990777972e+00 -6.7904473314414970e-05 +0.0000000000000000e+00 +9.9999999769449122e-01
1.3000000000000000e+00 +8.1529521839554047e+00 +0.0000000000000000e+00 +1.2999999988274999e+00 -7.3563189994404067e-05 +0.0000000000000000e+00 +9.9999999729422850e-01
1.4000000000000001e+00 +8.1529445447004978e+00 +0.0000000000000000e+00 +1.3999999985355753e+00 -7.9221908462922448e-05 +0.0000000000000000e+00 +9.9999999686194463e-01
1.5000000000000002e+00 +8.1529363395736514e+00 +0.0000000000000000e+00 +1.4999999981988215e+00 -8.4880628769434794e-05 +0.0000000000000000e+00 +9.9999999639763948e-01
1.6000000000000003e+00 +8.1529275685746807e+00 +0.0000000000000000e+00 +1.5999999978140360e+00 -9.0539350967321945e-05 +0.0000000000000000e+00 +9.9999999590131305e-01
1.7000000000000004e+00 +8.1529182317033939e+00 +0.0000000000000000e+00 +1.6999999973780167e+00 -9.6198075113880938e-05 +0.0000000000000000e+00 +9.9999999537296524e-01
1.8000000000000005e+00 +8.1529083289595921e+00 +0.0000000000000000e+00 +1.7999999968875615e+00 -1.0185680127032506e-04 +0.0000000000000000e+00 +9.9999999481259605e-01
1.9000000000000006e+00 +8.1528978603430708e+00 +0.0000000000000000e+00 +1.8999999963394685e+00 -1.0751552950178383e-04 +0.0000000000000000e+00 +9.9999999422020547e-01
2.0000000000000004e+00 +8.1528868258536207e+00 +0.0000000000000000e+00 +1.9999999957305352e+00 -1.1317425987730306e-04 +0.0000000000000000e+00 +9.9999999359579350e-01
2.1000000000000005e+00 +8.1528752254910213e+00 +0.0000000000000000e+00 +2.0999999950575599e+00 -1.1883299247005115e-04 +0.0000000000000000e+00 +9.9999999293936004e-01
2.2000000000000006e+00 +8.1528630592550488e+00 +0.0000000000000000e+00 +2.1999999943173401e+00 -1.2449172735958761e-04 +0.0000000000000000e+00 +9.9999999225090497e-01
2.3000000000000007e+00 +8.1528503271454689e+00 +0.0000000000000000e+00 +2.2999999935066735e+00 -1.3015046463413178e-04 +0.0000000000000000e+00 +9.9999999153042829e-01
2.4000000000000008e+00 +8.1528370291620380e+00 +0.0000000000000000e+00 +2.3999999926223583e+00 -1.3580920439076896e-04 +0.0000000000000000e+00 +9.9999999077793000e-01
2.5000000000000009e+00 +8.1528231653045040e+00 +0.0000000000000000e+00 +2.4999999916611921e+00 -1.4146794673545023e-04 +0.0000000000000000e+00 +9.9999998999341000e-01
2.6000000000000010e+00 +8.1528087355726004e+00 +0.0000000000000000e+00 +2.5999999906199731e+00 -1.4712669178299244e-04 +0.0000000000000000e+00 +9.9999998917686828e-01
2.7000000000000011e+00 +8.1527937399660519e+00 +0.0000000000000000e+00 +2.6999999894954985e+00 -1.5278543965707806e-04 +0.0000000000000000e+00 +9.9999998832830472e-01
2.8000000000000012e+00 +8.1527781784845690e+00 +0.0000000000000000e+00 +2.7999999882845663e+00 -1.5844419049025504e-04 +0.0000000000000000e+00 +9.9999998744771923e-01
2.9000000000000012e+00 +8.1527620511278496e+00 +0.0000000000000000e+00 +2.8999999869839748e+00 -1.6410294442393663e-04 +0.0000000000000000e+00 +9.9999998653511180e-01
3.0000000000000013e+00 +8.1527453578955758e+00 +0.0000000000000000e+00 +2.9999999855905215e+00 -1.6976170160840125e-04 +0.0000000000000000e+00 +9.9999998559048231e-01
3.1000000000000014e+00 +8.1527280987874136e+00 +0.0000000000000000e+00 +3.0999999841010042e+00 -1.7542046220279229e-04 +0.0000000000000000e+00 +9.9999998461383066e-01
3.2000000000000015e+00 +8.1527102738030148e+00 +0.0000000000000000e+00 +3.1999999825122205e+00 -1.8107922637511790e-04 +0.0000000000000000e+00 +9.9999998360515685e-01
3.3000000000000016e+00 +8.1526918829420136e+00 +0.0000000000000000e+00 +3.2999999808209681e+00 -1.8673799430225083e-04 +0.0000000000000000e+00 +9.9999998256446065e-01
3.4000000000000017e+00 +8.1526729262040245e+00 +0.0000000000000000e+00 +3.3999999790240452e+00 -1.9239676616992813e-04 +0.0000000000000000e+00 +9.9999998149174207e-01
3.5000000000000018e+00 +8.1526534035886424e+00 +0.0000000000000000e+00 +3.4999999771182493e+00 -1.9805554217275099e-04 +0.0000000000000000e+00 +9.9999998038700100e-01
3.6000000000000019e+00 +8.1526333150954446e+00 +0.0000000000000000e+00 +3.5999999751003782e+00 -2.0371432251418446e-04 +0.0000000000000000e+00 +9.9999997925023731e-01
3.7000000000000020e+00 +8.1526126607239870e+00 +0.0000000000000000e+00 +3.6999999729672295e+00 -2.0937310740655715e-04 +0.0000000000000000e+00 +9.9999997808145080e-01
3.8000000000000020e+00 +8.1525914404738042e+00 +0.0000000000000000e+00 +3.7999999707156009e+00 -2.1503189707106098e-04 +0.0000000000000000e+00 +9.9999997688064146e-01
3.9000000000000021e+00 +8.1525696543444059e+00 +0.0000000000000000e+00 +3.8999999683422901e+00 -2.2069069173775090e-04 +0.0000000000000000e+00 +9.9999997564780907e-01
4.0000000000000018e+00 +8.1525473023352824e+00 +0.0000000000000000e+00 +3.9999999658440952e+00 -2.2634949164554455e-04 +0.0000000000000000e+00 +9.9999997438295352e-01
4.1000000000000014e+00 +8.1525243844458952e+00 +0.0000000000000000e+00 +4.0999999632178135e+00 -2.3200829704128726e-04 +0.0000000000000000e+00 +9.9999997308607469e-01
4.2000000000000011e+00 +8.1525009006756832e+00 +0.0000000000000000e+00 +4.1999999604602429e+00 -2.3766710816947013e-04 +0.0000000000000000e+00 +9.9999997175717248e-01
4.3000000000000007e+00 +8.1524768510240619e+00 +0.0000000000000000e+00 +4.2999999575681809e+00 -2.4332592526194849e-04 +0.0000000000000000e+00 +9.9999997039624666e-01
4.4000000000000004e+00 +8.1524522354904239e+00 +0.0000000000000000e+00 +4.3999999545384245e+00 -2.4898474853700733e-04 +0.0000000000000000e+00 +9.9999996900329702e-01
4.5000000000000000e+00 +8.1524270540741419e+00 +0.0000000000000000e+00 +4.4999999513677729e+00 -2.5464357819936153e-04 +0.0000000000000000e+00 +9.9999996757832355e-01
4.5999999999999996e+00 +8.1524013067745660e+00 +0.0000000000000000e+00 +4.5999999480530223e+00 -2.6030241444015609e-04 +0.0000000000000000e+00 +9.9999996612132602e-01
4.6999999999999993e+00 +8.1523749935910299e+00 +0.0000000000000000e+00 +4.6999999445909708e+00 -2.6596125743696649e-04 +0.0000000000000000e+00 +9.9999996463230423e-01
4.7999999999999989e+00 +8.1523481145228480e+00 +0.0000000000000000e+00 +4.7999999409784158e+00 -2.7162010735379879e-04 +0.0000000000000000e+00 +9.9999996311125805e-01
4.8999999999999986e+00 +8.1523206695693222e+00 +0.0000000000000000e+00 +4.8999999372121552e+00 -2.7727896434109000e-04 +0.0000000000000000e+00 +9.9999996155818727e-01
4.9999999999999982e+00 +8.1522926587297384e+00 +0.0000000000000000e+00 +4.9999999332889864e+00 -2.8293782853570850e-04 +0.0000000000000000e+00 +9.9999995997309188e-01
5.0999999999999979e+00 +8.1522640820033700e+00 +0.0000000000000000e+00 +5.0999999292057066e+00 -2.8859670006095415e-04 +0.0000000000000000e+00 +9.9999995835597155e-01
5.1999999999999975e+00 +8.1522349393894782e+00 +0.0000000000000000e+00 +5.1999999249591129e+00 -2.9425557902655879e-04 +0.0000000000000000e+00 +9.9999995670682618e-01
5.2999999999999972e+00 +8.1522052308873132e+00 +0.0000000000000000e+00 +5.2999999205460036e+00 -2.9991446552868654e-04 +0.0000000000000000e+00 +9.9999995502565564e-01
5.3999999999999968e+00 +8.1521749564961183e+00 +0.0000000000000000e+00 +5.3999999159631766e+00 -3.0557335964993425e-04 +0.0000000000000000e+00 +9.9999995331245983e-01
5.4999999999999964e+00 +8.1521441162151280e+00 +0.0000000000000000e+00 +5.4999999112074285e+00 -3.1123226145933182e-04 +0.0000000000000000e+00 +9.9999995156723853e-01
5.5999999999999961e+00 +8.1521127100435695e+00 +0.0000000000000000e+00 +5.5999999062755572e+00 -3.1689117101234260e-04 +0.0000000000000000e+00 +9.9999994978999163e-01
5.6999999999999957e+00 +8.1520807379806666e+00 +0.0000000000000000e+00 +5.6999999011643592e+00 -3.2255008835086396e-04 +0.0000000000000000e+00 +9.9999994798071890e-01
5.7999999999999954e+00 +8.1520482000256393e+00 +0.0000000000000000e+00 +5.7999998958706334e+00 -3.2820901350322760e-04 +0.0000000000000000e+00 +9.9999994613942023e-01
5.8999999999999950e+00 +8.1520150961777045e+00 +0.0000000000000000e+00 +5.8999998903911761e+00 -3.3386794648420005e-04 +0.0000000000000000e+00 +9.9999994426609551e-01
5.9999999999999947e+00 +8.1519814264360804e+00 +0.0000000000000000e+00 +5.9999998847227847e+00 -3.3952688729498319e-04 +0.0000000000000000e+00 +9.9999994236074463e-01
6.0999999999999943e+00 +8.1519471907999836e+00 +0.0000000000000000e+00 +6.0999998788622571e+00 -3.4518583592363058e-04 +0.0000000000000000e+00 +9.9999994042336748e-01
6.1999999999999940e+00 +8.1519123892686345e+00 +0.0000000000000000e+00 +6.1999998728063908e+00 -3.5084479234962179e-04 +0.0000000000000000e+00 +9.9999993845396384e-01
6.2999999999999936e+00 +8.1518770218412548e+00 +0.0000000000000000e+00 +6.2999998665519827e+00 -3.5650375654843619e-04 +0.0000000000000000e+00 +9.9999993645253371e-01
6.3999999999999932e+00 +8.1518410885170667e+00 +0.0000000000000000e+00 +6.3999998600958303e+00 -3.6216272849196854e-04 +0.0000000000000000e+00 +9.9999993441907686e-01
6.4999999999999929e+00 +8.1518045892952991e+00 +0.0000000000000000e+00 +6.4999998534347307e+00 -3.6782170814852870e-04 +0.0000000000000000e+00 +9.9999993235359319e-01
6.5999999999999925e+00 +8.1517675241751810e+00 +0.0000000000000000e+00 +6.5999998465654812e+00 -3.7348069548284122e-04 +0.0000000000000000e+00 +9.9999993025608258e-01
6.6999999999999922e+00 +8.1517298931559470e+00 +0.0000000000000000e+00 +6.6999998394848799e+00 -3.7913969045604517e-04 +0.0000000000000000e+00 +9.9999992812654492e-01
6.7999999999999918e+00 +8.1516916962368366e+00 +0.0000000000000000e+00 +6.7999998321897230e+00 -3.8479869302569352e-04 +0.0000000000000000e+00 +9.9999992596498011e-01
6.8999999999999915e+00 +8.1516529334170915e+00 +0.0000000000000000e+00 +6.8999998246768079e+00 -3.9045770314575297e-04 +0.0000000000000000e+00 +9.9999992377138802e-01
6.9999999999999911e+00 +8.1516136046959584e+00 +0.0000000000000000e+00 +6.9999998169429327e+00 -3.9611672076660342e-04 +0.0000000000000000e+00 +9.9999992154576856e-01
7.0999999999999908e+00 +8.1515737100726895e+00 +0.0000000000000000e+00 +7.0999998089848937e+00 -4.0177574583503771e-04 +0.0000000000000000e+00 +9.9999991928812160e-01
7.1999999999999904e+00 +8.1515332495465440e+00 +0.0000000000000000e+00 +7.1999998007994890e+00 -4.0743477829426105e-04 +0.0000000000000000e+00 +9.9999991699844715e-01
7.2999999999999901e+00 +8.1514922231167866e+00 +0.0000000000000000e+00 +7.2999997923835158e+00 -4.1309381808389068e-04 +0.0000000000000000e+00 +9.9999991467674498e-01
7.3999999999999897e+00 +8.1514506307826853e+00 +0.0000000000000000e+00 +7.3999997837337705e+00 -4.1875286513995538e-04 +0.0000000000000000e+00 +9.9999991232301499e-01
7.4999999999999893e+00 +8.1514084725435190e+00 +0.0000000000000000e+00 +7.4999997748470513e+00 -4.2441191939489499e-04 +0.0000000000000000e+00 +9.9999990993725718e-01
7.5999999999999890e+00 +8.1513657483985700e+00 +0.0000000000000000e+00 +7.5999997657201543e+00 -4.3007098077755987e-04 +0.0000000000000000e+00 +9.9999990751947132e-01
7.6999999999999886e+00 +8.1513224583471295e+00 +0.0000000000000000e+00 +7.6999997563498779e+00 -4.3573004921321055e-04 +0.0000000000000000e+00 +9.9999990506965741e-01
7.7999999999999883e+00 +8.1512786023884960e+00 +0.0000000000000000e+00 +7.7999997467330182e+00 -4.4138912462351706e-04 +0.0000000000000000e+00 +9.9999990258781535e-01
7.8999999999999879e+00 +8.1512341805219748e+00 +0.0000000000000000e+00 +7.8999997368663735e+00 -4.4704820692655848e-04 +0.0000000000000000e+00 +9.9999990007394512e-01
7.9999999999999876e+00 +8.1511891927468838e+00 +0.0000000000000000e+00 +7.9999997267467400e+00 -4.5270729603682239e-04 +0.0000000000000000e+00 +9.9999989752804663e-01
8.0999999999999872e+00 +8.1511436390625445e+00 +0.0000000000000000e+00 +8.0999997163709150e+00 -4.5836639186573895e-04 +0.0000000000000000e+00 +9.9999989495011976e-01
8.1999999999999869e+00 +8.1510975194682889e+00 +0.0000000000000000e+00 +8.1999997057356957e+00 -4.6402549432756192e-04 +0.0000000000000000e+00 +9.9999989234016440e-01
8.2999999999999865e+00 +8.1510508339634598e+00 +0.0000000000000000e+00 +8.2999996948378794e+00 -4.6968460334525039e-04 +0.0000000000000000e+00 +9.9999988969818054e-01
8.3999999999999861e+00 +8.1510035825474034e+00 +0.0000000000000000e+00 +8.3999996836742632e+00 -4.7534371885100387e-04 +0.0000000000000000e+00 +9.9999988702416798e-01
8.4999999999999858e+00 +8.1509557652194751e+00 +0.0000000000000000e+00 +8.4999996722416444e+00 -4.8100284078626305e-04 +0.0000000000000000e+00 +9.9999988431812681e-01
8.5999999999999854e+00 +8.1509073819790334e+00 +0.0000000000000000e+00 +8.5999996605368203e+00 -4.8666196910171006e-04 +0.0000000000000000e+00 +9.9999988158005682e-01
8.6999999999999851e+00 +8.1508584328254425e+00 +0.0000000000000000e+00 +8.6999996485565880e+00 -4.9232110375726915e-04 +0.0000000000000000e+00 +9.9999987880995800e-01
8.7999999999999847e+00 +8.1508089177580718e+00 +0.0000000000000000e+00 +8.7999996362977448e+00 -4.9798024472210746e-04 +0.0000000000000000e+00 +9.9999987600783014e-01
8.8999999999999844e+00 +8.1507588367762889e+00 +0.0000000000000000e+00 +8.8999996237570862e+00 -5.0363939197463532e-04 +0.0000000000000000e+00 +9.9999987317367323e-01
8.9999999999999840e+00 +8.1507081898794667e+00 +0.0000000000000000e+00 +8.9999996109314111e+00 -5.0929854550250714e-04 +0.0000000000000000e+00 +9.9999987030748716e-01
9.0999999999999837e+00 +8.1506569770669781e+00 +0.0000000000000000e+00 +9.0999995978175168e+00 -5.1495770530262188e-04 +0.0000000000000000e+00 +9.9999986740927183e-01
9.1999999999999833e+00 +8.1506051983381962e+00 +0.0000000000000000e+00 +9.1999995844121987e+00 -5.2061687138112384e-04 +0.0000000000000000e+00 +9.9999986447902722e-01
9.2999999999999829e+00 +8.1505528536924921e+00 +0.0000000000000000e+00 +9.2999995707122540e+00 -5.2627604375340314e-04 +0.0000000000000000e+00 +9.9999986151675313e-01
9.3999999999999826e+00 +8.1504999431292351e+00 +0.0000000000000000e+00 +9.3999995567144818e+00 -5.3193522244409665e-04 +0.0000000000000000e+00 +9.9999985852244944e-01
9.4999999999999822e+00 +8.1504464666477912e+00 +0.0000000000000000e+00 +9.4999995424156776e+00 -5.3759440748708852e-04 +0.0000000000000000e+00 +9.9999985549611592e-01
9.5999999999999819e+00 +8.1503924242475243e+00 +0.0000000000000000e+00 +9.5999995278126384e+00 -5.4325359892551123e-04 +0.0000000000000000e+00 +9.9999985243775258e-01
9.6999999999999815e+00 +8.1503378159277915e+00 +0.0000000000000000e+00 +9.6999995129021617e+00 -5.4891279681174585e-04 +0.0000000000000000e+00 +9.9999984934735919e-01
9.7999999999999812e+00 +8.1502826416879444e+00 +0.0000000000000000e+00 +9.7999994976810427e+00 -5.5457200120742319e-04 +0.0000000000000000e+00 +9.9999984622493576e-01
9.8999999999999808e+00 +8.1502269015273292e+00 +0.0000000000000000e+00 +9.8999994821460806e+00 -5.6023121218342438e-04 +0.0000000000000000e+00 +9.9999984307048195e-01
9.9999999999999805e+00 +8.1501705954452852e+00 +0.0000000000000000e+00 +9.9999994662940708e+00 -5.6589042981988193e-04 +0.0000000000000000e+00 +9.9999983988399777e-01
1.0099999999999980e+01 +8.1501137234411409e+00 +0.0000000000000000e+00 +1.0099999450121812e+01 -5.7154965420554041e-04 +0.0000000000000000e+00 +9.9999983666548287e-01
1.0199999999999980e+01 +8.1500562855142160e+00 +0.0000000000000000e+00 +1.0199999433626100e+01 -5.7720888543071817e-04 +0.0000000000000000e+00 +9.9999983341493726e-01
1.0299999999999979e+01 +8.1499982816638230e+00 +0.0000000000000000e+00 +1.0299999416803733e+01 -5.8286812358026815e-04 +0.0000000000000000e+00 +9.9999983013236071e-01
1.0399999999999979e+01 +8.1499397118892656e+00 +0.0000000000000000e+00 +1.0399999399651506e+01 -5.8852736873293702e-04 +0.0000000000000000e+00 +9.9999982681775301e-01
1.0499999999999979e+01 +8.1498805761898403e+00 +0.0000000000000000e+00 +1.0499999382166216e+01 -5.9418662096136427e-04 +0.0000000000000000e+00 +9.9999982347111405e-01
1.0599999999999978e+01 +8.1498208745648348e+00 +0.0000000000000000e+00 +1.0599999364344662e+01 -5.9984588033208143e-04 +0.0000000000000000e+00 +9.9999982009244359e-01
1.0699999999999978e+01 +8.1497606070135333e+00 +0.0000000000000000e+00 +1.0699999346183638e+01 -6.0550514690551097e-04 +0.0000000000000000e+00 +9.9999981668174154e-01
1.0799999999999978e+01 +8.1496997735352128e+00 +0.0000000000000000e+00 +1.0799999327679943e+01 -6.1116442073596536e-04 +0.0000000000000000e+00 +9.9999981323900777e-01
1.0899999999999977e+01 +8.1496383741291432e+00 +0.0000000000000000e+00 +1.0899999308830372e+01 -6.1682370187164616e-04 +0.0000000000000000e+00 +9.9999980976424208e-01
1.0999999999999977e+01 +8.1495764087945926e+00 +0.0000000000000000e+00 +1.0999999289631724e+01 -6.2248299035464296e-04 +0.0000000000000000e+00 +9.9999980625744433e-01
1.1099999999999977e+01 +8.1495138775308256e+00 +0.0000000000000000e+00 +1.1099999270080794e+01 -6.2814228622093253e-04 +0.0000000000000000e+00 +9.9999980271861444e-01
1.1199999999999976e+01 +8.1494507803371015e+00 +0.0000000000000000e+00 +1.1199999250174379e+01 -6.3380158950037736e-04 +0.0000000000000000e+00 +9.9999979914775217e-01
1.1299999999999976e+01 +8.1493871172126777e+00 +0.0000000000000000e+00 +1.1299999229909277e+01 -6.3946090021672485e-04 +0.0000000000000000e+00 +9.9999979554485741e-01
1.1399999999999975e+01 +8.1493228881568101e+00 +0.0000000000000000e+00 +1.1399999209282283e+01 -6.4512021838760629e-04 +0.0000000000000000e+00 +9.9999979190993005e-01
1.1499999999999975e+01 +8.1492580931687524e+00 +0.0000000000000000e+00 +1.1499999188290195e+01 -6.5077954402453558e-04 +0.0000000000000000e+00 +9.9999978824296987e-01
1.1599999999999975e+01 +8.1491927322477569e+00 +0.0000000000000000e+00 +1.1599999166929809e+01 -6.5643887713290805e-04 +0.0000000000000000e+00 +9.9999978454397687e-01
1.1699999999999974e+01 +8.1491268053930774e+00 +0.0000000000000000e+00 +1.1699999145197923e+01 -6.6209821771199932e-04 +0.0000000000000000e+00 +9.9999978081295082e-01
1.1799999999999974e+01 +8.1490603126039662e+00 +0.0000000000000000e+00 +1.1799999123091332e+01 -6.6775756575496409e-04 +0.0000000000000000e+00 +9.9999977704989162e-01
