# trajectory
# s[mm] rx[mm] ry[mm] rz[mm] px[rad] py[rad] pz[rad]
0.0000000000000000e+00 +7.9199999999999999e+00 +0.0000000000000000e+00 +0.0000000000000000e+00 +0.0000000000000000e+00 +0.0000000000000000e+00 +1.0000000000000000e+00
1.0000000000000001e-01 +7.9199997166238711e+00 +0.0000000000000000e+00 +9.9999999999464670e-02 -5.6675216823473411e-06 +0.0000000000000000e+00 +9.9999999998393962e-01
2.0000000000000001e-01 +7.9199988664958401e+00 +0.0000000000000000e+00 +1.9999999999571724e-01 -1.1335038067711685e-05 +0.0000000000000000e+00 +9.9999999993575850e-01
3.0000000000000004e-01 +7.9199974496164280e+00 +0.0000000000000000e+00 +2.9999999998554566e-01 -1.7002549332599263e-05 +0.0000000000000000e+00 +9.9999999985545673e-01
4.0000000000000002e-01 +7.9199954659861387e+00 +0.0000000000000000e+00 +3.9999999996573787e-01 -2.2670055632585366e-05 +0.0000000000000000e+00 +9.9999999974303433e-01
5.0000000000000000e-01 +7.9199929156054623e+00 +0.0000000000000000e+00 +4.9999999993308186e-01 -2.8337557102314309e-05 +0.0000000000000000e+00 +9.9999999959849151e-01
5.9999999999999998e-01 +7.9199897984748757e+00 +0.0000000000000000e+00 +5.9999999988436548e-01 -3.4005053855499444e-05 +0.0000000000000000e+00 +9.9999999942182827e-01
6.9999999999999996e-01 +7.9199861145948454e+00 +0.0000000000000000e+00 +6.9999999981637684e-01 -3.9672545984923101e-05 +0.0000000000000000e+00 +9.9999999921304461e-01
7.9999999999999993e-01 +7.9199818639658304e+00 +0.0000000000000000e+00 +7.9999999972590374e-01 -4.5340033562436599e-05 +0.0000000000000000e+00 +9.9999999897214076e-01
8.9999999999999991e-01 +7.9199770465882828e+00 +0.0000000000000000e+00 +8.9999999960973431e-01 -5.1007516638960171e-05 +0.0000000000000000e+00 +9.9999999869911671e-01
9.9999999999999989e-01 +7.9199716624626513e+00 +0.0000000000000000e+00 +9.9999999946465645e-01 -5.6674995244482943e-05 +0.0000000000000000e+00 +9.9999999839397258e-01
1.0999999999999999e+00 +7.9199657115893825e+00 +0.0000000000000000e+00 +1.0999999992874581e+00 -6.2342469388062876e-05 +0.0000000000000000e+00 +9.9999999805670836e-01
1.2000000000000000e+00 +7.9199591939689231e+00 +0.0000000000000000e+00 +1.1999999990749273e+00 -6.8009939057826689e-05 +0.0000000000000000e+00 +9.9999999768732417e-01
1.3000000000000000e+00 +7.9199521096017218e+00 +0.0000000000000000e+00 +1.2999999988238522e+00 -7.3677404220969826e-05 +0.0000000000000000e+00 +9.9999999728582012e-01
1.4000000000000001e+00 +7.9199444584882315e+00 +0.0000000000000000e+00 +1.3999999985310208e+00 -7.9344864823756355e-05 +0.0000000000000000e+00 +9.9999999685219632e-01
1.5000000000000002e+00 +7.9199362406289113e+00 +0.0000000000000000e+00 +1.4999999981932208e+00 -8.5012320791518910e-05 +0.0000000000000000e+00 +9.9999999638645276e-01
1.6000000000000003e+00 +7.9199274560242303e+00 +0.0000000000000000e+00 +1.5999999978072406e+00 -9.0679772028658562e-05 +0.0000000000000000e+00 +9.9999999588858957e-01
1.7000000000000004e+00 +7.9199181046746672e+00 +0.0000000000000000e+00 +1.6999999973698681e+00 -9.6347218418644774e-05 +0.0000000000000000e+00 +9.9999999535860684e-01
1.8000000000000005e+00 +7.9199081865807130e+00 +0.0000000000000000e+00 +1.7999999968778913e+00 -1.0201465982401527e-04 +0.0000000000000000e+00 +9.9999999479650470e-01
1.9000000000000006e+00 +7.9198977017428742e+00 +0.0000000000000000e+00 +1.8999999963280982e+00 -1.0768209608637591e-04 +0.0000000000000000e+00 +9.9999999420228325e-01
2.0000000000000004e+00 +7.9198866501616738e+00 +0.0000000000000000e+00 +1.9999999957172772e+00 -1.1334952702640062e-04 +0.0000000000000000e+00 +9.9999999357594249e-01
2.1000000000000005e+00 +7.9198750318376536e+00 +0.0000000000000000e+00 +2.0999999950422161e+00 -1.1901695244546869e-04 +0.0000000000000000e+00 +9.9999999291748265e-01
2.2000000000000006e+00 +7.9198628467713759e+00 +0.0000000000000000e+00 +2.1999999942997031e+00 -1.2468437214367678e-04 +0.0000000000000000e+00 +9.9999999222690383e-01
2.3000000000000007e+00 +7.9198500949634223e+00 +0.0000000000000000e+00 +2.2999999934865261e+00 -1.3035178593785100e-04 +0.0000000000000000e+00 +9.9999999150420615e-01
2.4000000000000008e+00 +7.9198367764143907e+00 +0.0000000000000000e+00 +2.3999999925994735e+00 -1.3601919366318434e-04 +0.0000000000000000e+00 +9.9999999074938972e-01
2.5000000000000009e+00 +7.9198228911248965e+00 +0.0000000000000000e+00 +2.4999999916353333e+00 -1.4168659517323678e-04 +0.0000000000000000e+00 +9.9999998996245465e-01
2.6000000000000010e+00 +7.9198084390955676e+00 +0.0000000000000000e+00 +2.5999999905908937e+00 -1.4735399033993522e-04 +0.0000000000000000e+00 +9.9999998914340105e-01
2.7000000000000011e+00 +7.9197934203270437e+00 +0.0000000000000000e+00 +2.6999999894629427e+00 -1.5302137905357362e-04 +0.0000000000000000e+00 +9.9999998829222903e-01
2.8000000000000012e+00 +7.9197778348199748e+00 +0.0000000000000000e+00 +2.7999999882482687e+00 -1.5868876122281298e-04 +0.0000000000000000e+00 +9.9999998740893881e-01
2.9000000000000012e+00 +7.9197616825750199e+00 +0.0000000000000000e+00 +2.8999999869436599e+00 -1.6435613677468150e-04 +0.0000000000000000e+00 +9.9999998649353039e-01
3.0000000000000013e+00 +7.9197449635928425e+00 +0.0000000000000000e+00 +2.9999999855459043e+00 -1.7002350565457455e-04 +0.0000000000000000e+00 +9.9999998554600400e-01
3.1000000000000014e+00 +7.9197276778741124e+00 +0.0000000000000000e+00 +3.0999999840517902e+00 -1.7569086782625481e-04 +0.0000000000000000e+00 +9.9999998456635975e-01
3.2000000000000015e+00 +7.9197098254195017e+00 +0.0000000000000000e+00 +3.1999999824581056e+00 -1.8135822327185232e-04 +0.0000000000000000e+00 +9.9999998355459763e-01
3.3000000000000016e+00 +7.9196914062296822e+00 +0.0000000000000000e+00 +3.2999999807616391e+00 -1.8702557199186469e-04 +0.0000000000000000e+00 +9.9999998251071787e-01
3.4000000000000017e+00 +7.9196724203053268e+00 +0.0000000000000000e+00 +3.3999999789591788e+00 -1.9269291400515710e-04 +0.0000000000000000e+00 +9.9999998143472058e-01
3.5000000000000018e+00 +7.9196528676471036e+00 +0.0000000000000000e+00 +3.4999999770475130e+00 -1.9836024934896250e-04 +0.0000000000000000e+00 +9.9999998032660586e-01
3.6000000000000019e+00 +7.9196327482556770e+00 +0.0000000000000000e+00 +3.5999999750234295e+00 -2.0402757807888168e-04 +0.0000000000000000e+00 +9.9999997918637384e-01
3.7000000000000020e+00 +7.9196120621317059e+00 +0.0000000000000000e+00 +3.6999999728837172e+00 -2.0969490026888349e-04 +0.0000000000000000e+00 +9.9999997801402452e-01
3.8000000000000020e+00 +7.9195908092758387e+00 +0.0000000000000000e+00 +3.7999999706251639e+00 -2.1536221601130496e-04 +0.0000000000000000e+00 +9.9999997680955810e-01
3.9000000000000021e+00 +7.9195689896887149e+00 +0.0000000000000000e+00 +3.8999999682445581e+00 -2.2102952541685141e-04 +0.0000000000000000e+00 +9.9999997557297460e-01
4.0000000000000018e+00 +7.9195466033709625e+00 +0.0000000000000000e+00 +3.9999999657386880e+00 -2.2669682861459672e-04 +0.0000000000000000e+00 +9.9999997430427412e-01
4.1000000000000014e+00 +7.9195236503231943e+00 +0.0000000000000000e+00 +4.0999999631043424e+00 -2.3236412575143106e-04 +0.0000000000000000e+00 +9.9999997300345667e-01
4.2000000000000011e+00 +7.9195001305460089e+00 +0.0000000000000000e+00 +4.1999999603383094e+00 -2.3803141698598411e-04 +0.0000000000000000e+00 +9.9999997167052235e-01
4.3000000000000007e+00 +7.9194760440399881e+00 +0.0000000000000000e+00 +4.2999999574373771e+00 -2.4369870248254849e-04 +0.0000000000000000e+00 +9.9999997030547128e-01
4.4000000000000004e+00 +7.9194513908056976e+00 +0.0000000000000000e+00 +4.3999999543983330e+00 -2.4936598241052742e-04 +0.0000000000000000e+00 +9.9999996890830345e-01
4.5000000000000000e+00 +7.9194261708436855e+00 +0.0000000000000000e+00 +4.4999999512179665e+00 -2.5503325694443502e-04 +0.0000000000000000e+00 +9.9999996747901887e-01
4.5999999999999996e+00 +7.9194003841544820e+00 +0.0000000000000000e+00 +4.5999999478930658e+00 -2.6070052626389639e-04 +0.0000000000000000e+00 +9.9999996601761765e-01
4.6999999999999993e+00 +7.9193740307385996e+00 +0.0000000000000000e+00 +4.6999999444204192e+00 -2.6636779055364793e-04 +0.0000000000000000e+00 +9.9999996452409989e-01
4.7999999999999989e+00 +7.9193471105965321e+00 +0.0000000000000000e+00 +4.7999999407968152e+00 -2.7203505000353750e-04 +0.0000000000000000e+00 +9.9999996299846550e-01
4.8999999999999986e+00 +7.9193196237287538e+00 +0.0000000000000000e+00 +4.8999999370190421e+00 -2.7770230480852478e-04 +0.0000000000000000e+00 +9.9999996144071457e-01
4.9999999999999982e+00 +7.9192915701357185e+00 +0.0000000000000000e+00 +4.9999999330838882e+00 -2.8336955516868132e-04 +0.0000000000000000e+00 +9.9999995985084711e-01
5.0999999999999979e+00 +7.9192629498178615e+00 +0.0000000000000000e+00 +5.0999999289881410e+00 -2.8903680128919103e-04 +0.0000000000000000e+00 +9.9999995822886323e-01
5.1999999999999975e+00 +7.9192337627755958e+00 +0.0000000000000000e+00 +5.1999999247285897e+00 -2.9470404338035016e-04 +0.0000000000000000e+00 +9.9999995657476282e-01
5.2999999999999972e+00 +7.9192040090093130e+00 +0.0000000000000000e+00 +5.2999999203020227e+00 -3.0037128165756783e-04 +0.0000000000000000e+00 +9.9999995488854587e-01
5.3999999999999968e+00 +7.9191736885193844e+00 +0.0000000000000000e+00 +5.3999999157052283e+00 -3.0603851634136616e-04 +0.0000000000000000e+00 +9.9999995317021251e-01
5.4999999999999964e+00 +7.9191428013061573e+00 +0.0000000000000000e+00 +5.4999999109349949e+00 -3.1170574765738063e-04 +0.0000000000000000e+00 +9.9999995141976261e-01
5.5999999999999961e+00 +7.9191113473699577e+00 +0.0000000000000000e+00 +5.5999999059881107e+00 -3.1737297583636030e-04 +0.0000000000000000e+00 +9.9999994963719618e-01
5.6999999999999957e+00 +7.9190793267110866e+00 +0.0000000000000000e+00 +5.6999999008613642e+00 -3.2304020111416815e-04 +0.0000000000000000e+00 +9.9999994782251322e-01
5.7999999999999954e+00 +7.9190467393298229e+00 +0.0000000000000000e+00 +5.7999998955515428e+00 -3.2870742373178151e-04 +0.0000000000000000e+00 +9.9999994597571373e-01
5.8999999999999950e+00 +7.9190135852264207e+00 +0.0000000000000000e+00 +5.8999998900554358e+00 -3.3437464393529215e-04 +0.0000000000000000e+00 +9.9999994409679760e-01
5.9999999999999947e+00 +7.9189798644011082e+00 +0.0000000000000000e+00 +5.9999998843698314e+00 -3.4004186197590680e-04 +0.0000000000000000e+00 +9.9999994218576482e-01
6.0999999999999943e+00 +7.9189455768540888e+00 +0.0000000000000000e+00 +6.0999998784915181e+00 -3.4570907810876428e-04 +0.0000000000000000e+00 +9.9999994024261529e-01
6.1999999999999940e+00 +7.9189107225855420e+00 +0.0000000000000000e+00 +6.1999998724172842e+00 -3.5137629257992196e-04 +0.0000000000000000e+00 +9.9999993826734901e-01
6.2999999999999936e+00 +7.9188753015956213e+00 +0.0000000000000000e+00 +6.2999998661439180e+00 -3.5704350561334154e-04 +0.0000000000000000e+00 +9.9999993625996597e-01
6.3999999999999932e+00 +7.9188393138844608e+00 +0.0000000000000000e+00 +6.3999998596682071e+00 -3.6271071740970573e-04 +0.0000000000000000e+00 +9.9999993422046607e-01
6.4999999999999929e+00 +7.9188027594521753e+00 +0.0000000000000000e+00 +6.4999998529869405e+00 -3.6837792814641815e-04 +0.0000000000000000e+00 +9.9999993214884919e-01
6.5999999999999925e+00 +7.9187656382988623e+00 +0.0000000000000000e+00 +6.5999998460969067e+00 -3.7404513797760296e-04 +0.0000000000000000e+00 +9.9999993004511545e-01
6.6999999999999922e+00 +7.9187279504246053e+00 +0.0000000000000000e+00 +6.6999998389948932e+00 -3.7971234703410462e-04 +0.0000000000000000e+00 +9.9999992790926462e-01
6.7999999999999918e+00 +7.9186896958294772e+00 +0.0000000000000000e+00 +6.7999998316776891e+00 -3.8537955542348768e-04 +0.0000000000000000e+00 +9.9999992574129681e-01
6.8999999999999915e+00 +7.9186508745135402e+00 +0.0000000000000000e+00 +6.8999998241420819e+00 -3.9104676323003634e-04 +0.0000000000000000e+00 +9.9999992354121203e-01
6.9999999999999911e+00 +7.9186114864768484e+00 +0.0000000000000000e+00 +6.9999998163848609e+00 -3.9671397051475415e-04 +0.0000000000000000e+00 +9.9999992130901016e-01
7.0999999999999908e+00 +7.9185715317194534e+00 +0.0000000000000000e+00 +7.0999998084028135e+00 -4.0238117731536388e-04 +0.0000000000000000e+00 +9.9999991904469121e-01
7.1999999999999904e+00 +7.9185310102414013e+00 +0.0000000000000000e+00 +7.1999998001927281e+00 -4.0804838364630694e-04 +0.0000000000000000e+00 +9.9999991674825528e-01
7.2999999999999901e+00 +7.9184899220427400e+00 +0.0000000000000000e+00 +7.2999997917513939e+00 -4.1371558949874311e-04 +0.0000000000000000e+00 +9.9999991441970226e-01
7.3999999999999897e+00 +7.9184482671235186e+00 +0.0000000000000000e+00 +7.3999997830755984e+00 -4.1938279484055014e-04 +0.0000000000000000e+00 +9.9999991205903227e-01
7.4999999999999893e+00 +7.9184060454837910e+00 +0.0000000000000000e+00 +7.4999997741621298e+00 -4.2504999961632346e-04 +0.0000000000000000e+00 +9.9999990966624530e-01
7.5999999999999890e+00 +7.9183632571236169e+00 +0.0000000000000000e+00 +7.5999997650077766e+00 -4.3071720374737569e-04 +0.0000000000000000e+00 +9.9999990724134136e-01
7.6999999999999886e+00 +7.9183199020430663e+00 +0.0000000000000000e+00 +7.6999997556093271e+00 -4.3638440713173620e-04 +0.0000000000000000e+00 +9.9999990478432055e-01
7.7999999999999883e+00 +7.9182759802422193e+00 +0.0000000000000000e+00 +7.7999997459635697e+00 -4.4205160964415070e-04 +0.0000000000000000e+00 +9.9999990229518287e-01
7.8999999999999879e+00 +7.9182314917211709e+00 +0.0000000000000000e+00 +7.8999997360672927e+00 -4.4771881113608088e-04 +0.0000000000000000e+00 +9.9999989977392845e-01
7.9999999999999876e+00 +7.9181864364800312e+00 +0.0000000000000000e+00 +7.9999997259172844e+00 -4.5338601143570380e-04 +0.0000000000000000e+00 +9.9999989722055738e-01
8.0999999999999872e+00 +7.9181408145189298e+00 +0.0000000000000000e+00 +8.0999997155103340e+00 -4.5905321034985885e-04 +0.0000000000000000e+00 +9.9999989463506977e-01
8.1999999999999869e+00 +7.9180946258380143e+00 +0.0000000000000000e+00 +8.1999997048432292e+00 -4.6472040768546726e-04 +0.0000000000000000e+00 +9.9999989201746575e-01
8.2999999999999865e+00 +7.9180478704374515e+00 +0.0000000000000000e+00 +8.2999996939127580e+00 -4.7038760327095235e-04 +0.0000000000000000e+00 +9.9999988936774542e-01
8.3999999999999861e+00 +7.9180005483174236e+00 +0.0000000000000000e+00 +8.3999996827157091e+00 -4.7605479695818646e-04 +0.0000000000000000e+00 +9.9999988668590889e-01
8.4999999999999858e+00 +7.9179526594781269e+00 +0.0000000000000000e+00 +8.4999996712488706e+00 -4.8172198862249101e-04 +0.0000000000000000e+00 +9.9999988397195627e-01
8.5999999999999854e+00 +7.9179042039197691e+00 +0.0000000000000000e+00 +8.5999996595090309e+00 -4.8738917816263636e-04 +0.0000000000000000e+00 +9.9999988122588757e-01
8.6999999999999851e+00 +7.9178551816425671e+00 +0.0000000000000000e+00 +8.6999996474929784e+00 -4.9305636550084158e-04 +0.0000000000000000e+00 +9.9999987844770299e-01
8.7999999999999847e+00 +7.9178055926467437e+00 +0.0000000000000000e+00 +8.7999996351975014e+00 -4.9872355058277432e-04 +0.0000000000000000e+00 +9.9999987563740245e-01
8.8999999999999844e+00 +7.9177554369325263e+00 +0.0000000000000000e+00 +8.8999996226193883e+00 -5.0439073337755081e-04 +0.0000000000000000e+00 +9.9999987279498603e-01
8.9999999999999840e+00 +7.9177047145001440e+00 +0.0000000000000000e+00 +8.9999996097554273e+00 -5.1005791387773560e-04 +0.0000000000000000e+00 +9.9999986992045387e-01
9.0999999999999837e+00 +7.9176534253498261e+00 +0.0000000000000000e+00 +9.0999995966024088e+00 -5.1572509209934136e-04 +0.0000000000000000e+00 +9.9999986701380594e-01
9.1999999999999833e+00 +7.9176015694817989e+00 +0.0000000000000000e+00 +9.1999995831571191e+00 -5.2139226808182884e-04 +0.0000000000000000e+00 +9.9999986407504227e-01
9.2999999999999829e+00 +7.9175491468962829e+00 +0.0000000000000000e+00 +9.2999995694163466e+00 -5.2705944188810670e-04 +0.0000000000000000e+00 +9.9999986110416283e-01
9.3999999999999826e+00 +7.9174961575934910e+00 +0.0000000000000000e+00 +9.3999995553768816e+00 -5.3272661360453141e-04 +0.0000000000000000e+00 +9.9999985810116765e-01
9.4999999999999822e+00 +7.9174426015736277e+00 +0.0000000000000000e+00 +9.4999995410355105e+00 -5.3839378334090697e-04 +0.0000000000000000e+00 +9.9999985506605671e-01
9.5999999999999819e+00 +7.9173884788368847e+00 +0.0000000000000000e+00 +9.5999995263890217e+00 -5.4406095123048475e-04 +0.0000000000000000e+00 +9.9999985199882990e-01
9.6999999999999815e+00 +7.9173337893834379e+00 +0.0000000000000000e+00 +9.6999995114342052e+00 -5.4972811742996352e-04 +0.0000000000000000e+00 +9.9999984889948723e-01
9.7999999999999812e+00 +7.9172785332134490e+00 +0.0000000000000000e+00 +9.7999994961678478e+00 -5.5539528211948899e-04 +0.0000000000000000e+00 +9.9999984576802858e-01
9.8999999999999808e+00 +7.9172227103270583e+00 +0.0000000000000000e+00 +9.8999994805867395e+00 -5.6106244550265406e-04 +0.0000000000000000e+00 +9.9999984260445396e-01
9.9999999999999805e+00 +7.9171663207243848e+00 +0.0000000000000000e+00 +9.9999994646876686e+00 -5.6672960780649814e-04 +0.0000000000000000e+00 +9.9999983940876314e-01
1.0099999999999980e+01 +7.9171093644055244e+00 +0.0000000000000000e+00 +1.0099999448467422e+01 -5.7239676928014054e-04 +0.0000000000000000e+00 +9.9999983618095600e-01
1.0199999999999980e+01 +7.9170518413705473e+00 +0.0000000000000000e+00 +1.0199999431922789e+01 -5.7806393017974581e-04 +0.0000000000000000e+00 +9.9999983292103256e-01
1.0299999999999979e+01 +7.9169937516194988e+00 +0.0000000000000000e+00 +1.0299999415050557e+01 -5.8373109075348880e-04 +0.0000000000000000e+00 +9.9999982962899259e-01
1.0399999999999979e+01 +7.9169350951523993e+00 +0.0000000000000000e+00 +1.0399999397847516e+01 -5.8939825124018847e-04 +0.0000000000000000e+00 +9.9999982630483586e-01
1.0499999999999979e+01 +7.9168758719692462e+00 +0.0000000000000000e+00 +1.0499999380310454e+01 -5.9506541186930806e-04 +0.0000000000000000e+00 +9.9999982294856238e-01
1.0599999999999978e+01 +7.9168160820700137e+00 +0.0000000000000000e+00 +1.0599999362436158e+01 -6.0073257286095538e-04 +0.0000000000000000e+00 +9.9999981956017192e-01
1.0699999999999978e+01 +7.9167557254546548e+00 +0.0000000000000000e+00 +1.0699999344221418e+01 -6.0639973442588337e-04 +0.0000000000000000e+00 +9.9999981613966438e-01
1.0799999999999978e+01 +7.9166948021231027e+00 +0.0000000000000000e+00 +1.0799999325663020e+01 -6.1206689676549029e-04 +0.0000000000000000e+00 +9.9999981268703964e-01
1.0899999999999977e+01 +7.9166333120752697e+00 +0.0000000000000000e+00 +1.0899999306757755e+01 -6.1773406007182012e-04 +0.0000000000000000e+00 +9.9999980920229758e-01
1.0999999999999977e+01 +7.9165712553110499e+00 +0.0000000000000000e+00 +1.0999999287502408e+01 -6.2340122452756298e-04 +0.0000000000000000e+00 +9.9999980568543800e-01
1.1099999999999977e+01 +7.9165086318303199e+00 +0.0000000000000000e+00 +1.1099999267893772e+01 -6.2906839030605558e-04 +0.0000000000000000e+00 +9.9999980213646089e-01
1.1199999999999976e+01 +7.9164454416329395e+00 +0.0000000000000000e+00 +1.1199999247928631e+01 -6.3473555757128134e-04 +0.0000000000000000e+00 +9.9999979855536603e-01
1.1299999999999976e+01 +7.9163816847187514e+00 +0.0000000000000000e+00 +1.1299999227603774e+01 -6.4040272647787123e-04 +0.0000000000000000e+00 +9.9999979494215330e-01
1.1399999999999975e+01 +7.9163173610875841e+00 +0.0000000000000000e+00 +1.1399999206915989e+01 -6.4606989717110378e-04 +0.0000000000000000e+00 +9.9999979129682259e-01
1.1499999999999975e+01 +7.9162524707392530e+00 +0.0000000000000000e+00 +1.1499999185862066e+01 -6.5173706978690585e-04 +0.0000000000000000e+00 +9.9999978761937380e-01
1.1599999999999975e+01 +7.9161870136735590e+00 +0.0000000000000000e+00 +1.1599999164438792e+01 -6.5740424445185274e-04 +0.0000000000000000e+00 +9.9999978390980682e-01
1.1699999999999974e+01 +7.9161209898902909e+00 +0.0000000000000000e+00 +1.1699999142642955e+01 -6.6307142128316883e-04 +0.0000000000000000e+00 +9.9999978016812141e-01
1.1799999999999974e+01 +7.9160543993892265e+00 +0.0000000000000000e+00 +1.1799999120471345e+01 -6.6873860038872809e-04 +0.0000000000000000e+00 +9.9999977639431759e-01
