# multipoles
# s[mm] polynom_b[n=0][T/m^n] polynom_b[n=1][T/m^n] polynom_b[n=2][T/m^n] polynom_b[n=3][T/m^n] polynom_b[n=4][T/m^n] polynom_b[n=5][T/m^n] polynom_b[n=6][T/m^n] 
-0.0000000000000000e+00 -5.6477516237019532e-01 +7.7365787875260965e+00 +2.5921189748949136e-01 +3.3813484025138827e+01 -7.4608876420921697e+03 -2.6963481652651326e+05 +2.7901663979641464e+07 
-1.0000000000000001e-01 -5.6477522018173454e-01 +7.7365628077656909e+00 +2.6015668249745588e-01 +3.4133642913216057e+01 -7.4750336312389109e+03 -2.7124724191991572e+05 +2.7918153863154314e+07 
-2.0000000000000001e-01 -5.6477528352955564e-01 +7.7365449083327178e+00 +2.6172038755998417e-01 +3.4492960013510348e+01 -7.5015890673161684e+03 -2.7299760673497355e+05 +2.7988150199209720e+07 
-2.9999999999999999e-01 -5.6477535188713712e-01 +7.7365253109663614e+00 +2.6382443144316492e-01 +3.4886303098040699e+01 -7.5391728723284195e+03 -2.7486213865026785e+05 +2.8106126071711298e+07 
-4.0000000000000002e-01 -5.6477542472806075e-01 +7.7365042373913875e+00 +2.6639023343568663e-01 +3.5308540391667350e+01 -7.5864039815341448e+03 -2.7681706803027308e+05 +2.8266554633668985e+07 
-5.0000000000000000e-01 -5.6477550152583234e-01 +7.7364819093404664e+00 +2.6933921386011023e-01 +3.5754539911044922e+01 -7.6419013505270104e+03 -2.7883862406321469e+05 +2.8463909133263890e+07 
-5.9999999999999998e-01 -5.6477558175398901e-01 +7.7364585485398170e+00 +2.7259279132323527e-01 +3.6219169869145162e+01 -7.7042839126527042e+03 -2.8090303708749608e+05 +2.8692662736780174e+07 
-6.9999999999999996e-01 -5.6477566488603015e-01 +7.7364343767208830e+00 +2.7607238564593611e-01 +3.6697298361406418e+01 -7.7721706194662120e+03 -2.8298653685424943e+05 +2.8947288682212967e+07 
-8.0000000000000004e-01 -5.6477575039545758e-01 +7.7364096156140088e+00 +2.7969941403882020e-01 +3.7183793512886623e+01 -7.8441803752744599e+03 -2.8506535329861264e+05 +2.9222259984861780e+07 
-9.0000000000000002e-01 -5.6477583775582108e-01 +7.7363844869508247e+00 +2.8339529974519301e-01 +3.7673523413885952e+01 -7.9189322007616547e+03 -2.8711571617602225e+05 +2.9512050215172905e+07 
-1.0000000000000000e+00 -5.6477592644063013e-01 +7.7363592124665912e+00 +2.8708146132781920e-01 +3.8161356072445628e+01 -7.9950450296501604e+03 -2.8911385488621262e+05 +2.9811132532604408e+07 
-1.1000000000000001e+00 -5.6477601592348492e-01 +7.7363340139003691e+00 +2.9067932100880056e-01 +3.8642159367938255e+01 -8.0711378612682965e+03 -2.9103599807289400e+05 +3.0113980394702278e+07 
-1.2000000000000000e+00 -5.6477610567784919e-01 +7.7363091129909893e+00 +2.9411030166491148e-01 +3.9110801196488168e+01 -8.1458297054253771e+03 -2.9285837458579568e+05 +3.0415067299993478e+07 
-1.3000000000000000e+00 -5.6477619517729305e-01 +7.7362847314905618e+00 +2.9729582540883975e-01 +3.9562149046021418e+01 -8.2177395577337356e+03 -2.9455721091320075e+05 +3.0708866677613989e+07 
-1.3999999999999999e+00 -5.6477628389541368e-01 +7.7362610911485952e+00 +3.0015731724583539e-01 +3.9991070484013967e+01 -8.2854864645324997e+03 -2.9610873412154266e+05 +3.0989852183840651e+07 
-1.5000000000000000e+00 -5.6477637130574920e-01 +7.7362384137265758e+00 +3.0261620183397342e-01 +4.0392432704816294e+01 -8.3476894614802986e+03 -2.9748916914509377e+05 +3.1252497408355281e+07 
-1.6000000000000001e+00 -5.6477645688189426e-01 +7.7362169209882286e+00 +3.0459390707812128e-01 +4.0761102823556570e+01 -8.4029676442395521e+03 -2.9867474054748379e+05 +3.1491276220389538e+07 
-1.7000000000000000e+00 -5.6477654009746103e-01 +7.7361968347087542e+00 +3.0601186209646691e-01 +4.1091947591852573e+01 -8.4499401211055847e+03 -2.9964167083283880e+05 +3.1700662517122399e+07 
-1.8000000000000000e+00 -5.6477662042608356e-01 +7.7361783766712380e+00 +3.0679149563460373e-01 +4.1379833517459268e+01 -8.4872259922233643e+03 -3.0036618120161281e+05 +3.1875130149923000e+07 
-1.8999999999999999e+00 -5.6477669734137614e-01 +7.7361617686673751e+00 +3.0685424009011680e-01 +4.1619626816998498e+01 -8.5134444198308665e+03 -3.0082449121284281e+05 +3.2009153244629830e+07 
-2.0000000000000000e+00 -5.6477677031703244e-01 +7.7361472325016463e+00 +3.0612153007950177e-01 +4.1806193307565422e+01 -8.5272145998348333e+03 -3.0099281821156398e+05 +3.2097206060158644e+07 
-2.1000000000000001e+00 -5.6477683900295250e-01 +7.7361349265449091e+00 +3.0453540128039408e-01 +4.1936030339304502e+01 -8.5275022481836368e+03 -3.0085632572286081e+05 +3.2135090139965288e+07 
-2.2000000000000002e+00 -5.6477690374998191e-01 +7.7361247530218762e+00 +3.0212054924975296e-01 +4.2012172922690219e+01 -8.5146690302514471e+03 -3.0043557365876163e+05 +3.2123976193956751e+07 
-2.2999999999999998e+00 -5.6477696508306374e-01 +7.7361165494932083e+00 +2.9892240765803868e-01 +4.2039294164895864e+01 -8.4894282074292423e+03 -2.9975987892601808e+05 +3.2066392517367564e+07 
-2.3999999999999999e+00 -5.6477702352720416e-01 +7.7361101535202232e+00 +2.9498641094996086e-01 +4.2022067144451690e+01 -8.4524930552439928e+03 -2.9885855821569543e+05 +3.1964867477149826e+07 
-2.5000000000000000e+00 -5.6477707960732226e-01 +7.7361054026672988e+00 +2.9035798950289854e-01 +4.1965164856639952e+01 -8.4045767683985414e+03 -2.9776092773691402e+05 +3.1821929050857082e+07 
-2.6000000000000001e+00 -5.6477713384834471e-01 +7.7361021344902587e+00 +2.8508257425203487e-01 +4.1873260555338710e+01 -8.3463925494717496e+03 -2.9649630518563965e+05 +3.1640105253810823e+07 
-2.7000000000000002e+00 -5.6477718677529343e-01 +7.7361001865538706e+00 +2.7920559389896288e-01 +4.1751027237899081e+01 -8.2786535554371167e+03 -2.9509400673852552e+05 +3.1421923883241005e+07 
-2.7999999999999998e+00 -5.6477723891302323e-01 +7.7360993964134908e+00 +2.7277247693230117e-01 +4.1603138176157955e+01 -8.2020729373716549e+03 -2.9358335010413022e+05 +3.1169912712297287e+07 
-2.8999999999999999e+00 -5.6477729078651306e-01 +7.7360996016258738e+00 +2.6582865019977697e-01 +4.1434266620332792e+01 -8.1173638150301285e+03 -2.9199365286138811e+05 +3.0886599373343669e+07 
-3.0000000000000000e+00 -5.6477734292062798e-01 +7.7361006397439631e+00 +2.5841953614386476e-01 +4.1249085933362601e+01 -8.0252392206875347e+03 -2.9035423316477996e+05 +3.0574511083279949e+07 
-3.1000000000000001e+00 -5.6477739584027176e-01 +7.7361023483157982e+00 +2.5059055794110657e-01 +4.1052269633295062e+01 -7.9264121929838075e+03 -2.8869441001695103e+05 +3.0236175079079505e+07 
-3.2000000000000002e+00 -5.6477745007033930e-01 +7.7361045648886444e+00 +2.4238713484454266e-01 +4.0848491278557695e+01 -7.8215957029660203e+03 -2.8704350260470691e+05 +2.9874118307831213e+07 
-3.2999999999999998e+00 -5.6477750613563515e-01 +7.7361071270023256e+00 +2.3385468452789768e-01 +4.0642424651837132e+01 -7.7115026821327492e+03 -2.8543083132814930e+05 +2.9490867514039524e+07 
-3.3999999999999999e+00 -5.6477756456106543e-01 +7.7361098721935209e+00 +2.2503861983497786e-01 +4.0438743645549387e+01 -7.5968459722184425e+03 -2.8388571715535998e+05 +2.9088949035492737e+07 
-3.5000000000000000e+00 -5.6477762587137526e-01 +7.7361126379948422e+00 +2.1598435425120516e-01 +4.0242122286858063e+01 -7.4783384220352973e+03 -2.8243748174775776e+05 +2.8670889243216265e+07 
-3.6000000000000001e+00 -5.6477769059139693e-01 +7.7361152619271865e+00 +2.0673729440866559e-01 +4.0057234959817357e+01 -7.3566927507312612e+03 -2.8111544874477171e+05 +2.8239213909280598e+07 
-3.7000000000000002e+00 -5.6477775924588036e-01 +7.7361175815112633e+00 +1.9734284703581292e-01 +3.9888756077634469e+01 -7.2326216739989086e+03 -2.7994894186265604e+05 +2.7796448788897425e+07 
-3.7999999999999998e+00 -5.6477783235954793e-01 +7.7361194342598241e+00 +1.8784641171076061e-01 +3.9741360296129450e+01 -7.1068377732571016e+03 -2.7896728609733062e+05 +2.7345119022091936e+07 
-3.8999999999999999e+00 -5.6477791045713865e-01 +7.7361206576740207e+00 +1.7829338977961726e-01 +3.9619722639934416e+01 -6.9800536582642080e+03 -2.7819980849190179e+05 +2.6887749885733888e+07 
-4.0000000000000000e+00 -5.6477799406334828e-01 +7.7361210892490240e+00 +1.6872917347023822e-01 +3.9528518326026088e+01 -6.8529817645053699e+03 -2.7767583705663664e+05 +2.6426865845691625e+07 
-4.0999999999999996e+00 -5.6477808366105564e-01 +7.7361206034895371e+00 +1.5919478223827838e-01 +3.9471377168510230e+01 -6.7262806599607848e+03 -2.7741708026865718e+05 +2.5964914624835733e+07 
-4.2000000000000002e+00 -5.6477817957858290e-01 +7.7361192224469262e+00 +1.4971449962629718e-01 +3.9447827836574142e+01 -6.6004009170025774e+03 -2.7741568170745135e+05 +2.5504009116821963e+07 
-4.2999999999999998e+00 -5.6477828210853398e-01 +7.7361170049570411e+00 +1.4030860325114683e-01 +3.9456392226922979e+01 -6.4757428886979887e+03 -2.7765660096601432e+05 +2.5046171972083330e+07 
-4.4000000000000004e+00 -5.6477839154364951e-01 +7.7361140098632957e+00 +1.3099737379970589e-01 +3.9495592029383182e+01 -6.3527069943723664e+03 -2.7812479650569451e+05 +2.4593426173450761e+07 
-4.5000000000000000e+00 -5.6477850817658515e-01 +7.7361102959967187e+00 +1.2180109169266833e-01 +3.9563949313429063e+01 -6.2316936546170200e+03 -2.7880522909571725e+05 +2.4147794723561265e+07 
-4.5999999999999996e+00 -5.6477863230001280e-01 +7.7361059221901378e+00 +1.1274003684381428e-01 +3.9659986112631678e+01 -6.1131032954296161e+03 -2.7968285939810792e+05 +2.3711300684998363e+07 
-4.7000000000000002e+00 -5.6477876420669693e-01 +7.7361009472762348e+00 +1.0383449657605595e-01 +3.9782224483054726e+01 -5.9973364890077937e+03 -2.8074264829986286e+05 +2.3285967827792604e+07 
-4.7999999999999998e+00 -5.6477890418932819e-01 +7.7360954300824538e+00 +9.5104756635268947e-02 +3.9929186655881871e+01 -5.8847937896368567e+03 -2.8196955783821997e+05 +2.2873819861453354e+07 
-4.9000000000000004e+00 -5.6477905254061933e-01 +7.7360894294353821e+00 +8.6571102248515566e-02 +4.0099394900872660e+01 -5.7758757544336395e+03 -2.8334855037194159e+05 +2.2476880538288526e+07 
-5.0000000000000000e+00 -5.6477920955334204e-01 +7.7360830041573028e+00 +7.8253826313574998e-02 +4.0291371631630639e+01 -5.6709830988296108e+03 -2.8486458921385428e+05 +2.2097174390536439e+07 
-5.0999999999999996e+00 -5.6477937552029400e-01 +7.7360762130710405e+00 +7.0173221523562535e-02 +4.0503639276724179e+01 -5.5705165442312618e+03 -2.8650263792174926e+05 +2.1736725997598972e+07 
-5.2000000000000002e+00 -5.6477955073422581e-01 +7.7360691149899994e+00 +6.2349582092772325e-02 +4.0734720551420772e+01 -5.4748768564158090e+03 -2.8824766183530499e+05 +2.1397560184604071e+07 
-5.2999999999999998e+00 -5.6477973548793836e-01 +7.7360617687338724e+00 +5.4803205639038260e-02 +4.0983138008511801e+01 -5.3844648799260658e+03 -2.9008462547441799e+05 +2.1081702179405548e+07 
-5.4000000000000004e+00 -5.6477993007428717e-01 +7.7360542331118163e+00 +4.7554393044202108e-02 +4.1247414537343623e+01 -5.2996815356913194e+03 -2.9199849549801665e+05 +2.0791177604486424e+07 
-5.5000000000000000e+00 -5.6478013478605471e-01 +7.7360465669340996e+00 +4.0623446969709626e-02 +4.1526073013136248e+01 -5.2209277911062754e+03 -2.9397423861224536e+05 +2.0528012326722447e+07 
-5.5999999999999996e+00 -5.6478034991619652e-01 +7.7360388290090372e+00 +3.4030674716288123e-02 +4.1817636395094574e+01 -5.1486047210735496e+03 -2.9599682218446297e+05 +2.0294232767249376e+07 
-5.7000000000000002e+00 -5.6478057575750862e-01 +7.7360310781344799e+00 +2.7796385261493899e-02 +4.2120627966537469e+01 -5.0831134482249117e+03 -2.9805121561641985e+05 +2.0091865605756253e+07 
-5.7999999999999998e+00 -5.6478081260295310e-01 +7.7360233731147190e+00 +2.1940890828047246e-02 +4.2433570852137379e+01 -5.0248551720450487e+03 -3.0012238756629673e+05 +1.9922937917200316e+07 
-5.9000000000000004e+00 -5.6478106074542334e-01 +7.7360157727460237e+00 +1.6484509529687955e-02 +4.2754988436986132e+01 -4.9742312205680637e+03 -3.0219530839040957e+05 +1.9789477420751195e+07 
-5.9999999999999902e+00 -5.6478132047795282e-01 +7.7360083358212925e+00 +1.1447560174433611e-02 +4.3083404234118092e+01 -4.9316429561213790e+03 -3.0425494941969012e+05 +1.9693512039919369e+07 
-6.0999999999999899e+00 -5.6478159200661671e-01 +7.7360011062178700e+00 +6.8425590200254134e-03 +4.3417603475203002e+01 -4.8973125655888034e+03 -3.0628950155650201e+05 +1.9636146735224590e+07 
-6.1999999999999904e+00 -5.6478187517459166e-01 +7.7359940746527256e+00 +2.6491386088264455e-03 +4.3757130092171685e+01 -4.8707091173090148e+03 -3.0829839571147721e+05 +1.9614691644962449e+07 
-6.2999999999999901e+00 -5.6478216973024253e-01 +7.7359872202059865e+00 -1.1617361157792818e-03 +4.4101645559568745e+01 -4.8511033482945804e+03 -3.1028349198348523e+05 +1.9625477410481960e+07 
-6.3999999999999897e+00 -5.6478247542194338e-01 +7.7359805219538904e+00 -4.6190964412466092e-03 +4.4450811360952898e+01 -4.8377660509641237e+03 -3.1224665028085851e+05 +1.9664834894827459e+07 
-6.4999999999999902e+00 -5.6478279199794912e-01 +7.7359739589825987e+00 -7.7519807442881514e-03 +4.4804288573003795e+01 -4.8299678767017203e+03 -3.1418972778082133e+05 +1.9729094267021202e+07 
-6.5999999999999899e+00 -5.6478311920664614e-01 +7.7359675103731416e+00 -1.0589425928130275e-02 +4.5161738323012095e+01 -4.8269794872154707e+03 -3.1611458163512329e+05 +1.9814585692814462e+07 
-6.6999999999999904e+00 -5.6478345679634512e-01 +7.7359611552088721e+00 -1.3160467351522809e-02 +4.5522821539031199e+01 -4.8280715644181646e+03 -3.1802306742769829e+05 +1.9917639402846362e+07 
-6.7999999999999901e+00 -5.6478380451532151e-01 +7.7359548725798319e+00 -1.5494148399551624e-02 +4.5887198846491536e+01 -4.8325146244169764e+03 -3.1991703864889365e+05 +2.0034584797062486e+07 
-6.8999999999999897e+00 -5.6478416211187066e-01 +7.7359486415701406e+00 -1.7619510247142700e-02 +4.6254530907876834e+01 -4.8395792098580714e+03 -3.2179834856741369e+05 +2.0161751354397371e+07 
-6.9999999999999902e+00 -5.6478452933430767e-01 +7.7359424412729414e+00 -1.9565595405505763e-02 +4.6624477989225845e+01 -4.8485358213567260e+03 -3.2366884773703956e+05 +2.0295468301253565e+07 
-7.0999999999999899e+00 -5.6478490593084085e-01 +7.7359362507796687e+00 -2.1361452243002569e-02 +4.6996700281725190e+01 -4.8586548381928678e+03 -3.2553038587429264e+05 +2.0432064254361812e+07 
-7.1999999999999904e+00 -5.6478529164974578e-01 +7.7359300491827190e+00 -2.3036124621470526e-02 +4.7370857796369677e+01 -4.8692067060334139e+03 -3.2738481117249164e+05 +2.0567868086930882e+07 
-7.2999999999999901e+00 -5.6478568623925807e-01 +7.7359238155831731e+00 -2.4618665175297132e-02 +4.7746610159066414e+01 -4.8794616871186527e+03 -3.2923396916624933e+05 +2.0699207746931896e+07 
-7.3999999999999897e+00 -5.6478608944755482e-01 +7.7359175290765343e+00 -2.6138123199663198e-02 +4.8123616996337475e+01 -4.8886900921713850e+03 -3.3107970488435013e+05 +2.0822411366486546e+07 
-7.4999999999999902e+00 -5.6478650102290928e-01 +7.7359111687668065e+00 -2.7623553817837904e-02 +4.8501537542552079e+01 -4.8961621008804868e+03 -3.3292386061691423e+05 +2.0933806391095225e+07 
-7.5999999999999899e+00 -5.6478692071342540e-01 +7.7359047137580923e+00 -2.9104012193809981e-02 +4.8880030868745408e+01 -4.9011478758233470e+03 -3.3476827719344606e+05 +2.1029720133345574e+07 
-7.6999999999999904e+00 -5.6478734826728250e-01 +7.7358981431580993e+00 -3.0608558266788773e-02 +4.9258755779084126e+01 -4.9029174700520498e+03 -3.3661479338306328e+05 +2.1106479326342780e+07 
-7.7999999999999901e+00 -5.6478778343268421e-01 +7.7358914360742466e+00 -3.2166249191109247e-02 +4.9637370914730177e+01 -4.9007409684178683e+03 -3.3846524646183668e+05 +2.1160410789804183e+07 
-7.8999999999999897e+00 -5.6478822595770339e-01 +7.7358845716221083e+00 -3.3806151371784998e-02 +5.0015534520699887e+01 -4.8938882615014181e+03 -3.4032147089897562e+05 +2.1187840359812610e+07 
-7.9999999999999902e+00 -5.6478867559049040e-01 +7.7358775289163226e+00 -3.5557328586147637e-02 +5.0392904665159428e+01 -4.8816292722384469e+03 -3.4218529950080218e+05 +2.1185093972800627e+07 
-8.0999999999999908e+00 -5.6478913200445724e-01 +7.7358703062238092e+00 -3.7445272408137414e-02 +5.0768585571598031e+01 -4.8633790006803210e+03 -3.4405464119047002e+05 +2.1149295380370196e+07 
-8.1999999999999904e+00 -5.6478959459274070e-01 +7.7358629628502822e+00 -3.9479532597214970e-02 +5.1139967260818516e+01 -4.8391585975948246e+03 -3.4591413375922543e+05 +2.1080823072481703e+07 
-8.2999999999999901e+00 -5.6479006268293275e-01 +7.7358555694868159e+00 -4.1665197227403902e-02 +5.1504134081936549e+01 -4.8091490666160771e+03 -3.4774566464688937e+05 +2.0980893836588245e+07 
-8.3999999999999897e+00 -5.6479053560270798e-01 +7.7358481968184076e+00 -4.4007346762666710e-02 +5.1858170677063249e+01 -4.7735315576217272e+03 -3.4953112315628876e+05 +2.0850725140321393e+07 
-8.4999999999999893e+00 -5.6479101267976484e-01 +7.7358409155404875e+00 -4.6511060948576988e-02 +5.2199161521916352e+01 -4.7324872357012373e+03 -3.5125239796280698e+05 +2.0691534515246075e+07 
-8.5999999999999908e+00 -5.6479149324181799e-01 +7.7358337963486727e+00 -4.9181409393724798e-02 +5.2524191224704289e+01 -4.6861974587652066e+03 -3.5289137884680671e+05 +2.0504540399361819e+07 
-8.6999999999999904e+00 -5.6479197661659319e-01 +7.7358269099469146e+00 -5.2023463641856622e-02 +5.2830344290444032e+01 -4.6348435457059977e+03 -3.5442995533790777e+05 +2.0290961028683797e+07 
-8.7999999999999794e+00 -5.6479246213188927e-01 +7.7358203270400514e+00 -5.5042283766999871e-02 +5.3114705344799177e+01 -4.5786070412252329e+03 -3.5585001802213123e+05 +2.0052015722015940e+07 
-8.8999999999999808e+00 -5.6479294911553357e-01 +7.7358141183406381e+00 -5.8242929741984736e-02 +5.3374358947573569e+01 -4.5176694872692142e+03 -3.5713345749946765e+05 +1.9788923760444582e+07 
-8.9999999999999805e+00 -5.6479343689533912e-01 +7.7358083545639795e+00 -6.1630454910708510e-02 +5.3606389718966533e+01 -4.4522125530397270e+03 -3.5826216506327933e+05 +1.9502905020856187e+07 
-9.0999999999999801e+00 -5.6479392479920165e-01 +7.7358031064353732e+00 -6.5209904521805209e-02 +5.3807882167401459e+01 -4.3824180650612898e+03 -3.5921803180366609e+05 +1.9195180126123022e+07 
-9.1999999999999797e+00 -5.6479441215501247e-01 +7.7357984446765125e+00 -6.8986323318427717e-02 +5.3975921065038058e+01 -4.3084678608105896e+03 -3.5998295074034017e+05 +1.8866969742566839e+07 
-9.2999999999999794e+00 -5.6479489829076324e-01 +7.7357944400216141e+00 -7.2964745793311372e-02 +5.4107590993542033e+01 -4.2305439715568045e+03 -3.6053881421305292e+05 +1.8519495440662060e+07 
-9.3999999999999808e+00 -5.6479538253440853e-01 +7.7357911632078196e+00 -7.7150203099506209e-02 +5.4199976622115699e+01 -4.1488284939220812e+03 -3.6086751549963618e+05 +1.8153979095340371e+07 
-9.4999999999999805e+00 -5.6479586421397521e-01 +7.7357886849801192e+00 -8.1547719429199264e-02 +5.4250162576356573e+01 -4.0635036590356626e+03 -3.6095094808787591e+05 +1.7771643213584609e+07 
-9.5999999999999801e+00 -5.6479634265751866e-01 +7.7357870760839544e+00 -8.6162314170313725e-02 +5.4255233659548786e+01 -3.9747517908095178e+03 -3.6077100697355589e+05 +1.7373710733195458e+07 
-9.6999999999999797e+00 -5.6479681719318664e-01 +7.7357864072754658e+00 -9.0998997167337517e-02 +5.4212274542955520e+01 -3.8827553974163029e+03 -3.6030958682526648e+05 +1.6961405462901451e+07 
-9.7999999999999794e+00 -5.6479728714906363e-01 +7.7357867493145038e+00 -9.6062778186392681e-02 +5.4118369996674971e+01 -3.7876969874837364e+03 -3.5954858341041737e+05 +1.6535951196045535e+07 
-9.8999999999999808e+00 -5.6479775185335424e-01 +7.7357881729707110e+00 -1.0135865400290107e-01 +5.3970604707631146e+01 -3.6897593203314295e+03 -3.5846989251494769e+05 +1.6098572914934963e+07 
-9.9999999999999805e+00 -5.6479821063430846e-01 +7.7357907490113069e+00 -1.0689161829954204e-01 +5.3766063648673516e+01 -3.5891252096467083e+03 -3.5705541196418460e+05 +1.5650495845630836e+07 
-1.0100000000000000e+01 -5.6479866317139649e-01 +7.7357945469155931e+00 -1.1265710750184742e-01 +5.3502483386090198e+01 -3.4860301171440924e+03 -3.5529142740515352e+05 +1.5193007605884755e+07 
