# field on trajectory
# s[mm] rx[mm] ry[mm] rz[mm] bx[T] by[T] bz[T]
0.0000000000000000e+00 +8.1530000000000094e+00 +0.0000000000000000e+00 +0.0000000000000000e+00 -2.9767683063732973e-02 -5.6505635960164169e-01 +5.6547110763574045e-03
1.0000000000000001e-01 +8.1529997159377707e+00 +0.0000000000000000e+00 +1.0008006405070299e-01 -2.9767766155129521e-02 -5.6505618046158756e-01 +5.6546496550858444e-03
2.0000000000000001e-01 +8.1529988637557800e+00 +0.0000000000000000e+00 +2.0016012809818201e-01 -2.9767854818506218e-02 -5.6505601645369941e-01 +5.6545893986217864e-03
2.9999999999999999e-01 +8.1529974434524792e+00 +0.0000000000000000e+00 +3.0024019213920999e-01 -2.9767948356237871e-02 -5.6505586775015915e-01 +5.6545302953735577e-03
4.0000000000000002e-01 +8.1529954550242092e+00 +0.0000000000000000e+00 +4.0032025617056399e-01 -2.9768046070706981e-02 -5.6505573452316704e-01 +5.6544723337498531e-03
5.0000000000000000e-01 +8.1529928984782600e+00 +0.0000000000000000e+00 +5.0040032018901703e-01 -2.9768147264297939e-02 -5.6505561694484341e-01 +5.6544155021589016e-03
5.9999999999999998e-01 +8.1529897738146193e+00 +0.0000000000000000e+00 +6.0048038419134497e-01 -2.9768251239404488e-02 -5.6505551518737329e-01 +5.6543597890101240e-03
6.9999999999999996e-01 +8.1529860810223909e+00 +0.0000000000000000e+00 +7.0056044817432195e-01 -2.9768357298430980e-02 -5.6505542942303411e-01 +5.6543051827146152e-03
8.0000000000000004e-01 +8.1529818201124709e+00 +0.0000000000000000e+00 +8.0064051213472498e-01 -2.9768464743778381e-02 -5.6505535982394650e-01 +5.6542516716827839e-03
9.0000000000000002e-01 +8.1529769910812302e+00 +0.0000000000000000e+00 +9.0072057606932698e-01 -2.9768572877859254e-02 -5.6505530656235714e-01 +5.6541992443274215e-03
1.0000000000000000e+00 +8.1529715939250291e+00 +0.0000000000000000e+00 +1.0008006399749001e+00 -2.9768681003091449e-02 -5.6505526981052812e-01 +5.6541478890627635e-03
1.1000000000000001e+00 +8.1529656286511507e+00 +0.0000000000000000e+00 +1.1008807038482300e+00 -2.9768788421893223e-02 -5.6505524974065602e-01 +5.6540975943038434e-03
1.2000000000000000e+00 +8.1529590952522994e+00 +0.0000000000000000e+00 +1.2009607676860801e+00 -2.9768894436693706e-02 -5.6505524652506933e-01 +5.6540483484687027e-03
1.3000000000000000e+00 +8.1529519937357708e+00 +0.0000000000000000e+00 +1.3010408314852300e+00 -2.9768998349920389e-02 -5.6505526033600606e-01 +5.6540001399763111e-03
1.3999999999999999e+00 +8.1529443240979198e+00 +0.0000000000000000e+00 +1.4011208952424601e+00 -2.9769099464009598e-02 -5.6505529134581356e-01 +5.6539529572487736e-03
1.5000000000000000e+00 +8.1529360863350995e+00 +0.0000000000000000e+00 +1.5012009589545301e+00 -2.9769197081401671e-02 -5.6505533972686606e-01 +5.6539067887106890e-03
1.6000000000000001e+00 +8.1529272804509691e+00 +0.0000000000000000e+00 +1.6012810226182299e+00 -2.9769290504537575e-02 -5.6505540565150925e-01 +5.6538616227887794e-03
1.7000000000000000e+00 +8.1529179064491508e+00 +0.0000000000000000e+00 +1.7013610862303301e+00 -2.9769379035861802e-02 -5.6505548929212046e-01 +5.6538174479126724e-03
1.8000000000000000e+00 +8.1529079643223703e+00 +0.0000000000000000e+00 +1.8014411497875999e+00 -2.9769461977826615e-02 -5.6505559082119461e-01 +5.6537742525159685e-03
1.8999999999999999e+00 +8.1528974540779000e+00 +0.0000000000000000e+00 +1.9015212132868200e+00 -2.9769538632881152e-02 -5.6505571041114877e-01 +5.6537320250344509e-03
2.0000000000000000e+00 +8.1528863757084800e+00 +0.0000000000000000e+00 +2.0016012767247702e+00 -2.9769608303484411e-02 -5.6505584823455002e-01 +5.6536907539086415e-03
2.1000000000000001e+00 +8.1528747292177304e+00 +0.0000000000000000e+00 +2.1016813400982199e+00 -2.9769670558122491e-02 -5.6505600431879732e-01 +5.6536504431014276e-03
2.2000000000000002e+00 +8.1528625146056601e+00 +0.0000000000000000e+00 +2.2017614034039301e+00 -2.9769725979540220e-02 -5.6505617813804887e-01 +5.6536111557478810e-03
2.2999999999999998e+00 +8.1528497318759001e+00 +0.0000000000000000e+00 +2.3018414666387002e+00 -2.9769775392146296e-02 -5.6505636903459122e-01 +5.6535729690816595e-03
2.3999999999999999e+00 +8.1528363810211903e+00 +0.0000000000000000e+00 +2.4019215297993002e+00 -2.9769819620336150e-02 -5.6505657635078432e-01 +5.6535359603365068e-03
2.5000000000000000e+00 +8.1528224620451493e+00 +0.0000000000000000e+00 +2.5020015928824901e+00 -2.9769859488480512e-02 -5.6505679942889031e-01 +5.6535002067442351e-03
2.6000000000000001e+00 +8.1528079749477893e+00 +0.0000000000000000e+00 +2.6020816558850601e+00 -2.9769895820929392e-02 -5.6505703761118153e-01 +5.6534657855355722e-03
2.7000000000000002e+00 +8.1527929197291105e+00 +0.0000000000000000e+00 +2.7021617188037701e+00 -2.9769929442008267e-02 -5.6505729023990858e-01 +5.6534327739395556e-03
2.7999999999999998e+00 +8.1527772963891003e+00 +0.0000000000000000e+00 +2.8022417816354102e+00 -2.9769961176015911e-02 -5.6505755665729807e-01 +5.6534012491832450e-03
2.8999999999999999e+00 +8.1527611049277802e+00 +0.0000000000000000e+00 +2.9023218443767500e+00 -2.9769991847222180e-02 -5.6505783620554850e-01 +5.6533712884914060e-03
3.0000000000000000e+00 +8.1527443453451305e+00 +0.0000000000000000e+00 +3.0024019070245598e+00 -2.9770022279865811e-02 -5.6505812822682622e-01 +5.6533429690862136e-03
3.1000000000000001e+00 +8.1527270176411495e+00 +0.0000000000000000e+00 +3.1024819695756198e+00 -2.9770053298152181e-02 -5.6505843206326312e-01 +5.6533163681869421e-03
3.2000000000000002e+00 +8.1527091218158603e+00 +0.0000000000000000e+00 +3.2025620320267101e+00 -2.9770085726251141e-02 -5.6505874705695180e-01 +5.6532915630096601e-03
3.2999999999999998e+00 +8.1526906578692397e+00 +0.0000000000000000e+00 +3.3026420943745900e+00 -2.9770120388294768e-02 -5.6505907254994270e-01 +5.6532686307669321e-03
3.3999999999999999e+00 +8.1526716258013003e+00 +0.0000000000000000e+00 +3.4027221566160502e+00 -2.9770158108375203e-02 -5.6505940788424114e-01 +5.6532476486675113e-03
3.5000000000000000e+00 +8.1526520256120403e+00 +0.0000000000000000e+00 +3.5028022187478500e+00 -2.9770199710542389e-02 -5.6505975240180251e-01 +5.6532286939160294e-03
3.6000000000000001e+00 +8.1526318572978198e+00 +0.0000000000000000e+00 +3.6028822807667802e+00 -2.9770246018803431e-02 -5.6506010544455898e-01 +5.6532118437129892e-03
3.7000000000000002e+00 +8.1526111208659096e+00 +0.0000000000000000e+00 +3.7029623426696099e+00 -2.9770297857114252e-02 -5.6506046635430118e-01 +5.6531971752533071e-03
3.7999999999999998e+00 +8.1525898163126804e+00 +0.0000000000000000e+00 +3.8030424044531101e+00 -2.9770356049386552e-02 -5.6506083447284383e-01 +5.6531847657277194e-03
3.8999999999999999e+00 +8.1525679436344909e+00 +0.0000000000000000e+00 +3.9031224661140600e+00 -2.9770421419481021e-02 -5.6506120914194002e-01 +5.6531746923216422e-03
4.0000000000000000e+00 +8.1525455028386205e+00 +0.0000000000000000e+00 +4.0032025276492398e+00 -2.9770494791190562e-02 -5.6506158970318821e-01 +5.6531670322130072e-03
4.0999999999999996e+00 +8.1525224939177896e+00 +0.0000000000000000e+00 +4.1032825890554099e+00 -2.9770576651813829e-02 -5.6506197539442871e-01 +5.6531618297339372e-03
4.2000000000000002e+00 +8.1524989168792708e+00 +0.0000000000000000e+00 +4.2033626503293604e+00 -2.9770666265887948e-02 -5.6506236507610941e-01 +5.6531590098578754e-03
4.2999999999999998e+00 +8.1524747717157897e+00 +0.0000000000000000e+00 +4.3034427114678504e+00 -2.9770762620295349e-02 -5.6506275752311519e-01 +5.6531584704515052e-03
4.4000000000000004e+00 +8.1524500584346207e+00 +0.0000000000000000e+00 +4.4035227724676700e+00 -2.9770864701946936e-02 -5.6506315151021980e-01 +5.6531601093781731e-03
4.5000000000000000e+00 +8.1524247770285001e+00 +0.0000000000000000e+00 +4.5036028333255800e+00 -2.9770971497797442e-02 -5.6506354581231388e-01 +5.6531638245001367e-03
4.5999999999999996e+00 +8.1523989275046898e+00 +0.0000000000000000e+00 +4.6036828940383696e+00 -2.9771081994836364e-02 -5.6506393920418008e-01 +5.6531695136761862e-03
4.7000000000000002e+00 +8.1523725098559208e+00 +0.0000000000000000e+00 +4.7037629546028104e+00 -2.9771195180103367e-02 -5.6506433046071902e-01 +5.6531770747639412e-03
4.7999999999999998e+00 +8.1523455240894709e+00 +0.0000000000000000e+00 +4.8038430150156701e+00 -2.9771310040679160e-02 -5.6506471835672589e-01 +5.6531864056174807e-03
4.9000000000000004e+00 +8.1523179701980606e+00 +0.0000000000000000e+00 +4.9039230752737302e+00 -2.9771425563700965e-02 -5.6506510166711721e-01 +5.6531974040896016e-03
5.0000000000000000e+00 +8.1522898481889605e+00 +0.0000000000000000e+00 +5.0040031353737602e+00 -2.9771540736353293e-02 -5.6506547916670413e-01 +5.6532099680294615e-03
5.0999999999999996e+00 +8.1522611580549000e+00 +0.0000000000000000e+00 +5.1040831953125396e+00 -2.9771654545883496e-02 -5.6506584963042272e-01 +5.6532239952848604e-03
5.2000000000000002e+00 +8.1522318997995207e+00 +0.0000000000000000e+00 +5.2041632550868497e+00 -2.9771765979594099e-02 -5.6506621183313455e-01 +5.6532393837001428e-03
5.2999999999999998e+00 +8.1522020734228100e+00 +0.0000000000000000e+00 +5.3042433146934496e+00 -2.9771874024852107e-02 -5.6506656454974247e-01 +5.6532560311173428e-03
5.4000000000000004e+00 +8.1521716789247893e+00 +0.0000000000000000e+00 +5.4043233741291203e+00 -2.9771977669090621e-02 -5.6506690655516234e-01 +5.6532738353758123e-03
5.5000000000000000e+00 +8.1521407163090807e+00 +0.0000000000000000e+00 +5.5044034333906504e+00 -2.9772075899810489e-02 -5.6506723662429725e-01 +5.6532926943119099e-03
5.5999999999999996e+00 +8.1521091855684098e+00 +0.0000000000000000e+00 +5.6044834924747899e+00 -2.9772167704589514e-02 -5.6506755353215044e-01 +5.6533125057601019e-03
5.7000000000000002e+00 +8.1520770867064094e+00 +0.0000000000000000e+00 +5.7045635513783299e+00 -2.9772252071076519e-02 -5.6506785605365717e-01 +5.6533331675511821e-03
5.7999999999999998e+00 +8.1520444197231008e+00 +0.0000000000000000e+00 +5.8046436100980499e+00 -2.9772327987000486e-02 -5.6506814296379904e-01 +5.6533545775133793e-03
5.9000000000000004e+00 +8.1520111846184609e+00 +0.0000000000000000e+00 +5.9047236686307096e+00 -2.9772394440172316e-02 -5.6506841303757782e-01 +5.6533766334720239e-03
5.9999999999999902e+00 +8.1519773813925003e+00 +0.0000000000000000e+00 +6.0048037269731003e+00 -2.9772450418523395e-02 -5.6506866505006337e-01 +5.6533992332510564e-03
6.0999999999999899e+00 +8.1519430100452208e+00 +0.0000000000000000e+00 +6.1048837851219799e+00 -2.9772495279193442e-02 -5.6506889829086582e-01 +5.6534222908329089e-03
6.1999999999999904e+00 +8.1519080705766100e+00 +0.0000000000000000e+00 +6.2049638430741396e+00 -2.9772529658296531e-02 -5.6506911383231906e-01 +5.6534457761974258e-03
6.2999999999999901e+00 +8.1518725629866804e+00 +0.0000000000000000e+00 +6.3050439008263499e+00 -2.9772554468729354e-02 -5.6506931313262365e-01 +5.6534696714520341e-03
6.3999999999999897e+00 +8.1518364872754301e+00 +0.0000000000000000e+00 +6.4051239583753699e+00 -2.9772570623362242e-02 -5.6506949765001735e-01 +5.6534939587136865e-03
6.4999999999999902e+00 +8.1517998434428591e+00 +0.0000000000000000e+00 +6.5052040157180002e+00 -2.9772579035037577e-02 -5.6506966884277787e-01 +5.6535186201093083e-03
6.5999999999999899e+00 +8.1517626314889604e+00 +0.0000000000000000e+00 +6.6052840728510001e+00 -2.9772580616568102e-02 -5.6506982816922346e-01 +5.6535436377762429e-03
6.6999999999999904e+00 +8.1517248514137499e+00 +0.0000000000000000e+00 +6.7053641297711399e+00 -2.9772576280735409e-02 -5.6506997708771534e-01 +5.6535689938626834e-03
6.7999999999999901e+00 +8.1516865032135701e+00 +0.0000000000000000e+00 +6.8054441864752100e+00 -2.9772566940289791e-02 -5.6507011705668730e-01 +5.6535946705284137e-03
6.8999999999999897e+00 +8.1516475868957095e+00 +0.0000000000000000e+00 +6.9055242429599701e+00 -2.9772553507942508e-02 -5.6507024953453378e-01 +5.6536206499440767e-03
6.9999999999999902e+00 +8.1516081024565192e+00 +0.0000000000000000e+00 +7.0056042992222096e+00 -2.9772536896373401e-02 -5.6507037597978160e-01 +5.6536469142933719e-03
7.0999999999999899e+00 +8.1515680498960101e+00 +0.0000000000000000e+00 +7.1056843552586999e+00 -2.9772518018223112e-02 -5.6507049785097829e-01 +5.6536734457723146e-03
7.1999999999999904e+00 +8.1515274292141804e+00 +0.0000000000000000e+00 +7.2057644110662000e+00 -2.9772497786093036e-02 -5.6507061660672186e-01 +5.6537002265899900e-03
7.2999999999999901e+00 +8.1514862404073902e+00 +0.0000000000000000e+00 +7.3058444666415099e+00 -2.9772477112545204e-02 -5.6507073370569083e-01 +5.6537272389692627e-03
7.3999999999999897e+00 +8.1514444834829192e+00 +0.0000000000000000e+00 +7.4059245219813796e+00 -2.9772456910094568e-02 -5.6507085060653306e-01 +5.6537544651460801e-03
7.4999999999999902e+00 +8.1514021584334806e+00 +0.0000000000000000e+00 +7.5060045770826100e+00 -2.9772438091218139e-02 -5.6507096876806473e-01 +5.6537818873719243e-03
7.5999999999999899e+00 +8.1513592652663593e+00 +0.0000000000000000e+00 +7.6060846319419504e+00 -2.9772421568341031e-02 -5.6507108964904562e-01 +5.6538094879119453e-03
7.6999999999999904e+00 +8.1513158039779192e+00 +0.0000000000000000e+00 +7.7061646865561997e+00 -2.9772408253845657e-02 -5.6507121470837907e-01 +5.6538372490474225e-03
7.7999999999999901e+00 +8.1512717745681602e+00 +0.0000000000000000e+00 +7.8062447409221098e+00 -2.9772399060063959e-02 -5.6507134540500059e-01 +5.6538651530750562e-03
7.8999999999999897e+00 +8.1512271770334301e+00 +0.0000000000000000e+00 +7.9063247950364799e+00 -2.9772394899278819e-02 -5.6507148319793510e-01 +5.6538931823079779e-03
7.9999999999999902e+00 +8.1511820113773901e+00 +0.0000000000000000e+00 +8.0064048488960609e+00 -2.9772396683661315e-02 -5.6507162954614176e-01 +5.6539213190789977e-03
8.0999999999999908e+00 +8.1511362776036496e+00 +0.0000000000000000e+00 +8.1064849024976393e+00 -2.9772405065482337e-02 -5.6507178557298610e-01 +5.6539495625461556e-03
8.1999999999999904e+00 +8.1510899757086008e+00 +0.0000000000000000e+00 +8.2065649558379903e+00 -2.9772419838482087e-02 -5.6507195129294285e-01 +5.6539779674073948e-03
8.2999999999999901e+00 +8.1510431056885899e+00 +0.0000000000000000e+00 +8.3066450089139003e+00 -2.9772440619359658e-02 -5.6507212649176397e-01 +5.6540065998037558e-03
8.3999999999999897e+00 +8.1509956675508892e+00 +0.0000000000000000e+00 +8.4067250617221205e+00 -2.9772467024827842e-02 -5.6507231095509902e-01 +5.6540355258633632e-03
8.4999999999999893e+00 +8.1509476612882299e+00 +0.0000000000000000e+00 +8.5068051142594392e+00 -2.9772498671624237e-02 -5.6507250446869017e-01 +5.6540648117029942e-03
8.5999999999999908e+00 +8.1508990869078808e+00 +0.0000000000000000e+00 +8.6068851665226305e+00 -2.9772535176499849e-02 -5.6507270681814548e-01 +5.6540945234253180e-03
8.6999999999999904e+00 +8.1508499444025801e+00 +0.0000000000000000e+00 +8.7069652185084596e+00 -2.9772576156231835e-02 -5.6507291778916524e-01 +5.6541247271207568e-03
8.7999999999999794e+00 +8.1508002337759500e+00 +0.0000000000000000e+00 +8.8070452702137203e+00 -2.9772621227613542e-02 -5.6507313716734109e-01 +5.6541554888650102e-03
8.8999999999999808e+00 +8.1507499550316407e+00 +0.0000000000000000e+00 +8.9071253216351796e+00 -2.9772670007459673e-02 -5.6507336473824155e-01 +5.6541868747194621e-03
8.9999999999999805e+00 +8.1506991081623692e+00 +0.0000000000000000e+00 +9.0072053727696098e+00 -2.9772722112611602e-02 -5.6507360028749587e-01 +5.6542189507316123e-03
9.0999999999999801e+00 +8.1506476931717806e+00 +0.0000000000000000e+00 +9.1072854236137797e+00 -2.9772777159928737e-02 -5.6507384360062141e-01 +5.6542517829328781e-03
9.1999999999999797e+00 +8.1505957100635005e+00 +0.0000000000000000e+00 +9.2073654741644795e+00 -2.9772834766293877e-02 -5.6507409446311041e-01 +5.6542854373390176e-03
9.2999999999999794e+00 +8.1505431588302599e+00 +0.0000000000000000e+00 +9.3074455244184708e+00 -2.9772894548618360e-02 -5.6507435266051087e-01 +5.6543199799505292e-03
9.3999999999999808e+00 +8.1504900394757005e+00 +0.0000000000000000e+00 +9.4075255743725297e+00 -2.9772956123833526e-02 -5.6507461797825798e-01 +5.6543554767504870e-03
9.4999999999999805e+00 +8.1504363520034495e+00 +0.0000000000000000e+00 +9.5076056240234408e+00 -2.9773019108896074e-02 -5.6507489020175750e-01 +5.6543919937049516e-03
9.5999999999999801e+00 +8.1503820964062506e+00 +0.0000000000000000e+00 +9.6076856733679694e+00 -2.9773083120793138e-02 -5.6507516911646871e-01 +5.6544295967633669e-03
9.6999999999999797e+00 +8.1503272726913600e+00 +0.0000000000000000e+00 +9.7077657224029004e+00 -2.9773147776532356e-02 -5.6507545450770669e-01 +5.6544683518561113e-03
9.7999999999999794e+00 +8.1502718808515109e+00 +0.0000000000000000e+00 +9.8078457711250007e+00 -2.9773212693154683e-02 -5.6507574616086664e-01 +5.6545083248963381e-03
9.8999999999999808e+00 +8.1502159208903304e+00 +0.0000000000000000e+00 +9.9079258195310498e+00 -2.9773277487724372e-02 -5.6507604386122534e-01 +5.6545495817775134e-03
9.9999999999999805e+00 +8.1501593928078400e+00 +0.0000000000000000e+00 +1.0008005867617801e+01 -2.9773341777377206e-02 -5.6507634739403345e-01 +5.6545921883582942e-03
1.0100000000000000e+01 +8.1501022966040200e+00 +0.0000000000000000e+00 +1.0108085915382100e+01 -2.9773405281224300e-02 -5.6507665649463956e-01 +5.6546361716089486e-03
1.0199999999999999e+01 +8.1500446322825209e+00 +0.0000000000000000e+00 +1.0208165962820599e+01 -2.9773468039652740e-02 -5.6507697074117658e-01 +5.6546814360037296e-03
1.0300000000000001e+01 +8.1499863998360507e+00 +0.0000000000000000e+00 +1.0308246009930199e+01 -2.9773530156184981e-02 -5.6507728968092485e-01 +5.6547278619531582e-03
1.0400000000000000e+01 +8.1499275992682705e+00 +0.0000000000000000e+00 +1.0408326056707599e+01 -2.9773591734345784e-02 -5.6507761286101399e-01 +5.6547753298704043e-03
1.0500000000000000e+01 +8.1498682305791608e+00 +0.0000000000000000e+00 +1.0508406103149600e+01 -2.9773652877668446e-02 -5.6507793982853616e-01 +5.6548237201725828e-03
1.0600000000000000e+01 +8.1498082937723701e+00 +0.0000000000000000e+00 +1.0608486149253000e+01 -2.9773713689691794e-02 -5.6507827013048573e-01 +5.6548729132802995e-03
1.0699999999999999e+01 +8.1497477888406102e+00 +0.0000000000000000e+00 +1.0708566195014500e+01 -2.9773774273966359e-02 -5.6507860331387161e-01 +5.6549227896189368e-03
1.0800000000000001e+01 +8.1496867157875403e+00 +0.0000000000000000e+00 +1.0808646240430900e+01 -2.9773834734045278e-02 -5.6507893892554661e-01 +5.6549732296170552e-03
1.0900000000000000e+01 +8.1496250746131391e+00 +0.0000000000000000e+00 +1.0908726285499000e+01 -2.9773895173490574e-02 -5.6507927651231871e-01 +5.6550241137076776e-03
1.1000000000000000e+01 +8.1495628653174208e+00 +0.0000000000000000e+00 +1.1008806330215601e+01 -2.9773955695871532e-02 -5.6507961562092013e-01 +5.6550753223281319e-03
1.1100000000000000e+01 +8.1495000879040198e+00 +0.0000000000000000e+00 +1.1108886374577500e+01 -2.9774016404763362e-02 -5.6507995579797887e-01 +5.6551267359198883e-03
1.1199999999999999e+01 +8.1494367423620098e+00 +0.0000000000000000e+00 +1.1208966418581401e+01 -2.9774077403754901e-02 -5.6508029659015757e-01 +5.6551782349301373e-03
1.1300000000000001e+01 +8.1493728287059604e+00 +0.0000000000000000e+00 +1.1309046462224000e+01 -2.9774138796431808e-02 -5.6508063754384130e-01 +5.6552296998087425e-03
1.1400000000000000e+01 +8.1493083469249505e+00 +0.0000000000000000e+00 +1.1409126505502300e+01 -2.9774200686398113e-02 -5.6508097820553116e-01 +5.6552810110124113e-03
1.1500000000000000e+01 +8.1492432970226201e+00 +0.0000000000000000e+00 +1.1509206548412800e+01 -2.9774263177259449e-02 -5.6508131812153295e-01 +5.6553320490016507e-03
1.1600000000000000e+01 +8.1491776789989707e+00 +0.0000000000000000e+00 +1.1609286590952600e+01 -2.9774326372630697e-02 -5.6508165683809530e-01 +5.6553826942423386e-03
1.1699999999999999e+01 +8.1491114928576298e+00 +0.0000000000000000e+00 +1.1709366633118099e+01 -2.9774390376133140e-02 -5.6508199390135294e-01 +5.6554328272052758e-03
1.1800000000000001e+01 +8.1490447385876905e+00 +0.0000000000000000e+00 +1.1809446674906400e+01 -2.9774455291402057e-02 -5.6508232885746568e-01 +5.6554823283677608e-03
