# trajectory
# s[mm] rx[mm] ry[mm] rz[mm] px[rad] py[rad] pz[rad]
0.0000000000000000e+00 +7.9199999999999999e+00 +0.0000000000000000e+00 +0.0000000000000000e+00 +0.0000000000000000e+00 +0.0000000000000000e+00 +1.0000000000000000e+00
-1.0000000000000001e-01 +7.9199997168083369e+00 +0.0000000000000000e+00 -9.9999999999465350e-02 +5.6638329677921034e-06 +0.0000000000000000e+00 +9.9999999998396050e-01
-2.0000000000000001e-01 +7.9199988672334660e+00 +0.0000000000000000e+00 -1.9999999999572282e-01 +1.1327664162883812e-05 +0.0000000000000000e+00 +9.9999999993584199e-01
-3.0000000000000004e-01 +7.9199974512755622e+00 +0.0000000000000000e+00 -2.9999999998556448e-01 +1.6991493632502415e-05 +0.0000000000000000e+00 +9.9999999985564458e-01
-4.0000000000000002e-01 +7.9199954689347951e+00 +0.0000000000000000e+00 -3.9999999996578245e-01 +2.2655321427001015e-05 +0.0000000000000000e+00 +9.9999999974336817e-01
-5.0000000000000000e-01 +7.9199929202113308e+00 +0.0000000000000000e+00 -4.9999999993316885e-01 +2.8319147599858599e-05 +0.0000000000000000e+00 +9.9999999959901287e-01
-5.9999999999999998e-01 +7.9199898051053275e+00 +0.0000000000000000e+00 -5.9999999988451580e-01 +3.3982972207680105e-05 +0.0000000000000000e+00 +9.9999999942257878e-01
-6.9999999999999996e-01 +7.9199861236169395e+00 +0.0000000000000000e+00 -6.9999999981661531e-01 +3.9646795310196504e-05 +0.0000000000000000e+00 +9.9999999921406579e-01
-7.9999999999999993e-01 +7.9199818757463136e+00 +0.0000000000000000e+00 -7.9999999972625968e-01 +4.5310616970264881e-05 +0.0000000000000000e+00 +9.9999999897347402e-01
-8.9999999999999991e-01 +7.9199770614935909e+00 +0.0000000000000000e+00 -8.9999999961024091e-01 +5.0974437253868519e-05 +0.0000000000000000e+00 +9.9999999870080336e-01
-9.9999999999999989e-01 +7.9199716808589065e+00 +0.0000000000000000e+00 -9.9999999946535112e-01 +5.6638256230117001e-05 +0.0000000000000000e+00 +9.9999999839605391e-01
-1.0999999999999999e+00 +7.9199657338423863e+00 +0.0000000000000000e+00 -1.0999999992883824e+00 +6.2302073971246284e-05 +0.0000000000000000e+00 +9.9999999805922568e-01
-1.2000000000000000e+00 +7.9199592204441505e+00 +0.0000000000000000e+00 -1.1999999990761270e+00 +6.7965890552618822e-05 +0.0000000000000000e+00 +9.9999999769031878e-01
-1.3000000000000000e+00 +7.9199521406643116e+00 +0.0000000000000000e+00 -1.2999999988253770e+00 +7.3629706052723661e-05 +0.0000000000000000e+00 +9.9999999728933309e-01
-1.4000000000000001e+00 +7.9199444945029738e+00 +0.0000000000000000e+00 -1.3999999985329243e+00 +7.9293520553176547e-05 +0.0000000000000000e+00 +9.9999999685626872e-01
-1.5000000000000002e+00 +7.9199362819602319e+00 +0.0000000000000000e+00 -1.4999999981955614e+00 +8.4957334138720036e-05 +0.0000000000000000e+00 +9.9999999639112558e-01
-1.6000000000000003e+00 +7.9199275030361740e+00 +0.0000000000000000e+00 -1.5999999978100803e+00 +9.0621146897223605e-05 +0.0000000000000000e+00 +9.9999999589390376e-01
-1.7000000000000004e+00 +7.9199181577308773e+00 +0.0000000000000000e+00 -1.6999999973732729e+00 +9.6284958919683799e-05 +0.0000000000000000e+00 +9.9999999536460327e-01
-1.8000000000000005e+00 +7.9199082460444110e+00 +0.0000000000000000e+00 -1.7999999968819316e+00 +1.0194877030022434e-04 +0.0000000000000000e+00 +9.9999999480322399e-01
-1.9000000000000006e+00 +7.9198977679768348e+00 +0.0000000000000000e+00 -1.8999999963328484e+00 +1.0761258113609628e-04 +0.0000000000000000e+00 +9.9999999420976604e-01
-2.0000000000000004e+00 +7.9198867235281982e+00 +0.0000000000000000e+00 -1.9999999957228156e+00 +1.1327639152767807e-04 +0.0000000000000000e+00 +9.9999999358422942e-01
-2.1000000000000005e+00 +7.9198751126985405e+00 +0.0000000000000000e+00 -2.0999999950486252e+00 +1.1894020157820015e-04 +0.0000000000000000e+00 +9.9999999292661412e-01
-2.2000000000000006e+00 +7.9198629354878909e+00 +0.0000000000000000e+00 -2.1999999943070692e+00 +1.2460401139071289e-04 +0.0000000000000000e+00 +9.9999999223692004e-01
-2.3000000000000007e+00 +7.9198501918962672e+00 +0.0000000000000000e+00 -2.2999999934949398e+00 +1.3026782106505464e-04 +0.0000000000000000e+00 +9.9999999151514729e-01
-2.4000000000000008e+00 +7.9198368819236791e+00 +0.0000000000000000e+00 -2.3999999926090294e+00 +1.3593163069757603e-04 +0.0000000000000000e+00 +9.9999999076129575e-01
-2.5000000000000009e+00 +7.9198230055701258e+00 +0.0000000000000000e+00 -2.4999999916461300e+00 +1.4159544038114009e-04 +0.0000000000000000e+00 +9.9999998997536554e-01
-2.6000000000000010e+00 +7.9198085628355983e+00 +0.0000000000000000e+00 -2.5999999906030333e+00 +1.4725925020512223e-04 +0.0000000000000000e+00 +9.9999998915735655e-01
-2.7000000000000011e+00 +7.9197935537200772e+00 +0.0000000000000000e+00 -2.6999999894765319e+00 +1.5292306025541032e-04 +0.0000000000000000e+00 +9.9999998830726877e-01
-2.8000000000000012e+00 +7.9197779782235367e+00 +0.0000000000000000e+00 -2.7999999882634179e+00 +1.5858687061440463e-04 +0.0000000000000000e+00 +9.9999998742510221e-01
-2.9000000000000012e+00 +7.9197618363459412e+00 +0.0000000000000000e+00 -2.8999999869604833e+00 +1.6425068136101791e-04 +0.0000000000000000e+00 +9.9999998651085675e-01
-3.0000000000000013e+00 +7.9197451280872491e+00 +0.0000000000000000e+00 -2.9999999855645201e+00 +1.6991449257067534e-04 +0.0000000000000000e+00 +9.9999998556453251e-01
-3.1000000000000014e+00 +7.9197278534474096e+00 +0.0000000000000000e+00 -3.0999999840723205e+00 +1.7557830431531456e-04 +0.0000000000000000e+00 +9.9999998458612938e-01
-3.2000000000000015e+00 +7.9197100124263660e+00 +0.0000000000000000e+00 -3.1999999824806764e+00 +1.8124211666338563e-04 +0.0000000000000000e+00 +9.9999998357564746e-01
-3.3000000000000016e+00 +7.9196916050240542e+00 +0.0000000000000000e+00 -3.2999999807863802e+00 +1.8690592967985105e-04 +0.0000000000000000e+00 +9.9999998253308664e-01
-3.4000000000000017e+00 +7.9196726312404051e+00 +0.0000000000000000e+00 -3.3999999789862243e+00 +1.9256974342618568e-04 +0.0000000000000000e+00 +9.9999998145844682e-01
-3.5000000000000018e+00 +7.9196530910753422e+00 +0.0000000000000000e+00 -3.4999999770770005e+00 +1.9823355796037674e-04 +0.0000000000000000e+00 +9.9999998035172810e-01
-3.6000000000000019e+00 +7.9196329845287847e+00 +0.0000000000000000e+00 -3.5999999750555007e+00 +2.0389737333692377e-04 +0.0000000000000000e+00 +9.9999997921293038e-01
-3.7000000000000020e+00 +7.9196123116006456e+00 +0.0000000000000000e+00 -3.6999999729185173e+00 +2.0956118960683859e-04 +0.0000000000000000e+00 +9.9999997804205365e-01
-3.8000000000000020e+00 +7.9195910722908325e+00 +0.0000000000000000e+00 -3.7999999706628422e+00 +2.1522500681764520e-04 +0.0000000000000000e+00 +9.9999997683909791e-01
-3.9000000000000021e+00 +7.9195692665992494e+00 +0.0000000000000000e+00 -3.8999999682852677e+00 +2.2088882501337977e-04 +0.0000000000000000e+00 +9.9999997560406317e-01
-4.0000000000000018e+00 +7.9195468945257961e+00 +0.0000000000000000e+00 -3.9999999657825858e+00 +2.2655264423459057e-04 +0.0000000000000000e+00 +9.9999997433694932e-01
-4.1000000000000014e+00 +7.9195239560703676e+00 +0.0000000000000000e+00 -4.0999999631515882e+00 +2.3221646451836224e-04 +0.0000000000000000e+00 +9.9999997303775634e-01
-4.2000000000000011e+00 +7.9195004512328557e+00 +0.0000000000000000e+00 -4.1999999603890679e+00 +2.3788028589858434e-04 +0.0000000000000000e+00 +9.9999997170648425e-01
-4.3000000000000007e+00 +7.9194763800131502e+00 +0.0000000000000000e+00 -4.2999999574918162e+00 +2.4354410840621974e-04 +0.0000000000000000e+00 +9.9999997034313304e-01
-4.4000000000000004e+00 +7.9194517424111366e+00 +0.0000000000000000e+00 -4.3999999544566251e+00 +2.4920793206932882e-04 +0.0000000000000000e+00 +9.9999996894770271e-01
-4.5000000000000000e+00 +7.9194265384266975e+00 +0.0000000000000000e+00 -4.4999999512802873e+00 +2.5487175691306954e-04 +0.0000000000000000e+00 +9.9999996752019316e-01
-4.5999999999999996e+00 +7.9194007680597140e+00 +0.0000000000000000e+00 -4.5999999479595948e+00 +2.6053558295969706e-04 +0.0000000000000000e+00 +9.9999996606060437e-01
-4.6999999999999993e+00 +7.9193744313100645e+00 +0.0000000000000000e+00 -4.6999999444913394e+00 +2.6619941022856363e-04 +0.0000000000000000e+00 +9.9999996456893636e-01
-4.7999999999999989e+00 +7.9193475281776262e+00 +0.0000000000000000e+00 -4.7999999408723131e+00 +2.7186323873611861e-04 +0.0000000000000000e+00 +9.9999996304518901e-01
-4.8999999999999986e+00 +7.9193200586622750e+00 +0.0000000000000000e+00 -4.8999999370993077e+00 +2.7752706849590796e-04 +0.0000000000000000e+00 +9.9999996148936232e-01
-4.9999999999999982e+00 +7.9192920227638846e+00 +0.0000000000000000e+00 -4.9999999331691161e+00 +2.8319089951857432e-04 +0.0000000000000000e+00 +9.9999995990145629e-01
-5.0999999999999979e+00 +7.9192634204823289e+00 +0.0000000000000000e+00 -5.0999999290785301e+00 +2.8885473181185673e-04 +0.0000000000000000e+00 +9.9999995828147092e-01
-5.1999999999999975e+00 +7.9192342518174801e+00 +0.0000000000000000e+00 -5.1999999248243416e+00 +2.9451856538059040e-04 +0.0000000000000000e+00 +9.9999995662940622e-01
-5.2999999999999972e+00 +7.9192045167692102e+00 +0.0000000000000000e+00 -5.2999999204033426e+00 +3.0018240022670645e-04 +0.0000000000000000e+00 +9.9999995494526217e-01
-5.3999999999999968e+00 +7.9191742153373923e+00 +0.0000000000000000e+00 -5.3999999158123249e+00 +3.0584623634923177e-04 +0.0000000000000000e+00 +9.9999995322903867e-01
-5.4999999999999964e+00 +7.9191433475218984e+00 +0.0000000000000000e+00 -5.4999999110480813e+00 +3.1151007374428876e-04 +0.0000000000000000e+00 +9.9999995148073573e-01
-5.5999999999999961e+00 +7.9191119133226016e+00 +0.0000000000000000e+00 -5.5999999061074028e+00 +3.1717391240509507e-04 +0.0000000000000000e+00 +9.9999994970035333e-01
-5.6999999999999957e+00 +7.9190799127393756e+00 +0.0000000000000000e+00 -5.6999999009870823e+00 +3.2283775232196338e-04 +0.0000000000000000e+00 +9.9999994788789148e-01
-5.7999999999999954e+00 +7.9190473457720953e+00 +0.0000000000000000e+00 -5.7999998956839116e+00 +3.2850159348230104e-04 +0.0000000000000000e+00 +9.9999994604335007e-01
-5.8999999999999950e+00 +7.9190142124206382e+00 +0.0000000000000000e+00 -5.8999998901946826e+00 +3.3416543587060993e-04 +0.0000000000000000e+00 +9.9999994416672922e-01
-5.9999999999999947e+00 +7.9189805126848816e+00 +0.0000000000000000e+00 -5.9999998845161882e+00 +3.3982927946848610e-04 +0.0000000000000000e+00 +9.9999994225802880e-01
-6.0999999999999943e+00 +7.9189462465647056e+00 +0.0000000000000000e+00 -6.0999998786452192e+00 +3.4549312425487819e-04 +0.0000000000000000e+00 +9.9999994031724881e-01
-6.1999999999999940e+00 +7.9189114140599921e+00 +0.0000000000000000e+00 -6.1999998725785685e+00 +3.5115697020893314e-04 +0.0000000000000000e+00 +9.9999993834438927e-01
-6.2999999999999936e+00 +7.9188760151706257e+00 +0.0000000000000000e+00 -6.2999998663130281e+00 +3.5682081731284201e-04 +0.0000000000000000e+00 +9.9999993633945017e-01
-6.3999999999999932e+00 +7.9188400498964917e+00 +0.0000000000000000e+00 -6.3999998598453898e+00 +3.6248466555209883e-04 +0.0000000000000000e+00 +9.9999993430243150e-01
-6.4999999999999929e+00 +7.9188035182374774e+00 +0.0000000000000000e+00 -6.4999998531724454e+00 +3.6814851491550043e-04 +0.0000000000000000e+00 +9.9999993223333328e-01
-6.5999999999999925e+00 +7.9187664201934709e+00 +0.0000000000000000e+00 -6.5999998462909870e+00 +3.7381236539514665e-04 +0.0000000000000000e+00 +9.9999993013215538e-01
-6.6999999999999922e+00 +7.9187287557643611e+00 +0.0000000000000000e+00 -6.6999998391978073e+00 +3.7947621698644027e-04 +0.0000000000000000e+00 +9.9999992799889781e-01
-6.7999999999999918e+00 +7.9186905249500370e+00 +0.0000000000000000e+00 -6.7999998318896973e+00 +3.8514006968808702e-04 +0.0000000000000000e+00 +9.9999992583356068e-01
-6.8999999999999915e+00 +7.9186517277503867e+00 +0.0000000000000000e+00 -6.8999998243634497e+00 +3.9080392350209571e-04 +0.0000000000000000e+00 +9.9999992363614387e-01
-6.9999999999999911e+00 +7.9186123641652992e+00 +0.0000000000000000e+00 -6.9999998166158566e+00 +3.9646777843377811e-04 +0.0000000000000000e+00 +9.9999992140664740e-01
-7.0999999999999908e+00 +7.9185724341946626e+00 +0.0000000000000000e+00 -7.0999998086437097e+00 +4.0213163449174925e-04 +0.0000000000000000e+00 +9.9999991914507114e-01
-7.1999999999999904e+00 +7.9185319378383632e+00 +0.0000000000000000e+00 -7.1999998004438011e+00 +4.0779549168792716e-04 +0.0000000000000000e+00 +9.9999991685141520e-01
-7.2999999999999901e+00 +7.9184908750962864e+00 +0.0000000000000000e+00 -7.2999997920129234e+00 +4.1345935003753317e-04 +0.0000000000000000e+00 +9.9999991452567949e-01
-7.3999999999999897e+00 +7.9184492459683167e+00 +0.0000000000000000e+00 -7.3999997833478677e+00 +4.1912320955909185e-04 +0.0000000000000000e+00 +9.9999991216786399e-01
-7.4999999999999893e+00 +7.9184070504543351e+00 +0.0000000000000000e+00 -7.4999997744454268e+00 +4.2478707027443106e-04 +0.0000000000000000e+00 +9.9999990977796860e-01
-7.5999999999999890e+00 +7.9183642885542209e+00 +0.0000000000000000e+00 -7.5999997653023925e+00 +4.3045093220868207e-04 +0.0000000000000000e+00 +9.9999990735599342e-01
-7.6999999999999886e+00 +7.9183209602678515e+00 +0.0000000000000000e+00 -7.6999997559155569e+00 +4.3611479539027966e-04 +0.0000000000000000e+00 +9.9999990490193835e-01
-7.7999999999999883e+00 +7.9182770655950998e+00 +0.0000000000000000e+00 -7.7999997462817117e+00 +4.4177865985096199e-04 +0.0000000000000000e+00 +9.9999990241580339e-01
-7.8999999999999879e+00 +7.9182326045358371e+00 +0.0000000000000000e+00 -7.8999997363976489e+00 +4.4744252562577093e-04 +0.0000000000000000e+00 +9.9999989989758842e-01
-7.9999999999999876e+00 +7.9181875770899293e+00 +0.0000000000000000e+00 -7.9999997262601603e+00 +4.5310639275305197e-04 +0.0000000000000000e+00 +9.9999989734729344e-01
-8.0999999999999872e+00 +7.9181419832572395e+00 +0.0000000000000000e+00 -8.0999997158660388e+00 +4.5877026127461154e-04 +0.0000000000000000e+00 +9.9999989476491846e-01
-8.1999999999999869e+00 +7.9180958230376257e+00 +0.0000000000000000e+00 -8.1999997052120754e+00 +4.6443413123744496e-04 +0.0000000000000000e+00 +9.9999989215046337e-01
-8.2999999999999865e+00 +7.9180490964309413e+00 +0.0000000000000000e+00 -8.2999996942950620e+00 +4.7009800269546469e-04 +0.0000000000000000e+00 +9.9999988950392815e-01
-8.3999999999999861e+00 +7.9180018034370345e+00 +0.0000000000000000e+00 -8.3999996831117922e+00 +4.7576187570965724e-04 +0.0000000000000000e+00 +9.9999988682531271e-01
-8.4999999999999858e+00 +7.9179539440557454e+00 +0.0000000000000000e+00 -8.4999996716590562e+00 +4.8142575034808310e-04 +0.0000000000000000e+00 +9.9999988411461704e-01
-8.5999999999999854e+00 +7.9179055182869078e+00 +0.0000000000000000e+00 -8.5999996599336459e+00 +4.8708962668587654e-04 +0.0000000000000000e+00 +9.9999988137184104e-01
-8.6999999999999851e+00 +7.9178565261303486e+00 +0.0000000000000000e+00 -8.6999996479323549e+00 +4.9275350480524553e-04 +0.0000000000000000e+00 +9.9999987859698469e-01
-8.7999999999999847e+00 +7.9178069675858849e+00 +0.0000000000000000e+00 -8.7999996356519734e+00 +4.9841738479547166e-04 +0.0000000000000000e+00 +9.9999987579004790e-01
-8.8999999999999844e+00 +7.9177568426533247e+00 +0.0000000000000000e+00 -8.8999996230892950e+00 +5.0408126675290988e-04 +0.0000000000000000e+00 +9.9999987295103054e-01
-8.9999999999999840e+00 +7.9177061513324656e+00 +0.0000000000000000e+00 -8.9999996102411099e+00 +5.0974515078098842e-04 +0.0000000000000000e+00 +9.9999987007993252e-01
-9.0999999999999837e+00 +7.9176548936230953e+00 +0.0000000000000000e+00 -9.0999995971042118e+00 +5.1540903699020884e-04 +0.0000000000000000e+00 +9.9999986717675382e-01
-9.1999999999999833e+00 +7.9176030695249908e+00 +0.0000000000000000e+00 -9.1999995836753907e+00 +5.2107292549814560e-04 +0.0000000000000000e+00 +9.9999986424149434e-01
-9.2999999999999829e+00 +7.9175506790379151e+00 +0.0000000000000000e+00 -9.2999995699514404e+00 +5.2673681642944616e-04 +0.0000000000000000e+00 +9.9999986127415386e-01
-9.3999999999999826e+00 +7.9174977221616194e+00 +0.0000000000000000e+00 -9.3999995559291527e+00 +5.3240070991583070e-04 +0.0000000000000000e+00 +9.9999985827473237e-01
-9.4999999999999822e+00 +7.9174441988958417e+00 +0.0000000000000000e+00 -9.4999995416053178e+00 +5.3806460609609193e-04 +0.0000000000000000e+00 +9.9999985524322976e-01
-9.5999999999999819e+00 +7.9173901092403058e+00 +0.0000000000000000e+00 -9.5999995269767293e+00 +5.4372850511609505e-04 +0.0000000000000000e+00 +9.9999985217964582e-01
-9.6999999999999815e+00 +7.9173354531947195e+00 +0.0000000000000000e+00 -9.6999995120401774e+00 +5.4939240712877763e-04 +0.0000000000000000e+00 +9.9999984908398054e-01
-9.7999999999999812e+00 +7.9172802307587755e+00 +0.0000000000000000e+00 -9.7999994967924557e+00 +5.5505631229414948e-04 +0.0000000000000000e+00 +9.9999984595623370e-01
-9.8999999999999808e+00 +7.9172244419321505e+00 +0.0000000000000000e+00 -9.8999994812303544e+00 +5.6072022077929232e-04 +0.0000000000000000e+00 +9.9999984279640508e-01
-9.9999999999999805e+00 +7.9171680867145033e+00 +0.0000000000000000e+00 -9.9999994653506672e+00 +5.6638413275835972e-04 +0.0000000000000000e+00 +9.9999983960449468e-01
-1.0099999999999980e+01 +7.9171111651054762e+00 +0.0000000000000000e+00 -1.0099999449150184e+01 +5.7204804841153197e-04 +0.0000000000000000e+00 +9.9999983638050227e-01
-1.0199999999999980e+01 +7.9170536771046924e+00 +0.0000000000000000e+00 -1.0199999432625697e+01 +5.7771196791352143e-04 +0.0000000000000000e+00 +9.9999983312442764e-01
-1.0299999999999979e+01 +7.9169956227117595e+00 +0.0000000000000000e+00 -1.0299999415774000e+01 +5.8337589142207788e-04 +0.0000000000000000e+00 +9.9999982983627067e-01
-1.0399999999999979e+01 +7.9169370019262697e+00 +0.0000000000000000e+00 -1.0399999398591882e+01 +5.8903981907694393e-04 +0.0000000000000000e+00 +9.9999982651603125e-01
-1.0499999999999979e+01 +7.9168778147478021e+00 +0.0000000000000000e+00 -1.0499999381076137e+01 +5.9470375099985565e-04 +0.0000000000000000e+00 +9.9999982316370917e-01
-1.0599999999999978e+01 +7.9168180611759240e+00 +0.0000000000000000e+00 -1.0599999363223555e+01 +6.0036768729454266e-04 +0.0000000000000000e+00 +9.9999981977930430e-01
-1.0699999999999978e+01 +7.9167577412101942e+00 +0.0000000000000000e+00 -1.0699999345030928e+01 +6.0603162804672914e-04 +0.0000000000000000e+00 +9.9999981636281654e-01
-1.0799999999999978e+01 +7.9166968548501639e+00 +0.0000000000000000e+00 -1.0799999326495049e+01 +6.1169557332413382e-04 +0.0000000000000000e+00 +9.9999981291424578e-01
-1.0899999999999977e+01 +7.9166354020953769e+00 +0.0000000000000000e+00 -1.0899999307612708e+01 +6.1735952317647084e-04 +0.0000000000000000e+00 +9.9999980943359190e-01
-1.0999999999999977e+01 +7.9165733829453746e+00 +0.0000000000000000e+00 -1.0999999288380698e+01 +6.2302347763545018e-04 +0.0000000000000000e+00 +9.9999980592085480e-01
-1.1099999999999977e+01 +7.9165107973996953e+00 +0.0000000000000000e+00 -1.1099999268795809e+01 +6.2868743671477812e-04 +0.0000000000000000e+00 +9.9999980237603436e-01
-1.1199999999999976e+01 +7.9164476454578772e+00 +0.0000000000000000e+00 -1.1199999248854835e+01 +6.3435140041015784e-04 +0.0000000000000000e+00 +9.9999979879913059e-01
-1.1299999999999976e+01 +7.9163839271194600e+00 +0.0000000000000000e+00 -1.1299999228554567e+01 +6.4001536869928992e-04 +0.0000000000000000e+00 +9.9999979519014337e-01
-1.1399999999999975e+01 +7.9163196423839857e+00 +0.0000000000000000e+00 -1.1399999207891796e+01 +6.4567934154187304e-04 +0.0000000000000000e+00 +9.9999979154907270e-01
-1.1499999999999975e+01 +7.9162547912510020e+00 +0.0000000000000000e+00 -1.1499999186863313e+01 +6.5134331887960444e-04 +0.0000000000000000e+00 +9.9999978787591848e-01
-1.1599999999999975e+01 +7.9161893737200630e+00 +0.0000000000000000e+00 -1.1599999165465910e+01 +6.5700730063618059e-04 +0.0000000000000000e+00 +9.9999978417068069e-01
-1.1699999999999974e+01 +7.9161233897907310e+00 +0.0000000000000000e+00 -1.1699999143696379e+01 +6.6267128671729768e-04 +0.0000000000000000e+00 +9.9999978043335935e-01
