# multipoles
# s[mm] polynom_b[n=0][T/m^n] polynom_b[n=1][T/m^n] polynom_b[n=2][T/m^n] polynom_b[n=3][T/m^n] polynom_b[n=4][T/m^n] polynom_b[n=5][T/m^n] polynom_b[n=6][T/m^n] 
-0.0000000000000000e+00 -5.9242244579241843e-01 +8.1041889949374806e+00 -2.9195492177451055e-01 +6.1454081663063391e+01 -1.4446803628465061e+03 -5.0830220616333093e+05 -6.2188829177365294e+06 
-1.0000000000000001e-01 -5.9242228487781168e-01 +8.1042075155898878e+00 -2.9615468132392969e-01 +6.1043299097905461e+01 -1.3397878462476474e+03 -5.0630451435392699e+05 -6.6762885808923040e+06 
-2.0000000000000001e-01 -5.9242213043294345e-01 +8.1042230126562327e+00 -2.9997324235734635e-01 +6.0683896764501128e+01 -1.2429624098221082e+03 -5.0453124323973112e+05 -7.0936672838292290e+06 
-2.9999999999999999e-01 -5.9242198273696056e-01 +8.1042355679590532e+00 -3.0339271302756288e-01 +6.0375213503669890e+01 -1.1545080189729881e+03 -5.0298041498719994e+05 -7.4702209621235486e+06 
-4.0000000000000002e-01 -5.9242184206898596e-01 +8.1042452633110145e+00 -3.0639520605665210e-01 +6.0116588470940663e+01 -1.0747285584956865e+03 -5.0165005367760017e+05 -7.8051519190970873e+06 
-5.0000000000000000e-01 -5.9242170870806243e-01 +8.1042521805260179e+00 -3.0896283251007212e-01 +5.9907360800941696e+01 -1.0039279464669149e+03 -5.0053818331672729e+05 -8.0976622969131563e+06 
-5.9999999999999998e-01 -5.9242158293326597e-01 +8.1042564014189793e+00 -3.1107770604976914e-01 +5.9746869624896561e+01 -9.4241005729319886e+02 -4.9964282794744923e+05 -8.3469544320380781e+06 
-6.9999999999999996e-01 -5.9242146502377646e-01 +8.1042580077984621e+00 -3.1272193792970576e-01 +5.9634454283998259e+01 -8.9047881600774883e+02 -4.9896201288115949e+05 -8.5522304057350215e+06 
-8.0000000000000004e-01 -5.9242135525856821e-01 +8.1042570814717969e+00 -3.1387764271671348e-01 +5.9569454183930326e+01 -8.4843808550460119e+02 -4.9849376384025777e+05 -8.7126925961135291e+06 
-9.0000000000000002e-01 -5.9242125391671585e-01 +8.1042537042435008e+00 -3.1452693684406224e-01 +5.9551208833100283e+01 -8.1659169788142947e+02 -4.9823610715417861e+05 -8.8275435143009759e+06 
-1.0000000000000000e+00 -5.9242116127731015e-01 +8.1042479579166784e+00 -3.1465193411254566e-01 +5.9579057825093585e+01 -7.9524353991010696e+02 -4.9818706970216136e+05 -8.8959854004655015e+06 
-1.1000000000000001e+00 -5.9242107761933249e-01 +8.1042399242870253e+00 -3.1423475103332027e-01 +5.9652340993541202e+01 -7.8469744765762766e+02 -4.9834467974882846e+05 -8.9172207338692993e+06 
-1.2000000000000000e+00 -5.9242100322187108e-01 +8.1042296851508286e+00 -3.1325750496676791e-01 +5.9770398187590516e+01 -7.8525724508911867e+02 -4.9870696565880132e+05 -8.8904520423177611e+06 
-1.3000000000000000e+00 -5.9242093836389531e-01 +8.1042173222979841e+00 -3.1170231346447830e-01 +5.9932569485481388e+01 -7.9722675540294063e+02 -4.9927195713043865e+05 -8.8148818479822557e+06 
-1.3999999999999999e+00 -5.9242088332445930e-01 +8.1042029175124810e+00 -3.0955129421530503e-01 +6.0138195169049062e+01 -8.2090980107840016e+02 -5.0003768502890674e+05 -8.6897126729367729e+06 
-1.5000000000000000e+00 -5.9242083838258808e-01 +8.1041865525779304e+00 -3.0678656867117648e-01 +6.0386615581270782e+01 -8.5661013565823976e+02 -5.0100218057933293e+05 -8.5141473602885008e+06 
-1.6000000000000001e+00 -5.9242080381728601e-01 +8.1041683092705092e+00 -3.0339025320902746e-01 +6.0677171314713114e+01 -9.0463161079894383e+02 -5.0216347641148325e+05 -8.2873882825545715e+06 
-1.7000000000000000e+00 -5.9242077990750930e-01 +8.1041482693609570e+00 -2.9934447041428763e-01 +6.1009203169216271e+01 -9.6527796395066753e+02 -5.0351960634054750e+05 -8.0086383437460838e+06 
-1.8000000000000000e+00 -5.9242076693230739e-01 +8.1041265146151762e+00 -2.9463134248931483e-01 +6.1382052129066636e+01 -1.0388529380346351e+03 -5.0506860520740616e+05 -7.6771004279802330e+06 
-1.8999999999999999e+00 -5.9242076517061915e-01 +8.1041031267920687e+00 -2.8923299030316268e-01 +6.1795059438562149e+01 -1.1256603074920913e+03 -5.0680850933937274e+05 -7.2919772529829070e+06 
-2.0000000000000000e+00 -5.9242077490150813e-01 +8.1040781876483674e+00 -2.8313153479930264e-01 +6.2247566444421771e+01 -1.2260038419262066e+03 -5.0873735555560346e+05 -6.8524715643857783e+06 
-2.1000000000000001e+00 -5.9242079626491173e-01 +8.1040518025485344e+00 -2.7631858405553056e-01 +6.2738050935084615e+01 -1.3399971200119492e+03 -5.1084871842078026e+05 -6.3584793183592595e+06 
-2.2000000000000002e+00 -5.9242082887295966e-01 +8.1040241674783307e+00 -2.6882191167124658e-01 +6.3261675059814245e+01 -1.4670236269354823e+03 -5.1311946833060891e+05 -5.8125658469053051e+06 
-2.2999999999999998e+00 -5.9242087221243600e-01 +8.1039955001761506e+00 -2.6067791657281036e-01 +6.3812804926943329e+01 -1.6062915233790079e+03 -5.1552256748535659e+05 -5.2179393105126796e+06 
-2.3999999999999999e+00 -5.9242092577021721e-01 +8.1039660183694107e+00 -2.5192299732879275e-01 +6.4385806927738614e+01 -1.7570089721316870e+03 -5.1803097965363879e+05 -4.5778078734330479e+06 
-2.5000000000000000e+00 -5.9242098903313078e-01 +8.1039359397927218e+00 -2.4259354858624463e-01 +6.4975047254510670e+01 -1.9183842030662959e+03 -5.2061766750620696e+05 -3.8953793999447520e+06 
-2.6000000000000001e+00 -5.9242106148799467e-01 +8.1039054821757919e+00 -2.3272596942451321e-01 +6.5574892178919924e+01 -2.0896253596135316e+03 -5.2325559404974000e+05 -3.1738621725663883e+06 
-2.7000000000000002e+00 -5.9242114262168499e-01 +8.1038748632523969e+00 -2.2235665236445021e-01 +6.6179707857765081e+01 -2.2699407011118715e+03 -5.2591772169443592e+05 -2.4164639471373605e+06 
-2.7999999999999998e+00 -5.9242123192108653e-01 +8.1038443007502181e+00 -2.1152198907811154e-01 +6.6783860566871283e+01 -2.4585384999794051e+03 -5.2857701345794869e+05 -1.6263924243167478e+06 
-2.8999999999999999e+00 -5.9242132887308541e-01 +8.1038140124087832e+00 -2.0025837159121390e-01 +6.7381716213951904e+01 -2.6546270108483059e+03 -5.3120643023978034e+05 -8.0685542084419343e+05 
-3.0000000000000000e+00 -5.9242143296460525e-01 +8.1037842159595819e+00 -1.8860218782091970e-01 +6.7967640875572854e+01 -2.8574145594345100e+03 -5.3377893384452758e+05 +3.8939565894365784e+04 
-3.1000000000000001e+00 -5.9242154368256017e-01 +8.1037551291417014e+00 -1.7658982719273603e-01 +6.8536000374673421e+01 -3.0661094347435337e+03 -5.3626748462645698e+05 +9.0778484137461579e+05 
-3.2000000000000002e+00 -5.9242166051393075e-01 +8.1037269696917598e+00 -1.6425767144804479e-01 +6.9081160525156591e+01 -3.2799200611410702e+03 -5.3864504279812332e+05 +1.7964733261193847e+06 
-3.2999999999999998e+00 -5.9242178294569170e-01 +8.1036999553525604e+00 -1.5164210338473288e-01 +6.9597486923425208e+01 -3.4980548362080240e+03 -5.4088456733995152e+05 +2.7017977948525655e+06 
-3.3999999999999999e+00 -5.9242191046484249e-01 +8.1036743038697789e+00 -1.3877950379282608e-01 +7.0079344997055415e+01 -3.7197221804031633e+03 -5.4295901617964543e+05 +3.6205510890864898e+06 
-3.5000000000000000e+00 -5.9242204255842146e-01 +8.1036502329895370e+00 -1.2570624891900564e-01 +7.0521100091714189e+01 -3.9441305928954871e+03 -5.4484134674195724e+05 +4.5495264043780649e+06 
-3.6000000000000001e+00 -5.9242217871352010e-01 +8.1036279604614823e+00 -1.1245871258915052e-01 +7.0917117378614009e+01 -4.1704886057595531e+03 -5.4650451542726473e+05 +5.4855170560870338e+06 
-3.7000000000000002e+00 -5.9242231841718318e-01 +8.1036077040461567e+00 -9.9073264439280870e-02 +7.1261761618115159e+01 -4.3980048169084921e+03 -5.4792147618529527e+05 +6.4253166353312153e+06 
-3.7999999999999998e+00 -5.9242246115655128e-01 +8.1035896814963984e+00 -8.5586274112615310e-02 +7.1549397714243042e+01 -4.6258878115744965e+03 -5.4906518378633261e+05 +7.3657186399835171e+06 
-3.8999999999999999e+00 -5.9242260641881506e-01 +8.1035741105813965e+00 -7.2034105026831649e-02 +7.1774389993027839e+01 -4.8533462806873295e+03 -5.4990858958537201e+05 +8.3035170338259516e+06 
-4.0000000000000000e+00 -5.9242275369111541e-01 +8.1035612090650915e+00 -5.8453118244411358e-02 +7.1931102813467817e+01 -5.0795889428399987e+03 -5.5042464517245872e+05 +9.2355058605824262e+06 
-4.0999999999999996e+00 -5.9242290253506613e-01 +8.1035511546498231e+00 -4.4884203431077366e-02 +7.2015104083400189e+01 -5.3037846265474727e+03 -5.5059204575188947e+05 +1.0158244453253513e+07 
-4.2000000000000002e+00 -5.9242305277874230e-01 +8.1035439826664337e+00 -3.1384248238586182e-02 +7.2026359240259609e+01 -5.5249765587882966e+03 -5.5040997640665283e+05 +1.1067528145726405e+07 
-4.2999999999999998e+00 -5.9242320431014395e-01 +8.1035396968286566e+00 -1.8013661045017785e-02 +7.1965838568743621e+01 -5.7421841226002343e+03 -5.4988218630841770e+05 +1.1958999533760075e+07 
-4.4000000000000004e+00 -5.9242335701715731e-01 +8.1035383008547388e+00 -4.8328501380962771e-03 +7.1834512214013699e+01 -5.9544267056923809e+03 -5.4901242379257048e+05 +1.2828301245481197e+07 
-4.5000000000000000e+00 -5.9242351078779842e-01 +8.1035397984690540e+00 +8.0977773018381105e-03 +7.1633350131384887e+01 -6.1607237158621292e+03 -5.4780443605181074e+05 +1.3671076000656027e+07 
-4.5999999999999996e+00 -5.9242366550998338e-01 +8.1035441934106895e+00 +2.0717815271715834e-02 +7.1363321845873671e+01 -6.3600945808762826e+03 -5.4626196776260284e+05 +1.4482966609616529e+07 
-4.7000000000000002e+00 -5.9242382107177405e-01 +8.1035514894192460e+00 +3.2966860870817835e-02 +7.1025396862578077e+01 -6.5515587896805855e+03 -5.4438876346145221e+05 +1.5259616179855216e+07 
-4.7999999999999998e+00 -5.9242397736108265e-01 +8.1035616902461953e+00 +4.4784506753781636e-02 +7.0620544335466732e+01 -6.7341357485851568e+03 -5.4218856561098679e+05 +1.5996667431228014e+07 
-4.9000000000000004e+00 -5.9242413426601248e-01 +8.1035747996513017e+00 +5.6110353583170583e-02 +7.0149733178385077e+01 -6.9068450124898009e+03 -5.3966511526785244e+05 +1.6689763781599177e+07 
-5.0000000000000000e+00 -5.9242429167453048e-01 +8.1035908214085826e+00 +6.6883998936971167e-02 +6.9613931885794912e+01 -7.0687060797163795e+03 -5.3682215101380856e+05 +1.7334548386896212e+07 
-5.0999999999999996e+00 -5.9242444947472672e-01 +8.1036097592965071e+00 +7.7045040895458036e-02 +6.9014108825713024e+01 -7.2187384619644290e+03 -5.3366341068331967e+05 +1.7926664476503536e+07 
-5.2000000000000002e+00 -5.9242460755463822e-01 +8.1036316171033231e+00 +8.6533080650935526e-02 +6.8351232070394488e+01 -7.3559617276242034e+03 -5.3019263033487380e+05 +1.8461755544808265e+07 
-5.2999999999999998e+00 -5.9242476580234238e-01 +8.1036563986340706e+00 +9.5287720839840634e-02 +6.7626269220611363e+01 -7.4793954801706741e+03 -5.2641354330102203e+05 +1.8935465273943666e+07 
-5.4000000000000004e+00 -5.9242492410593506e-01 +8.1036841077006301e+00 +1.0324856441519625e-01 +6.6840187671206351e+01 -7.5880593219901039e+03 -5.2232988167507714e+05 +1.9343437323165126e+07 
-5.5000000000000000e+00 -5.9242508235347147e-01 +8.1037147481284233e+00 +1.1035521326008189e-01 +6.5993954425966749e+01 -7.6809728462352205e+03 -5.1794537524156988e+05 +1.9681315338694688e+07 
-5.5999999999999996e+00 -5.9242524043315137e-01 +8.1037483237489649e+00 +1.1654727462801820e-01 +6.5088536315843143e+01 -7.7571557435265931e+03 -5.1326375276253012e+05 +1.9944743419501595e+07 
-5.7000000000000002e+00 -5.9242539823305729e-01 +8.1037848384157076e+00 +1.2176435187320010e-01 +6.4124899548278435e+01 -7.8156276377875529e+03 -5.0828873937203642e+05 +2.0129365368137319e+07 
-5.7999999999999998e+00 -5.9242555564133503e-01 +8.1038242959888169e+00 +1.2594605175487814e-01 +6.3104010122690241e+01 -7.8554082186226224e+03 -5.0302405892148614e+05 +2.0230825302673720e+07 
-5.9000000000000004e+00 -5.9242571254617715e-01 +8.1038667003419640e+00 +1.2903198544410330e-01 +6.2026833672364425e+01 -7.8755172610546315e+03 -4.9747343315667170e+05 +2.0244767754502691e+07 
-5.9999999999999902e+00 -5.9242586883574311e-01 +8.1039120553625157e+00 +1.3096176100878942e-01 +6.0894335461154753e+01 -7.8749744867785366e+03 -4.9164058185135934e+05 +2.0166836997586951e+07 
-6.0999999999999899e+00 -5.9242602440638481e-01 +8.1039602882908124e+00 +1.3169614694547885e-01 +5.9708955181921581e+01 -7.8531921003493817e+03 -4.8553697982490051e+05 +1.9994461705550250e+07 
-6.1999999999999904e+00 -5.9242617917166918e-01 +8.1040110442265121e+00 +1.3127043472520475e-01 +5.8478511927289375e+01 -7.8109635512142850e+03 -4.7920222656200040e+05 +1.9731374520534109e+07 
-6.2999999999999901e+00 -5.9242633304652970e-01 +8.1040639035087469e+00 +1.2973635602910655e-01 +5.7212049247107245e+01 -7.7493867368169504e+03 -4.7268229569395503e+05 +1.9382703018006656e+07 
-6.3999999999999897e+00 -5.9242648594582836e-01 +8.1041184464640352e+00 +1.2714563604865589e-01 +5.5918611168844485e+01 -7.6695594523198379e+03 -4.6602316387426306e+05 +1.8953574347847819e+07 
-6.4999999999999902e+00 -5.9242663778434657e-01 +8.1041742534210712e+00 +1.2354999157788721e-01 +5.4607241744912393e+01 -7.5725793512058099e+03 -4.5927080808471789e+05 +1.8449115041088611e+07 
-6.5999999999999899e+00 -5.9242678847678587e-01 +8.1042309047075918e+00 +1.1900113211542152e-01 +5.3286985165523070e+01 -7.4595439698979471e+03 -4.5247120635056583e+05 +1.7874451133892611e+07 
-6.6999999999999904e+00 -5.9242693793778678e-01 +8.1042879806441306e+00 +1.1355076171941557e-01 +5.1966885943934358e+01 -7.3315507604069880e+03 -4.4567033882454305e+05 +1.7234708317904070e+07 
-6.7999999999999901e+00 -5.9242708608194350e-01 +8.1043450615500223e+00 +1.0725057732378900e-01 +5.0655988728099771e+01 -7.1896970618536843e+03 -4.3891418664797413e+05 +1.6535011813827798e+07 
-6.8999999999999897e+00 -5.9242723282363796e-01 +8.1044017277406368e+00 +1.0015226309221144e-01 +4.9363338410371796e+01 -7.0350799932014143e+03 -4.3224873266637640e+05 +1.5780485862242036e+07 
-6.9999999999999902e+00 -5.9242737807729284e-01 +8.1044575595300081e+00 +9.2307499950580449e-02 +4.8097980038925527e+01 -6.8687966362634515e+03 -4.2571996088392509e+05 +1.4976254598299270e+07 
-7.0999999999999899e+00 -5.9242752175717672e-01 +8.1045121372221907e+00 +8.3767955696749108e-02 +4.6868959075258871e+01 -6.6919438451847045e+03 -4.1937385796748527e+05 +1.4127441139671290e+07 
-7.1999999999999904e+00 -5.9242766377750311e-01 +8.1045650411200540e+00 +7.4585294468772115e-02 +4.5685321146022545e+01 -6.5056184315899136e+03 -4.1325641182516108e+05 +1.3239168480380196e+07 
-7.2999999999999901e+00 -5.9242780405238427e-01 +8.1046158515261837e+00 +6.4811166765171943e-02 +4.4556112020468419e+01 -6.3109169728431589e+03 -4.0741361148584593e+05 +1.2316558574221211e+07 
-7.3999999999999897e+00 -5.9242794249575270e-01 +8.1046641487308051e+00 +5.4497214852540783e-02 +4.3490377966675332e+01 -6.1089359159473015e+03 -4.0189144917489798e+05 +1.1364732831651624e+07 
-7.4999999999999902e+00 -5.9242807902155936e-01 +8.1047095130227049e+00 +4.3695071538602810e-02 +4.2497165435489940e+01 -5.9007715554394263e+03 -3.9673591848595277e+05 +1.0388812019011177e+07 
-7.5999999999999899e+00 -5.9242821354352493e-01 +8.1047515246843282e+00 +3.2456359267865838e-02 +4.1585521206937635e+01 -5.6875200187727023e+03 -3.9199301522926782e+05 +9.3939161943205707e+06 
-7.6999999999999904e+00 -5.9242834597536498e-01 +8.1047897639919135e+00 +2.0832691482504707e-02 +4.0764492394298692e+01 -5.4702772882878198e+03 -3.8770873748771334e+05 +8.3851648037724346e+06 
-7.7999999999999901e+00 -5.9242847623062045e-01 +8.1048238112192035e+00 +8.8756673838147303e-03 +4.0043126335283361e+01 -5.2501391068655803e+03 -3.8392908496370504e+05 +7.3676762452966720e+06 
-7.8999999999999897e+00 -5.9242860422277821e-01 +8.1048532466281973e+00 -3.3631208737207375e-03 +3.9430470874337630e+01 -5.0282011144424396e+03 -3.8070006067192374e+05 +6.3465685188168241e+06 
-7.9999999999999902e+00 -5.9242872986510309e-01 +8.1048776505144584e+00 -1.5832094158385913e-02 +3.8935573302959718e+01 -4.8055587372814925e+03 -3.7806766486009880e+05 +5.3269587409185907e+06 
-8.0999999999999908e+00 -5.9242885320319727e-01 +8.1048967704616022e+00 -2.8476759386373996e-02 +3.8563627267198513e+01 -4.5832865308564351e+03 -3.7605821771602711e+05 +4.3137828899224550e+06 
-8.1999999999999904e+00 -5.9242897474993750e-01 +8.1049109158994312e+00 -4.1236249590976395e-02 +3.8306804034342264e+01 -4.3623026671217940e+03 -3.7463184944623552e+05 +3.3109205632275455e+06 
-8.2999999999999901e+00 -5.9242909512093145e-01 +8.1049205144292280e+00 -5.4049085178946854e-02 +3.8154517974476299e+01 -4.1434740067177072e+03 -3.7373474079842109e+05 +2.3219344660377027e+06 
-8.3999999999999897e+00 -5.9242921493176759e-01 +8.1049259936417162e+00 -6.6853779639846192e-02 +3.8096183680997072e+01 -3.9276675166792320e+03 -3.7331307360122801e+05 +1.3503877312223872e+06 
-8.4999999999999893e+00 -5.9242933479822912e-01 +8.1049277811147231e+00 -7.9588839265342784e-02 +3.8121216044444672e+01 -3.7157502675151245e+03 -3.7331303119222552e+05 +3.9984388043036021e+05 
-8.5999999999999908e+00 -5.9242945533611813e-01 +8.1049263044061135e+00 -9.2192754907617941e-02 +3.8219030456012618e+01 -3.5085895952708820e+03 -3.7368079961332865e+05 -5.2613238950992713e+05 
-8.6999999999999904e+00 -5.9242957716139899e-01 +8.1049219910635273e+00 -1.0460401426456879e-01 +3.8379042523416821e+01 -3.3070528642827494e+03 -3.7436256594672683e+05 -1.4239763447620498e+06 
-8.7999999999999794e+00 -5.9242970089007208e-01 +8.1049152686127179e+00 -1.1676109171283375e-01 +3.8590668394720886e+01 -3.1120076602992708e+03 -3.7530452015206835e+05 -2.2901222977750404e+06 
-8.8999999999999808e+00 -5.9242982713825221e-01 +8.1049065645674787e+00 -1.2860244960342015e-01 +3.8843324482638849e+01 -2.9243217622867473e+03 -3.7645285352084623e+05 -3.1210037520936741e+06 
-8.9999999999999805e+00 -5.9242995652220753e-01 +8.1048963064240631e+00 -1.4006654428293103e-01 +3.9126427610272387e+01 -2.7448630333714946e+03 -3.7775375944808678e+05 -3.9130539051963422e+06 
-9.0999999999999801e+00 -5.9243008965827038e-01 +8.1048849216588241e+00 -1.5109181607913838e-01 +3.9429395084853759e+01 -2.5744995994992209e+03 -3.7915343390533718e+05 -4.6627048319312241e+06 
-9.1999999999999797e+00 -5.9243022716286864e-01 +8.1048728377298058e+00 -1.6161669521687699e-01 +3.9741644641178439e+01 -2.4140997473270618e+03 -3.8059807506344508e+05 -5.3663879429233521e+06 
-9.2999999999999794e+00 -5.9243036965262141e-01 +8.1048604820799941e+00 -1.7157960218733626e-01 +4.0052594353663970e+01 -2.2645319093925764e+03 -3.8203388281338231e+05 -6.0205340742399190e+06 
-9.3999999999999808e+00 -5.9243051774419642e-01 +8.1048482821265058e+00 -1.8091894264484729e-01 +4.0351662936979359e+01 -2.1266647620185931e+03 -3.8340706046582549e+05 -6.6215730234265057e+06 
-9.4999999999999805e+00 -5.9243067205437339e-01 +8.1048366652782224e+00 -1.8957311158569209e-01 +4.0628269233585101e+01 -2.0013671423909022e+03 -3.8466381178499630e+05 -7.1659339503052849e+06 
-9.5999999999999801e+00 -5.9243083320014978e-01 +8.1048260589135559e+00 -1.9748048977473701e-01 +4.0871832863227084e+01 -1.8895081219823232e+03 -3.8575034475949750e+05 -7.6500450162386056e+06 
-9.6999999999999797e+00 -5.9243100179852970e-01 +8.1048168903948881e+00 -2.0457944623650656e-01 +4.1071773789446539e+01 -1.7919569493635056e+03 -3.8661286905982136e+05 -8.0703336802032478e+06 
-9.7999999999999794e+00 -5.9243117846675586e-01 +8.1048095870674874e+00 -2.1080833730262985e-01 +4.1217512355950070e+01 -1.7095830741460634e+03 -3.8719759625273192e+05 -8.4232265726176072e+06 
-9.8999999999999808e+00 -5.9243136382214456e-01 +8.1048045762436516e+00 -2.1610550241709725e-01 +4.1298469737524186e+01 -1.6432562222041940e+03 -3.8745074240289617e+05 -8.7051491471293289e+06 
-9.9999999999999805e+00 -5.9243155848214746e-01 +8.1048022851310009e+00 -2.2040928466816204e-01 +4.1304069477819297e+01 -1.5938459681627844e+03 -3.8731853467496904e+05 -8.9125276942508705e+06 
-1.0100000000000000e+01 -5.9243176288681376e-01 +8.1048029982119605e+00 -2.2368372933341849e-01 +4.1227497438752884e+01 -1.5618059844853299e+03 -3.8676646013278048e+05 -9.0435649175870642e+06 
