# multipoles
# s[mm] polynom_b[n=0][T/m^n] polynom_b[n=1][T/m^n] polynom_b[n=2][T/m^n] polynom_b[n=3][T/m^n] polynom_b[n=4][T/m^n] polynom_b[n=5][T/m^n] polynom_b[n=6][T/m^n] 
-0.0000000000000000e+00 -5.3667360997972735e-01 +7.3565335451633524e+00 -3.2212286095033882e-01 +4.7036657408653639e+01 +2.4448801486018583e+03 -3.6086336256007571e+05 -1.4559507251169089e+07 
-1.0000000000000001e-01 -5.3667385295381109e-01 +7.3565272437404641e+00 -3.1876626128774793e-01 +4.7456436439653473e+01 +2.4241231758424069e+03 -3.6377690376323467e+05 -1.4538104969016192e+07 
-2.0000000000000001e-01 -5.3667411075205784e-01 +7.3565230511754134e+00 -3.1482967371970694e-01 +4.7856356547904660e+01 +2.3966072218743002e+03 -3.6670037585711526e+05 -1.4494609881198756e+07 
-2.9999999999999999e-01 -5.3667438226180608e-01 +7.3565208493694429e+00 -3.1036279658461335e-01 +4.8237032290806461e+01 +2.3627650904898833e+03 -3.6962774159244780e+05 -1.4430131642186092e+07 
-4.0000000000000002e-01 -5.3667466637037153e-01 +7.3565205202182566e+00 -3.0541532738747640e-01 +4.8599078371109194e+01 +2.3230295807434645e+03 -3.7255296450043103e+05 -1.4345779910402205e+07 
-5.0000000000000000e-01 -5.3667496196512288e-01 +7.3565219456182538e+00 -3.0003696374587524e-01 +4.8943109462676880e+01 +2.2778334929791185e+03 -3.7547000790039753e+05 -1.4242664342670193e+07 
-5.9999999999999998e-01 -5.3667526793340103e-01 +7.3565250074631061e+00 -2.9427740437073469e-01 +4.9269740324319230e+01 +2.2276096558402478e+03 -3.7837283559969085e+05 -1.4121894747946260e+07 
-6.9999999999999996e-01 -5.3667558316253072e-01 +7.3565295876427479e+00 -2.8818634704646351e-01 +4.9579585822061453e+01 +2.1727908829662542e+03 -3.8125541200763825e+05 -1.3984580867432091e+07 
-8.0000000000000004e-01 -5.3667590653988162e-01 +7.3565355680481437e+00 -2.8181349061344713e-01 +4.9873260801095945e+01 +2.1138100070793926e+03 -3.8411170141613262e+05 -1.3831832528455054e+07 
-9.0000000000000002e-01 -5.3667623695283406e-01 +7.3565428305724234e+00 -2.7520852950997082e-01 +5.0151380068963135e+01 +2.0510997818036476e+03 -3.8693566794734419e+05 -1.3664759195099631e+07 
-1.0000000000000000e+00 -5.3667657328868368e-01 +7.3565512571028187e+00 -2.6842116561388257e-01 +5.0414558619799173e+01 +1.9850930992435658e+03 -3.8972127683262841e+05 -1.3484470979821682e+07 
-1.1000000000000001e+00 -5.3667691443484511e-01 +7.3565607295344639e+00 -2.6150109281766892e-01 +5.0663411252257355e+01 +1.9162227039584398e+03 -3.9246249223820982e+05 -1.3292077306574155e+07 
-1.2000000000000000e+00 -5.3667725927867360e-01 +7.3565711297603835e+00 -2.5449800855609767e-01 +5.0898552861983390e+01 +1.8449214015032289e+03 -3.9515327898095554e+05 -1.3088687873613581e+07 
-1.3000000000000000e+00 -5.3667760670751219e-01 +7.3565823396760814e+00 -2.4746160851740664e-01 +5.1120598311168813e+01 +1.7716219639066067e+03 -3.9778760176209034e+05 -1.2875412220150465e+07 
-1.3999999999999999e+00 -5.3667795560878828e-01 +7.3565942411824237e+00 -2.4044158757821887e-01 +5.1330162359901863e+01 +1.6967571452501286e+03 -4.0035942482417641e+05 -1.2653359797789233e+07 
-1.5000000000000000e+00 -5.3667830486978008e-01 +7.3566067161782094e+00 -2.3348764192512914e-01 +5.1527859875887671e+01 +1.6207597191117713e+03 -4.0286271314449934e+05 -1.2423640139141200e+07 
-1.6000000000000001e+00 -5.3667865337791987e-01 +7.3566196465722093e+00 -2.2664946483695919e-01 +5.1714305502801196e+01 +1.5440623995119079e+03 -4.0529143056524277e+05 -1.2187362487221582e+07 
-1.7000000000000000e+00 -5.3667900002057844e-01 +7.3566329142761804e+00 -2.1997675025960137e-01 +5.1890113866062109e+01 +1.4670979087847600e+03 -4.0763954099153285e+05 -1.1945636117022330e+07 
-1.8000000000000000e+00 -5.3667934368514736e-01 +7.3566464012015045e+00 -2.1351918838459094e-01 +5.2055899668247434e+01 +1.3902988891168375e+03 -4.0990100893873803e+05 -1.1699569906309750e+07 
-1.8999999999999999e+00 -5.3667968325896842e-01 +7.3566599892762286e+00 -2.0732647157198325e-01 +5.2212277211378037e+01 +1.3140980161877878e+03 -4.1206979681162204e+05 -1.1450272878002701e+07 
-2.0000000000000000e+00 -5.3668001762944284e-01 +7.3566735604244613e+00 -2.0144829075832271e-01 +5.2359860999937816e+01 +1.2389279327640756e+03 -4.1413986841218395e+05 -1.1198853890462242e+07 
-2.1000000000000001e+00 -5.3668034596642777e-01 +7.3566870378678626e+00 -1.9592286359784850e-01 +5.2498619063982865e+01 +1.1651296244094988e+03 -4.1610350886994373e+05 -1.0946185500045901e+07 
-2.2000000000000002e+00 -5.3668066856803687e-01 +7.3567005129851291e+00 -1.9074331914456488e-01 +5.2625830291135507e+01 +1.0926912608949442e+03 -4.1794582032332325e+05 -1.0692242678874802e+07 
-2.2999999999999998e+00 -5.3668098601410918e-01 +7.3567141199577835e+00 -1.8589171495979062e-01 +5.2738075186042224e+01 +1.0215162811757201e+03 -4.1964999245148856e+05 -1.0436787964237215e+07 
-2.3999999999999999e+00 -5.3668129888448779e-01 +7.3567279929723455e+00 -1.8135010498877094e-01 +5.2831934120486657e+01 +9.5150805854339069e+02 -4.2119921421886713e+05 -1.0179583593847396e+07 
-2.5000000000000000e+00 -5.3668160775897789e-01 +7.3567422662109658e+00 -1.7710054452618426e-01 +5.2903987583911025e+01 +8.8256999338652236e+02 -4.2257667527061241e+05 -9.9203919444283154e+06 
-2.6000000000000001e+00 -5.3668191321747738e-01 +7.3567570738626191e+00 -1.7312508370055724e-01 +5.2950815883184717e+01 +8.1460538903352108e+02 -4.2376556427039788e+05 -9.6589749405507017e+06 
-2.7000000000000002e+00 -5.3668221583986320e-01 +7.3567725501122503e+00 -1.6940577238271037e-01 +5.2968999417968540e+01 +7.4751754852683223e+02 -4.2474907038309547e+05 -9.3950945233550929e+06 
-2.7999999999999998e+00 -5.3668251620597807e-01 +7.3567888291460939e+00 -1.6592466141397086e-01 +5.2955118553020178e+01 +6.8120979706790752e+02 -4.2551038261524058e+05 -9.1285127566039860e+06 
-2.8999999999999999e+00 -5.3668281489576797e-01 +7.3568060451533412e+00 -1.6266379524215063e-01 +5.2905753536637896e+01 +6.1558534003435841e+02 -4.2603268926019396e+05 -8.8589911451730188e+06 
-3.0000000000000000e+00 -5.3668311248914080e-01 +7.3568243323212510e+00 -1.5960522033377672e-01 +5.2817484668275782e+01 +5.5054742904443799e+02 -4.2629917893715325e+05 -8.5862914427518491e+06 
-3.1000000000000001e+00 -5.3668340956602234e-01 +7.3568438248381369e+00 -1.5673097732022068e-01 +5.2686892182737346e+01 +4.8599920606580548e+02 -4.2629303984592325e+05 -8.3101748914688202e+06 
-3.2000000000000002e+00 -5.3668370670639043e-01 +7.3568646568915526e+00 -1.5402310733055868e-01 +5.2510556314342153e+01 +4.2184382901965091e+02 -4.2599746017754497e+05 -8.0304028349716496e+06 
-3.2999999999999998e+00 -5.3668400449022402e-01 +7.3568869626708713e+00 -1.5146364865846323e-01 +5.2285057209097396e+01 +3.5798440976656212e+02 -4.2539562757065106e+05 -7.7467364259381602e+06 
-3.3999999999999999e+00 -5.3668430349749463e-01 +7.3569108763629067e+00 -1.4903463676399784e-01 +5.2006975053891956e+01 +2.9432400970401380e+02 -4.2447072987014905e+05 -7.4589365961965499e+06 
-3.5000000000000000e+00 -5.3668460430824749e-01 +7.3569365321538474e+00 -1.4671810517066114e-01 +5.1672890009316859e+01 +2.3076566004180646e+02 -4.2320595471207786e+05 -7.1667641579498360e+06 
-3.6000000000000001e+00 -5.3668490750252862e-01 +7.3569640642300467e+00 -1.4449608476368922e-01 +5.1279382184993878e+01 +1.6721235363409869e+02 -4.2158448937916814e+05 -6.8699797826562477e+06 
-3.7000000000000002e+00 -5.3668521366036748e-01 +7.3569936067786248e+00 -1.4235060462112312e-01 +5.0823031626882781e+01 +1.0356705018499393e+02 -4.1958952074923232e+05 -6.5683439958048314e+06 
-3.7999999999999998e+00 -5.3668552336187747e-01 +7.3570252939825762e+00 -1.4026369117830445e-01 +5.0300418436931260e+01 +3.9732673127282013e+01 -4.1720423592282488e+05 -6.2616171978755025e+06 
-3.8999999999999999e+00 -5.3668583718715790e-01 +7.3570592600247062e+00 -1.3821736578160765e-01 +4.9708122671856067e+01 -2.4387946136365617e+01 -4.1441182168254920e+05 -5.9495593723283196e+06 
-4.0000000000000000e+00 -5.3668615571640066e-01 +7.3570956390919928e+00 -1.3619364890800245e-01 +4.9042724204779311e+01 -8.8891982773647470e+01 -4.1119546366018226e+05 -5.6319305085614882e+06 
-4.0999999999999996e+00 -5.3668647937048930e-01 +7.3571344910369856e+00 -1.3418531446886858e-01 +4.8302863399807634e+01 -1.5371578101423489e+02 -4.0754956663563882e+05 -5.3091703445883086e+06 
-4.2000000000000002e+00 -5.3668680792361889e-01 +7.3571755788067188e+00 -1.3222753326601930e-01 +4.7495423275571390e+01 -2.1818004743506251e+02 -4.0351339800013718e+05 -4.9842726718719508e+06 
-4.2999999999999998e+00 -5.3668714098580939e-01 +7.3572185911241457e+00 -1.3036592646550513e-01 +4.6629351484722264e+01 -2.8145841062278384e+02 -3.9913745910860045e+05 -4.6608290299462909e+06 
-4.4000000000000004e+00 -5.3668747816704665e-01 +7.3572632167179490e+00 -1.2864611529615072e-01 +4.5713595494655500e+01 -3.4272451032804440e+02 -3.9447225029752607e+05 -4.3424308586222753e+06 
-4.5000000000000000e+00 -5.3668781907725427e-01 +7.3573091443252840e+00 -1.2711372900903126e-01 +4.4757102493459698e+01 -4.0115183724216621e+02 -3.8956827029722405e+05 -4.0326702835500119e+06 
-4.5999999999999996e+00 -5.3668816332630365e-01 +7.3573560626862271e+00 -1.2581439920951254e-01 +4.3768819567030803e+01 -4.5591385031005018e+02 -3.8447601731258788e+05 -3.7351395305201658e+06 
-4.7000000000000002e+00 -5.3668851052405819e-01 +7.3574036605528939e+00 -1.2479376512407477e-01 +4.2757693416402006e+01 -5.0618387014586358e+02 -3.7924598733610957e+05 -3.4534314501023465e+06 
-4.7999999999999998e+00 -5.3668886028034357e-01 +7.3574516266850267e+00 -1.2409746667889764e-01 +4.1732670492369977e+01 -5.5113521675030665e+02 -3.7392867495489179e+05 -3.1911388433578862e+06 
-4.9000000000000004e+00 -5.3668921220488819e-01 +7.3574996498438132e+00 -1.2377115245593391e-01 +4.0702697168702635e+01 -5.8994105341506759e+02 -3.6857457433461561e+05 -2.9518552180171902e+06 
-5.0000000000000000e+00 -5.3668956590743544e-01 +7.3575474188063570e+00 -1.2386047548180737e-01 +3.9676719334095495e+01 -6.2177446996925607e+02 -3.6323417689928843e+05 -2.7391743818055000e+06 
-5.0999999999999996e+00 -5.3668992099760615e-01 +7.3575946223533490e+00 -1.2441109668330309e-01 +3.8663682730930880e+01 -6.4580842068721381e+02 -3.5795797324211610e+05 -2.5566907263711486e+06 
-5.2000000000000002e+00 -5.3669027708504891e-01 +7.3576409492754467e+00 -1.2546867991020755e-01 +3.7672532775928431e+01 -6.6121581307150223e+02 -3.5279645210161211e+05 -2.4079988219480398e+06 
-5.2999999999999998e+00 -5.3669063377929171e-01 +7.3576860883725148e+00 -1.2707890015835926e-01 +3.6712214593294860e+01 -6.6716935874839749e+02 -3.4780010060198809e+05 -2.2966941029207627e+06 
-5.4000000000000004e+00 -5.3669099068983217e-01 +7.3577297284554222e+00 -1.2928743592102013e-01 +3.5791672940822863e+01 -6.6284171305790449e+02 -3.4301940375537012e+05 -2.2263722217176654e+06 
-5.5000000000000000e+00 -5.3669134742606628e-01 +7.3577715583401053e+00 -1.3213997416926254e-01 +3.4919852393251233e+01 -6.4740538705727704e+02 -3.3850484556723724e+05 -2.2006294457388977e+06 
-5.5999999999999996e+00 -5.3669170359738083e-01 +7.3578112668581168e+00 -1.3568220945262296e-01 +3.4105697029381858e+01 -6.2003276028772871e+02 -3.3430690720473405e+05 -2.2230626085726647e+06 
-5.7000000000000002e+00 -5.3669205881303761e-01 +7.3578485428478206e+00 -1.3995984478906978e-01 +3.3358150692972714e+01 -5.7989606613671083e+02 -3.3047606852923922e+05 -2.2972691716950308e+06 
-5.7999999999999998e+00 -5.3669241268228429e-01 +7.3578830751604487e+00 -1.4501859067237247e-01 +3.2686156812907726e+01 -5.2616741274360356e+02 -3.2706280704731093e+05 -2.4268471198937437e+06 
-5.9000000000000004e+00 -5.3669276481426564e-01 +7.3579145526527920e+00 -1.5090416661741080e-01 +3.2098658607561575e+01 -4.5801875394324452e+02 -3.2411759907633689e+05 -2.6153950951119191e+06 
-5.9999999999999902e+00 -5.3669311481806636e-01 +7.3579426642008814e+00 -1.5766229945274321e-01 +3.1604598694857938e+01 -3.7462191797952289e+02 -3.2169091754368210e+05 -2.8665122735235812e+06 
-6.0999999999999899e+00 -5.3669346242878491e-01 +7.3579671891475105e+00 -1.6532005616057188e-01 +3.1210167463489650e+01 -2.7545187854159076e+02 -3.1981766445745522e+05 -3.1826092046389426e+06 
-6.1999999999999904e+00 -5.3669380790880383e-01 +7.3579882615539409e+00 -1.7383026282726491e-01 +3.0910541476718400e+01 -1.6114964642774356e+02 -3.1846954009496979e+05 -3.5616570482342779e+06 
-6.2999999999999901e+00 -5.3669415165810486e-01 +7.3580061026352999e+00 -1.8312725274500954e-01 +3.0698130819684394e+01 -3.2636379005574810e+01 -3.1760214075166837e+05 -4.0005967716140496e+06 
-6.3999999999999897e+00 -5.3669449407675618e-01 +7.3580209335915052e+00 -1.9314535795224078e-01 +3.0565345974912542e+01 +1.0916675021124877e+02 -3.1717106458075682e+05 -4.4963693123348635e+06 
-6.4999999999999902e+00 -5.3669483556475894e-01 +7.3580329756084826e+00 -2.0381890164392610e-01 +3.0504597787700245e+01 +2.6333840846760847e+02 -3.1713191139213985e+05 -5.0459149008604065e+06 
-6.5999999999999899e+00 -5.3669517652227550e-01 +7.3580424498520394e+00 -2.1508220290229096e-01 +3.0508297654514561e+01 +4.2895719139485516e+02 -3.1744028375241143e+05 -5.6461734717961606e+06 
-6.6999999999999904e+00 -5.3669551734948795e-01 +7.3580495774746506e+00 -2.2686957467675764e-01 +3.0568857312052035e+01 +6.0510158723753113e+02 -3.1805178571520513e+05 -6.2940845010308744e+06 
-6.7999999999999901e+00 -5.3669585844649104e-01 +7.3580545796122818e+00 -2.3911532636405927e-01 +3.0678688943982326e+01 +7.9085002379927232e+02 -3.1892202346056997e+05 -6.9865872271474572e+06 
-6.8999999999999897e+00 -5.3669620021358933e-01 +7.3580576773768467e+00 -2.5175375725354776e-01 +3.0830205385015894e+01 +9.8528074487671063e+02 -3.2000660642438807e+05 -7.7206200652561644e+06 
-6.9999999999999902e+00 -5.3669654305108061e-01 +7.3580590918668092e+00 -2.6471916421496777e-01 +3.1015819818383370e+01 +1.1874719617038679e+03 -3.2126114554123161e+05 -8.4931213429358080e+06 
-7.0999999999999899e+00 -5.3669688735923593e-01 +7.3580590441565894e+00 -2.7794583569631431e-01 +3.1227946090984144e+01 +1.3965017288579340e+03 -3.2264125507867744e+05 -9.3010286860233080e+06 
-7.1999999999999904e+00 -5.3669723353843246e-01 +7.3580577553040882e+00 -2.9136805358941231e-01 +3.1458998473233201e+01 +1.6114479915858142e+03 -3.2410255117181741e+05 -1.0141279275661772e+07 
-7.2999999999999901e+00 -5.3669758198913575e-01 +7.3580554463399368e+00 -3.0492009111737595e-01 +3.1701391997942714e+01 +1.8313885382983560e+03 -3.2560065384398890e+05 -1.1010809603777548e+07 
-7.3999999999999897e+00 -5.3669793311181035e-01 +7.3580523382782932e+00 -3.1853621750113181e-01 +3.1947542118860500e+01 +2.0554010919766743e+03 -3.2709118493383779e+05 -1.1906555916040065e+07 
-7.4999999999999902e+00 -5.3669828730698188e-01 +7.3580486521081019e+00 -3.3215069056222074e-01 +3.2189864982633267e+01 +2.2825631719515500e+03 -3.2852976971043571e+05 -1.2825453562682185e+07 
-7.5999999999999899e+00 -5.3669864497526709e-01 +7.3580446087925822e+00 -3.4569776228951110e-01 +3.2420777437299371e+01 +2.5119521977576242e+03 -3.2987203688721661e+05 -1.3764437489560694e+07 
-7.6999999999999904e+00 -5.3669900651729163e-01 +7.3580404292762021e+00 -3.5911167641336977e-01 +3.2632696822719900e+01 +2.7426454435681380e+03 -3.3107361737442116e+05 -1.4720442020700812e+07 
-7.7999999999999901e+00 -5.3669937233381793e-01 +7.3580363344694817e+00 -3.7232666843340312e-01 +3.2818041424963802e+01 +2.9737200389642089e+03 -3.3209014692986623e+05 -1.5690400867304662e+07 
-7.8999999999999897e+00 -5.3669974282558286e-01 +7.3580325452656847e+00 -3.8527696338071760e-01 +3.2969229972930599e+01 +3.2042529303288807e+03 -3.3287726318381669e+05 -1.6671246954197902e+07 
-7.9999999999999902e+00 -5.3670011839342990e-01 +7.3580292825287348e+00 -3.9789677835194542e-01 +3.3078681990913800e+01 +3.4333209222538007e+03 -3.3339060761403956e+05 -1.7659912594378181e+07 
-8.0999999999999908e+00 -5.3670049932121022e-01 +7.3580267297173343e+00 -4.1012943607553881e-01 +3.3140162291408487e+01 +3.6600473465379105e+03 -3.3359342657715402e+05 -1.8653164151733875e+07 
-8.1999999999999904e+00 -5.3670088541165595e-01 +7.3580249114551401e+00 -4.2195442395235572e-01 +3.3153481916091629e+01 +3.8837010136122426e+03 -3.3348421516822238e+05 -1.9646840387891397e+07 
-8.2999999999999901e+00 -5.3670127634370479e-01 +7.3580238100369906e+00 -4.3336021392196689e-01 +3.3120144972232879e+01 +4.1035754836009655e+03 -3.3307157613768731e+05 -2.0636469895712044e+07 
-8.3999999999999897e+00 -5.3670167179623496e-01 +7.3580234077652040e+00 -4.4433528130565408e-01 +3.3041655612506524e+01 +4.3189643632434399e+03 -3.3236411340726650e+05 -2.1617581435481310e+07 
-8.4999999999999893e+00 -5.3670207144820403e-01 +7.3580236869419862e+00 -4.5486809894586594e-01 +3.2919518199583521e+01 +4.5291612112177481e+03 -3.3137043293012085e+05 -2.2585703529958665e+07 
-8.5999999999999908e+00 -5.3670247497849821e-01 +7.3580246298820944e+00 -4.6494714171963314e-01 +3.2755236958663140e+01 +4.7334596160600831e+03 -3.3009914073401038e+05 -2.3536364813819814e+07 
-8.6999999999999904e+00 -5.3670288206606098e-01 +7.3580262189067831e+00 -4.7456088450871425e-01 +3.2550316161097015e+01 +4.9311531599666323e+03 -3.2855884401985991e+05 -2.4465093865167677e+07 
-8.7999999999999794e+00 -5.3670329238983294e-01 +7.3580284363462169e+00 -4.8369779925624640e-01 +3.2306260051364710e+01 +5.1215353634641906e+03 -3.2675815074292279e+05 -2.5367418946988147e+07 
-8.8999999999999808e+00 -5.3670370562869130e-01 +7.3580312645380976e+00 -4.9234636286209466e-01 +3.2024572901560148e+01 +5.3038998348385849e+03 -3.2470566997631203e+05 -2.6238868713687766e+07 
-8.9999999999999805e+00 -5.3670412146158797e-01 +7.3580346858265706e+00 -5.0049504967857417e-01 +3.1706759055049410e+01 +5.4775401260938743e+03 -3.2241001220457291e+05 -2.7074971522182737e+07 
-9.0999999999999801e+00 -5.3670453956744246e-01 +7.3580386825714177e+00 -5.0813233506823341e-01 +3.1354322648624102e+01 +5.6417498001613803e+03 -3.1987978769457480e+05 -2.7871255749414779e+07 
-9.1999999999999797e+00 -5.3670495962516074e-01 +7.3580432371341260e+00 -5.1524669291593062e-01 +3.0968768043313801e+01 +5.7958223858603469e+03 -3.1712360908001749e+05 -2.8623249586024515e+07 
-9.2999999999999794e+00 -5.3670538131368295e-01 +7.3580483318884147e+00 -5.2182660026786232e-01 +3.0551599517884998e+01 +5.9390514659166847e+03 -3.1415008958224911e+05 -2.9326481451055773e+07 
-9.3999999999999808e+00 -5.3670580431192427e-01 +7.3580539492222350e+00 -5.2786053388100396e-01 +3.0104321208848226e+01 +6.0707306080430853e+03 -3.1096784267316991e+05 -2.9976479657137383e+07 
-9.4999999999999805e+00 -5.3670622829880654e-01 +7.3580600715293940e+00 -5.3333696983045586e-01 +2.9628437385057214e+01 +6.1901533580610958e+03 -3.0758548376620264e+05 -3.0568772378301103e+07 
-9.5999999999999801e+00 -5.3670665295320608e-01 +7.3580666812115254e+00 -5.3824438425404175e-01 +2.9125452365645415e+01 +6.2966132581611901e+03 -3.0401162967214762e+05 -3.1098887745898612e+07 
-9.6999999999999797e+00 -5.3670707795411288e-01 +7.3580737606902469e+00 -5.4257125546330676e-01 +2.8596870198471997e+01 +6.3894038799826067e+03 -3.0025489684358344e+05 -3.1562353989411291e+07 
-9.7999999999999794e+00 -5.3670750298038217e-01 +7.3580812923899366e+00 -5.4630606242087620e-01 +2.8044195156216539e+01 +6.4678188003688601e+03 -2.9632390423799522e+05 -3.1954699331643078e+07 
-9.8999999999999808e+00 -5.3670792771096520e-01 +7.3580892587521269e+00 -5.4943728273322046e-01 +2.7468931330496780e+01 +6.5311515624482008e+03 -2.9222727101540816e+05 -3.2271451801218446e+07 
-9.9999999999999805e+00 -5.3670835182477961e-01 +7.3580976422229440e+00 -5.5195339555024592e-01 +2.6872583036626629e+01 +6.5786957357654910e+03 -2.8797361902197025e+05 -3.2508139536769100e+07 
-1.0100000000000000e+01 -5.3670877517618265e-01 +7.3581063951693961e+00 -5.5385107481294005e-01 +2.6257686062829766e+01 +6.6100330322059745e+03 -2.8357825865101494e+05 -3.2661924586148303e+07 
