# field on trajectory
# s[mm] rx[mm] ry[mm] rz[mm] bx[T] by[T] bz[T]
0.0000000000000000e+00 +7.9199999999999999e+00 +0.0000000000000000e+00 +0.0000000000000000e+00 -2.8323097995086127e-02 -5.3820519687820467e-01 +5.3589103170706281e-03
1.0000000000000001e-01 +7.9199997171285839e+00 +0.0000000000000000e+00 +9.9999999999466557e-02 -2.8323154976095392e-02 -5.3820511367226176e-01 +5.3589678801213179e-03
2.0000000000000001e-01 +7.9199988685143943e+00 +0.0000000000000000e+00 +1.9999999999573248e-01 -2.8323211536581922e-02 -5.3820503011103515e-01 +5.3590259043272293e-03
3.0000000000000004e-01 +7.9199974541575182e+00 +0.0000000000000000e+00 +2.9999999998559712e-01 -2.8323267044503758e-02 -5.3820494660681983e-01 +5.3590845989603111e-03
4.0000000000000002e-01 +7.9199954740580436e+00 +0.0000000000000000e+00 +3.9999999996585978e-01 -2.8323320867821754e-02 -5.3820486357191222e-01 +5.3591441732938217e-03
5.0000000000000000e-01 +7.9199929282160584e+00 +0.0000000000000000e+00 +4.9999999993331989e-01 -2.8323372374500760e-02 -5.3820478141860917e-01 +5.3592048366022486e-03
5.9999999999999998e-01 +7.9199898166316487e+00 +0.0000000000000000e+00 +5.9999999988477681e-01 -2.8323420932510762e-02 -5.3820470055920810e-01 +5.3592667981612234e-03
6.9999999999999996e-01 +7.9199861393048998e+00 +0.0000000000000000e+00 +6.9999999981702976e-01 -2.8323465909828094e-02 -5.3820462140600811e-01 +5.3593302672474401e-03
7.9999999999999993e-01 +7.9199818962358943e+00 +0.0000000000000000e+00 +7.9999999972687819e-01 -2.8323506674436574e-02 -5.3820454437130849e-01 +5.3593954531385704e-03
8.9999999999999991e-01 +7.9199770874247140e+00 +0.0000000000000000e+00 +8.9999999961112154e-01 -2.8323542594328708e-02 -5.3820446986741011e-01 +5.3594625651131877e-03
9.9999999999999989e-01 +7.9199717128714369e+00 +0.0000000000000000e+00 +9.9999999946655904e-01 -2.8323573037506863e-02 -5.3820439830661604e-01 +5.3595318124506795e-03
1.0999999999999999e+00 +7.9199657725761385e+00 +0.0000000000000000e+00 +1.0999999992899903e+00 -2.8323597371984369e-02 -5.3820433010122959e-01 +5.3596034044311631e-03
1.2000000000000000e+00 +7.9199592665388909e+00 +0.0000000000000000e+00 +1.1999999990782144e+00 -2.8323614965786829e-02 -5.3820426566355650e-01 +5.3596775503354155e-03
1.3000000000000000e+00 +7.9199521947597615e+00 +0.0000000000000000e+00 +1.2999999988280306e+00 -2.8323625186953125e-02 -5.3820420540590408e-01 +5.3597544594447717e-03
1.4000000000000001e+00 +7.9199445572388143e+00 +0.0000000000000000e+00 +1.3999999985362386e+00 -2.8323627403536743e-02 -5.3820414974058095e-01 +5.3598343410410599e-03
1.5000000000000002e+00 +7.9199363539761078e+00 +0.0000000000000000e+00 +1.4999999981996377e+00 -2.8323620983606836e-02 -5.3820409907989863e-01 +5.3599174044065105e-03
1.6000000000000003e+00 +7.9199275849716955e+00 +0.0000000000000000e+00 +1.5999999978150272e+00 -2.8323605295249438e-02 -5.3820405383617009e-01 +5.3600038588236766e-03
1.7000000000000004e+00 +7.9199182502256251e+00 +0.0000000000000000e+00 +1.6999999973792064e+00 -2.8323579706568652e-02 -5.3820401442171095e-01 +5.3600939135753463e-03
1.8000000000000005e+00 +7.9199083497379377e+00 +0.0000000000000000e+00 +1.7999999968889748e+00 -2.8323543585687807e-02 -5.3820398124883895e-01 +5.3601877779444664e-03
1.9000000000000006e+00 +7.9198978835086695e+00 +0.0000000000000000e+00 +1.8999999963411316e+00 -2.8323496300750588e-02 -5.3820395472987392e-01 +5.3602856612140620e-03
2.0000000000000004e+00 +7.9198868515378482e+00 +0.0000000000000000e+00 +1.9999999957324763e+00 -2.8323437219922289e-02 -5.3820393527713917e-01 +5.3603877726671459e-03
2.1000000000000005e+00 +7.9198752538254951e+00 +0.0000000000000000e+00 +2.0999999950598083e+00 -2.8323366160212939e-02 -5.3820392307205944e-01 +5.3604942515342148e-03
2.2000000000000006e+00 +7.9198630903716225e+00 +0.0000000000000000e+00 +2.1999999943199269e+00 -2.8323284733934913e-02 -5.3820391737245776e-01 +5.3606049568357024e-03
2.3000000000000007e+00 +7.9198503611762376e+00 +0.0000000000000000e+00 +2.2999999935096316e+00 -2.8323195002219644e-02 -5.3820391720525818e-01 +5.3607196775389554e-03
2.4000000000000008e+00 +7.9198370662393414e+00 +0.0000000000000000e+00 +2.3999999926257214e+00 -2.8323099026190995e-02 -5.3820392159738639e-01 +5.3608382026105088e-03
2.5000000000000009e+00 +7.9198232055609283e+00 +0.0000000000000000e+00 +2.4999999916649962e+00 -2.8322998866963048e-02 -5.3820392957576890e-01 +5.3609603210159661e-03
2.6000000000000010e+00 +7.9198087791409923e+00 +0.0000000000000000e+00 +2.5999999906242550e+00 -2.8322896585637920e-02 -5.3820394016733375e-01 +5.3610858217198560e-03
2.7000000000000011e+00 +7.9197937869795219e+00 +0.0000000000000000e+00 +2.6999999895002973e+00 -2.8322794243303546e-02 -5.3820395239901031e-01 +5.3612144936855269e-03
2.8000000000000012e+00 +7.9197782290765044e+00 +0.0000000000000000e+00 +2.7999999882899220e+00 -2.8322693901031440e-02 -5.3820396529772907e-01 +5.3613461258749896e-03
2.9000000000000012e+00 +7.9197621054319276e+00 +0.0000000000000000e+00 +2.8999999869899291e+00 -2.8322597619874525e-02 -5.3820397789042151e-01 +5.3614805072488021e-03
3.0000000000000013e+00 +7.9197454160457781e+00 +0.0000000000000000e+00 +2.9999999855971176e+00 -2.8322507460864906e-02 -5.3820398920402035e-01 +5.3616174267659498e-03
3.1000000000000014e+00 +7.9197281609180452e+00 +0.0000000000000000e+00 +3.0999999841082868e+00 -2.8322425485011633e-02 -5.3820399826545950e-01 +5.3617566733836948e-03
3.2000000000000015e+00 +7.9197103400487201e+00 +0.0000000000000000e+00 +3.1999999825202368e+00 -2.8322353753298533e-02 -5.3820400410167324e-01 +5.3618980360574569e-03
3.3000000000000016e+00 +7.9196919534377965e+00 +0.0000000000000000e+00 +3.2999999808297660e+00 -2.8322294326681985e-02 -5.3820400573959759e-01 +5.3620413037406920e-03
3.4000000000000017e+00 +7.9196730010852745e+00 +0.0000000000000000e+00 +3.3999999790336743e+00 -2.8322249266088687e-02 -5.3820400220616882e-01 +5.3621862653847512e-03
3.5000000000000018e+00 +7.9196534829911576e+00 +0.0000000000000000e+00 +3.4999999771287609e+00 -2.8322220632413447e-02 -5.3820399252832440e-01 +5.3623327099387493e-03
3.6000000000000019e+00 +7.9196333991554573e+00 +0.0000000000000000e+00 +3.5999999751118250e+00 -2.8322210486517001e-02 -5.3820397573300227e-01 +5.3624804263494490e-03
3.7000000000000020e+00 +7.9196127495781914e+00 +0.0000000000000000e+00 +3.6999999729796667e+00 -2.8322220889223784e-02 -5.3820395084714123e-01 +5.3626292035611201e-03
3.8000000000000020e+00 +7.9195915342593874e+00 +0.0000000000000000e+00 +3.7999999707290844e+00 -2.8322253901319695e-02 -5.3820391689768066e-01 +5.3627788305154163e-03
3.9000000000000021e+00 +7.9195697531990810e+00 +0.0000000000000000e+00 +3.8999999683568780e+00 -2.8322311583549920e-02 -5.3820387291156058e-01 +5.3629290961512395e-03
4.0000000000000018e+00 +7.9195474063973199e+00 +0.0000000000000000e+00 +3.9999999658598471e+00 -2.8322395996616689e-02 -5.3820381791572192e-01 +5.3630797894046196e-03
4.1000000000000014e+00 +7.9195244938541629e+00 +0.0000000000000000e+00 +4.0999999632347901e+00 -2.8322508454847042e-02 -5.3820375136065812e-01 +5.3632307428384072e-03
4.2000000000000011e+00 +7.9195010155696801e+00 +0.0000000000000000e+00 +4.1999999604785074e+00 -2.8322647287220493e-02 -5.3820367439107686e-01 +5.3633819635332544e-03
4.3000000000000007e+00 +7.9194769715439532e+00 +0.0000000000000000e+00 +4.2999999575877981e+00 -2.8322810076400678e-02 -5.3820358857524253e-01 +5.3635335022004490e-03
4.4000000000000004e+00 +7.9194523617770729e+00 +0.0000000000000000e+00 +4.3999999545594619e+00 -2.8322994405074371e-02 -5.3820349548142121e-01 +5.3636854095524579e-03
4.5000000000000000e+00 +7.9194271862691377e+00 +0.0000000000000000e+00 +4.4999999513902980e+00 -2.8323197855953518e-02 -5.3820339667788386e-01 +5.3638377363030539e-03
4.5999999999999996e+00 +7.9194014450202515e+00 +0.0000000000000000e+00 +4.5999999480771052e+00 -2.8323418011777138e-02 -5.3820329373290332e-01 +5.3639905331674433e-03
4.6999999999999993e+00 +7.9193751380305244e+00 +0.0000000000000000e+00 +4.6999999446166836e+00 -2.8323652455313313e-02 -5.3820318821475688e-01 +5.3641438508623797e-03
4.7999999999999989e+00 +7.9193482653000675e+00 +0.0000000000000000e+00 +4.7999999410058320e+00 -2.8323898769361113e-02 -5.3820308169172493e-01 +5.3642977401063023e-03
4.8999999999999986e+00 +7.9193208268289927e+00 +0.0000000000000000e+00 +4.8999999372413505e+00 -2.8324154536752570e-02 -5.3820297573209119e-01 +5.3644522516194523e-03
4.9999999999999982e+00 +7.9192928226174137e+00 +0.0000000000000000e+00 +4.9999999333200380e+00 -2.8324417340354638e-02 -5.3820287190414362e-01 +5.3646074361239958e-03
5.0999999999999979e+00 +7.9192642526654389e+00 +0.0000000000000000e+00 +5.0999999292386935e+00 -2.8324684763071175e-02 -5.3820277177617393e-01 +5.3647633443441606e-03
5.1999999999999975e+00 +7.9192351169731756e+00 +0.0000000000000000e+00 +5.1999999249941169e+00 -2.8324954387844815e-02 -5.3820267691647772e-01 +5.3649200270063516e-03
5.2999999999999972e+00 +7.9192054155407234e+00 +0.0000000000000000e+00 +5.2999999205831081e+00 -2.8325223797659029e-02 -5.3820258889335448e-01 +5.3650775348392720e-03
5.3999999999999968e+00 +7.9191751483681756e+00 +0.0000000000000000e+00 +5.3999999160024661e+00 -2.8325490575540044e-02 -5.3820250927510827e-01 +5.3652359185740609e-03
5.4999999999999964e+00 +7.9191443154556174e+00 +0.0000000000000000e+00 +5.4999999112489899e+00 -2.8325752304558794e-02 -5.3820243963004732e-01 +5.3653952289444097e-03
5.5999999999999961e+00 +7.9191129168031225e+00 +0.0000000000000000e+00 +5.5999999063194794e+00 -2.8326006567832875e-02 -5.3820238152648414e-01 +5.3655555166866866e-03
5.6999999999999957e+00 +7.9190809524107530e+00 +0.0000000000000000e+00 +5.6999999012107336e+00 -2.8326250948528534e-02 -5.3820233653273597e-01 +5.3657168325400633e-03
5.7999999999999954e+00 +7.9190484222785571e+00 +0.0000000000000000e+00 +5.7999998959195525e+00 -2.8326483029862591e-02 -5.3820230621712417e-01 +5.3658792272466439e-03
5.8999999999999950e+00 +7.9190153264065675e+00 +0.0000000000000000e+00 +5.8999998904427349e+00 -2.8326700395104459e-02 -5.3820229214797588e-01 +5.3660427515515802e-03
5.9999999999999947e+00 +7.9189816647947993e+00 +0.0000000000000000e+00 +5.9999998847770808e+00 -2.8326900627578040e-02 -5.3820229589362178e-01 +5.3662074562032111e-03
6.0999999999999943e+00 +7.9189474374432507e+00 +0.0000000000000000e+00 +6.0999998789193892e+00 -2.8327081956043981e-02 -5.3820231866168933e-01 +5.3663733778510445e-03
6.1999999999999940e+00 +7.9189126443518978e+00 +0.0000000000000000e+00 +6.1999998728664600e+00 -2.8327245190821849e-02 -5.3820236021697243e-01 +5.3665404967387208e-03
6.2999999999999936e+00 +7.9188772855206988e+00 +0.0000000000000000e+00 +6.2999998666150914e+00 -2.8327391787594150e-02 -5.3820241996357066e-01 +5.3667087790095257e-03
6.3999999999999932e+00 +7.9188413609495916e+00 +0.0000000000000000e+00 +6.3999998601620840e+00 -2.8327523202012789e-02 -5.3820249730560166e-01 +5.3668781908085203e-03
6.4999999999999929e+00 +7.9188048706384961e+00 +0.0000000000000000e+00 +6.4999998535042360e+00 -2.8327640889697466e-02 -5.3820259164720230e-01 +5.3670486982825803e-03
6.5999999999999925e+00 +7.9187678145873148e+00 +0.0000000000000000e+00 +6.5999998466383474e+00 -2.8327746306234098e-02 -5.3820270239252899e-01 +5.3672202675804645e-03
6.6999999999999922e+00 +7.9187301927959322e+00 +0.0000000000000000e+00 +6.6999998395612179e+00 -2.8327840907173156e-02 -5.3820282894575844e-01 +5.3673928648528529e-03
6.7999999999999918e+00 +7.9186920052642167e+00 +0.0000000000000000e+00 +6.7999998322696467e+00 -2.8327926148028072e-02 -5.3820297071108836e-01 +5.3675664562524055e-03
6.8999999999999915e+00 +7.9186532519920210e+00 +0.0000000000000000e+00 +6.8999998247604326e+00 -2.8328003484273633e-02 -5.3820312709273788e-01 +5.3677410079338139e-03
6.9999999999999911e+00 +7.9186139329791816e+00 +0.0000000000000000e+00 +6.9999998170303748e+00 -2.8328074371344346e-02 -5.3820329749494789e-01 +5.3679164860538451e-03
7.0999999999999908e+00 +7.9185740482255200e+00 +0.0000000000000000e+00 +7.0999998090762730e+00 -2.8328140264632800e-02 -5.3820348132198237e-01 +5.3680928567714052e-03
7.1999999999999904e+00 +7.9185335977308453e+00 +0.0000000000000000e+00 +7.1999998008949264e+00 -2.8328202619488114e-02 -5.3820367797812851e-01 +5.3682700862475782e-03
7.2999999999999901e+00 +7.9184925814949514e+00 +0.0000000000000000e+00 +7.2999997924831348e+00 -2.8328262891214259e-02 -5.3820388686769716e-01 +5.3684481406456883e-03
7.3999999999999897e+00 +7.9184509995176207e+00 +0.0000000000000000e+00 +7.3999997838376972e+00 -2.8328322535068451e-02 -5.3820410739502400e-01 +5.3686269861313481e-03
7.4999999999999893e+00 +7.9184088517986222e+00 +0.0000000000000000e+00 +7.4999997749554126e+00 -2.8328383006259571e-02 -5.3820433896446973e-01 +5.3688065888725022e-03
7.5999999999999890e+00 +7.9183661383377144e+00 +0.0000000000000000e+00 +7.5999997658330800e+00 -2.8328445759946516e-02 -5.3820458098042046e-01 +5.3689869150394930e-03
7.6999999999999886e+00 +7.9183228591346442e+00 +0.0000000000000000e+00 +7.6999997564674993e+00 -2.8328512251236566e-02 -5.3820483284728904e-01 +5.3691679308050990e-03
7.7999999999999883e+00 +7.9182790141891477e+00 +0.0000000000000000e+00 +7.7999997468554696e+00 -2.8328583935183831e-02 -5.3820509396951510e-01 +5.3693496023445968e-03
7.8999999999999879e+00 +7.9182346035009523e+00 +0.0000000000000000e+00 +7.8999997369937898e+00 -2.8328662266787555e-02 -5.3820536375156580e-01 +5.3695318958358034e-03
7.9999999999999876e+00 +7.9181896270697765e+00 +0.0000000000000000e+00 +7.9999997268792589e+00 -2.8328748700990568e-02 -5.3820564159793660e-01 +5.3697147774591399e-03
8.0999999999999872e+00 +7.9181440848953288e+00 +0.0000000000000000e+00 +8.0999997165086768e+00 -2.8328844280027791e-02 -5.3820592700146741e-01 +5.3698982161399893e-03
8.1999999999999869e+00 +7.9180979769773110e+00 +0.0000000000000000e+00 +8.1999997058788416e+00 -2.8328948395489453e-02 -5.3820621980826722e-01 +5.3700821917725874e-03
8.2999999999999865e+00 +7.9180513033154165e+00 +0.0000000000000000e+00 +8.2999996949865533e+00 -2.8329060026325230e-02 -5.3820651995271429e-01 +5.3702666869872477e-03
8.3999999999999861e+00 +7.9180040639093319e+00 +0.0000000000000000e+00 +8.3999996838286126e+00 -2.8329178151508604e-02 -5.3820682736913028e-01 +5.3704516844069513e-03
8.4999999999999858e+00 +7.9179562587587355e+00 +0.0000000000000000e+00 +8.4999996724018168e+00 -2.8329301750037807e-02 -5.3820714199177722e-01 +5.3706371666471086e-03
8.5999999999999854e+00 +7.9179078878632980e+00 +0.0000000000000000e+00 +8.5999996607029647e+00 -2.8329429800936671e-02 -5.3820746375485762e-01 +5.3708231163153066e-03
8.6999999999999851e+00 +7.9178589512226827e+00 +0.0000000000000000e+00 +8.6999996487288573e+00 -2.8329561283255662e-02 -5.3820779259250984e-01 +5.3710095160110658e-03
8.7999999999999847e+00 +7.9178094488365449e+00 +0.0000000000000000e+00 +8.7999996364762918e+00 -2.8329695176072728e-02 -5.3820812843880872e-01 +5.3711963483256001e-03
8.8999999999999844e+00 +7.9177593807045339e+00 +0.0000000000000000e+00 +8.8999996239420689e+00 -2.8329830458494243e-02 -5.3820847122776128e-01 +5.3713835958415536e-03
8.9999999999999840e+00 +7.9177087468262908e+00 +0.0000000000000000e+00 +8.9999996111229859e+00 -2.8329966109655949e-02 -5.3820882089330668e-01 +5.3715712411327738e-03
9.0999999999999837e+00 +7.9176575472014497e+00 +0.0000000000000000e+00 +9.0999995980158435e+00 -2.8330101108723874e-02 -5.3820917736931329e-01 +5.3717592667640547e-03
9.1999999999999833e+00 +7.9176057818296375e+00 +0.0000000000000000e+00 +9.1999995846174407e+00 -2.8330234434895244e-02 -5.3820954058957626e-01 +5.3719476552908981e-03
9.2999999999999829e+00 +7.9175534507104741e+00 +0.0000000000000000e+00 +9.2999995709245766e+00 -2.8330365067399443e-02 -5.3820991048781697e-01 +5.3721363892592581e-03
9.3999999999999826e+00 +7.9175005538435723e+00 +0.0000000000000000e+00 +9.3999995569340502e+00 -2.8330491985498901e-02 -5.3821028699768014e-01 +5.3723254512053065e-03
9.4999999999999822e+00 +7.9174470912285377e+00 +0.0000000000000000e+00 +9.4999995426426604e+00 -2.8330614168490004e-02 -5.3821067005273127e-01 +5.3725148236551772e-03
9.5999999999999819e+00 +7.9173930628649698e+00 +0.0000000000000000e+00 +9.5999995280472064e+00 -2.8330730595704109e-02 -5.3821105958645621e-01 +5.3727044891247319e-03
9.6999999999999815e+00 +7.9173384687524608e+00 +0.0000000000000000e+00 +9.6999995131444869e+00 -2.8330840246508334e-02 -5.3821145553225791e-01 +5.3728944301192991e-03
9.7999999999999812e+00 +7.9172833088905961e+00 +0.0000000000000000e+00 +9.7999994979313012e+00 -2.8330942100306601e-02 -5.3821185782345504e-01 +5.3730846291334435e-03
9.8999999999999808e+00 +7.9172275832789545e+00 +0.0000000000000000e+00 +9.8999994824044482e+00 -2.8331035136540464e-02 -5.3821226639327957e-01 +5.3732750686507087e-03
9.9999999999999805e+00 +7.9171712919171089e+00 +0.0000000000000000e+00 +9.9999994665607268e+00 -2.8331118334690111e-02 -5.3821268117487597e-01 +5.3734657311433863e-03
1.0099999999999980e+01 +7.9171144348046241e+00 +0.0000000000000000e+00 +1.0099999450396936e+01 -2.8331190870150680e-02 -5.3821310199783690e-01 +5.3736566129168172e-03
1.0199999999999980e+01 +7.9170570119410604e+00 +0.0000000000000000e+00 +1.0199999433909875e+01 -2.8331252701845451e-02 -5.3821352827786306e-01 +5.3738477656521573e-03
1.0299999999999979e+01 +7.9169990233259719e+00 +0.0000000000000000e+00 +1.0299999417096343e+01 -2.8331303984547009e-02 -5.3821395932723204e-01 +5.3740392548870192e-03
1.0399999999999979e+01 +7.9169404689589067e+00 +0.0000000000000000e+00 +1.0399999399953138e+01 -2.8331344872987906e-02 -5.3821439445827546e-01 +5.3742311461729133e-03
1.0499999999999979e+01 +7.9168813488394099e+00 +0.0000000000000000e+00 +1.0499999382477061e+01 -2.8331375521859652e-02 -5.3821483298338024e-01 +5.3744235050756095e-03
1.0599999999999978e+01 +7.9168216629670214e+00 +0.0000000000000000e+00 +1.0599999364664908e+01 -2.8331396085811721e-02 -5.3821527421499071e-01 +5.3746163971755351e-03
1.0699999999999978e+01 +7.9167614113412803e+00 +0.0000000000000000e+00 +1.0699999346513481e+01 -2.8331406719450485e-02 -5.3821571746560970e-01 +5.3748098880681237e-03
1.0799999999999978e+01 +7.9167005939617230e+00 +0.0000000000000000e+00 +1.0799999328019577e+01 -2.8331407577338229e-02 -5.3821616204780098e-01 +5.3750040433642116e-03
1.0899999999999977e+01 +7.9166392108278831e+00 +0.0000000000000000e+00 +1.0899999309179996e+01 -2.8331398813992104e-02 -5.3821660727419052e-01 +5.3751989286903957e-03
1.0999999999999977e+01 +7.9165772619392953e+00 +0.0000000000000000e+00 +1.0999999289991537e+01 -2.8331380583883119e-02 -5.3821705245746732e-01 +5.3753946096894200e-03
1.1099999999999977e+01 +7.9165147472954942e+00 +0.0000000000000000e+00 +1.1099999270450999e+01 -2.8331353041435095e-02 -5.3821749691038634e-01 +5.3755911520205375e-03
1.1199999999999976e+01 +7.9164516668960134e+00 +0.0000000000000000e+00 +1.1199999250555180e+01 -2.8331316341023684e-02 -5.3821793994576927e-01 +5.3757886213598987e-03
1.1299999999999976e+01 +7.9163880207403903e+00 +0.0000000000000000e+00 +1.1299999230300878e+01 -2.8331270636975332e-02 -5.3821838087650653e-01 +5.3759870834009082e-03
1.1399999999999975e+01 +7.9163238088281629e+00 +0.0000000000000000e+00 +1.1399999209684895e+01 -2.8331216083566212e-02 -5.3821881901555835e-01 +5.3761866038546146e-03
1.1499999999999975e+01 +7.9162590311588730e+00 +0.0000000000000000e+00 +1.1499999188704027e+01 -2.8331152835021290e-02 -5.3821925367595713e-01 +5.3763872484500711e-03
1.1599999999999975e+01 +7.9161936877320658e+00 +0.0000000000000000e+00 +1.1599999167355074e+01 -2.8331081045513230e-02 -5.3821968417080868e-01 +5.3765890829347166e-03
1.1699999999999974e+01 +7.9161277785472910e+00 +0.0000000000000000e+00 +1.1699999145634836e+01 -2.8331000869161425e-02 -5.3822010981329405e-01 +5.3767921730747525e-03
1.1799999999999974e+01 +7.9160613036041036e+00 +0.0000000000000000e+00 +1.1799999123540109e+01 -2.8330912460030951e-02 -5.3822052991667058e-01 +5.3769965846555022e-03
