# field on trajectory
# s[mm] rx[mm] ry[mm] rz[mm] bx[T] by[T] bz[T]
-0.0000000000000000e+00 +8.1530000000000005e+00 +0.0000000000000000e+00 -0.0000000000000000e+00 -2.8207053205052235e-02 -5.3714392078391604e-01 +5.4077172054284072e-03
-1.0000000000000001e-01 +8.1529997163961507e+00 +0.0000000000000000e+00 -9.9999999999463796e-02 -2.8207083668537556e-02 -5.3714362421112238e-01 +5.4077026038227161e-03
-2.0000000000000001e-01 +8.1529988655856904e+00 +0.0000000000000000e+00 -1.9999999999571000e-01 -2.8207115407202613e-02 -5.3714332239904694e-01 +5.4076859144520407e-03
-2.9999999999999999e-01 +8.1529974475670297e+00 +0.0000000000000000e+00 -2.9999999998552201e-01 -2.8207148809065215e-02 -5.3714301491139094e-01 +5.4076669898447697e-03
-4.0000000000000002e-01 +8.1529954623438208e+00 +0.0000000000000000e+00 -3.9999999996568297e-01 -2.8207184262138599e-02 -5.3714270131181729e-01 +5.4076456825291191e-03
-5.0000000000000000e-01 +8.1529929099124292e+00 +0.0000000000000000e+00 -4.9999999993297400e-01 -2.8207222154435847e-02 -5.3714238116403867e-01 +5.4076218450341438e-03
-5.9999999999999998e-01 +8.1529897902728408e+00 +0.0000000000000000e+00 -5.9999999988417896e-01 -2.8207262873965376e-02 -5.3714205403174031e-01 +5.4075953298889793e-03
-6.9999999999999996e-01 +8.1529861034287006e+00 +0.0000000000000000e+00 -6.9999999981608096e-01 -2.8207306808730525e-02 -5.3714171947857459e-01 +5.4075659896228798e-03
-8.0000000000000004e-01 +8.1529818493763706e+00 +0.0000000000000000e+00 -7.9999999972546199e-01 -2.8207354346733375e-02 -5.3714137706824250e-01 +5.4075336767661283e-03
-9.0000000000000002e-01 +8.1529770281158598e+00 +0.0000000000000000e+00 -8.9999999960910604e-01 -2.8207405875970235e-02 -5.3714102636441086e-01 +5.4074982438492517e-03
-1.0000000000000000e+00 +8.1529716396507901e+00 +0.0000000000000000e+00 -9.9999999946379403e-01 -2.8207461784431235e-02 -5.3714066693071194e-01 +5.4074595434030811e-03
-1.1000000000000001e+00 +8.1529656839775306e+00 +0.0000000000000000e+00 -1.0999999992863101e+00 -2.8207522460104155e-02 -5.3714029833082166e-01 +5.4074174279596593e-03
-1.2000000000000000e+00 +8.1529591610960797e+00 +0.0000000000000000e+00 -1.1999999990734400e+00 -2.8207588290969886e-02 -5.3713992012837841e-01 +5.4073717500514457e-03
-1.3000000000000000e+00 +8.1529520710100805e+00 +0.0000000000000000e+00 -1.2999999988219599e+00 -2.8207659665002036e-02 -5.3713953188698182e-01 +5.4073223622113850e-03
-1.3999999999999999e+00 +8.1529444137122500e+00 +0.0000000000000000e+00 -1.3999999985286500e+00 -2.8207736970172155e-02 -5.3713913317029849e-01 +5.4072691169740894e-03
-1.5000000000000000e+00 +8.1529361892135093e+00 +0.0000000000000000e+00 -1.4999999981903001e+00 -2.8207820594438212e-02 -5.3713872354184633e-01 +5.4072118668736522e-03
-1.6000000000000001e+00 +8.1529273975065699e+00 +0.0000000000000000e+00 -1.5999999978037001e+00 -2.8207910925758192e-02 -5.3713830256526196e-01 +5.4071504644465085e-03
-1.7000000000000000e+00 +8.1529180385914497e+00 +0.0000000000000000e+00 -1.6999999973656199e+00 -2.8208008352079896e-02 -5.3713786980410994e-01 +5.4070847622295316e-03
-1.8000000000000000e+00 +8.1529081124681397e+00 +0.0000000000000000e+00 -1.7999999968728499e+00 -2.8208113261343464e-02 -5.3713742482193727e-01 +5.4070146127606590e-03
-1.8999999999999999e+00 +8.1528976191402798e+00 +0.0000000000000000e+00 -1.8999999963221601e+00 -2.8208226041479528e-02 -5.3713696718224424e-01 +5.4069398685786798e-03
-2.0000000000000000e+00 +8.1528865586042194e+00 +0.0000000000000000e+00 -1.9999999957103500e+00 -2.8208347080413056e-02 -5.3713649644856398e-01 +5.4068603822241068e-03
-2.1000000000000001e+00 +8.1528749308599799e+00 +0.0000000000000000e+00 -2.0999999950341901e+00 -2.8208476560744735e-02 -5.3713601260580157e-01 +5.4067760587874214e-03
-2.2000000000000002e+00 +8.1528627359111905e+00 +0.0000000000000000e+00 -2.1999999942904802e+00 -2.8208613843812819e-02 -5.3713551732450771e-01 +5.4066870135553316e-03
-2.2999999999999998e+00 +8.1528499737542006e+00 +0.0000000000000000e+00 -2.2999999934759798e+00 -2.8208758085648239e-02 -5.3713501269671005e-01 +5.4065934143630945e-03
-2.3999999999999999e+00 +8.1528366443890299e+00 +0.0000000000000000e+00 -2.3999999925874800e+00 -2.8208908442286879e-02 -5.3713450081441505e-01 +5.4064954290442566e-03
-2.5000000000000000e+00 +8.1528227478193003e+00 +0.0000000000000000e+00 -2.4999999916217801e+00 -2.8209064069770865e-02 -5.3713398376961052e-01 +5.4063932254304397e-03
-2.6000000000000001e+00 +8.1528082840413791e+00 +0.0000000000000000e+00 -2.5999999905756401e+00 -2.8209224124153970e-02 -5.3713346365434766e-01 +5.4062869713519309e-03
-2.7000000000000002e+00 +8.1527932530552807e+00 +0.0000000000000000e+00 -2.6999999894458502e+00 -2.8209387761498700e-02 -5.3713294256066202e-01 +5.4061768346366336e-03
-2.7999999999999998e+00 +8.1527776548646198e+00 +0.0000000000000000e+00 -2.7999999882291999e+00 -2.8209554137877589e-02 -5.3713242258057647e-01 +5.4060629831098501e-03
-2.8999999999999999e+00 +8.1527614894657692e+00 +0.0000000000000000e+00 -2.8999999869224702e+00 -2.8209722409378600e-02 -5.3713190580618175e-01 +5.4059455845948652e-03
-3.0000000000000000e+00 +8.1527447568587394e+00 +0.0000000000000000e+00 -2.9999999855224302e+00 -2.8209891732102234e-02 -5.3713139432956103e-01 +5.4058248069119175e-03
-3.1000000000000001e+00 +8.1527274570471508e+00 +0.0000000000000000e+00 -3.0999999840258798e+00 -2.8210061262162769e-02 -5.3713089024278837e-01 +5.4057008178779479e-03
-3.2000000000000002e+00 +8.1527095900273707e+00 +0.0000000000000000e+00 -3.1999999824295902e+00 -2.8210230155693704e-02 -5.3713039563801379e-01 +5.4055737853072302e-03
-3.2999999999999998e+00 +8.1526911557994008e+00 +0.0000000000000000e+00 -3.2999999807303602e+00 -2.8210397568844834e-02 -5.3712991260738263e-01 +5.4054438770102841e-03
-3.3999999999999999e+00 +8.1526721543668792e+00 +0.0000000000000000e+00 -3.3999999789249502e+00 -2.8210562657783555e-02 -5.3712944324303946e-01 +5.4053112607936795e-03
-3.5000000000000000e+00 +8.1526525857261696e+00 +0.0000000000000000e+00 -3.4999999770101602e+00 -2.8210724578700219e-02 -5.3712898963720845e-01 +5.4051761044606279e-03
-3.6000000000000001e+00 +8.1526324498772702e+00 +0.0000000000000000e+00 -3.5999999749827598e+00 -2.8210882487805310e-02 -5.3712855388211711e-01 +5.4050385758099223e-03
-3.7000000000000002e+00 +8.1526117468238208e+00 +0.0000000000000000e+00 -3.6999999728395401e+00 -2.8211035541330629e-02 -5.3712813806999582e-01 +5.4048988426357216e-03
-3.7999999999999998e+00 +8.1525904765621799e+00 +0.0000000000000000e+00 -3.7999999705772902e+00 -2.8211182895534780e-02 -5.3712774429316212e-01 +5.4047570727281452e-03
-3.8999999999999999e+00 +8.1525686390959908e+00 +0.0000000000000000e+00 -3.8999999681927799e+00 -2.8211323706698824e-02 -5.3712737464391391e-01 +5.4046134338719427e-03
-4.0000000000000000e+00 +8.1525462344179704e+00 +0.0000000000000000e+00 -3.9999999656827998e+00 -2.8211457131134553e-02 -5.3712703121466665e-01 +5.4044680938476683e-03
-4.0999999999999996e+00 +8.1525232625354001e+00 +0.0000000000000000e+00 -4.0999999630441302e+00 -2.8211582589189217e-02 -5.3712671545750412e-01 +5.4043211808747346e-03
-4.2000000000000002e+00 +8.1524997234482708e+00 +0.0000000000000000e+00 -4.1999999602735496e+00 -2.8211700557284117e-02 -5.3712642626353979e-01 +5.4041726649496783e-03
-4.2999999999999998e+00 +8.1524756171529607e+00 +0.0000000000000000e+00 -4.2999999573678496e+00 -2.8211811775852098e-02 -5.3712616188366891e-01 +5.4040224765122659e-03
-4.4000000000000004e+00 +8.1524509436494608e+00 +0.0000000000000000e+00 -4.3999999543238104e+00 -2.8211916985317064e-02 -5.3712592056877639e-01 +5.4038705460000662e-03
-4.5000000000000000e+00 +8.1524257029377605e+00 +0.0000000000000000e+00 -4.4999999511382098e+00 -2.8212016926094489e-02 -5.3712570056976428e-01 +5.4037168038487196e-03
-4.5999999999999996e+00 +8.1523998950215208e+00 +0.0000000000000000e+00 -4.5999999478078299e+00 -2.8212112338589113e-02 -5.3712550013752425e-01 +5.4035611804916592e-03
-4.7000000000000002e+00 +8.1523735198970808e+00 +0.0000000000000000e+00 -4.6999999443294600e+00 -2.8212203963198255e-02 -5.3712531752302117e-01 +5.4034036063609634e-03
-4.7999999999999998e+00 +8.1523465775644599e+00 +0.0000000000000000e+00 -4.7999999406998803e+00 -2.8212292540306629e-02 -5.3712515097720992e-01 +5.4032440118864820e-03
-4.9000000000000004e+00 +8.1523190680272801e+00 +0.0000000000000000e+00 -4.8999999369158704e+00 -2.8212378810285505e-02 -5.3712499875103770e-01 +5.4030823274958733e-03
-5.0000000000000000e+00 +8.1522909912819195e+00 +0.0000000000000000e+00 -4.9999999329742204e+00 -2.8212463513495968e-02 -5.3712485909552465e-01 +5.4029184836154095e-03
-5.0999999999999996e+00 +8.1522623473319999e+00 +0.0000000000000000e+00 -5.0999999288717000e+00 -2.8212547390282394e-02 -5.3712473026165630e-01 +5.4027524106688785e-03
-5.2000000000000002e+00 +8.1522331361738907e+00 +0.0000000000000000e+00 -5.1999999246051098e+00 -2.8212631180977166e-02 -5.3712461050049187e-01 +5.4025840390786797e-03
-5.2999999999999998e+00 +8.1522033578075899e+00 +0.0000000000000000e+00 -5.2999999201712198e+00 -2.8212715625895543e-02 -5.3712449806308393e-01 +5.4024132992650043e-03
-5.4000000000000004e+00 +8.1521730122331100e+00 +0.0000000000000000e+00 -5.3999999155668199e+00 -2.8212801465336144e-02 -5.3712439120050537e-01 +5.4022401216460977e-03
-5.5000000000000000e+00 +8.1521420994540694e+00 +0.0000000000000000e+00 -5.4999999107886799e+00 -2.8212889439578684e-02 -5.3712428816382363e-01 +5.4020644366379964e-03
-5.5999999999999996e+00 +8.1521106194668391e+00 +0.0000000000000000e+00 -5.5999999058335996e+00 -2.8212980288887166e-02 -5.3712418720418087e-01 +5.4018861746553308e-03
-5.7000000000000002e+00 +8.1520785722750606e+00 +0.0000000000000000e+00 -5.6999999006983604e+00 -2.8213074753503466e-02 -5.3712408657268773e-01 +5.4017052661102525e-03
-5.7999999999999998e+00 +8.1520459578750906e+00 +0.0000000000000000e+00 -5.7999998953797300e+00 -2.8213173573651995e-02 -5.3712398452053045e-01 +5.4015216414135094e-03
-5.9000000000000004e+00 +8.1520127762669308e+00 +0.0000000000000000e+00 -5.8999998898744996e+00 -2.8213277489534526e-02 -5.3712387929889072e-01 +5.4013352309736310e-03
-5.9999999999999902e+00 +8.1519790274505795e+00 +0.0000000000000000e+00 -5.9999998841794504e+00 -2.8213387241330767e-02 -5.3712376915897397e-01 +5.4011459651971917e-03
-6.0999999999999899e+00 +8.1519447114296799e+00 +0.0000000000000000e+00 -6.0999998782913698e+00 -2.8213503474947166e-02 -5.3712365287222141e-01 +5.4009538136881282e-03
-6.1999999999999904e+00 +8.1519098282005906e+00 +0.0000000000000000e+00 -6.1999998722070400e+00 -2.8213626459277899e-02 -5.3712353129110757e-01 +5.4007589028504952e-03
-6.2999999999999901e+00 +8.1518743777669407e+00 +0.0000000000000000e+00 -6.2999998659232403e+00 -2.8213756368955484e-02 -5.3712340578828621e-01 +5.4005613982930451e-03
-6.3999999999999897e+00 +8.1518383601214701e+00 +0.0000000000000000e+00 -6.3999998594367504e+00 -2.8213893378608315e-02 -5.3712327773647739e-01 +5.4003614656317365e-03
-6.4999999999999902e+00 +8.1518017752750893e+00 +0.0000000000000000e+00 -6.4999998527443603e+00 -2.8214037662849273e-02 -5.3712314850825160e-01 +5.4001592704878282e-03
-6.5999999999999899e+00 +8.1517646232205205e+00 +0.0000000000000000e+00 -6.5999998458428504e+00 -2.8214189396289450e-02 -5.3712301947629570e-01 +5.3999549784909586e-03
-6.6999999999999904e+00 +8.1517269039541098e+00 +0.0000000000000000e+00 -6.6999998387290001e+00 -2.8214348753529531e-02 -5.3712289201325325e-01 +5.3997487552778153e-03
-6.7999999999999901e+00 +8.1516886174867995e+00 +0.0000000000000000e+00 -6.7999998313996004e+00 -2.8214515909155347e-02 -5.3712276749164056e-01 +5.3995407664916058e-03
-6.8999999999999897e+00 +8.1516497638112906e+00 +0.0000000000000000e+00 -6.8999998238514202e+00 -2.8214691037750209e-02 -5.3712264728408832e-01 +5.3993311777848930e-03
-6.9999999999999902e+00 +8.1516103429239593e+00 +0.0000000000000000e+00 -6.9999998160812602e+00 -2.8214874313886317e-02 -5.3712253276317945e-01 +5.3991201548182211e-03
-7.0999999999999899e+00 +8.1515703548320708e+00 +0.0000000000000000e+00 -7.0999998080858804e+00 -2.8215065912121667e-02 -5.3712242530139365e-01 +5.3989078632599016e-03
-7.1999999999999904e+00 +8.1515297995356395e+00 +0.0000000000000000e+00 -7.1999997998620904e+00 -2.8215266007006863e-02 -5.3712232627124112e-01 +5.3986944687876995e-03
-7.2999999999999901e+00 +8.1514886770310095e+00 +0.0000000000000000e+00 -7.2999997914066501e+00 -2.8215474773083393e-02 -5.3712223704523387e-01 +5.3984801370888921e-03
-7.3999999999999897e+00 +8.1514469873182005e+00 +0.0000000000000000e+00 -7.3999997827163604e+00 -2.8215692384880673e-02 -5.3712215899583182e-01 +5.3982650338600165e-03
-7.4999999999999902e+00 +8.1514047304008308e+00 +0.0000000000000000e+00 -7.4999997737879900e+00 -2.8215919016915787e-02 -5.3712209349544093e-01 +5.3980493248071961e-03
-7.5999999999999899e+00 +8.1513619062752696e+00 +0.0000000000000000e+00 -7.5999997646183202e+00 -2.8216154843697373e-02 -5.3712204191649326e-01 +5.3978331756472826e-03
-7.6999999999999904e+00 +8.1513185149451601e+00 +0.0000000000000000e+00 -7.6999997552041499e+00 -2.8216400039719897e-02 -5.3712200563133783e-01 +5.3976167521070711e-03
-7.7999999999999901e+00 +8.1512745564032194e+00 +0.0000000000000000e+00 -7.7999997455422498e+00 -2.8216654779470302e-02 -5.3712198601237404e-01 +5.3974002199250028e-03
-7.8999999999999897e+00 +8.1512300306567305e+00 +0.0000000000000000e+00 -7.8999997356294100e+00 -2.8216919237418061e-02 -5.3712198443186232e-01 +5.3971837448495317e-03
-7.9999999999999902e+00 +8.1511849377056897e+00 +0.0000000000000000e+00 -7.9999997254624002e+00 -2.8217193588023250e-02 -5.3712200226208484e-01 +5.3969674926411240e-03
-8.0999999999999908e+00 +8.1511392775464593e+00 +0.0000000000000000e+00 -8.0999997150380096e+00 -2.8217477641946192e-02 -5.3712204046213308e-01 +5.3967515746953113e-03
-8.1999999999999904e+00 +8.1510930501790408e+00 +0.0000000000000000e+00 -8.1999997043530293e+00 -2.8217769754673952e-02 -5.3712209833828506e-01 +5.3965358849049896e-03
-8.2999999999999901e+00 +8.1510462556034309e+00 +0.0000000000000000e+00 -8.2999996934042404e+00 -2.8218067917907527e-02 -5.3712217478357893e-01 +5.3963202627843121e-03
-8.3999999999999897e+00 +8.1509988938232691e+00 +0.0000000000000000e+00 -8.3999996821884100e+00 -2.8218370123357671e-02 -5.3712226869097590e-01 +5.3961045478449878e-03
-8.4999999999999893e+00 +8.1509509648349194e+00 +0.0000000000000000e+00 -8.4999996707023406e+00 -2.8218674362749455e-02 -5.3712237895343695e-01 +5.3958885795969873e-03
-8.5999999999999908e+00 +8.1509024686420197e+00 +0.0000000000000000e+00 -8.5999996589427994e+00 -2.8218978627817286e-02 -5.3712250446381660e-01 +5.3956721975473212e-03
-8.6999999999999904e+00 +8.1508534052409196e+00 +0.0000000000000000e+00 -8.6999996469065692e+00 -2.8219280910310850e-02 -5.3712264411496602e-01 +5.3954552412010257e-03
-8.7999999999999794e+00 +8.1508037746316404e+00 +0.0000000000000000e+00 -8.7999996345904599e+00 -2.8219579201991491e-02 -5.3712279679965180e-01 +5.3952375500602202e-03
-8.8999999999999808e+00 +8.1507535768178094e+00 +0.0000000000000000e+00 -8.8999996219912205e+00 -2.8219871494632665e-02 -5.3712296141055615e-01 +5.3950189636239789e-03
-8.9999999999999805e+00 +8.1507028117957798e+00 +0.0000000000000000e+00 -8.9999996091056396e+00 -2.8220155780024632e-02 -5.3712313684035429e-01 +5.3947993213890452e-03
-9.0999999999999801e+00 +8.1506514795655693e+00 +0.0000000000000000e+00 -9.0999995959305195e+00 -2.8220430049970682e-02 -5.3712332198163126e-01 +5.3945784628488865e-03
-9.1999999999999797e+00 +8.1505995801308000e+00 +0.0000000000000000e+00 -9.1999995824626293e+00 -2.8220692296287757e-02 -5.3712351572688410e-01 +5.3943562274935738e-03
-9.2999999999999794e+00 +8.1505471134878498e+00 +0.0000000000000000e+00 -9.2999995686987500e+00 -2.8220940510810952e-02 -5.3712371696859618e-01 +5.3941324548104873e-03
-9.3999999999999808e+00 +8.1504940796366991e+00 +0.0000000000000000e+00 -9.3999995546356701e+00 -2.8221172685389980e-02 -5.3712392459915981e-01 +5.3939069842833792e-03
-9.4999999999999805e+00 +8.1504404785773694e+00 +0.0000000000000000e+00 -9.4999995402701707e+00 -2.8221386811890931e-02 -5.3712413751089705e-01 +5.3936796553925208e-03
-9.5999999999999801e+00 +8.1503863103171206e+00 +0.0000000000000000e+00 -9.5999995255990296e+00 -2.8221580882194054e-02 -5.3712435459600860e-01 +5.3934503076140342e-03
-9.6999999999999797e+00 +8.1503315748450404e+00 +0.0000000000000000e+00 -9.6999995106190298e+00 -2.8221752888203937e-02 -5.3712457474675734e-01 +5.3932187804217211e-03
-9.7999999999999794e+00 +8.1502762721684103e+00 +0.0000000000000000e+00 -9.7999994953269702e+00 -2.8221900821836118e-02 -5.3712479685519965e-01 +5.3929849132841575e-03
-9.8999999999999808e+00 +8.1502204022835905e+00 +0.0000000000000000e+00 -9.8999994797196091e+00 -2.8222022675028716e-02 -5.3712501981339822e-01 +5.3927485456668027e-03
-9.9999999999999805e+00 +8.1501639651905897e+00 +0.0000000000000000e+00 -9.9999994637937508e+00 -2.8222116439737287e-02 -5.3712524251331317e-01 +5.3925095170307760e-03
-1.0100000000000000e+01 +8.1501069608966592e+00 +0.0000000000000000e+00 -1.0099999447546200e+01 -2.8222180778416872e-02 -5.3712546399982786e-01 +5.3922677380826185e-03
-1.0199999999999999e+01 +8.1500493893909205e+00 +0.0000000000000000e+00 -1.0199999430973600e+01 -2.8222217035525975e-02 -5.3712568393015070e-01 +5.3920234045312663e-03
-1.0300000000000001e+01 +8.1499912506769796e+00 +0.0000000000000000e+00 -1.0299999414073000e+01 -2.8222227226048353e-02 -5.3712590211448785e-01 +5.3917767833328162e-03
-1.0400000000000000e+01 +8.1499325447584905e+00 +0.0000000000000000e+00 -1.0399999396840901e+01 -2.8222213364995263e-02 -5.3712611836310542e-01 +5.3915281414390719e-03
-1.0500000000000000e+01 +8.1498732716317992e+00 +0.0000000000000000e+00 -1.0499999379274200e+01 -2.8222177467408918e-02 -5.3712633248638486e-01 +5.3912777457979814e-03
-1.0600000000000000e+01 +8.1498134313005703e+00 +0.0000000000000000e+00 -1.0599999361369800e+01 -2.8222121548357522e-02 -5.3712654429471751e-01 +5.3910258633524267e-03
-1.0699999999999999e+01 +8.1497530237611500e+00 +0.0000000000000000e+00 -1.0699999343124301e+01 -2.8222047622941480e-02 -5.3712675359861273e-01 +5.3907727610411939e-03
-1.0800000000000001e+01 +8.1496920490171796e+00 +0.0000000000000000e+00 -1.0799999324534600e+01 -2.8221957706288433e-02 -5.3712696020859518e-01 +5.3905187057977644e-03
-1.0900000000000000e+01 +8.1496305070650106e+00 +0.0000000000000000e+00 -1.0899999305597399e+01 -2.8221853813559499e-02 -5.3712716393531057e-01 +5.3902639645513088e-03
-1.1000000000000000e+01 +8.1495683979046607e+00 +0.0000000000000000e+00 -1.0999999286309500e+01 -2.8221737959945634e-02 -5.3712736458944910e-01 +5.3900088042257138e-03
-1.1100000000000000e+01 +8.1495057215361193e+00 +0.0000000000000000e+00 -1.1099999266667700e+01 -2.8221612160669707e-02 -5.3712756198177392e-01 +5.3897534917397797e-03
-1.1199999999999999e+01 +8.1494424779630208e+00 +0.0000000000000000e+00 -1.1199999246668799e+01 -2.8221478430985783e-02 -5.3712775592309547e-01 +5.3894982940067915e-03
-1.1300000000000001e+01 +8.1493786671817396e+00 +0.0000000000000000e+00 -1.1299999226309600e+01 -2.8221338786183773e-02 -5.3712794622435434e-01 +5.3892434779352532e-03
-1.1400000000000000e+01 +8.1493142891922599e+00 +0.0000000000000000e+00 -1.1399999205586900e+01 -2.8221195241586026e-02 -5.3712813269654247e-01 +5.3889893104279302e-03
-1.1500000000000000e+01 +8.1492493440018698e+00 +0.0000000000000000e+00 -1.1499999184497300e+01 -2.8221049812546459e-02 -5.3712831515067849e-01 +5.3887360583814627e-03
-1.1600000000000000e+01 +8.1491838315996592e+00 +0.0000000000000000e+00 -1.1599999163037801e+01 -2.8220904514460968e-02 -5.3712849339799607e-01 +5.3884839886881707e-03
-1.1699999999999999e+01 +8.1491177519928897e+00 +0.0000000000000000e+00 -1.1699999141205099e+01 -2.8220761362754126e-02 -5.3712866724967900e-01 +5.3882333682331845e-03
