# multipoles
# s[mm] polynom_b[n=0][T/m^n] polynom_b[n=1][T/m^n] polynom_b[n=2][T/m^n] polynom_b[n=3][T/m^n] polynom_b[n=4][T/m^n] polynom_b[n=5][T/m^n] polynom_b[n=6][T/m^n] 
+0.0000000000000000e+00 -5.9244490122931326e-01 +8.1173821094024223e+00 +6.8291781670913732e-01 -1.3226034526115527e+02 -1.1496934228760394e+04 +5.6708707107225806e+05 +3.2868583894126780e+07 
+1.0000000000000001e-01 -5.9244495296408084e-01 +8.1173610926597721e+00 +6.8886467238063953e-01 -1.3178498690801078e+02 -1.1547963232445898e+04 +5.6422727545819362e+05 +3.2947922505146429e+07 
+2.0000000000000001e-01 -5.9244499349840596e-01 +8.1173385454452625e+00 +6.9387518547912619e-01 -1.3122529520790036e+02 -1.1587417401569563e+04 +5.6075811753159121e+05 +3.2990459086302727e+07 
+3.0000000000000004e-01 -5.9244502340228844e-01 +8.1173145259129882e+00 +6.9797607685937346e-01 -1.3058700508323423e+02 -1.1615564294209022e+04 +5.5672596052715473e+05 +3.2996929587432515e+07 
+4.0000000000000002e-01 -5.9244504324573743e-01 +8.1172890922221264e+00 +7.0119406810211715e-01 -1.2987585157715833e+02 -1.1632671480785179e+04 +5.5217716822749912e+05 +3.2968070025158595e+07 
+5.0000000000000000e-01 -5.9244505359872313e-01 +8.1172623025432475e+00 +7.0355587529606889e-01 -1.2909757005818756e+02 -1.1639006424683863e+04 +5.4715810621729936e+05 +3.2904615910592344e+07 
+5.9999999999999998e-01 -5.9244505503123635e-01 +8.1172342150449683e+00 +7.0508821713253012e-01 -1.2825789580789760e+02 -1.1634836639409552e+04 +5.4171513942274230e+05 +3.2807303001684744e+07 
+6.9999999999999996e-01 -5.9244504811323673e-01 +8.1172048879072847e+00 +7.0581780803162075e-01 -1.2736256443084923e+02 -1.1620429557895699e+04 +5.3589463455495925e+05 +3.2676866681351889e+07 
+7.9999999999999993e-01 -5.9244503341469201e-01 +8.1171743793103808e+00 +7.0577136352693048e-01 -1.2641731153290891e+02 -1.1596052634208292e+04 +5.2974295826096693e+05 +3.2514042435568135e+07 
+8.9999999999999991e-01 -5.9244501150557172e-01 +8.1171427474445110e+00 +7.0497559950649880e-01 -1.2542787299641745e+02 -1.1561973332838490e+04 +5.2330647868302540e+05 +3.2319565811991312e+07 
+9.9999999999999989e-01 -5.9244498295582548e-01 +8.1171100504998233e+00 +7.0345722942002620e-01 -1.2439998470097866e+02 -1.1518459071604662e+04 +5.1663156388639903e+05 +3.2094172133634824e+07 
+1.0999999999999999e+00 -5.9244494833542360e-01 +8.1170763466721212e+00 +7.0124297013312586e-01 -1.2333938268712575e+02 -1.1465777341156183e+04 +5.0976458280766103e+05 +3.1838597088707469e+07 
+1.2000000000000000e+00 -5.9244490821430029e-01 +8.1170416941612764e+00 +6.9835953419618857e-01 -1.2225180311033402e+02 -1.1404195551947942e+04 +5.0275190498406108e+05 +3.1553575983556423e+07 
+1.3000000000000000e+00 -5.9244486316245770e-01 +8.1170061511667981e+00 +6.9483364326246111e-01 -1.2114298212539633e+02 -1.1333981291175860e+04 +4.9563989992540033e+05 +3.1239844967631150e+07 
+1.4000000000000001e+00 -5.9244481374981195e-01 +8.1169697758991273e+00 +6.9069200905523342e-01 -1.2001865620717179e+02 -1.1255401965109149e+04 +4.8847493895585072e+05 +3.0898139341327947e+07 
+1.5000000000000002e+00 -5.9244476054638362e-01 +8.1169326265646600e+00 +6.8596135725679497e-01 -1.1888456172076646e+02 -1.1168725251207668e+04 +4.8130339273929421e+05 +3.0529195699439034e+07 
+1.6000000000000003e+00 -5.9244470412212047e-01 +8.1168947613742564e+00 +6.8066840546222529e-01 -1.1774643517903006e+02 -1.1074218680329801e+04 +4.7417163279975380e+05 +3.0133749943734709e+07 
+1.7000000000000004e+00 -5.9244464504703442e-01 +8.1168562385436811e+00 +6.7483988042109933e-01 -1.1661001324130957e+02 -1.0972149965994411e+04 +4.6712603148098872e+05 +2.9712538853398845e+07 
+1.8000000000000005e+00 -5.9244458389110033e-01 +8.1168171162876881e+00 +6.6850250552811985e-01 -1.1548103256238078e+02 -1.0862786765873283e+04 +4.6021296112761763e+05 +2.9266298943976711e+07 
+1.9000000000000006e+00 -5.9244452122434432e-01 +8.1167774528205268e+00 +6.6168301200452939e-01 -1.1436522979645240e+02 -1.0746396897183229e+04 +4.5347879408770351e+05 +2.8795767498853847e+07 
+2.0000000000000004e+00 -5.9244445761679132e-01 +8.1167373063640831e+00 +6.5440813221538008e-01 -1.1326834185029725e+02 -1.0623248207253067e+04 +4.4696990421993140e+05 +2.8301681945071150e+07 
+2.1000000000000005e+00 -5.9244439358000733e-01 +8.1166967502904299e+00 +6.4670613883011696e-01 -1.1219532391708842e+02 -1.0493691259292666e+04 +4.4072426354705985e+05 +2.7785208158165745e+07 
+2.2000000000000006e+00 -5.9244432938383196e-01 +8.1166559162549259e+00 +6.3861013717535320e-01 -1.1114793008982932e+02 -1.0358395362213732e+04 +4.3474595141147461e+05 +2.7249227236818891e+07 
+2.3000000000000007e+00 -5.9244426523570226e-01 +8.1166149498855322e+00 +6.3015411279814437e-01 -1.1012709411117298e+02 -1.0218106603541870e+04 +4.2903048989691486e+05 +2.6697049993127685e+07 
+2.4000000000000008e+00 -5.9244420134304099e-01 +8.1165739968113861e+00 +6.2137204895276610e-01 -1.0913374972185170e+02 -1.0073571023785154e+04 +4.2357340097005398e+05 +2.6131987005530633e+07 
+2.5000000000000009e+00 -5.9244413791331518e-01 +8.1165332026607082e+00 +6.1229793402894761e-01 -1.0816883057917646e+02 -9.9255347562756833e+03 +4.1837020594930561e+05 +2.5557349281184599e+07 
+2.6000000000000010e+00 -5.9244407515396902e-01 +8.1164927130625291e+00 +6.0296575305090316e-01 -1.0723327032439244e+02 -9.7747438687325830e+03 +4.1341642595811409e+05 +2.4976447512687668e+07 
+2.7000000000000011e+00 -5.9244401327247809e-01 +8.1164526736408167e+00 +5.9340949424888867e-01 -1.0632800238063834e+02 -9.6219444825758183e+03 +4.0870758065740706e+05 +2.4392592630506739e+07 
+2.8000000000000012e+00 -5.9244395247631587e-01 +8.1164132300269216e+00 +5.8366314474237824e-01 -1.0545396034015407e+02 -9.4678826912424283e+03 +4.0423919057657884e+05 +2.3809095415560953e+07 
+2.9000000000000012e+00 -5.9244389297296540e-01 +8.1163745278390795e+00 +5.7376069181566536e-01 -1.0461207733771585e+02 -9.3133045847433223e+03 +4.0000677339176717e+05 +2.3229266619885534e+07 
+3.0000000000000013e+00 -5.9244383496992969e-01 +8.1163367127065875e+00 +5.6373612456664957e-01 -1.0380328676627626e+02 -9.1589562809013896e+03 +3.9600584811986471e+05 +2.2656417114142280e+07 
+3.1000000000000014e+00 -5.9244377867472120e-01 +8.1162999302455372e+00 +5.5362343170506312e-01 -1.0302852155413161e+02 -9.0055838794087977e+03 +3.9223193087926466e+05 +2.2093857660442337e+07 
+3.2000000000000015e+00 -5.9244372429485070e-01 +8.1162643260745373e+00 +5.4345660103586624e-01 -1.0228871462358923e+02 -8.8539334555110072e+03 +3.8868053756609152e+05 +2.1544898890102625e+07 
+3.3000000000000016e+00 -5.9244367203787507e-01 +8.1162300458142909e+00 +5.3326962442157222e-01 -1.0158479888280559e+02 -8.7047511497880132e+03 +3.8534718380784208e+05 +2.1012851722118732e+07 
+3.4000000000000017e+00 -5.9244362211131463e-01 +8.1161972350760063e+00 +5.2309648785284790e-01 -1.0091770685522380e+02 -8.5587829803567583e+03 +3.8222738274190173e+05 +2.0501026472033728e+07 
+3.5000000000000018e+00 -5.9244357472274645e-01 +8.1161660394650212e+00 +5.1297118274193398e-01 -1.0028837082168454e+02 -8.4167750556188003e+03 +3.7931664593684283e+05 +2.0012733859665807e+07 
+3.6000000000000019e+00 -5.9244353007974004e-01 +8.1161366045919969e+00 +5.0292769792007963e-01 -9.9697723097592018e+01 -8.2794734227759145e+03 +3.7661048486591113e+05 +1.9551284291349731e+07 
+3.7000000000000020e+00 -5.9244348838987593e-01 +8.1161090760553130e+00 +4.9300002140696259e-01 -9.9146695558299882e+01 -8.1476240965102688e+03 +3.7410440827384952e+05 +1.9119987984064262e+07 
+3.8000000000000020e+00 -5.9244344986075748e-01 +8.1160835994586229e+00 +4.8322214309470207e-01 -9.8636220103664883e+01 -8.0219731179404489e+03 +3.7179392473895062e+05 +1.8722155267102353e+07 
+3.9000000000000021e+00 -5.9244341470000927e-01 +8.1160603203904227e+00 +4.7362805297684779e-01 -9.8167228094734341e+01 -7.9032665120075517e+03 +3.6967453949625348e+05 +1.8361096357565302e+07 
+4.0000000000000018e+00 -5.9244338311525724e-01 +8.1160393844432281e+00 +4.6425173866521929e-01 -9.7740650883954700e+01 -7.7922502393717104e+03 +3.6774175746322202e+05 +1.8040121131653395e+07 
+4.1000000000000014e+00 -5.9244335535640702e-01 +8.1160208903496347e+00 +4.5512372978404869e-01 -9.7356966559559055e+01 -7.6894931094742951e+03 +3.6599094530679082e+05 +1.7761540474481869e+07 
+4.2000000000000011e+00 -5.9244333184678910e-01 +8.1160047577417895e+00 +4.4626258434843169e-01 -9.7015187849291223e+01 -7.5948789622629693e+03 +3.6441863899845019e+05 +1.7523729188128483e+07 
+4.3000000000000007e+00 -5.9244331305419162e-01 +8.1159908635178795e+00 +4.3768432051515777e-01 -9.6714048917620431e+01 -7.5081257391496902e+03 +3.6302210918190522e+05 +1.7324090165436964e+07 
+4.4000000000000004e+00 -5.9244329944635432e-01 +8.1159790845651578e+00 +4.2940495091898656e-01 -9.6452283709342339e+01 -7.4289512758462834e+03 +3.6179862566816813e+05 +1.7160025787057217e+07 
+4.5000000000000000e+00 -5.9244329149102848e-01 +8.1159692977644600e+00 +4.2144049116234350e-01 -9.6228626105833712e+01 -7.3570734746084072e+03 +3.6074545843475370e+05 +1.7028938773559272e+07 
+4.5999999999999996e+00 -5.9244328965598614e-01 +8.1159613799888408e+00 +4.1380695976338872e-01 -9.6041809882498939e+01 -7.2922102917612328e+03 +3.5985987737747648e+05 +1.6928232091722220e+07 
+4.6999999999999993e+00 -5.9244329440895027e-01 +8.1159552081010009e+00 +4.0652036979983880e-01 -9.5890568638934568e+01 -7.2340795846418168e+03 +3.5913915193427546e+05 +1.6855308244048771e+07 
+4.7999999999999989e+00 -5.9244330621768027e-01 +8.1159506589518120e+00 +3.9959674022215036e-01 -9.5773635781901831e+01 -7.1823993289654409e+03 +3.5858055106344307e+05 +1.6807570307292018e+07 
+4.8999999999999986e+00 -5.9244332554990764e-01 +8.1159476093798411e+00 +3.9305208752647641e-01 -9.5689744495348265e+01 -7.1368874577077613e+03 +3.5818134303254588e+05 +1.6782421157619879e+07 
+4.9999999999999982e+00 -5.9244335287337324e-01 +8.1159459362189388e+00 +3.8690243022543619e-01 -9.5637628004997524e+01 -7.0972619467856985e+03 +3.5793879709472961e+05 +1.6777263881225400e+07 
+5.0999999999999979e+00 -5.9244338865579937e-01 +8.1159455162880647e+00 +3.8116378584743665e-01 -9.5616019247556395e+01 -7.0632407609555039e+03 +3.5785018147735304e+05 +1.6789501524050616e+07 
+5.1999999999999975e+00 -5.9244343336490179e-01 +8.1159462263902586e+00 +3.7585217213349309e-01 -9.5623650888957258e+01 -7.0345418718488927e+03 +3.5791276362459868e+05 +1.6816537162760917e+07 
+5.2999999999999972e+00 -5.9244348746840270e-01 +8.1159479433210748e+00 +3.7098360946646786e-01 -9.5659255552808602e+01 -7.0108833130700978e+03 +3.5812381149765092e+05 +1.6855774192702103e+07 
+5.3999999999999968e+00 -5.9244355143399952e-01 +8.1159505438653579e+00 +3.6657411597481748e-01 -9.5721565744533109e+01 -6.9919830779752037e+03 +3.5848059318948927e+05 +1.6904615815967277e+07 
+5.4999999999999964e+00 -5.9244362572939657e-01 +8.1159539047888281e+00 +3.6263971221956282e-01 -9.5809313611440572e+01 -6.9775592158683057e+03 +3.5898037555399601e+05 +1.6960465517796546e+07 
+5.5999999999999961e+00 -5.9244371082226566e-01 +8.1159579028458673e+00 +3.5919641638699107e-01 -9.5921231196859537e+01 -6.9673297378762763e+03 +3.5962042577376391e+05 +1.7020726610251062e+07 
+5.6999999999999957e+00 -5.9244380718030409e-01 +8.1159624147803626e+00 +3.5626025149060836e-01 -9.6056050442936552e+01 -6.9610127571455141e+03 +3.6039801131617132e+05 +1.7082802908714741e+07 
+5.7999999999999954e+00 -5.9244391527115359e-01 +8.1159673173131068e+00 +3.5384723483678798e-01 -9.6212502849183863e+01 -6.9583262830357362e+03 +3.6131039803476876e+05 +1.7144097737022683e+07 
+5.8999999999999950e+00 -5.9244403556247671e-01 +8.1159724871604677e+00 +3.5197338840919856e-01 -9.6389320025543910e+01 -6.9589884255896950e+03 +3.6235485343060852e+05 +1.7202014918565422e+07 
+5.9999999999999947e+00 -5.9244416852193071e-01 +8.1159778010153136e+00 +3.5065473535713454e-01 -9.6585233158305201e+01 -6.9627173279655917e+03 +3.6352864357285213e+05 +1.7253958452181075e+07 
+6.0999999999999943e+00 -5.9244431445680890e-01 +8.1159831518293917e+00 +3.4990200027927532e-01 -9.6799143295912913e+01 -6.9693267164096396e+03 +3.6482929826915852e+05 +1.7298268965917312e+07 
+6.1999999999999940e+00 -5.9244447303096104e-01 +8.1159884810075464e+00 +3.4970384586116032e-01 -9.7029798146256113e+01 -6.9790041067517377e+03 +3.6625014142120455e+05 +1.7337020657396078e+07 
+6.2999999999999936e+00 -5.9244464374666672e-01 +8.1159937379210092e+00 +3.5004321667712229e-01 -9.7275696825361678e+01 -6.9920298893070831e+03 +3.6778211413577781e+05 +1.7373228540223762e+07 
+6.3999999999999932e+00 -5.9244482610618143e-01 +8.1159988719481717e+00 +3.5090305510284647e-01 -9.7535338511816349e+01 -7.0086844205974721e+03 +3.6941615717580012e+05 +1.7409907490574222e+07 
+6.4999999999999929e+00 -5.9244501961176643e-01 +8.1160038324799260e+00 +3.5226630394045955e-01 -9.7807222623201440e+01 -7.0292480604300399e+03 +3.7114321199725108e+05 +1.7450072387107782e+07 
+6.5999999999999925e+00 -5.9244522376565323e-01 +8.1160085689220285e+00 +3.5411590277236182e-01 -9.8089848853005421e+01 -7.0540011129733803e+03 +3.7295422086778976e+05 +1.7496737863827057e+07 
+6.6999999999999922e+00 -5.9244543807007854e-01 +8.1160130306875171e+00 +3.5643479211020057e-01 -9.8381716979427694e+01 -7.0832238997200002e+03 +3.7484012581069069e+05 +1.7552918636641633e+07 
+6.7999999999999918e+00 -5.9244566202726656e-01 +8.1160171672047028e+00 +3.5920591097588822e-01 -9.8681327056425744e+01 -7.1171967146448687e+03 +3.7679186958690669e+05 +1.7621629296640441e+07 
+6.8999999999999915e+00 -5.9244589513939616e-01 +8.1160209279171003e+00 +3.6241219316709883e-01 -9.8987179429309052e+01 -7.1561997540806997e+03 +3.7880039581566607e+05 +1.7705883975787904e+07 
+6.9999999999999911e+00 -5.9244613690867276e-01 +8.1160242622818206e+00 +3.6603657574837961e-01 -9.9297774658742597e+01 -7.2005132780041822e+03 +3.8085664843325026e+05 +1.7808697118752152e+07 
+7.0999999999999908e+00 -5.9244638683728834e-01 +8.1160271197725429e+00 +3.7006199460815120e-01 -9.9611613631625445e+01 -7.2504175234865870e+03 +3.8295157239560329e+05 +1.7933083059711013e+07 
+7.1999999999999904e+00 -5.9244664442737827e-01 +8.1160294498760415e+00 +3.7447137888266818e-01 -9.9927197416929459e+01 -7.3061926043499316e+03 +3.8507611269109015e+05 +1.8082055565807343e+07 
+7.2999999999999901e+00 -5.9244690918110743e-01 +8.1160312020957690e+00 +3.7924766115761555e-01 -1.0024302739290387e+02 -7.3681186971030220e+03 +3.8722121513583662e+05 +1.8258628698290810e+07 
+7.3999999999999897e+00 -5.9244718060059531e-01 +8.1160323259552989e+00 +3.8437376892276598e-01 -1.0055760531381588e+02 -7.4364758838619045e+03 +3.8937782664584153e+05 +1.8465816078061841e+07 
+7.4999999999999893e+00 -5.9244745818796618e-01 +8.1160327709915077e+00 +3.8983263049283501e-01 -1.0086943313095992e+02 -7.5115442654793433e+03 +3.9153689424015832e+05 +1.8706631429132819e+07 
+7.5999999999999890e+00 -5.9244774144531531e-01 +8.1160324867677058e+00 +3.9560717086407066e-01 -1.0117701335714231e+02 -7.5936038802863850e+03 +3.9368936708512367e+05 +1.8984088182214152e+07 
+7.6999999999999886e+00 -5.9244802987473233e-01 +8.1160314228531441e+00 +4.0168031405111221e-01 -1.0147884844876214e+02 -7.6829347469657914e+03 +3.9582619282775739e+05 +1.9301199677677419e+07 
+7.7999999999999883e+00 -5.9244832297827088e-01 +8.1160295288473137e+00 +4.0803498060505800e-01 -1.0177344153381605e+02 -7.7798168243205864e+03 +3.9793832187382109e+05 +1.9660978990159575e+07 
+7.8999999999999879e+00 -5.9244862025799994e-01 +8.1160267543667715e+00 +4.1465409262667546e-01 -1.0205929599535767e+02 -7.8845300981258533e+03 +4.0001670484649640e+05 +2.0066439321400817e+07 
+7.9999999999999876e+00 -5.9244892121593451e-01 +8.1160230490496108e+00 +4.2152056560481138e-01 -1.0233491558081826e+02 -7.9973544259243281e+03 +4.0205229318260646e+05 +2.0520593259798791e+07 
+8.0999999999999872e+00 -5.9244922533314082e-01 +8.1160183911009280e+00 +4.2861511062717605e-01 -1.0259924934237399e+02 -8.1183929783875537e+03 +4.0403759671991062e+05 +2.1025226980010223e+07 
+8.1999999999999869e+00 -5.9244953200670070e-01 +8.1160128896378509e+00 +4.3590792356252495e-01 -1.0285398046535829e+02 -8.2470106979102729e+03 +4.0597768495153019e+05 +2.1577088866038702e+07 
+8.2999999999999865e+00 -5.9244984061294681e-01 +8.1160066908270068e+00 +4.4336613063283842e-01 -1.0310171729323874e+02 -8.3823777057223542e+03 +4.0788236140903377e+05 +2.2171617626514286e+07 
+8.3999999999999861e+00 -5.9245015052820571e-01 +8.1159999408320633e+00 +4.5095685536533997e-01 -1.0334506818378473e+02 -8.5236640456491459e+03 +4.0976143019015942e+05 +2.2804251533160858e+07 
+8.4999999999999858e+00 -5.9245046112881494e-01 +8.1159927858225540e+00 +4.5864722109368383e-01 -1.0358664177083935e+02 -8.6700397412387229e+03 +4.1162469755392341e+05 +2.3470428719192278e+07 
+8.5999999999999854e+00 -5.9245077179114958e-01 +8.1159853719683408e+00 +4.6640435340402103e-01 -1.0382904676995562e+02 -8.8206748320311744e+03 +4.1348197070708330e+05 +2.4165587322770219e+07 
+8.6999999999999851e+00 -5.9245108189162687e-01 +8.1159778454342479e+00 +4.7419538103502579e-01 -1.0407489185540651e+02 -8.9747393973041162e+03 +4.1534305718798668e+05 +2.4885165620660532e+07 
+8.7999999999999847e+00 -5.9245139080665499e-01 +8.1159703523932354e+00 +4.8198743014423084e-01 -1.0432678603387220e+02 -9.1314034448163911e+03 +4.1721776702809689e+05 +2.5624601488235749e+07 
+8.8999999999999844e+00 -5.9245169791269880e-01 +8.1159630390166964e+00 +4.8974763099715957e-01 -1.0458733835473360e+02 -9.2898370349015222e+03 +4.1911591104454792e+05 +2.6379332987314802e+07 
+8.9999999999999840e+00 -5.9245200258623121e-01 +8.1159560514722351e+00 +4.9744311299630806e-01 -1.0485915788491289e+02 -9.4492101889617043e+03 +4.2104730083152239e+05 +2.7144797934723217e+07 
+9.0999999999999837e+00 -5.9245230420375916e-01 +8.1159495359310441e+00 +5.0504100758017911e-01 -1.0514485388064375e+02 -9.6086929418972340e+03 +4.2302174963591126e+05 +2.7916434146804143e+07 
+9.1999999999999833e+00 -5.9245260214182516e-01 +8.1159436385683001e+00 +5.1250844819704910e-01 -1.0544703583113770e+02 -9.7674553411891102e+03 +4.2504907271344197e+05 +2.8689679432365555e+07 
+9.2999999999999829e+00 -5.9245289577697768e-01 +8.1159385055535136e+00 +5.1981256646203466e-01 -1.0576831318018625e+02 -9.9246673722505766e+03 +4.2713908573277300e+05 +2.9459971234960172e+07 
+9.3999999999999826e+00 -5.9245318448581763e-01 +8.1159342830607049e+00 +5.2692049827202481e-01 -1.0611129561344949e+02 -1.0079499077919863e+04 +4.2930160642271035e+05 +3.0222747210063051e+07 
+9.4999999999999822e+00 -5.9245346764497497e-01 +8.1159311172617912e+00 +5.3379938031915275e-01 -1.0647859288362510e+02 -1.0231120483939152e+04 +4.3154645361917536e+05 +3.0973444845712978e+07 
+9.5999999999999819e+00 -5.9245374463108269e-01 +8.1159291543321448e+00 +5.4041634766305557e-01 -1.0687281495561294e+02 -1.0378701563687920e+04 +4.3388344807314401e+05 +3.1707501328383170e+07 
+9.6999999999999815e+00 -5.9245401482085969e-01 +8.1159285404443615e+00 +5.4673854272617695e-01 -1.0729657185410733e+02 -1.0521412395507232e+04 +4.3632241165277571e+05 +3.2420354251230534e+07 
+9.7999999999999812e+00 -5.9245427759100566e-01 +8.1159294217727371e+00 +5.5273310325121461e-01 -1.0775247377069715e+02 -1.0658422943438425e+04 +4.3887316791450436e+05 +3.3107440599156849e+07 
+9.8999999999999808e+00 -5.9245453231827416e-01 +8.1159319444938784e+00 +5.5836717090483823e-01 -1.0824313110398172e+02 -1.0788903216032855e+04 +4.4154554240583524e+05 +3.3764197490515508e+07 
+9.9999999999999805e+00 -5.9245477837945537e-01 +8.1159362547765195e+00 +5.6360788854877597e-01 -1.0877115421988259e+02 -1.0912023215135840e+04 +4.4434936154697655e+05 +3.4386061950011156e+07 
+1.0099999999999980e+01 -5.9245501537567646e-01 +8.1159424451618261e+00 +5.6842520878951641e-01 -1.0933805762582922e+02 -1.1027016986977360e+04 +4.4729059916221496e+05 +3.4968895716177337e+07 
