# trajectory
# s[mm] rx[mm] ry[mm] rz[mm] px[rad] py[rad] pz[rad]
0.0000000000000000e+00 +8.1529999999999987e+00 +0.0000000000000000e+00 +0.0000000000000000e+00 +0.0000000000000000e+00 +0.0000000000000000e+00 +1.0000000000000000e+00
1.0000000000000001e-01 +8.1529997169842279e+00 +0.0000000000000000e+00 +9.9999999999466030e-02 -5.6603154419080789e-06 +0.0000000000000000e+00 +9.9999999998398037e-01
2.0000000000000001e-01 +8.1529988679369083e+00 +0.0000000000000000e+00 +1.9999999999572809e-01 -1.1320630970882834e-05 +0.0000000000000000e+00 +9.9999999993592159e-01
3.0000000000000004e-01 +8.1529974528580347e+00 +0.0000000000000000e+00 +2.9999999998558236e-01 -1.6980946485271343e-05 +0.0000000000000000e+00 +9.9999999985582366e-01
4.0000000000000002e-01 +8.1529954717476141e+00 +0.0000000000000000e+00 +3.9999999996582486e-01 -2.2641261889233785e-05 +0.0000000000000000e+00 +9.9999999974368659e-01
5.0000000000000000e-01 +8.1529929246056625e+00 +0.0000000000000000e+00 +4.9999999993325173e-01 -2.8301577092743332e-05 +0.0000000000000000e+00 +9.9999999959951036e-01
5.9999999999999998e-01 +8.1529898114322048e+00 +0.0000000000000000e+00 +5.9999999988465902e-01 -3.3961892011586058e-05 +0.0000000000000000e+00 +9.9999999942329498e-01
6.9999999999999996e-01 +8.1529861322272730e+00 +0.0000000000000000e+00 +6.9999999981684280e-01 -3.9622206567360860e-05 +0.0000000000000000e+00 +9.9999999921504046e-01
7.9999999999999993e-01 +8.1529818869909061e+00 +0.0000000000000000e+00 +7.9999999972659919e-01 -4.5282520687479425e-05 +0.0000000000000000e+00 +9.9999999897474678e-01
8.9999999999999991e-01 +8.1529770757231521e+00 +0.0000000000000000e+00 +8.9999999961072419e-01 -5.0942834305166166e-05 +0.0000000000000000e+00 +9.9999999870241396e-01
9.9999999999999989e-01 +8.1529716984240643e+00 +0.0000000000000000e+00 +9.9999999946601403e-01 -5.6603147359458206e-05 +0.0000000000000000e+00 +9.9999999839804199e-01
1.0999999999999999e+00 +8.1529657550937014e+00 +0.0000000000000000e+00 +1.0999999992892646e+00 -6.2263459795205365e-05 +0.0000000000000000e+00 +9.9999999806163087e-01
1.2000000000000000e+00 +8.1529592457321272e+00 +0.0000000000000000e+00 +1.1999999990772721e+00 -6.7923771563070169e-05 +0.0000000000000000e+00 +9.9999999769318071e-01
1.3000000000000000e+00 +8.1529521703394128e+00 +0.0000000000000000e+00 +1.2999999988268327e+00 -7.3584082619527883e-05 +0.0000000000000000e+00 +9.9999999729269151e-01
1.4000000000000001e+00 +8.1529445289156293e+00 +0.0000000000000000e+00 +1.3999999985347424e+00 -7.9244392926866515e-05 +0.0000000000000000e+00 +9.9999999686016317e-01
1.5000000000000002e+00 +8.1529363214608530e+00 +0.0000000000000000e+00 +1.4999999981977974e+00 -8.4904702453186899e-05 +0.0000000000000000e+00 +9.9999999639559578e-01
1.6000000000000003e+00 +8.1529275479751657e+00 +0.0000000000000000e+00 +1.5999999978127937e+00 -9.0565011172402763e-05 +0.0000000000000000e+00 +9.9999999589898936e-01
1.7000000000000004e+00 +8.1529182084586473e+00 +0.0000000000000000e+00 +1.6999999973765274e+00 -9.6225319064240788e-05 +0.0000000000000000e+00 +9.9999999537034401e-01
1.8000000000000005e+00 +8.1529083029113814e+00 +0.0000000000000000e+00 +1.7999999968857945e+00 -1.0188562611424075e-04 +0.0000000000000000e+00 +9.9999999480965962e-01
1.9000000000000006e+00 +8.1528978313334530e+00 +0.0000000000000000e+00 +1.8999999963373913e+00 -1.0754593231375559e-04 +0.0000000000000000e+00 +9.9999999421693619e-01
2.0000000000000004e+00 +8.1528867937249476e+00 +0.0000000000000000e+00 +1.9999999957281138e+00 -1.1320623765995159e-04 +0.0000000000000000e+00 +9.9999999359217384e-01
2.1000000000000005e+00 +8.1528751900859504e+00 +0.0000000000000000e+00 +2.0999999950547581e+00 -1.1886654215568453e-04 +0.0000000000000000e+00 +9.9999999293537256e-01
2.2000000000000006e+00 +8.1528630204165449e+00 +0.0000000000000000e+00 +2.1999999943141204e+00 -1.2452684580813679e-04 +0.0000000000000000e+00 +9.9999999224653235e-01
2.3000000000000007e+00 +8.1528502847168163e+00 +0.0000000000000000e+00 +2.2999999935029969e+00 -1.3018714862745418e-04 +0.0000000000000000e+00 +9.9999999152565322e-01
2.4000000000000008e+00 +8.1528369829868463e+00 +0.0000000000000000e+00 +2.3999999926181834e+00 -1.3584745062662220e-04 +0.0000000000000000e+00 +9.9999999077273516e-01
2.5000000000000009e+00 +8.1528231152267168e+00 +0.0000000000000000e+00 +2.4999999916564759e+00 -1.4150775182146611e-04 +0.0000000000000000e+00 +9.9999998998777817e-01
2.6000000000000010e+00 +8.1528086814365075e+00 +0.0000000000000000e+00 +2.5999999906146711e+00 -1.4716805223065099e-04 +0.0000000000000000e+00 +9.9999998917078226e-01
2.7000000000000011e+00 +8.1527936816162967e+00 +0.0000000000000000e+00 +2.6999999894895645e+00 -1.5282835187568187e-04 +0.0000000000000000e+00 +9.9999998832174752e-01
2.8000000000000012e+00 +8.1527781157661572e+00 +0.0000000000000000e+00 +2.7999999882779525e+00 -1.5848865078090383e-04 +0.0000000000000000e+00 +9.9999998744067387e-01
2.9000000000000012e+00 +8.1527619838861636e+00 +0.0000000000000000e+00 +2.8999999869766313e+00 -1.6414894897350213e-04 +0.0000000000000000e+00 +9.9999998652756139e-01
3.0000000000000013e+00 +8.1527452859763851e+00 +0.0000000000000000e+00 +2.9999999855823969e+00 -1.6980924648350224e-04 +0.0000000000000000e+00 +9.9999998558240999e-01
3.1000000000000014e+00 +8.1527280220368894e+00 +0.0000000000000000e+00 +3.0999999840920456e+00 -1.7546954334377011e-04 +0.0000000000000000e+00 +9.9999998460521977e-01
3.2000000000000015e+00 +8.1527101920677385e+00 +0.0000000000000000e+00 +3.1999999825023733e+00 -1.8112983959001213e-04 +0.0000000000000000e+00 +9.9999998359599063e-01
3.3000000000000016e+00 +8.1526917960689911e+00 +0.0000000000000000e+00 +3.2999999808101759e+00 -1.8679013526077536e-04 +0.0000000000000000e+00 +9.9999998255472267e-01
3.4000000000000017e+00 +8.1526728340407040e+00 +0.0000000000000000e+00 +3.3999999790122497e+00 -1.9245043039744762e-04 +0.0000000000000000e+00 +9.9999998148141589e-01
3.5000000000000018e+00 +8.1526533059829287e+00 +0.0000000000000000e+00 +3.4999999771053911e+00 -1.9811072504425764e-04 +0.0000000000000000e+00 +9.9999998037607030e-01
3.6000000000000019e+00 +8.1526332118957114e+00 +0.0000000000000000e+00 +3.5999999750863960e+00 -2.0377101924827520e-04 +0.0000000000000000e+00 +9.9999997923868578e-01
3.7000000000000020e+00 +8.1526125517790931e+00 +0.0000000000000000e+00 +3.6999999729520603e+00 -2.0943131305941126e-04 +0.0000000000000000e+00 +9.9999997806926244e-01
3.8000000000000020e+00 +8.1525913256331108e+00 +0.0000000000000000e+00 +3.7999999706991803e+00 -2.1509160653041811e-04 +0.0000000000000000e+00 +9.9999997686780029e-01
3.9000000000000021e+00 +8.1525695334577968e+00 +0.0000000000000000e+00 +3.8999999683245523e+00 -2.2075189971688955e-04 +0.0000000000000000e+00 +9.9999997563429921e-01
4.0000000000000018e+00 +8.1525471752531757e+00 +0.0000000000000000e+00 +3.9999999658249723e+00 -2.2641219267726100e-04 +0.0000000000000000e+00 +9.9999997436875931e-01
4.1000000000000014e+00 +8.1525242510192673e+00 +0.0000000000000000e+00 +4.0999999631972361e+00 -2.3207248547272991e-04 +0.0000000000000000e+00 +9.9999997307118049e-01
4.2000000000000011e+00 +8.1525007607560855e+00 +0.0000000000000000e+00 +4.1999999604381406e+00 -2.3773277816637768e-04 +0.0000000000000000e+00 +9.9999997174156285e-01
4.3000000000000007e+00 +8.1524767044636359e+00 +0.0000000000000000e+00 +4.2999999575444807e+00 -2.4339307082229169e-04 +0.0000000000000000e+00 +9.9999997037990629e-01
4.4000000000000004e+00 +8.1524520821419202e+00 +0.0000000000000000e+00 +4.3999999545130537e+00 -2.4905336350548537e-04 +0.0000000000000000e+00 +9.9999996898621080e-01
4.5000000000000000e+00 +8.1524268937909312e+00 +0.0000000000000000e+00 +4.4999999513406550e+00 -2.5471365628189813e-04 +0.0000000000000000e+00 +9.9999996756047638e-01
4.5999999999999996e+00 +8.1524011394106584e+00 +0.0000000000000000e+00 +4.5999999480240810e+00 -2.6037394921839534e-04 +0.0000000000000000e+00 +9.9999996610270292e-01
4.6999999999999993e+00 +8.1523748190010803e+00 +0.0000000000000000e+00 +4.6999999445601279e+00 -2.6603424238276827e-04 +0.0000000000000000e+00 +9.9999996461289054e-01
4.7999999999999989e+00 +8.1523479325621722e+00 +0.0000000000000000e+00 +4.7999999409455913e+00 -2.7169453584373408e-04 +0.0000000000000000e+00 +9.9999996309103911e-01
4.8999999999999986e+00 +8.1523204800939002e+00 +0.0000000000000000e+00 +4.8999999371772676e+00 -2.7735482967093552e-04 +0.0000000000000000e+00 +9.9999996153714865e-01
4.9999999999999982e+00 +8.1522924615962236e+00 +0.0000000000000000e+00 +4.9999999332519529e+00 -2.8301512393494110e-04 +0.0000000000000000e+00 +9.9999995995121915e-01
5.0999999999999979e+00 +8.1522638770690961e+00 +0.0000000000000000e+00 +5.0999999291664437e+00 -2.8867541870724478e-04 +0.0000000000000000e+00 +9.9999995833325062e-01
5.1999999999999975e+00 +8.1522347265124626e+00 +0.0000000000000000e+00 +5.1999999249175355e+00 -2.9433571406026606e-04 +0.0000000000000000e+00 +9.9999995668324293e-01
5.2999999999999972e+00 +8.1522050099262628e+00 +0.0000000000000000e+00 +5.2999999205020245e+00 -2.9999601006734964e-04 +0.0000000000000000e+00 +9.9999995500119609e-01
5.3999999999999968e+00 +8.1521747273104257e+00 +0.0000000000000000e+00 +5.3999999159167071e+00 -3.0565630680276555e-04 +0.0000000000000000e+00 +9.9999995328711011e-01
5.4999999999999964e+00 +8.1521438786648748e+00 +0.0000000000000000e+00 +5.4999999111583788e+00 -3.1131660434170880e-04 +0.0000000000000000e+00 +9.9999995154098487e-01
5.5999999999999961e+00 +8.1521124639895266e+00 +0.0000000000000000e+00 +5.5999999062238359e+00 -3.1697690276029936e-04 +0.0000000000000000e+00 +9.9999994976282036e-01
5.6999999999999957e+00 +8.1520804832842906e+00 +0.0000000000000000e+00 +5.6999999011098748e+00 -3.2263720213558195e-04 +0.0000000000000000e+00 +9.9999994795261660e-01
5.7999999999999954e+00 +8.1520479365490655e+00 +0.0000000000000000e+00 +5.7999998958132917e+00 -3.2829750254552599e-04 +0.0000000000000000e+00 +9.9999994611037346e-01
5.8999999999999950e+00 +8.1520148237837446e+00 +0.0000000000000000e+00 +5.8999998903308821e+00 -3.3395780406902535e-04 +0.0000000000000000e+00 +9.9999994423609095e-01
5.9999999999999947e+00 +8.1519811449882127e+00 +0.0000000000000000e+00 +5.9999998846594425e+00 -3.3961810678589818e-04 +0.0000000000000000e+00 +9.9999994232976908e-01
6.0999999999999943e+00 +8.1519469001623452e+00 +0.0000000000000000e+00 +6.0999998787957681e+00 -3.4527841077690709e-04 +0.0000000000000000e+00 +9.9999994039140772e-01
6.1999999999999940e+00 +8.1519120893060126e+00 +0.0000000000000000e+00 +6.1999998727366554e+00 -3.5093871612398256e-04 +0.0000000000000000e+00 +9.9999993842100687e-01
6.2999999999999936e+00 +8.1518767124190727e+00 +0.0000000000000000e+00 +6.2999998664789008e+00 -3.5659902291044636e-04 +0.0000000000000000e+00 +9.9999993641856644e-01
6.3999999999999932e+00 +8.1518407695013799e+00 +0.0000000000000000e+00 +6.3999998600193004e+00 -3.6225933122103191e-04 +0.0000000000000000e+00 +9.9999993438408630e-01
6.4999999999999929e+00 +8.1518042605527761e+00 +0.0000000000000000e+00 +6.4999998533546499e+00 -3.6791964114188424e-04 +0.0000000000000000e+00 +9.9999993231756656e-01
6.5999999999999925e+00 +8.1517671855730960e+00 +0.0000000000000000e+00 +6.5999998464817455e+00 -3.7357995276056003e-04 +0.0000000000000000e+00 +9.9999993021900702e-01
6.6999999999999922e+00 +8.1517295445621656e+00 +0.0000000000000000e+00 +6.6999998393973836e+00 -3.7924026616602751e-04 +0.0000000000000000e+00 +9.9999992808840765e-01
6.7999999999999918e+00 +8.1516913375198001e+00 +0.0000000000000000e+00 +6.7999998320983597e+00 -3.8490058144866648e-04 +0.0000000000000000e+00 +9.9999992592576847e-01
6.8999999999999915e+00 +8.1516525644458095e+00 +0.0000000000000000e+00 +6.8999998245814700e+00 -3.9056089870026826e-04 +0.0000000000000000e+00 +9.9999992373108926e-01
6.9999999999999911e+00 +8.1516132253399913e+00 +0.0000000000000000e+00 +6.9999998168435100e+00 -3.9622121801403563e-04 +0.0000000000000000e+00 +9.9999992150437012e-01
7.0999999999999908e+00 +8.1515733202021341e+00 +0.0000000000000000e+00 +7.0999998088812761e+00 -4.0188153948458291e-04 +0.0000000000000000e+00 +9.9999991924561082e-01
7.1999999999999904e+00 +8.1515328490320194e+00 +0.0000000000000000e+00 +7.1999998006915646e+00 -4.0754186320793583e-04 +0.0000000000000000e+00 +9.9999991695481139e-01
7.2999999999999901e+00 +8.1514918118294144e+00 +0.0000000000000000e+00 +7.2999997922711710e+00 -4.1320218928153152e-04 +0.0000000000000000e+00 +9.9999991463197169e-01
7.3999999999999897e+00 +8.1514502085940812e+00 +0.0000000000000000e+00 +7.3999997836168916e+00 -4.1886251780421855e-04 +0.0000000000000000e+00 +9.9999991227709173e-01
7.4999999999999893e+00 +8.1514080393257693e+00 +0.0000000000000000e+00 +7.4999997747255218e+00 -4.2452284887625687e-04 +0.0000000000000000e+00 +9.9999990989017129e-01
7.5999999999999890e+00 +8.1513653040242176e+00 +0.0000000000000000e+00 +7.5999997655938580e+00 -4.3018318259931772e-04 +0.0000000000000000e+00 +9.9999990747121037e-01
7.6999999999999886e+00 +8.1513220026891577e+00 +0.0000000000000000e+00 +7.6999997562186957e+00 -4.3584351907648361e-04 +0.0000000000000000e+00 +9.9999990502020886e-01
7.7999999999999883e+00 +8.1512781353203074e+00 +0.0000000000000000e+00 +7.7999997465968312e+00 -4.4150385841224839e-04 +0.0000000000000000e+00 +9.9999990253716664e-01
7.8999999999999879e+00 +8.1512337019173771e+00 +0.0000000000000000e+00 +7.8999997367250607e+00 -4.4716420071251714e-04 +0.0000000000000000e+00 +9.9999990002208372e-01
7.9999999999999876e+00 +8.1511887024800629e+00 +0.0000000000000000e+00 +7.9999997266001799e+00 -4.5282454608460608e-04 +0.0000000000000000e+00 +9.9999989747495988e-01
8.0999999999999872e+00 +8.1511431370080540e+00 +0.0000000000000000e+00 +8.0999997162189850e+00 -4.5848489463670000e-04 +0.0000000000000000e+00 +9.9999989489579511e-01
8.1999999999999869e+00 +8.1510970055010272e+00 +0.0000000000000000e+00 +8.1999997055782714e+00 -4.6414524647188355e-04 +0.0000000000000000e+00 +9.9999989228458919e-01
8.2999999999999865e+00 +8.1510503079586485e+00 +0.0000000000000000e+00 +8.2999996946748347e+00 -4.6980560168217252e-04 +0.0000000000000000e+00 +9.9999988964134212e-01
8.3999999999999861e+00 +8.1510030443805768e+00 +0.0000000000000000e+00 +8.3999996835054720e+00 -4.7546596034797140e-04 +0.0000000000000000e+00 +9.9999988696605380e-01
8.4999999999999858e+00 +8.1509552147664621e+00 +0.0000000000000000e+00 +8.4999996720669770e+00 -4.8112632253807347e-04 +0.0000000000000000e+00 +9.9999988425872410e-01
8.5999999999999854e+00 +8.1509068191159493e+00 +0.0000000000000000e+00 +8.5999996603561470e+00 -4.8678668830966085e-04 +0.0000000000000000e+00 +9.9999988151935293e-01
8.6999999999999851e+00 +8.1508578574286794e+00 +0.0000000000000000e+00 +8.6999996483697792e+00 -4.9244705770830474e-04 +0.0000000000000000e+00 +9.9999987874794027e-01
8.7999999999999847e+00 +8.1508083297042866e+00 +0.0000000000000000e+00 +8.7999996361046673e+00 -4.9810743076796559e-04 +0.0000000000000000e+00 +9.9999987594448592e-01
8.8999999999999844e+00 +8.1507582359424031e+00 +0.0000000000000000e+00 +8.8999996235576084e+00 -5.0376780751099299e-04 +0.0000000000000000e+00 +9.9999987310898986e-01
8.9999999999999840e+00 +8.1507075761426613e+00 +0.0000000000000000e+00 +8.9999996107253981e+00 -5.0942818794812606e-04 +0.0000000000000000e+00 +9.9999987024145209e-01
9.0999999999999837e+00 +8.1506563503046898e+00 +0.0000000000000000e+00 +9.0999995976048318e+00 -5.1508857207849344e-04 +0.0000000000000000e+00 +9.9999986734187252e-01
9.1999999999999833e+00 +8.1506045584281228e+00 +0.0000000000000000e+00 +9.1999995841927049e+00 -5.2074895988961356e-04 +0.0000000000000000e+00 +9.9999986441025102e-01
9.2999999999999829e+00 +8.1505522005125908e+00 +0.0000000000000000e+00 +9.2999995704858147e+00 -5.2640935135739482e-04 +0.0000000000000000e+00 +9.9999986144658759e-01
9.3999999999999826e+00 +8.1504992765577313e+00 +0.0000000000000000e+00 +9.3999995564809549e+00 -5.3206974644613540e-04 +0.0000000000000000e+00 +9.9999985845088224e-01
9.4999999999999822e+00 +8.1504457865631839e+00 +0.0000000000000000e+00 +9.4999995421749226e+00 -5.3773014510852398e-04 +0.0000000000000000e+00 +9.9999985542313485e-01
9.5999999999999819e+00 +8.1503917305285931e+00 +0.0000000000000000e+00 +9.5999995275645134e+00 -5.4339054728563927e-04 +0.0000000000000000e+00 +9.9999985236334543e-01
9.6999999999999815e+00 +8.1503371084536127e+00 +0.0000000000000000e+00 +9.6999995126465226e+00 -5.4905095290695076e-04 +0.0000000000000000e+00 +9.9999984927151397e-01
9.7999999999999812e+00 +8.1502819203378998e+00 +0.0000000000000000e+00 +9.7999994974177476e+00 -5.5471136189031843e-04 +0.0000000000000000e+00 +9.9999984614764048e-01
9.8999999999999808e+00 +8.1502261661811257e+00 +0.0000000000000000e+00 +9.8999994818749837e+00 -5.6037177414199329e-04 +0.0000000000000000e+00 +9.9999984299172484e-01
9.9999999999999805e+00 +8.1501698459829672e+00 +0.0000000000000000e+00 +9.9999994660150247e+00 -5.6603218955661731e-04 +0.0000000000000000e+00 +9.9999983980376717e-01
1.0099999999999980e+01 +8.1501129597431134e+00 +0.0000000000000000e+00 +1.0099999449834668e+01 -5.7169260801793770e-04 +0.0000000000000000e+00 +9.9999983658376745e-01
1.0199999999999980e+01 +8.1500555074612659e+00 +0.0000000000000000e+00 +1.0199999433330710e+01 -5.7735302940666304e-04 +0.0000000000000000e+00 +9.9999983333172571e-01
1.0299999999999979e+01 +8.1499974891371387e+00 +0.0000000000000000e+00 +1.0299999416499945e+01 -5.8301345360831851e-04 +0.0000000000000000e+00 +9.9999983004764192e-01
1.0399999999999979e+01 +8.1499389047704547e+00 +0.0000000000000000e+00 +1.0399999399339171e+01 -5.8867388051395987e-04 +0.0000000000000000e+00 +9.9999982673151611e-01
1.0499999999999979e+01 +8.1498797543609491e+00 +0.0000000000000000e+00 +1.0499999381845180e+01 -5.9433431002017356e-04 +0.0000000000000000e+00 +9.9999982338334825e-01
1.0599999999999978e+01 +8.1498200379083663e+00 +0.0000000000000000e+00 +1.0599999364014771e+01 -5.9999474202907584e-04 +0.0000000000000000e+00 +9.9999982000313847e-01
1.0699999999999978e+01 +8.1497597554124628e+00 +0.0000000000000000e+00 +1.0699999345844740e+01 -6.0565517644831297e-04 +0.0000000000000000e+00 +9.9999981659088666e-01
1.0799999999999978e+01 +8.1496989068730006e+00 +0.0000000000000000e+00 +1.0799999327331880e+01 -6.1131561319106062e-04 +0.0000000000000000e+00 +9.9999981314659292e-01
1.0899999999999977e+01 +8.1496374922897505e+00 +0.0000000000000000e+00 +1.0899999308472990e+01 -6.1697605217602358e-04 +0.0000000000000000e+00 +9.9999980967025726e-01
1.0999999999999977e+01 +8.1495755116624924e+00 +0.0000000000000000e+00 +1.0999999289264863e+01 -6.2263649332743574e-04 +0.0000000000000000e+00 +9.9999980616187967e-01
1.1099999999999977e+01 +8.1495129649910147e+00 +0.0000000000000000e+00 +1.1099999269704297e+01 -6.2829693657505924e-04 +0.0000000000000000e+00 +9.9999980262146015e-01
1.1199999999999976e+01 +8.1494498522751098e+00 +0.0000000000000000e+00 +1.1199999249788087e+01 -6.3395738185418465e-04 +0.0000000000000000e+00 +9.9999979904899872e-01
1.1299999999999976e+01 +8.1493861735145785e+00 +0.0000000000000000e+00 +1.1299999229513029e+01 -6.3961782910563038e-04 +0.0000000000000000e+00 +9.9999979544449535e-01
1.1399999999999975e+01 +8.1493219287092256e+00 +0.0000000000000000e+00 +1.1399999208875919e+01 -6.4527827827574240e-04 +0.0000000000000000e+00 +9.9999979180795007e-01
1.1499999999999975e+01 +8.1492571178588609e+00 +0.0000000000000000e+00 +1.1499999187873550e+01 -6.5093872931639373e-04 +0.0000000000000000e+00 +9.9999978813936286e-01
1.1599999999999975e+01 +8.1491917409633015e+00 +0.0000000000000000e+00 +1.1599999166502721e+01 -6.5659918218498423e-04 +0.0000000000000000e+00 +9.9999978443873372e-01
1.1699999999999974e+01 +8.1491257980223644e+00 +0.0000000000000000e+00 +1.1699999144760229e+01 -6.6225963684444036e-04 +0.0000000000000000e+00 +9.9999978070606266e-01
1.1799999999999974e+01 +8.1490592890358737e+00 +0.0000000000000000e+00 +1.1799999122642866e+01 -6.6792009326321444e-04 +0.0000000000000000e+00 +9.9999977694134967e-01
