# field on trajectory
# s[mm] rx[mm] ry[mm] rz[mm] bx[T] by[T] bz[T]
0.0000000000000000e+00 +7.9199999999999999e+00 +0.0000000000000000e+00 +0.0000000000000000e+00 -2.9991295710753704e-02 -5.6652037702945890e-01 +5.6910580695051366e-03
-1.0000000000000001e-01 +7.9199997169358101e+00 +0.0000000000000000e+00 -9.9999999999465836e-02 -2.9991273453877084e-02 -5.6652010678122267e-01 +5.6909521375987128e-03
-2.0000000000000001e-01 +7.9199988677434181e+00 +0.0000000000000000e+00 -1.9999999999572665e-01 -2.9991256172868738e-02 -5.6651984529309507e-01 +5.6908452619252349e-03
-3.0000000000000004e-01 +7.9199974524230861e+00 +0.0000000000000000e+00 -2.9999999998557747e-01 -2.9991242387199746e-02 -5.6651959277654773e-01 +5.6907376610240423e-03
-4.0000000000000002e-01 +7.9199954709750662e+00 +0.0000000000000000e+00 -3.9999999996581326e-01 -2.9991230616322990e-02 -5.6651934944305871e-01 +5.6906295534346583e-03
-5.0000000000000000e-01 +7.9199929233996018e+00 +0.0000000000000000e+00 -4.9999999993322897e-01 -2.9991219379675346e-02 -5.6651911550411116e-01 +5.6905211576967285e-03
-5.9999999999999998e-01 +7.9199898096969266e+00 +0.0000000000000000e+00 -5.9999999988461972e-01 -2.9991207196680022e-02 -5.6651889117119381e-01 +5.6904126923499514e-03
-6.9999999999999996e-01 +7.9199861298672651e+00 +0.0000000000000000e+00 -6.9999999981678040e-01 -2.9991192586748705e-02 -5.6651867665580036e-01 +5.6903043759340011e-03
-7.9999999999999993e-01 +7.9199818839108316e+00 +0.0000000000000000e+00 -7.9999999972650615e-01 -2.9991174069283939e-02 -5.6651847216942874e-01 +5.6901964269884808e-03
-8.9999999999999991e-01 +7.9199770718278302e+00 +0.0000000000000000e+00 -8.9999999961059185e-01 -2.9991150163681261e-02 -5.6651827792358045e-01 +5.6900890640528340e-03
-9.9999999999999989e-01 +7.9199716936184554e+00 +0.0000000000000000e+00 -9.9999999946583262e-01 -2.9991119389331494e-02 -5.6651809412976029e-01 +5.6899825056662820e-03
-1.0999999999999999e+00 +7.9199657492828912e+00 +0.0000000000000000e+00 -1.0999999992890235e+00 -2.9991080265623013e-02 -5.6651792099947607e-01 +5.6898769703677601e-03
-1.2000000000000000e+00 +7.9199592388213107e+00 +0.0000000000000000e+00 -1.1999999990769594e+00 -2.9991031311943986e-02 -5.6651775874423738e-01 +5.6897726766958461e-03
-1.3000000000000000e+00 +7.9199521622338764e+00 +0.0000000000000000e+00 -1.2999999988264355e+00 -2.9990971047684591e-02 -5.6651760757555547e-01 +5.6896698431886886e-03
-1.4000000000000001e+00 +7.9199445195207394e+00 +0.0000000000000000e+00 -1.3999999985342466e+00 -2.9990897992239304e-02 -5.6651746770494316e-01 +5.6895686883839409e-03
-1.5000000000000002e+00 +7.9199363106820391e+00 +0.0000000000000000e+00 -1.4999999981971879e+00 -2.9990810665009148e-02 -5.6651733934391335e-01 +5.6894694308187001e-03
-1.6000000000000003e+00 +7.9199275357179051e+00 +0.0000000000000000e+00 -1.5999999978120543e+00 -2.9990707585403915e-02 -5.6651722270397920e-01 +5.6893722890294235e-03
-1.7000000000000004e+00 +7.9199181946284529e+00 +0.0000000000000000e+00 -1.6999999973756410e+00 -2.9990587272844437e-02 -5.6651711799665394e-01 +5.6892774815518717e-03
-1.8000000000000005e+00 +7.9199082874137883e+00 +0.0000000000000000e+00 -1.7999999968847429e+00 -2.9990448246764875e-02 -5.6651702543344939e-01 +5.6891852269210404e-03
-1.9000000000000006e+00 +7.9198978140740044e+00 +0.0000000000000000e+00 -1.8999999963361551e+00 -2.9990289026614870e-02 -5.6651694522587570e-01 +5.6890957436710804e-03
-2.0000000000000004e+00 +7.9198867746091812e+00 +0.0000000000000000e+00 -1.9999999957266728e+00 -2.9990108131861898e-02 -5.6651687758544145e-01 +5.6890092503352422e-03
-2.1000000000000005e+00 +7.9198751690193872e+00 +0.0000000000000000e+00 -2.0999999950530905e+00 -2.9989904734317487e-02 -5.6651682253567626e-01 +5.6889258770256223e-03
-2.2000000000000006e+00 +7.9198629973046772e+00 +0.0000000000000000e+00 -2.1999999943122037e+00 -2.9989680615106189e-02 -5.6651677934820144e-01 +5.6888454001733108e-03
-2.3000000000000007e+00 +7.9198502594650950e+00 +0.0000000000000000e+00 -2.2999999935008075e+00 -2.9989438207684665e-02 -5.6651674710665700e-01 +5.6887675077903089e-03
-2.4000000000000008e+00 +7.9198369555006733e+00 +0.0000000000000000e+00 -2.3999999926156965e+00 -2.9989179945516489e-02 -5.6651672489467741e-01 +5.6886918878901469e-03
-2.5000000000000009e+00 +7.9198230854114344e+00 +0.0000000000000000e+00 -2.4999999916536662e+00 -2.9988908262072352e-02 -5.6651671179589136e-01 +5.6886182284880552e-03
-2.6000000000000010e+00 +7.9198086491973925e+00 +0.0000000000000000e+00 -2.5999999906115114e+00 -2.9988625590830348e-02 -5.6651670689392020e-01 +5.6885462176011811e-03
-2.7000000000000011e+00 +7.9197936468585528e+00 +0.0000000000000000e+00 -2.6999999894860269e+00 -2.9988334365276214e-02 -5.6651670927237818e-01 +5.6884755432487777e-03
-2.8000000000000012e+00 +7.9197780783949137e+00 +0.0000000000000000e+00 -2.7999999882740081e+00 -2.9988037018903603e-02 -5.6651671801487102e-01 +5.6884058934524116e-03
-2.9000000000000012e+00 +7.9197619438064670e+00 +0.0000000000000000e+00 -2.8999999869722499e+00 -2.9987735985214335e-02 -5.6651673220499565e-01 +5.6883369562361636e-03
-3.0000000000000013e+00 +7.9197452430931987e+00 +0.0000000000000000e+00 -2.9999999855775474e+00 -2.9987433697718658e-02 -5.6651675092633980e-01 +5.6882684196268287e-03
-3.1000000000000014e+00 +7.9197279762550910e+00 +0.0000000000000000e+00 -3.0999999840866952e+00 -2.9987132589935475e-02 -5.6651677326248062e-01 +5.6881999716541102e-03
-3.2000000000000015e+00 +7.9197101432921224e+00 +0.0000000000000000e+00 -3.1999999824964886e+00 -2.9986835095392655e-02 -5.6651679829698476e-01 +5.6881313003508344e-03
-3.3000000000000016e+00 +7.9196917442042682e+00 +0.0000000000000000e+00 -3.2999999808037228e+00 -2.9986543647627241e-02 -5.6651682511340695e-01 +5.6880620937531405e-03
-3.4000000000000017e+00 +7.9196727789915018e+00 +0.0000000000000000e+00 -3.3999999790051927e+00 -2.9986260680185693e-02 -5.6651685279528963e-01 +5.6879920399006802e-03
-3.5000000000000018e+00 +7.9196532476537973e+00 +0.0000000000000000e+00 -3.4999999770976933e+00 -2.9985988626624226e-02 -5.6651688042616266e-01 +5.6879208268368281e-03
-3.6000000000000019e+00 +7.9196331501911272e+00 +0.0000000000000000e+00 -3.5999999750780196e+00 -2.9985729920508953e-02 -5.6651690708954250e-01 +5.6878481426088767e-03
-3.7000000000000020e+00 +7.9196124866034658e+00 +0.0000000000000000e+00 -3.6999999729429667e+00 -2.9985486995416203e-02 -5.6651693186893115e-01 +5.6877736752682390e-03
-3.8000000000000020e+00 +7.9195912568907891e+00 +0.0000000000000000e+00 -3.7999999706893295e+00 -2.9985262284932788e-02 -5.6651695384781575e-01 +5.6876971128706497e-03
-3.9000000000000021e+00 +7.9195694610530758e+00 +0.0000000000000000e+00 -3.8999999683139031e+00 -2.9985058222656184e-02 -5.6651697210966823e-01 +5.6876181434763690e-03
-4.0000000000000018e+00 +7.9195470990903081e+00 +0.0000000000000000e+00 -3.9999999658134828e+00 -2.9984877242194830e-02 -5.6651698573794307e-01 +5.6875364551503740e-03
-4.1000000000000014e+00 +7.9195241710024735e+00 +0.0000000000000000e+00 -4.0999999631848629e+00 -2.9984721059619093e-02 -5.6651699404008893e-01 +5.6874518170277368e-03
-4.2000000000000011e+00 +7.9195006767895642e+00 +0.0000000000000000e+00 -4.1999999604248393e+00 -2.9984588520801193e-02 -5.6651699721958149e-01 +5.6873643225071524e-03
-4.3000000000000007e+00 +7.9194766164515782e+00 +0.0000000000000000e+00 -4.2999999575302068e+00 -2.9984477754047639e-02 -5.6651699570390757e-01 +5.6872741460509482e-03
-4.4000000000000004e+00 +7.9194519899885174e+00 +0.0000000000000000e+00 -4.3999999544977602e+00 -2.9984386887646264e-02 -5.6651698992055766e-01 +5.6871814621189173e-03
-4.5000000000000000e+00 +7.9194267974003880e+00 +0.0000000000000000e+00 -4.4999999513242939e+00 -2.9984314049864767e-02 -5.6651698029702591e-01 +5.6870864451680657e-03
-4.5999999999999996e+00 +7.9194010386872007e+00 +0.0000000000000000e+00 -4.5999999480066034e+00 -2.9984257368949298e-02 -5.6651696726081102e-01 +5.6869892696523663e-03
-4.6999999999999993e+00 +7.9193747138489696e+00 +0.0000000000000000e+00 -4.6999999445414842e+00 -2.9984214973123025e-02 -5.6651695123941737e-01 +5.6868901100225215e-03
-4.7999999999999989e+00 +7.9193478228857108e+00 +0.0000000000000000e+00 -4.7999999409257308e+00 -2.9984184990584653e-02 -5.6651693266035430e-01 +5.6867891407256909e-03
-4.8999999999999986e+00 +7.9193203657974447e+00 +0.0000000000000000e+00 -4.8999999371561387e+00 -2.9984165549506989e-02 -5.6651691195113763e-01 +5.6866865362052736e-03
-4.9999999999999982e+00 +7.9192923425841926e+00 +0.0000000000000000e+00 -4.9999999332295024e+00 -2.9984154778035520e-02 -5.6651688953929058e-01 +5.6865824709006352e-03
-5.0999999999999979e+00 +7.9192637532459775e+00 +0.0000000000000000e+00 -5.0999999291426175e+00 -2.9984150804286968e-02 -5.6651686585234318e-01 +5.6864771192468707e-03
-5.1999999999999975e+00 +7.9192345977828236e+00 +0.0000000000000000e+00 -5.1999999248922784e+00 -2.9984151756347846e-02 -5.6651684131783353e-01 +5.6863706556745620e-03
-5.2999999999999972e+00 +7.9192048761947564e+00 +0.0000000000000000e+00 -5.2999999204752806e+00 -2.9984155762273011e-02 -5.6651681636330897e-01 +5.6862632546095171e-03
-5.3999999999999968e+00 +7.9191745884818019e+00 +0.0000000000000000e+00 -5.3999999158884195e+00 -2.9984160950084226e-02 -5.6651679141632516e-01 +5.6861550904725271e-03
-5.4999999999999964e+00 +7.9191437346439866e+00 +0.0000000000000000e+00 -5.4999999111284890e+00 -2.9984165447768746e-02 -5.6651676690444763e-01 +5.6860463376791209e-03
-5.5999999999999961e+00 +7.9191123146813354e+00 +0.0000000000000000e+00 -5.5999999061922852e+00 -2.9984167383277832e-02 -5.6651674325525292e-01 +5.6859371706393103e-03
-5.6999999999999957e+00 +7.9190803285938731e+00 +0.0000000000000000e+00 -5.6999999010766027e+00 -2.9984164884525367e-02 -5.6651672089632776e-01 +5.6858277637573517e-03
-5.7999999999999954e+00 +7.9190477763816229e+00 +0.0000000000000000e+00 -5.7999998957782362e+00 -2.9984156079386402e-02 -5.6651670025527057e-01 +5.6857182914314807e-03
-5.8999999999999950e+00 +7.9190146580446061e+00 +0.0000000000000000e+00 -5.8999998902939810e+00 -2.9984139095695701e-02 -5.6651668175969228e-01 +5.6856089280536799e-03
-5.9999999999999947e+00 +7.9189809735828423e+00 +0.0000000000000000e+00 -5.9999998846206326e+00 -2.9984112061246321e-02 -5.6651666583721516e-01 +5.6854998480094163e-03
-6.0999999999999943e+00 +7.9189467229963491e+00 +0.0000000000000000e+00 -6.0999998787549856e+00 -2.9984073563705443e-02 -5.6651665292677766e-01 +5.6853911976092481e-03
-6.1999999999999940e+00 +7.9189119062851399e+00 +0.0000000000000000e+00 -6.1999998726938355e+00 -2.9984024030391198e-02 -5.6651664351254516e-01 +5.6852830108865713e-03
-6.2999999999999936e+00 +7.9188765234492253e+00 +0.0000000000000000e+00 -6.2999998664339767e+00 -2.9983964348552931e-02 -5.6651663809002362e-01 +5.6851752938072118e-03
-6.3999999999999932e+00 +7.9188405744886117e+00 +0.0000000000000000e+00 -6.3999998599722039e+00 -2.9983895405456779e-02 -5.6651663715476186e-01 +5.6850680523385768e-03
-6.4999999999999929e+00 +7.9188040594033007e+00 +0.0000000000000000e+00 -6.4999998533053125e+00 -2.9983818088386589e-02 -5.6651664120235201e-01 +5.6849612924497542e-03
-6.5999999999999925e+00 +7.9187669781932906e+00 +0.0000000000000000e+00 -6.5999998464300980e+00 -2.9983733284645039e-02 -5.6651665072843249e-01 +5.6848550201116085e-03
-6.6999999999999922e+00 +7.9187293308585724e+00 +0.0000000000000000e+00 -6.6999998393433549e+00 -2.9983641881554647e-02 -5.6651666622868901e-01 +5.6847492412968994e-03
-6.7999999999999918e+00 +7.9186911173991312e+00 +0.0000000000000000e+00 -6.7999998320418786e+00 -2.9983544766458741e-02 -5.6651668819885614e-01 +5.6846439619803691e-03
-6.8999999999999915e+00 +7.9186523378149474e+00 +0.0000000000000000e+00 -6.8999998245224639e+00 -2.9983442826722516e-02 -5.6651671713471885e-01 +5.6845391881388489e-03
-6.9999999999999911e+00 +7.9186129921059925e+00 +0.0000000000000000e+00 -6.9999998167819060e+00 -2.9983336949734082e-02 -5.6651675353211528e-01 +5.6844349257513657e-03
-7.0999999999999908e+00 +7.9185730802722309e+00 +0.0000000000000000e+00 -7.0999998088169995e+00 -2.9983228022905428e-02 -5.6651679788693599e-01 +5.6843311807992418e-03
-7.1999999999999904e+00 +7.9185326023136202e+00 +0.0000000000000000e+00 -7.1999998006245400e+00 -2.9983116933673472e-02 -5.6651685069512880e-01 +5.6842279592661986e-03
-7.2999999999999901e+00 +7.9184915582301088e+00 +0.0000000000000000e+00 -7.2999997922013220e+00 -2.9983004569501089e-02 -5.6651691245269731e-01 +5.6841252671384528e-03
-7.3999999999999897e+00 +7.9184499480216362e+00 +0.0000000000000000e+00 -7.3999997835441409e+00 -2.9982891817878110e-02 -5.6651698365570480e-01 +5.6840231104048284e-03
-7.4999999999999893e+00 +7.9184077716881331e+00 +0.0000000000000000e+00 -7.4999997746497913e+00 -2.9982779566322358e-02 -5.6651706480027408e-01 +5.6839214950568616e-03
-7.5999999999999890e+00 +7.9183650292295189e+00 +0.0000000000000000e+00 -7.5999997655150686e+00 -2.9982668702380644e-02 -5.6651715638259081e-01 +5.6838204270888834e-03
-7.6999999999999886e+00 +7.9183217206457037e+00 +0.0000000000000000e+00 -7.6999997561367675e+00 -2.9982560113629805e-02 -5.6651725889890425e-01 +5.6837199124981528e-03
-7.7999999999999883e+00 +7.9182778459365863e+00 +0.0000000000000000e+00 -7.7999997465116833e+00 -2.9982454687677719e-02 -5.6651737284552883e-01 +5.6836199572849388e-03
-7.8999999999999879e+00 +7.9182334051020549e+00 +0.0000000000000000e+00 -7.8999997366366106e+00 -2.9982353312164294e-02 -5.6651749871884549e-01 +5.6835205674526275e-03
-7.9999999999999876e+00 +7.9181883981419841e+00 +0.0000000000000000e+00 -7.9999997265083440e+00 -2.9982256874762525e-02 -5.6651763701530444e-01 +5.6834217490078307e-03
-8.0999999999999872e+00 +7.9181428250562380e+00 +0.0000000000000000e+00 -8.0999997161236799e+00 -2.9982166024953336e-02 -5.6651778808872977e-01 +5.6833235133443112e-03
-8.1999999999999869e+00 +7.9180966858446666e+00 +0.0000000000000000e+00 -8.1999997054794118e+00 -2.9982080459334558e-02 -5.6651795172217934e-01 +5.6832258933950750e-03
-8.2999999999999865e+00 +7.9180499805071074e+00 +0.0000000000000000e+00 -8.2999996945723353e+00 -2.9981999636293857e-02 -5.6651812755595421e-01 +5.6831289274815195e-03
-8.3999999999999861e+00 +7.9180027090433871e+00 +0.0000000000000000e+00 -8.3999996833992441e+00 -2.9981923014237865e-02 -5.6651831523028207e-01 +5.6830326539297378e-03
-8.4999999999999858e+00 +7.9179548714533192e+00 +0.0000000000000000e+00 -8.4999996719569353e+00 -2.9981850051592634e-02 -5.6651851438531453e-01 +5.6829371110706560e-03
-8.5999999999999854e+00 +7.9179064677367066e+00 +0.0000000000000000e+00 -8.5999996602422026e+00 -2.9981780206804167e-02 -5.6651872466112463e-01 +5.6828423372401573e-03
-8.6999999999999851e+00 +7.9178574978933405e+00 +0.0000000000000000e+00 -8.6999996482518398e+00 -2.9981712938338890e-02 -5.6651894569770411e-01 +5.6827483707792255e-03
-8.7999999999999847e+00 +7.9178079619230015e+00 +0.0000000000000000e+00 -8.7999996359826440e+00 -2.9981647704684165e-02 -5.6651917713496092e-01 +5.6826552500340698e-03
-8.8999999999999844e+00 +7.9177578598254605e+00 +0.0000000000000000e+00 -8.8999996234314089e+00 -2.9981583964348742e-02 -5.6651941861271571e-01 +5.6825630133562621e-03
-8.9999999999999840e+00 +7.9177071916004769e+00 +0.0000000000000000e+00 -8.9999996105949300e+00 -2.9981521175863311e-02 -5.6651966977069990e-01 +5.6824716991028638e-03
-9.0999999999999837e+00 +7.9176559572478018e+00 +0.0000000000000000e+00 -9.0999995974700010e+00 -2.9981458797780951e-02 -5.6651993024855252e-01 +5.6823813456365665e-03
-9.1999999999999833e+00 +7.9176041567671769e+00 +0.0000000000000000e+00 -9.1999995840534172e+00 -2.9981396288677659e-02 -5.6652019968581779e-01 +5.6822919913258243e-03
-9.2999999999999829e+00 +7.9175517901583348e+00 +0.0000000000000000e+00 -9.2999995703419742e+00 -2.9981333107152789e-02 -5.6652047772194192e-01 +5.6822036745449740e-03
-9.3999999999999826e+00 +7.9174988574209983e+00 +0.0000000000000000e+00 -9.3999995563324656e+00 -2.9981268711829628e-02 -5.6652076399627127e-01 +5.6821164336743821e-03
-9.4999999999999822e+00 +7.9174453585548843e+00 +0.0000000000000000e+00 -9.4999995420216869e+00 -2.9981202561355832e-02 -5.6652105814804821e-01 +5.6820303071005770e-03
-9.5999999999999819e+00 +7.9173912935596995e+00 +0.0000000000000000e+00 -9.5999995274064336e+00 -2.9981134114403955e-02 -5.6652135981641039e-01 +5.6819453332163684e-03
-9.6999999999999815e+00 +7.9173366624351447e+00 +0.0000000000000000e+00 -9.6999995124834992e+00 -2.9981062829671890e-02 -5.6652166864038533e-01 +5.6818615504209925e-03
-9.7999999999999812e+00 +7.9172814651809134e+00 +0.0000000000000000e+00 -9.7999994972496793e+00 -2.9980988165883484e-02 -5.6652198425889078e-01 +5.6817789971202425e-03
-9.8999999999999808e+00 +7.9172257017966921e+00 +0.0000000000000000e+00 -9.8999994817017694e+00 -2.9980909581788888e-02 -5.6652230631072953e-01 +5.6816977117265920e-03
-9.9999999999999805e+00 +7.9171693722821601e+00 +0.0000000000000000e+00 -9.9999994658365630e+00 -2.9980826536165173e-02 -5.6652263443458795e-01 +5.6816177326593402e-03
-1.0099999999999980e+01 +7.9171124766369916e+00 +0.0000000000000000e+00 -1.0099999449650856e+01 -2.9980738658223698e-02 -5.6652296825642889e-01 +5.6815390904731691e-03
-1.0199999999999980e+01 +7.9170550148608552e+00 +0.0000000000000000e+00 -1.0199999433141443e+01 -2.9980646258811996e-02 -5.6652330735172174e-01 +5.6814617842360143e-03
-1.0299999999999979e+01 +7.9169969869534134e+00 +0.0000000000000000e+00 -1.0299999416305118e+01 -2.9980549819134401e-02 -5.6652365128333959e-01 +5.6813858051316260e-03
-1.0399999999999979e+01 +7.9169383929143242e+00 +0.0000000000000000e+00 -1.0399999399138675e+01 -2.9980449820330407e-02 -5.6652399961417466e-01 +5.6813111443292617e-03
-1.0499999999999979e+01 +7.9168792327432422e+00 +0.0000000000000000e+00 -1.0499999381638911e+01 -2.9980346743472969e-02 -5.6652435190713912e-01 +5.6812377929833027e-03
-1.0599999999999978e+01 +7.9168195064398166e+00 +0.0000000000000000e+00 -1.0599999363802620e+01 -2.9980241069566784e-02 -5.6652470772516694e-01 +5.6811657422328613e-03
-1.0699999999999978e+01 +7.9167592140036946e+00 +0.0000000000000000e+00 -1.0699999345626596e+01 -2.9980133279546548e-02 -5.6652506663121416e-01 +5.6810949832013990e-03
-1.0799999999999978e+01 +7.9166983554345185e+00 +0.0000000000000000e+00 -1.0799999327107633e+01 -2.9980023854275156e-02 -5.6652542818825913e-01 +5.6810255069963296e-03
-1.0899999999999977e+01 +7.9166369307319293e+00 +0.0000000000000000e+00 -1.0899999308242528e+01 -2.9979913274542063e-02 -5.6652579195930430e-01 +5.6809573047086372e-03
-1.0999999999999977e+01 +7.9165749398955665e+00 +0.0000000000000000e+00 -1.0999999289028073e+01 -2.9979802021061482e-02 -5.6652615750737589e-01 +5.6808903674124816e-03
-1.1099999999999977e+01 +7.9165123829250659e+00 +0.0000000000000000e+00 -1.1099999269461065e+01 -2.9979690574470676e-02 -5.6652652439552564e-01 +5.6808246861648195e-03
-1.1199999999999976e+01 +7.9164492598200624e+00 +0.0000000000000000e+00 -1.1199999249538298e+01 -2.9979579415328198e-02 -5.6652689218683117e-01 +5.6807602520050019e-03
-1.1299999999999976e+01 +7.9163855705801911e+00 +0.0000000000000000e+00 -1.1299999229256565e+01 -2.9979469024112193e-02 -5.6652726044439683e-01 +5.6806970559544001e-03
-1.1399999999999975e+01 +7.9163213152050869e+00 +0.0000000000000000e+00 -1.1399999208612664e+01 -2.9979359881218613e-02 -5.6652762873135432e-01 +5.6806350890159993e-03
-1.1499999999999975e+01 +7.9162564936943829e+00 +0.0000000000000000e+00 -1.1499999187603388e+01 -2.9979252466959500e-02 -5.6652799661086328e-01 +5.6805743421740277e-03
-1.1599999999999975e+01 +7.9161911060477133e+00 +0.0000000000000000e+00 -1.1599999166225530e+01 -2.9979147261561288e-02 -5.6652836364611325e-01 +5.6805148063935555e-03
-1.1699999999999974e+01 +7.9161251522647138e+00 +0.0000000000000000e+00 -1.1699999144475886e+01 -2.9979044745162997e-02 -5.6652872940032273e-01 +5.6804564726201066e-03
