# trajectory
# s[mm] rx[mm] ry[mm] rz[mm] px[rad] py[rad] pz[rad]
0.0000000000000000e+00 +8.1529999999999987e+00 +0.0000000000000000e+00 +0.0000000000000000e+00 +0.0000000000000000e+00 +0.0000000000000000e+00 +1.0000000000000000e+00
-1.0000000000000001e-01 +8.1529997170760264e+00 +0.0000000000000000e+00 -9.9999999999466349e-02 +5.6584796080589872e-06 +0.0000000000000000e+00 +9.9999999998399081e-01
-2.0000000000000001e-01 +8.1529988683040440e+00 +0.0000000000000000e+00 -1.9999999999573087e-01 +1.1316960190490243e-05 +0.0000000000000000e+00 +9.9999999993596322e-01
-3.0000000000000004e-01 +8.1529974536839536e+00 +0.0000000000000000e+00 -2.9999999998559168e-01 +1.6975441779181995e-05 +0.0000000000000000e+00 +9.9999999985591725e-01
-4.0000000000000002e-01 +8.1529954732156522e+00 +0.0000000000000000e+00 -3.9999999996584701e-01 +2.2633924411259327e-05 +0.0000000000000000e+00 +9.9999999974385279e-01
-5.0000000000000000e-01 +8.1529929268990351e+00 +0.0000000000000000e+00 -4.9999999993329497e-01 +2.8292408129084157e-05 +0.0000000000000000e+00 +9.9999999959976993e-01
-5.9999999999999998e-01 +8.1529898147339885e+00 +0.0000000000000000e+00 -5.9999999988473374e-01 +3.3950892980255216e-05 +0.0000000000000000e+00 +9.9999999942366857e-01
-6.9999999999999996e-01 +8.1529861367203988e+00 +0.0000000000000000e+00 -6.9999999981696137e-01 +3.9609379017608043e-05 +0.0000000000000000e+00 +9.9999999921554872e-01
-7.9999999999999993e-01 +8.1529818928581435e+00 +0.0000000000000000e+00 -7.9999999972677616e-01 +4.5267866299214979e-05 +0.0000000000000000e+00 +9.9999999897541036e-01
-8.9999999999999991e-01 +8.1529770831470945e+00 +0.0000000000000000e+00 -8.9999999961097621e-01 +5.0926354888385165e-05 +0.0000000000000000e+00 +9.9999999870325340e-01
-9.9999999999999989e-01 +8.1529717075871186e+00 +0.0000000000000000e+00 -9.9999999946635953e-01 +5.6584844853664566e-05 +0.0000000000000000e+00 +9.9999999839907783e-01
-1.0999999999999999e+00 +8.1529657661780757e+00 +0.0000000000000000e+00 -1.0999999992897245e+00 +6.2243336268835985e-05 +0.0000000000000000e+00 +9.9999999806288375e-01
-1.2000000000000000e+00 +8.1529592589198145e+00 +0.0000000000000000e+00 -1.1999999990778689e+00 +6.7901829212919099e-05 +0.0000000000000000e+00 +9.9999999769467096e-01
-1.3000000000000000e+00 +8.1529521858121790e+00 +0.0000000000000000e+00 -1.2999999988275912e+00 +7.3560323770170512e-05 +0.0000000000000000e+00 +9.9999999729443956e-01
-1.4000000000000001e+00 +8.1529445468550037e+00 +0.0000000000000000e+00 -1.3999999985356895e+00 +7.9218820030083753e-05 +0.0000000000000000e+00 +9.9999999686218943e-01
-1.5000000000000002e+00 +8.1529363420481129e+00 +0.0000000000000000e+00 -1.4999999981989618e+00 +8.4877318087389376e-05 +0.0000000000000000e+00 +9.9999999639792059e-01
-1.6000000000000003e+00 +8.1529275713913218e+00 +0.0000000000000000e+00 -1.5999999978142063e+00 +9.0535818042054993e-05 +0.0000000000000000e+00 +9.9999999590163302e-01
-1.7000000000000004e+00 +8.1529182348844369e+00 +0.0000000000000000e+00 -1.6999999973782212e+00 +9.6194319999285365e-05 +0.0000000000000000e+00 +9.9999999537332662e-01
-1.8000000000000005e+00 +8.1529083325272520e+00 +0.0000000000000000e+00 -1.7999999968878044e+00 +1.0185282406952247e-04 +0.0000000000000000e+00 +9.9999999481300128e-01
-1.9000000000000006e+00 +8.1528978643195487e+00 +0.0000000000000000e+00 -1.8999999963397542e+00 +1.0751133036844558e-04 +0.0000000000000000e+00 +9.9999999422065711e-01
-2.0000000000000004e+00 +8.1528868302610995e+00 +0.0000000000000000e+00 -1.9999999957308687e+00 +1.1316983901697136e-04 +0.0000000000000000e+00 +9.9999999359629399e-01
-2.1000000000000005e+00 +8.1528752303516629e+00 +0.0000000000000000e+00 -2.0999999950579458e+00 +1.1882835014055153e-04 +0.0000000000000000e+00 +9.9999999293991182e-01
-2.2000000000000006e+00 +8.1528630645909850e+00 +0.0000000000000000e+00 -2.1999999943177837e+00 +1.2448686386144582e-04 +0.0000000000000000e+00 +9.9999999225151059e-01
-2.3000000000000007e+00 +8.1528503329788009e+00 +0.0000000000000000e+00 -2.2999999935071807e+00 +1.3014538029099490e-04 +0.0000000000000000e+00 +9.9999999153109020e-01
-2.4000000000000008e+00 +8.1528370355148336e+00 +0.0000000000000000e+00 -2.3999999926229347e+00 +1.3580389952891792e-04 +0.0000000000000000e+00 +9.9999999077865065e-01
-2.5000000000000009e+00 +8.1528231721987989e+00 +0.0000000000000000e+00 -2.4999999916618436e+00 +1.4146242166331239e-04 +0.0000000000000000e+00 +9.9999998999419182e-01
-2.6000000000000010e+00 +8.1528087430304019e+00 +0.0000000000000000e+00 -2.5999999906207059e+00 +1.4712094677065419e-04 +0.0000000000000000e+00 +9.9999998917771371e-01
-2.7000000000000011e+00 +8.1527937480093424e+00 +0.0000000000000000e+00 -2.6999999894963191e+00 +1.5277947491579744e-04 +0.0000000000000000e+00 +9.9999998832921622e-01
-2.8000000000000012e+00 +8.1527781871353149e+00 +0.0000000000000000e+00 -2.7999999882854816e+00 +1.5843800615197441e-04 +0.0000000000000000e+00 +9.9999998744869933e-01
-2.9000000000000012e+00 +8.1527620604080067e+00 +0.0000000000000000e+00 -2.8999999869849917e+00 +1.6409654052079552e-04 +0.0000000000000000e+00 +9.9999998653616295e-01
-3.0000000000000013e+00 +8.1527453678271051e+00 +0.0000000000000000e+00 -2.9999999855916473e+00 +1.6975507805224910e-04 +0.0000000000000000e+00 +9.9999998559160697e-01
-3.1000000000000014e+00 +8.1527281093922905e+00 +0.0000000000000000e+00 -3.0999999841022459e+00 +1.7541361876470142e-04 +0.0000000000000000e+00 +9.9999998461503137e-01
-3.2000000000000015e+00 +8.1527102851032449e+00 +0.0000000000000000e+00 -3.1999999825135861e+00 +1.8107216266489645e-04 +0.0000000000000000e+00 +9.9999998360643616e-01
-3.3000000000000016e+00 +8.1526918949596503e+00 +0.0000000000000000e+00 -3.2999999808224656e+00 +1.8673070974795580e-04 +0.0000000000000000e+00 +9.9999998256582123e-01
-3.4000000000000017e+00 +8.1526729389611887e+00 +0.0000000000000000e+00 -3.3999999790256830e+00 +1.9238925999737856e-04 +0.0000000000000000e+00 +9.9999998149318647e-01
-3.5000000000000018e+00 +8.1526534171075458e+00 +0.0000000000000000e+00 -3.4999999771200359e+00 +1.9804781338504115e-04 +0.0000000000000000e+00 +9.9999998038853199e-01
-3.6000000000000019e+00 +8.1526333293984088e+00 +0.0000000000000000e+00 -3.5999999751023219e+00 +2.0370636987119715e-04 +0.0000000000000000e+00 +9.9999997925185757e-01
-3.7000000000000020e+00 +8.1526126758334705e+00 +0.0000000000000000e+00 -3.6999999729693398e+00 +2.0936492940447712e-04 +0.0000000000000000e+00 +9.9999997808316332e-01
-3.8000000000000020e+00 +8.1525914564124289e+00 +0.0000000000000000e+00 -3.7999999707178871e+00 +2.1502349192188843e-04 +0.0000000000000000e+00 +9.9999997688244913e-01
-3.9000000000000021e+00 +8.1525696711349891e+00 +0.0000000000000000e+00 -3.8999999683447619e+00 +2.2068205734881511e-04 +0.0000000000000000e+00 +9.9999997564971488e-01
-4.0000000000000018e+00 +8.1525473200008651e+00 +0.0000000000000000e+00 -3.9999999658467624e+00 +2.2634062559901761e-04 +0.0000000000000000e+00 +9.9999997438496069e-01
-4.1000000000000014e+00 +8.1525244030097781e+00 +0.0000000000000000e+00 -4.0999999632206867e+00 +2.3199919657532854e-04 +0.0000000000000000e+00 +9.9999997308818644e-01
-4.2000000000000011e+00 +8.1525009201614616e+00 +0.0000000000000000e+00 -4.1999999604633329e+00 +2.3765777017730838e-04 +0.0000000000000000e+00 +9.9999997175939215e-01
-4.3000000000000007e+00 +8.1524768714556579e+00 +0.0000000000000000e+00 -4.2999999575714982e+00 +2.4331634630890127e-04 +0.0000000000000000e+00 +9.9999997039857780e-01
-4.4000000000000004e+00 +8.1524522568921185e+00 +0.0000000000000000e+00 -4.3999999545419808e+00 +2.4897492487913097e-04 +0.0000000000000000e+00 +9.9999996900574328e-01
-4.5000000000000000e+00 +8.1524270764706035e+00 +0.0000000000000000e+00 -4.4999999513715796e+00 +2.5463350580210082e-04 +0.0000000000000000e+00 +9.9999996758088872e-01
-4.5999999999999996e+00 +8.1524013301908820e+00 +0.0000000000000000e+00 -4.5999999480570919e+00 +2.6029208899699393e-04 +0.0000000000000000e+00 +9.9999996612401398e-01
-4.6999999999999993e+00 +8.1523750180527301e+00 +0.0000000000000000e+00 -4.6999999445953158e+00 +2.6595067438807310e-04 +0.0000000000000000e+00 +9.9999996463511909e-01
-4.7999999999999989e+00 +8.1523481400559330e+00 +0.0000000000000000e+00 -4.7999999409830485e+00 +2.7160926190468085e-04 +0.0000000000000000e+00 +9.9999996311420403e-01
-4.8999999999999986e+00 +8.1523206962002810e+00 +0.0000000000000000e+00 -4.8999999372170890e+00 +2.7726785148123956e-04 +0.0000000000000000e+00 +9.9999996156126880e-01
-4.9999999999999982e+00 +8.1522926864855698e+00 +0.0000000000000000e+00 -4.9999999332942346e+00 +2.8292644305725134e-04 +0.0000000000000000e+00 +9.9999995997631341e-01
-5.0999999999999979e+00 +8.1522641109116041e+00 +0.0000000000000000e+00 -5.0999999292112843e+00 +2.8858503657729821e-04 +0.0000000000000000e+00 +9.9999995835933775e-01
-5.1999999999999975e+00 +8.1522349694781919e+00 +0.0000000000000000e+00 -5.1999999249650353e+00 +2.9424363199104215e-04 +0.0000000000000000e+00 +9.9999995671034181e-01
-5.2999999999999972e+00 +8.1522052621851451e+00 +0.0000000000000000e+00 -5.2999999205522856e+00 +2.9990222925322513e-04 +0.0000000000000000e+00 +9.9999995502932570e-01
-5.3999999999999968e+00 +8.1521749890322805e+00 +0.0000000000000000e+00 -5.3999999159698335e+00 +3.0556082832366923e-04 +0.0000000000000000e+00 +9.9999995331628933e-01
-5.4999999999999964e+00 +8.1521441500194207e+00 +0.0000000000000000e+00 -5.4999999112144762e+00 +3.1121942916727654e-04 +0.0000000000000000e+00 +9.9999995157123256e-01
-5.5999999999999961e+00 +8.1521127451463897e+00 +0.0000000000000000e+00 -5.5999999062830126e+00 +3.1687803175402946e-04 +0.0000000000000000e+00 +9.9999994979415552e-01
-5.6999999999999957e+00 +8.1520807744130135e+00 +0.0000000000000000e+00 -5.6999999011722400e+00 +3.2253663605899064e-04 +0.0000000000000000e+00 +9.9999994798505809e-01
-5.7999999999999954e+00 +8.1520482378191215e+00 +0.0000000000000000e+00 -5.7999998958789565e+00 +3.2819524206230313e-04 +0.0000000000000000e+00 +9.9999994614394039e-01
-5.8999999999999950e+00 +8.1520151353645449e+00 +0.0000000000000000e+00 -5.8999998903999602e+00 +3.3385384974919040e-04 +0.0000000000000000e+00 +9.9999994427080230e-01
-5.9999999999999947e+00 +8.1519814670491151e+00 +0.0000000000000000e+00 -5.9999998847320493e+00 +3.3951245910995647e-04 +0.0000000000000000e+00 +9.9999994236564371e-01
-6.0999999999999943e+00 +8.1519472328726668e+00 +0.0000000000000000e+00 -6.0999998788720218e+00 +3.4517107014006364e-04 +0.0000000000000000e+00 +9.9999994042846474e-01
-6.1999999999999940e+00 +8.1519124328350312e+00 +0.0000000000000000e+00 -6.1999998728166750e+00 +3.5082968284098648e-04 +0.0000000000000000e+00 +9.9999993845926527e-01
-6.2999999999999936e+00 +8.1518770669360414e+00 +0.0000000000000000e+00 -6.2999998665628070e+00 +3.5648829722106560e-04 +0.0000000000000000e+00 +9.9999993645804530e-01
-6.3999999999999932e+00 +8.1518411351755304e+00 +0.0000000000000000e+00 -6.3999998601072159e+00 +3.6214691329558557e-04 +0.0000000000000000e+00 +9.9999993442480484e-01
-6.4999999999999929e+00 +8.1518046375533260e+00 +0.0000000000000000e+00 -6.4999998534466998e+00 +3.6780553108677505e-04 +0.0000000000000000e+00 +9.9999993235954376e-01
-6.5999999999999925e+00 +8.1517675740692557e+00 +0.0000000000000000e+00 -6.5999998465780569e+00 +3.7346415062380683e-04 +0.0000000000000000e+00 +9.9999993026226208e-01
-6.6999999999999922e+00 +8.1517299447231419e+00 +0.0000000000000000e+00 -6.6999998394980853e+00 +3.7912277194279801e-04 +0.0000000000000000e+00 +9.9999992813295968e-01
-6.7999999999999918e+00 +8.1516917495148054e+00 +0.0000000000000000e+00 -6.7999998322035822e+00 +3.8478139508681022e-04 +0.0000000000000000e+00 +9.9999992597163667e-01
-6.8999999999999915e+00 +8.1516529884440612e+00 +0.0000000000000000e+00 -6.8999998246913457e+00 +3.9044002010584980e-04 +0.0000000000000000e+00 +9.9999992377829283e-01
-6.9999999999999911e+00 +8.1516136615107193e+00 +0.0000000000000000e+00 -6.9999998169581739e+00 +3.9609864705686783e-04 +0.0000000000000000e+00 +9.9999992155292816e-01
-7.0999999999999908e+00 +8.1515737687145826e+00 +0.0000000000000000e+00 -7.0999998090008640e+00 +4.0175727600376052e-04 +0.0000000000000000e+00 +9.9999991929554266e-01
-7.1999999999999904e+00 +8.1515333100554486e+00 +0.0000000000000000e+00 -7.1999998008162152e+00 +4.0741590701736915e-04 +0.0000000000000000e+00 +9.9999991700613622e-01
-7.2999999999999901e+00 +8.1514922855331076e+00 +0.0000000000000000e+00 -7.2999997924010245e+00 +4.1307454017548039e-04 +0.0000000000000000e+00 +9.9999991468470883e-01
-7.3999999999999897e+00 +8.1514506951473393e+00 +0.0000000000000000e+00 -7.3999997837520901e+00 +4.1873317556282656e-04 +0.0000000000000000e+00 +9.9999991233126040e-01
-7.4999999999999893e+00 +8.1514085388979165e+00 +0.0000000000000000e+00 -7.4999997748662093e+00 +4.2439181327108566e-04 +0.0000000000000000e+00 +9.9999990994579080e-01
-7.5999999999999890e+00 +8.1513658167846028e+00 +0.0000000000000000e+00 -7.5999997657401810e+00 +4.3005045339888166e-04 +0.0000000000000000e+00 +9.9999990752829993e-01
-7.6999999999999886e+00 +8.1513225288071514e+00 +0.0000000000000000e+00 -7.6999997563708025e+00 +4.3570909605178474e-04 +0.0000000000000000e+00 +9.9999990507878778e-01
-7.7999999999999883e+00 +8.1512786749653046e+00 +0.0000000000000000e+00 -7.7999997467548718e+00 +4.4136774134231145e-04 +0.0000000000000000e+00 +9.9999990259725413e-01
-7.8999999999999879e+00 +8.1512342552587906e+00 +0.0000000000000000e+00 -7.8999997368891863e+00 +4.4702638938992493e-04 +0.0000000000000000e+00 +9.9999990008369899e-01
-7.9999999999999876e+00 +8.1511892696873289e+00 +0.0000000000000000e+00 -7.9999997267705441e+00 +4.5268504032103523e-04 +0.0000000000000000e+00 +9.9999989753812224e-01
-8.0999999999999872e+00 +8.1511437182506246e+00 +0.0000000000000000e+00 -8.0999997163957431e+00 +4.5834369426840774e-04 +0.0000000000000000e+00 +9.9999989496052377e-01
-8.1999999999999869e+00 +8.1510976009483702e+00 +0.0000000000000000e+00 -8.1999997057615808e+00 +4.6400235136465561e-04 +0.0000000000000000e+00 +9.9999989235090347e-01
-8.2999999999999865e+00 +8.1510509177802426e+00 +0.0000000000000000e+00 -8.2999996948648551e+00 +4.6966101173573154e-04 +0.0000000000000000e+00 +9.9999988970926124e-01
-8.3999999999999861e+00 +8.1510036687459095e+00 +0.0000000000000000e+00 -8.3999996837023652e+00 +4.7531967550033599e-04 +0.0000000000000000e+00 +9.9999988703559695e-01
-8.4999999999999858e+00 +8.1509558538450264e+00 +0.0000000000000000e+00 -8.4999996722709081e+00 +4.8097834276991696e-04 +0.0000000000000000e+00 +9.9999988432991049e-01
-8.5999999999999854e+00 +8.1509074730772362e+00 +0.0000000000000000e+00 -8.5999996605672813e+00 +4.8663701364866965e-04 +0.0000000000000000e+00 +9.9999988159220177e-01
-8.6999999999999851e+00 +8.1508585264421729e+00 +0.0000000000000000e+00 -8.6999996485882818e+00 +4.9229568823353637e-04 +0.0000000000000000e+00 +9.9999987882247066e-01
-8.7999999999999847e+00 +8.1508090139394618e+00 +0.0000000000000000e+00 -8.7999996363307087e+00 +4.9795436661420600e-04 +0.0000000000000000e+00 +9.9999987602071705e-01
-8.8999999999999844e+00 +8.1507589355687209e+00 +0.0000000000000000e+00 -8.8999996237913592e+00 +5.0361304887311408e-04 +0.0000000000000000e+00 +9.9999987318694084e-01
-8.9999999999999840e+00 +8.1507082913295559e+00 +0.0000000000000000e+00 -8.9999996109670306e+00 +5.0927173508544211e-04 +0.0000000000000000e+00 +9.9999987032114190e-01
-9.0999999999999837e+00 +8.1506570812215688e+00 +0.0000000000000000e+00 -9.0999995978545201e+00 +5.1493042531911763e-04 +0.0000000000000000e+00 +9.9999986742332014e-01
-9.1999999999999833e+00 +8.1506053052443548e+00 +0.0000000000000000e+00 -9.1999995844506266e+00 +5.2058911963481379e-04 +0.0000000000000000e+00 +9.9999986449347544e-01
-9.2999999999999829e+00 +8.1505529633975033e+00 +0.0000000000000000e+00 -9.2999995707521474e+00 +5.2624781808594879e-04 +0.0000000000000000e+00 +9.9999986153160780e-01
-9.3999999999999826e+00 +8.1505000556805989e+00 +0.0000000000000000e+00 -9.3999995567558798e+00 +5.3190652071868590e-04 +0.0000000000000000e+00 +9.9999985853771700e-01
-9.4999999999999822e+00 +8.1504465820932204e+00 +0.0000000000000000e+00 -9.4999995424586228e+00 +5.3756522757193303e-04 +0.0000000000000000e+00 +9.9999985551180304e-01
-9.5999999999999819e+00 +8.1503925426349433e+00 +0.0000000000000000e+00 -9.5999995278571735e+00 +5.4322393867734236e-04 +0.0000000000000000e+00 +9.9999985245386580e-01
-9.6999999999999815e+00 +8.1503379373053413e+00 +0.0000000000000000e+00 -9.6999995129483292e+00 +5.4888265405931007e-04 +0.0000000000000000e+00 +9.9999984936390518e-01
-9.7999999999999812e+00 +8.1502827661039881e+00 +0.0000000000000000e+00 -9.7999994977288871e+00 +5.5454137373497578e-04 +0.0000000000000000e+00 +9.9999984624192106e-01
-9.8999999999999808e+00 +8.1502270290304519e+00 +0.0000000000000000e+00 -9.8999994821956463e+00 +5.6020009771422241e-04 +0.0000000000000000e+00 +9.9999984308791345e-01
-9.9999999999999805e+00 +8.1501707260843013e+00 +0.0000000000000000e+00 -9.9999994663454022e+00 +5.6585882599967570e-04 +0.0000000000000000e+00 +9.9999983990188224e-01
-1.0099999999999980e+01 +8.1501138572651080e+00 +0.0000000000000000e+00 -1.0099999450174954e+01 +5.7151755858728321e-04 +0.0000000000000000e+00 +9.9999983668382730e-01
-1.0199999999999980e+01 +8.1500564225724403e+00 +0.0000000000000000e+00 -1.0199999433681100e+01 +5.7717629547268602e-04 +0.0000000000000000e+00 +9.9999983343374865e-01
-1.0299999999999979e+01 +8.1499984220058703e+00 +0.0000000000000000e+00 -1.0299999416860636e+01 +5.8283503665759111e-04 +0.0000000000000000e+00 +9.9999983015164617e-01
-1.0399999999999979e+01 +8.1499398555649663e+00 +0.0000000000000000e+00 -1.0399999399710362e+01 +5.8849378215035050e-04 +0.0000000000000000e+00 +9.9999982683751976e-01
-1.0499999999999979e+01 +8.1498807232492965e+00 +0.0000000000000000e+00 -1.0499999382227074e+01 +5.9415253196596133e-04 +0.0000000000000000e+00 +9.9999982349136940e-01
-1.0599999999999978e+01 +8.1498210250584275e+00 +0.0000000000000000e+00 -1.0599999364407569e+01 +5.9981128612606599e-04 +0.0000000000000000e+00 +9.9999982011319488e-01
-1.0699999999999978e+01 +8.1497607609919243e+00 +0.0000000000000000e+00 -1.0699999346248646e+01 +6.0547004465895187e-04 +0.0000000000000000e+00 +9.9999981670299620e-01
-1.0799999999999978e+01 +8.1496999310493479e+00 +0.0000000000000000e+00 -1.0799999327747102e+01 +6.1112880759955153e-04 +0.0000000000000000e+00 +9.9999981326077336e-01
-1.0899999999999977e+01 +8.1496385352302561e+00 +0.0000000000000000e+00 -1.0899999308899734e+01 +6.1678757498944271e-04 +0.0000000000000000e+00 +9.9999980978652614e-01
-1.0999999999999977e+01 +8.1495765735342012e+00 +0.0000000000000000e+00 -1.0999999289703339e+01 +6.2244634687684812e-04 +0.0000000000000000e+00 +9.9999980628025442e-01
-1.1099999999999977e+01 +8.1495140459607303e+00 +0.0000000000000000e+00 -1.1099999270154717e+01 +6.2810512331663577e-04 +0.0000000000000000e+00 +9.9999980274195810e-01
-1.1199999999999976e+01 +8.1494509525093850e+00 +0.0000000000000000e+00 -1.1199999250250663e+01 +6.3376390437031884e-04 +0.0000000000000000e+00 +9.9999979917163706e-01
-1.1299999999999976e+01 +8.1493872931797000e+00 +0.0000000000000000e+00 -1.1299999229987977e+01 +6.3942269010605548e-04 +0.0000000000000000e+00 +9.9999979556929131e-01
-1.1399999999999975e+01 +8.1493230679712045e+00 +0.0000000000000000e+00 -1.1399999209363454e+01 +6.4508148059864913e-04 +0.0000000000000000e+00 +9.9999979193492061e-01
-1.1499999999999975e+01 +8.1492582768834190e+00 +0.0000000000000000e+00 -1.1499999188373893e+01 +6.5074027592954844e-04 +0.0000000000000000e+00 +9.9999978826852476e-01
-1.1599999999999975e+01 +8.1491929199158548e+00 +0.0000000000000000e+00 -1.1599999167016092e+01 +6.5639907618684731e-04 +0.0000000000000000e+00 +9.9999978457010374e-01
-1.1699999999999974e+01 +8.1491269970680147e+00 +0.0000000000000000e+00 -1.1699999145286847e+01 +6.6205788146528463e-04 +0.0000000000000000e+00 +9.9999978083965735e-01
