# field on trajectory
# s[mm] rx[mm] ry[mm] rz[mm] bx[T] by[T] bz[T]
-0.0000000000000000e+00 +8.1530000000000094e+00 +0.0000000000000000e+00 -0.0000000000000000e+00 -2.8049036810208167e-02 -5.3681763675944372e-01 +5.3391708915132372e-03
-1.0000000000000001e-01 +8.1529997159377707e+00 +0.0000000000000000e+00 -1.0008006405070299e-01 -2.8048896174753975e-02 -5.3681766648205009e-01 +5.3391724003963919e-03
-2.0000000000000001e-01 +8.1529988637557800e+00 +0.0000000000000000e+00 -2.0016012809818201e-01 -2.8048739719021862e-02 -5.3681769669791846e-01 +5.3391724670961670e-03
-2.9999999999999999e-01 +8.1529974434524792e+00 +0.0000000000000000e+00 -3.0024019213920999e-01 -2.8048568602080621e-02 -5.3681772799439487e-01 +5.3391712305582012e-03
-4.0000000000000002e-01 +8.1529954550242092e+00 +0.0000000000000000e+00 -4.0032025617056399e-01 -2.8048383982998772e-02 -5.3681776095882960e-01 +5.3391688297276798e-03
-5.0000000000000000e-01 +8.1529928984782600e+00 +0.0000000000000000e+00 -5.0040032018901703e-01 -2.8048187020839412e-02 -5.3681779617848180e-01 +5.3391654035484688e-03
-5.9999999999999998e-01 +8.1529897738146193e+00 +0.0000000000000000e+00 -6.0048038419134497e-01 -2.8047978874667791e-02 -5.3681783424065399e-01 +5.3391610909645868e-03
-6.9999999999999996e-01 +8.1529860810223909e+00 +0.0000000000000000e+00 -7.0056044817432195e-01 -2.8047760703552724e-02 -5.3681787573271567e-01 +5.3391560309205728e-03
-8.0000000000000004e-01 +8.1529818201124709e+00 +0.0000000000000000e+00 -8.0064051213472498e-01 -2.8047533666553683e-02 -5.3681792124186534e-01 +5.3391503623591461e-03
-9.0000000000000002e-01 +8.1529769910812302e+00 +0.0000000000000000e+00 -9.0072057606932698e-01 -2.8047298922735490e-02 -5.3681797135539466e-01 +5.3391442242240418e-03
-1.0000000000000000e+00 +8.1529715939250291e+00 +0.0000000000000000e+00 -1.0008006399749001e+00 -2.8047057631162588e-02 -5.3681802666058220e-01 +5.3391377554590225e-03
-1.1000000000000001e+00 +8.1529656286511507e+00 +0.0000000000000000e+00 -1.1008807038482300e+00 -2.8046810950894771e-02 -5.3681808774461348e-01 +5.3391310950071623e-03
-1.2000000000000000e+00 +8.1529590952522994e+00 +0.0000000000000000e+00 -1.2009607676860801e+00 -2.8046560040997589e-02 -5.3681815519476583e-01 +5.3391243818128676e-03
-1.3000000000000000e+00 +8.1529519937357708e+00 +0.0000000000000000e+00 -1.3010408314852300e+00 -2.8046306060530702e-02 -5.3681822959819525e-01 +5.3391177548197978e-03
-1.3999999999999999e+00 +8.1529443240979198e+00 +0.0000000000000000e+00 -1.4011208952424601e+00 -2.8046050168558302e-02 -5.3681831154212256e-01 +5.3391113529728780e-03
-1.5000000000000000e+00 +8.1529360863350995e+00 +0.0000000000000000e+00 -1.5012009589545301e+00 -2.8045793524144796e-02 -5.3681840161375338e-01 +5.3391053152175953e-03
-1.6000000000000001e+00 +8.1529272804509691e+00 +0.0000000000000000e+00 -1.6012810226182299e+00 -2.8045537286352045e-02 -5.3681850040022339e-01 +5.3390997804995503e-03
-1.7000000000000000e+00 +8.1529179064491508e+00 +0.0000000000000000e+00 -1.7013610862303301e+00 -2.8045282614242370e-02 -5.3681860848865104e-01 +5.3390948877651149e-03
-1.8000000000000000e+00 +8.1529079643223703e+00 +0.0000000000000000e+00 -1.8014411497875999e+00 -2.8045030666883103e-02 -5.3681872646621853e-01 +5.3390907759623494e-03
-1.8999999999999999e+00 +8.1528974540779000e+00 +0.0000000000000000e+00 -1.9015212132868200e+00 -2.8044782603336420e-02 -5.3681885491998316e-01 +5.3390875840392078e-03
-2.0000000000000000e+00 +8.1528863757084800e+00 +0.0000000000000000e+00 -2.0016012767247702e+00 -2.8044539582670371e-02 -5.3681899443708958e-01 +5.3390854509457351e-03
-2.1000000000000001e+00 +8.1528747292177304e+00 +0.0000000000000000e+00 -2.1016813400982199e+00 -2.8044302541634751e-02 -5.3681914533578212e-01 +5.3390844953017606e-03
-2.2000000000000002e+00 +8.1528625146056601e+00 +0.0000000000000000e+00 -2.2017614034039301e+00 -2.8044071569385601e-02 -5.3681930690948743e-01 +5.3390847582158937e-03
-2.2999999999999998e+00 +8.1528497318759001e+00 +0.0000000000000000e+00 -2.3018414666387002e+00 -2.8043846553109604e-02 -5.3681947820740483e-01 +5.3390862623265900e-03
-2.3999999999999999e+00 +8.1528363810211903e+00 +0.0000000000000000e+00 -2.4019215297993002e+00 -2.8043627379996064e-02 -5.3681965827881695e-01 +5.3390890302728172e-03
-2.5000000000000000e+00 +8.1528224620451493e+00 +0.0000000000000000e+00 -2.5020015928824901e+00 -2.8043413937228007e-02 -5.3681984617292933e-01 +5.3390930846923491e-03
-2.6000000000000001e+00 +8.1528079749477893e+00 +0.0000000000000000e+00 -2.6020816558850601e+00 -2.8043206111987812e-02 -5.3682004093898039e-01 +5.3390984482227666e-03
-2.7000000000000002e+00 +8.1527929197291105e+00 +0.0000000000000000e+00 -2.7021617188037701e+00 -2.8043003791455558e-02 -5.3682024162621556e-01 +5.3391051435011270e-03
-2.7999999999999998e+00 +8.1527772963891003e+00 +0.0000000000000000e+00 -2.8022417816354102e+00 -2.8042806862808842e-02 -5.3682044728388922e-01 +5.3391131931638715e-03
-2.8999999999999999e+00 +8.1527611049277802e+00 +0.0000000000000000e+00 -2.9023218443767500e+00 -2.8042615213222610e-02 -5.3682065696126646e-01 +5.3391226198467520e-03
-3.0000000000000000e+00 +8.1527443453451305e+00 +0.0000000000000000e+00 -3.0024019070245598e+00 -2.8042428729868951e-02 -5.3682086970762521e-01 +5.3391334461847691e-03
-3.1000000000000001e+00 +8.1527270176411495e+00 +0.0000000000000000e+00 -3.1024819695756198e+00 -2.8042247299916927e-02 -5.3682108457225675e-01 +5.3391456948120803e-03
-3.2000000000000002e+00 +8.1527091218158603e+00 +0.0000000000000000e+00 -3.2025620320267101e+00 -2.8042070810532390e-02 -5.3682130060446975e-01 +5.3391593883619307e-03
-3.2999999999999998e+00 +8.1526906578692397e+00 +0.0000000000000000e+00 -3.3026420943745900e+00 -2.8041899148877777e-02 -5.3682151685358892e-01 +5.3391745494665768e-03
-3.3999999999999999e+00 +8.1526716258013003e+00 +0.0000000000000000e+00 -3.4027221566160502e+00 -2.8041732202111945e-02 -5.3682173236895947e-01 +5.3391912007572130e-03
-3.5000000000000000e+00 +8.1526520256120403e+00 +0.0000000000000000e+00 -3.5028022187478500e+00 -2.8041569857389998e-02 -5.3682194619994739e-01 +5.3392093648638858e-03
-3.6000000000000001e+00 +8.1526318572978198e+00 +0.0000000000000000e+00 -3.6028822807667802e+00 -2.8041412001864541e-02 -5.3682215739596828e-01 +5.3392290644157046e-03
-3.7000000000000002e+00 +8.1526111208659096e+00 +0.0000000000000000e+00 -3.7029623426696099e+00 -2.8041258522679646e-02 -5.3682236500638192e-01 +5.3392503220396695e-03
-3.7999999999999998e+00 +8.1525898163126804e+00 +0.0000000000000000e+00 -3.8030424044531101e+00 -2.8041109306979450e-02 -5.3682256808065487e-01 +5.3392731603622134e-03
-3.8999999999999999e+00 +8.1525679436344909e+00 +0.0000000000000000e+00 -3.9031224661140600e+00 -2.8040964241903582e-02 -5.3682276566828158e-01 +5.3392976020083371e-03
-4.0000000000000000e+00 +8.1525455028386205e+00 +0.0000000000000000e+00 -4.0032025276492398e+00 -2.8040823214585179e-02 -5.3682295681871450e-01 +5.3393236695998738e-03
-4.0999999999999996e+00 +8.1525224939177896e+00 +0.0000000000000000e+00 -4.1032825890554099e+00 -2.8040686197634983e-02 -5.3682314085928995e-01 +5.3393513579929235e-03
-4.2000000000000002e+00 +8.1524989168792708e+00 +0.0000000000000000e+00 -4.2033626503293604e+00 -2.8040553474301389e-02 -5.3682331812666451e-01 +5.3393805611361119e-03
-4.2999999999999998e+00 +8.1524747717157897e+00 +0.0000000000000000e+00 -4.3034427114678504e+00 -2.8040425398392309e-02 -5.3682348918685552e-01 +5.3394111500648786e-03
-4.4000000000000004e+00 +8.1524500584346207e+00 +0.0000000000000000e+00 -4.4035227724676700e+00 -2.8040302323716348e-02 -5.3682365460578907e-01 +5.3394429958158809e-03
-4.5000000000000000e+00 +8.1524247770285001e+00 +0.0000000000000000e+00 -4.5036028333255800e+00 -2.8040184604095013e-02 -5.3682381494951537e-01 +5.3394759694292779e-03
-4.5999999999999996e+00 +8.1523989275046898e+00 +0.0000000000000000e+00 -4.6036828940383696e+00 -2.8040072593351426e-02 -5.3682397078399358e-01 +5.3395099419467299e-03
-4.7000000000000002e+00 +8.1523725098559208e+00 +0.0000000000000000e+00 -4.7037629546028104e+00 -2.8039966645322580e-02 -5.3682412267530744e-01 +5.3395447844137205e-03
-4.7999999999999998e+00 +8.1523455240894709e+00 +0.0000000000000000e+00 -4.8038430150156701e+00 -2.8039867113848069e-02 -5.3682427118945208e-01 +5.3395803678775314e-03
-4.9000000000000004e+00 +8.1523179701980606e+00 +0.0000000000000000e+00 -4.9039230752737302e+00 -2.8039774352782283e-02 -5.3682441689254790e-01 +5.3396165633895756e-03
-5.0000000000000000e+00 +8.1522898481889605e+00 +0.0000000000000000e+00 -5.0040031353737602e+00 -2.8039688715983131e-02 -5.3682456035062653e-01 +5.3396532420033642e-03
-5.0999999999999996e+00 +8.1522611580549000e+00 +0.0000000000000000e+00 -5.1040831953125396e+00 -2.8039610557324346e-02 -5.3682470212984768e-01 +5.3396902747768473e-03
-5.2000000000000002e+00 +8.1522318997995207e+00 +0.0000000000000000e+00 -5.2041632550868497e+00 -2.8039540230685576e-02 -5.3682484279630971e-01 +5.3397275327706521e-03
-5.2999999999999998e+00 +8.1522020734228100e+00 +0.0000000000000000e+00 -5.3042433146934496e+00 -2.8039478089958842e-02 -5.3682498291615943e-01 +5.3397648870493362e-03
-5.4000000000000004e+00 +8.1521716789247893e+00 +0.0000000000000000e+00 -5.4043233741291203e+00 -2.8039424489047445e-02 -5.3682512305556418e-01 +5.3398022086812479e-03
-5.5000000000000000e+00 +8.1521407163090807e+00 +0.0000000000000000e+00 -5.5044034333906504e+00 -2.8039379781865052e-02 -5.3682526378068696e-01 +5.3398393687384303e-03
-5.5999999999999996e+00 +8.1521091855684098e+00 +0.0000000000000000e+00 -5.6044834924747899e+00 -2.8039344322341977e-02 -5.3682540565779324e-01 +5.3398762382978453e-03
-5.7000000000000002e+00 +8.1520770867064094e+00 +0.0000000000000000e+00 -5.7045635513783299e+00 -2.8039318464416919e-02 -5.3682554925309134e-01 +5.3399126884399037e-03
-5.7999999999999998e+00 +8.1520444197231008e+00 +0.0000000000000000e+00 -5.8046436100980499e+00 -2.8039302562043265e-02 -5.3682569513283951e-01 +5.3399485902496952e-03
-5.9000000000000004e+00 +8.1520111846184609e+00 +0.0000000000000000e+00 -5.9047236686307096e+00 -2.8039296969188110e-02 -5.3682584386332055e-01 +5.3399838148168932e-03
-5.9999999999999902e+00 +8.1519773813925003e+00 +0.0000000000000000e+00 -6.0048037269731003e+00 -2.8039302039806459e-02 -5.3682599601083336e-01 +5.3400182332395798e-03
-6.0999999999999899e+00 +8.1519430100452208e+00 +0.0000000000000000e+00 -6.1048837851219799e+00 -2.8039317854540696e-02 -5.3682615205306683e-01 +5.3400517551804782e-03
-6.1999999999999904e+00 +8.1519080705766100e+00 +0.0000000000000000e+00 -6.2049638430741396e+00 -2.8039343547019237e-02 -5.3682631216062349e-01 +5.3400844239052019e-03
-6.2999999999999901e+00 +8.1518725629866804e+00 +0.0000000000000000e+00 -6.3050439008263499e+00 -2.8039378045903104e-02 -5.3682647643763703e-01 +5.3401163115903193e-03
-6.3999999999999897e+00 +8.1518364872754301e+00 +0.0000000000000000e+00 -6.4051239583753699e+00 -2.8039420279849396e-02 -5.3682664498823807e-01 +5.3401474904068340e-03
-6.4999999999999902e+00 +8.1517998434428591e+00 +0.0000000000000000e+00 -6.5052040157180002e+00 -2.8039469177511003e-02 -5.3682681791655096e-01 +5.3401780325199226e-03
-6.5999999999999899e+00 +8.1517626314889604e+00 +0.0000000000000000e+00 -6.6052840728510001e+00 -2.8039523667536311e-02 -5.3682699532669553e-01 +5.3402080100886651e-03
-6.6999999999999904e+00 +8.1517248514137499e+00 +0.0000000000000000e+00 -6.7053641297711399e+00 -2.8039582678568924e-02 -5.3682717732278462e-01 +5.3402374952657783e-03
-6.7999999999999901e+00 +8.1516865032135701e+00 +0.0000000000000000e+00 -6.8054441864752100e+00 -2.8039645139248850e-02 -5.3682736400895170e-01 +5.3402665601976181e-03
-6.8999999999999897e+00 +8.1516475868957095e+00 +0.0000000000000000e+00 -6.9055242429599701e+00 -2.8039709978206331e-02 -5.3682755548924099e-01 +5.3402952770228319e-03
-6.9999999999999902e+00 +8.1516081024565192e+00 +0.0000000000000000e+00 -7.0056042992222096e+00 -2.8039776124070357e-02 -5.3682775186777054e-01 +5.3403237178737172e-03
-7.0999999999999899e+00 +8.1515680498960101e+00 +0.0000000000000000e+00 -7.1056843552586999e+00 -2.8039842505462535e-02 -5.3682795324862187e-01 +5.3403519548748763e-03
-7.1999999999999904e+00 +8.1515274292141804e+00 +0.0000000000000000e+00 -7.2057644110662000e+00 -2.8039908050998253e-02 -5.3682815973586751e-01 +5.3403800601432077e-03
-7.2999999999999901e+00 +8.1514862404073902e+00 +0.0000000000000000e+00 -7.3058444666415099e+00 -2.8039971689287811e-02 -5.3682837143359607e-01 +5.3404081057879232e-03
-7.3999999999999897e+00 +8.1514444834829192e+00 +0.0000000000000000e+00 -7.4059245219813796e+00 -2.8040032348930398e-02 -5.3682858844580539e-01 +5.3404361639091879e-03
-7.4999999999999902e+00 +8.1514021584334806e+00 +0.0000000000000000e+00 -7.5060045770826100e+00 -2.8040088958523935e-02 -5.3682881087658962e-01 +5.3404643065997600e-03
-7.5999999999999899e+00 +8.1513592652663593e+00 +0.0000000000000000e+00 -7.6060846319419504e+00 -2.8040140446653150e-02 -5.3682903882992317e-01 +5.3404926059425527e-03
-7.6999999999999904e+00 +8.1513158039779192e+00 +0.0000000000000000e+00 -7.7061646865561997e+00 -2.8040185741899482e-02 -5.3682927240984823e-01 +5.3405211340122483e-03
-7.7999999999999901e+00 +8.1512717745681602e+00 +0.0000000000000000e+00 -7.8062447409221098e+00 -2.8040223772835025e-02 -5.3682951172036719e-01 +5.3405499628739819e-03
-7.8999999999999897e+00 +8.1512271770334301e+00 +0.0000000000000000e+00 -7.9063247950364799e+00 -2.8040253468025061e-02 -5.3682975686549483e-01 +5.3405791645835783e-03
-7.9999999999999902e+00 +8.1511820113773901e+00 +0.0000000000000000e+00 -8.0064048488960609e+00 -2.8040273756065128e-02 -5.3683000794915270e-01 +5.3406088111853153e-03
-8.0999999999999908e+00 +8.1511362776036496e+00 +0.0000000000000000e+00 -8.1064849024976393e+00 -2.8040283756588128e-02 -5.3683026495703712e-01 +5.3406389692636017e-03
-8.1999999999999904e+00 +8.1510899757086008e+00 +0.0000000000000000e+00 -8.2065649558379903e+00 -2.8040283220420761e-02 -5.3683052748431881e-01 +5.3406696873942979e-03
-8.2999999999999901e+00 +8.1510431056885899e+00 +0.0000000000000000e+00 -8.3066450089139003e+00 -2.8040272028563608e-02 -5.3683079504558162e-01 +5.3407010104465896e-03
-8.3999999999999897e+00 +8.1509956675508892e+00 +0.0000000000000000e+00 -8.4067250617221205e+00 -2.8040250062012811e-02 -5.3683106715528495e-01 +5.3407329832970730e-03
-8.4999999999999893e+00 +8.1509476612882299e+00 +0.0000000000000000e+00 -8.5068051142594392e+00 -2.8040217201770187e-02 -5.3683134332794802e-01 +5.3407656508319273e-03
-8.5999999999999908e+00 +8.1508990869078808e+00 +0.0000000000000000e+00 -8.6068851665226305e+00 -2.8040173328831609e-02 -5.3683162307793586e-01 +5.3407990579450414e-03
-8.6999999999999904e+00 +8.1508499444025801e+00 +0.0000000000000000e+00 -8.7069652185084596e+00 -2.8040118324198667e-02 -5.3683190591967156e-01 +5.3408332495404956e-03
-8.7999999999999794e+00 +8.1508002337759500e+00 +0.0000000000000000e+00 -8.8070452702137203e+00 -2.8040052068868445e-02 -5.3683219136744686e-01 +5.3408682705309348e-03
-8.8999999999999808e+00 +8.1507499550316407e+00 +0.0000000000000000e+00 -8.9071253216351796e+00 -2.8039974443837847e-02 -5.3683247893550179e-01 +5.3409041658386801e-03
-8.9999999999999805e+00 +8.1506991081623692e+00 +0.0000000000000000e+00 -9.0072053727696098e+00 -2.8039885330108105e-02 -5.3683276813810321e-01 +5.3409409803968555e-03
-9.0999999999999801e+00 +8.1506476931717806e+00 +0.0000000000000000e+00 -9.1072854236137797e+00 -2.8039784608675858e-02 -5.3683305848938245e-01 +5.3409787591480289e-03
-9.1999999999999797e+00 +8.1505957100635005e+00 +0.0000000000000000e+00 -9.2073654741644795e+00 -2.8039672160537665e-02 -5.3683334950341488e-01 +5.3410175470453404e-03
-9.2999999999999794e+00 +8.1505431588302599e+00 +0.0000000000000000e+00 -9.3074455244184708e+00 -2.8039547866694301e-02 -5.3683364069429806e-01 +5.3410573890535946e-03
-9.3999999999999808e+00 +8.1504900394757005e+00 +0.0000000000000000e+00 -9.4075255743725297e+00 -2.8039411608141999e-02 -5.3683393157599013e-01 +5.3410983301479366e-03
-9.4999999999999805e+00 +8.1504363520034495e+00 +0.0000000000000000e+00 -9.5076056240234408e+00 -2.8039263265876899e-02 -5.3683422166238826e-01 +5.3411404153149572e-03
-9.5999999999999801e+00 +8.1503820964062506e+00 +0.0000000000000000e+00 -9.6076856733679694e+00 -2.8039102720899340e-02 -5.3683451046740804e-01 +5.3411836895538014e-03
-9.6999999999999797e+00 +8.1503272726913600e+00 +0.0000000000000000e+00 -9.7077657224029004e+00 -2.8038929854203708e-02 -5.3683479750479368e-01 +5.3412281978745587e-03
-9.7999999999999794e+00 +8.1502718808515109e+00 +0.0000000000000000e+00 -9.8078457711250007e+00 -2.8038744546790086e-02 -5.3683508228833288e-01 +5.3412739853007322e-03
-9.8999999999999808e+00 +8.1502159208903304e+00 +0.0000000000000000e+00 -9.9079258195310498e+00 -2.8038546679654008e-02 -5.3683536433166479e-01 +5.3413210968676272e-03
-9.9999999999999805e+00 +8.1501593928078400e+00 +0.0000000000000000e+00 -1.0008005867617801e+01 -2.8038336133927248e-02 -5.3683564314851595e-01 +5.3413695776114573e-03
-1.0100000000000000e+01 +8.1501022966040200e+00 +0.0000000000000000e+00 -1.0108085915382100e+01 -2.8038113122155549e-02 -5.3683591856629920e-01 +5.3414194424019901e-03
-1.0199999999999999e+01 +8.1500446322825209e+00 +0.0000000000000000e+00 -1.0208165962820599e+01 -2.8037878901239103e-02 -5.3683619140108552e-01 +5.3414706110111246e-03
-1.0300000000000001e+01 +8.1499863998360507e+00 +0.0000000000000000e+00 -1.0308246009930199e+01 -2.8037634933263670e-02 -5.3683646266332141e-01 +5.3415229845191073e-03
-1.0400000000000000e+01 +8.1499275992682705e+00 +0.0000000000000000e+00 -1.0408326056707599e+01 -2.8037382680286712e-02 -5.3683673336340376e-01 +5.3415764639977983e-03
-1.0500000000000000e+01 +8.1498682305791608e+00 +0.0000000000000000e+00 -1.0508406103149600e+01 -2.8037123604342719e-02 -5.3683700451179028e-01 +5.3416309505115358e-03
-1.0600000000000000e+01 +8.1498082937723701e+00 +0.0000000000000000e+00 -1.0608486149253000e+01 -2.8036859167439625e-02 -5.3683727711894580e-01 +5.3416863451163799e-03
-1.0699999999999999e+01 +8.1497477888406102e+00 +0.0000000000000000e+00 -1.0708566195014500e+01 -2.8036590831564127e-02 -5.3683755219545060e-01 +5.3417425488609723e-03
-1.0800000000000001e+01 +8.1496867157875403e+00 +0.0000000000000000e+00 -1.0808646240430900e+01 -2.8036320058672286e-02 -5.3683783075184111e-01 +5.3417994627846955e-03
-1.0900000000000000e+01 +8.1496250746131391e+00 +0.0000000000000000e+00 -1.0908726285499000e+01 -2.8036048310694849e-02 -5.3683811379871804e-01 +5.3418569879185368e-03
-1.1000000000000000e+01 +8.1495628653174208e+00 +0.0000000000000000e+00 -1.1008806330215601e+01 -2.8035777049535134e-02 -5.3683840234672064e-01 +5.3419150252845913e-03
-1.1100000000000000e+01 +8.1495000879040198e+00 +0.0000000000000000e+00 -1.1108886374577500e+01 -2.8035507737067027e-02 -5.3683869740650059e-01 +5.3419734758955850e-03
-1.1199999999999999e+01 +8.1494367423620098e+00 +0.0000000000000000e+00 -1.1208966418581401e+01 -2.8035241835141663e-02 -5.3683899998885709e-01 +5.3420322407560020e-03
-1.1300000000000001e+01 +8.1493728287059604e+00 +0.0000000000000000e+00 -1.1309046462224000e+01 -2.8034980805570799e-02 -5.3683931110444427e-01 +5.3420912208588895e-03
-1.1400000000000000e+01 +8.1493083469249505e+00 +0.0000000000000000e+00 -1.1409126505502300e+01 -2.8034726110146645e-02 -5.3683963176414562e-01 +5.3421503171894279e-03
-1.1500000000000000e+01 +8.1492432970226201e+00 +0.0000000000000000e+00 -1.1509206548412800e+01 -2.8034479210625244e-02 -5.3683996297878178e-01 +5.3422094307217357e-03
-1.1600000000000000e+01 +8.1491776789989707e+00 +0.0000000000000000e+00 -1.1609286590952600e+01 -2.8034241568733128e-02 -5.3684030575924468e-01 +5.3422684624200075e-03
-1.1699999999999999e+01 +8.1491114928576298e+00 +0.0000000000000000e+00 -1.1709366633118099e+01 -2.8034014646163879e-02 -5.3684066111644546e-01 +5.3423273132377474e-03
