# trajectory
# s[mm] rx[mm] ry[mm] rz[mm] px[rad] py[rad] pz[rad]
0.0000000000000000e+00 +7.9199999999999999e+00 +0.0000000000000000e+00 +0.0000000000000000e+00 +0.0000000000000000e+00 +0.0000000000000000e+00 +1.0000000000000000e+00
-1.0000000000000001e-01 +7.9199997170337539e+00 +0.0000000000000000e+00 -9.9999999999466210e-02 +5.6593251616324324e-06 +0.0000000000000000e+00 +9.9999999998398603e-01
-2.0000000000000001e-01 +7.9199988681349174e+00 +0.0000000000000000e+00 -1.9999999999572959e-01 +1.1318651834476405e-05 +0.0000000000000000e+00 +9.9999999993594413e-01
-3.0000000000000004e-01 +7.9199974533033348e+00 +0.0000000000000000e+00 -2.9999999998558741e-01 +1.6977980074707965e-05 +0.0000000000000000e+00 +9.9999999985587418e-01
-4.0000000000000002e-01 +7.9199954725388482e+00 +0.0000000000000000e+00 -3.9999999996583685e-01 +2.2637309936875854e-05 +0.0000000000000000e+00 +9.9999999974377618e-01
-5.0000000000000000e-01 +7.9199929258412922e+00 +0.0000000000000000e+00 -4.9999999993327504e-01 +2.8296641473901495e-05 +0.0000000000000000e+00 +9.9999999959965014e-01
-5.9999999999999998e-01 +7.9199898132104964e+00 +0.0000000000000000e+00 -5.9999999988469921e-01 +3.3955974737078950e-05 +0.0000000000000000e+00 +9.9999999942349593e-01
-6.9999999999999996e-01 +7.9199861346462859e+00 +0.0000000000000000e+00 -6.9999999981690664e-01 +3.9615309776074901e-05 +0.0000000000000000e+00 +9.9999999921531368e-01
-7.9999999999999993e-01 +7.9199818901484802e+00 +0.0000000000000000e+00 -7.9999999972669444e-01 +4.5274646638928602e-05 +0.0000000000000000e+00 +9.9999999897510328e-01
-8.9999999999999991e-01 +7.9199770797168956e+00 +0.0000000000000000e+00 -8.9999999961085975e-01 +5.0933985372051839e-05 +0.0000000000000000e+00 +9.9999999870286471e-01
-9.9999999999999989e-01 +7.9199717033513419e+00 +0.0000000000000000e+00 -9.9999999946619977e-01 +5.6593326020228885e-05 +0.0000000000000000e+00 +9.9999999839859788e-01
-1.0999999999999999e+00 +7.9199657610516256e+00 +0.0000000000000000e+00 -1.0999999992895118e+00 +6.2252668626616421e-05 +0.0000000000000000e+00 +9.9999999806230278e-01
-1.2000000000000000e+00 +7.9199592528175495e+00 +0.0000000000000000e+00 -1.1999999990775927e+00 +6.7912013232743497e-05 +0.0000000000000000e+00 +9.9999999769397940e-01
-1.3000000000000000e+00 +7.9199521786489111e+00 +0.0000000000000000e+00 -1.2999999988272399e+00 +7.3571359878511449e-05 +0.0000000000000000e+00 +9.9999999729362765e-01
-1.4000000000000001e+00 +7.9199445385455043e+00 +0.0000000000000000e+00 -1.3999999985352507e+00 +7.9230708602193834e-05 +0.0000000000000000e+00 +9.9999999686124752e-01
-1.5000000000000002e+00 +7.9199363325071195e+00 +0.0000000000000000e+00 -1.4999999981984220e+00 +8.4890059440436333e-05 +0.0000000000000000e+00 +9.9999999639683901e-01
-1.6000000000000003e+00 +7.9199275605335444e+00 +0.0000000000000000e+00 -1.5999999978135508e+00 +9.0549412428256670e-05 +0.0000000000000000e+00 +9.9999999590040201e-01
-1.7000000000000004e+00 +7.9199182226245615e+00 +0.0000000000000000e+00 -1.6999999973774347e+00 +9.6208767599044519e-05 +0.0000000000000000e+00 +9.9999999537193651e-01
-1.8000000000000005e+00 +7.9199083187799513e+00 +0.0000000000000000e+00 -1.7999999968868705e+00 +1.0186812498456140e-04 +0.0000000000000000e+00 +9.9999999481144253e-01
-1.9000000000000006e+00 +7.9198978489994900e+00 +0.0000000000000000e+00 -1.8999999963386556e+00 +1.0752748461494060e-04 +0.0000000000000000e+00 +9.9999999421891994e-01
-2.0000000000000004e+00 +7.9198868132829521e+00 +0.0000000000000000e+00 -1.9999999957295869e+00 +1.1318684651868700e-04 +0.0000000000000000e+00 +9.9999999359436875e-01
-2.1000000000000005e+00 +7.9198752116301092e+00 +0.0000000000000000e+00 -2.0999999950564616e+00 +1.1884621072290165e-04 +0.0000000000000000e+00 +9.9999999293778896e-01
-2.2000000000000006e+00 +7.9198630440407296e+00 +0.0000000000000000e+00 -2.1999999943160771e+00 +1.2450557725575282e-04 +0.0000000000000000e+00 +9.9999999224918046e-01
-2.3000000000000007e+00 +7.9198503105145788e+00 +0.0000000000000000e+00 -2.2999999935052302e+00 +1.3016494614894708e-04 +0.0000000000000000e+00 +9.9999999152854324e-01
-2.4000000000000008e+00 +7.9198370110514196e+00 +0.0000000000000000e+00 -2.3999999926207183e+00 +1.3582431743795401e-04 +0.0000000000000000e+00 +9.9999999077587720e-01
-2.5000000000000009e+00 +7.9198231456510104e+00 +0.0000000000000000e+00 -2.4999999916593381e+00 +1.4148369116200624e-04 +0.0000000000000000e+00 +9.9999998999118234e-01
-2.6000000000000010e+00 +7.9198087143131053e+00 +0.0000000000000000e+00 -2.5999999906178872e+00 +1.4714306736409946e-04 +0.0000000000000000e+00 +9.9999998917445865e-01
-2.7000000000000011e+00 +7.9197937170374537e+00 +0.0000000000000000e+00 -2.6999999894931626e+00 +1.5280244609099252e-04 +0.0000000000000000e+00 +9.9999998832570602e-01
-2.8000000000000012e+00 +7.9197781538238008e+00 +0.0000000000000000e+00 -2.7999999882819608e+00 +1.5846182739320748e-04 +0.0000000000000000e+00 +9.9999998744492435e-01
-2.9000000000000012e+00 +7.9197620246718872e+00 +0.0000000000000000e+00 -2.8999999869810797e+00 +1.6412121132502978e-04 +0.0000000000000000e+00 +9.9999998653211375e-01
-3.0000000000000013e+00 +7.9197453295814464e+00 +0.0000000000000000e+00 -2.9999999855873161e+00 +1.6978059794450819e-04 +0.0000000000000000e+00 +9.9999998558727399e-01
-3.1000000000000014e+00 +7.9197280685522067e+00 +0.0000000000000000e+00 -3.0999999840974670e+00 +1.7543998731345506e-04 +0.0000000000000000e+00 +9.9999998461040507e-01
-3.2000000000000015e+00 +7.9197102415838900e+00 +0.0000000000000000e+00 -3.1999999825083294e+00 +1.8109937949744635e-04 +0.0000000000000000e+00 +9.9999998360150699e-01
-3.3000000000000016e+00 +7.9196918486762113e+00 +0.0000000000000000e+00 -3.2999999808167004e+00 +1.8675877456582180e-04 +0.0000000000000000e+00 +9.9999998256057965e-01
-3.4000000000000017e+00 +7.9196728898288784e+00 +0.0000000000000000e+00 -3.3999999790193773e+00 +1.9241817259168508e-04 +0.0000000000000000e+00 +9.9999998148762304e-01
-3.5000000000000018e+00 +7.9196533650415919e+00 +0.0000000000000000e+00 -3.4999999771131574e+00 +1.9807757365190393e-04 +0.0000000000000000e+00 +9.9999998038263704e-01
-3.6000000000000019e+00 +7.9196332743140445e+00 +0.0000000000000000e+00 -3.5999999750948373e+00 +2.0373697782711029e-04 +0.0000000000000000e+00 +9.9999997924562156e-01
-3.7000000000000020e+00 +7.9196126176459201e+00 +0.0000000000000000e+00 -3.6999999729612143e+00 +2.0939638520170055e-04 +0.0000000000000000e+00 +9.9999997807657659e-01
-3.8000000000000020e+00 +7.9195913950368944e+00 +0.0000000000000000e+00 -3.7999999707090852e+00 +2.1505579586383568e-04 +0.0000000000000000e+00 +9.9999997687550202e-01
-3.9000000000000021e+00 +7.9195696064866343e+00 +0.0000000000000000e+00 -3.8999999683352473e+00 +2.2071520990544146e-04 +0.0000000000000000e+00 +9.9999997564239773e-01
-4.0000000000000018e+00 +7.9195472519947971e+00 +0.0000000000000000e+00 -3.9999999658364973e+00 +2.2637462742220872e-04 +0.0000000000000000e+00 +9.9999997437726362e-01
-4.1000000000000014e+00 +7.9195243315610302e+00 +0.0000000000000000e+00 -4.0999999632096324e+00 +2.3203404851348432e-04 +0.0000000000000000e+00 +9.9999997308009969e-01
-4.2000000000000011e+00 +7.9195008451849711e+00 +0.0000000000000000e+00 -4.1999999604514500e+00 +2.3769347328107064e-04 +0.0000000000000000e+00 +9.9999997175090583e-01
-4.3000000000000007e+00 +7.9194767928662477e+00 +0.0000000000000000e+00 -4.2999999575587466e+00 +2.4335290182802495e-04 +0.0000000000000000e+00 +9.9999997038968202e-01
-4.4000000000000004e+00 +7.9194521746044764e+00 +0.0000000000000000e+00 -4.3999999545283188e+00 +2.4901233425855032e-04 +0.0000000000000000e+00 +9.9999996899642807e-01
-4.5000000000000000e+00 +7.9194269903992636e+00 +0.0000000000000000e+00 -4.4999999513569646e+00 +2.5467177067799564e-04 +0.0000000000000000e+00 +9.9999996757114396e-01
-4.5999999999999996e+00 +7.9194012402502043e+00 +0.0000000000000000e+00 -4.5999999480414804e+00 +2.6033121119285583e-04 +0.0000000000000000e+00 +9.9999996611382957e-01
-4.6999999999999993e+00 +7.9193749241568847e+00 +0.0000000000000000e+00 -4.6999999445786633e+00 +2.6599065591077195e-04 +0.0000000000000000e+00 +9.9999996462448482e-01
-4.7999999999999989e+00 +7.9193480421188784e+00 +0.0000000000000000e+00 -4.7999999409653098e+00 +2.7165010494053111e-04 +0.0000000000000000e+00 +9.9999996310310957e-01
-4.8999999999999986e+00 +7.9193205941357494e+00 +0.0000000000000000e+00 -4.8999999371982170e+00 +2.7730955839206669e-04 +0.0000000000000000e+00 +9.9999996154970372e-01
-4.9999999999999982e+00 +7.9192925802070491e+00 +0.0000000000000000e+00 -4.9999999332741822e+00 +2.8296901637645851e-04 +0.0000000000000000e+00 +9.9999995996426716e-01
-5.0999999999999979e+00 +7.9192640003323191e+00 +0.0000000000000000e+00 -5.0999999291900027e+00 +2.8862847900593282e-04 +0.0000000000000000e+00 +9.9999995834679978e-01
-5.1999999999999975e+00 +7.9192348545110889e+00 +0.0000000000000000e+00 -5.1999999249424746e+00 +2.9428794639386243e-04 +0.0000000000000000e+00 +9.9999995669730146e-01
-5.2999999999999972e+00 +7.9192051427428778e+00 +0.0000000000000000e+00 -5.2999999205283954e+00 +2.9994741865476678e-04 +0.0000000000000000e+00 +9.9999995501577210e-01
-5.3999999999999968e+00 +7.9191748650271920e+00 +0.0000000000000000e+00 -5.3999999159445613e+00 +3.0560689590431220e-04 +0.0000000000000000e+00 +9.9999995330221159e-01
-5.4999999999999964e+00 +7.9191440213635271e+00 +0.0000000000000000e+00 -5.4999999111877695e+00 +3.1126637825931177e-04 +0.0000000000000000e+00 +9.9999995155661980e-01
-5.5999999999999961e+00 +7.9191126117513662e+00 +0.0000000000000000e+00 -5.5999999062548174e+00 +3.1692586583772565e-04 +0.0000000000000000e+00 +9.9999994977899664e-01
-5.6999999999999957e+00 +7.9190806361901815e+00 +0.0000000000000000e+00 -5.6999999011425011e+00 +3.2258535875866103e-04 +0.0000000000000000e+00 +9.9999994796934188e-01
-5.7999999999999954e+00 +7.9190480946794324e+00 +0.0000000000000000e+00 -5.7999998958476180e+00 +3.2824485714237243e-04 +0.0000000000000000e+00 +9.9999994612765553e-01
-5.8999999999999950e+00 +7.9190149872185671e+00 +0.0000000000000000e+00 -5.8999998903669644e+00 +3.3390436111026159e-04 +0.0000000000000000e+00 +9.9999994425393735e-01
-5.9999999999999947e+00 +7.9189813138070209e+00 +0.0000000000000000e+00 -5.9999998846973375e+00 +3.3956387078487772e-04 +0.0000000000000000e+00 +9.9999994234818723e-01
-6.0999999999999943e+00 +7.9189470744442163e+00 +0.0000000000000000e+00 -6.0999998788355336e+00 +3.4522338628931713e-04 +0.0000000000000000e+00 +9.9999994041040507e-01
-6.1999999999999940e+00 +7.9189122691295646e+00 +0.0000000000000000e+00 -6.1999998727783501e+00 +3.5088290774061841e-04 +0.0000000000000000e+00 +9.9999993844059065e-01
-6.2999999999999936e+00 +7.9188768978624662e+00 +0.0000000000000000e+00 -6.2999998665225840e+00 +3.5654243524315716e-04 +0.0000000000000000e+00 +9.9999993643874396e-01
-6.3999999999999932e+00 +7.9188409606423109e+00 +0.0000000000000000e+00 -6.3999998600650310e+00 +3.6220196888804497e-04 +0.0000000000000000e+00 +9.9999993440486479e-01
-6.4999999999999929e+00 +7.9188044574684806e+00 +0.0000000000000000e+00 -6.4999998534024890e+00 +3.6786150875312896e-04 +0.0000000000000000e+00 +9.9999993233895301e-01
-6.5999999999999925e+00 +7.9187673883403500e+00 +0.0000000000000000e+00 -6.5999998465317544e+00 +3.7352105490299126e-04 +0.0000000000000000e+00 +9.9999993024100842e-01
-6.6999999999999922e+00 +7.9187297532572885e+00 +0.0000000000000000e+00 -6.6999998394496236e+00 +3.7918060738894829e-04 +0.0000000000000000e+00 +9.9999992811103100e-01
-6.7999999999999918e+00 +7.9186915522186601e+00 +0.0000000000000000e+00 -6.7999998321528929e+00 +3.8484016624905040e-04 +0.0000000000000000e+00 +9.9999992594902054e-01
-6.8999999999999915e+00 +7.9186527852238253e+00 +0.0000000000000000e+00 -6.8999998246383596e+00 +3.9049973150808099e-04 +0.0000000000000000e+00 +9.9999992375497704e-01
-6.9999999999999911e+00 +7.9186134522721447e+00 +0.0000000000000000e+00 -6.9999998169028208e+00 +3.9615930317755607e-04 +0.0000000000000000e+00 +9.9999992152890027e-01
-7.0999999999999908e+00 +7.9185735533629762e+00 +0.0000000000000000e+00 -7.0999998089430720e+00 +4.0181888125572347e-04 +0.0000000000000000e+00 +9.9999991927079013e-01
-7.1999999999999904e+00 +7.9185330884956802e+00 +0.0000000000000000e+00 -7.1999998007559105e+00 +4.0747846572756216e-04 +0.0000000000000000e+00 +9.9999991698064661e-01
-7.2999999999999901e+00 +7.9184920576696181e+00 +0.0000000000000000e+00 -7.2999997923381335e+00 +4.1313805656478163e-04 +0.0000000000000000e+00 +9.9999991465846949e-01
-7.3999999999999897e+00 +7.9184504608841557e+00 +0.0000000000000000e+00 -7.3999997836865372e+00 +4.1879765372582103e-04 +0.0000000000000000e+00 +9.9999991230425878e-01
-7.4999999999999893e+00 +7.9184082981386634e+00 +0.0000000000000000e+00 -7.4999997747979181e+00 +4.2445725715584847e-04 +0.0000000000000000e+00 +9.9999990991801435e-01
-7.5999999999999890e+00 +7.9183655694325177e+00 +0.0000000000000000e+00 -7.5999997656690725e+00 +4.3011686678676023e-04 +0.0000000000000000e+00 +9.9999990749973611e-01
-7.6999999999999886e+00 +7.9183222747651021e+00 +0.0000000000000000e+00 -7.6999997562967977e+00 +4.3577648253718000e-04 +0.0000000000000000e+00 +9.9999990504942404e-01
-7.7999999999999883e+00 +7.9182784141358091e+00 +0.0000000000000000e+00 -7.7999997466778899e+00 +4.4143610431245794e-04 +0.0000000000000000e+00 +9.9999990256707805e-01
-7.8999999999999879e+00 +7.9182339875440420e+00 +0.0000000000000000e+00 -7.8999997368091455e+00 +4.4709573200466993e-04 +0.0000000000000000e+00 +9.9999990005269812e-01
-7.9999999999999876e+00 +7.9181889949892152e+00 +0.0000000000000000e+00 -7.9999997266873617e+00 +4.5275536549261669e-04 +0.0000000000000000e+00 +9.9999989750628415e-01
-8.0999999999999872e+00 +7.9181434364707552e+00 +0.0000000000000000e+00 -8.0999997163093340e+00 +4.5841500464257256e-04 +0.0000000000000000e+00 +9.9999989492783614e-01
-8.1999999999999869e+00 +7.9180973119881024e+00 +0.0000000000000000e+00 -8.1999997056718605e+00 +4.6407464931653162e-04 +0.0000000000000000e+00 +9.9999989231735409e-01
-8.2999999999999865e+00 +7.9180506215407123e+00 +0.0000000000000000e+00 -8.2999996947717367e+00 +4.6973429938045459e-04 +0.0000000000000000e+00 +9.9999988967483788e-01
-8.3999999999999861e+00 +7.9180033651280510e+00 +0.0000000000000000e+00 -8.3999996836057598e+00 +4.7539395470501915e-04 +0.0000000000000000e+00 +9.9999988700028752e-01
-8.4999999999999858e+00 +7.9179555427496000e+00 +0.0000000000000000e+00 -8.4999996721707269e+00 +4.8105361516562049e-04 +0.0000000000000000e+00 +9.9999988429370301e-01
-8.5999999999999854e+00 +7.9179071544048512e+00 +0.0000000000000000e+00 -8.5999996604634337e+00 +4.8671328064237176e-04 +0.0000000000000000e+00 +9.9999988155508424e-01
-8.6999999999999851e+00 +7.9178582000933080e+00 +0.0000000000000000e+00 -8.6999996484806772e+00 +4.9237295102010472e-04 +0.0000000000000000e+00 +9.9999987878443120e-01
-8.7999999999999847e+00 +7.9178086798144873e+00 +0.0000000000000000e+00 -8.7999996362192530e+00 +4.9803262618837018e-04 +0.0000000000000000e+00 +9.9999987598174389e-01
-8.8999999999999844e+00 +7.9177585935679149e+00 +0.0000000000000000e+00 -8.8999996236759582e+00 +5.0369230604143896e-04 +0.0000000000000000e+00 +9.9999987314702232e-01
-8.9999999999999840e+00 +7.9177079413531271e+00 +0.0000000000000000e+00 -8.9999996108475901e+00 +5.0935199047830236e-04 +0.0000000000000000e+00 +9.9999987028026649e-01
-9.0999999999999837e+00 +7.9176567231696700e+00 +0.0000000000000000e+00 -9.0999995977309442e+00 +5.1501167940267258e-04 +0.0000000000000000e+00 +9.9999986738147628e-01
-9.1999999999999833e+00 +7.9176049390170995e+00 +0.0000000000000000e+00 -9.1999995843228177e+00 +5.2067137272298377e-04 +0.0000000000000000e+00 +9.9999986445065170e-01
-9.2999999999999829e+00 +7.9175525888949814e+00 +0.0000000000000000e+00 -9.2999995706200060e+00 +5.2633107035239264e-04 +0.0000000000000000e+00 +9.9999986148779263e-01
-9.3999999999999826e+00 +7.9174996728028884e+00 +0.0000000000000000e+00 -9.3999995566193082e+00 +5.3199077220877900e-04 +0.0000000000000000e+00 +9.9999985849289919e-01
-9.4999999999999822e+00 +7.9174461907404012e+00 +0.0000000000000000e+00 -9.4999995423175179e+00 +5.3765047821474675e-04 +0.0000000000000000e+00 +9.9999985546597125e-01
-9.5999999999999819e+00 +7.9173921427071097e+00 +0.0000000000000000e+00 -9.5999995277114341e+00 +5.4331018829762454e-04 +0.0000000000000000e+00 +9.9999985240700884e-01
-9.6999999999999815e+00 +7.9173375287026087e+00 +0.0000000000000000e+00 -9.6999995127978522e+00 +5.4896990238946649e-04 +0.0000000000000000e+00 +9.9999984931601182e-01
-9.7999999999999812e+00 +7.9172823487265003e+00 +0.0000000000000000e+00 -9.7999994975735696e+00 +5.5462962042705311e-04 +0.0000000000000000e+00 +9.9999984619298032e-01
-9.8999999999999808e+00 +7.9172266027783937e+00 +0.0000000000000000e+00 -9.8999994820353816e+00 +5.6028934235189223e-04 +0.0000000000000000e+00 +9.9999984303791423e-01
-9.9999999999999805e+00 +7.9171702908579027e+00 +0.0000000000000000e+00 -9.9999994661800855e+00 +5.6594906811021967e-04 +0.0000000000000000e+00 +9.9999983985081342e-01
-1.0099999999999980e+01 +7.9171134129646461e+00 +0.0000000000000000e+00 -1.0099999450004477e+01 +5.7160879765348236e-04 +0.0000000000000000e+00 +9.9999983663167802e-01
-1.0199999999999980e+01 +7.9170559690982474e+00 +0.0000000000000000e+00 -1.0199999433505353e+01 +5.7726853094364368e-04 +0.0000000000000000e+00 +9.9999983338050780e-01
-1.0299999999999979e+01 +7.9169979592583335e+00 +0.0000000000000000e+00 -1.0299999416679510e+01 +5.8292826795848843e-04 +0.0000000000000000e+00 +9.9999983009730287e-01
-1.0399999999999979e+01 +7.9169393834445323e+00 +0.0000000000000000e+00 -1.0399999399523745e+01 +5.8858800869210479e-04 +0.0000000000000000e+00 +9.9999982678206312e-01
-1.0499999999999979e+01 +7.9168802416564708e+00 +0.0000000000000000e+00 -1.0499999382034854e+01 +5.9424775315488460e-04 +0.0000000000000000e+00 +9.9999982343478844e-01
-1.0599999999999978e+01 +7.9168205338937758e+00 +0.0000000000000000e+00 -1.0599999364209635e+01 +5.9990750137352321e-04 +0.0000000000000000e+00 +9.9999982005547883e-01
-1.0699999999999978e+01 +7.9167602601560692e+00 +0.0000000000000000e+00 -1.0699999346044883e+01 +6.0556725339101954e-04 +0.0000000000000000e+00 +9.9999981664413407e-01
-1.0799999999999978e+01 +7.9166994204429688e+00 +0.0000000000000000e+00 -1.0799999327537394e+01 +6.1122700926667596e-04 +0.0000000000000000e+00 +9.9999981320075415e-01
-1.0899999999999977e+01 +7.9166380147540849e+00 +0.0000000000000000e+00 -1.0899999308683967e+01 +6.1688676907609846e-04 +0.0000000000000000e+00 +9.9999980972533897e-01
-1.0999999999999977e+01 +7.9165760430890195e+00 +0.0000000000000000e+00 -1.0999999289481394e+01 +6.2254653291119659e-04 +0.0000000000000000e+00 +9.9999980621788842e-01
-1.1099999999999977e+01 +7.9165135054473650e+00 +0.0000000000000000e+00 -1.1099999269926476e+01 +6.2820630088018337e-04 +0.0000000000000000e+00 +9.9999980267840227e-01
-1.1199999999999976e+01 +7.9164504018287021e+00 +0.0000000000000000e+00 -1.1199999250016008e+01 +6.3386607310757519e-04 +0.0000000000000000e+00 +9.9999979910688053e-01
-1.1299999999999976e+01 +7.9163867322325974e+00 +0.0000000000000000e+00 -1.1299999229746785e+01 +6.3952584973419214e-04 +0.0000000000000000e+00 +9.9999979550332285e-01
-1.1399999999999975e+01 +7.9163224966586032e+00 +0.0000000000000000e+00 -1.1399999209115604e+01 +6.4518563091715754e-04 +0.0000000000000000e+00 +9.9999979186772914e-01
-1.1499999999999975e+01 +7.9162576951062560e+00 +0.0000000000000000e+00 -1.1499999188119263e+01 +6.5084541682989834e-04 +0.0000000000000000e+00 +9.9999978820009927e-01
-1.1599999999999975e+01 +7.9161923275750734e+00 +0.0000000000000000e+00 -1.1599999166754557e+01 +6.5650520766214479e-04 +0.0000000000000000e+00 +9.9999978450043292e-01
-1.1699999999999974e+01 +7.9161263940645528e+00 +0.0000000000000000e+00 -1.1699999145018282e+01 +6.6216500361993057e-04 +0.0000000000000000e+00 +9.9999978076872997e-01
