# multipoles
# s[mm] polynom_b[n=0][T/m^n] polynom_b[n=1][T/m^n] polynom_b[n=2][T/m^n] polynom_b[n=3][T/m^n] polynom_b[n=4][T/m^n] polynom_b[n=5][T/m^n] polynom_b[n=6][T/m^n] 
+0.0000000000000000e+00 -5.9241254799044729e-01 +8.1139261454063689e+00 -2.4069979810881867e-01 -4.1272806666420614e+01 -3.4158969672548519e+03 -9.1385238763579018e+03 +1.3889411344974279e+07 
+1.0000000000000001e-01 -5.9241269005407482e-01 +8.1139288490959647e+00 -2.3459739379275202e-01 -4.1708350702998587e+01 -3.5455798647075835e+03 -6.3046734974746041e+03 +1.4474385653297979e+07 
+2.0000000000000001e-01 -5.9241282605934642e-01 +8.1139275715884072e+00 -2.3017591856641398e-01 -4.2042240613853821e+01 -3.6431532160560159e+03 -3.9922906409030056e+03 +1.4906982418018855e+07 
+2.9999999999999999e-01 -5.9241295600313748e-01 +8.1139226346907734e+00 -2.2736629870356848e-01 -4.2281367823616876e+01 -3.7100507437087954e+03 -2.1683469112492253e+03 +1.5194512865940122e+07 
+4.0000000000000002e-01 -5.9241307988229919e-01 +8.1139143602182529e+00 -2.2609946536962852e-01 -4.2432623988026386e+01 -3.7477060798545272e+03 -7.9981254013465468e+02 +1.5344287803629626e+07 
+5.0000000000000000e-01 -5.9241319769360956e-01 +8.1139030699918049e+00 -2.2630634706125777e-01 -4.2502900986950507e+01 -3.7575529159769344e+03 +1.4634372876747526e+02 +1.5363618346505776e+07 
+5.9999999999999998e-01 -5.9241330943386616e-01 +8.1138890858308450e+00 -2.2791787768127533e-01 -4.2499090651963712e+01 -3.7410248400040928e+03 +7.0315288463323793e+02 +1.5259815118387090e+07 
+6.9999999999999996e-01 -5.9241341509998269e-01 +8.1138727295663511e+00 -2.3086498747465697e-01 -4.2428085182164708e+01 -3.6995555142975736e+03 +9.0364815305336549e+02 +1.5040189114529109e+07 
+8.0000000000000004e-01 -5.9241351468865699e-01 +8.1138543230279705e+00 -2.3507861139054975e-01 -4.2296776757972133e+01 -3.6345785123846431e+03 +7.8086270927806299e+02 +1.4712050910104087e+07 
+9.0000000000000002e-01 -5.9241360819670397e-01 +8.1138341880529303e+00 -2.4048968499762619e-01 -4.2112057781380642e+01 -3.5475273973349508e+03 +3.6783101667586135e+02 +1.4282711040073428e+07 
+1.0000000000000000e+00 -5.9241369562096202e-01 +8.1138126464811009e+00 -2.4702914078709970e-01 -4.1880820759765939e+01 -3.4398357906914507e+03 -3.0241178154674964e+02 +1.3759480318854244e+07 
+1.1000000000000001e+00 -5.9241377695816755e-01 +8.1137900201542674e+00 -2.5462791360032305e-01 -4.1609958274653437e+01 -3.3129372682077360e+03 -1.1968300810283733e+03 +1.3149669344472088e+07 
+1.2000000000000000e+00 -5.9241385220515919e-01 +8.1137666309236867e+00 -2.6321694012247115e-01 -4.1306363175102554e+01 -3.1682653721195506e+03 -2.2823867781599579e+03 +1.2460588562921388e+07 
+1.3000000000000000e+00 -5.9241392135871396e-01 +8.1137428006423100e+00 -2.7272715138571901e-01 -4.0976928377939622e+01 -3.0072537434857327e+03 -3.5260443606879494e+03 +1.1699548870484708e+07 
+1.3999999999999999e+00 -5.9241398441564586e-01 +8.1137188511609430e+00 -2.8308948461254901e-01 -4.0628546757598940e+01 -2.8313359085217721e+03 -4.8947655561660977e+03 +1.0873860628673656e+07 
+1.5000000000000000e+00 -5.9241404137282438e-01 +8.1136951043426624e+00 -2.9423487112144969e-01 -4.0268111539580353e+01 -2.6419454983802075e+03 -6.3555111208878698e+03 +9.9908346813753247e+06 
+1.6000000000000001e+00 -5.9241409222704799e-01 +8.1136718820486902e+00 -3.0609424393762952e-01 -3.9902515899285397e+01 -2.4405161119046902e+03 -7.8752421644659407e+03 +9.0577817236718815e+06 
+1.7000000000000000e+00 -5.9241413697513712e-01 +8.1136495061507610e+00 -3.1859853513781955e-01 -3.9538653324140327e+01 -2.2284813530099614e+03 -9.4209180304190431e+03 +8.0820124430396985e+06 
+1.8000000000000000e+00 -5.9241417561401932e-01 +8.1136282985136567e+00 -3.3167867423592479e-01 -3.9183417107405937e+01 -2.0072748761498676e+03 -1.0959499257120488e+04 +7.0708377761505395e+06 
+1.8999999999999999e+00 -5.9241420814053314e-01 +8.1136085810123646e+00 -3.4526558899175830e-01 -3.8843700833930363e+01 -1.7783303556252811e+03 -1.2457944792268849e+04 +6.0315687213369571e+06 
+2.0000000000000000e+00 -5.9241423455163722e-01 +8.1135906755249074e+00 -3.5929020766183706e-01 -3.8526398175994366e+01 -1.5430814527430387e+03 -1.3883213205464430e+04 +4.9715162089310465e+06 
+2.1000000000000001e+00 -5.9241425504384593e-01 +8.1135748261944425e+00 -3.7368418753388394e-01 -3.8236921114511880e+01 -1.3028731439345261e+03 -1.5209608541483522e+04 +3.8972826389260725e+06 
+2.2000000000000002e+00 -5.9241427057059537e-01 +8.1135609857745692e+00 -3.8838156769300930e-01 -3.7975170225675562e+01 -1.0587191107987157e+03 -1.6438397623779500e+04 +2.8128024408801775e+06 
+2.2999999999999998e+00 -5.9241428226460546e-01 +8.1135490387628266e+00 -4.0331686732187799e-01 -3.7739765547915766e+01 -8.1155554044277676e+02 -1.7577024144640724e+04 +1.7213810979401805e+06 
+2.3999999999999999e+00 -5.9241429125871825e-01 +8.1135388696560522e+00 -4.1842460183447905e-01 -3.7529327091575105e+01 -5.6231868552744152e+02 -1.8632931949876467e+04 +6.2632439122021012e+05 
+2.5000000000000000e+00 -5.9241429868565731e-01 +8.1135303629441182e+00 -4.3363928988742917e-01 -3.7342474681855720e+01 -3.1194473760609498e+02 -1.9613565872825504e+04 -4.6906218679942895e+05 
+2.6000000000000001e+00 -5.9241430567820874e-01 +8.1135234031104790e+00 -4.4889544656068520e-01 -3.7177827957613665e+01 -6.1369949571494047e+01 -2.0526371780870086e+04 -1.5614728678744633e+06 
+2.7000000000000002e+00 -5.9241431336912254e-01 +8.1135178746317909e+00 -4.6412759128424819e-01 -3.7034006354145248e+01 +1.8846951064684362e+02 -2.1378796681499007e+04 -2.6476022925609876e+06 
+2.7999999999999998e+00 -5.9241432289116480e-01 +8.1135136619771036e+00 -4.7927024114464928e-01 -3.6909629110848542e+01 +4.3663743430900206e+02 -2.2178288586290448e+04 -3.7241449185949792e+06 
+2.8999999999999999e+00 -5.9241433537706911e-01 +8.1135106496111415e+00 -4.9425791777338540e-01 -3.6803315323213077e+01 +6.8219770368273657e+02 -2.2932296323559389e+04 -4.7877956455460750e+06 
+3.0000000000000000e+00 -5.9241435195959713e-01 +8.1135087219846866e+00 -5.0902513864322663e-01 -3.6713683698754870e+01 +9.2421412388235547e+02 -2.3648270844316601e+04 -5.8352490122689912e+06 
+3.1000000000000001e+00 -5.9241437377147810e-01 +8.1135077635394168e+00 -5.2350642518534096e-01 -3.6639352679148494e+01 +1.1617505794287667e+03 -2.4333664559944689e+04 -6.8631999461614788e+06 
+3.2000000000000002e+00 -5.9241440194545147e-01 +8.1135076587093753e+00 -5.3763629776890332e-01 -3.6578940488070167e+01 +1.3938709417580305e+03 -2.4995931040704330e+04 -7.8683433307926757e+06 
+3.2999999999999998e+00 -5.9241443761423140e-01 +8.1135082919140427e+00 -5.5134927944780987e-01 -3.6531064923807975e+01 +1.6196391343930156e+03 -2.5642526232054650e+04 -8.8473743003363144e+06 
+3.3999999999999999e+00 -5.9241448191051493e-01 +8.1135095475623853e+00 -5.6457989452521473e-01 -3.6494343484208144e+01 +1.8381191061308061e+03 -2.6280907694736892e+04 -9.7969881151593216e+06 
+3.5000000000000000e+00 -5.9241453596700910e-01 +8.1135113100490948e+00 -5.7726266686785921e-01 -3.6467393258289768e+01 +2.0483748079517736e+03 -2.6918535226570522e+04 -1.0713880071949944e+07 
+3.6000000000000001e+00 -5.9241460091641873e-01 +8.1135134637596629e+00 -5.8933212285408387e-01 -3.6448831062881347e+01 +2.2494702361134373e+03 -2.7562870095148392e+04 -1.1594745679232147e+07 
+3.7000000000000002e+00 -5.9241467789137481e-01 +8.1135158930562650e+00 -6.0072278707616922e-01 -3.6437273036844722e+01 +2.4404693603198548e+03 -2.8221377371869730e+04 -1.2436280339232003e+07 
+3.7999999999999998e+00 -5.9241476802454396e-01 +8.1135184822915658e+00 -6.1136919052665240e-01 -3.6431335053707969e+01 +2.6204362767175890e+03 -2.8901523487431969e+04 -1.3235180068235131e+07 
+3.8999999999999999e+00 -5.9241487244861135e-01 +8.1135211158025538e+00 -6.2120586044537329e-01 -3.6429632519055161e+01 +2.7884350098367759e+03 -2.9610777479527933e+04 -1.3988140544570794e+07 
+4.0000000000000000e+00 -5.9241499229613337e-01 +8.1135236779073789e+00 -6.3016732901065176e-01 -3.6430780302078134e+01 +2.9435296871743958e+03 -3.0356610981873993e+04 -1.4691857934012162e+07 
+4.0999999999999996e+00 -5.9241512840114774e-01 +8.1135260782739422e+00 -6.3820721371748634e-01 -3.6433525734319318e+01 +3.0850473941098235e+03 -3.1144838220147878e+04 -1.5343883445444025e+07 
+4.2000000000000002e+00 -5.9241528051843484e-01 +8.1135283169236967e+00 -6.4534824053346296e-01 -3.6436965396130425e+01 +3.2132560448850681e+03 -3.1976673879561607e+04 -1.5944824212957997e+07 
+4.2999999999999998e+00 -5.9241544815907821e-01 +8.1135304139807634e+00 -6.5162879027804654e-01 -3.6440244052174286e+01 +3.3286340376345120e+03 -3.2852610704995110e+04 -1.6495969496396042e+07 
+4.4000000000000004e+00 -5.9241563083405080e-01 +8.1135323895727893e+00 -6.5708724260776763e-01 -3.6442506568329414e+01 +3.4316597396948969e+03 -3.3773140995998248e+04 -1.6998608385299414e+07 
+4.5000000000000000e+00 -5.9241582805443216e-01 +8.1135342638308146e+00 -6.6176197908808487e-01 -3.6442897891295736e+01 +3.5228115473317375e+03 -3.4738756804724617e+04 -1.7454030085499544e+07 
+4.5999999999999996e+00 -5.9241603933121567e-01 +8.1135360568893091e+00 -6.6569137784540355e-01 -3.6440563067658552e+01 +3.6025677860399837e+03 -3.5749949766199607e+04 -1.7863523450681429e+07 
+4.7000000000000002e+00 -5.9241626417549931e-01 +8.1135377888898219e+00 -6.6891381867307420e-01 -3.6434647330948131e+01 +3.6714068032373193e+03 -3.6807210665280159e+04 -1.8228377412459575e+07 
+4.7999999999999998e+00 -5.9241650209828001e-01 +8.1135394799787104e+00 -6.7146767943804742e-01 -3.6424296050958198e+01 +3.7298068977497510e+03 -3.7911029704525674e+04 -1.8549880636867855e+07 
+4.9000000000000004e+00 -5.9241675261065263e-01 +8.1135411503119332e+00 -6.7339134093546971e-01 -3.6408654857695467e+01 +3.7782464165399165e+03 -3.9061895821309365e+04 -1.8829321998626981e+07 
+5.0000000000000000e+00 -5.9241701522364720e-01 +8.1135428200491031e+00 -6.7472317812216842e-01 -3.6386869482277262e+01 +3.8172035885353807e+03 -4.0260297604185587e+04 -1.9067989790669497e+07 
+5.0999999999999996e+00 -5.9241728944838068e-01 +8.1135445093576752e+00 -6.7550156935215266e-01 -3.6358085862817610e+01 +3.8471566900891830e+03 -4.1506722719102800e+04 -1.9267172484447706e+07 
+5.2000000000000002e+00 -5.9241757479591539e-01 +8.1135462384151271e+00 -6.7576488972832383e-01 -3.6321450224356127e+01 +3.8685839304663991e+03 -4.2801657418999937e+04 -1.9428158217970952e+07 
+5.2999999999999998e+00 -5.9241787077731389e-01 +8.1135480274025333e+00 -6.7555151800173452e-01 -3.6276108876687196e+01 +3.8819635708341007e+03 -4.4145587760233473e+04 -1.9552235327260748e+07 
+5.4000000000000004e+00 -5.9241817690368936e-01 +8.1135498965170267e+00 -6.7489982717936148e-01 -3.6221208574310829e+01 +3.8877737546127814e+03 -4.5538997547197861e+04 -1.9640691564623144e+07 
+5.5000000000000000e+00 -5.9241849268611568e-01 +8.1135518659617532e+00 -6.7384819187590506e-01 -3.6155896244128968e+01 +3.8864926419673161e+03 -4.6982369849398099e+04 -1.9694814725202069e+07 
+5.5999999999999996e+00 -5.9241881763575799e-01 +8.1135539559497598e+00 -6.7243498658663281e-01 -3.6079319077194661e+01 +3.8785983748370036e+03 -4.8476186554778578e+04 -1.9715892471664064e+07 
+5.7000000000000002e+00 -5.9241915126371325e-01 +8.1135561867068073e+00 -6.7069858384334602e-01 -3.5990624607637933e+01 +3.8645690455436334e+03 -5.0020927923544739e+04 -1.9705212198078770e+07 
+5.7999999999999998e+00 -5.9241949308112174e-01 +8.1135585784667583e+00 -6.6867735493404468e-01 -3.5888960614207690e+01 +3.8448827090711507e+03 -5.1617073071314699e+04 -1.9664061082941666e+07 
+5.9000000000000004e+00 -5.9241984259911795e-01 +8.1135611514768389e+00 -6.6640967211088942e-01 -3.5773475213249597e+01 +3.8200174203907259e+03 -5.3265099607156677e+04 -1.9593726254801042e+07 
+5.9999999999999902e+00 -5.9242019932887657e-01 +8.1135639259930077e+00 -6.6393390430882582e-01 -3.5643316886410652e+01 +3.7904511464271213e+03 -5.4965484062932752e+04 -1.9495494429862835e+07 
+6.0999999999999899e+00 -5.9242056292558731e-01 +8.1135669040021092e+00 -6.6128066820913489e-01 -3.5498117193504982e+01 +3.7565641978690296e+03 -5.6716095046277682e+04 -1.9370427519315824e+07 
+6.1999999999999904e+00 -5.9242093354268421e-01 +8.1135700272579871e+00 -6.5845319505727085e-01 -3.5339337644826600e+01 +3.7184183543373924e+03 -5.8504198475253463e+04 -1.9218918870124117e+07 
+6.2999999999999901e+00 -5.9242131144138377e-01 +8.1135732252292456e+00 -6.5544866471427332e-01 -3.5168875456725466e+01 +3.6760108133015337e+03 -6.0314404094984711e+04 -1.9041242947098054e+07 
+6.3999999999999897e+00 -5.9242169688291457e-01 +8.1135764273816537e+00 -6.5226425366969865e-01 -3.4988627793110375e+01 +3.6293387050868969e+03 -6.2131321803610263e+04 -1.8837673912749298e+07 
+6.4999999999999902e+00 -5.9242209012849678e-01 +8.1135795631808385e+00 -6.4889713657189119e-01 -3.4800491804865551e+01 +3.5783991163780006e+03 -6.3939561502042969e+04 -1.8608485723880731e+07 
+6.5999999999999899e+00 -5.9242249143931880e-01 +8.1135825620901389e+00 -6.4534448920303966e-01 -3.4606364605544009e+01 +3.5231891452097093e+03 -6.5723733132376015e+04 -1.8353952390036747e+07 
+6.6999999999999904e+00 -5.9242290107662954e-01 +8.1135853535701710e+00 -6.4160347791542394e-01 -3.4408143230284203e+01 +3.4637057112429175e+03 -6.7468446998205618e+04 -1.8074347103342410e+07 
+6.7999999999999901e+00 -5.9242331930166015e-01 +8.1135878670839343e+00 -6.3767127123998424e-01 -3.4207724795424937e+01 +3.3999457600390565e+03 -6.9158312780001055e+04 -1.7769943164356451e+07 
+6.8999999999999897e+00 -5.9242374637556527e-01 +8.1135900320927270e+00 -6.3354503426574493e-01 -3.4007006386766072e+01 +3.3319061716045026e+03 -7.0777940175138545e+04 -1.7441013591380220e+07 
+6.9999999999999902e+00 -5.9242418255958551e-01 +8.1135917780537916e+00 -6.2922192829626022e-01 -3.3807884985656493e+01 +3.2595837387756237e+03 -7.2311939330069275e+04 -1.7087830978174612e+07 
+7.0999999999999899e+00 -5.9242462811492802e-01 +8.1135930344216813e+00 -6.2469911317906257e-01 -3.3612257503143525e+01 +3.1829752270482918e+03 -7.3744920651068707e+04 -1.6710667819507651e+07 
+7.1999999999999904e+00 -5.9242508330281407e-01 +8.1135937306567616e+00 -6.1997374323438226e-01 -3.3422021039245507e+01 +3.1020772856906469e+03 -7.5061493257136710e+04 -1.6309796061220050e+07 
+7.2999999999999901e+00 -5.9242554838445838e-01 +8.1135937962112994e+00 -6.1504297354401571e-01 -3.3239072466435935e+01 +3.0168865661921959e+03 -7.6246267429003274e+04 -1.5885487658438308e+07 
+7.3999999999999897e+00 -5.9242602362102659e-01 +8.1135931605382545e+00 -6.0990395186000002e-01 -3.3065308707864403e+01 +2.9273995805365425e+03 -7.7283852923190876e+04 -1.5438013938169580e+07 
+7.4999999999999902e+00 -5.9242650927376139e-01 +8.1135917530892865e+00 -6.0455382680785219e-01 -3.2902626646203160e+01 +2.8336128440492203e+03 -7.8158859586159539e+04 -1.4967646241469979e+07 
+7.5999999999999899e+00 -5.9242700560381423e-01 +8.1135895033117542e+00 -5.9898974066865995e-01 -3.2752923074284382e+01 +2.7355227461764980e+03 -7.8855897528364410e+04 -1.4474655333714098e+07 
+7.6999999999999904e+00 -5.9242751287240669e-01 +8.1135863406550879e+00 -5.9320883377306599e-01 -3.2618094840238115e+01 +2.6331256285209570e+03 -7.9359576392223040e+04 -1.3959311760840429e+07 
+7.7999999999999901e+00 -5.9242803134074151e-01 +8.1135821945647457e+00 -5.8720824166754693e-01 -3.2500038717342719e+01 +2.5264177343747997e+03 -7.9654505970403319e+04 -1.3421885619488869e+07 
+7.8999999999999897e+00 -5.9242856127003130e-01 +8.1135769944840899e+00 -5.8098509851107949e-01 -3.2400651423841538e+01 +2.4153952721891724e+03 -7.9725296178777062e+04 -1.2862646856244540e+07 
+7.9999999999999902e+00 -5.9242910292142847e-01 +8.1135706698548304e+00 -5.7453652949403966e-01 -3.2321828719531069e+01 +2.3000543595218096e+03 -7.9556563832402069e+04 -1.2281865260860894e+07 
+8.0999999999999908e+00 -5.9242965635756040e-01 +8.1135631887625248e+00 -5.6787021562589968e-01 -3.2264637630650498e+01 +2.1806108498980893e+03 -7.9141345573797153e+04 -1.1680949885951839e+07 
+8.1999999999999904e+00 -5.9243022096335085e-01 +8.1135546512519934e+00 -5.6103357696948586e-01 -3.2227709271287424e+01 +2.0580352957602927e+03 -7.8498459300210132e+04 -1.1065028439575167e+07 
+8.2999999999999901e+00 -5.9243079597941217e-01 +8.1135451854100200e+00 -5.5408325384514678e-01 -3.2209222015126052e+01 +1.9334604448403682e+03 -7.7651709946848074e+04 -1.0439989724221114e+07 
+8.3999999999999897e+00 -5.9243138064626455e-01 +8.1135349193250299e+00 -5.4707589177582328e-01 -3.2207354307463987e+01 +1.8080191681619619e+03 -7.6624901599003904e+04 -9.8117231428915095e+06 
+8.4999999999999893e+00 -5.9243197420453464e-01 +8.1135239810887843e+00 -5.4006814231888767e-01 -3.2220284679894625e+01 +1.6828444799935719e+03 -7.5441837477102090e+04 -9.1861188072806913e+06 
+8.5999999999999908e+00 -5.9243257589473952e-01 +8.1135124987876210e+00 -5.3311666135845637e-01 -3.2246191529116736e+01 +1.5590695042176928e+03 -7.4126321121836037e+04 -8.5690673680468183e+06 
+8.6999999999999904e+00 -5.9243318495751907e-01 +8.1135006005138663e+00 -5.2627810935305253e-01 -3.2283253416035357e+01 +1.4378274817223871e+03 -7.2702154741471080e+04 -7.9664600586382337e+06 
+8.7999999999999794e+00 -5.9243380063341222e-01 +8.1134884143630579e+00 -5.1960915320989787e-01 -3.2329649016521032e+01 +1.3202518032412772e+03 -7.1193139387810283e+04 -7.3841888419610821e+06 
+8.8999999999999808e+00 -5.9243442216295539e-01 +8.1134760684286000e+00 -5.1316646626145535e-01 -3.2383556951405239e+01 +1.2074760140309163e+03 -6.9623075979515677e+04 -6.8281464426688803e+06 
+8.9999999999999805e+00 -5.9243504878678777e-01 +8.1134636908090343e+00 -5.0700672527424684e-01 -3.2443155987288257e+01 +1.1006337557700763e+03 -6.8015764156986363e+04 -6.3042260680496776e+06 
+9.0999999999999801e+00 -5.9243567974543188e-01 +8.1134514096001116e+00 -5.0118661670306697e-01 -3.2506624833576652e+01 +1.0008588872828639e+03 -6.6395003366401012e+04 -5.8183219840232180e+06 
+9.1999999999999797e+00 -5.9243631427944410e-01 +8.1134393529010911e+00 -4.9576282848275255e-01 -3.2572142288911294e+01 +9.0928532690181851e+02 -6.4784592109791440e+04 -5.3763287593915956e+06 
+9.2999999999999794e+00 -5.9243695162942722e-01 +8.1134276488169093e+00 -4.9079206053139629e-01 -3.2637887345646654e+01 +8.2704725878117131e+02 -6.3208327196521328e+04 -4.9841422634352157e+06 
+9.3999999999999808e+00 -5.9243759103591342e-01 +8.1134164254458021e+00 -4.8633101615919955e-01 -3.2702038802319329e+01 +7.5527896225798656e+02 -6.1690006074644574e+04 -4.6476588332365016e+06 
+9.4999999999999805e+00 -5.9243823173943766e-01 +8.1134058108926368e+00 -4.8243640547538841e-01 -3.2762775651472516e+01 +6.9511488557556243e+02 -6.0253424558682978e+04 -4.3727756451502927e+06 
+9.5999999999999801e+00 -5.9243887298061915e-01 +8.1133959332672863e+00 -4.7916494540160748e-01 -3.2818277050308012e+01 +6.4768964126901790e+02 -5.8922376941534465e+04 -4.1653906801972231e+06 
+9.6999999999999797e+00 -5.9243951399994732e-01 +8.1133869206759393e+00 -4.7657336128076672e-01 -3.2866722051228223e+01 +6.1413803995046692e+02 -5.7720657594385957e+04 -4.0314028898451645e+06 
+9.7999999999999794e+00 -5.9244015403803107e-01 +8.1133789012279998e+00 -4.7471838551256040e-01 -3.2906289816371036e+01 +5.9559506682912365e+02 -5.6672059666241286e+04 -3.9767120893856529e+06 
+9.8999999999999808e+00 -5.9244079233539948e-01 +8.1133720030366661e+00 -4.7365675635997434e-01 -3.2935159617092872e+01 +5.9319585699366223e+02 -5.5800375135790295e+04 -4.0072188341044611e+06 
+9.9999999999999805e+00 -5.9244142813259071e-01 +8.1133663542573053e+00 -4.7344521884385488e-01 -3.2951513395709505e+01 +6.0807554302190715e+02 -5.5129373586945519e+04 -4.1288228858496272e+06 
+1.0100000000000000e+01 -5.9244206080563089e-01 +8.1133620442875714e+00 -4.7411363961462194e-01 -3.2954068211071231e+01 +6.4079107353796451e+02 -5.4674599440166676e+04 -4.3443617501629246e+06 
