# multipoles
# s[mm] polynom_b[n=0][T/m^n] polynom_b[n=1][T/m^n] polynom_b[n=2][T/m^n] polynom_b[n=3][T/m^n] polynom_b[n=4][T/m^n] polynom_b[n=5][T/m^n] polynom_b[n=6][T/m^n] 
-0.0000000000000000e+00 -5.3667360997972524e-01 +7.3565335451633569e+00 -3.2212286118904931e-01 +4.7036657408956422e+01 +2.4448801531196236e+03 -3.6086336256350245e+05 -1.4559507272749884e+07 
-1.0000000000000001e-01 -5.3667385315445892e-01 +7.3565272395546559e+00 -3.1876333536005252e-01 +4.7456764528963205e+01 +2.4241038010273205e+03 -3.6377924145270203e+05 -1.4538078881561048e+07 
-2.0000000000000001e-01 -5.3667411117624719e-01 +7.3565230460887587e+00 -3.1482293197596134e-01 +4.7856981365531908e+01 +2.3965579787123233e+03 -3.6670506206485949e+05 -1.4494523138761003e+07 
-2.9999999999999999e-01 -5.3667438292975644e-01 +7.3565208463812342e+00 -3.1035146865762303e-01 +4.8237924002244306e+01 +2.3626765297396532e+03 -3.6963477291274449e+05 -1.4429952372145485e+07 
-4.0000000000000002e-01 -5.3667466729966162e-01 +7.3565205220455923e+00 -3.0539876437844582e-01 +4.8600208571528292e+01 +2.3228933277484534e+03 -3.7256232274308149e+05 -1.4345479059621695e+07 
-5.0000000000000000e-01 -5.3667496317060048e-01 +7.3565219546906890e+00 -3.0001463375812121e-01 +4.8944451332630649e+01 +2.2776421707111208e+03 -3.7548166099495318e+05 -1.4242215333387056e+07 
-5.9999999999999998e-01 -5.3667526942723098e-01 +7.3565250259291171e+00 -2.9424889567570695e-01 +4.9271268439245262e+01 +2.2273569378717743e+03 -3.7838673648482683e+05 -1.4121273708718751e+07 
-6.9999999999999996e-01 -5.3667558495429235e-01 +7.3565296173667374e+00 -2.8815136955468279e-01 +4.9581276235914849e+01 +2.1724715247307222e+03 -3.8127149910431390e+05 -1.3983766792790864e+07 
-8.0000000000000004e-01 -5.3667590863641035e-01 +7.3565356106108322e+00 -2.8177186919646746e-01 +4.9875091043295136e+01 +2.1134197209065060e+03 -3.8412989862918266e+05 -1.3830806689376526e+07 
-9.0000000000000002e-01 -5.3667623935826803e-01 +7.3565428872676080e+00 -2.7516021485380354e-01 +5.0153329232589179e+01 +2.0506354406781775e+03 -3.8695588517058827e+05 -1.3663506099944267e+07 
-1.0000000000000000e+00 -5.3667657600459351e-01 +7.3565513289458000e+00 -2.6836622082595063e-01 +5.0416607118177630e+01 +1.9845524820852095e+03 -3.8974340853189578e+05 -1.3482977163749805e+07 
-1.1000000000000001e+00 -5.3667691746000712e-01 +7.3565608172512835e+00 -2.6143970532895194e-01 +5.0665541135196129e+01 +1.9156047203561336e+03 -3.9248641930126928e+05 -1.3290332396115916e+07 
-1.2000000000000000e+00 -5.3667726260926396e-01 +7.3565712337960019e+00 -2.5443048291459058e-01 +5.0900747574316789e+01 +1.8442259594967029e+03 -3.9517886729973642e+05 -1.3086683970343521e+07 
-1.3000000000000000e+00 -5.3667761033699535e-01 +7.3565824601928060e+00 -2.4738837001106417e-01 +5.1122842739350709e+01 +1.7708500363743706e+03 -3.9781470251017035e+05 -1.2873144210991416e+07 
-1.3999999999999999e+00 -5.3667795952791530e-01 +7.3565943780546306e+00 -2.4036318221292441e-01 +5.1332442982742045e+01 +1.6959107673962683e+03 -4.0038787532449217e+05 -1.2650825335540822e+07 
-1.5000000000000000e+00 -5.3667830906675473e-01 +7.3566068689987585e+00 -2.3340473297719905e-01 +5.1530164585908992e+01 +1.6198419262902189e+03 -4.0289233585345233e+05 -1.2420839356284020e+07 
-1.6000000000000001e+00 -5.3667865783820901e-01 +7.3566198146516566e+00 -2.2656283256393855e-01 +5.1716623628345673e+01 +1.5430772192557333e+03 -4.0532203319468361e+05 -1.2184297952214507e+07 
-1.7000000000000000e+00 -5.3667900472690855e-01 +7.3566330966374167e+00 -2.1988729917896530e-01 +5.1892436313929167e+01 +1.4660504999697639e+03 -4.0767091730454605e+05 -1.1942313498864496e+07 
-1.8000000000000000e+00 -5.3667934861763467e-01 +7.3566465965895613e+00 -2.1342794121319270e-01 +5.2058218656908274e+01 +1.3891954269428047e+03 -4.0993293725228781e+05 -1.1695997426306019e+07 
-1.8999999999999999e+00 -5.3667968839502922e-01 +7.3566601961452545e+00 -2.0723457037703222e-01 +5.2214586642786031e+01 +1.3129457149963036e+03 -4.1210204213026649e+05 -1.1446461421794794e+07 
-2.0000000000000000e+00 -5.3668002294385719e-01 +7.3566737769506032e+00 -2.0135699556377135e-01 +5.2362156084731623e+01 +1.2377350176811399e+03 -4.1417218025398819e+05 -1.1194816867591903e+07 
-2.1000000000000001e+00 -5.3668035144574955e-01 +7.3566872640706178e+00 -1.9583296963178995e-01 +5.2500862988515408e+01 +1.1639007320174303e+03 -4.1613553471032390e+05 -1.0941927129238281e+07 
-2.2000000000000002e+00 -5.3668067421290966e-01 +7.3567007511204361e+00 -1.9065507743966992e-01 +5.2627946970177859e+01 +1.0914269272595418e+03 -4.1797708268747211e+05 -1.0687756844142387e+07 
-2.2999999999999998e+00 -5.3668099182650042e-01 +7.3567143726052349e+00 -1.8580533547213843e-01 +5.2739980283452567e+01 +1.0202168487811384e+03 -4.1967997328101972e+05 -1.0432068159554722e+07 
-2.3999999999999999e+00 -5.3668130486781696e-01 +7.3567282630341788e+00 -1.8126575394359223e-01 +5.2833535075965074e+01 +9.5017362565740393e+02 -4.2122735501353798e+05 -1.0174622683114661e+07 
-2.5000000000000000e+00 -5.3668161391807645e-01 +7.3567425569094267e+00 -1.7701834264128255e-01 +5.2905183702321224e+01 +8.8120038187110049e+02 -4.2260237765215535e+05 -9.9151820137421824e+06 
-2.6000000000000001e+00 -5.3668191955852362e-01 +7.3567573887442332e+00 -1.7304511149047447e-01 +5.2951498186236613e+01 +8.1320024557033560e+02 -4.2378818904685910e+05 -9.6535077780918106e+06 
-2.7000000000000002e+00 -5.3668222237042984e-01 +7.3567728930440381e+00 -1.6932806666571859e-01 +5.2969050773949988e+01 +7.4607627379876828e+02 -4.2476793835633417e+05 -9.3893612727771159e+06 
-2.7999999999999998e+00 -5.3668252293507512e-01 +7.3567892043213670e+00 -1.6584921400334202e-01 +5.2954413494425360e+01 +6.7973152660239839e+02 -4.2552477348996530e+05 -9.1225038412961308e+06 
-2.8999999999999999e+00 -5.3668282183376603e-01 +7.3568064570851632e+00 -1.6259055574565043e-01 +5.2904158466016582e+01 +6.1406899547320722e+02 -4.2604184287900652e+05 -8.8526965059300959e+06 
-3.0000000000000000e+00 -5.3668311964780369e-01 +7.3568247858474107e+00 -1.5953409507145166e-01 +5.2814857700574478e+01 +5.4899169437660737e+02 -4.2630229432791920e+05 -8.5797004160720706e+06 
-3.1000000000000001e+00 -5.3668341695853117e-01 +7.3568443251165219e+00 -1.5666183005344181e-01 +5.2683083281000030e+01 +4.8440254671386560e+02 -4.2628927601464838e+05 -8.3032763159618452e+06 
-3.2000000000000002e+00 -5.3668371434730477e-01 +7.3568652094054894e+00 -1.5395575713951351e-01 +5.2505407141800269e+01 +4.2020444767272505e+02 -4.2598593527264940e+05 -8.0231848297126135e+06 
-3.2999999999999998e+00 -5.3668401239548424e-01 +7.3568875732236068e+00 -1.5139787317679138e-01 +5.2278401279143139e+01 +3.5630030970125989e+02 -4.2537541971903481e+05 -7.7391866973005608e+06 
-3.3999999999999999e+00 -5.3668431168447617e-01 +7.3569115510805565e+00 -1.4897016873498170e-01 +5.1998637649311817e+01 +2.9259292871501992e+02 -4.2444087672990694e+05 -7.4510421206813455e+06 
-3.5000000000000000e+00 -5.3668461279567981e-01 +7.3569372774863693e+00 -1.4665463605749346e-01 +5.1662688159437529e+01 +2.2898514161600968e+02 -4.2316545334862394e+05 -7.1585115297394851e+06 
-3.6000000000000001e+00 -5.3668491631056281e-01 +7.3569648869491289e+00 -1.4443326214959470e-01 +5.1267124718179744e+01 +1.6537968998204357e+02 -4.2153229655366280e+05 -6.8613549202881316e+06 
-3.7000000000000002e+00 -5.3668522281053788e-01 +7.3569945139785879e+00 -1.4228803176626895e-01 +5.0808519143947095e+01 +1.0167928648591618e+02 -4.1952455275244138e+05 -6.5593321986293755e+06 
-3.7999999999999998e+00 -5.3668553287711507e-01 +7.3570262930806152e+00 -1.4020092690028607e-01 +5.0283443312080308e+01 +3.7786589301963744e+01 -4.1712536861210165e+05 -6.2522030135712596e+06 
-3.8999999999999999e+00 -5.3668584709183575e-01 +7.3570603587622552e+00 -1.3815392734045659e-01 +4.9688469004038694e+01 -2.6395765614108676e+01 -4.1431789017120254e+05 -5.9397269715473065e+06 
-4.0000000000000000e+00 -5.3668616603616481e-01 +7.3570968455238352e+00 -1.3612901194244090e-01 +4.9020168138979777e+01 -9.0965155246654902e+01 -4.1108526417531027e+05 -5.6216636403794447e+06 
-4.0999999999999996e+00 -5.3668649011622871e-01 +7.3571358059988174e+00 -1.3411999621690321e-01 +4.8277381988658377e+01 -1.5584211908576395e+02 -4.0742299338132649e+05 -5.2985194793103859e+06 
-4.2000000000000002e+00 -5.3668681909037808e-01 +7.3571769956445143e+00 -1.3216311666924033e-01 +4.7467202487155646e+01 -2.2033176522937623e+02 -4.0337148643313645e+05 -4.9733526655438626e+06 
-4.2999999999999998e+00 -5.3668715256775479e-01 +7.3572201024371857e+00 -1.3030409930900885e-01 +4.6598598750064255e+01 -2.8360583287061877e+02 -3.9898136581993802e+05 -4.6497628959952658e+06 
-4.4000000000000004e+00 -5.3668749015731487e-01 +7.3572648143566148e+00 -1.2858868065639437e-01 +4.5680539766098285e+01 -3.4483586267724951e+02 -3.9430325333132275e+05 -4.3313507942277286e+06 
-4.5000000000000000e+00 -5.3668783146811949e-01 +7.3573108193931018e+00 -1.2706259633103781e-01 +4.4721994200627975e+01 -4.0319342676570881e+02 -3.8938776894486672e+05 -4.0217167814730066e+06 
-4.5999999999999996e+00 -5.3668817610906638e-01 +7.3573578055396194e+00 -1.2577158917339254e-01 +4.3731930603626914e+01 -4.5784996456538829e+02 -3.8428553197644453e+05 -3.7244618831141246e+06 
-4.7000000000000002e+00 -5.3668852368912157e-01 +7.3574054607976391e+00 -1.2476140622253566e-01 +4.2719317251615962e+01 -5.0797684794366268e+02 -3.7904716020199412e+05 -3.4431873952614767e+06 
-4.7999999999999998e+00 -5.3668887381709574e-01 +7.3574534731800298e+00 -1.2407779999504337e-01 +4.1693122068674995e+01 -5.5274535416081108e+02 -3.7372326942049374e+05 -3.1814950221964386e+06 
-4.9000000000000004e+00 -5.3668922610187841e-01 +7.3575015307007758e+00 -1.2376652650621953e-01 +4.0662312906040469e+01 -5.9132670384984499e+02 -3.6836447501742141e+05 -2.9429866915195771e+06 
-5.0000000000000000e+00 -5.3668958015217072e-01 +7.3575493213885581e+00 -1.2387335143222794e-01 +3.9635857160490289e+01 -6.2289194432646559e+02 -3.6302138980225619e+05 -2.7312651081445245e+06 
-5.0999999999999996e+00 -5.3668993557673939e-01 +7.3575965332765341e+00 -1.2444404497864060e-01 +3.8622722054505296e+01 -6.4661205056062545e+02 -3.5774462558489438e+05 -2.5499332627717364e+06 
-5.2000000000000002e+00 -5.3669029198425633e-01 +7.3576428544074410e+00 -1.2552437882052295e-01 +3.7631874515040103e+01 -6.6165798069024549e+02 -3.5258479255641380e+05 -2.4025941750425049e+06 
-5.2999999999999998e+00 -5.3669064898328900e-01 +7.3576879728354392e+00 -1.2716014054823530e-01 +3.6672281089099421e+01 -6.6720040306852025e+02 -3.4759249870835751e+05 -2.2928521860665274e+06 
-5.4000000000000004e+00 -5.3669100618240129e-01 +7.3577315766208820e+00 -1.2939711747730914e-01 +3.5752908105415777e+01 -6.6241000648787463e+02 -3.4281835081770050e+05 -2.2243114739204836e+06 
-5.5000000000000000e+00 -5.3669136319004540e-01 +7.3577733538341148e+00 -1.3228110770650553e-01 +3.4882721571500504e+01 -6.4645728405648708e+02 -3.3831295385698811e+05 -2.2005770976978559e+06 
-5.5999999999999996e+00 -5.3669171961469353e-01 +7.3578129925569806e+00 -1.3585791509424841e-01 +3.4070687112869436e+01 -6.1851264111397529e+02 -3.3412691061224061e+05 -2.2252544502022341e+06 
-5.7000000000000002e+00 -5.3669207506466776e-01 +7.3578501808821981e+00 -1.4017335286561944e-01 +3.3325770004921957e+01 -5.7774631410215670e+02 -3.3031082190238958e+05 -2.3019496745445700e+06 
-5.7999999999999998e+00 -5.3669242914824100e-01 +7.3578846069111847e+00 -1.4527324257800336e-01 +3.2656935222591272e+01 -5.2332839860128661e+02 -3.2691528683877079e+05 -2.4342695093029728e+06 
-5.9000000000000004e+00 -5.3669278147362642e-01 +7.3579159587568581e+00 -1.5120341273488583e-01 +3.2073147366064518e+01 -4.5442887466628690e+02 -3.2399090241508902e+05 -2.6258211683717603e+06 
-5.9999999999999902e+00 -5.3669313164894350e-01 +7.3579439245617957e+00 -1.5800970025789388e-01 +3.1583370182459756e+01 -3.7021759307264364e+02 -3.2158826125959225e+05 -2.8802124059365313e+06 
-6.0999999999999899e+00 -5.3669347942810008e-01 +7.3579682966849731e+00 -1.6571642237131079e-01 +3.1193393632473207e+01 -2.7021340490848922e+02 -3.1973998642829858e+05 -3.1996844517595135e+06 
-6.1999999999999904e+00 -5.3669382509274266e-01 +7.3579892215596514e+00 -1.7427374782497967e-01 +3.0898002898743069e+01 -1.5509784555515193e+02 -3.1841550935908104e+05 -3.5820585954462420e+06 
-6.2999999999999901e+00 -5.3669416904382894e-01 +7.3580069209316612e+00 -1.8361585371399419e-01 +3.0689589840487773e+01 -2.5794252766519168e+01 -3.1757031965935597e+05 -4.0242686223037043e+06 
-6.3999999999999897e+00 -5.3669451168236526e-01 +7.3580216165296459e+00 -1.9367691035178392e-01 +3.0560546780175521e+01 +1.1677391232541839e+02 -3.1715990921100311e+05 -4.5232477699615145e+06 
-6.4999999999999902e+00 -5.3669485340937295e-01 +7.3580335300723254e+00 -2.0439108604794451e-01 +3.0503266288015293e+01 +2.7168316084174893e+02 -3.1713977088516933e+05 -5.0759291986466628e+06 
-6.5999999999999899e+00 -5.3669519462594584e-01 +7.3580428832572435e+00 -2.1569253885878645e-01 +3.0510141508483329e+01 +4.3800981368677890e+02 -3.1746540042974736e+05 -5.6792452037250623e+06 
-6.6999999999999904e+00 -5.3669553573318018e-01 +7.3580498977665973e+00 -2.2751542630754529e-01 +3.0573565998030912e+01 +6.1483019036374515e+02 -3.1809229552676261e+05 -6.3301281250169408e+06 
-6.7999999999999901e+00 -5.3669587713225653e-01 +7.3580547952654332e+00 -2.3979389794945377e-01 +3.0685933762818951e+01 +8.0122046792072081e+02 -3.1897595594988466e+05 -7.0255096793696396e+06 
-6.8999999999999897e+00 -5.3669621922433952e-01 +7.3580577973996775e+00 -2.5246209466866959e-01 +3.0839639329673687e+01 +9.9625666703642059e+02 -3.2007188401573186e+05 -7.7623208931399388e+06 
-6.9999999999999902e+00 -5.3669656241068320e-01 +7.3580591257938153e+00 -2.6545415548045864e-01 +3.1027077801140219e+01 +1.1990147818305668e+03 -3.2133558483219380e+05 -8.5374927229167931e+06 
-7.0999999999999899e+00 -5.3669690709258000e-01 +7.3580590020571943e+00 -2.7870421058530886e-01 +3.1240644678112300e+01 +1.4085706492708514e+03 -3.2272256528708298e+05 -9.3479554391238932e+06 
-7.1999999999999904e+00 -5.3669725367137844e-01 +7.3580576477734185e+00 -2.9214638268150317e-01 +3.1472736167955045e+01 +1.6239999731167318e+03 -3.2418833581279346e+05 -1.0190638737097962e+07 
-7.2999999999999901e+00 -5.3669760254849275e-01 +7.3580552845073637e+00 -3.0571478861642015e-01 +3.1715748975843962e+01 +1.8443783579676888e+03 -3.2568840914902306e+05 -1.1062471911072556e+07 
-7.3999999999999897e+00 -5.3669795412531862e-01 +7.3580521338006992e+00 -3.1934353718613817e-01 +3.1962080432409682e+01 +2.0687812652985067e+03 -3.2717830105762312e+05 -1.1960383635873286e+07 
-7.4999999999999902e+00 -5.3669830880342695e-01 +7.3580484171722293e+00 -3.3296672707113700e-01 +3.2204128493209474e+01 +2.2962839731505860e+03 -3.2861353033634135e+05 -1.2881301777440622e+07 
-7.5999999999999899e+00 -5.3669866698430246e-01 +7.3580443561152933e+00 -3.4651845481233001e-01 +3.2434291800465424e+01 +2.5259617363569646e+03 -3.2994961912307591e+05 -1.3822154176486103e+07 
-7.6999999999999904e+00 -5.3669902906960498e-01 +7.3580401721025011e+00 -3.5993280343537859e-01 +3.2644969555060960e+01 +2.7568895615091774e+03 -3.3114209215395298e+05 -1.4779867558093295e+07 
-7.7999999999999901e+00 -5.3669939546101730e-01 +7.3580360865780721e+00 -3.7314384895712088e-01 +3.2828561728403415e+01 +2.9881423324967104e+03 -3.3214647796124028e+05 -1.5751368132476978e+07 
-7.8999999999999897e+00 -5.3669976656030316e-01 +7.3580323209613310e+00 -3.8608566056540100e-01 +3.2977468979998790e+01 +3.2187948218046945e+03 -3.3291830843029608e+05 -1.6733581672990499e+07 
-7.9999999999999902e+00 -5.3670014276924460e-01 +7.3580290966393020e+00 -3.9869229693229780e-01 +3.3084092588752107e+01 +3.4479215858161397e+03 -3.3341311713784619e+05 -1.7723432863892823e+07 
-8.0999999999999908e+00 -5.3670052434814008e-01 +7.3580265896960073e+00 -4.1090880025630727e-01 +3.3142470411768521e+01 +3.6746526050554862e+03 -3.3359571320539271e+05 -1.8717641658846959e+07 
-8.1999999999999904e+00 -5.3670091107716089e-01 +7.3580248173304339e+00 -4.2271623084332999e-01 +3.3152708014493605e+01 +3.8982600456319819e+03 -3.3346633722034999e+05 -1.9711985334324863e+07 
-8.2999999999999901e+00 -5.3670130263448024e-01 +7.3580237617941116e+00 -4.3410303460594596e-01 +3.3116313191883989e+01 +4.1180357911080000e+03 -3.3303361313972069e+05 -2.0701981808565624e+07 
-8.3999999999999897e+00 -5.3670169869818962e-01 +7.3580234053437534e+00 -4.4505765840416989e-01 +3.3034793814032824e+01 +4.3332717400945130e+03 -3.3230616621131758e+05 -2.1683149056843717e+07 
-8.4999999999999893e+00 -5.3670209894648402e-01 +7.3580237302430103e+00 -4.5556854889977405e-01 +3.2909657760729147e+01 +4.5432597772635381e+03 -3.3129262255858048e+05 -2.2651004954497147e+07 
-8.5999999999999908e+00 -5.3670250305747291e-01 +7.3580247187639278e+00 -4.6562415085959696e-01 +3.2742412896452066e+01 +4.7472917485081689e+03 -3.3000160910137743e+05 -2.3601067178481847e+07 
-8.6999999999999904e+00 -5.3670291070935472e-01 +7.3580263531863475e+00 -4.7521291145883726e-01 +3.2534567086898967e+01 +4.9446595385602814e+03 -3.2844175365102128e+05 -2.4528853563080333e+07 
-8.7999999999999794e+00 -5.3670332158024314e-01 +7.3580286157972319e+00 -4.8432327852199486e-01 +3.2287628235810132e+01 +5.1346550363563683e+03 -3.2662168518567627e+05 -2.5429881933665041e+07 
-8.8999999999999808e+00 -5.3670373534827498e-01 +7.3580314888929781e+00 -4.9294369701952495e-01 +3.2003104217278199e+01 +5.3165700701735504e+03 -3.2455003346230526e+05 -2.6299669802199308e+07 
-8.9999999999999805e+00 -5.3670415169163765e-01 +7.3580349547765103e+00 -5.0106261655411755e-01 +3.1682502965073052e+01 +5.4896965518180732e+03 -3.2223542956409982e+05 -2.7133735056104809e+07 
-9.0999999999999801e+00 -5.3670457028846752e-01 +7.3580389957644030e+00 -5.0866848259994124e-01 +3.1327332281466134e+01 +5.6533263033067105e+03 -3.1968650484136207e+05 -2.7927595116211642e+07 
-9.1999999999999797e+00 -5.3670499081688772e-01 +7.3580435941766291e+00 -5.1574974292444409e-01 +3.0939100134092765e+01 +5.8067511851621102e+03 -3.1691189263748378e+05 -2.8676767564328261e+07 
-9.2999999999999794e+00 -5.3670541295508933e-01 +7.3580487323483021e+00 -5.2229484699546724e-01 +3.0519314328589033e+01 +5.9492630826191471e+03 -3.1392022644459223e+05 -2.9376770069257122e+07 
-9.3999999999999808e+00 -5.3670583638120650e-01 +7.3580543926214101e+00 -5.2829224184686729e-01 +3.0069482747444482e+01 +6.0801538251117627e+03 -3.1072014128857868e+05 -3.0023119996701937e+07 
-9.4999999999999805e+00 -5.3670626077334871e-01 +7.3580605573483968e+00 -5.3373037800756384e-01 +2.9591113263004832e+01 +6.1987153042335613e+03 -3.0732027328690205e+05 -3.0611334988257151e+07 
-9.5999999999999801e+00 -5.3670668580972702e-01 +7.3580672088952435e+00 -5.3859770324860257e-01 +2.9085713644647960e+01 +6.3042393463129865e+03 -3.0372925910428783e+05 -3.1136932327973112e+07 
-9.6999999999999797e+00 -5.3670711116841963e-01 +7.3580743296348574e+00 -5.4288266954214337e-01 +2.8554791764226483e+01 +6.3960178534540455e+03 -2.9995573719960538e+05 -3.1595429638214536e+07 
-9.7999999999999794e+00 -5.3670753652764358e-01 +7.3580819019560444e+00 -5.4657372484115718e-01 +2.7999855346641766e+01 +6.4733426400473509e+03 -2.9600834641321597e+05 -3.1982344081562184e+07 
-9.8999999999999808e+00 -5.3670796156550593e-01 +7.3580899082546800e+00 -5.4965932137621931e-01 +2.7422412215609668e+01 +6.5355055940770126e+03 -2.9189572737435997e+05 -3.2293193137693461e+07 
-9.9999999999999805e+00 -5.3670838596027126e-01 +7.3580983308585761e+00 -5.5212791665610472e-01 +2.6823972787342598e+01 +6.5817988410637145e+03 -2.8762653784722579e+05 -3.2523495775976930e+07 
-1.0100000000000000e+01 -5.3670880961077583e-01 +7.3581071153926523e+00 -5.5397832811641101e-01 +2.6207311286063590e+01 +6.6118774530809169e+03 -2.8321765909278038e+05 -3.2670826000655312e+07 
