# field on trajectory
# s[mm] rx[mm] ry[mm] rz[mm] bx[T] by[T] bz[T]
0.0000000000000000e+00 +8.1530000000000094e+00 +0.0000000000000000e+00 +0.0000000000000000e+00 -3.0464605680403278e-02 -5.6504440479166063e-01 +5.6386013637729840e-03
1.0000000000000001e-01 +8.1529997159377707e+00 +0.0000000000000000e+00 +1.0008006405070299e-01 -3.0464696831418961e-02 -5.6504395982262179e-01 +5.6385824810718044e-03
2.0000000000000001e-01 +8.1529988637557800e+00 +0.0000000000000000e+00 +2.0016012809818201e-01 -3.0464781953467752e-02 -5.6504349927674746e-01 +5.6385626258468107e-03
2.9999999999999999e-01 +8.1529974434524792e+00 +0.0000000000000000e+00 +3.0024019213920999e-01 -3.0464861718028098e-02 -5.6504302547460372e-01 +5.6385419218335023e-03
4.0000000000000002e-01 +8.1529954550242092e+00 +0.0000000000000000e+00 +4.0032025617056399e-01 -3.0464936796572393e-02 -5.6504254073678239e-01 +5.6385204927695753e-03
5.0000000000000000e-01 +8.1529928984782600e+00 +0.0000000000000000e+00 +5.0040032018901703e-01 -3.0465007860564299e-02 -5.6504204738379948e-01 +5.6384984623936230e-03
5.9999999999999998e-01 +8.1529897738146193e+00 +0.0000000000000000e+00 +6.0048038419134497e-01 -3.0465075581468298e-02 -5.6504154773623638e-01 +5.6384759544463011e-03
6.9999999999999996e-01 +8.1529860810223909e+00 +0.0000000000000000e+00 +7.0056044817432195e-01 -3.0465140630753486e-02 -5.6504104411477052e-01 +5.6384530926703504e-03
8.0000000000000004e-01 +8.1529818201124709e+00 +0.0000000000000000e+00 +8.0064051213472498e-01 -3.0465203679883528e-02 -5.6504053883992000e-01 +5.6384300008077608e-03
9.0000000000000002e-01 +8.1529769910812302e+00 +0.0000000000000000e+00 +9.0072057606932698e-01 -3.0465265400333022e-02 -5.6504003423232607e-01 +5.6384068026023382e-03
1.0000000000000000e+00 +8.1529715939250291e+00 +0.0000000000000000e+00 +1.0008006399749001e+00 -3.0465326463584446e-02 -5.6503953261264284e-01 +5.6383836217983232e-03
1.1000000000000001e+00 +8.1529656286511507e+00 +0.0000000000000000e+00 +1.1008807038482300e+00 -3.0465387541126380e-02 -5.6503903630144980e-01 +5.6383605821392468e-03
1.2000000000000000e+00 +8.1529590952522994e+00 +0.0000000000000000e+00 +1.2009607676860801e+00 -3.0465449304465753e-02 -5.6503854761945249e-01 +5.6383378073696722e-03
1.3000000000000000e+00 +8.1529519937357708e+00 +0.0000000000000000e+00 +1.3010408314852300e+00 -3.0465512425119180e-02 -5.6503806888725616e-01 +5.6383154212326292e-03
1.3999999999999999e+00 +8.1529443240979198e+00 +0.0000000000000000e+00 +1.4011208952424601e+00 -3.0465577574625088e-02 -5.6503760242556211e-01 +5.6382935474713581e-03
1.5000000000000000e+00 +8.1529360863350995e+00 +0.0000000000000000e+00 +1.5012009589545301e+00 -3.0465645424542144e-02 -5.6503715055508696e-01 +5.6382723098281845e-03
1.6000000000000001e+00 +8.1529272804509691e+00 +0.0000000000000000e+00 +1.6012810226182299e+00 -3.0465716646448815e-02 -5.6503671559650359e-01 +5.6382518320436722e-03
1.7000000000000000e+00 +8.1529179064491508e+00 +0.0000000000000000e+00 +1.7013610862303301e+00 -3.0465791911948661e-02 -5.6503629987049908e-01 +5.6382322378569277e-03
1.8000000000000000e+00 +8.1529079643223703e+00 +0.0000000000000000e+00 +1.8014411497875999e+00 -3.0465871892676952e-02 -5.6503590569785944e-01 +5.6382136510061990e-03
1.8999999999999999e+00 +8.1528974540779000e+00 +0.0000000000000000e+00 +1.9015212132868200e+00 -3.0465957260293448e-02 -5.6503553539927343e-01 +5.6381961952265943e-03
2.0000000000000000e+00 +8.1528863757084800e+00 +0.0000000000000000e+00 +2.0016012767247702e+00 -3.0466048686495117e-02 -5.6503519129555446e-01 +5.6381799942520003e-03
2.1000000000000001e+00 +8.1528747292177304e+00 +0.0000000000000000e+00 +2.1016813400982199e+00 -3.0466146641234912e-02 -5.6503487501239569e-01 +5.6381651438421844e-03
2.2000000000000002e+00 +8.1528625146056601e+00 +0.0000000000000000e+00 +2.2017614034039301e+00 -3.0466250825203680e-02 -5.6503458552557839e-01 +5.6381516331146025e-03
2.2999999999999998e+00 +8.1528497318759001e+00 +0.0000000000000000e+00 +2.3018414666387002e+00 -3.0466360755778746e-02 -5.6503432117941166e-01 +5.6381394257761213e-03
2.3999999999999999e+00 +8.1528363810211903e+00 +0.0000000000000000e+00 +2.4019215297993002e+00 -3.0466475950329586e-02 -5.6503408031827462e-01 +5.6381284855351339e-03
2.5000000000000000e+00 +8.1528224620451493e+00 +0.0000000000000000e+00 +2.5020015928824901e+00 -3.0466595926206555e-02 -5.6503386128644584e-01 +5.6381187761000090e-03
2.6000000000000001e+00 +8.1528079749477893e+00 +0.0000000000000000e+00 +2.6020816558850601e+00 -3.0466720200743484e-02 -5.6503366242821307e-01 +5.6381102611803317e-03
2.7000000000000002e+00 +8.1527929197291105e+00 +0.0000000000000000e+00 +2.7021617188037701e+00 -3.0466848291253290e-02 -5.6503348208784065e-01 +5.6381029044867735e-03
2.7999999999999998e+00 +8.1527772963891003e+00 +0.0000000000000000e+00 +2.8022417816354102e+00 -3.0466979715025065e-02 -5.6503331860956985e-01 +5.6380966697312258e-03
2.8999999999999999e+00 +8.1527611049277802e+00 +0.0000000000000000e+00 +2.9023218443767500e+00 -3.0467113989321049e-02 -5.6503317033761324e-01 +5.6380915206269136e-03
3.0000000000000000e+00 +8.1527443453451305e+00 +0.0000000000000000e+00 +3.0024019070245598e+00 -3.0467250631373743e-02 -5.6503303561615392e-01 +5.6380874208885453e-03
3.1000000000000001e+00 +8.1527270176411495e+00 +0.0000000000000000e+00 +3.1024819695756198e+00 -3.0467389158382856e-02 -5.6503291278934209e-01 +5.6380843342324410e-03
3.2000000000000002e+00 +8.1527091218158603e+00 +0.0000000000000000e+00 +3.2025620320267101e+00 -3.0467529087512435e-02 -5.6503280020129221e-01 +5.6380822243766639e-03
3.2999999999999998e+00 +8.1526906578692397e+00 +0.0000000000000000e+00 +3.3026420943745900e+00 -3.0467669935887811e-02 -5.6503269619608099e-01 +5.6380810550411510e-03
3.3999999999999999e+00 +8.1526716258013003e+00 +0.0000000000000000e+00 +3.4027221566160502e+00 -3.0467811220592715e-02 -5.6503259911774395e-01 +5.6380807899478530e-03
3.5000000000000000e+00 +8.1526520256120403e+00 +0.0000000000000000e+00 +3.5028022187478500e+00 -3.0467952458666250e-02 -5.6503250731027344e-01 +5.6380813928208562e-03
3.6000000000000001e+00 +8.1526318572978198e+00 +0.0000000000000000e+00 +3.6028822807667802e+00 -3.0468093167101373e-02 -5.6503241911764301e-01 +5.6380828273868118e-03
3.7000000000000002e+00 +8.1526111208659096e+00 +0.0000000000000000e+00 +3.7029623426696099e+00 -3.0468232862836342e-02 -5.6503233288369437e-01 +5.6380850573739209e-03
3.7999999999999998e+00 +8.1525898163126804e+00 +0.0000000000000000e+00 +3.8030424044531101e+00 -3.0468371062760059e-02 -5.6503224695229992e-01 +5.6380880465137714e-03
3.8999999999999999e+00 +8.1525679436344909e+00 +0.0000000000000000e+00 +3.9031224661140600e+00 -3.0468507283705017e-02 -5.6503215966727971e-01 +5.6380917585406387e-03
4.0000000000000000e+00 +8.1525455028386205e+00 +0.0000000000000000e+00 +4.0032025276492398e+00 -3.0468641042444133e-02 -5.6503206937232031e-01 +5.6380961571904009e-03
4.0999999999999996e+00 +8.1525224939177896e+00 +0.0000000000000000e+00 +4.1032825890554099e+00 -3.0468771990713444e-02 -5.6503197470936606e-01 +5.6381011950664400e-03
4.2000000000000002e+00 +8.1524989168792708e+00 +0.0000000000000000e+00 +4.2033626503293604e+00 -3.0468900270905562e-02 -5.6503187540397615e-01 +5.6381067842993177e-03
4.2999999999999998e+00 +8.1524747717157897e+00 +0.0000000000000000e+00 +4.3034427114678504e+00 -3.0469026136870296e-02 -5.6503177142798200e-01 +5.6381128278282641e-03
4.4000000000000004e+00 +8.1524500584346207e+00 +0.0000000000000000e+00 +4.4035227724676700e+00 -3.0469149842472881e-02 -5.6503166275315031e-01 +5.6381192285900796e-03
4.5000000000000000e+00 +8.1524247770285001e+00 +0.0000000000000000e+00 +4.5036028333255800e+00 -3.0469271641607135e-02 -5.6503154935141164e-01 +5.6381258895212812e-03
4.5999999999999996e+00 +8.1523989275046898e+00 +0.0000000000000000e+00 +4.6036828940383696e+00 -3.0469391788186546e-02 -5.6503143119463872e-01 +5.6381327135557047e-03
4.7000000000000002e+00 +8.1523725098559208e+00 +0.0000000000000000e+00 +4.7037629546028104e+00 -3.0469510536157533e-02 -5.6503130825487535e-01 +5.6381396036266577e-03
4.7999999999999998e+00 +8.1523455240894709e+00 +0.0000000000000000e+00 +4.8038430150156701e+00 -3.0469628139490529e-02 -5.6503118050411594e-01 +5.6381464626645205e-03
4.9000000000000004e+00 +8.1523179701980606e+00 +0.0000000000000000e+00 +4.9039230752737302e+00 -3.0469744852193167e-02 -5.6503104791453274e-01 +5.6381531935988972e-03
5.0000000000000000e+00 +8.1522898481889605e+00 +0.0000000000000000e+00 +5.0040031353737602e+00 -3.0469860928301343e-02 -5.6503091045825560e-01 +5.6381596993562121e-03
5.0999999999999996e+00 +8.1522611580549000e+00 +0.0000000000000000e+00 +5.1040831953125396e+00 -3.0469976621892533e-02 -5.6503076810760011e-01 +5.6381658828618762e-03
5.2000000000000002e+00 +8.1522318997995207e+00 +0.0000000000000000e+00 +5.2041632550868497e+00 -3.0470092187078131e-02 -5.6503062083487499e-01 +5.6381716470381470e-03
5.2999999999999998e+00 +8.1522020734228100e+00 +0.0000000000000000e+00 +5.3042433146934496e+00 -3.0470207878011267e-02 -5.6503046861249828e-01 +5.6381768948051718e-03
5.4000000000000004e+00 +8.1521716789247893e+00 +0.0000000000000000e+00 +5.4043233741291203e+00 -3.0470323948887434e-02 -5.6503031141297222e-01 +5.6381815290805501e-03
5.5000000000000000e+00 +8.1521407163090807e+00 +0.0000000000000000e+00 +5.5044034333906504e+00 -3.0470440653945375e-02 -5.6503014920885886e-01 +5.6381854527789528e-03
5.5999999999999996e+00 +8.1521091855684098e+00 +0.0000000000000000e+00 +5.6044834924747899e+00 -3.0470558247474730e-02 -5.6502998197289800e-01 +5.6381885688131256e-03
5.7000000000000002e+00 +8.1520770867064094e+00 +0.0000000000000000e+00 +5.7045635513783299e+00 -3.0470676983809841e-02 -5.6502980967783945e-01 +5.6381907800920478e-03
5.7999999999999998e+00 +8.1520444197231008e+00 +0.0000000000000000e+00 +5.8046436100980499e+00 -3.0470797117337474e-02 -5.6502963229656122e-01 +5.6381919895219660e-03
5.9000000000000004e+00 +8.1520111846184609e+00 +0.0000000000000000e+00 +5.9047236686307096e+00 -3.0470918902497608e-02 -5.6502944980204506e-01 +5.6381921000059759e-03
5.9999999999999902e+00 +8.1519773813925003e+00 +0.0000000000000000e+00 +6.0048037269731003e+00 -3.0471042593788550e-02 -5.6502926216740101e-01 +5.6381910144479826e-03
6.0999999999999899e+00 +8.1519430100452208e+00 +0.0000000000000000e+00 +6.1048837851219799e+00 -3.0471168477180215e-02 -5.6502906959779875e-01 +5.6381886782598629e-03
6.1999999999999904e+00 +8.1519080705766100e+00 +0.0000000000000000e+00 +6.2049638430741396e+00 -3.0471296947527815e-02 -5.6502887310210859e-01 +5.6381851841448456e-03
6.2999999999999901e+00 +8.1518725629866804e+00 +0.0000000000000000e+00 +6.3050439008263499e+00 -3.0471428423258590e-02 -5.6502867386307198e-01 +5.6381806566861278e-03
6.3999999999999897e+00 +8.1518364872754301e+00 +0.0000000000000000e+00 +6.4051239583753699e+00 -3.0471563322811514e-02 -5.6502847306334780e-01 +5.6381752204685215e-03
6.4999999999999902e+00 +8.1517998434428591e+00 +0.0000000000000000e+00 +6.5052040157180002e+00 -3.0471702064637354e-02 -5.6502827188550964e-01 +5.6381690000785363e-03
6.5999999999999899e+00 +8.1517626314889604e+00 +0.0000000000000000e+00 +6.6052840728510001e+00 -3.0471845067198831e-02 -5.6502807151203904e-01 +5.6381621201044545e-03
6.6999999999999904e+00 +8.1517248514137499e+00 +0.0000000000000000e+00 +6.7053641297711399e+00 -3.0471992748970774e-02 -5.6502787312532499e-01 +5.6381547051364165e-03
6.7999999999999901e+00 +8.1516865032135701e+00 +0.0000000000000000e+00 +6.8054441864752100e+00 -3.0472145528441675e-02 -5.6502767790768460e-01 +5.6381468797667995e-03
6.8999999999999897e+00 +8.1516475868957095e+00 +0.0000000000000000e+00 +6.9055242429599701e+00 -3.0472303824108180e-02 -5.6502748704124828e-01 +5.6381387685891333e-03
6.9999999999999902e+00 +8.1516081024565192e+00 +0.0000000000000000e+00 +7.0056042992222096e+00 -3.0472468054483694e-02 -5.6502730170812387e-01 +5.6381304961999230e-03
7.0999999999999899e+00 +8.1515680498960101e+00 +0.0000000000000000e+00 +7.1056843552586999e+00 -3.0472638638092867e-02 -5.6502712309028025e-01 +5.6381221871975766e-03
7.1999999999999904e+00 +8.1515274292141804e+00 +0.0000000000000000e+00 +7.2057644110662000e+00 -3.0472815993473189e-02 -5.6502695236957090e-01 +5.6381139661827685e-03
7.2999999999999901e+00 +8.1514862404073902e+00 +0.0000000000000000e+00 +7.3058444666415099e+00 -3.0473000539176464e-02 -5.6502679072775830e-01 +5.6381059577588202e-03
7.3999999999999897e+00 +8.1514444834829192e+00 +0.0000000000000000e+00 +7.4059245219813796e+00 -3.0473192693763449e-02 -5.6502663934639707e-01 +5.6380982865306207e-03
7.4999999999999902e+00 +8.1514021584334806e+00 +0.0000000000000000e+00 +7.5060045770826100e+00 -3.0473392875813705e-02 -5.6502649940702687e-01 +5.6380910771067381e-03
7.5999999999999899e+00 +8.1513592652663593e+00 +0.0000000000000000e+00 +7.6060846319419504e+00 -3.0473601503914587e-02 -5.6502637209094309e-01 +5.6380844540971815e-03
7.6999999999999904e+00 +8.1513158039779192e+00 +0.0000000000000000e+00 +7.7061646865561997e+00 -3.0473818996671145e-02 -5.6502625857938982e-01 +5.6380785421155082e-03
7.7999999999999901e+00 +8.1512717745681602e+00 +0.0000000000000000e+00 +7.8062447409221098e+00 -3.0474045772700738e-02 -5.6502616005344330e-01 +5.6380734657777562e-03
7.8999999999999897e+00 +8.1512271770334301e+00 +0.0000000000000000e+00 +7.9063247950364799e+00 -3.0474282250635875e-02 -5.6502607769406343e-01 +5.6380693497030945e-03
7.9999999999999902e+00 +8.1511820113773901e+00 +0.0000000000000000e+00 +8.0064048488960609e+00 -3.0474528849048454e-02 -5.6502601268193353e-01 +5.6380663185058248e-03
8.0999999999999908e+00 +8.1511362776036496e+00 +0.0000000000000000e+00 +8.1064849024976393e+00 -3.0474785656802644e-02 -5.6502596586549103e-01 +5.6380644636371876e-03
8.1999999999999904e+00 +8.1510899757086008e+00 +0.0000000000000000e+00 +8.2065649558379903e+00 -3.0475051673390669e-02 -5.6502593699596482e-01 +5.6380637669732432e-03
8.2999999999999901e+00 +8.1510431056885899e+00 +0.0000000000000000e+00 +8.3066450089139003e+00 -3.0475325673595104e-02 -5.6502592559839249e-01 +5.6380641877905174e-03
8.3999999999999897e+00 +8.1509956675508892e+00 +0.0000000000000000e+00 +8.4067250617221205e+00 -3.0475606432144049e-02 -5.6502593119783939e-01 +5.6380656853634329e-03
8.4999999999999893e+00 +8.1509476612882299e+00 +0.0000000000000000e+00 +8.5068051142594392e+00 -3.0475892723718923e-02 -5.6502595331959926e-01 +5.6380682189662466e-03
8.5999999999999908e+00 +8.1508990869078808e+00 +0.0000000000000000e+00 +8.6068851665226305e+00 -3.0476183322941726e-02 -5.6502599148897170e-01 +5.6380717478707347e-03
8.6999999999999904e+00 +8.1508499444025801e+00 +0.0000000000000000e+00 +8.7069652185084596e+00 -3.0476477004384325e-02 -5.6502604523149369e-01 +5.6380762313484123e-03
8.7999999999999794e+00 +8.1508002337759500e+00 +0.0000000000000000e+00 +8.8070452702137203e+00 -3.0476772542557019e-02 -5.6502611407274583e-01 +5.6380816286684858e-03
8.8999999999999808e+00 +8.1507499550316407e+00 +0.0000000000000000e+00 +8.9071253216351796e+00 -3.0477068711910874e-02 -5.6502619753843941e-01 +5.6380878990986661e-03
8.9999999999999805e+00 +8.1506991081623692e+00 +0.0000000000000000e+00 +9.0072053727696098e+00 -3.0477364286840242e-02 -5.6502629515450675e-01 +5.6380950019059815e-03
9.0999999999999801e+00 +8.1506476931717806e+00 +0.0000000000000000e+00 +9.1072854236137797e+00 -3.0477658041672542e-02 -5.6502640644693458e-01 +5.6381028963549910e-03
9.1999999999999797e+00 +8.1505957100635005e+00 +0.0000000000000000e+00 +9.2073654741644795e+00 -3.0477948750670794e-02 -5.6502653094185429e-01 +5.6381115417086132e-03
9.2999999999999794e+00 +8.1505431588302599e+00 +0.0000000000000000e+00 +9.3074455244184708e+00 -3.0478235188035951e-02 -5.6502666816562896e-01 +5.6381208972289282e-03
9.3999999999999808e+00 +8.1504900394757005e+00 +0.0000000000000000e+00 +9.4075255743725297e+00 -3.0478516127896812e-02 -5.6502681764468798e-01 +5.6381309221754028e-03
9.4999999999999805e+00 +8.1504363520034495e+00 +0.0000000000000000e+00 +9.5076056240234408e+00 -3.0478790344312480e-02 -5.6502697890561837e-01 +5.6381415758057158e-03
9.5999999999999801e+00 +8.1503820964062506e+00 +0.0000000000000000e+00 +9.6076856733679694e+00 -3.0479056611274747e-02 -5.6502715147524962e-01 +5.6381528173765471e-03
9.6999999999999797e+00 +8.1503272726913600e+00 +0.0000000000000000e+00 +9.7077657224029004e+00 -3.0479313702696593e-02 -5.6502733488046275e-01 +5.6381646061415443e-03
9.7999999999999794e+00 +8.1502718808515109e+00 +0.0000000000000000e+00 +9.8078457711250007e+00 -3.0479560392421608e-02 -5.6502752864841921e-01 +5.6381769013535430e-03
9.8999999999999808e+00 +8.1502159208903304e+00 +0.0000000000000000e+00 +9.9079258195310498e+00 -3.0479795454212436e-02 -5.6502773230636727e-01 +5.6381896622625261e-03
9.9999999999999805e+00 +8.1501593928078400e+00 +0.0000000000000000e+00 +1.0008005867617801e+01 -3.0480017661903176e-02 -5.6502794538167267e-01 +5.6382028481197222e-03
1.0100000000000000e+01 +8.1501022966040200e+00 +0.0000000000000000e+00 +1.0108085915382100e+01 -3.0480226154174749e-02 -5.6502816718947246e-01 +5.6382164255503880e-03
1.0199999999999999e+01 +8.1500446322825209e+00 +0.0000000000000000e+00 +1.0208165962820599e+01 -3.0480421219638822e-02 -5.6502839637559965e-01 +5.6382303844226952e-03
1.0300000000000001e+01 +8.1499863998360507e+00 +0.0000000000000000e+00 +1.0308246009930199e+01 -3.0480603372887386e-02 -5.6502863145437565e-01 +5.6382447191741366e-03
1.0400000000000000e+01 +8.1499275992682705e+00 +0.0000000000000000e+00 +1.0408326056707599e+01 -3.0480773128539158e-02 -5.6502887093993548e-01 +5.6382594242429598e-03
1.0500000000000000e+01 +8.1498682305791608e+00 +0.0000000000000000e+00 +1.0508406103149600e+01 -3.0480931001246280e-02 -5.6502911334634065e-01 +5.6382744940693830e-03
1.0600000000000000e+01 +8.1498082937723701e+00 +0.0000000000000000e+00 +1.0608486149253000e+01 -3.0481077505692400e-02 -5.6502935718751690e-01 +5.6382899230950339e-03
1.0699999999999999e+01 +8.1497477888406102e+00 +0.0000000000000000e+00 +1.0708566195014500e+01 -3.0481213156599352e-02 -5.6502960097736510e-01 +5.6383057057641569e-03
1.0800000000000001e+01 +8.1496867157875403e+00 +0.0000000000000000e+00 +1.0808646240430900e+01 -3.0481338468719768e-02 -5.6502984322959038e-01 +5.6383218365219246e-03
1.0900000000000000e+01 +8.1496250746131391e+00 +0.0000000000000000e+00 +1.0908726285499000e+01 -3.0481453956843648e-02 -5.6503008245781017e-01 +5.6383383098156320e-03
1.1000000000000000e+01 +8.1495628653174208e+00 +0.0000000000000000e+00 +1.1008806330215601e+01 -3.0481560135798020e-02 -5.6503031717552354e-01 +5.6383551200944451e-03
1.1100000000000000e+01 +8.1495000879040198e+00 +0.0000000000000000e+00 +1.1108886374577500e+01 -3.0481657520446501e-02 -5.6503054589608159e-01 +5.6383722618091542e-03
1.1199999999999999e+01 +8.1494367423620098e+00 +0.0000000000000000e+00 +1.1208966418581401e+01 -3.0481746625697279e-02 -5.6503076713282241e-01 +5.6383897294136507e-03
1.1300000000000001e+01 +8.1493728287059604e+00 +0.0000000000000000e+00 +1.1309046462224000e+01 -3.0481827966488836e-02 -5.6503097939876101e-01 +5.6384075173618190e-03
1.1400000000000000e+01 +8.1493083469249505e+00 +0.0000000000000000e+00 +1.1409126505502300e+01 -3.0481902057810411e-02 -5.6503118120697970e-01 +5.6384256201115731e-03
1.1500000000000000e+01 +8.1492432970226201e+00 +0.0000000000000000e+00 +1.1509206548412800e+01 -3.0481969414687712e-02 -5.6503137107031476e-01 +5.6384440321217760e-03
1.1600000000000000e+01 +8.1491776789989707e+00 +0.0000000000000000e+00 +1.1609286590952600e+01 -3.0482030552190856e-02 -5.6503154750149498e-01 +5.6384627478536691e-03
1.1699999999999999e+01 +8.1491114928576298e+00 +0.0000000000000000e+00 +1.1709366633118099e+01 -3.0482085985432623e-02 -5.6503170901308253e-01 +5.6384817617703819e-03
1.1800000000000001e+01 +8.1490447385876905e+00 +0.0000000000000000e+00 +1.1809446674906400e+01 -3.0482136229576445e-02 -5.6503185411761003e-01 +5.6385010683383746e-03
