# multipoles
# s[mm] polynom_b[n=0][T/m^n] polynom_b[n=1][T/m^n] polynom_b[n=2][T/m^n] polynom_b[n=3][T/m^n] polynom_b[n=4][T/m^n] polynom_b[n=5][T/m^n] polynom_b[n=6][T/m^n] 
+0.0000000000000000e+00 -5.3714423102512177e-01 +7.3614903151649553e+00 -6.4014372765673255e-01 -1.8416901301062545e+01 +3.0199774113730396e+03 -6.4211135733942581e+04 -1.3825101680569904e+07 
+1.0000000000000001e-01 -5.3714452331167206e-01 +7.3615016749564379e+00 -6.5204947392722012e-01 -1.8094704898095749e+01 +3.1818059259025213e+03 -6.6463967038134680e+04 -1.4392107610489074e+07 
+2.0000000000000001e-01 -5.3714481716681528e-01 +7.3615144282469531e+00 -6.6353513585680601e-01 -1.7813857862983888e+01 +3.3411887336771674e+03 -6.8540743379062929e+04 -1.4964581763827698e+07 
+2.9999999999999999e-01 -5.3714511363085915e-01 +7.3615286104616269e+00 -6.7456490810445635e-01 -1.7575507187442124e+01 +3.4973859018327448e+03 -7.0431391295606605e+04 -1.5538943799304772e+07 
+4.0000000000000002e-01 -5.3714541374423508e-01 +7.3615442570192142e+00 -6.8510298220140531e-01 -1.7380799691008637e+01 +3.6496574442608458e+03 -7.2125838190472583e+04 -1.6111613140383620e+07 
+5.0000000000000000e-01 -5.3714571854731707e-01 +7.3615614033355259e+00 -6.9511354686724136e-01 -1.7230882141199952e+01 +3.7972633252635542e+03 -7.3614011585054715e+04 -1.6679008987548662e+07 
+5.9999999999999998e-01 -5.3714602908048503e-01 +7.3615800848190336e+00 -7.0456079712922992e-01 -1.7126901104947333e+01 +3.9394636346587827e+03 -7.4885840034871988e+04 -1.7237551155902497e+07 
+6.9999999999999996e-01 -5.3714634638413317e-01 +7.3616003368730745e+00 -7.1340891929289219e-01 -1.7070003018991393e+01 +4.0755182996538065e+03 -7.5931252707624502e+04 -1.7783658699066244e+07 
+8.0000000000000004e-01 -5.3714667149865580e-01 +7.3616221948967553e+00 -7.2162210332954124e-01 -1.7061334214635938e+01 +4.2046873201679855e+03 -7.6740179250966263e+04 -1.8313751027233385e+07 
+9.0000000000000002e-01 -5.3714700546445759e-01 +7.3616456942803659e+00 -7.2916453791656455e-01 -1.7102040777704378e+01 +4.3262306759665844e+03 -7.7302550618095775e+04 -1.8824247470723957e+07 
+1.0000000000000000e+00 -5.3714734932195918e-01 +7.3616708704120368e+00 -7.3600040992193383e-01 -1.7193268742354167e+01 +4.4394083157712648e+03 -7.7608297949188316e+04 -1.9311567225221109e+07 
+1.1000000000000001e+00 -5.3714770411162860e-01 +7.3616977586718146e+00 -7.4209390701658351e-01 -1.7336163920095899e+01 +4.5434802061650980e+03 -7.7647353563034980e+04 -1.9772129582645487e+07 
+1.2000000000000000e+00 -5.3714807087383742e-01 +7.3617263944302369e+00 -7.4740921216013634e-01 -1.7531871848939875e+01 +4.6377062262987247e+03 -7.7409651279455458e+04 -2.0202353429012649e+07 
+1.3000000000000000e+00 -5.3714845064906103e-01 +7.3617568130568207e+00 -7.5191050878780674e-01 -1.7781538041097882e+01 +4.7213462671246061e+03 -7.6885124976854175e+04 -2.0598657719786059e+07 
+1.3999999999999999e+00 -5.3714884447776290e-01 +7.3617890499103202e+00 -7.5556198190080615e-01 -1.8086307702972498e+01 +4.7936602508244705e+03 -7.6063710222809023e+04 -2.0957461567467265e+07 
+1.5000000000000000e+00 -5.3714925340040998e-01 +7.3618231403457077e+00 -7.5832780927986931e-01 -1.8447325930952278e+01 +4.8539079642751722e+03 -7.4935343142952290e+04 -2.1275183452166390e+07 
+1.6000000000000001e+00 -5.3714967845747730e-01 +7.3618591197095409e+00 -7.6017217095015166e-01 -1.8865737568199734e+01 +4.9013492379400304e+03 -7.3489961292275912e+04 -2.1548242070121273e+07 
+1.7000000000000000e+00 -5.3715012068944157e-01 +7.3618970233398651e+00 -7.6105924675646663e-01 -1.9342687215576252e+01 +4.9352438994960849e+03 -7.1717503551217567e+04 -2.1773056112241518e+07 
+1.8000000000000000e+00 -5.3715058113685599e-01 +7.3619368865701400e+00 -7.6095321072942679e-01 -1.9879319326112839e+01 +4.9548516702902971e+03 -6.9607909631749630e+04 -2.1946043781346545e+07 
+1.8999999999999999e+00 -5.3715106084020858e-01 +7.3619787447238023e+00 -7.5981823731722431e-01 -2.0476778061078523e+01 +4.9594322737213470e+03 -6.7151120874657616e+04 -2.2063623282100614e+07 
+2.0000000000000000e+00 -5.3715156084006410e-01 +7.3620226331175660e+00 -7.5761849891669597e-01 -2.1136207366934258e+01 +4.9482454000499220e+03 -6.4337079865120766e+04 -2.2122212683951803e+07 
+2.1000000000000001e+00 -5.3715208179722584e-01 +7.3620685193963045e+00 -7.5433798667332486e-01 -2.1856930108218251e+01 +4.9208651800697025e+03 -6.1166073670008554e+04 -2.2119527891699623e+07 
+2.2000000000000002e+00 -5.3715262284845178e-01 +7.3621161000014670e+00 -7.5003981575484213e-01 -2.2630998257280567e+01 +4.8781143636145325e+03 -5.7679830518650255e+04 -2.2058412529550072e+07 
+2.2999999999999998e+00 -5.3715318274797552e-01 +7.3621650034213548e+00 -7.4480684984320400e-01 -2.3448648557669117e+01 +4.8211256833696862e+03 -5.3930460585574729e+04 -2.1942976668279391e+07 
+2.3999999999999999e+00 -5.3715376025008210e-01 +7.3622148581504216e+00 -7.3872195250802997e-01 -2.4300117900773639e+01 +4.7510318648368739e+03 -4.9970073279387943e+04 -2.1777330326829318e+07 
+2.5000000000000000e+00 -5.3715435410898094e-01 +7.3622652926799690e+00 -7.3186798946071496e-01 -2.5175643057109735e+01 +4.6689656654314249e+03 -4.5850778807990107e+04 -2.1565583647276413e+07 
+2.6000000000000001e+00 -5.3715496307885002e-01 +7.3623159355091747e+00 -7.2432782946621443e-01 -2.6065460994459780e+01 +4.5760598904851176e+03 -4.1624686336693492e+04 -2.1311846966729201e+07 
+2.7000000000000002e+00 -5.3715558591394907e-01 +7.3623664151393591e+00 -7.1618434406526132e-01 -2.6959808724972564e+01 +4.4734473909570979e+03 -3.7343904857414382e+04 -2.1020230813337270e+07 
+2.7999999999999998e+00 -5.3715622136836572e-01 +7.3624163600761818e+00 -7.0752040527284843e-01 -2.7848923333912616e+01 +4.3622610130537414e+03 -3.3060543116416658e+04 -2.0694845647069070e+07 
+2.8999999999999999e+00 -5.3715686819625363e-01 +7.3624653988332422e+00 -6.9841889285688796e-01 -2.8723042113410919e+01 +4.2436337411583891e+03 -2.8826708774474810e+04 -2.0339802552793760e+07 
+3.0000000000000000e+00 -5.3715752515168891e-01 +7.3625131599349798e+00 -6.8896268526458271e-01 -2.9572402621297062e+01 +4.1186985200713243e+03 -2.4694508138796122e+04 -1.9959212377543926e+07 
+3.1000000000000001e+00 -5.3715819098871287e-01 +7.3625592719039901e+00 -6.7923466768120877e-01 -3.0387242322382718e+01 +3.9885884098403617e+03 -2.0716048224150643e+04 -1.9557186472526584e+07 
+3.2000000000000002e+00 -5.3715886446137484e-01 +7.3626033632794767e+00 -6.6931772731489803e-01 -3.1157799119453340e+01 +3.8544364973055613e+03 -1.6943433698603279e+04 -1.9137836271392465e+07 
+3.2999999999999998e+00 -5.3715954432356894e-01 +7.3626450626053677e+00 -6.5929475852139774e-01 -3.1874311006416796e+01 +3.7173759850505894e+03 -1.3428768899115885e+04 -1.8705273694480225e+07 
+3.3999999999999999e+00 -5.3716022932930674e-01 +7.3626839984406489e+00 -6.4924865757618977e-01 -3.2527016356468060e+01 +3.5785400992905516e+03 -1.0224156217151478e+04 -1.8263610724261381e+07 
+3.5000000000000000e+00 -5.3716091823238399e-01 +7.3627197993512610e+00 -6.3926232618326506e-01 -3.3106153699776847e+01 +3.4390621518426592e+03 -7.3816973425301112e+03 -1.7816959690095808e+07 
+3.6000000000000001e+00 -5.3716160978666361e-01 +7.3627520939136444e+00 -6.2941867312713062e-01 -3.3601961807919942e+01 +3.3000755705776533e+03 -4.9534928436858036e+03 -1.7369433407332003e+07 
+3.7000000000000002e+00 -5.3716230274588528e-01 +7.3627805107255035e+00 -6.1980061148600585e-01 -3.4004680020259492e+01 +3.1627138471310759e+03 -2.9916402424195549e+03 -1.6925144930912063e+07 
+3.7999999999999998e+00 -5.3716299586376959e-01 +7.3628046783895282e+00 -6.1049105887396082e-01 -3.4304547752184625e+01 +3.0281105401453924e+03 -1.5482369232771439e+03 -1.6488207565223234e+07 
+3.8999999999999999e+00 -5.3716368789394731e-01 +7.3628242255277589e+00 -6.0157294216274992e-01 -3.4491804917977021e+01 +2.8973993595322759e+03 -6.7537767513813321e+02 -1.6062735249754384e+07 
+4.0000000000000000e+00 -5.3716437759003222e-01 +7.3628387807734690e+00 -5.9312919293403621e-01 -3.4556691696809033e+01 +2.7717140882098988e+03 -4.2515605422038163e+02 -1.5652842208195312e+07 
+4.0999999999999996e+00 -5.3716506389031693e-01 +7.3628480767920772e+00 -5.8522600228548161e-01 -3.4492096221151456e+01 +2.6519481112269450e+03 -8.3591940316178454e+02 -1.5261661602375625e+07 
+4.2000000000000002e+00 -5.3716574648237136e-01 +7.3628522605145736e+00 -5.7786397497398301e-01 -3.4301530675384988e+01 +2.5380761606569804e+03 -1.8908404569896409e+03 -1.4888632762844900e+07 
+4.2999999999999998e+00 -5.3716642524358815e-01 +7.3628515821143248e+00 -5.7102765477387218e-01 -3.3991175824097922e+01 +2.4298539779385951e+03 -3.5592275099864878e+03 -1.4532328860718654e+07 
+4.4000000000000004e+00 -5.3716710005147972e-01 +7.3628462917728470e+00 -5.6470158498512135e-01 -3.3567212691016479e+01 +2.3270373022190061e+03 -5.8103874653509865e+03 -1.4191323072573289e+07 
+4.5000000000000000e+00 -5.3716777078345990e-01 +7.3628366396737022e+00 -5.5887031082795002e-01 -3.3035822347831015e+01 +2.2293819147890845e+03 -8.6136271502303935e+03 -1.3864188797027102e+07 
+4.5999999999999996e+00 -5.3716843731699981e-01 +7.3628228760037979e+00 -5.5351837453114106e-01 -3.2403185986012332e+01 +2.1366435468610048e+03 -1.1938252815229034e+04 -1.3549499213948125e+07 
+4.7000000000000002e+00 -5.3716909952961645e-01 +7.3628052509553985e+00 -5.4863031647983784e-01 -3.1675484958809047e+01 +2.0485779048104087e+03 -1.5753569948375900e+04 -1.3245827417491533e+07 
+4.7999999999999998e+00 -5.3716975729876670e-01 +7.3627840147261239e+00 -5.4419067847093372e-01 -3.0858900788437939e+01 +1.9649407302662355e+03 -2.0028883213475827e+04 -1.2951746696015276e+07 
+4.9000000000000004e+00 -5.3717041050196945e-01 +7.3627594175157869e+00 -5.4018399828444152e-01 -2.9959615082268595e+01 +1.8854876966562233e+03 -2.4733496928611326e+04 -1.2665830040236492e+07 
+5.0000000000000000e+00 -5.3717105901675610e-01 +7.3627317095291387e+00 -5.3659481296517675e-01 -2.8983809599468739e+01 +1.8099744756191715e+03 -2.9836714716215080e+04 -1.2386650471321667e+07 
+5.0999999999999996e+00 -5.3717170272069648e-01 +7.3627011409742922e+00 -5.3340765885607933e-01 -2.7937666219882832e+01 +1.7381567365193887e+03 -3.5307839658052602e+04 -1.2112781033755919e+07 
+5.2000000000000002e+00 -5.3717234149134852e-01 +7.3626679620689339e+00 -5.3060706777275035e-01 -2.6827367128187408e+01 +1.6697900747563949e+03 -4.1116173226802799e+04 -1.1842794460225800e+07 
+5.2999999999999998e+00 -5.3717297520628382e-01 +7.3626324230263931e+00 -5.2817757400870224e-01 -2.5659094397757944e+01 +1.6046301454091235e+03 -4.7231017727444014e+04 -1.1575263807190800e+07 
+5.4000000000000004e+00 -5.3717360374316880e-01 +7.3625947740732807e+00 -5.2610370466184964e-01 -2.4439030513290042e+01 +1.5424324834017391e+03 -5.3621673258828618e+04 -1.1308761611247573e+07 
+5.5000000000000000e+00 -5.3717422697958728e-01 +7.3625552654345316e+00 -5.2436998730218431e-01 -2.3173357946856630e+01 +1.4829526426311193e+03 -6.0257440141553852e+04 -1.1041860534616746e+07 
+5.5999999999999996e+00 -5.3717484479329802e-01 +7.3625141473417628e+00 -5.2296094588381881e-01 -2.1868259382446304e+01 +1.4259461270528057e+03 -6.7107617681782998e+04 -1.0773133059973300e+07 
+5.7000000000000002e+00 -5.3717545706191838e-01 +7.3624716700330168e+00 -5.2186110290237919e-01 -2.0529917732076157e+01 +1.3711684288116157e+03 -7.4141504015187209e+04 -1.0501151665806696e+07 
+5.7999999999999998e+00 -5.3717606366324400e-01 +7.3624280837480800e+00 -5.2105497643267296e-01 -1.9164515984803213e+01 +1.3183749717391058e+03 -8.1328397033393529e+04 -1.0224488555910366e+07 
+5.9000000000000004e+00 -5.3717666447499035e-01 +7.3623836387323358e+00 -5.2052708228615363e-01 -1.7778237327007187e+01 +1.2673211565264123e+03 -8.8637593673560012e+04 -9.9417158884573802e+06 
+5.9999999999999902e+00 -5.3717725937503580e-01 +7.3623385852349781e+00 -5.2026193412212074e-01 -1.6377265092789852e+01 +1.2177623616731355e+03 -9.6038390233185128e+04 -9.6514057781202253e+06 
+6.0999999999999899e+00 -5.3717784836096183e-01 +7.3622931456318552e+00 -5.2024648126871298e-01 -1.4967168667196852e+01 +1.1695614869065773e+03 -1.0350292037104437e+05 -9.3528867380675953e+06 
+6.1999999999999904e+00 -5.3717843190942494e-01 +7.3622474436956935e+00 -5.2047640959233543e-01 -1.3551454999458551e+01 +1.1229897413868953e+03 -1.1101168397781560e+05 -9.0484185338417478e+06 
+6.2999999999999901e+00 -5.3717901061690410e-01 +7.3622015817233306e+00 -5.2094934117497560e-01 -1.2133213204365342e+01 +1.0784153849003069e+03 -1.1854652286208491e+05 -8.7409748837324698e+06 
+6.3999999999999897e+00 -5.3717958507989871e-01 +7.3621556619978143e+00 -5.2166289253905651e-01 -1.0715532109623091e+01 +1.0362065790207341e+03 -1.2608927991853488e+05 -8.4335290725050420e+06 
+6.4999999999999902e+00 -5.3718015589488211e-01 +7.3621097867963394e+00 -5.2261467677549922e-01 -9.3015004857613590e+00 +9.9673142248764509e+02 -1.3362179783427980e+05 -8.1290540998572307e+06 
+6.5999999999999899e+00 -5.3718072365843528e-01 +7.3620640583867472e+00 -5.2380230663441618e-01 -7.8942069338125416e+00 +9.6035800932188351e+02 -1.4112591975520545e+05 -7.8305229571162332e+06 
+6.6999999999999904e+00 -5.3718128896709516e-01 +7.3620185790294572e+00 -5.2522339040342925e-01 -6.4967399631926295e+00 +9.2745435220453578e+02 -1.4858348876615078e+05 -7.5409082661989573e+06 
+6.7999999999999901e+00 -5.3718185241746785e-01 +7.3619734509741761e+00 -5.2687553114129548e-01 -5.1121878845721795e+00 +8.9838836874947162e+02 -1.5597634852149975e+05 -7.2631822179563530e+06 
+6.8999999999999897e+00 -5.3718241460616767e-01 +7.3619287764568284e+00 -5.2875633039009229e-01 -3.7436387370270063e+00 +8.7352794796539831e+02 -1.6328634362587659e+05 -7.0003168777252007e+06 
+6.9999999999999902e+00 -5.3718297612986332e-01 +7.3618846577086758e+00 -5.3086338660589538e-01 -2.3941805541831385e+00 +8.5324092570804180e+02 -1.7049531805857809e+05 -6.7552840811445573e+06 
+7.0999999999999899e+00 -5.3718353758522441e-01 +7.3618411969461555e+00 -5.3319429133795604e-01 -1.0669010699990575e+00 +8.3789501041649385e+02 -1.7758511687290884e+05 -6.5310550799838277e+06 
+7.1999999999999904e+00 -5.3718409956893198e-01 +7.3617984963749201e+00 -5.3574663771657660e-01 +2.3511215824710449e-01 +8.2785794191043328e+02 -1.8453758545186269e+05 -6.3306012881917264e+06 
+7.2999999999999901e+00 -5.3718466267777387e-01 +7.3617566581874367e+00 -5.3851800899057867e-01 +1.5087718146402891e+00 +8.2349727662334681e+02 -1.9133456985885144e+05 -6.1568932707573147e+06 
+7.3999999999999897e+00 -5.3718522750845699e-01 +7.3617157845678340e+00 -5.4150598844737652e-01 +2.7509906808891880e+00 +8.2518057514204202e+02 -1.9795791598014970e+05 -6.0129016318304045e+06 
+7.4999999999999902e+00 -5.3718579465788152e-01 +7.3616759776808625e+00 -5.4470815162404418e-01 +3.9586819518840692e+00 +8.3327525351695101e+02 -2.0438947133097082e+05 -5.9015963074994124e+06 
+7.5999999999999899e+00 -5.3718636472277848e-01 +7.3616373396837087e+00 -5.4812207532411872e-01 +5.1287588857989093e+00 +8.4814875701319943e+02 -2.1061108299224204e+05 -5.8259473983035646e+06 
+7.6999999999999904e+00 -5.3718693830008113e-01 +7.3615999727179222e+00 -5.5174532451366098e-01 +6.2581350431255576e+00 +8.7016831008533291e+02 -2.1660459900097246e+05 -5.7889239771568449e+06 
+7.7999999999999901e+00 -5.3718751598671033e-01 +7.3615639789071281e+00 -5.5557546493640819e-01 +7.3437243323518713e+00 +8.9970115168653820e+02 -2.2235186853849629e+05 -5.7934951985560423e+06 
+7.8999999999999897e+00 -5.3718809837957981e-01 +7.3615294603663184e+00 -5.5961005714625534e-01 +8.3824407605536795e+00 +9.3711443051399601e+02 -2.2783474053117167e+05 -5.8426298220463749e+06 
+7.9999999999999902e+00 -5.3718868607571313e-01 +7.3614965191912560e+00 -5.6384665401914857e-01 +9.3711987014060956e+00 +9.8277514801426275e+02 -2.3303506507942823e+05 -5.9392959143911274e+06 
+8.0999999999999908e+00 -5.3718927951075923e-01 +7.3614652594531051e+00 -5.6828235844559682e-01 +1.0307008091632795e+01 +1.0369220180946036e+03 -2.3793538853737738e+05 -6.0855693396404190e+06 
+8.1999999999999904e+00 -5.3718987847216482e-01 +7.3614357714763825e+00 -5.7291287042919714e-01 +1.1188022645653113e+01 +1.0992789664462905e+03 -2.4252570263016445e+05 -6.2799304647824112e+06 
+8.2999999999999901e+00 -5.3719048258425672e-01 +7.3614081366846431e+00 -5.7773359304846539e-01 +1.2012876032183668e+01 +1.1694388166147933e+03 -2.4679904687324827e+05 -6.5199413134706011e+06 
+8.3999999999999897e+00 -5.3719109147142186e-01 +7.3613824365050915e+00 -5.8273992657987739e-01 +1.2780201959381678e+01 +1.2469943456002848e+03 -2.5074846135993281e+05 -6.8031637112621320e+06 
+8.4999999999999893e+00 -5.3719170475808165e-01 +7.3613587523658266e+00 -5.8792727111011089e-01 +1.3488634243426070e+01 +1.3315383332531012e+03 -2.5436698714634986e+05 -7.1271595198184820e+06 
+8.5999999999999908e+00 -5.3719232206868106e-01 +7.3613371657028104e+00 -5.9329101797438355e-01 +1.4136806614880713e+01 +1.4226633971701449e+03 -2.5764766515462758e+05 -7.4894898439910971e+06 
+8.6999999999999904e+00 -5.3719294302765308e-01 +7.3613177579557032e+00 -5.9882656417778746e-01 +1.4723352825933379e+01 +1.5199622673679712e+03 -2.6058353675541826e+05 -7.8877163411227176e+06 
+8.7999999999999794e+00 -5.3719356725951317e-01 +7.3613006105714698e+00 -6.0452929803798849e-01 +1.5246906580325506e+01 +1.6230275207658256e+03 -2.6316764345809806e+05 -8.3193999781690966e+06 
+8.8999999999999808e+00 -5.3719419438883209e-01 +7.3612858049991168e+00 -6.1039460489540853e-01 +1.5706101662640691e+01 +1.7314516792701677e+03 -2.6539302759162954e+05 -8.7821014680420533e+06 
+8.9999999999999805e+00 -5.3719482404013197e-01 +7.3612734226978702e+00 -6.1641787074042342e-01 +1.6099571730734475e+01 +1.8448272853756080e+03 -2.6725273119467264e+05 -9.2733816497319415e+06 
+9.0999999999999801e+00 -5.3719545583802253e-01 +7.3612635451272919e+00 -6.2259447496002673e-01 +1.6425950582745585e+01 +1.9627467626000885e+03 -2.6873979749576910e+05 -9.7908008188864347e+06 
+9.1999999999999797e+00 -5.3719608940712504e-01 +7.3612562537579391e+00 -6.2891979680277632e-01 +1.6683871875230622e+01 +2.0848025404463019e+03 -2.6984726936366322e+05 -1.0331919328698585e+07 
+9.2999999999999794e+00 -5.3719672437213861e-01 +7.3612516300627080e+00 -6.3538921038733109e-01 +1.6871969368748793e+01 +2.2105869559759140e+03 -2.7056819070935331e+05 -1.0894297109096371e+07 
+9.3999999999999808e+00 -5.3719736035772669e-01 +7.3612497555239456e+00 -6.4199808842883910e-01 +1.6988876717681968e+01 +2.3396923266385411e+03 -2.7089560526449024e+05 -1.1475494022572841e+07 
+9.4999999999999805e+00 -5.3719799698864146e-01 +7.3612507116273331e+00 -6.4874179761838990e-01 +1.7033227678138445e+01 +2.4717108644010800e+03 -2.7082255786596920e+05 -1.2073069459075958e+07 
+9.5999999999999801e+00 -5.3719863388963962e-01 +7.3612545798679170e+00 -6.5561570505806321e-01 +1.7003655910694288e+01 +2.6062347961520009e+03 -2.7034209325236577e+05 -1.2684582903773863e+07 
+9.6999999999999797e+00 -5.3719927068555251e-01 +7.3612614417462687e+00 -6.6261517307462836e-01 +1.6898795114286418e+01 +2.7428562629996622e+03 -2.6944725689881045e+05 -1.3307593451742301e+07 
+9.7999999999999794e+00 -5.3719990700120712e-01 +7.3612713787734254e+00 -6.6973555942879126e-01 +1.6717278880710566e+01 +2.8811673300630819e+03 -2.6813109417892725e+05 -1.3939659872018469e+07 
+9.8999999999999808e+00 -5.3720054246146920e-01 +7.3612844724619322e+00 -6.7697222161005788e-01 +1.6457740963659493e+01 +3.0207600635138610e+03 -2.6638665193041740e+05 -1.4578340959621301e+07 
+9.9999999999999805e+00 -5.3720117669129153e-01 +7.3613008043332364e+00 -6.8432051111207359e-01 +1.6118815071517645e+01 +3.1612264275985463e+03 -2.6420697722767503e+05 -1.5221195058920309e+07 
+1.0100000000000000e+01 -5.3720180944153673e-01 +7.3613204008438728e+00 -6.9177097123998132e-01 +1.5700443167393344e+01 +3.3021442819936628e+03 -2.6159223653322220e+05 -1.5865826602790283e+07 
