# field on trajectory
# s[mm] rx[mm] ry[mm] rz[mm] bx[T] by[T] bz[T]
0.0000000000000000e+00 +7.9199999999999999e+00 +0.0000000000000000e+00 +0.0000000000000000e+00 -3.1562219518765304e-02 -5.9466349311970956e-01 +5.9531532328107335e-03
-1.0000000000000001e-01 +7.9199997168430256e+00 +0.0000000000000000e+00 -9.9999999999465489e-02 -3.1562191531576002e-02 -5.9466345627356387e-01 +5.9532287257942013e-03
-2.0000000000000001e-01 +7.9199988673721249e+00 +0.0000000000000000e+00 -1.9999999999572385e-01 -3.1562157937899994e-02 -5.9466342424226093e-01 +5.9533043137835169e-03
-3.0000000000000004e-01 +7.9199974515873279e+00 +0.0000000000000000e+00 -2.9999999998556798e-01 -3.1562119623897003e-02 -5.9466339679239866e-01 +5.9533801050603548e-03
-4.0000000000000002e-01 +7.9199954694886614e+00 +0.0000000000000000e+00 -3.9999999996579078e-01 -3.1562077475721657e-02 -5.9466337369056443e-01 +5.9534562079063868e-03
-5.0000000000000000e-01 +7.9199929210761475e+00 +0.0000000000000000e+00 -4.9999999993318511e-01 -3.1562032379525408e-02 -5.9466335470333642e-01 +5.9535327306031562e-03
-5.9999999999999998e-01 +7.9199898063498040e+00 +0.0000000000000000e+00 -5.9999999988454389e-01 -3.1561985221458359e-02 -5.9466333959728535e-01 +5.9536097814319126e-03
-6.9999999999999996e-01 +7.9199861253096451e+00 +0.0000000000000000e+00 -6.9999999981665995e-01 -3.1561936887671276e-02 -5.9466332813897582e-01 +5.9536874686734621e-03
-7.9999999999999993e-01 +7.9199818779556823e+00 +0.0000000000000000e+00 -7.9999999972632629e-01 -3.1561888264317370e-02 -5.9466332009496814e-01 +5.9537659006080341e-03
-8.9999999999999991e-01 +7.9199770642879237e+00 +0.0000000000000000e+00 -8.9999999961033572e-01 -3.1561840237554255e-02 -5.9466331523182037e-01 +5.9538451855151086e-03
-9.9999999999999989e-01 +7.9199716843063737e+00 +0.0000000000000000e+00 -9.9999999946548113e-01 -3.1561793693545850e-02 -5.9466331331608902e-01 +5.9539254316732897e-03
-1.0999999999999999e+00 +7.9199657380110349e+00 +0.0000000000000000e+00 -1.0999999992885554e+00 -3.1561749518464272e-02 -5.9466331411433215e-01 +5.9540067473601455e-03
-1.2000000000000000e+00 +7.9199592254019056e+00 +0.0000000000000000e+00 -1.1999999990763515e+00 -3.1561708598491701e-02 -5.9466331739310996e-01 +5.9540892408520615e-03
-1.3000000000000000e+00 +7.9199521464789839e+00 +0.0000000000000000e+00 -1.2999999988256621e+00 -3.1561671819822328e-02 -5.9466332291898638e-01 +5.9541730204240931e-03
-1.4000000000000001e+00 +7.9199445012422647e+00 +0.0000000000000000e+00 -1.3999999985332803e+00 -3.1561640068664215e-02 -5.9466333045853192e-01 +5.9542581943498119e-03
-1.5000000000000002e+00 +7.9199362896917407e+00 +0.0000000000000000e+00 -1.4999999981959988e+00 -3.1561614231241181e-02 -5.9466333977832364e-01 +5.9543448709011605e-03
-1.6000000000000003e+00 +7.9199275118274031e+00 +0.0000000000000000e+00 -1.5999999978106108e+00 -3.1561595193794770e-02 -5.9466335064494824e-01 +5.9544331583483061e-03
-1.7000000000000004e+00 +7.9199181676492421e+00 +0.0000000000000000e+00 -1.6999999973739088e+00 -3.1561583842586095e-02 -5.9466336282500343e-01 +5.9545231649594885e-03
-1.8000000000000005e+00 +7.9199082571572470e+00 +0.0000000000000000e+00 -1.7999999968826859e+00 -3.1561581063897733e-02 -5.9466337608509900e-01 +5.9546149990008755e-03
-1.9000000000000006e+00 +7.9198977803514046e+00 +0.0000000000000000e+00 -1.8999999963337348e+00 -3.1561587744035613e-02 -5.9466339019185877e-01 +5.9547087687363961e-03
-2.0000000000000004e+00 +7.9198867372317023e+00 +0.0000000000000000e+00 -1.9999999957238488e+00 -3.1561604769331016e-02 -5.9466340491192304e-01 +5.9548045824276219e-03
-2.1000000000000005e+00 +7.9198751277981270e+00 +0.0000000000000000e+00 -2.0999999950498203e+00 -3.1561632718827004e-02 -5.9466342026736452e-01 +5.9549025042551626e-03
-2.2000000000000006e+00 +7.9198629520506634e+00 +0.0000000000000000e+00 -2.1999999943084427e+00 -3.1561670942322644e-02 -5.9466343730193005e-01 +5.9550024220842027e-03
-2.3000000000000007e+00 +7.9198502099892956e+00 +0.0000000000000000e+00 -2.2999999934965083e+00 -3.1561718482298710e-02 -5.9466345731477732e-01 +5.9551041797015524e-03
-2.4000000000000008e+00 +7.9198369016140058e+00 +0.0000000000000000e+00 -2.3999999926108102e+00 -3.1561774381228203e-02 -5.9466348160505489e-01 +5.9552076208945074e-03
-2.5000000000000009e+00 +7.9198230269247700e+00 +0.0000000000000000e+00 -2.4999999916481417e+00 -3.1561837681574161e-02 -5.9466351147190288e-01 +5.9553125894510565e-03
-2.6000000000000010e+00 +7.9198085859215608e+00 +0.0000000000000000e+00 -2.5999999906052951e+00 -3.1561907425787530e-02 -5.9466354821444900e-01 +5.9554189291600671e-03
-2.7000000000000011e+00 +7.9197935786043434e+00 +0.0000000000000000e+00 -2.6999999894790636e+00 -3.1561982656305006e-02 -5.9466359313180917e-01 +5.9555264838114979e-03
-2.8000000000000012e+00 +7.9197780049730753e+00 +0.0000000000000000e+00 -2.7999999882662401e+00 -3.1562062415546786e-02 -5.9466364752308509e-01 +5.9556350971965788e-03
-2.9000000000000012e+00 +7.9197618650277057e+00 +0.0000000000000000e+00 -2.8999999869636173e+00 -3.1562145745914524e-02 -5.9466371268736296e-01 +5.9557446131080181e-03
-3.0000000000000013e+00 +7.9197451587681726e+00 +0.0000000000000000e+00 -2.9999999855679880e+00 -3.1562231689789041e-02 -5.9466378992371249e-01 +5.9558548753402074e-03
-3.1000000000000014e+00 +7.9197278861944023e+00 +0.0000000000000000e+00 -3.0999999840761454e+00 -3.1562319289528289e-02 -5.9466388053118491e-01 +5.9559657276893972e-03
-3.2000000000000015e+00 +7.9197100473063093e+00 +0.0000000000000000e+00 -3.1999999824848819e+00 -3.1562407587465015e-02 -5.9466398580881152e-01 +5.9560770139539133e-03
-3.3000000000000016e+00 +7.9196916421037944e+00 +0.0000000000000000e+00 -3.2999999807909908e+00 -3.1562495625904796e-02 -5.9466410705560380e-01 +5.9561885779343474e-03
-3.4000000000000017e+00 +7.9196726705867420e+00 +0.0000000000000000e+00 -3.3999999789912647e+00 -3.1562582447123726e-02 -5.9466424557054964e-01 +5.9563002634337586e-03
-3.5000000000000018e+00 +7.9196531327550206e+00 +0.0000000000000000e+00 -3.4999999770824965e+00 -3.1562667093366262e-02 -5.9466440265261322e-01 +5.9564119142578604e-03
-3.6000000000000019e+00 +7.9196330286084820e+00 +0.0000000000000000e+00 -3.5999999750614795e+00 -3.1562748606843105e-02 -5.9466457960073382e-01 +5.9565233742152274e-03
-3.7000000000000020e+00 +7.9196123581469573e+00 +0.0000000000000000e+00 -3.6999999729250059e+00 -3.1562826029729048e-02 -5.9466477771382431e-01 +5.9566344871174936e-03
-3.8000000000000020e+00 +7.9195911213702583e+00 +0.0000000000000000e+00 -3.7999999706698691e+00 -3.1562898404160725e-02 -5.9466499829076902e-01 +5.9567450967795447e-03
-3.9000000000000021e+00 +7.9195693182781763e+00 +0.0000000000000000e+00 -3.8999999682928612e+00 -3.1562964772234504e-02 -5.9466524263042275e-01 +5.9568550470197202e-03
-4.0000000000000018e+00 +7.9195469488704786e+00 +0.0000000000000000e+00 -3.9999999657907757e+00 -3.1563024176004324e-02 -5.9466551203160978e-01 +5.9569641816599999e-03
-4.1000000000000014e+00 +7.9195240131469102e+00 +0.0000000000000000e+00 -4.0999999631604052e+00 -3.1563075833151030e-02 -5.9466580718942041e-01 +5.9570724109646051e-03
-4.2000000000000011e+00 +7.9195005111071897e+00 +0.0000000000000000e+00 -4.1999999603985421e+00 -3.1563119664016467e-02 -5.9466612638412164e-01 +5.9571799109535356e-03
-4.3000000000000007e+00 +7.9194764427510149e+00 +0.0000000000000000e+00 -4.2999999575019796e+00 -3.1563155764624276e-02 -5.9466646729229611e-01 +5.9572869240836802e-03
-4.4000000000000004e+00 +7.9194518080780618e+00 +0.0000000000000000e+00 -4.3999999544675106e+00 -3.1563184231014674e-02 -5.9466682759055167e-01 +5.9573936928096266e-03
-4.5000000000000000e+00 +7.9194266070879884e+00 +0.0000000000000000e+00 -4.4999999512919278e+00 -3.1563205159246009e-02 -5.9466720495552361e-01 +5.9575004595834825e-03
-4.5999999999999996e+00 +7.9194008397804359e+00 +0.0000000000000000e+00 -4.5999999479720231e+00 -3.1563218645396338e-02 -5.9466759706387573e-01 +5.9576074668546940e-03
-4.6999999999999993e+00 +7.9193745061550320e+00 +0.0000000000000000e+00 -4.6999999445045901e+00 -3.1563224785565079e-02 -5.9466800159230337e-01 +5.9577149570698689e-03
-4.7999999999999989e+00 +7.9193476062113923e+00 +0.0000000000000000e+00 -4.7999999408864218e+00 -3.1563223675874490e-02 -5.9466841621753475e-01 +5.9578231726726046e-03
-4.8999999999999986e+00 +7.9193201399491233e+00 +0.0000000000000000e+00 -4.8999999371143099e+00 -3.1563215412471396e-02 -5.9466883861633346e-01 +5.9579323561033022e-03
-4.9999999999999982e+00 +7.9192921073678244e+00 +0.0000000000000000e+00 -4.9999999331850482e+00 -3.1563200091528680e-02 -5.9466926646549945e-01 +5.9580427497989896e-03
-5.0999999999999979e+00 +7.9192635084670888e+00 +0.0000000000000000e+00 -5.0999999290954285e+00 -3.1563177809246938e-02 -5.9466969744187281e-01 +5.9581545961931489e-03
-5.1999999999999975e+00 +7.9192343432465071e+00 +0.0000000000000000e+00 -5.1999999248422446e+00 -3.1563148661856055e-02 -5.9467012922233420e-01 +5.9582681377155378e-03
-5.2999999999999972e+00 +7.9192046117056689e+00 +0.0000000000000000e+00 -5.2999999204222883e+00 -3.1563112745616767e-02 -5.9467055948380687e-01 +5.9583836167920005e-03
-5.3999999999999968e+00 +7.9191743138441657e+00 +0.0000000000000000e+00 -5.3999999158323524e+00 -3.1563070156822283e-02 -5.9467098590326006e-01 +5.9585012758443063e-03
-5.4999999999999964e+00 +7.9191434496615924e+00 +0.0000000000000000e+00 -5.4999999110692297e+00 -3.1563020991799910e-02 -5.9467140615770997e-01 +5.9586213572899527e-03
-5.5999999999999961e+00 +7.9191120191575504e+00 +0.0000000000000000e+00 -5.5999999061297130e+00 -3.1562965346912601e-02 -5.9467181792422119e-01 +5.9587441035420111e-03
-5.6999999999999957e+00 +7.9190800223316486e+00 +0.0000000000000000e+00 -5.6999999010105951e+00 -3.1562903318560563e-02 -5.9467221887991017e-01 +5.9588697570089194e-03
-5.7999999999999954e+00 +7.9190474591835063e+00 +0.0000000000000000e+00 -5.7999998957086678e+00 -3.1562835003182819e-02 -5.9467260670194588e-01 +5.9589985600943260e-03
-5.8999999999999950e+00 +7.9190143297127555e+00 +0.0000000000000000e+00 -5.8999998902207249e+00 -3.1562760497258931e-02 -5.9467297906755301e-01 +5.9591307551969050e-03
-5.9999999999999947e+00 +7.9189806339190429e+00 +0.0000000000000000e+00 -5.9999998845435583e+00 -3.1562679897310410e-02 -5.9467333365401320e-01 +5.9592665847101704e-03
-6.0999999999999943e+00 +7.9189463718020319e+00 +0.0000000000000000e+00 -6.0999998786739615e+00 -3.1562593465866623e-02 -5.9467366872871941e-01 +5.9594062127474043e-03
-6.1999999999999940e+00 +7.9189115433614043e+00 +0.0000000000000000e+00 -6.1999998726087266e+00 -3.1562502129345513e-02 -5.9467398491932810e-01 +5.9595494903190698e-03
-6.2999999999999936e+00 +7.9188761485968611e+00 +0.0000000000000000e+00 -6.2999998663446464e+00 -3.1562406980133406e-02 -5.9467428344357520e-01 +5.9596961901640802e-03
-6.3999999999999932e+00 +7.9188401875081178e+00 +0.0000000000000000e+00 -6.3999998598785126e+00 -3.1562309110615597e-02 -5.9467456551921660e-01 +5.9598460850262972e-03
-6.4999999999999929e+00 +7.9188036600949072e+00 +0.0000000000000000e+00 -6.4999998532071190e+00 -3.1562209613176052e-02 -5.9467483236402696e-01 +5.9599989476547795e-03
-6.5999999999999925e+00 +7.9187665663569762e+00 +0.0000000000000000e+00 -6.5999998463272584e+00 -3.1562109580197090e-02 -5.9467508519580170e-01 +5.9601545508040201e-03
-6.6999999999999922e+00 +7.9187289062940849e+00 +0.0000000000000000e+00 -6.6999998392357227e+00 -3.1562010104059006e-02 -5.9467532523235611e-01 +5.9603126672341817e-03
-6.7999999999999918e+00 +7.9186906799060059e+00 +0.0000000000000000e+00 -6.7999998319293047e+00 -3.1561912277139892e-02 -5.9467555369152647e-01 +5.9604730697113469e-03
-6.8999999999999915e+00 +7.9186518871925236e+00 +0.0000000000000000e+00 -6.8999998244047980e+00 -3.1561817191815229e-02 -5.9467577179116970e-01 +5.9606355310077444e-03
-6.9999999999999911e+00 +7.9186125281534299e+00 +0.0000000000000000e+00 -6.9999998166589945e+00 -3.1561725940457572e-02 -5.9467598074916395e-01 +5.9607998239019997e-03
-7.0999999999999908e+00 +7.9185726027885286e+00 +0.0000000000000000e+00 -7.0999998086886871e+00 -3.1561639615436288e-02 -5.9467618178340820e-01 +5.9609657211793631e-03
-7.1999999999999904e+00 +7.9185321110976279e+00 +0.0000000000000000e+00 -7.1999998004906676e+00 -3.1561559309117172e-02 -5.9467637611182378e-01 +5.9611329956319545e-03
-7.2999999999999901e+00 +7.9184910530805448e+00 +0.0000000000000000e+00 -7.2999997920617297e+00 -3.1561486113862197e-02 -5.9467656495235310e-01 +5.9613014200590097e-03
-7.3999999999999897e+00 +7.9184494287371008e+00 +0.0000000000000000e+00 -7.3999997833986662e+00 -3.1561421122029198e-02 -5.9467674952296146e-01 +5.9614707672671118e-03
-7.4999999999999893e+00 +7.9184072380671209e+00 +0.0000000000000000e+00 -7.4999997744982689e+00 -3.1561365425971495e-02 -5.9467693104163633e-01 +5.9616408100704290e-03
-7.5999999999999890e+00 +7.9183644810704337e+00 +0.0000000000000000e+00 -7.5999997653573308e+00 -3.1561320118037660e-02 -5.9467711072638774e-01 +5.9618113212909635e-03
-7.6999999999999886e+00 +7.9183211577468695e+00 +0.0000000000000000e+00 -7.6999997559726445e+00 -3.1561286290571110e-02 -5.9467728979524814e-01 +5.9619820737587832e-03
-7.7999999999999883e+00 +7.9182772680962596e+00 +0.0000000000000000e+00 -7.7999997463410029e+00 -3.1561265035909877e-02 -5.9467746946627464e-01 +5.9621528403122634e-03
-7.8999999999999879e+00 +7.9182328121184336e+00 +0.0000000000000000e+00 -7.8999997364591987e+00 -3.1561257446386215e-02 -5.9467765095754621e-01 +5.9623233937983319e-03
-7.9999999999999876e+00 +7.9181877898132198e+00 +0.0000000000000000e+00 -7.9999997263240248e+00 -3.1561264614326366e-02 -5.9467783548716635e-01 +5.9624935070727008e-03
-8.0999999999999872e+00 +7.9181422011804434e+00 +0.0000000000000000e+00 -8.0999997159322739e+00 -3.1561287265923804e-02 -5.9467802416895166e-01 +5.9626629870118582e-03
-8.1999999999999869e+00 +7.9180960462199268e+00 +0.0000000000000000e+00 -8.1999997052807370e+00 -3.1561324662841450e-02 -5.9467821769947427e-01 +5.9628317765447964e-03
-8.2999999999999865e+00 +7.9180493249314869e+00 +0.0000000000000000e+00 -8.2999996943662087e+00 -3.1561375700584544e-02 -5.9467841667095511e-01 +5.9629998526087753e-03
-8.3999999999999861e+00 +7.9180020373149365e+00 +0.0000000000000000e+00 -8.3999996831854808e+00 -3.1561439274630648e-02 -5.9467862167556851e-01 +5.9631671921356244e-03
-8.4999999999999858e+00 +7.9179541833700808e+00 +0.0000000000000000e+00 -8.4999996717353472e+00 -3.1561514280428568e-02 -5.9467883330544025e-01 +5.9633337720515307e-03
-8.5999999999999854e+00 +7.9179057630967202e+00 +0.0000000000000000e+00 -8.5999996600125979e+00 -3.1561599613397572e-02 -5.9467905215264738e-01 +5.9634995692768355e-03
-8.6999999999999851e+00 +7.9178567764946477e+00 +0.0000000000000000e+00 -8.6999996480140283e+00 -3.1561694168926395e-02 -5.9467927880921245e-01 +5.9636645607258169e-03
-8.7999999999999847e+00 +7.9178072235636492e+00 +0.0000000000000000e+00 -8.7999996357364285e+00 -3.1561796842372425e-02 -5.9467951386710660e-01 +5.9638287233065058e-03
-8.8999999999999844e+00 +7.9177571043035018e+00 +0.0000000000000000e+00 -8.8999996231765923e+00 -3.1561906529060706e-02 -5.9467975791824446e-01 +5.9639920339204485e-03
-8.9999999999999840e+00 +7.9177064187139754e+00 +0.0000000000000000e+00 -8.9999996103313133e+00 -3.1562022124283065e-02 -5.9468001155448291e-01 +5.9641544694625194e-03
-9.0999999999999837e+00 +7.9176551667948294e+00 +0.0000000000000000e+00 -9.0999995971973835e+00 -3.1562142523297212e-02 -5.9468027536762003e-01 +5.9643160068207036e-03
-9.1999999999999833e+00 +7.9176033485458142e+00 +0.0000000000000000e+00 -9.1999995837715947e+00 -3.1562266621325843e-02 -5.9468054994939212e-01 +5.9644766228758904e-03
-9.2999999999999829e+00 +7.9175509639666704e+00 +0.0000000000000000e+00 -9.2999995700507387e+00 -3.1562393313555731e-02 -5.9468083589147303e-01 +5.9646362945016780e-03
-9.3999999999999826e+00 +7.9174980130571271e+00 +0.0000000000000000e+00 -9.3999995560316094e+00 -3.1562521495136810e-02 -5.9468113378547227e-01 +5.9647949985641496e-03
-9.4999999999999822e+00 +7.9174444958169019e+00 +0.0000000000000000e+00 -9.4999995417110004e+00 -3.1562650061181238e-02 -5.9468144422293090e-01 +5.9649527119216674e-03
-9.5999999999999819e+00 +7.9173904122457008e+00 +0.0000000000000000e+00 -9.5999995270857017e+00 -3.1562777906762596e-02 -5.9468176779532378e-01 +5.9651094114246753e-03
-9.6999999999999815e+00 +7.9173357623432183e+00 +0.0000000000000000e+00 -9.6999995121525071e+00 -3.1562903926914861e-02 -5.9468210509405350e-01 +5.9652650739154822e-03
-9.7999999999999812e+00 +7.9172805461091338e+00 +0.0000000000000000e+00 -9.7999994969082103e+00 -3.1563027016631606e-02 -5.9468245671045172e-01 +5.9654196762280532e-03
-9.8999999999999808e+00 +7.9172247635431150e+00 +0.0000000000000000e+00 -9.8999994813496013e+00 -3.1563146070865036e-02 -5.9468282323577537e-01 +5.9655731951878174e-03
-9.9999999999999805e+00 +7.9171684146448138e+00 +0.0000000000000000e+00 -9.9999994654734738e+00 -3.1563259984525097e-02 -5.9468320526120544e-01 +5.9657256076114376e-03
-1.0099999999999980e+01 +7.9171114994138687e+00 +0.0000000000000000e+00 -1.0099999449276622e+01 -3.1563367869300592e-02 -5.9468360308196455e-01 +5.9658769048260103e-03
-1.0199999999999980e+01 +7.9170540178499023e+00 +0.0000000000000000e+00 -1.0199999432755835e+01 -3.1563469704168880e-02 -5.9468401580966146e-01 +5.9660271362327981e-03
-1.0299999999999979e+01 +7.9169959699525236e+00 +0.0000000000000000e+00 -1.0299999415907907e+01 -3.1563565684976751e-02 -5.9468444225996164e-01 +5.9661763657569682e-03
-1.0399999999999979e+01 +7.9169373557213287e+00 +0.0000000000000000e+00 -1.0399999398729632e+01 -3.1563656007620407e-02 -5.9468488124847929e-01 +5.9663246573290734e-03
-1.0499999999999979e+01 +7.9168781751559019e+00 +0.0000000000000000e+00 -1.0499999381217799e+01 -3.1563740868046801e-02 -5.9468533159077619e-01 +5.9664720748851940e-03
-1.0599999999999978e+01 +7.9168184282558158e+00 +0.0000000000000000e+00 -1.0599999363369204e+01 -3.1563820462254998e-02 -5.9468579210236083e-01 +5.9666186823670942e-03
-1.0699999999999978e+01 +7.9167581150206336e+00 +0.0000000000000000e+00 -1.0699999345180636e+01 -3.1563894986297469e-02 -5.9468626159868687e-01 +5.9667645437223660e-03
-1.0799999999999978e+01 +7.9166972354499112e+00 +0.0000000000000000e+00 -1.0799999326648891e+01 -3.1563964636281604e-02 -5.9468673889515344e-01 +5.9669097229045828e-03
-1.0899999999999977e+01 +7.9166357895431947e+00 +0.0000000000000000e+00 -1.0899999307770758e+01 -3.1564029608370847e-02 -5.9468722280710129e-01 +5.9670542838734441e-03
-1.0999999999999977e+01 +7.9165737773000266e+00 +0.0000000000000000e+00 -1.0999999288543030e+01 -3.1564090098786211e-02 -5.9468771214981542e-01 +5.9671982905949274e-03
-1.1099999999999977e+01 +7.9165111987199426e+00 +0.0000000000000000e+00 -1.1099999268962501e+01 -3.1564146303807543e-02 -5.9468820573852021e-01 +5.9673418070414425e-03
-1.1199999999999976e+01 +7.9164480538024744e+00 +0.0000000000000000e+00 -1.1199999249025963e+01 -3.1564198419774918e-02 -5.9468870238838178e-01 +5.9674848971919660e-03
-1.1299999999999976e+01 +7.9163843425471514e+00 +0.0000000000000000e+00 -1.1299999228730206e+01 -3.1564246643089988e-02 -5.9468920091450428e-01 +5.9676276250322114e-03
-1.1399999999999975e+01 +7.9163200649535010e+00 +0.0000000000000000e+00 -1.1399999208072025e+01 -3.1564291170217251e-02 -5.9468970013192957e-01 +5.9677700545547547e-03
-1.1499999999999975e+01 +7.9162552210210499e+00 +0.0000000000000000e+00 -1.1499999187048211e+01 -3.1564332197685528e-02 -5.9469019885563779e-01 +5.9679122497592095e-03
-1.1599999999999975e+01 +7.9161898107493247e+00 +0.0000000000000000e+00 -1.1599999165655557e+01 -3.1564369922089240e-02 -5.9469069590054402e-01 +5.9680542746523560e-03
-1.1699999999999974e+01 +7.9161238341378546e+00 +0.0000000000000000e+00 -1.1699999143890855e+01 -3.1564404540089706e-02 -5.9469119008149740e-01 +5.9681961932482952e-03
