# multipoles
# s[mm] polynom_b[n=0][T/m^n] polynom_b[n=1][T/m^n] polynom_b[n=2][T/m^n] polynom_b[n=3][T/m^n] polynom_b[n=4][T/m^n] polynom_b[n=5][T/m^n] polynom_b[n=6][T/m^n] 
-0.0000000000000000e+00 -5.6488969804819589e-01 +7.7440124858220436e+00 -4.8078964626498388e-01 -3.6102957184028135e+01 +5.6014426846281058e+03 +5.7744299648607657e+03 -3.3394701941591457e+07 
-1.0000000000000001e-01 -5.6488955457140611e-01 +7.7440086066483742e+00 -4.8645292383340027e-01 -3.5809434818649194e+01 +5.6825423378637443e+03 +4.0330378637096633e+03 -3.3761676865799926e+07 
-2.0000000000000001e-01 -5.6488941025777328e-01 +7.7440082207832681e+00 -4.9214066829083220e-01 -3.5630696185103780e+01 +5.7650663345920502e+03 +2.9880522399926108e+03 -3.4137975975554995e+07 
-2.9999999999999999e-01 -5.6488926620782154e-01 +7.7440110538029625e+00 -4.9782184706522181e-01 -3.5559395468876907e+01 +5.8485228925811334e+03 +2.5972891832675568e+03 -3.4521032658159792e+07 
-4.0000000000000002e-01 -5.6488912352226472e-01 +7.7440168312828597e+00 -5.0346541705410552e-01 -3.5588186825471631e+01 +5.9324200356242391e+03 +2.8185645884125861e+03 -3.4908279404107235e+07 
-5.0000000000000000e-01 -5.6488898330171533e-01 +7.7440252787947310e+00 -5.0904033619941313e-01 -3.5709724333879024e+01 +6.0162658030440771e+03 +3.6096939807515000e+03 -3.5297148775222495e+07 
-5.9999999999999998e-01 -5.6488884664684369e-01 +7.7440361219143599e+00 -5.1451556265146503e-01 -3.5916662195254915e+01 +6.0995682442740481e+03 +4.9284935910348922e+03 -3.5685073407068372e+07 
-6.9999999999999996e-01 -5.6488871465830792e-01 +7.7440490862147566e+00 -5.1986004836789124e-01 -3.6201654549164950e+01 +6.1818352873310605e+03 +6.7327793079899293e+03 -3.6069485354454435e+07 
-8.0000000000000004e-01 -5.6488858843676670e-01 +7.7440638972655940e+00 -5.2504274902963544e-01 -3.6557355456813319e+01 +6.2625749349943744e+03 +8.9803665871253124e+03 -3.6447817045698054e+07 
-9.0000000000000002e-01 -5.6488846908290657e-01 +7.7440802806413913e+00 -5.3003261577826932e-01 -3.6976419148441245e+01 +6.3412950994193316e+03 +1.1629071889745886e+04 -3.6817500472739756e+07 
-1.0000000000000000e+00 -5.6488835769739620e-01 +7.7440979619105228e+00 -5.3479860256968637e-01 -3.7451499695675139e+01 +6.4175037500749440e+03 +1.4636710753154306e+04 -3.7175967914765045e+07 
-1.1000000000000001e+00 -5.6488825538097964e-01 +7.7441166666434054e+00 -5.3930965947294485e-01 -3.7975251259730378e+01 +6.4907087762667898e+03 +1.7961099255210880e+04 -3.7520651259974778e+07 
-1.2000000000000000e+00 -5.6488816323426927e-01 +7.7441361204075232e+00 -5.4353473659551932e-01 -3.8540327947872996e+01 +6.5604180757089798e+03 +2.1560053159057807e+04 -3.7848982458574437e+07 
-1.3000000000000000e+00 -5.6488808235793153e-01 +7.7441560487707166e+00 -5.4744278951563752e-01 -3.9139383901841988e+01 +6.6261396395119646e+03 +2.5391388417462796e+04 -3.8158393881890014e+07 
-1.3999999999999999e+00 -5.6488801385267973e-01 +7.7441761772991331e+00 -5.5100276843867924e-01 -3.9765073263370766e+01 +6.6873813617856013e+03 +2.9412921016000590e+04 -3.8446317456224687e+07 
-1.5000000000000000e+00 -5.6488795881913789e-01 +7.7441962315561215e+00 -5.5418362697592605e-01 -4.0410050124327853e+01 +6.7436511965982963e+03 +3.3582466632307551e+04 -3.8710185381603166e+07 
-1.6000000000000001e+00 -5.6488791835794772e-01 +7.7442159371073114e+00 -5.5695431979637633e-01 -4.1066968678744963e+01 +6.7944571181016263e+03 +3.7857841521696631e+04 -3.8947429955407247e+07 
-1.7000000000000000e+00 -5.6488789356973446e-01 +7.7442350195135186e+00 -5.5928380292037372e-01 -4.1728483029524654e+01 +6.8393071210125672e+03 +4.2196861417648754e+04 -3.9155483559225291e+07 
-1.8000000000000000e+00 -5.6488788555515268e-01 +7.7442532043385848e+00 -5.6114103197219811e-01 -4.2387247412444246e+01 +6.8777091928092668e+03 +4.6557342814538926e+04 -3.9331778541602395e+07 
-1.8999999999999999e+00 -5.6488789541475659e-01 +7.7442702171397899e+00 -5.6249496743029026e-01 -4.3035915920550615e+01 +6.9091714095049911e+03 +5.0897101360606721e+04 -3.9473747662347771e+07 
-2.0000000000000000e+00 -5.6488792424913992e-01 +7.7442857834769754e+00 -5.6331457140381747e-01 -4.3667142767078467e+01 +6.9332018730936916e+03 +5.5173953380569998e+04 -3.9578823787615404e+07 
-2.1000000000000001e+00 -5.6488797273200486e-01 +7.7442996984319361e+00 -5.6358001207691222e-01 -4.4275176182445257e+01 +6.9494555663430974e+03 +5.9353839125351478e+04 -3.9645207219669960e+07 
-2.2000000000000002e+00 -5.6488803983374059e-01 +7.7443120321654808e+00 -5.6331668468899543e-01 -4.4860656817099496e+01 +6.9581858135696157e+03 +6.3435698004549195e+04 -3.9674225469578087e+07 
-2.2999999999999998e+00 -5.6488812409976574e-01 +7.7443229228719517e+00 -5.6256138711124670e-01 -4.5425827997771485e+01 +6.9597982079700905e+03 +6.7426847853500949e+04 -3.9668002499749072e+07 
-2.3999999999999999e+00 -5.6488822407554806e-01 +7.7443325087467247e+00 -5.6135091795071890e-01 -4.5972933042389542e+01 +6.9546983555090655e+03 +7.1334606411218512e+04 -3.9628662327015467e+07 
-2.5000000000000000e+00 -5.6488833830650742e-01 +7.7443409279868600e+00 -5.5972207536557972e-01 -4.6504215299466665e+01 +6.9432918610975512e+03 +7.5166291634650057e+04 -3.9558328981414221e+07 
-2.6000000000000001e+00 -5.6488846533807491e-01 +7.7443483187872939e+00 -5.5771165617896279e-01 -4.7021917996172874e+01 +6.9259843079342163e+03 +7.8929220702440143e+04 -3.9459126397593185e+07 
-2.7000000000000002e+00 -5.6488860371577421e-01 +7.7443548193418605e+00 -5.5535646004960082e-01 -4.7528284288995884e+01 +6.9031813355968734e+03 +8.2630710397616858e+04 -3.9333178780082293e+07 
-2.7999999999999998e+00 -5.6488875198500732e-01 +7.7443605678469005e+00 -5.5269328139728968e-01 -4.8025557343726454e+01 +6.8752884940614185e+03 +8.6278077509879833e+04 -3.9182609932141714e+07 
-2.8999999999999999e+00 -5.6488890869125707e-01 +7.7443657025010886e+00 -5.4975892245002167e-01 -4.8515980340178466e+01 +6.8427114826777515e+03 +8.9878638908741254e+04 -3.9009544363906257e+07 
-3.0000000000000000e+00 -5.6488907237998487e-01 +7.7443703614994925e+00 -5.4659017795092202e-01 -4.9001796274665978e+01 +6.8058558677568126e+03 +9.3439710346833075e+04 -3.8816105975159362e+07 
-3.1000000000000001e+00 -5.6488924159664677e-01 +7.7443746830408022e+00 -5.4322384762556242e-01 -4.9485248185367794e+01 +6.7651273165628454e+03 +9.6968607830344263e+04 -3.8604419156358004e+07 
-3.2000000000000002e+00 -5.6488941488677635e-01 +7.7443788053210882e+00 -5.3969672586085615e-01 -4.9968578941837833e+01 +6.7209314039581477e+03 +1.0047264631502697e+05 -3.8376607877239250e+07 
-3.2999999999999998e+00 -5.6488959079578704e-01 +7.7443828665430621e+00 -5.3604561177944143e-01 -5.0454031526741161e+01 +6.6736737996868342e+03 +1.0395914141876470e+05 -3.8134796566306449e+07 
-3.3999999999999999e+00 -5.6488976786926082e-01 +7.7443870049063541e+00 -5.3230730213039845e-01 -5.0943848735241431e+01 +6.6237601377842821e+03 +1.0743540762357121e+05 -3.7881109500078544e+07 
-3.5000000000000000e+00 -5.6488994465264297e-01 +7.7443913586108231e+00 -5.2851859046747074e-01 -5.1440273266127669e+01 +6.5715960024579463e+03 +1.1090875881382829e+05 -3.7617670741681099e+07 
-3.6000000000000001e+00 -5.6489011969147973e-01 +7.7443960658614976e+00 -5.2471627582083391e-01 -5.1945547861798758e+01 +6.5175870879059894e+03 +1.1438650909463143e+05 -3.7346604886169769e+07 
-3.7000000000000002e+00 -5.6489029153128911e-01 +7.7444012648616871e+00 -5.2093715164543375e-01 -5.2461915101517732e+01 +6.4621389951944302e+03 +1.1787597159262111e+05 -3.7070036110412642e+07 
-3.7999999999999998e+00 -5.6489045871760568e-01 +7.7444070938182481e+00 -5.1721801354862407e-01 -5.2991617545926132e+01 +6.4056573741121701e+03 +1.2138445927957386e+05 -3.6790088837044843e+07 
-3.8999999999999999e+00 -5.6489061979598010e-01 +7.7444136909342669e+00 -5.1359565617808933e-01 -5.3536897520273968e+01 +6.3485478686093384e+03 +1.2491928372881425e+05 -3.6508887485392496e+07 
-4.0000000000000000e+00 -5.6489077331202631e-01 +7.7444211944211965e+00 -5.1010687129430954e-01 -5.4099997461996111e+01 +6.2912160803126671e+03 +1.2848775715216680e+05 -3.6228556295457855e+07 
-4.0999999999999996e+00 -5.6489091825210114e-01 +7.7444297096849457e+00 -5.0677967562529602e-01 -5.4682136121993054e+01 +6.2340172344534158e+03 +1.3209248769389541e+05 -3.5950990726547949e+07 
-4.2000000000000002e+00 -5.6489105536382189e-01 +7.7444392211548738e+00 -5.0360641407414308e-01 -5.5280572906947363e+01 +6.1770834479937103e+03 +1.3571714394255163e+05 -3.5677071314699508e+07 
-4.2999999999999998e+00 -5.6489118583441988e-01 +7.7444496855319747e+00 -5.0057040099603689e-01 -5.5891609432052498e+01 +6.1204861362610309e+03 +1.3934062406224344e+05 -3.5407400901712120e+07 
-4.4000000000000004e+00 -5.6489131085123956e-01 +7.7444610595124113e+00 -4.9765495221225431e-01 -5.6511547253839801e+01 +6.0642967418618928e+03 +1.4294182601995161e+05 -3.5142582439698063e+07 
-4.5000000000000000e+00 -5.6489143160153665e-01 +7.7444732997922507e+00 -4.9484338519454985e-01 -5.7136688012786628e+01 +6.0085867363636435e+03 +1.4649964843357133e+05 -3.4883218996317677e+07 
-4.5999999999999996e+00 -5.6489154927256979e-01 +7.7444863630595338e+00 -4.9211902172820188e-01 -5.7763333206730259e+01 +5.9534276705258826e+03 +1.4999298925338665e+05 -3.4629913991861269e+07 
-4.7000000000000002e+00 -5.6489166505163801e-01 +7.7445002059987269e+00 -4.8946518363707414e-01 -5.8387784336503834e+01 +5.8988910959834047e+03 +1.5340074664437835e+05 -3.4383270833587818e+07 
-4.7999999999999998e+00 -5.6489178012597918e-01 +7.7445147852917327e+00 -4.8686519462011502e-01 -5.9006342931118319e+01 +5.8450485952515610e+03 +1.5670181910357057e+05 -3.4143893044139847e+07 
-4.9000000000000004e+00 -5.6489189568282883e-01 +7.7445300576146838e+00 -4.8430238321776797e-01 -5.9615310468830558e+01 +5.7919718387605571e+03 +1.5987510504665598e+05 -3.3912384535554670e+07 
-5.0000000000000000e+00 -5.6489201290942170e-01 +7.7445459796368583e+00 -4.8176007996367054e-01 -6.0210988346838292e+01 +5.7397325332605997e+03 +1.6289950261294458e+05 -3.3689349367627978e+07 
-5.0999999999999996e+00 -5.6489213299301710e-01 +7.7445625080238072e+00 -4.7922161696367516e-01 -6.0789677990140007e+01 +5.6884024102400172e+03 +1.6575391034512746e+05 -3.3475391684570946e+07 
-5.2000000000000002e+00 -5.6489225712080215e-01 +7.7445795994391533e+00 -4.7667033019137928e-01 -6.1347680890380644e+01 +5.6380532714961246e+03 +1.6841722735935898e+05 -3.3271115934299298e+07 
-5.2999999999999998e+00 -5.6489238647998452e-01 +7.7445972105312757e+00 -4.7408955788229512e-01 -6.1881298247063604e+01 +5.5887569566894699e+03 +1.7086835134248843e+05 -3.3077126710154071e+07 
-5.4000000000000004e+00 -5.6489252225776887e-01 +7.7446152979524099e+00 -4.7146264346542055e-01 -6.2386831517395933e+01 +5.5405853972446157e+03 +1.7308618171121951e+05 -3.2894029001562946e+07 
-5.5000000000000000e+00 -5.6489266564131024e-01 +7.7446338183452621e+00 -4.6877292867023929e-01 -6.2860582039202775e+01 +5.4936104925094796e+03 +1.7504961745485559e+05 -3.2722427620562758e+07 
-5.5999999999999996e+00 -5.6489281781783141e-01 +7.7446527283450566e+00 -4.6600376485642814e-01 -6.3298851094900698e+01 +5.4479043125493572e+03 +1.7673755749443540e+05 -3.2562928136662956e+07 
-5.7000000000000002e+00 -5.6489297997442300e-01 +7.7446719845832899e+00 -4.6313850149644742e-01 -6.3697940022949801e+01 +5.4035388911819782e+03 +1.7812890134909723e+05 -3.2416135919962838e+07 
-5.7999999999999998e+00 -5.6489315329827983e-01 +7.7446915436828441e+00 -4.6016049399664100e-01 -6.4054150088777902e+01 +5.3605863663111249e+03 +1.7920254839188515e+05 -3.2282656787936799e+07 
-5.9000000000000004e+00 -5.6489333897646243e-01 +7.7447113622589301e+00 -4.5705310230659829e-01 -6.4363782529628708e+01 +5.3191189550378313e+03 +1.7993739816008063e+05 -3.2163096888426792e+07 
-5.9999999999999902e+00 -5.6489353819617805e-01 +7.7447313969203453e+00 -4.5379968779382079e-01 -6.4623138575756414e+01 +5.2792088961832569e+03 +1.8031235037154341e+05 -3.2058062437140226e+07 
-6.0999999999999899e+00 -5.6489375178925483e-01 +7.7447516018335740e+00 -4.5038884423179798e-01 -6.4829731093164014e+01 +5.2408830187481162e+03 +1.8031489755549087e+05 -3.1967739714741025e+07 
-6.1999999999999904e+00 -5.6489397918218975e-01 +7.7447719026268746e+00 -4.4682770886351914e-01 -6.4985452609639850e+01 +5.2039892448952114e+03 +1.7996479198379957e+05 -3.1890756052153017e+07 
-6.2999999999999901e+00 -5.6489421945393958e-01 +7.7447922132183900e+00 -4.4312741395878835e-01 -6.5093184770592089e+01 +5.1683303612378404e+03 +1.7928938965670820e+05 -3.1825374348297406e+07 
-6.3999999999999897e+00 -5.6489447168343943e-01 +7.7448124475279023e+00 -4.3929908802809720e-01 -6.5155809176309361e+01 +5.1337090702651903e+03 +1.7831604596850005e+05 -3.1769857100531675e+07 
-6.4999999999999902e+00 -5.6489473494952236e-01 +7.7448325194913057e+00 -4.3535386172554169e-01 -6.5176207799530573e+01 +5.0999280960867090e+03 +1.7707211814542487e+05 -3.1722466891024869e+07 
-6.5999999999999899e+00 -5.6489500833121609e-01 +7.7448523430443741e+00 -4.3130285200938256e-01 -6.5157262491750942e+01 +5.0667898852515782e+03 +1.7558496230126868e+05 -3.1681464969722364e+07 
-6.6999999999999904e+00 -5.6489529090740087e-01 +7.7448718321382337e+00 -4.2715718053505458e-01 -6.5101855442371843e+01 +5.0340969562117425e+03 +1.7388193613875745e+05 -3.1645112917572822e+07 
-6.7999999999999901e+00 -5.6489558175702004e-01 +7.7448909007271709e+00 -4.2292796042950026e-01 -6.5012868809145260e+01 +5.0016516456222325e+03 +1.7199039675590265e+05 -3.1611671437127713e+07 
-6.8999999999999897e+00 -5.6489587995902235e-01 +7.7449094627792832e+00 -4.1862630004138690e-01 -6.4893185033785912e+01 +4.9692561771495057e+03 +1.6993770249213246e+05 -3.1579400673030045e+07 
-6.9999999999999902e+00 -5.6489618459238211e-01 +7.7449274322700923e+00 -4.1426330474381473e-01 -6.4745686631398542e+01 +4.9367127021101014e+03 +1.6775121163650774e+05 -3.1546560423832778e+07 
-7.0999999999999899e+00 -5.6489649473602455e-01 +7.7449447231847595e+00 -4.0985007395836986e-01 -6.4573256276505234e+01 +4.9038232339909227e+03 +1.6545828298056184e+05 -3.1511409810997095e+07 
-7.1999999999999904e+00 -5.6489680946891363e-01 +7.7449612495180844e+00 -4.0539770175068779e-01 -6.4378776768185560e+01 +4.8703896645617897e+03 +1.6308627552568688e+05 -3.1472207367024451e+07 
-7.2999999999999901e+00 -5.6489712787004542e-01 +7.7449769252773102e+00 -4.0091727721970055e-01 -6.4165131131542566e+01 +4.8362137682624871e+03 +1.6066254911537369e+05 -3.1427211050846130e+07 
-7.3999999999999897e+00 -5.6489744901833427e-01 +7.7449916644834786e+00 -3.9641988472826922e-01 -6.3935202636463202e+01 +4.8010972089324259e+03 +1.5821446448974826e+05 -3.1374678287594978e+07 
-7.4999999999999902e+00 -5.6489777199284619e-01 +7.7450053811606541e+00 -3.9191660150602403e-01 -6.3691874485438653e+01 +4.7648414855266601e+03 +1.5576938147828073e+05 -3.1312865689843368e+07 
-7.5999999999999899e+00 -5.6489809587248618e-01 +7.7450179893529825e+00 -3.8741849977062526e-01 -6.3438030300165572e+01 +4.7272479829839049e+03 +1.5335466178834598e+05 -3.1240029327687975e+07 
-7.6999999999999904e+00 -5.6489841973628008e-01 +7.7450294031123885e+00 -3.8293664509369396e-01 -6.3176553763782444e+01 +4.6881179329484530e+03 +1.5099766693186676e+05 -3.1154424523386169e+07 
-7.7999999999999901e+00 -5.6489874266326012e-01 +7.7450395365058000e+00 -3.7848209685239215e-01 -6.2910328824224770e+01 +4.6472524225468042e+03 +1.4872575937954037e+05 -3.1054305893416885e+07 
-7.8999999999999897e+00 -5.6489906373239507e-01 +7.7450483036103099e+00 -3.7406591025486280e-01 -6.2642239542322557e+01 +4.6044524364375266e+03 +1.4656630165691598e+05 -3.0937927561231270e+07 
-7.9999999999999902e+00 -5.6489938202274370e-01 +7.7450556185180295e+00 -3.6969913048464675e-01 -6.2375170204452409e+01 +4.5595187423711923e+03 +1.4454665685013149e+05 -3.0803542612253260e+07 
-8.0999999999999908e+00 -5.6489969669103568e-01 +7.7450613927689291e+00 -3.6539952830965922e-01 -6.2110980362610583e+01 +4.5124376518480221e+03 +1.4268553273012961e+05 -3.0650431367172178e+07 
-8.1999999999999904e+00 -5.6490000717487088e-01 +7.7450655464162432e+00 -3.6121607838370656e-01 -6.1847930773380376e+01 +4.4639727683395677e+03 +1.4097000618222772e+05 -3.0481965641565699e+07 
-8.2999999999999901e+00 -5.6490031297446908e-01 +7.7450680062445292e+00 -3.5720667929141808e-01 -6.1583493367098754e+01 +4.4150920798011921e+03 +1.3937987015563439e+05 -3.0302543493731365e+07 
-8.3999999999999897e+00 -5.6490061358997878e-01 +7.7450686990516200e+00 -3.5342924230538730e-01 -6.1315140386546091e+01 +4.3667638220142135e+03 +1.3789491928821019e+05 -3.0116564165160593e+07 
-8.4999999999999893e+00 -5.6490090852158903e-01 +7.7450675516518324e+00 -3.4994167703497325e-01 -6.1040344510990742e+01 +4.3199562087095910e+03 +1.3649495073506774e+05 -2.9928426807964150e+07 
-8.5999999999999908e+00 -5.6490119726937216e-01 +7.7450644908733564e+00 -3.4680190089960161e-01 -6.0756578771731867e+01 +4.2756376148015352e+03 +1.3515976365651173e+05 -2.9742531365601338e+07 
-8.6999999999999904e+00 -5.6490147933338652e-01 +7.7450594435576585e+00 -3.4406783700905347e-01 -6.0461316552655902e+01 +4.2347765340486048e+03 +1.3386915928021178e+05 -2.9563278362054005e+07 
-8.7999999999999794e+00 -5.6490175421365385e-01 +7.7450523365651041e+00 -3.4179741297629423e-01 -6.0152031730597358e+01 +4.1983415586587544e+03 +1.3260294164820542e+05 -2.9395068814622596e+07 
-8.8999999999999808e+00 -5.6490202141014756e-01 +7.7450430967722212e+00 -3.4004856640840242e-01 -5.9826198617052562e+01 +4.1673014817288258e+03 +1.3134091734842575e+05 -2.9242304711321279e+07 
-8.9999999999999805e+00 -5.6490228042279844e-01 +7.7450316510659087e+00 -3.3887923385263935e-01 -5.9481291762521955e+01 +4.1426250924615997e+03 +1.3006289429966628e+05 -2.9109388052566186e+07 
-9.0999999999999801e+00 -5.6490253075145802e-01 +7.7450179263610623e+00 -3.3834736499213985e-01 -5.9114786498289078e+01 +4.1252814405564259e+03 +1.2874868499367789e+05 -2.9000722095004708e+07 
-9.1999999999999797e+00 -5.6490277189597560e-01 +7.7450018495761164e+00 -3.3851091066899580e-01 -5.8724158204460608e+01 +4.1162396130186207e+03 +1.2737810217562545e+05 -2.8920710297798324e+07 
-9.2999999999999794e+00 -5.6490300335614374e-01 +7.7449833476561958e+00 -3.3942783256361053e-01 -5.8306882990648802e+01 +4.1164689188001375e+03 +1.2593096283970353e+05 -2.8873757206178010e+07 
-9.3999999999999808e+00 -5.6490322463166309e-01 +7.7449623475639582e+00 -3.4115609721407830e-01 -5.7860437424047767e+01 +4.1269387719602782e+03 +1.2438708662432316e+05 -2.8864267882856265e+07 
-9.4999999999999805e+00 -5.6490343522223363e-01 +7.7449387762755810e+00 -3.4375367560750347e-01 -5.7382298415227304e+01 +4.1486186908511190e+03 +1.2272629516717006e+05 -2.8896647924832087e+07 
-9.5999999999999801e+00 -5.6490363462745852e-01 +7.7449125607892491e+00 -3.4727855071851499e-01 -5.6869943468117071e+01 +4.1824784321845063e+03 +1.2092841356362007e+05 -2.8975304074855179e+07 
-9.6999999999999797e+00 -5.6490382234694547e-01 +7.7448836281205162e+00 -3.5178870953090063e-01 -5.6320850540304143e+01 +4.2294878512529467e+03 +1.1897326955487192e+05 -2.9104643588371284e+07 
-9.7999999999999794e+00 -5.6490399788018930e-01 +7.7448519053050688e+00 -3.5734214654906366e-01 -5.5732498117918858e+01 +4.2906169608153186e+03 +1.1684069394483892e+05 -2.9289074491309188e+07 
-9.8999999999999808e+00 -5.6490416072664151e-01 +7.7448173193979102e+00 -3.6399686585600605e-01 -5.5102365202979904e+01 +4.3668359746182623e+03 +1.1451052055883213e+05 -2.9533005798982646e+07 
-9.9999999999999805e+00 -5.6490431038574551e-01 +7.7447797974738446e+00 -3.7181087636087945e-01 -5.4427931299503570e+01 +4.4591152167652117e+03 +1.1196258633617077e+05 -2.9840847064069796e+07 
-1.0100000000000000e+01 -5.6490444677271534e-01 +7.7447393626064711e+00 -3.8080923516766552e-01 -5.3708526662866539e+01 +4.5679449002166457e+03 +1.0918631449067930e+05 -3.0215008972304828e+07 
