# field on trajectory
# s[mm] rx[mm] ry[mm] rz[mm] bx[T] by[T] bz[T]
0.0000000000000000e+00 +7.9199999999999999e+00 +0.0000000000000000e+00 +0.0000000000000000e+00 -3.1412784970780545e-02 -5.9500780149821797e-01 +6.0699039924117766e-03
-1.0000000000000001e-01 +7.9199997166789808e+00 +0.0000000000000000e+00 -9.9999999999464878e-02 -3.1413006858046981e-02 -5.9500838030973990e-01 +6.0697365296952096e-03
-2.0000000000000001e-01 +7.9199988667155541e+00 +0.0000000000000000e+00 -1.9999999999571888e-01 -3.1413209472204447e-02 -5.9500897793164587e-01 +6.0695650672053488e-03
-3.0000000000000004e-01 +7.9199974501091503e+00 +0.0000000000000000e+00 -2.9999999998555121e-01 -3.1413394182370290e-02 -5.9500959270427090e-01 +6.0693895719636142e-03
-4.0000000000000002e-01 +7.9199954668591843e+00 +0.0000000000000000e+00 -3.9999999996575103e-01 -3.1413562357670302e-02 -5.9501022296795014e-01 +6.0692100109903833e-03
-5.0000000000000000e-01 +7.9199929169650565e+00 +0.0000000000000000e+00 -4.9999999993310745e-01 -3.1413715367237388e-02 -5.9501086706302220e-01 +6.0690263513047907e-03
-5.9999999999999998e-01 +7.9199898004261531e+00 +0.0000000000000000e+00 -5.9999999988440955e-01 -3.1413854580209927e-02 -5.9501152332982754e-01 +6.0688385599245000e-03
-6.9999999999999996e-01 +7.9199861172418498e+00 +0.0000000000000000e+00 -6.9999999981644656e-01 -3.1413981365730370e-02 -5.9501219010870865e-01 +6.0686466038655223e-03
-7.9999999999999993e-01 +7.9199818674115114e+00 +0.0000000000000000e+00 -7.9999999972600744e-01 -3.1414097092943773e-02 -5.9501286574001333e-01 +6.0684504501419866e-03
-8.9999999999999991e-01 +7.9199770509344951e+00 +0.0000000000000000e+00 -8.9999999960988142e-01 -3.1414203130996216e-02 -5.9501354856409105e-01 +6.0682500657659342e-03
-9.9999999999999989e-01 +7.9199716678101506e+00 +0.0000000000000000e+00 -9.9999999946485751e-01 -3.1414300849033405e-02 -5.9501423692129662e-01 +6.0680454177471140e-03
-1.0999999999999999e+00 +7.9199657180378225e+00 +0.0000000000000000e+00 -1.0999999992877247e+00 -3.1414391616199147e-02 -5.9501492915198939e-01 +6.0678364730927725e-03
-1.2000000000000000e+00 +7.9199592016168525e+00 +0.0000000000000000e+00 -1.1999999990752723e+00 -3.1414476801633867e-02 -5.9501562359653348e-01 +6.0676231988074439e-03
-1.3000000000000000e+00 +7.9199521185465791e+00 +0.0000000000000000e+00 -1.2999999988242892e+00 -3.1414557774473092e-02 -5.9501631859529880e-01 +6.0674055618927395e-03
-1.4000000000000001e+00 +7.9199444688263405e+00 +0.0000000000000000e+00 -1.3999999985315643e+00 -3.1414635903846064e-02 -5.9501701248866101e-01 +6.0671835293471419e-03
-1.5000000000000002e+00 +7.9199362524554768e+00 +0.0000000000000000e+00 -1.4999999981938867e+00 -3.1414712558874118e-02 -5.9501770361700246e-01 +6.0669570681657937e-03
-1.6000000000000003e+00 +7.9199274694333308e+00 +0.0000000000000000e+00 -1.5999999978080455e+00 -3.1414789108669267e-02 -5.9501839032071180e-01 +6.0667261453402847e-03
-1.7000000000000004e+00 +7.9199181197592479e+00 +0.0000000000000000e+00 -1.6999999973708297e+00 -3.1414866922332738e-02 -5.9501907094018569e-01 +6.0664907278584566e-03
-1.8000000000000005e+00 +7.9199082034325805e+00 +0.0000000000000000e+00 -1.7999999968790283e+00 -3.1414947368953422e-02 -5.9501974381582778e-01 +6.0662507827041728e-03
-1.9000000000000006e+00 +7.9198977204526892e+00 +0.0000000000000000e+00 -1.8999999963294303e+00 -3.1415031817606437e-02 -5.9502040728805017e-01 +6.0660062768571298e-03
-2.0000000000000004e+00 +7.9198866708189417e+00 +0.0000000000000000e+00 -1.9999999957188244e+00 -3.1415121637351599e-02 -5.9502105969727404e-01 +6.0657571772926352e-03
-2.1000000000000005e+00 +7.9198750545307171e+00 +0.0000000000000000e+00 -2.0999999950440000e+00 -3.1415217799812253e-02 -5.9502169991359977e-01 +6.0655034500331330e-03
-2.2000000000000006e+00 +7.9198628715874069e+00 +0.0000000000000000e+00 -2.1999999943017459e+00 -3.1415319686919664e-02 -5.9502232892581897e-01 +6.0652450573049355e-03
-2.3000000000000007e+00 +7.9198501219884117e+00 +0.0000000000000000e+00 -2.2999999934888509e+00 -3.1415426283180940e-02 -5.9502294825239366e-01 +6.0649819603861939e-03
-2.4000000000000008e+00 +7.9198368057331416e+00 +0.0000000000000000e+00 -2.3999999926021038e+00 -3.1415536573100429e-02 -5.9502355941178398e-01 +6.0647141205559980e-03
-2.5000000000000009e+00 +7.9198229228210160e+00 +0.0000000000000000e+00 -2.4999999916382940e+00 -3.1415649541180077e-02 -5.9502416392244661e-01 +6.0644414990947615e-03
-2.6000000000000010e+00 +7.9198084732514582e+00 +0.0000000000000000e+00 -2.5999999905942097e+00 -3.1415764171919804e-02 -5.9502476330283505e-01 +6.0641640572846539e-03
-2.7000000000000011e+00 +7.9197934570238981e+00 +0.0000000000000000e+00 -2.6999999894666407e+00 -3.1415879449817830e-02 -5.9502535907139797e-01 +6.0638817564099851e-03
-2.8000000000000012e+00 +7.9197778741377691e+00 +0.0000000000000000e+00 -2.7999999882523752e+00 -3.1415994359371105e-02 -5.9502595274657888e-01 +6.0635945577576242e-03
-2.9000000000000012e+00 +7.9197617245925063e+00 +0.0000000000000000e+00 -2.8999999869482025e+00 -3.1416107885075546e-02 -5.9502654584681491e-01 +6.0633024226173981e-03
-3.0000000000000013e+00 +7.9197450083875447e+00 +0.0000000000000000e+00 -2.9999999855509110e+00 -3.1416219011426577e-02 -5.9502713989053668e-01 +6.0630053122825095e-03
-3.1000000000000014e+00 +7.9197277255223195e+00 +0.0000000000000000e+00 -3.0999999840572898e+00 -3.1416326722919309e-02 -5.9502773639616657e-01 +6.0627031880499272e-03
-3.2000000000000015e+00 +7.9197098759962632e+00 +0.0000000000000000e+00 -3.1999999824641283e+00 -3.1416430004049013e-02 -5.9502833688211909e-01 +6.0623960112208049e-03
-3.3000000000000016e+00 +7.9196914598088037e+00 +0.0000000000000000e+00 -3.2999999807682148e+00 -3.1416527839311460e-02 -5.9502894286679930e-01 +6.0620837431008875e-03
-3.4000000000000017e+00 +7.9196724769593656e+00 +0.0000000000000000e+00 -3.3999999789663380e+00 -3.1416619213203247e-02 -5.9502955586860196e-01 +6.0617663450009086e-03
-3.5000000000000018e+00 +7.9196529274473644e+00 +0.0000000000000000e+00 -3.4999999770552872e+00 -3.1416703110222217e-02 -5.9503017740591102e-01 +6.0614437782370110e-03
-3.6000000000000019e+00 +7.9196328112722094e+00 +0.0000000000000000e+00 -3.5999999750318508e+00 -3.1416778514867745e-02 -5.9503080899709881e-01 +6.0611160041311330e-03
-3.7000000000000020e+00 +7.9196121284332994e+00 +0.0000000000000000e+00 -3.6999999728928179e+00 -3.1416844411641186e-02 -5.9503145216052533e-01 +6.0607829840114398e-03
-3.8000000000000020e+00 +7.9195908789300224e+00 +0.0000000000000000e+00 -3.7999999706349770e+00 -3.1416899785046165e-02 -5.9503210841453824e-01 +6.0604446792127111e-03
-3.9000000000000021e+00 +7.9195690627617532e+00 +0.0000000000000000e+00 -3.8999999682551172e+00 -3.1416943619588973e-02 -5.9503277927746878e-01 +6.0601010510767557e-03
-4.0000000000000018e+00 +7.9195466799278549e+00 +0.0000000000000000e+00 -3.9999999657500269e+00 -3.1416974899778925e-02 -5.9503346626763576e-01 +6.0597520609528173e-03
-4.1000000000000014e+00 +7.9195237304276729e+00 +0.0000000000000000e+00 -4.0999999631164954e+00 -3.1416993073545875e-02 -5.9503417057697461e-01 +6.0593977349720080e-03
-4.2000000000000011e+00 +7.9195002142605375e+00 +0.0000000000000000e+00 -4.1999999603513114e+00 -3.1416999442492960e-02 -5.9503489209192895e-01 +6.0590383583667487e-03
-4.3000000000000007e+00 +7.9194761314257622e+00 +0.0000000000000000e+00 -4.2999999574512628e+00 -3.1416995771642635e-02 -5.9503563037254326e-01 +6.0586742811429267e-03
-4.4000000000000004e+00 +7.9194514819226454e+00 +0.0000000000000000e+00 -4.3999999544131390e+00 -3.1416983826018631e-02 -5.9503638497882705e-01 +6.0583058533047471e-03
-4.5000000000000000e+00 +7.9194262657504693e+00 +0.0000000000000000e+00 -4.4999999512337281e+00 -3.1416965370646012e-02 -5.9503715547075253e-01 +6.0579334248545514e-03
-4.5999999999999996e+00 +7.9194004829085003e+00 +0.0000000000000000e+00 -4.5999999479098195e+00 -3.1416942170551423e-02 -5.9503794140825483e-01 +6.0575573457926149e-03
-4.6999999999999993e+00 +7.9193741333959906e+00 +0.0000000000000000e+00 -4.6999999444382015e+00 -3.1416915990763239e-02 -5.9503874235122756e-01 +6.0571779661169672e-03
-4.7999999999999989e+00 +7.9193472172121790e+00 +0.0000000000000000e+00 -4.7999999408156633e+00 -3.1416888596311775e-02 -5.9503955785952312e-01 +6.0567956358231903e-03
-4.8999999999999986e+00 +7.9193197343562893e+00 +0.0000000000000000e+00 -4.8999999370389924e+00 -3.1416861752229443e-02 -5.9504038749294974e-01 +6.0564107049042391e-03
-4.9999999999999982e+00 +7.9192916848275328e+00 +0.0000000000000000e+00 -4.9999999331049780e+00 -3.1416837223550917e-02 -5.9504123081127047e-01 +6.0560235233502379e-03
-5.0999999999999979e+00 +7.9192630686251073e+00 +0.0000000000000000e+00 -5.0999999290104086e+00 -3.1416816775313335e-02 -5.9504208737420172e-01 +6.0556344411483061e-03
-5.1999999999999975e+00 +7.9192338857481976e+00 +0.0000000000000000e+00 -5.1999999247520732e+00 -3.1416802172556484e-02 -5.9504295674140983e-01 +6.0552438082823491e-03
-5.2999999999999972e+00 +7.9192041361959769e+00 +0.0000000000000000e+00 -5.2999999203267603e+00 -3.1416795180322969e-02 -5.9504383847251219e-01 +6.0548519747328786e-03
-5.3999999999999968e+00 +7.9191738199676065e+00 +0.0000000000000000e+00 -5.3999999157312581e+00 -3.1416797563658366e-02 -5.9504473212707132e-01 +6.0544592904768204e-03
-5.4999999999999964e+00 +7.9191429370622366e+00 +0.0000000000000000e+00 -5.4999999109623552e+00 -3.1416811087611449e-02 -5.9504563726459747e-01 +6.0540661054873154e-03
-5.5999999999999961e+00 +7.9191114874790065e+00 +0.0000000000000000e+00 -5.5999999060168397e+00 -3.1416837517234321e-02 -5.9504655344454449e-01 +6.0536727697335369e-03
-5.6999999999999957e+00 +7.9190794712170440e+00 +0.0000000000000000e+00 -5.6999999008915010e+00 -3.1416878617582619e-02 -5.9504748022630805e-01 +6.0532796331804967e-03
-5.7999999999999954e+00 +7.9190468882754681e+00 +0.0000000000000000e+00 -5.7999998955831265e+00 -3.1416936153715720e-02 -5.9504841716922485e-01 +6.0528870457888491e-03
-5.8999999999999950e+00 +7.9190137386533870e+00 +0.0000000000000000e+00 -5.8999998900885053e+00 -3.1417011890696823e-02 -5.9504936383257001e-01 +6.0524953575147068e-03
-5.9999999999999947e+00 +7.9189800223499009e+00 +0.0000000000000000e+00 -5.9999998844044260e+00 -3.1417107593593251e-02 -5.9505031977555589e-01 +6.0521049183094415e-03
-6.0999999999999943e+00 +7.9189457393641005e+00 +0.0000000000000000e+00 -6.0999998785276768e+00 -3.1417224361812046e-02 -5.9505128435773935e-01 +6.0517159867609846e-03
-6.1999999999999940e+00 +7.9189108896950682e+00 +0.0000000000000000e+00 -6.1999998724550460e+00 -3.1417360632097796e-02 -5.9505225614029178e-01 +6.0513284560176324e-03
-6.2999999999999936e+00 +7.9188754733418794e+00 +0.0000000000000000e+00 -6.2999998661833221e+00 -3.1417514175531125e-02 -5.9505323348485073e-01 +6.0509421278654657e-03
-6.3999999999999932e+00 +7.9188394903036050e+00 +0.0000000000000000e+00 -6.3999998597092924e+00 -3.1417682763198146e-02 -5.9505421475312803e-01 +6.0505568040876249e-03
-6.4999999999999929e+00 +7.9188029405793117e+00 +0.0000000000000000e+00 -6.4999998530297463e+00 -3.1417864166190634e-02 -5.9505519830691300e-01 +6.0501722864641835e-03
-6.5999999999999925e+00 +7.9187658241680641e+00 +0.0000000000000000e+00 -6.5999998461414719e+00 -3.1418056155606215e-02 -5.9505618250807635e-01 +6.0497883767720844e-03
-6.6999999999999922e+00 +7.9187281410689270e+00 +0.0000000000000000e+00 -6.6999998390412578e+00 -3.1418256502548599e-02 -5.9505716571857337e-01 +6.0494048767850304e-03
-6.7999999999999918e+00 +7.9186898912809642e+00 +0.0000000000000000e+00 -6.7999998317258923e+00 -3.1418462978127795e-02 -5.9505814630044929e-01 +6.0490215882734004e-03
-6.8999999999999915e+00 +7.9186510748032441e+00 +0.0000000000000000e+00 -6.8999998241921636e+00 -3.1418673353460297e-02 -5.9505912261584126e-01 +6.0486383130041515e-03
-6.9999999999999911e+00 +7.9186116916348377e+00 +0.0000000000000000e+00 -6.9999998164368593e+00 -3.1418885399669298e-02 -5.9506009302698326e-01 +6.0482548527407290e-03
-7.0999999999999908e+00 +7.9185717417748229e+00 +0.0000000000000000e+00 -7.0999998084567686e+00 -3.1419096887884940e-02 -5.9506105589620872e-01 +6.0478710092429751e-03
-7.1999999999999904e+00 +7.9185312252222841e+00 +0.0000000000000000e+00 -7.1999998002486789e+00 -3.1419305589244481e-02 -5.9506200958595623e-01 +6.0474865842670379e-03
-7.2999999999999901e+00 +7.9184901419763145e+00 +0.0000000000000000e+00 -7.2999997918093795e+00 -3.1419509274892496e-02 -5.9506295245877172e-01 +6.0471013795652716e-03
-7.3999999999999897e+00 +7.9184484920360170e+00 +0.0000000000000000e+00 -7.3999997831356579e+00 -3.1419705715981135e-02 -5.9506388287731227e-01 +6.0467151968861526e-03
-7.4999999999999893e+00 +7.9184062754005069e+00 +0.0000000000000000e+00 -7.4999997742243023e+00 -3.1419892683670333e-02 -5.9506479920435107e-01 +6.0463278379741872e-03
-7.5999999999999890e+00 +7.9183634920689139e+00 +0.0000000000000000e+00 -7.5999997650721012e+00 -3.1420067949127981e-02 -5.9506569980278046e-01 +6.0459391045698131e-03
-7.6999999999999886e+00 +7.9183201420403817e+00 +0.0000000000000000e+00 -7.6999997556758419e+00 -3.1420229283530152e-02 -5.9506658303561510e-01 +6.0455487984093122e-03
-7.7999999999999883e+00 +7.9182762253140702e+00 +0.0000000000000000e+00 -7.7999997460323138e+00 -3.1420374458061374e-02 -5.9506744726599725e-01 +6.0451567212247218e-03
-7.8999999999999879e+00 +7.9182317418891577e+00 +0.0000000000000000e+00 -7.8999997361383043e+00 -3.1420501243914739e-02 -5.9506829085719881e-01 +6.0447626747437300e-03
-7.9999999999999876e+00 +7.9181866917648431e+00 +0.0000000000000000e+00 -7.9999997259906017e+00 -3.1420607412292224e-02 -5.9506911217262703e-01 +6.0443664606896069e-03
-8.0999999999999872e+00 +7.9181410749403458e+00 +0.0000000000000000e+00 -8.0999997155859944e+00 -3.1420691263790934e-02 -5.9506991008080878e-01 +6.0439679474445585e-03
-8.1999999999999869e+00 +7.9180948914149072e+00 +0.0000000000000000e+00 -8.1999997049212698e+00 -3.1420753216580090e-02 -5.9507068547030362e-01 +6.0435672700474606e-03
-8.2999999999999865e+00 +7.9180481411877901e+00 +0.0000000000000000e+00 -8.2999996939932164e+00 -3.1420794218236001e-02 -5.9507143973464793e-01 +6.0431646302115637e-03
-8.3999999999999861e+00 +7.9180008242582778e+00 +0.0000000000000000e+00 -8.3999996827986223e+00 -3.1420815216347826e-02 -5.9507217426734971e-01 +6.0427602296615852e-03
-8.4999999999999858e+00 +7.9179529406256712e+00 +0.0000000000000000e+00 -8.4999996713342760e+00 -3.1420817158517883e-02 -5.9507289046188683e-01 +6.0423542701340989e-03
-8.5999999999999854e+00 +7.9179044902892910e+00 +0.0000000000000000e+00 -8.5999996595969659e+00 -3.1420800992361914e-02 -5.9507358971170543e-01 +6.0419469533779160e-03
-8.6999999999999851e+00 +7.9178554732484718e+00 +0.0000000000000000e+00 -8.6999996475834802e+00 -3.1420767665509448e-02 -5.9507427341021868e-01 +6.0415384811544843e-03
-8.7999999999999847e+00 +7.9178058895025645e+00 +0.0000000000000000e+00 -8.7999996352906056e+00 -3.1420718125604000e-02 -5.9507494295080543e-01 +6.0411290552382507e-03
-8.8999999999999844e+00 +7.9177557390509330e+00 +0.0000000000000000e+00 -8.8999996227151321e+00 -3.1420653320303464e-02 -5.9507559972680812e-01 +6.0407188774170666e-03
-8.9999999999999840e+00 +7.9177050218929530e+00 +0.0000000000000000e+00 -8.9999996098538464e+00 -3.1420574197280352e-02 -5.9507624513153223e-01 +6.0403081494925619e-03
-9.0999999999999837e+00 +7.9176537380280116e+00 +0.0000000000000000e+00 -9.0999995967035385e+00 -3.1420481704222111e-02 -5.9507688055824459e-01 +6.0398970732805386e-03
-9.1999999999999833e+00 +7.9176018874555050e+00 +0.0000000000000000e+00 -9.1999995832609951e+00 -3.1420376788831403e-02 -5.9507750740017129e-01 +6.0394858506113477e-03
-9.2999999999999829e+00 +7.9175494701748379e+00 +0.0000000000000000e+00 -9.2999995695230044e+00 -3.1420260398826436e-02 -5.9507812705049723e-01 +6.0390746833302814e-03
-9.3999999999999826e+00 +7.9174964861854216e+00 +0.0000000000000000e+00 -9.3999995554863531e+00 -3.1420133481941205e-02 -5.9507874090236357e-01 +6.0386637732979549e-03
-9.4999999999999822e+00 +7.9174429354866733e+00 +0.0000000000000000e+00 -9.4999995411478313e+00 -3.1419996985925826e-02 -5.9507935034886705e-01 +6.0382533223906892e-03
-9.5999999999999819e+00 +7.9173888180780141e+00 +0.0000000000000000e+00 -9.5999995265042273e+00 -3.1419851858546836e-02 -5.9507995678305858e-01 +6.0378435325009030e-03
-9.6999999999999815e+00 +7.9173341339588683e+00 +0.0000000000000000e+00 -9.6999995115523276e+00 -3.1419699047587429e-02 -5.9508056159794165e-01 +6.0374346055374929e-03
-9.7999999999999812e+00 +7.9172788831286613e+00 +0.0000000000000000e+00 -9.7999994962889208e+00 -3.1419539500847825e-02 -5.9508116618647011e-01 +6.0370267434262130e-03
-9.8999999999999808e+00 +7.9172230655868194e+00 +0.0000000000000000e+00 -9.8999994807107967e+00 -3.1419374166145528e-02 -5.9508177194154854e-01 +6.0366201481100758e-03
-9.9999999999999805e+00 +7.9171666813327670e+00 +0.0000000000000000e+00 -9.9999994648147403e+00 -3.1419203991315578e-02 -5.9508238025602833e-01 +6.0362150215497205e-03
-1.0099999999999980e+01 +7.9171097303659268e+00 +0.0000000000000000e+00 -1.0099999448597542e+01 -3.1419029977203222e-02 -5.9508299243948459e-01 +6.0358115177079974e-03
-1.0199999999999980e+01 +7.9170522126857179e+00 +0.0000000000000000e+00 -1.0199999432055989e+01 -3.1418853336610077e-02 -5.9508360946854744e-01 +6.0354095984910504e-03
-1.0299999999999979e+01 +7.9169941282915532e+00 +0.0000000000000000e+00 -1.0299999415186869e+01 -3.1418675335254727e-02 -5.9508423223659868e-01 +6.0350091777820608e-03
-1.0399999999999979e+01 +7.9169354771828431e+00 +0.0000000000000000e+00 -1.0399999397986971e+01 -3.1418497238767967e-02 -5.9508486163699981e-01 +6.0346101694561611e-03
-1.0499999999999979e+01 +7.9168762593589888e+00 +0.0000000000000000e+00 -1.0499999380453081e+01 -3.1418320312690630e-02 -5.9508549856309378e-01 +6.0342124873801941e-03
-1.0599999999999978e+01 +7.9168164748193854e+00 +0.0000000000000000e+00 -1.0599999362581990e+01 -3.1418145822471280e-02 -5.9508614390820214e-01 +6.0338160454124325e-03
-1.0699999999999978e+01 +7.9167561235634212e+00 +0.0000000000000000e+00 -1.0699999344370484e+01 -3.1417975033463989e-02 -5.9508679856562463e-01 +6.0334207574023347e-03
-1.0799999999999978e+01 +7.9166952055904742e+00 +0.0000000000000000e+00 -1.0799999325815351e+01 -3.1417809210926108e-02 -5.9508746342864072e-01 +6.0330265371902770e-03
-1.0899999999999977e+01 +7.9166337208999122e+00 +0.0000000000000000e+00 -1.0899999306913379e+01 -3.1417649620015947e-02 -5.9508813939050675e-01 +6.0326332986072907e-03
-1.0999999999999977e+01 +7.9165716694910948e+00 +0.0000000000000000e+00 -1.0999999287661357e+01 -3.1417497525790601e-02 -5.9508882734445667e-01 +6.0322409554748116e-03
-1.1099999999999977e+01 +7.9165090513633682e+00 +0.0000000000000000e+00 -1.1099999268056072e+01 -3.1417354193203670e-02 -5.9508952818370098e-01 +6.0318494216044134e-03
-1.1199999999999976e+01 +7.9164458665160664e+00 +0.0000000000000000e+00 -1.1199999248094311e+01 -3.1417220887103005e-02 -5.9509024280142608e-01 +6.0314586107975453e-03
-1.1299999999999976e+01 +7.9163821149485116e+00 +0.0000000000000000e+00 -1.1299999227772863e+01 -3.1417098872228454e-02 -5.9509097209079420e-01 +6.0310684368452818e-03
-1.1399999999999975e+01 +7.9163177966600111e+00 +0.0000000000000000e+00 -1.1399999207088516e+01 -3.1416989413209605e-02 -5.9509171694494267e-01 +6.0306788135280525e-03
-1.1499999999999975e+01 +7.9162529116498570e+00 +0.0000000000000000e+00 -1.1499999186038057e+01 -3.1416893774563553e-02 -5.9509247825698242e-01 +6.0302896546153917e-03
-1.1599999999999975e+01 +7.9161874599173263e+00 +0.0000000000000000e+00 -1.1599999164618275e+01 -3.1416813220692633e-02 -5.9509325691999937e-01 +6.0299008738656686e-03
-1.1699999999999974e+01 +7.9161214414616801e+00 +0.0000000000000000e+00 -1.1699999142825956e+01 -3.1416749015882151e-02 -5.9509405382705172e-01 +6.0295123850258462e-03
