# field on trajectory
# s[mm] rx[mm] ry[mm] rz[mm] bx[T] by[T] bz[T]
0.0000000000000000e+00 +8.1530000000000094e+00 +0.0000000000000000e+00 +0.0000000000000000e+00 -2.9678410919244010e-02 -5.6495318951305273e-01 +5.6429648405975173e-03
1.0000000000000001e-01 +8.1529997163925092e+00 +0.0000000000000000e+00 +9.9999999999463796e-02 -2.9678410872355721e-02 -5.6495297975125269e-01 +5.6429620321674307e-03
2.0000000000000001e-01 +8.1529988655711296e+00 +0.0000000000000000e+00 +1.9999999999571000e-01 -2.9678401586203568e-02 -5.6495278173512653e-01 +5.6429598600903170e-03
2.9999999999999999e-01 +8.1529974475415692e+00 +0.0000000000000000e+00 +2.9999999998552201e-01 -2.9678384385792098e-02 -5.6495259538518783e-01 +5.6429582203305828e-03
4.0000000000000002e-01 +8.1529954622965306e+00 +0.0000000000000000e+00 +3.9999999996568197e-01 -2.9678360596124605e-02 -5.6495242062204165e-01 +5.6429570088527281e-03
5.0000000000000000e-01 +8.1529929098396696e+00 +0.0000000000000000e+00 +4.9999999993297300e-01 -2.9678331542192717e-02 -5.6495225736620214e-01 +5.6429561216194205e-03
5.9999999999999998e-01 +8.1529897901673394e+00 +0.0000000000000000e+00 +5.9999999988417696e-01 -2.9678298548983430e-02 -5.6495210553823771e-01 +5.6429554545929083e-03
6.9999999999999996e-01 +8.1529861032831796e+00 +0.0000000000000000e+00 +6.9999999981607697e-01 -2.9678262941472560e-02 -5.6495196505866052e-01 +5.6429549037338338e-03
8.0000000000000004e-01 +8.1529818491871993e+00 +0.0000000000000000e+00 +7.9999999972545699e-01 -2.9678226044628706e-02 -5.6495183584801523e-01 +5.6429543650020715e-03
9.0000000000000002e-01 +8.1529770278793894e+00 +0.0000000000000000e+00 +8.9999999960909804e-01 -2.9678189183411266e-02 -5.6495171782685416e-01 +5.6429537343564012e-03
1.0000000000000000e+00 +8.1529716393597500e+00 +0.0000000000000000e+00 +9.9999999946378304e-01 -2.9678153682769885e-02 -5.6495161091574031e-01 +5.6429529077544859e-03
1.1000000000000001e+00 +8.1529656836210105e+00 +0.0000000000000000e+00 +1.0999999992862901e+00 -2.9678120867646929e-02 -5.6495151503530783e-01 +5.6429517811534130e-03
1.2000000000000000e+00 +8.1529591606740706e+00 +0.0000000000000000e+00 +1.1999999990734200e+00 -2.9678092062966514e-02 -5.6495143010606730e-01 +5.6429502505076353e-03
1.3000000000000000e+00 +8.1529520705153100e+00 +0.0000000000000000e+00 +1.2999999988219300e+00 -2.9678068593647414e-02 -5.6495135604866276e-01 +5.6429482117715526e-03
1.3999999999999999e+00 +8.1529444131410909e+00 +0.0000000000000000e+00 +1.3999999985286200e+00 -2.9678051784596596e-02 -5.6495129278376388e-01 +5.6429455608983181e-03
1.5000000000000000e+00 +8.1529361885550298e+00 +0.0000000000000000e+00 +1.4999999981902701e+00 -2.9678042960705663e-02 -5.6495124023201071e-01 +5.6429421938392265e-03
1.6000000000000001e+00 +8.1529273967571498e+00 +0.0000000000000000e+00 +1.5999999978036501e+00 -2.9678043446854849e-02 -5.6495119831410323e-01 +5.6429380065445576e-03
1.7000000000000000e+00 +8.1529180377474404e+00 +0.0000000000000000e+00 +1.6999999973655600e+00 -2.9678054567911002e-02 -5.6495116695077641e-01 +5.6429328949632422e-03
1.8000000000000000e+00 +8.1529081115222706e+00 +0.0000000000000000e+00 +1.7999999968727800e+00 -2.9678077648728547e-02 -5.6495114606283092e-01 +5.6429267550431447e-03
1.8999999999999999e+00 +8.1528976180852606e+00 +0.0000000000000000e+00 +1.8999999963220899e+00 -2.9678114014144490e-02 -5.6495113557105314e-01 +5.6429194827301368e-03
2.0000000000000000e+00 +8.1528865574327902e+00 +0.0000000000000000e+00 +1.9999999957102601e+00 -2.9678164988983860e-02 -5.6495113539633068e-01 +5.6429109739692482e-03
2.1000000000000001e+00 +8.1528749295721408e+00 +0.0000000000000000e+00 +2.0999999950340902e+00 -2.9678231507278944e-02 -5.6495114531721780e-01 +5.6429011669811976e-03
2.2000000000000002e+00 +8.1528627344960096e+00 +0.0000000000000000e+00 +2.1999999942903599e+00 -2.9678312939968969e-02 -5.6495116454323313e-01 +5.6428901690989712e-03
2.2999999999999998e+00 +8.1528499722080596e+00 +0.0000000000000000e+00 +2.2999999934758399e+00 -2.9678408267222553e-02 -5.6495119214151945e-01 +5.6428781299323614e-03
2.3999999999999999e+00 +8.1528366427046404e+00 +0.0000000000000000e+00 +2.3999999925873299e+00 -2.9678516469222250e-02 -5.6495122717927537e-01 +5.6428651990915726e-03
2.5000000000000000e+00 +8.1528227459894005e+00 +0.0000000000000000e+00 +2.4999999916215998e+00 -2.9678636526160790e-02 -5.6495126872363899e-01 +5.6428515261861874e-03
2.6000000000000001e+00 +8.1528082820659602e+00 +0.0000000000000000e+00 +2.5999999905754398e+00 -2.9678767418246391e-02 -5.6495131584174441e-01 +5.6428372608258301e-03
2.7000000000000002e+00 +8.1527932509234198e+00 +0.0000000000000000e+00 +2.6999999894456299e+00 -2.9678908125711011e-02 -5.6495136760082776e-01 +5.6428225526214586e-03
2.7999999999999998e+00 +8.1527776525726896e+00 +0.0000000000000000e+00 +2.7999999882289601e+00 -2.9679057628797599e-02 -5.6495142306794643e-01 +5.6428075511825533e-03
2.8999999999999999e+00 +8.1527614870065008e+00 +0.0000000000000000e+00 +2.8999999869222002e+00 -2.9679214907778900e-02 -5.6495148131028472e-01 +5.6427924061204201e-03
3.0000000000000000e+00 +8.1527447542284808e+00 +0.0000000000000000e+00 +2.9999999855221300e+00 -2.9679378942947757e-02 -5.6495154139492665e-01 +5.6427772670459911e-03
3.1000000000000001e+00 +8.1527274542386294e+00 +0.0000000000000000e+00 +3.0999999840255499e+00 -2.9679548714625324e-02 -5.6495160238896569e-01 +5.6427622835710780e-03
3.2000000000000002e+00 +8.1527095870333106e+00 +0.0000000000000000e+00 +3.1999999824292300e+00 -2.9679723203163377e-02 -5.6495166335950242e-01 +5.6427476053084839e-03
3.2999999999999998e+00 +8.1526911526198091e+00 +0.0000000000000000e+00 +3.2999999807299600e+00 -2.9679901388940593e-02 -5.6495172337352895e-01 +5.6427333818709563e-03
3.3999999999999999e+00 +8.1526721509872004e+00 +0.0000000000000000e+00 +3.3999999789245101e+00 -2.9680082252376824e-02 -5.6495178149815239e-01 +5.6427197628736115e-03
3.5000000000000000e+00 +8.1526525821464002e+00 +0.0000000000000000e+00 +3.4999999770096801e+00 -2.9680264773918833e-02 -5.6495183680028205e-01 +5.6427068979308511e-03
3.6000000000000001e+00 +8.1526324460901396e+00 +0.0000000000000000e+00 +3.5999999749822500e+00 -2.9680447934059148e-02 -5.6495188834693699e-01 +5.6426949366596606e-03
3.7000000000000002e+00 +8.1526117428220495e+00 +0.0000000000000000e+00 +3.6999999728389801e+00 -2.9680630713326255e-02 -5.6495193520501752e-01 +5.6426840286774027e-03
3.7999999999999998e+00 +8.1525904723421299e+00 +0.0000000000000000e+00 +3.7999999705766800e+00 -2.9680812092292955e-02 -5.6495197644141626e-01 +5.6426743236030787e-03
3.8999999999999999e+00 +8.1525686346503807e+00 +0.0000000000000000e+00 +3.8999999681921298e+00 -2.9680991051577080e-02 -5.6495201112298710e-01 +5.6426659710571451e-03
4.0000000000000000e+00 +8.1525462297431694e+00 +0.0000000000000000e+00 +3.9999999656820902e+00 -2.9681166571845292e-02 -5.6495203831657015e-01 +5.6426591206619244e-03
4.0999999999999996e+00 +8.1525232576241304e+00 +0.0000000000000000e+00 +4.0999999630433699e+00 -2.9681337829588893e-02 -5.6495205736334042e-01 +5.6426538928544372e-03
4.2000000000000002e+00 +8.1524997182896204e+00 +0.0000000000000000e+00 +4.1999999602727298e+00 -2.9681504784443747e-02 -5.6495206870223713e-01 +5.6426502913290624e-03
4.2999999999999998e+00 +8.1524756117469206e+00 +0.0000000000000000e+00 +4.2999999573669703e+00 -2.9681667591807917e-02 -5.6495207304654893e-01 +5.6426482905966380e-03
4.4000000000000004e+00 +8.1524509379887604e+00 +0.0000000000000000e+00 +4.3999999543228601e+00 -2.9681826407066122e-02 -5.6495207110967605e-01 +5.6426478651732939e-03
4.5000000000000000e+00 +8.1524256970187707e+00 +0.0000000000000000e+00 +4.4999999511372000e+00 -2.9681981385577361e-02 -5.6495206360493710e-01 +5.6426489895786847e-03
4.5999999999999996e+00 +8.1523998888369498e+00 +0.0000000000000000e+00 +4.5999999478067499e+00 -2.9682132682679004e-02 -5.6495205124568082e-01 +5.6426516383373624e-03
4.7000000000000002e+00 +8.1523735134396702e+00 +0.0000000000000000e+00 +4.6999999443283098e+00 -2.9682280453684748e-02 -5.6495203474528588e-01 +5.6426557859789901e-03
4.7999999999999998e+00 +8.1523465708305594e+00 +0.0000000000000000e+00 +4.7999999406986600e+00 -2.9682424853878300e-02 -5.6495201481707835e-01 +5.6426614070377310e-03
4.9000000000000004e+00 +8.1523190610096208e+00 +0.0000000000000000e+00 +4.8999999369145701e+00 -2.9682566038515872e-02 -5.6495199217441427e-01 +5.6426684760533105e-03
5.0000000000000000e+00 +8.1522909839768491e+00 +0.0000000000000000e+00 +4.9999999329728402e+00 -2.9682704162822798e-02 -5.6495196753065435e-01 +5.6426769675709844e-03
5.0999999999999996e+00 +8.1522623397286207e+00 +0.0000000000000000e+00 +5.0999999288702398e+00 -2.9682839381993016e-02 -5.6495194159919049e-01 +5.6426868561420315e-03
5.2000000000000002e+00 +8.1522331282685592e+00 +0.0000000000000000e+00 +5.1999999246035600e+00 -2.9682971851182741e-02 -5.6495191509336351e-01 +5.6426981163231324e-03
5.2999999999999998e+00 +8.1522033495966806e+00 +0.0000000000000000e+00 +5.2999999201695802e+00 -2.9683101725512966e-02 -5.6495188872654656e-01 +5.6427107226774522e-03
5.4000000000000004e+00 +8.1521730037093203e+00 +0.0000000000000000e+00 +5.3999999155650800e+00 -2.9683229160067517e-02 -5.6495186321214597e-01 +5.6427246497748711e-03
5.5000000000000000e+00 +8.1521420906137791e+00 +0.0000000000000000e+00 +5.4999999107868396e+00 -2.9683354309885144e-02 -5.6495183926348891e-01 +5.6427398721910563e-03
5.5999999999999996e+00 +8.1521106102991308e+00 +0.0000000000000000e+00 +5.5999999058316599e+00 -2.9683477329969583e-02 -5.6495181759405022e-01 +5.6427563645100086e-03
5.7000000000000002e+00 +8.1520785627762997e+00 +0.0000000000000000e+00 +5.6999999006963096e+00 -2.9683598375271115e-02 -5.6495179891714087e-01 +5.6427741013210884e-03
5.7999999999999998e+00 +8.1520459480379905e+00 +0.0000000000000000e+00 +5.7999998953775700e+00 -2.9683717600701123e-02 -5.6495178394621970e-01 +5.6427930572224526e-03
5.9000000000000004e+00 +8.1520127660915005e+00 +0.0000000000000000e+00 +5.8999998898722197e+00 -2.9683835161116640e-02 -5.6495177339463931e-01 +5.6428132068186577e-03
5.9999999999999902e+00 +8.1519790169259103e+00 +0.0000000000000000e+00 +5.9999998841770603e+00 -2.9683951211331969e-02 -5.6495176797590230e-01 +5.6428345247234992e-03
6.0999999999999899e+00 +8.1519447005521197e+00 +0.0000000000000000e+00 +6.0999998782888598e+00 -2.9684065774567985e-02 -5.6495176829410176e-01 +5.6428569668727641e-03
6.1999999999999904e+00 +8.1519098169665103e+00 +0.0000000000000000e+00 +6.1999998722044003e+00 -2.9684178347893969e-02 -5.6495177451645495e-01 +5.6428804144695588e-03
6.2999999999999901e+00 +8.1518743661654298e+00 +0.0000000000000000e+00 +6.2999998659204701e+00 -2.9684288296865948e-02 -5.6495178670090895e-01 +5.6429047300279259e-03
6.3999999999999897e+00 +8.1518383481488907e+00 +0.0000000000000000e+00 +6.3999998594338496e+00 -2.9684394987066352e-02 -5.6495180490535601e-01 +5.6429297760554869e-03
6.4999999999999902e+00 +8.1518017629241495e+00 +0.0000000000000000e+00 +6.4999998527413201e+00 -2.9684497784103835e-02 -5.6495182918760489e-01 +5.6429554150528088e-03
6.5999999999999899e+00 +8.1517646104839496e+00 +0.0000000000000000e+00 +6.5999998458396698e+00 -2.9684596053623672e-02 -5.6495185960554839e-01 +5.6429815095148141e-03
6.6999999999999904e+00 +8.1517268908319203e+00 +0.0000000000000000e+00 +6.6999998387256703e+00 -2.9684689161298614e-02 -5.6495189621696529e-01 +5.6430079219283880e-03
6.7999999999999901e+00 +8.1516886039680703e+00 +0.0000000000000000e+00 +6.7999998313961196e+00 -2.9684776472836266e-02 -5.6495193907963204e-01 +5.6430345147732161e-03
6.8999999999999897e+00 +8.1516497498923908e+00 +0.0000000000000000e+00 +6.8999998238477902e+00 -2.9684857353979008e-02 -5.6495198825129378e-01 +5.6430611505211463e-03
6.9999999999999902e+00 +8.1516103286012402e+00 +0.0000000000000000e+00 +6.9999998160774597e+00 -2.9684931170506829e-02 -5.6495204378969222e-01 +5.6430876916361370e-03
7.0999999999999899e+00 +8.1515703400982602e+00 +0.0000000000000000e+00 +7.0999998080819298e+00 -2.9684997288234143e-02 -5.6495210575247767e-01 +5.6431140005730393e-03
7.1999999999999904e+00 +8.1515297843834595e+00 +0.0000000000000000e+00 +7.1999997998579603e+00 -2.9685055073015800e-02 -5.6495217419729593e-01 +5.6431399397781374e-03
7.2999999999999901e+00 +8.1514886614531896e+00 +0.0000000000000000e+00 +7.2999997914023496e+00 -2.9685103890748365e-02 -5.6495224918178544e-01 +5.6431653716888085e-03
7.3999999999999897e+00 +8.1514469713147300e+00 +0.0000000000000000e+00 +7.3999997827118804e+00 -2.9685143107365534e-02 -5.6495233076346285e-01 +5.6431901587320008e-03
7.4999999999999902e+00 +8.1514047139571595e+00 +0.0000000000000000e+00 +7.4999997737833199e+00 -2.9685172088851471e-02 -5.6495241899994963e-01 +5.6432141633262463e-03
7.5999999999999899e+00 +8.1513618893914099e+00 +0.0000000000000000e+00 +7.5999997646134698e+00 -2.9685190201225755e-02 -5.6495251394865964e-01 +5.6432372478780954e-03
7.6999999999999904e+00 +8.1513184976138309e+00 +0.0000000000000000e+00 +7.6999997551991104e+00 -2.9685196810559707e-02 -5.6495261566707999e-01 +5.6432592747847040e-03
7.7999999999999901e+00 +8.1512745386207808e+00 +0.0000000000000000e+00 +7.7999997455370096e+00 -2.9685191282971774e-02 -5.6495272421265874e-01 +5.6432801064323201e-03
7.8999999999999897e+00 +8.1512300124159101e+00 +0.0000000000000000e+00 +7.8999997356239602e+00 -2.9685172984625932e-02 -5.6495283964274512e-01 +5.6432996051953626e-03
7.9999999999999902e+00 +8.1511849189955701e+00 +0.0000000000000000e+00 +7.9999997254567399e+00 -2.9685141281739054e-02 -5.6495296201470324e-01 +5.6433176334372438e-03
8.0999999999999908e+00 +8.1511392583670403e+00 +0.0000000000000000e+00 +8.0999997150321406e+00 -2.9685095931443618e-02 -5.6495309139569228e-01 +5.6433341129588019e-03
8.1999999999999904e+00 +8.1510930305230396e+00 +0.0000000000000000e+00 +8.1999997043469399e+00 -2.9685038254384347e-02 -5.6495322789266300e-01 +5.6433492033565518e-03
8.2999999999999901e+00 +8.1510462354672200e+00 +0.0000000000000000e+00 +8.2999996933979094e+00 -2.9684969962034072e-02 -5.6495337162245574e-01 +5.6433631236757261e-03
8.3999999999999897e+00 +8.1509988731995708e+00 +0.0000000000000000e+00 +8.3999996821818605e+00 -2.9684892765814191e-02 -5.6495352270200139e-01 +5.6433760929612484e-03
8.4999999999999893e+00 +8.1509509437164507e+00 +0.0000000000000000e+00 +8.4999996706955496e+00 -2.9684808377092843e-02 -5.6495368124832457e-01 +5.6433883302577292e-03
8.5999999999999908e+00 +8.1509024470215099e+00 +0.0000000000000000e+00 +8.5999996589357703e+00 -2.9684718507178548e-02 -5.6495384737846055e-01 +5.6434000546086360e-03
8.6999999999999904e+00 +8.1508533831147396e+00 +0.0000000000000000e+00 +8.6999996468993004e+00 -2.9684624867322911e-02 -5.6495402120954119e-01 +5.6434114850571603e-03
8.7999999999999794e+00 +8.1508037519961398e+00 +0.0000000000000000e+00 +8.7999996345829192e+00 -2.9684529168717267e-02 -5.6495420285877018e-01 +5.6434228406459612e-03
8.8999999999999808e+00 +8.1507535536620708e+00 +0.0000000000000000e+00 +8.8999996219834205e+00 -2.9684433122492394e-02 -5.6495439244345447e-01 +5.6434343404174747e-03
8.9999999999999805e+00 +8.1507027881161793e+00 +0.0000000000000000e+00 +8.9999996090975891e+00 -2.9684338439712174e-02 -5.6495459008091897e-01 +5.6434462034130458e-03
9.0999999999999801e+00 +8.1506514553584601e+00 +0.0000000000000000e+00 +9.0999995959221902e+00 -2.9684246831376212e-02 -5.6495479588859521e-01 +5.6434586486738287e-03
9.1999999999999797e+00 +8.1505995553889097e+00 +0.0000000000000000e+00 +9.1999995824540193e+00 -2.9684160008416602e-02 -5.6495500998399595e-01 +5.6434718952405203e-03
9.2999999999999794e+00 +8.1505470882038900e+00 +0.0000000000000000e+00 +9.2999995686898593e+00 -2.9684079681697489e-02 -5.6495523248474411e-01 +5.6434861621536478e-03
9.3999999999999808e+00 +8.1504940538070496e+00 +0.0000000000000000e+00 +9.3999995546264898e+00 -2.9684007562008823e-02 -5.6495546350849135e-01 +5.6435016684527380e-03
9.4999999999999805e+00 +8.1504404521983798e+00 +0.0000000000000000e+00 +9.4999995402606903e+00 -2.9683945360068974e-02 -5.6495570317300403e-01 +5.6435186331771844e-03
9.5999999999999801e+00 +8.1503862833778804e+00 +0.0000000000000000e+00 +9.5999995255892507e+00 -2.9683894786521448e-02 -5.6495595159613898e-01 +5.6435372753659892e-03
9.6999999999999797e+00 +8.1503315473419207e+00 +0.0000000000000000e+00 +9.6999995106089507e+00 -2.9683857551934475e-02 -5.6495620889587117e-01 +5.6435578140580662e-03
9.7999999999999794e+00 +8.1502762440941297e+00 +0.0000000000000000e+00 +9.7999994953165697e+00 -2.9683835366794763e-02 -5.6495647519021386e-01 +5.6435804682913784e-03
9.8999999999999808e+00 +8.1502203736345091e+00 +0.0000000000000000e+00 +9.8999994797088906e+00 -2.9683829941510097e-02 -5.6495675059730466e-01 +5.6436054571038377e-03
9.9999999999999805e+00 +8.1501639359594300e+00 +0.0000000000000000e+00 +9.9999994637827001e+00 -2.9683842986407513e-02 -5.6495703523540708e-01 +5.6436329995333025e-03
1.0100000000000000e+01 +8.1501069310761505e+00 +0.0000000000000000e+00 +1.0099999447534801e+01 -2.9683875691690113e-02 -5.6495732913717511e-01 +5.6436632483131749e-03
1.0199999999999999e+01 +8.1500493589774106e+00 +0.0000000000000000e+00 +1.0199999430961901e+01 -2.9683927167358209e-02 -5.6495763199293381e-01 +5.6436960909638763e-03
1.0300000000000001e+01 +8.1499912196668394e+00 +0.0000000000000000e+00 +1.0299999414060901e+01 -2.9683996003412750e-02 -5.6495794340729477e-01 +5.6437313487092550e-03
1.0400000000000000e+01 +8.1499325131444493e+00 +0.0000000000000000e+00 +1.0399999396828500e+01 -2.9684080789928336e-02 -5.6495826298488694e-01 +5.6437688427843167e-03
1.0500000000000000e+01 +8.1498732394065900e+00 +0.0000000000000000e+00 +1.0499999379261400e+01 -2.9684180117055255e-02 -5.6495859033035623e-01 +5.6438083944355243e-03
1.0600000000000000e+01 +8.1498133984568994e+00 +0.0000000000000000e+00 +1.0599999361356600e+01 -2.9684292575016993e-02 -5.6495892504827983e-01 +5.6438498249202140e-03
1.0699999999999999e+01 +8.1497529902953794e+00 +0.0000000000000000e+00 +1.0699999343110701e+01 -2.9684416754116830e-02 -5.6495926674325081e-01 +5.6438929555077486e-03
1.0800000000000001e+01 +8.1496920149220404e+00 +0.0000000000000000e+00 +1.0799999324520600e+01 -2.9684551244738313e-02 -5.6495961501984915e-01 +5.6439376074795128e-03
1.0900000000000000e+01 +8.1496304723332305e+00 +0.0000000000000000e+00 +1.0899999305583000e+01 -2.9684694637348904e-02 -5.6495996948266902e-01 +5.6439836021295042e-03
1.1000000000000000e+01 +8.1495683625325892e+00 +0.0000000000000000e+00 +1.0999999286294800e+01 -2.9684845522497408e-02 -5.6496032973623445e-01 +5.6440307607637345e-03
1.1100000000000000e+01 +8.1495056855201309e+00 +0.0000000000000000e+00 +1.1099999266652601e+01 -2.9685002490820622e-02 -5.6496069538508220e-01 +5.6440789047014061e-03
1.1199999999999999e+01 +8.1494424412958306e+00 +0.0000000000000000e+00 +1.1199999246653300e+01 -2.9685164133043809e-02 -5.6496106603373375e-01 +5.6441278552748905e-03
1.1300000000000001e+01 +8.1493786298560700e+00 +0.0000000000000000e+00 +1.1299999226293700e+01 -2.9685329039984325e-02 -5.6496144128672299e-01 +5.6441774338303261e-03
1.1400000000000000e+01 +8.1493142512044905e+00 +0.0000000000000000e+00 +1.1399999205570500e+01 -2.9685495802549068e-02 -5.6496182074850954e-01 +5.6442274617270168e-03
1.1500000000000000e+01 +8.1492493053447106e+00 +0.0000000000000000e+00 +1.1499999184480499e+01 -2.9685663011739617e-02 -5.6496220402353758e-01 +5.6442777603383214e-03
1.1600000000000000e+01 +8.1491837922658306e+00 +0.0000000000000000e+00 +1.1599999163020600e+01 -2.9685829258660226e-02 -5.6496259071634491e-01 +5.6443281510530985e-03
1.1699999999999999e+01 +8.1491177119787608e+00 +0.0000000000000000e+00 +1.1699999141187400e+01 -2.9685993134504967e-02 -5.6496298043128257e-01 +5.6443784552730790e-03
1.1800000000000001e+01 +8.1490510644762306e+00 +0.0000000000000000e+00 +1.1799999118977800e+01 -2.9686153230576124e-02 -5.6496337277282271e-01 +5.6444284944163663e-03
