# field on trajectory
# s[mm] rx[mm] ry[mm] rz[mm] bx[T] by[T] bz[T]
0.0000000000000000e+00 +7.9199999999999999e+00 +0.0000000000000000e+00 +0.0000000000000000e+00 -2.8159832146736327e-02 -5.3860361686154545e-01 +5.4254713042877723e-03
-1.0000000000000001e-01 +7.9199997169191612e+00 +0.0000000000000000e+00 -9.9999999999465766e-02 -2.8159911119467241e-02 -5.3860365066760052e-01 +5.4254538086312915e-03
-2.0000000000000001e-01 +7.9199988676766191e+00 +0.0000000000000000e+00 -1.9999999999572615e-01 -2.8160004608104965e-02 -5.3860369292100208e-01 +5.4254375360888651e-03
-3.0000000000000004e-01 +7.9199974522723293e+00 +0.0000000000000000e+00 -2.9999999998557575e-01 -2.8160111348541208e-02 -5.3860374401516009e-01 +5.4254224877829937e-03
-4.0000000000000002e-01 +7.9199954707062385e+00 +0.0000000000000000e+00 -3.9999999996580915e-01 -2.8160230076663729e-02 -5.3860380434347066e-01 +5.4254086648373549e-03
-5.0000000000000000e-01 +7.9199929229782837e+00 +0.0000000000000000e+00 -4.9999999993322097e-01 -2.8160359528356708e-02 -5.3860387429931789e-01 +5.4253960683766991e-03
-5.9999999999999998e-01 +7.9199898090883902e+00 +0.0000000000000000e+00 -5.9999999988460584e-01 -2.8160498439501143e-02 -5.3860395427607732e-01 +5.4253846995267873e-03
-6.9999999999999996e-01 +7.9199861290364746e+00 +0.0000000000000000e+00 -6.9999999981675831e-01 -2.8160645545975093e-02 -5.3860404466711675e-01 +5.4253745594142937e-03
-7.9999999999999993e-01 +7.9199818828224426e+00 +0.0000000000000000e+00 -7.9999999972647307e-01 -2.8160799583654066e-02 -5.3860414586579919e-01 +5.4253656491667157e-03
-8.9999999999999991e-01 +7.9199770704461869e+00 +0.0000000000000000e+00 -8.9999999961054467e-01 -2.8160959288411419e-02 -5.3860425826548464e-01 +5.4253579699123020e-03
-9.9999999999999989e-01 +7.9199716919075902e+00 +0.0000000000000000e+00 -9.9999999946576767e-01 -2.8161123396118589e-02 -5.3860438225953300e-01 +5.4253515227799566e-03
-1.0999999999999999e+00 +7.9199657472065219e+00 +0.0000000000000000e+00 -1.0999999992889367e+00 -2.8161290642645481e-02 -5.3860451824130506e-01 +5.4253463088991555e-03
-1.2000000000000000e+00 +7.9199592363428390e+00 +0.0000000000000000e+00 -1.1999999990768464e+00 -2.8161459763860835e-02 -5.3860466660416528e-01 +5.4253423293998690e-03
-1.3000000000000000e+00 +7.9199521593163862e+00 +0.0000000000000000e+00 -1.2999999988262914e+00 -2.8161629495632553e-02 -5.3860482774148433e-01 +5.4253395854124637e-03
-1.4000000000000001e+00 +7.9199445161269946e+00 +0.0000000000000000e+00 -1.3999999985340661e+00 -2.8161798573827997e-02 -5.3860500204664119e-01 +5.4253380780676288e-03
-1.5000000000000002e+00 +7.9199363067744804e+00 +0.0000000000000000e+00 -1.4999999981969652e+00 -2.8161965734314402e-02 -5.3860518991302408e-01 +5.4253378084962870e-03
-1.6000000000000003e+00 +7.9199275312586463e+00 +0.0000000000000000e+00 -1.5999999978117831e+00 -2.8162129712959155e-02 -5.3860539173403443e-01 +5.4253387778295005e-03
-1.7000000000000004e+00 +7.9199181895792812e+00 +0.0000000000000000e+00 -1.6999999973753148e+00 -2.8162289245630159e-02 -5.3860560790308798e-01 +5.4253409871984053e-03
-1.8000000000000005e+00 +7.9199082817361575e+00 +0.0000000000000000e+00 -1.7999999968843545e+00 -2.8162443068196208e-02 -5.3860583881361723e-01 +5.4253444377341106e-03
-1.9000000000000006e+00 +7.9198978077290327e+00 +0.0000000000000000e+00 -1.8999999963356968e+00 -2.8162589916527252e-02 -5.3860608485907324e-01 +5.4253491305676117e-03
-2.0000000000000004e+00 +7.9198867675576494e+00 +0.0000000000000000e+00 -1.9999999957261363e+00 -2.8162728526494825e-02 -5.3860634643292860e-01 +5.4253550668297177e-03
-2.1000000000000005e+00 +7.9198751612217322e+00 +0.0000000000000000e+00 -2.0999999950524675e+00 -2.8162857866687381e-02 -5.3860662370765522e-01 +5.4253622281756342e-03
-2.2000000000000006e+00 +7.9198629887209897e+00 +0.0000000000000000e+00 -2.1999999943114852e+00 -2.8162977836557364e-02 -5.3860691597164623e-01 +5.4253705183589873e-03
-2.3000000000000007e+00 +7.9198502500551164e+00 +0.0000000000000000e+00 -2.2999999934999837e+00 -2.8163088568278843e-02 -5.3860722229227120e-01 +5.4253798216578478e-03
-2.4000000000000008e+00 +7.9198369452237900e+00 +0.0000000000000000e+00 -2.3999999926147577e+00 -2.8163190194033506e-02 -5.3860754173689573e-01 +5.4253900223500112e-03
-2.5000000000000009e+00 +7.9198230742266746e+00 +0.0000000000000000e+00 -2.4999999916526012e+00 -2.8163282846011457e-02 -5.3860787337288074e-01 +5.4254010047129408e-03
-2.6000000000000010e+00 +7.9198086370634231e+00 +0.0000000000000000e+00 -2.5999999906103093e+00 -2.8163366656412069e-02 -5.3860821626758160e-01 +5.4254126530237055e-03
-2.7000000000000011e+00 +7.9197936337336756e+00 +0.0000000000000000e+00 -2.6999999894846760e+00 -2.8163441757444771e-02 -5.3860856948834590e-01 +5.4254248515589274e-03
-2.8000000000000012e+00 +7.9197780642370610e+00 +0.0000000000000000e+00 -2.7999999882724964e+00 -2.8163508281329849e-02 -5.3860893210251382e-01 +5.4254374845947150e-03
-2.9000000000000012e+00 +7.9197619285731982e+00 +0.0000000000000000e+00 -2.8999999869705646e+00 -2.8163566360299305e-02 -5.3860930317741573e-01 +5.4254504364066132e-03
-3.0000000000000013e+00 +7.9197452267416990e+00 +0.0000000000000000e+00 -2.9999999855756752e+00 -2.8163616126597603e-02 -5.3860968178037150e-01 +5.4254635912695318e-03
-3.1000000000000014e+00 +7.9197279587421647e+00 +0.0000000000000000e+00 -3.0999999840846226e+00 -2.8163657712482547e-02 -5.3861006697868885e-01 +5.4254768334576972e-03
-3.2000000000000015e+00 +7.9197101245741921e+00 +0.0000000000000000e+00 -3.1999999824942011e+00 -2.8163691250226042e-02 -5.3861045783966321e-01 +5.4254900472445883e-03
-3.3000000000000016e+00 +7.9196917242373708e+00 +0.0000000000000000e+00 -3.2999999808012057e+00 -2.8163716872114927e-02 -5.3861085343057580e-01 +5.4255031169028814e-03
-3.4000000000000017e+00 +7.9196727577312851e+00 +0.0000000000000000e+00 -3.3999999790024305e+00 -2.8163734710451790e-02 -5.3861125281869227e-01 +5.4255159267043804e-03
-3.5000000000000018e+00 +7.9196532250555158e+00 +0.0000000000000000e+00 -3.4999999770946699e+00 -2.8163744897555808e-02 -5.3861165507126196e-01 +5.4255283609199760e-03
-3.6000000000000019e+00 +7.9196331262096420e+00 +0.0000000000000000e+00 -3.5999999750747183e+00 -2.8163747565763470e-02 -5.3861205925551725e-01 +5.4255403038195689e-03
-3.7000000000000020e+00 +7.9196124611932381e+00 +0.0000000000000000e+00 -3.6999999729393700e+00 -2.8163742847429504e-02 -5.3861246443867083e-01 +5.4255516396720252e-03
-3.8000000000000020e+00 +7.9195912300058797e+00 +0.0000000000000000e+00 -3.7999999706854197e+00 -2.8163730874927601e-02 -5.3861286968791622e-01 +5.4255622527451045e-03
-3.9000000000000021e+00 +7.9195694326471413e+00 +0.0000000000000000e+00 -3.8999999683096620e+00 -2.8163711780651267e-02 -5.3861327407042547e-01 +5.4255720273054114e-03
-4.0000000000000018e+00 +7.9195470691165992e+00 +0.0000000000000000e+00 -3.9999999658088909e+00 -2.8163685697014624e-02 -5.3861367665334836e-01 +5.4255808476183255e-03
-4.1000000000000014e+00 +7.9195241394138307e+00 +0.0000000000000000e+00 -4.0999999631799007e+00 -2.8163652848643833e-02 -5.3861407658945992e-01 +5.4255886509966666e-03
-4.2000000000000011e+00 +7.9195006435384157e+00 +0.0000000000000000e+00 -4.1999999604194862e+00 -2.8163613828934550e-02 -5.3861447337411106e-01 +5.4255955869475670e-03
-4.3000000000000007e+00 +7.9194765814899384e+00 +0.0000000000000000e+00 -4.2999999575244416e+00 -2.8163569323452230e-02 -5.3861486658829627e-01 +5.4256018580274195e-03
-4.4000000000000004e+00 +7.9194519532679859e+00 +0.0000000000000000e+00 -4.3999999544915616e+00 -2.8163520017735609e-02 -5.3861525581300762e-01 +5.4256076667932663e-03
-4.5000000000000000e+00 +7.9194267588721496e+00 +0.0000000000000000e+00 -4.4999999513176396e+00 -2.8163466597294715e-02 -5.3861564062923517e-01 +5.4256132158028549e-03
-4.5999999999999996e+00 +7.9194009983020273e+00 +0.0000000000000000e+00 -4.5999999479994713e+00 -2.8163409747608812e-02 -5.3861602061796665e-01 +5.4256187076147074e-03
-4.6999999999999993e+00 +7.9193746715572191e+00 +0.0000000000000000e+00 -4.6999999445338503e+00 -2.8163350154124474e-02 -5.3861639536018813e-01 +5.4256243447881672e-03
-4.7999999999999989e+00 +7.9193477786373325e+00 +0.0000000000000000e+00 -4.7999999409175711e+00 -2.8163288502253536e-02 -5.3861676443688344e-01 +5.4256303298834607e-03
-4.8999999999999986e+00 +7.9193203195419803e+00 +0.0000000000000000e+00 -4.8999999371474283e+00 -2.8163225477371115e-02 -5.3861712742903578e-01 +5.4256368654617528e-03
-4.9999999999999982e+00 +7.9192922942707815e+00 +0.0000000000000000e+00 -4.9999999332202156e+00 -2.8163161764813583e-02 -5.3861748391762621e-01 +5.4256441540852050e-03
-5.0999999999999979e+00 +7.9192637028233630e+00 +0.0000000000000000e+00 -5.0999999291327276e+00 -2.8163098049876607e-02 -5.3861783348363490e-01 +5.4256523983170360e-03
-5.1999999999999975e+00 +7.9192345451993571e+00 +0.0000000000000000e+00 -5.1999999248817588e+00 -2.8163035017813108e-02 -5.3861817570804160e-01 +5.4256618007215750e-03
-5.2999999999999972e+00 +7.9192048213984059e+00 +0.0000000000000000e+00 -5.2999999204641037e+00 -2.8162973353831292e-02 -5.3861851017182449e-01 +5.4256725638643123e-03
-5.3999999999999968e+00 +7.9191745314201594e+00 +0.0000000000000000e+00 -5.3999999158765561e+00 -2.8162913743092596e-02 -5.3861883645596176e-01 +5.4256848903119709e-03
-5.4999999999999964e+00 +7.9191436752642748e+00 +0.0000000000000000e+00 -5.4999999111159106e+00 -2.8162856870709765e-02 -5.3861915414143102e-01 +5.4256989826325522e-03
-5.5999999999999961e+00 +7.9191122529304190e+00 +0.0000000000000000e+00 -5.5999999061789616e+00 -2.8162803421744775e-02 -5.3861946280920969e-01 +5.4257150433953943e-03
-5.6999999999999957e+00 +7.9190802644182696e+00 +0.0000000000000000e+00 -5.6999999010625038e+00 -2.8162754081206866e-02 -5.3861976204027562e-01 +5.4257332751712307e-03
-5.7999999999999954e+00 +7.9190477097275123e+00 +0.0000000000000000e+00 -5.7999998957633307e+00 -2.8162709534050558e-02 -5.3862005141560632e-01 +5.4257538805322506e-03
-5.8999999999999950e+00 +7.9190145888578440e+00 +0.0000000000000000e+00 -5.8999998902782371e+00 -2.8162670465173564e-02 -5.3862033051617997e-01 +5.4257770620521400e-03
-5.9999999999999947e+00 +7.9189809018089727e+00 +0.0000000000000000e+00 -5.9999998846040175e+00 -2.8162637559414911e-02 -5.3862059892297554e-01 +5.4258030223061637e-03
-6.0999999999999943e+00 +7.9189466485806177e+00 +0.0000000000000000e+00 -6.0999998787374654e+00 -2.8162611391448860e-02 -5.3862085651868319e-01 +5.4258318839812292e-03
-6.1999999999999940e+00 +7.9189118291725080e+00 +0.0000000000000000e+00 -6.1999998726753756e+00 -2.8162592095496611e-02 -5.3862110439284749e-01 +5.4258634502054471e-03
-6.2999999999999936e+00 +7.9188764435843852e+00 +0.0000000000000000e+00 -6.2999998664145425e+00 -2.8162579695685874e-02 -5.3862134393674244e-01 +5.4258974442194501e-03
-6.3999999999999932e+00 +7.9188404918159980e+00 +0.0000000000000000e+00 -6.3999998599517607e+00 -2.8162574216163489e-02 -5.3862157654166143e-01 +5.4259335892671307e-03
-6.4999999999999929e+00 +7.9188039738671030e+00 +0.0000000000000000e+00 -6.4999998532838239e+00 -2.8162575681096733e-02 -5.3862180359891787e-01 +5.4259716085957675e-03
-6.5999999999999925e+00 +7.9187668897374630e+00 +0.0000000000000000e+00 -6.5999998464075267e+00 -2.8162584114674611e-02 -5.3862202649984603e-01 +5.4260112254561291e-03
-6.6999999999999922e+00 +7.9187292394268445e+00 +0.0000000000000000e+00 -6.6999998393196636e+00 -2.8162599541109203e-02 -5.3862224663580216e-01 +5.4260521631025963e-03
-6.7999999999999918e+00 +7.9186910229350165e+00 +0.0000000000000000e+00 -6.7999998320170283e+00 -2.8162621984636923e-02 -5.3862246539816516e-01 +5.4260941447932774e-03
-6.8999999999999915e+00 +7.9186522402617507e+00 +0.0000000000000000e+00 -6.8999998244964154e+00 -2.8162651469519854e-02 -5.3862268417833792e-01 +5.4261368937901242e-03
-6.9999999999999911e+00 +7.9186128914068190e+00 +0.0000000000000000e+00 -6.9999998167546194e+00 -2.8162688020047021e-02 -5.3862290436774696e-01 +5.4261801333590426e-03
-7.0999999999999908e+00 +7.9185729763699904e+00 +0.0000000000000000e+00 -7.0999998087884348e+00 -2.8162731660535730e-02 -5.3862312735784534e-01 +5.4262235867700197e-03
-7.1999999999999904e+00 +7.9185324951510312e+00 +0.0000000000000000e+00 -7.1999998005946555e+00 -2.8162782415332828e-02 -5.3862335454011145e-01 +5.4262669772972248e-03
-7.2999999999999901e+00 +7.9184914477497044e+00 +0.0000000000000000e+00 -7.2999997921700759e+00 -2.8162840308816033e-02 -5.3862358730605120e-01 +5.4263100282191381e-03
-7.3999999999999897e+00 +7.9184498341657656e+00 +0.0000000000000000e+00 -7.3999997835114906e+00 -2.8162905365395272e-02 -5.3862382704719869e-01 +5.4263524628186642e-03
-7.4999999999999893e+00 +7.9184076543989654e+00 +0.0000000000000000e+00 -7.4999997746156932e+00 -2.8162977609513910e-02 -5.3862407515511712e-01 +5.4263940043832474e-03
-7.5999999999999890e+00 +7.9183649084490435e+00 +0.0000000000000000e+00 -7.5999997654794784e+00 -2.8163057065650102e-02 -5.3862433302139923e-01 +5.4264343762049872e-03
-7.6999999999999886e+00 +7.9183215963157298e+00 +0.0000000000000000e+00 -7.6999997560996398e+00 -2.8163143758318111e-02 -5.3862460203766849e-01 +5.4264733015807571e-03
-7.7999999999999883e+00 +7.9182777179987429e+00 +0.0000000000000000e+00 -7.7999997464729720e+00 -2.8163237712069557e-02 -5.3862488359558003e-01 +5.4265105038123242e-03
-7.8999999999999879e+00 +7.9182332734977887e+00 +0.0000000000000000e+00 -7.8999997365962695e+00 -2.8163338951494775e-02 -5.3862517908682184e-01 +5.4265457062064645e-03
-7.9999999999999876e+00 +7.9181882628125573e+00 +0.0000000000000000e+00 -7.9999997264663270e+00 -2.8163447501224077e-02 -5.3862548990311487e-01 +5.4265786320750724e-03
-8.0999999999999872e+00 +7.9181426859427235e+00 +0.0000000000000000e+00 -8.0999997160799371e+00 -2.8163563246714436e-02 -5.3862581700464995e-01 +5.4266090899489057e-03
-8.1999999999999869e+00 +7.9180965428879455e+00 +0.0000000000000000e+00 -8.1999997054338962e+00 -2.8163685516600288e-02 -5.3862615962536653e-01 +5.4266372292167114e-03
-8.2999999999999865e+00 +7.9180498336478644e+00 +0.0000000000000000e+00 -8.2999996945249972e+00 -2.8163813500337847e-02 -5.3862651656763094e-01 +5.4266632844748811e-03
-8.3999999999999861e+00 +7.9180025582221063e+00 +0.0000000000000000e+00 -8.3999996833500337e+00 -2.8163946387422752e-02 -5.3862688663380509e-01 +5.4266874903110144e-03
-8.4999999999999858e+00 +7.9179547166102839e+00 +0.0000000000000000e+00 -8.4999996719058011e+00 -2.8164083367391200e-02 -5.3862726862624555e-01 +5.4267100813036023e-03
-8.5999999999999854e+00 +7.9179063088119976e+00 +0.0000000000000000e+00 -8.5999996601890913e+00 -2.8164223629821083e-02 -5.3862766134730400e-01 +5.4267312920217225e-03
-8.6999999999999851e+00 +7.9178573348268362e+00 +0.0000000000000000e+00 -8.6999996481967017e+00 -2.8164366364333119e-02 -5.3862806359932502e-01 +5.4267513570247167e-03
-8.7999999999999847e+00 +7.9178077946543777e+00 +0.0000000000000000e+00 -8.7999996359254240e+00 -2.8164510760592055e-02 -5.3862847418464865e-01 +5.4267705108618988e-03
-8.8999999999999844e+00 +7.9177576882941931e+00 +0.0000000000000000e+00 -8.8999996233720537e+00 -2.8164656008307708e-02 -5.3862889190560714e-01 +5.4267889880722240e-03
-8.9999999999999840e+00 +7.9177070157458447e+00 +0.0000000000000000e+00 -8.9999996105333828e+00 -2.8164801297236215e-02 -5.3862931556452676e-01 +5.4268070231840004e-03
-9.0999999999999837e+00 +7.9176557770088891e+00 +0.0000000000000000e+00 -9.0999995974062067e+00 -2.8164945817181108e-02 -5.3862974396372576e-01 +5.4268248507145546e-03
-9.1999999999999833e+00 +7.9176039720828779e+00 +0.0000000000000000e+00 -9.1999995839873208e+00 -2.8165088757994502e-02 -5.3863017590551554e-01 +5.4268427051699436e-03
-9.2999999999999829e+00 +7.9175516009673581e+00 +0.0000000000000000e+00 -9.2999995702735170e+00 -2.8165229309578214e-02 -5.3863061019219927e-01 +5.4268608210446233e-03
-9.3999999999999826e+00 +7.9174986636618758e+00 +0.0000000000000000e+00 -9.3999995562615908e+00 -2.8165366661884936e-02 -5.3863104562607200e-01 +5.4268794328211556e-03
-9.4999999999999822e+00 +7.9174451601659745e+00 +0.0000000000000000e+00 -9.4999995419483358e+00 -2.8165500004919349e-02 -5.3863148100941982e-01 +5.4268987749698802e-03
-9.5999999999999819e+00 +7.9173910904791986e+00 +0.0000000000000000e+00 -9.5999995273305458e+00 -2.8165628528739325e-02 -5.3863191514452036e-01 +5.4269190819486168e-03
-9.6999999999999815e+00 +7.9173364546010934e+00 +0.0000000000000000e+00 -9.6999995124050145e+00 -2.8165751423457012e-02 -5.3863234683364136e-01 +5.4269405882023357e-03
-9.7999999999999812e+00 +7.9172812525312075e+00 +0.0000000000000000e+00 -9.7999994971685371e+00 -2.8165867879240050e-02 -5.3863277487904160e-01 +5.4269635281628745e-03
-9.8999999999999808e+00 +7.9172254842690926e+00 +0.0000000000000000e+00 -9.8999994816179075e+00 -2.8165977086312664e-02 -5.3863319808296917e-01 +5.4269881362485929e-03
-9.9999999999999805e+00 +7.9171691498143053e+00 +0.0000000000000000e+00 -9.9999994657499194e+00 -2.8166078234956888e-02 -5.3863361524766229e-01 +5.4270146468640831e-03
-1.0099999999999980e+01 +7.9171122491664097e+00 +0.0000000000000000e+00 -1.0099999449561366e+01 -2.8166170770621904e-02 -5.3863402554411288e-01 +5.4270432465523535e-03
-1.0199999999999980e+01 +7.9170547823249757e+00 +0.0000000000000000e+00 -1.0199999433049042e+01 -2.8166255159223292e-02 -5.3863442961836849e-01 +5.4270739304560023e-03
-1.0299999999999979e+01 +7.9169967492895807e+00 +0.0000000000000000e+00 -1.0299999416209740e+01 -2.8166332121734475e-02 -5.3863482848519695e-01 +5.4271066458735744e-03
-1.0399999999999979e+01 +7.9169381500598064e+00 +0.0000000000000000e+00 -1.0399999399040256e+01 -2.8166402379057629e-02 -5.3863522315930512e-01 +5.4271413401105421e-03
-1.0499999999999979e+01 +7.9168789846352405e+00 +0.0000000000000000e+00 -1.0499999381537384e+01 -2.8166466652021594e-02 -5.3863561465533727e-01 +5.4271779604795163e-03
-1.0599999999999978e+01 +7.9168192530154728e+00 +0.0000000000000000e+00 -1.0599999363697917e+01 -2.8166525661379858e-02 -5.3863600398787281e-01 +5.4272164543004665e-03
-1.0699999999999978e+01 +7.9167589552000965e+00 +0.0000000000000000e+00 -1.0699999345518648e+01 -2.8166580127808497e-02 -5.3863639217142589e-01 +5.4272567689009352e-03
-1.0799999999999978e+01 +7.9166980911887048e+00 +0.0000000000000000e+00 -1.0799999326996375e+01 -2.8166630771904129e-02 -5.3863678022044281e-01 +5.4272988516162494e-03
-1.0899999999999977e+01 +7.9166366609808918e+00 +0.0000000000000000e+00 -1.0899999308127887e+01 -2.8166678314181803e-02 -5.3863716914930115e-01 +5.4273426497897332e-03
-1.0999999999999977e+01 +7.9165746645762507e+00 +0.0000000000000000e+00 -1.0999999288909981e+01 -2.8166723475073041e-02 -5.3863755997230811e-01 +5.4273881107729282e-03
-1.1099999999999977e+01 +7.9165121019743729e+00 +0.0000000000000000e+00 -1.1099999269339451e+01 -2.8166766974923697e-02 -5.3863795370369882e-01 +5.4274351819258090e-03
-1.1199999999999976e+01 +7.9164489731748455e+00 +0.0000000000000000e+00 -1.1199999249413089e+01 -2.8166809533991938e-02 -5.3863835135763483e-01 +5.4274838106169879e-03
-1.1299999999999976e+01 +7.9163852781772537e+00 +0.0000000000000000e+00 -1.1299999229127691e+01 -2.8166851872446167e-02 -5.3863875394820271e-01 +5.4275339442239378e-03
-1.1399999999999975e+01 +7.9163210169811755e+00 +0.0000000000000000e+00 -1.1399999208480049e+01 -2.8166894710363016e-02 -5.3863916248941257e-01 +5.4275855301332146e-03
-1.1499999999999975e+01 +7.9162561895861829e+00 +0.0000000000000000e+00 -1.1499999187466956e+01 -2.8166938767725212e-02 -5.3863957799519602e-01 +5.4276385157406510e-03
-1.1599999999999975e+01 +7.9161907959918416e+00 +0.0000000000000000e+00 -1.1599999166085210e+01 -2.8166984764419558e-02 -5.3864000147940561e-01 +5.4276928484515933e-03
-1.1699999999999974e+01 +7.9161248361977092e+00 +0.0000000000000000e+00 -1.1699999144331603e+01 -2.8167033420234876e-02 -5.3864043395581207e-01 +5.4277484756810991e-03
