# multipoles
# s[mm] polynom_b[n=0][T/m^n] polynom_b[n=1][T/m^n] polynom_b[n=2][T/m^n] polynom_b[n=3][T/m^n] polynom_b[n=4][T/m^n] polynom_b[n=5][T/m^n] polynom_b[n=6][T/m^n] 
-0.0000000000000000e+00 -5.9244426162998531e-01 +8.1107139734345512e+00 -5.3341535111227290e-01 -2.3814001652731299e+01 +3.7763884803554379e+03 -1.6003155183548119e+04 -2.4531882856916543e+07 
-1.0000000000000001e-01 -5.9244437656648474e-01 +8.1107045313889312e+00 -5.4210180746252734e-01 -2.3405065864055089e+01 +3.9413316377848541e+03 -1.8194619216321451e+04 -2.5301856454349790e+07 
-2.0000000000000001e-01 -5.9244449587338877e-01 +8.1106940385219151e+00 -5.4980029776707884e-01 -2.2980896007255616e+01 +4.0911731093548215e+03 -2.0431091022675893e+04 -2.6010866219034370e+07 
-2.9999999999999999e-01 -5.9244461953440442e-01 +8.1106823328642079e+00 -5.5655163725939438e-01 -2.2539636369650964e+01 +4.2264054950081108e+03 -2.2718955631739267e+04 -2.6660522176686950e+07 
-4.0000000000000002e-01 -5.9244474753318566e-01 +8.1106692524442643e+00 -5.6239664140473344e-01 -2.2079431176559922e+01 +4.3475213930775717e+03 -2.5064598386423826e+04 -2.7252434331756547e+07 
-5.0000000000000000e-01 -5.9244487985344463e-01 +8.1106546352851776e+00 -5.6737612537544879e-01 -2.1598424521946594e+01 +4.4550133924148149e+03 -2.7474405294441000e+04 -2.7788212634846728e+07 
-5.9999999999999998e-01 -5.9244501647885350e-01 +8.1106383194101372e+00 -5.7153090551264518e-01 -2.1094760481314058e+01 +4.5493741033933511e+03 -2.9954762509976183e+04 -2.8269467139361188e+07 
-6.9999999999999996e-01 -5.9244515739304648e-01 +8.1106201428316016e+00 -5.7490179815968856e-01 -2.0566582836078620e+01 +4.6310961288771468e+03 -3.2512057825900021e+04 -2.8697807846258968e+07 
-8.0000000000000004e-01 -5.9244530257970140e-01 +8.1105999435707208e+00 -5.7752962080000891e-01 -2.0012035599061090e+01 +4.7006720911640568e+03 -3.5152677737633858e+04 -2.9074844847373974e+07 
-9.0000000000000002e-01 -5.9244545202247734e-01 +8.1105775596384753e+00 -5.7945518907363947e-01 -1.9429262497770253e+01 +4.7585945726523541e+03 -3.7883010358869076e+04 -2.9402188034755062e+07 
-1.0000000000000000e+00 -5.9244560570499449e-01 +8.1105528290414650e+00 -5.8071931872105365e-01 -1.8816407117756224e+01 +4.8053561511782591e+03 -4.0709444666995245e+04 -2.9681447265497815e+07 
-1.1000000000000001e+00 -5.9244576361086942e-01 +8.1105255897963655e+00 -5.8136283211281237e-01 -1.8171613323252487e+01 +4.8414495251334365e+03 -4.3638368053417296e+04 -2.9914232962054659e+07 
-1.2000000000000000e+00 -5.9244592572375332e-01 +8.1104956799093486e+00 -5.8142654289891549e-01 -1.7493024664139572e+01 +4.8673672235966578e+03 -4.6676169780871140e+04 -3.0102154736951422e+07 
-1.3000000000000000e+00 -5.9244609202720000e-01 +8.1104629373873518e+00 -5.8095127188747853e-01 -1.6778784698063475e+01 +4.8836019027958737e+03 -4.9829239103099972e+04 -3.0246822788909931e+07 
-1.3999999999999999e+00 -5.9244626250484134e-01 +8.1104272002416113e+00 -5.7997784021864784e-01 -1.6027037072243079e+01 +4.8906462224470079e+03 -5.3103964874813784e+04 -3.0349847333390728e+07 
-1.5000000000000000e+00 -5.9244643714018286e-01 +8.1103883064818856e+00 -5.7854706491528385e-01 -1.5235925396476924e+01 +4.8889927548833421e+03 -5.6506736170419535e+04 -3.0412838151776146e+07 
-1.6000000000000001e+00 -5.9244661591681769e-01 +8.1103460941146288e+00 -5.7669976892805130e-01 -1.4403593131758836e+01 +4.8791341771225343e+03 -6.0043943104113510e+04 -3.0437405510006789e+07 
-1.7000000000000000e+00 -5.9244679881828255e-01 +8.1103004011554241e+00 -5.7447677383089879e-01 -1.3528184002893868e+01 +4.8615631352115543e+03 -6.3721974286954217e+04 -3.0425159521445006e+07 
-1.8000000000000000e+00 -5.9244698582809818e-01 +8.1102510656145110e+00 -5.7191890152651781e-01 -1.2607841534153930e+01 +4.8367722740667741e+03 -6.7547219659375391e+04 -3.0377710283479325e+07 
-1.8999999999999999e+00 -5.9244717692972337e-01 +8.1101979255104908e+00 -5.6906697632965753e-01 -1.1640709459892262e+01 +4.8052542735526567e+03 -7.1526068069522124e+04 -3.0296668037855338e+07 
-2.0000000000000000e+00 -5.9244737210668186e-01 +8.1101408188592572e+00 -5.6596182017003960e-01 -1.0624931408887733e+01 +4.7675017629742542e+03 -7.5664909096871241e+04 -3.0183642782982100e+07 
-2.1000000000000001e+00 -5.9244757136735071e-01 +8.1100796918152440e+00 -5.6263955379544717e-01 -9.5601300955729549e+00 +4.7239875222458741e+03 -7.9964642386597057e+04 -3.0040330217490736e+07 
-2.2000000000000002e+00 -5.9244777482111255e-01 +8.1100149237519457e+00 -5.5911876284641082e-01 -8.4519265102754417e+00 +4.6751211541214534e+03 -8.4403664141917776e+04 -2.9868824594114374e+07 
-2.2999999999999998e+00 -5.9244798260297837e-01 +8.1099470025245211e+00 -5.5541397478141163e-01 -7.3074612460915578e+00 +4.6213007338155385e+03 -8.8954612152540591e+04 -2.9671334879644860e+07 
-2.3999999999999999e+00 -5.9244819484796207e-01 +8.1098764159898753e+00 -5.5153971400596336e-01 -6.1338749604806768e+00 +4.5629242855203092e+03 -9.3590123762451360e+04 -2.9450069814287025e+07 
-2.5000000000000000e+00 -5.9244841169105245e-01 +8.1098036520078143e+00 -5.4751050560518644e-01 -4.9383084061373319e+00 +4.5003898536562665e+03 -9.8282835678306932e+04 -2.9207238250644460e+07 
-2.6000000000000001e+00 -5.9244863326732078e-01 +8.1097291984331417e+00 -5.4334087279657362e-01 -3.7279021939430810e+00 +4.4340954585496456e+03 -1.0300538538006067e+05 -2.8945048956747189e+07 
-2.7000000000000002e+00 -5.9244885971183414e-01 +8.1096535431249119e+00 -5.3904533749814332e-01 -2.5097970693738434e+00 +4.3644391053921963e+03 -1.0773040947198671e+05 -2.8665710647413041e+07 
-2.7999999999999998e+00 -5.9244909115964861e-01 +8.1095771739401759e+00 -5.3463842073064127e-01 -1.2911337371515834e+00 +4.2918187941621909e+03 -1.1243054468758355e+05 -2.8371432041306797e+07 
-2.8999999999999999e+00 -5.9244932774593118e-01 +8.1095005787357870e+00 -5.3013463981931652e-01 -7.9052912768615702e-02 +4.2166324724605120e+03 -1.1707842758586607e+05 -2.8064421648063984e+07 
-3.0000000000000000e+00 -5.9244956960581818e-01 +8.1094242453722654e+00 -5.2554851316923545e-01 +1.1193045581825529e+00 +4.1392781158882708e+03 -1.2164669382871466e+05 -2.7746888126269229e+07 
-3.1000000000000001e+00 -5.9244981687447962e-01 +8.1093486617038089e+00 -5.2089455514810246e-01 +2.2967980074103087e+00 +4.0601536491608176e+03 -1.2610798001954817e+05 -2.7421039953223187e+07 
-3.2000000000000002e+00 -5.9245006968718794e-01 +8.1092743155924563e+00 -5.1618727606178483e-01 +3.4462864921060539e+00 +3.9796569278493325e+03 -1.3043492094683689e+05 -2.7089085289842818e+07 
-3.2999999999999998e+00 -5.9245032817918386e-01 +8.1092016948939083e+00 -5.1144119050602177e-01 +4.5606292459574718e+00 +3.8981859172677164e+03 -1.3460015231504824e+05 -2.6753232887275595e+07 
-3.3999999999999999e+00 -5.9245059248577436e-01 +8.1091312874673189e+00 -5.0667080301765854e-01 +5.6326853705778026e+00 +3.8161384037878847e+03 -1.3857630888616265e+05 -2.6415690667323221e+07 
-3.5000000000000000e+00 -5.9245086274234826e-01 +8.1090635811698348e+00 -5.0189061942210589e-01 +6.6553139882280954e+00 +3.7339122254855306e+03 -1.4233602532712615e+05 -2.6078666860582415e+07 
-3.6000000000000001e+00 -5.9245113908430891e-01 +8.1089990638629441e+00 -4.9711514337265411e-01 +7.6213740636372567e+00 +3.6519052016449923e+03 -1.4585193520577042e+05 -2.5744369656710949e+07 
-3.7000000000000002e+00 -5.9245142164710629e-01 +8.1089382234009868e+00 -4.9235887230216802e-01 +8.5237247344113030e+00 +3.5705150547447588e+03 -1.4909667288278817e+05 -2.5415006830590252e+07 
-3.7999999999999998e+00 -5.9245171056628254e-01 +8.1088815476470408e+00 -4.8763630384774165e-01 +9.3552248475146662e+00 +3.4901395389451623e+03 -1.5204287081347534e+05 -2.5092786368128344e+07 
-3.8999999999999999e+00 -5.9245200597738013e-01 +8.1088295244568691e+00 -4.8296193216944994e-01 +1.0108733422106109e+01 +3.4111763698415671e+03 -1.5466316221853861e+05 -2.4779916132780541e+07 
-4.0000000000000000e+00 -5.9245230801612703e-01 +8.1087826416901621e+00 -4.7835024384929048e-01 +1.0777109308231648e+01 +3.3340231472326132e+03 -1.5693017905235192e+05 -2.4478603496849902e+07 
-4.0999999999999996e+00 -5.9245261685345918e-01 +8.1087412612758190e+00 -4.7381166566737581e-01 +1.1355458031326673e+01 +3.2590067457632395e+03 -1.5882652026029088e+05 -2.4190644014375236e+07 
-4.2000000000000002e+00 -5.9245293279598776e-01 +8.1087052392040615e+00 -4.6933774161527830e-01 +1.1847943763848001e+01 +3.1861256972467609e+03 -1.6037541525807980e+05 -2.3915990870732874e+07 
-4.2999999999999998e+00 -5.9245325618281586e-01 +8.1086743043380345e+00 -4.6491463540331390e-01 +1.2261013897249425e+01 +3.1152850787462348e+03 -1.6161044236462697e+05 -2.3654087159041442e+07 
-4.4000000000000004e+00 -5.9245358735300124e-01 +8.1086481855351451e+00 -4.6052851322839883e-01 +1.2601115926317519e+01 +3.0463900141513686e+03 -1.6256518049632839e+05 -2.3404376180398341e+07 
-4.5000000000000000e+00 -5.9245392664558238e-01 +8.1086266116543531e+00 -4.5616554415297389e-01 +1.2874697232974173e+01 +2.9793456791165090e+03 -1.6327320788722701e+05 -2.3166301460266564e+07 
-4.5999999999999996e+00 -5.9245427439956655e-01 +8.1086093115485287e+00 -4.5181189743349692e-01 +1.3088205300378107e+01 +2.9140572486159090e+03 -1.6376810332541051e+05 -2.2939306495109107e+07 
-4.7000000000000002e+00 -5.9245463095398498e-01 +8.1085960140704998e+00 -4.4745374699893437e-01 +1.3248087548441720e+01 +2.8504299830288151e+03 -1.6408344524477306e+05 -2.2722835164044656e+07 
-4.7999999999999998e+00 -5.9245499664780521e-01 +8.1085864480741527e+00 -4.4307727089635779e-01 +1.3360791287970880e+01 +2.7883692135847714e+03 -1.6425281141966471e+05 -2.2516331647233848e+07 
-4.9000000000000004e+00 -5.9245537181996655e-01 +8.1085803424042080e+00 -4.3866864719120002e-01 +1.3432764016957734e+01 +2.7277802671099939e+03 -1.6430978071072095e+05 -2.2319240075048503e+07 
-5.0000000000000000e+00 -5.9245575680941998e-01 +8.1085774259071908e+00 -4.3421406010791413e-01 +1.3470453093858033e+01 +2.6685685841398340e+03 -1.6428793114229297e+05 -2.2131005093746755e+07 
-5.0999999999999996e+00 -5.9245615195504286e-01 +8.1085774274280524e+00 -4.2969969524423057e-01 +1.3480305846531568e+01 +2.6106396196057926e+03 -1.6422084058640842e+05 -2.1951071368949901e+07 
-5.2000000000000002e+00 -5.9245655759573590e-01 +8.1085800758063744e+00 -4.2511174301380944e-01 +1.3468769659339943e+01 +2.5538989172446068e+03 -1.6414208720610788e+05 -2.1778883963853151e+07 
-5.2999999999999998e+00 -5.9245697407032827e-01 +8.1085850998813473e+00 -4.2043639833105995e-01 +1.3442291851291060e+01 +2.4982520926882494e+03 -1.6408524883240744e+05 -2.1613888228108410e+07 
-5.4000000000000004e+00 -5.9245740171763217e-01 +8.1085922284850174e+00 -4.1565985825066720e-01 +1.3407319848848553e+01 +2.4436047973961367e+03 -1.6408390391088862e+05 -2.1455529652068909e+07 
-5.5000000000000000e+00 -5.9245784087637576e-01 +8.1086011904525535e+00 -4.1076832611226766e-01 +1.3370300881191095e+01 +2.3898627878076732e+03 -1.6417162971942817e+05 -2.1303254164647587e+07 
-5.5999999999999996e+00 -5.9245829188531629e-01 +8.1086117146126409e+00 -4.0574800934208338e-01 +1.3337682282798404e+01 +2.3369318943351764e+03 -1.6438200421154741e+05 -2.1156508017757338e+07 
-5.7000000000000002e+00 -5.9245875508312307e-01 +8.1086235297904903e+00 -4.0058511777050371e-01 +1.3315911373364042e+01 +2.2847179770166263e+03 -1.6474860522930985e+05 -2.1014737541822843e+07 
-5.7999999999999998e+00 -5.9245923080846341e-01 +8.1086363648086763e+00 -3.9526586881613374e-01 +1.3311435445096727e+01 +2.2331270299600810e+03 -1.6530501048451578e+05 -2.0877389655014653e+07 
-5.9000000000000004e+00 -5.9245971939994169e-01 +8.1086499484894254e+00 -3.8977648330207987e-01 +1.3330701699069996e+01 +2.1820650982087836e+03 -1.6608479719993775e+05 -2.0743911459635001e+07 
-5.9999999999999902e+00 -5.9246022119609598e-01 +8.1086640096436522e+00 -3.8410318975018770e-01 +1.3380157544664787e+01 +2.1314383600183910e+03 -1.6712154388750857e+05 -2.0613750641621426e+07 
-6.0999999999999899e+00 -5.9246073620718998e-01 +8.1086783216301299e+00 -3.7823698320804960e-01 +1.3464541620041787e+01 +2.0810893239162579e+03 -1.6843903410797432e+05 -2.0485922933607087e+07 
-6.1999999999999904e+00 -5.9246126314313718e-01 +8.1086928182609768e+00 -3.7218786678229820e-01 +1.3582219062000423e+01 +2.0306370488535440e+03 -1.7002339650844151e+05 -2.0357929597319707e+07 
-6.2999999999999901e+00 -5.9246180039189611e-01 +8.1087074692201728e+00 -3.6597052813165004e-01 +1.3730067690185988e+01 +1.9796512404464559e+03 -1.7185167283863996e+05 -2.0226942127271991e+07 
-6.3999999999999897e+00 -5.9246234634150929e-01 +8.1087222441892592e+00 -3.5959965327066046e-01 +1.3904965676599083e+01 +1.9277015737773861e+03 -1.7390090754087857e+05 -2.0090131903600853e+07 
-6.4999999999999902e+00 -5.9246289937986929e-01 +8.1087371128675354e+00 -3.5308992669387934e-01 +1.4103790969681853e+01 +1.8743576928355999e+03 -1.7614814446021311e+05 -1.9944670173146136e+07 
-6.5999999999999899e+00 -5.9246345789505661e-01 +8.1087520449585266e+00 -3.4645602551392818e-01 +1.4323421703558338e+01 +1.8191890992880294e+03 -1.7857042926041866e+05 -1.9787727524871446e+07 
-6.6999999999999904e+00 -5.9246402027506739e-01 +8.1087670101746827e+00 -3.3971263156490727e-01 +1.4560736055749212e+01 +1.7617653854511113e+03 -1.8114480857631881e+05 -1.9616475008163784e+07 
-6.7999999999999901e+00 -5.9246458490784881e-01 +8.1087819782403745e+00 -3.3287441591980560e-01 +1.4812612199347280e+01 +1.7016559375341649e+03 -1.8384832983741091e+05 -1.9428082712709360e+07 
-6.8999999999999897e+00 -5.9246515018144819e-01 +8.1087969188877231e+00 -3.2595605288706037e-01 +1.5075928424899969e+01 +1.6384302009851610e+03 -1.8665804196681260e+05 -1.9219721032823894e+07 
-6.9999999999999902e+00 -5.9246571448391383e-01 +8.1088118018566302e+00 -3.1897221044819013e-01 +1.5347563138269273e+01 +1.5716575004603658e+03 -1.8955099536032791e+05 -1.8988559816677216e+07 
-7.0999999999999899e+00 -5.9246627620321091e-01 +8.1088265969041196e+00 -3.1193755374293591e-01 +1.5624394625944142e+01 +1.5009071069619472e+03 -1.9250424062415987e+05 -1.8731768686660156e+07 
-7.1999999999999904e+00 -5.9246683372736419e-01 +8.1088412737905085e+00 -3.0486674458167673e-01 +1.5903301456087773e+01 +1.4257482234608970e+03 -1.9549483088501007e+05 -1.8446516961782124e+07 
-7.2999999999999901e+00 -5.9246738544444300e-01 +8.1088558022901349e+00 -2.9777444054104202e-01 +1.6181162179891228e+01 +1.3457499740450939e+03 -1.9849982008664220e+05 -1.8129973621989876e+07 
-7.3999999999999897e+00 -5.9246792974245466e-01 +8.1088701521917361e+00 -2.9067529971306516e-01 +1.6454855334233077e+01 +1.2604814866548988e+03 -2.0149626304628013e+05 -1.7779307684285391e+07 
-7.4999999999999902e+00 -5.9246846500945616e-01 +8.1088842932898455e+00 -2.8358396822695164e-01 +1.6721259706937047e+01 +1.1695116665132816e+03 -2.0446121701684498e+05 -1.7391687153774660e+07 
-7.5999999999999899e+00 -5.9246898963350114e-01 +8.1088981953976003e+00 -2.7651509615830427e-01 +1.6977253964824598e+01 +1.0724094865076916e+03 -2.0737173952539527e+05 -1.6964280373318013e+07 
-7.6999999999999904e+00 -5.9246950200262982e-01 +8.1089118283335804e+00 -2.6948332486072207e-01 +1.7219717072522812e+01 +9.6874375364144498e+02 -2.1020489090066575e+05 -1.6494254935093245e+07 
-7.7999999999999901e+00 -5.9247000050496468e-01 +8.1089251619360923e+00 -2.6250329326843275e-01 +1.7445527873764057e+01 +8.5808322729343888e+02 -2.1293773182563469e+05 -1.5978778238676094e+07 
-7.8999999999999897e+00 -5.9247048352852594e-01 +8.1089381660529032e+00 -2.5558963492308512e-01 +1.7651565385383446e+01 +7.3999656309935847e+02 -2.1554732502122040e+05 -1.5415017227900559e+07 
-7.9999999999999902e+00 -5.9247094946139223e-01 +8.1089508105427885e+00 -2.4875698022123138e-01 +1.7834708818427522e+01 +6.1405235623737963e+02 -2.1801073529123352e+05 -1.4800138574894069e+07 
-8.0999999999999908e+00 -5.9247139721362807e-01 +8.1089630668927342e+00 -2.4202042492812917e-01 +1.7992508088075407e+01 +4.8008089689274999e+02 -2.2030848952021645e+05 -1.4132835310974665e+07 
-8.1999999999999904e+00 -5.9247182778178042e-01 +8.1089749631502084e+00 -2.3539756505897227e-01 +1.8123904651410761e+01 +3.3893585505600379e+02 -2.2242939005108713e+05 -1.3417776240439741e+07 
-8.2999999999999901e+00 -5.9247224268358656e-01 +8.1089865539517501e+00 -2.2890696087303919e-01 +1.8227872615024754e+01 +1.9172540805693430e+02 -2.2436293584251698e+05 -1.2661111489867741e+07 
-8.3999999999999897e+00 -5.9247264343675465e-01 +8.1089978939275973e+00 -2.2256717283368982e-01 +1.8303385902438325e+01 +3.9557728719491195e+01 -2.2609862390623358e+05 -1.1868991157637095e+07 
-8.4999999999999893e+00 -5.9247303155910114e-01 +8.1090090377064232e+00 -2.1639675390242655e-01 +1.8349418066178728e+01 -1.1645917134077538e+02 -2.2762594804146374e+05 -1.1047564545811003e+07 
-8.5999999999999908e+00 -5.9247340856839870e-01 +8.1090200399118917e+00 -2.1041425502723021e-01 +1.8364942395877137e+01 -2.7521732914971608e+02 -2.2893439948305718e+05 -1.0202980718218099e+07 
-8.6999999999999904e+00 -5.9247377598249840e-01 +8.1090309551685316e+00 -2.0463822446554053e-01 +1.8348931713033217e+01 -4.3560884451881572e+02 -2.3001346562408487e+05 -9.3413884307166114e+06 
-8.7999999999999794e+00 -5.9247413531927007e-01 +8.1090418380931997e+00 -1.9908720292704199e-01 +1.8300358618455878e+01 -5.9652598072822275e+02 -2.3085263144875341e+05 -8.4689356301921085e+06 
-8.8999999999999808e+00 -5.9247448809655989e-01 +8.1090527432984700e+00 -1.9377973058704573e-01 +1.8218195372170008e+01 -7.5686102277865746e+02 -2.3144137877810674e+05 -7.5917701508370573e+06 
-8.9999999999999805e+00 -5.9247483583230176e-01 +8.1090637253962932e+00 -1.8873434291171273e-01 +1.8101413776672164e+01 -9.1550636141980806e+02 -2.3176918556677536e+05 -6.7160393042564765e+06 
-9.0999999999999801e+00 -5.9247518004445932e-01 +8.1090748389906473e+00 -1.8396956773809442e-01 +1.7948985375034674e+01 -1.0713545472627675e+03 -2.3182552701420852e+05 -5.8478896240810566e+06 
-9.1999999999999797e+00 -5.9247552225096678e-01 +8.1090861386833861e+00 -1.7950393210644075e-01 +1.7759881257871228e+01 -1.2232981627980614e+03 -2.3159987437933267e+05 -4.9934674720406942e+06 
-9.2999999999999794e+00 -5.9247586396985574e-01 +8.1090976790683662e+00 -1.7535595742356810e-01 +1.7533072241870023e+01 -1.3702299150123285e+03 -2.3108169604451128e+05 -4.1589185955998348e+06 
-9.3999999999999808e+00 -5.9247620671915868e-01 +8.1091095147392522e+00 -1.7154416135392592e-01 +1.7267528597441565e+01 -1.5110425959944830e+03 -2.3026045581384582e+05 -3.3503883231105283e+06 
-9.4999999999999805e+00 -5.9247655201694460e-01 +8.1091217002821008e+00 -1.6808705536782212e-01 +1.6962220274978804e+01 -1.6446291374383070e+03 -2.2912561424773303e+05 -2.5740212879474219e+06 
-9.5999999999999801e+00 -5.9247690138128017e-01 +8.1091342902791279e+00 -1.6500314461895951e-01 +1.6616116768235816e+01 -1.7698826015525949e+03 -2.2766662781355056e+05 -1.8359614976992118e+06 
-9.6999999999999797e+00 -5.9247725633034998e-01 +8.1091473393051352e+00 -1.6231093566174287e-01 +1.6228187214027031e+01 -1.8856960510986912e+03 -2.2587294944202312e+05 -1.1423529132967899e+06 
-9.7999999999999794e+00 -5.9247761838229562e-01 +8.1091609019312809e+00 -1.6002892258122442e-01 +1.5797400253506797e+01 -1.9909627979138975e+03 -2.2373402765086663e+05 -4.9933830297567992e+05 
-9.8999999999999808e+00 -5.9247798905533977e-01 +8.1091750327202483e+00 -1.5817559953256025e-01 +1.5322724166863923e+01 -2.0845761727808590e+03 -2.2123930730984098e+05 +8.6939681694985542e+04 
-9.9999999999999805e+00 -5.9247836986773272e-01 +8.1091897862335252e+00 -1.5676945242741239e-01 +1.4803126692113695e+01 -2.1654296808385579e+03 -2.1837822906587928e+05 +6.1033920034685323e+05 
-1.0100000000000000e+01 -5.9247876205482508e-01 +8.1092052046038017e+00 -1.5581763883593852e-01 +1.4238001134370993e+01 -2.2327635023699886e+03 -2.1514473889291839e+05 +1.0664150541599335e+06 
