# multipoles
# s[mm] polynom_b[n=0][T/m^n] polynom_b[n=1][T/m^n] polynom_b[n=2][T/m^n] polynom_b[n=3][T/m^n] polynom_b[n=4][T/m^n] polynom_b[n=5][T/m^n] polynom_b[n=6][T/m^n] 
+0.0000000000000000e+00 -5.6526740230015005e-01 +7.7425158431445382e+00 -5.5794247293539623e-01 -1.3184931324031560e+01 +8.3044043122362455e+03 -8.1462763793453429e+04 -4.7579048247535475e+07 
+1.0000000000000001e-01 -5.6526775960564768e-01 +7.7425138543648737e+00 -5.6575575420656343e-01 -1.2984602058764867e+01 +8.3960671211497556e+03 -8.1500007178878586e+04 -4.7913571766957507e+07 
+2.0000000000000001e-01 -5.6526812391302617e-01 +7.7425128642514185e+00 -5.7322296887363600e-01 -1.2787146942213379e+01 +8.4859901121466301e+03 -8.1534139243392056e+04 -4.8251807838402838e+07 
+2.9999999999999999e-01 -5.6526849580277649e-01 +7.7425128135529384e+00 -5.8032956969734595e-01 -1.2591911381803234e+01 +8.5738345073948785e+03 -8.1571512604725212e+04 -4.8591996798660427e+07 
+4.0000000000000002e-01 -5.6526887585540753e-01 +7.7425136430091834e+00 -5.8706100997792932e-01 -1.2398240565899428e+01 +8.6592615413389085e+03 -8.1618480979196887e+04 -4.8932379045075089e+07 
+5.0000000000000000e-01 -5.6526926465135052e-01 +7.7425152933640966e+00 -5.9340274206913413e-01 -1.2205479824128776e+01 +8.7419324292894034e+03 -8.1681397164861628e+04 -4.9271194879757106e+07 
+5.9999999999999998e-01 -5.6526966277110047e-01 +7.7425177053503536e+00 -5.9934021812702609e-01 -1.2012974193189034e+01 +8.8215083857246063e+03 -8.1766615513038865e+04 -4.9606684605673276e+07 
+6.9999999999999996e-01 -5.6527007079521896e-01 +7.7425208197008963e+00 -6.0485889247113256e-01 -1.1820068743180178e+01 +8.8976506659328279e+03 -8.1880490075918962e+04 -4.9937088716157742e+07 
+8.0000000000000004e-01 -5.6527048930412616e-01 +7.7425245771464661e+00 -6.0994421670467724e-01 -1.1626108502842779e+01 +8.9700204767300238e+03 -8.2029375041769425e+04 -5.0260647479230978e+07 
+9.0000000000000002e-01 -5.6527091887832692e-01 +7.7425289184111508e+00 -6.1458164557886641e-01 -1.1430438334766295e+01 +9.0382790834553252e+03 -8.2219625453656787e+04 -5.0575601434928820e+07 
+1.0000000000000000e+00 -5.6527136009834478e-01 +7.7425337842174518e+00 -6.1875663247852009e-01 -1.1232403068311406e+01 +9.1020877307314204e+03 -8.2457596487461051e+04 -5.0880191033940621e+07 
+1.1000000000000001e+00 -5.6527181354460809e-01 +7.7425391152835408e+00 -6.2245463159255177e-01 -1.1031347437972823e+01 +9.1611076764678273e+03 -8.2749643754987439e+04 -5.1172656781672738e+07 
+1.2000000000000000e+00 -5.6527227979766803e-01 +7.7425448523210383e+00 -6.2566109679999427e-01 -1.0826615995900863e+01 +9.2150001792385519e+03 -8.3102123883094522e+04 -5.1451239198868006e+07 
+1.3000000000000000e+00 -5.6527275943794653e-01 +7.7425509360408080e+00 -6.2836148379764800e-01 -1.0617553293343814e+01 +9.2634265313654541e+03 -8.3521393429959047e+04 -5.1714178960518353e+07 
+1.3999999999999999e+00 -5.6527325304595011e-01 +7.7425573071494735e+00 -6.3054124835627712e-01 -1.0403503773883365e+01 +9.3060480293487872e+03 -8.4013809521401170e+04 -5.1959716763563775e+07 
+1.5000000000000000e+00 -5.6527376120218376e-01 +7.7425639063471401e+00 -6.3218584704475067e-01 -1.0183811692701333e+01 +9.3425259889741519e+03 -8.4585730366827862e+04 -5.2186093401960745e+07 
+1.6000000000000001e+00 -5.6527428448711037e-01 +7.7425706743320131e+00 -6.3328073434995458e-01 -9.9578212746981958e+00 +9.3725216886516955e+03 -8.5243514278387956e+04 -5.2391549493018314e+07 
+1.7000000000000000e+00 -5.6527482348115921e-01 +7.7425775517981235e+00 -6.3381136933185600e-01 -9.7248766247501433e+00 +9.3956964959513934e+03 -8.5993520252720817e+04 -5.2574326076650821e+07 
+1.8000000000000000e+00 -5.6527537876486322e-01 +7.7425844794344947e+00 -6.3376320846956824e-01 -9.4843217083129616e+00 +9.4117117334551112e+03 -8.6842108091853821e+04 -5.2732663984646954e+07 
+1.8999999999999999e+00 -5.6527595091861482e-01 +7.7425913979218191e+00 -6.3312171232912529e-01 -9.2355002571789342e+00 +9.4202288059102448e+03 -8.7795638930691319e+04 -5.2864804443791509e+07 
+2.0000000000000000e+00 -5.6527654052291709e-01 +7.7425982479440139e+00 -6.3187234109783263e-01 -8.9777560949138149e+00 +9.4209091126356325e+03 -8.8860473365153026e+04 -5.2968988652160317e+07 
+2.1000000000000001e+00 -5.6527714789848515e-01 +7.7426049835650241e+00 -6.3000941662537147e-01 -8.7108782685104451e+00 +9.4135380737914493e+03 -9.0039178080835904e+04 -5.3043891616932258e+07 
+2.2000000000000002e+00 -5.6527777237877441e-01 +7.7426116080278238e+00 -6.2756080632546873e-01 -8.4363305602230518e+00 +9.3983713291911263e+03 -9.1320103919863133e+04 -5.3089849594403699e+07 
+2.2999999999999998e+00 -5.6527841306272320e-01 +7.7426181358502548e+00 -6.2456230320948858e-01 -8.1559703860735393e+00 +9.3757757594948107e+03 -9.2688272033584813e+04 -5.3107595488950133e+07 
+2.3999999999999999e+00 -5.6527906904933334e-01 +7.7426245815516159e+00 -6.2104970231465573e-01 -7.8716552008930840e+00 +9.3461182826676522e+03 -9.4128703429974601e+04 -5.3097862382536083e+07 
+2.5000000000000000e+00 -5.6527973943752430e-01 +7.7426309596562177e+00 -6.1705879824445842e-01 -7.5852425980630764e+00 +9.3097658082405069e+03 -9.5626418423366980e+04 -5.3061383318432949e+07 
+2.6000000000000001e+00 -5.6528042332625861e-01 +7.7426372846886151e+00 -6.1262538342691997e-01 -7.2985901707805194e+00 +9.2670852061242786e+03 -9.7166437428797028e+04 -5.2998891160910897e+07 
+2.7000000000000002e+00 -5.6528111981449003e-01 +7.7426435711733301e+00 -6.0778525082870050e-01 -7.0135555010324930e+00 +9.2184433534221062e+03 -9.8733781067054544e+04 -5.2911118803362578e+07 
+2.7999999999999998e+00 -5.6528182800117233e-01 +7.7426498336470404e+00 -6.0257419320595551e-01 -6.7319965224456455e+00 +9.1642071241485337e+03 -1.0031346802391190e+05 -5.2798799132567026e+07 
+2.8999999999999999e+00 -5.6528254698528957e-01 +7.7426560866421168e+00 -5.9702799859622036e-01 -6.4557710168552527e+00 +9.1047432997364485e+03 -1.0189051806530457e+05 -5.2662664593190178e+07 
+3.0000000000000000e+00 -5.6528327586580696e-01 +7.7426623447037519e+00 -5.9118245763887145e-01 -6.1867371283718793e+00 +9.0404187136950004e+03 -1.0344994900368289e+05 -5.2503447890021935e+07 
+3.1000000000000001e+00 -5.6528401374169479e-01 +7.7426686223727117e+00 -5.8507335895326418e-01 -5.9267528649472592e+00 +8.9716001545913696e+03 -1.0497677960076396e+05 -5.2321881504359514e+07 
+3.2000000000000002e+00 -5.6528475971194359e-01 +7.7426749342046737e+00 -5.7873648864821925e-01 -5.6776766373957814e+00 +8.8986543665463014e+03 -1.0645602651114143e+05 -5.2118697723257877e+07 
+3.2999999999999998e+00 -5.6528551287554274e-01 +7.7426812947558439e+00 -5.7220763158830767e-01 -5.4413668585850630e+00 +8.8219480627253615e+03 -1.0787270656339799e+05 -5.1894628674951740e+07 
+3.3999999999999999e+00 -5.6528627233147466e-01 +7.7426877185950858e+00 -5.6552257363091618e-01 -5.2196822881531180e+00 +8.7418479783486673e+03 -1.0921183479824199e+05 -5.1650406610525332e+07 
+3.5000000000000000e+00 -5.6528703717877893e-01 +7.7426942202918774e+00 -5.5871709226901101e-01 -5.0144816743853626e+00 +8.6587206837071499e+03 -1.1045842656894021e+05 -5.1386762990337826e+07 
+3.6000000000000001e+00 -5.6528780651645272e-01 +7.7427008144312799e+00 -5.5182697327684427e-01 -4.8276242024959828e+00 +8.5729329074603484e+03 -1.1159749492017785e+05 -5.1104430042602912e+07 
+3.7000000000000002e+00 -5.6528857944348065e-01 +7.7427075156022056e+00 -5.4488799223624140e-01 -4.6609691339255903e+00 +8.4848511763763818e+03 -1.1261405274069462e+05 -5.0804139023041323e+07 
+3.7999999999999998e+00 -5.6528935505890821e-01 +7.7427143384022594e+00 -5.3793592697296422e-01 -4.5163759567889699e+00 +8.3948420601509533e+03 -1.1349311186925181e+05 -5.0486621406543195e+07 
+3.8999999999999999e+00 -5.6529013246180992e-01 +7.7427212974422170e+00 -5.3100655113796291e-01 -4.3957045108335757e+00 +8.3032720482190070e+03 -1.1421968240032323e+05 -5.0152608295626946e+07 
+4.0000000000000000e+00 -5.6529091075118565e-01 +7.7427284073387463e+00 -5.2413563583224476e-01 -4.3008147038326054e+00 +8.2105075812461364e+03 -1.1477877456904401e+05 -4.9802830583761230e+07 
+4.0999999999999996e+00 -5.6529168914136196e-01 +7.7427356753791736e+00 -5.1735397073063805e-01 -4.2323928960428780e+00 +8.1168891154433322e+03 -1.1516439832224522e+05 -4.9438144697818071e+07 
+4.2000000000000002e+00 -5.6529246725265980e-01 +7.7427430857294919e+00 -5.1067586412055044e-01 -4.1870231297719558e+00 +8.0226706129772392e+03 -1.1540196224972430e+05 -4.9059825759543434e+07 
+4.2999999999999998e+00 -5.6529324479489851e-01 +7.7427506180983876e+00 -5.0411225228405554e-01 -4.1603923826609330e+00 +7.9280883480734665e+03 -1.1552372748192513e+05 -4.8669236833750755e+07 
+4.4000000000000004e+00 -5.6529402147778529e-01 +7.7427582521935703e+00 -4.9767407301166200e-01 -4.1481875999408890e+00 +7.8333786316670648e+03 -1.1556195533857976e+05 -4.8267741164396100e+07 
+4.5000000000000000e+00 -5.6529479701110685e-01 +7.7427659677263811e+00 -4.9137226998535272e-01 -4.1460958161585246e+00 +7.7387778930930263e+03 -1.1554890665454981e+05 -4.7856702554370895e+07 
+4.5999999999999996e+00 -5.6529557110453144e-01 +7.7427737444058300e+00 -4.8521778965128481e-01 -4.1498040045911093e+00 +7.6445226258644534e+03 -1.1551684258994233e+05 -4.7437485123609729e+07 
+4.7000000000000002e+00 -5.6529634346781521e-01 +7.7427815619519285e+00 -4.7922158311921215e-01 -4.1549994493600657e+00 +7.5508494168329180e+03 -1.1549802249296683e+05 -4.7011453425692134e+07 
+4.7999999999999998e+00 -5.6529711381058922e-01 +7.7427894000770241e+00 -4.7339460529714633e-01 -4.1573692039986438e+00 +7.4579949368743364e+03 -1.1552470704935113e+05 -4.6579972423092976e+07 
+4.9000000000000004e+00 -5.6529788184257246e-01 +7.7427972385005894e+00 -4.6774781664597642e-01 -4.1526005187221973e+00 +7.3661959738404721e+03 -1.1562915580037580e+05 -4.6144407640630916e+07 
+5.0000000000000000e+00 -5.6529864727335555e-01 +7.7428050569457678e+00 -4.6229218144484108e-01 -4.1363807562814880e+00 +7.2756893945667098e+03 -1.1584362757253711e+05 -4.5706124969861865e+07 
+5.0999999999999996e+00 -5.6529940981260540e-01 +7.7428128351361396e+00 -4.5703867084205635e-01 -4.1043972767200119e+00 +7.1867122083191134e+03 -1.1620038120982175e+05 -4.5266490985909075e+07 
+5.2000000000000002e+00 -5.6530016916991643e-01 +7.7428205527900928e+00 -4.5199825726658244e-01 -4.0523372909927984e+00 +7.0995014599381175e+03 -1.1673167636254596e+05 -4.4826872433612421e+07 
+5.2999999999999998e+00 -5.6530092505483676e-01 +7.7428281896429425e+00 -4.4718192499273351e-01 -3.9758884910698806e+00 +7.0142944316908752e+03 -1.1746976987022300e+05 -4.4388637191841476e+07 
+5.4000000000000004e+00 -5.6530167717692381e-01 +7.7428357254169295e+00 -4.4260065974553214e-01 -3.8707381870210020e+00 +6.9313284447583910e+03 -1.1844692072494270e+05 -4.3953153324514315e+07 
+5.5000000000000000e+00 -5.6530242524568941e-01 +7.7428431398481683e+00 -4.3826545219848345e-01 -3.7325740908391896e+00 +6.8508409253530353e+03 -1.1969538552975167e+05 -4.3521789392233558e+07 
+5.5999999999999996e+00 -5.6530316897067323e-01 +7.7428504126656010e+00 -4.3418730344459661e-01 -3.5570836924488787e+00 +6.7730695138373867e+03 -1.2124742213537007e+05 -4.3095914984440289e+07 
+5.7000000000000002e+00 -5.6530390806133335e-01 +7.7428575236068928e+00 -4.3037721649065580e-01 -3.3399547386964703e+00 +6.6982518947765593e+03 -1.2313528681942832e+05 -4.2676899887762785e+07 
+5.7999999999999998e+00 -5.6530464222708665e-01 +7.7428644524045502e+00 -4.2684620674789842e-01 -3.0768748143290892e+00 +6.6266260075472837e+03 -1.2539123675067865e+05 -4.2266115117536969e+07 
+5.9000000000000004e+00 -5.6530537117736857e-01 +7.7428711788014368e+00 -4.2360529049925755e-01 -2.7635318112425207e+00 +6.5584298197316957e+03 -1.2804752720617446e+05 -4.1864931816222928e+07 
+5.9999999999999902e+00 -5.6530609462153680e-01 +7.7428776825399881e+00 -4.2066549722606467e-01 -2.3956139152294780e+00 +6.4939015254788565e+03 -1.3113641120517036e+05 -4.1474722100044869e+07 
+6.0999999999999899e+00 -5.6530681236274982e-01 +7.7428839651193062e+00 -4.1803018125155544e-01 -1.9712825601433639e+00 +6.4331450906767896e+03 -1.3467196694730915e+05 -4.1096305920582265e+07 
+6.1999999999999904e+00 -5.6530752456469258e-01 +7.7428901019396532e+00 -4.1567181128117409e-01 -1.4972606232517940e+00 +6.3757838304735560e+03 -1.3860496842601078e+05 -4.0728723176894039e+07 
+6.2999999999999901e+00 -5.6530823147694853e-01 +7.7428961842226034e+00 -4.1355521467025297e-01 -9.8213570054693156e-01 +6.3213333780843859e+03 -1.4287231610168231e+05 -4.0370657398633540e+07 
+6.3999999999999897e+00 -5.6530893334916044e-01 +7.7429023031812383e+00 -4.1164520809409638e-01 -4.3449514012222767e-01 +6.2693091520980943e+03 -1.4741091156055682e+05 -4.0020791113958180e+07 
+6.4999999999999902e+00 -5.6530963043102544e-01 +7.7429085500159678e+00 -4.0990659773708160e-01 +1.3707412309239342e-01 +6.2192263572238917e+03 -1.5215765857969670e+05 -3.9677805848309346e+07 
+6.5999999999999899e+00 -5.6531032297227490e-01 +7.7429150159104889e+00 -4.0830418135655128e-01 +7.2398565992863007e-01 +6.1706000218126701e+03 -1.5704946357669838e+05 -3.9340382301007107e+07 
+6.6999999999999904e+00 -5.6531101122272687e-01 +7.7429217920434326e+00 -4.0680274181057524e-01 +1.3176532188741348e+00 +6.1229448752806447e+03 -1.6202323373063875e+05 -3.9007199765203685e+07 
+6.7999999999999901e+00 -5.6531169543225968e-01 +7.7429289695761820e+00 -4.0536705385606486e-01 +1.9094910718823326e+00 +6.0757754768950890e+03 -1.6701587894315418e+05 -3.8676936741767623e+07 
+6.8999999999999897e+00 -5.6531237585071015e-01 +7.7429366396545580e+00 -4.0396188175158809e-01 +2.4909139786018617e+00 +6.0286061652568005e+03 -1.7196431166371607e+05 -3.8348270689043112e+07 
+6.9999999999999902e+00 -5.6531305272809884e-01 +7.7429448934134681e+00 -4.0255197356345757e-01 +3.0533370476898711e+00 +5.9809509574308840e+03 -1.7680544605638480e+05 -3.8019877562727951e+07 
+7.0999999999999899e+00 -5.6531372631444299e-01 +7.7429538219720175e+00 -4.0110206847749896e-01 +3.5881758757509488e+00 +5.9323236773065100e+03 -1.8147619878002862e+05 -3.7690432403389439e+07 
+7.1999999999999904e+00 -5.6531439685985829e-01 +7.7429635164340773e+00 -3.9957688924726492e-01 +4.0868465355763526e+00 +5.8822378223797232e+03 -1.8591348892753862e+05 -3.7358608731094241e+07 
+7.2999999999999901e+00 -5.6531506461452297e-01 +7.7429740678874097e+00 -3.9794114823461824e-01 +4.5407655944559684e+00 +5.8302066654716828e+03 -1.9005423809830096e+05 -3.7023078996523045e+07 
+7.3999999999999897e+00 -5.6531572982862566e-01 +7.7429855674030126e+00 -3.9615954140182286e-01 +4.9413501532502320e+00 +5.7757431523558762e+03 -1.9383537066287699e+05 -3.6682514129090391e+07 
+7.4999999999999902e+00 -5.6531639275252021e-01 +7.7429981060377910e+00 -3.9419675216484296e-01 +5.2800177429911148e+00 +5.7183599645556487e+03 -1.9719381307930412e+05 -3.6335583808100432e+07 
+7.5999999999999899e+00 -5.6531705363654072e-01 +7.7430117748266039e+00 -3.9201744660146615e-01 +5.5481865805962949e+00 +5.6575694319252361e+03 -2.0006649543607855e+05 -3.5980956061966911e+07 
+7.6999999999999904e+00 -5.6531771273115172e-01 +7.7430266647927191e+00 -3.8958627929778528e-01 +5.7372752453876528e+00 +5.5928836425776026e+03 -2.0239034950052563e+05 -3.5617297787363082e+07 
+7.7999999999999901e+00 -5.6531837028688836e-01 +7.7430428669332132e+00 -3.8686788608068778e-01 +5.8387031309207735e+00 +5.5238143028515551e+03 -2.0410231140967598e+05 -3.5243274082981884e+07 
+7.8999999999999897e+00 -5.6531902655440147e-01 +7.7430604722324654e+00 -3.8382688615685734e-01 +5.8438900180964550e+00 +5.4498727798423624e+03 -2.0513931908414944e+05 -3.4857548456677780e+07 
+7.9999999999999902e+00 -5.6531968178439540e-01 +7.7430795716244791e+00 -3.8042788387862275e-01 +5.7442577509084929e+00 +5.3705702300916682e+03 -2.0543832216664517e+05 -3.4458783630399778e+07 
+8.0999999999999908e+00 -5.6532033625483646e-01 +7.7431002042495676e+00 -3.7664789718486902e-01 +5.5347860941656606e+00 +5.2856430712164147e+03 -2.0496099295000988e+05 -3.4046465952863321e+07 
+8.1999999999999904e+00 -5.6532099027820548e-01 +7.7431222480443456e+00 -3.7251063420492381e-01 +5.2222504675952930e+00 +5.1955738928249230e+03 -2.0375250538962998e+05 -3.3622484746715762e+07 
+8.2999999999999901e+00 -5.6532164416214215e-01 +7.7431455494050221e+00 -3.6805068522452938e-01 +4.8158965653146728e+00 +5.1009999933920972e+03 -2.0187584907175772e+05 -3.3189155352648936e+07 
+8.3999999999999897e+00 -5.6532229821410751e-01 +7.7431699547417585e+00 -3.6330265525661076e-01 +4.3249695729352640e+00 +5.0025589523935259e+03 -1.9939401067438343e+05 -3.2748794386853538e+07 
+8.4999999999999893e+00 -5.6532295274163546e-01 +7.7431953104656515e+00 -3.5830115740134522e-01 +3.7587145696433777e+00 +4.9008885071956329e+03 -1.9636997638107021e+05 -3.2303719163098294e+07 
+8.5999999999999908e+00 -5.6532360805208903e-01 +7.7432214630064005e+00 -3.5308081580163120e-01 +3.1263759867765293e+00 +4.7966266104710612e+03 -1.9286672868232924e+05 -3.1856247965103794e+07 
+8.6999999999999904e+00 -5.6532426445286410e-01 +7.7432482588006879e+00 -3.4767626796060691e-01 +2.4371979752290525e+00 +4.6904114728780669e+03 -1.8894724859754281e+05 -3.1408700244183123e+07 
+8.7999999999999794e+00 -5.6532492225121234e-01 +7.7432755442958969e+00 -3.4212216249084060e-01 +1.7004242504140075e+00 +4.5828815210483217e+03 -1.8467451465666824e+05 -3.0963396419939093e+07 
+8.8999999999999808e+00 -5.6532558175430814e-01 +7.7433031659494098e+00 -3.3645316173741668e-01 +9.2529815257451209e-01 +4.4746754487279995e+03 -1.8011150338228280e+05 -3.0522658123022173e+07 
+8.9999999999999805e+00 -5.6532624326934977e-01 +7.7433309702363378e+00 -3.3070393910138263e-01 +1.2106238792305676e-01 +4.3664321624807781e+03 -1.7532118769784187e+05 -3.0088807926343143e+07 
+9.0999999999999801e+00 -5.6532690710335420e-01 +7.7433588036365979e+00 -3.2490918428448051e-01 -7.0304057655074337e-01 +4.2587908857577859e+03 -1.7036653929207523e+05 -2.9664169850234441e+07 
+9.1999999999999797e+00 -5.6532757356329433e-01 +7.7433865126466586e+00 -3.1910359714164627e-01 -1.5377688771788089e+00 +4.1523910416983908e+03 -1.6531052645421322e+05 -2.9251068798640326e+07 
+9.2999999999999794e+00 -5.6532824295610973e-01 +7.7434139437770426e+00 -3.1332189560434015e-01 -2.3738811694046524e+00 +4.0478723990725480e+03 -1.6021611460626373e+05 -2.8851831242822900e+07 
+9.3999999999999808e+00 -5.6532891558861076e-01 +7.7434409435470091e+00 -3.0759880884125090e-01 -3.2021364781809818e+00 +3.9458749527431710e+03 -1.5514626717761243e+05 -2.8468784674187887e+07 
+9.4999999999999805e+00 -5.6532959176749620e-01 +7.7434673584956863e+00 -3.0196908352386692e-01 -4.0132945341887476e+00 +3.8470390300923245e+03 -1.5016394362428819e+05 -2.8104258077116713e+07 
+9.5999999999999801e+00 -5.6533027179947826e-01 +7.7434930351721984e+00 -2.9646748035951270e-01 -4.7981154801322869e+00 +3.7520052361828366e+03 -1.4533210117179767e+05 -2.7760581694483403e+07 
+9.6999999999999797e+00 -5.6533095599105299e-01 +7.7435178201384884e+00 -2.9112877759765626e-01 -5.5473599623500816e+00 +3.6614145129197177e+03 -1.4071369426812351e+05 -2.7440087285941284e+07 
+9.7999999999999794e+00 -5.6533164464877528e-01 +7.7435415599751929e+00 -2.8598776560365563e-01 -6.2517892982841907e+00 +3.5759080442987693e+03 -1.3637167363511468e+05 -2.7145107697992992e+07 
+9.8999999999999808e+00 -5.6533233807897210e-01 +7.7435641012782988e+00 -2.8107925700104469e-01 -6.9021653842611661e+00 +3.4961274392924533e+03 -1.3236898680593795e+05 -2.6877977705962971e+07 
+9.9999999999999805e+00 -5.6533303658780487e-01 +7.7435852907043889e+00 -2.7643808017517918e-01 -7.4892528633980699e+00 +3.4227144480693523e+03 -1.2876856479276660e+05 -2.6641032303189654e+07 
+1.0100000000000000e+01 -5.6533374026423089e-01 +7.7436049896148180e+00 -2.7209644315045117e-01 -8.0058463415887324e+00 +3.3561880205743760e+03 -1.2561838474697541e+05 -2.6435996665749446e+07 
