# multipoles
# s[mm] polynom_b[n=0][T/m^n] polynom_b[n=1][T/m^n] polynom_b[n=2][T/m^n] polynom_b[n=3][T/m^n] polynom_b[n=4][T/m^n] polynom_b[n=5][T/m^n] polynom_b[n=6][T/m^n] 
+0.0000000000000000e+00 -5.6496768008101861e-01 +7.7444781635795445e+00 -5.7155811343552143e-01 -4.4580076618630308e+01 +7.4235502718939933e+03 +3.4017964873325291e+04 -4.0675831320313513e+07 
+1.0000000000000001e-01 -5.6496753307765635e-01 +7.7444356408326716e+00 -5.7879199003767345e-01 -4.3360220232992752e+01 +7.5247380300229925e+03 +2.6677888321293820e+04 -4.1061868539313845e+07 
+2.0000000000000001e-01 -5.6496740019071967e-01 +7.7443934851494722e+00 -5.8566949384189593e-01 -4.2131946018467907e+01 +7.6233796486525280e+03 +1.9237507883532511e+04 -4.1441794549873747e+07 
+3.0000000000000004e-01 -5.6496728123813622e-01 +7.7443518259503694e+00 -5.9217048313599108e-01 -4.0902260253717024e+01 +7.7188784928886325e+03 +1.1745733251541271e+04 -4.1812498041283198e+07 
+4.0000000000000002e-01 -5.6496717603785251e-01 +7.7443107926554884e+00 -5.9827481342949584e-01 -3.9678169259890339e+01 +7.8106378739964621e+03 +4.2514745023504402e+03 -4.2170867444204286e+07 
+5.0000000000000000e-01 -5.6496708440781096e-01 +7.7442705146721327e+00 -6.0396234110872626e-01 -3.8466679009579074e+01 +7.8980611220042438e+03 -3.1963602594773615e+03 -4.2513791282285973e+07 
+5.9999999999999998e-01 -5.6496700616596462e-01 +7.7442311214192339e+00 -6.0921292170840924e-01 -3.7274795842662144e+01 +7.9805515536694384e+03 -1.0548860721944477e+04 -4.2838158025769651e+07 
+6.9999999999999996e-01 -5.6496694113025570e-01 +7.7441927423041541e+00 -6.1400641145536872e-01 -3.6109525773824309e+01 +8.0575124962785858e+03 -1.7757118448737900e+04 -4.3140856191252403e+07 
+7.9999999999999993e-01 -5.6496688911865756e-01 +7.7441555067349137e+00 -6.1832266299864824e-01 -3.4977874866918249e+01 +8.1283472111828532e+03 -2.4772224641041030e+04 -4.3418773991449170e+07 
+8.9999999999999991e-01 -5.6496684994915314e-01 +7.7441195441201778e+00 -6.2214152682234214e-01 -3.3886849209033066e+01 +8.1924589153062225e+03 -3.1545270368544574e+04 -4.3668799427231796e+07 
+9.9999999999999989e-01 -5.6496682343972238e-01 +7.7440849838625070e+00 -6.2544285441508873e-01 -3.2843454716479172e+01 +8.2492508490548389e+03 -3.8027347690291463e+04 -4.3887820630199820e+07 
+1.0999999999999999e+00 -5.6496680940837907e-01 +7.7440519553641902e+00 -6.2820649198222289e-01 -3.1854697311179983e+01 +8.2981261478886372e+03 -4.4169548611659702e+04 -4.4072725230822086e+07 
+1.2000000000000000e+00 -5.6496680767314167e-01 +7.7440205880261592e+00 -6.3041228453748444e-01 -3.0927582861644286e+01 +8.3384879214246048e+03 -4.9922965499290927e+04 -4.4220400740054689e+07 
+1.3000000000000000e+00 -5.6496681805206761e-01 +7.7439910112437698e+00 -6.3204007231929238e-01 -3.0069117073324939e+01 +8.3697391935008254e+03 -5.5238691694089241e+04 -4.4327734287762746e+07 
+1.4000000000000001e+00 -5.6496684036321621e-01 +7.7439633544158628e+00 -6.3306969373343369e-01 -2.9286305750403379e+01 +8.3912829443987102e+03 -6.0067819981716850e+04 -4.4391612789464034e+07 
+1.5000000000000002e+00 -5.6496687442465954e-01 +7.7439377469371280e+00 -6.3348098524153573e-01 -2.8586154555069662e+01 +8.4025221179147302e+03 -6.4361444054637373e+04 -4.4408923004565023e+07 
+1.6000000000000003e+00 -5.6496692005453475e-01 +7.7439143181938661e+00 -6.3325377425900309e-01 -2.7975668885761063e+01 +8.4028594834738869e+03 -6.8070659212976010e+04 -4.4376550875986062e+07 
+1.7000000000000004e+00 -5.6496697707096388e-01 +7.7438931975797320e+00 -6.3236788908462038e-01 -2.7461854331793887e+01 +8.3916978234382004e+03 -7.1146559733970062e+04 -4.4291382417973228e+07 
+1.8000000000000005e+00 -5.6496704529213138e-01 +7.7438745144778478e+00 -6.3080314860206965e-01 -2.7051716157426352e+01 +8.3684397353930472e+03 -7.3540241854465989e+04 -4.4150302773098901e+07 
+1.9000000000000006e+00 -5.6496712453623021e-01 +7.7438583982759939e+00 -6.2853937043627428e-01 -2.6752259718030967e+01 +8.3324877951592916e+03 -7.5202801430995532e+04 -4.3950197010245927e+07 
+2.0000000000000004e+00 -5.6496721462148458e-01 +7.7438449783540317e+00 -6.2555636629731304e-01 -2.6570490109677142e+01 +8.2832444573043631e+03 -7.6085335926700602e+04 -4.3687949623613805e+07 
+2.1000000000000005e+00 -5.6496731536753830e-01 +7.7438343191980001e+00 -6.2184109804046461e-01 -2.6510262579649321e+01 +8.2202995113997367e+03 -7.6160079159995672e+04 -4.3361438294386849e+07 
+2.2000000000000006e+00 -5.6496742658530663e-01 +7.7438262292286923e+00 -6.1741029624260446e-01 -2.6562948272913712e+01 +8.1439908412585364e+03 -7.5483161917078920e+04 -4.2972431827695042e+07 
+2.3000000000000007e+00 -5.6496754807999383e-01 +7.7438204537011313e+00 -6.1228841824379243e-01 -2.6716824108783886e+01 +8.0548429368690959e+03 -7.4131542218659481e+04 -4.2523650985103540e+07 
+2.4000000000000008e+00 -5.6496767965678030e-01 +7.7438167378731517e+00 -6.0649992519792573e-01 -2.6960167074750355e+01 +7.9533803617570147e+03 -7.2182177705035501e+04 -4.2017816871609487e+07 
+2.5000000000000009e+00 -5.6496782112083432e-01 +7.7438148269911409e+00 -6.0006927978385460e-01 -2.7281253834478640e+01 +7.8401277053519107e+03 -6.9712027853687890e+04 -4.1457650696212947e+07 
+2.6000000000000010e+00 -5.6496797227731377e-01 +7.7438144663062412e+00 -5.9302094737516597e-01 -2.7668361174891395e+01 +7.7156096128705403e+03 -6.6798051437456423e+04 -4.0845873931350708e+07 
+2.7000000000000011e+00 -5.6496813293137094e-01 +7.7438154010679208e+00 -5.8537939433139896e-01 -2.8109765856020427e+01 +7.5803507454535065e+03 -6.3517207286979545e+04 -4.0185208102459431e+07 
+2.8000000000000012e+00 -5.6496830288811162e-01 +7.7438173765213492e+00 -5.7716909387648663e-01 -2.8593744492058644e+01 +7.4348758951624095e+03 -5.9946455117495381e+04 -3.9478375339169420e+07 
+2.9000000000000012e+00 -5.6496848195261529e-01 +7.7438201379093634e+00 -5.6841452328244502e-01 -2.9108573649535206e+01 +7.2797099325593126e+03 -5.6162754812225350e+04 -3.8728098130261824e+07 
+3.0000000000000013e+00 -5.6496866992994710e-01 +7.7438234304723252e+00 -5.5914016356773211e-01 -2.9642529812820378e+01 +7.1153778030324847e+03 -5.2243066720720861e+04 -3.7937099304898202e+07 
+3.1000000000000014e+00 -5.6496886662513668e-01 +7.7438269994525104e+00 -5.4937050078483640e-01 -3.0183889532303759e+01 +6.9424045463957536e+03 -4.8264350734640626e+04 -3.7108102113392405e+07 
+3.2000000000000015e+00 -5.6496907184316214e-01 +7.7438305900867590e+00 -5.3913002886490635e-01 -3.0720929202417857e+01 +6.7613153523760020e+03 -4.4303567596838293e+04 -3.6243830490821563e+07 
+3.3000000000000016e+00 -5.6496928538899394e-01 +7.7438339476119982e+00 -5.2844324437548540e-01 -3.1241925222189959e+01 +6.5726354647549406e+03 -4.0437677958718145e+04 -3.5347008610447459e+07 
+3.4000000000000017e+00 -5.6496950706752380e-01 +7.7438368172602985e+00 -5.1733465541261525e-01 -3.1735153863820237e+01 +6.3768903484689044e+03 -3.6743643114831350e+04 -3.4420361669811592e+07 
+3.5000000000000018e+00 -5.6496973668362327e-01 +7.7438389442615607e+00 -5.0582877406122795e-01 -3.2188891334273720e+01 +6.1746055439041311e+03 -3.3298424677262003e+04 -3.3466615188444171e+07 
+3.6000000000000019e+00 -5.6496997404211402e-01 +7.7438400738521054e+00 -4.9395012075366285e-01 -3.2591414038394561e+01 +5.9663067540735356e+03 -3.0178983017923863e+04 -3.2488495432949271e+07 
+3.7000000000000020e+00 -5.6497021894774579e-01 +7.7438399512533245e+00 -4.8172322680422536e-01 -3.2930997956324248e+01 +5.7525198920885186e+03 -2.7462280872882944e+04 -3.1488729638634849e+07 
+3.8000000000000020e+00 -5.6497047120525667e-01 +7.7438383216944233e+00 -4.6917262691147837e-01 -3.3195919304757169e+01 +5.5337709350543155e+03 -2.5225279510730790e+04 -3.0470045300454721e+07 
+3.9000000000000021e+00 -5.6497073061926473e-01 +7.7438349303990757e+00 -4.5632287315676889e-01 -3.3374454143453335e+01 +5.3105861953299918e+03 -2.3544941019577229e+04 -2.9435171477367193e+07 
+4.0000000000000018e+00 -5.6497099699439157e-01 +7.7438295225909712e+00 -4.4319851954153300e-01 -3.3454878554051199e+01 +5.0834920246261345e+03 -2.2498227220205979e+04 -2.8386837374498449e+07 
+4.1000000000000014e+00 -5.6497127004599978e-01 +7.7438219049984243e+00 -4.2983291182978917e-01 -3.3428455262192230e+01 +4.8531583841621514e+03 -2.2142731791135804e+04 -2.7328340645211339e+07 
+4.2000000000000011e+00 -5.6497154915645653e-01 +7.7438121323012057e+00 -4.1629283145940321e-01 -3.3298420130239421e+01 +4.6208419524347546e+03 -2.2458669788419294e+04 -2.6265437750469286e+07 
+4.3000000000000007e+00 -5.6497183363075620e-01 +7.7438003217725031e+00 -4.0265300852385327e-01 -3.3071016872807370e+01 +4.3879495986766206e+03 -2.3406881283764447e+04 -2.5204547894328140e+07 
+4.4000000000000004e+00 -5.6497212277387265e-01 +7.7437865906919798e+00 -3.8898817481713838e-01 -3.2752489440125125e+01 +4.1558882255156468e+03 -2.4948204839428181e+04 -2.4152090452155262e+07 
+4.5000000000000000e+00 -5.6497241589083225e-01 +7.7437710563441309e+00 -3.7537305523783987e-01 -3.2349081981779499e+01 +3.9260646084404775e+03 -2.7043477675297592e+04 -2.3114484214041956e+07 
+4.5999999999999996e+00 -5.6497271228664503e-01 +7.7437538360245668e+00 -3.6188237610920271e-01 -3.1867039023882867e+01 +3.6998855529198181e+03 -2.9653534659829718e+04 -2.2098148132717650e+07 
+4.6999999999999993e+00 -5.6497301126634947e-01 +7.7437350470324118e+00 -3.4859085951108149e-01 -3.1312605255372464e+01 +3.4787577862585208e+03 -3.2739209525477210e+04 -2.1109500807482384e+07 
+4.7999999999999989e+00 -5.6497331213497726e-01 +7.7437148066764943e+00 -3.3557322753016933e-01 -3.0692025696533165e+01 +3.2640880402533890e+03 -3.6261333931165274e+04 -2.0154960885889094e+07 
+4.8999999999999986e+00 -5.6497361419758940e-01 +7.7436932322734036e+00 -3.2290419748248500e-01 -3.0011545671825203e+01 +3.0572829545820387e+03 -4.0180737526565616e+04 -1.9240946586821068e+07 
+4.9999999999999982e+00 -5.6497391675927722e-01 +7.7436704411537916e+00 -3.1065848241337507e-01 -2.9277410969765590e+01 +2.8597490960540545e+03 -4.4458247102508962e+04 -1.8373875822800782e+07 
+5.0999999999999979e+00 -5.6497421912511159e-01 +7.7436465506493075e+00 -2.9891079639438323e-01 -2.8495867483496419e+01 +2.6728930492836371e+03 -4.9054688610902318e+04 -1.7560166602553714e+07 
+5.1999999999999975e+00 -5.6497452060022868e-01 +7.7436216781064608e+00 -2.8773584499158239e-01 -2.7673161605004353e+01 +2.4981212463006755e+03 -5.3930884905603038e+04 -1.6806236253785446e+07 
+5.2999999999999972e+00 -5.6497482048975434e-01 +7.7435959408820194e+00 -2.7720833363884040e-01 -2.6815540103395072e+01 +2.3368401165043110e+03 -5.9047656416576880e+04 -1.6118502109202323e+07 
+5.3999999999999968e+00 -5.6497511809884993e-01 +7.7435694563412474e+00 -2.6740296149574216e-01 -2.5929250066260835e+01 +2.1904559719756012e+03 -6.4365821511048394e+04 -1.5503380973076353e+07 
+5.4999999999999964e+00 -5.6497541273271135e-01 +7.7435423418624207e+00 -2.5839442318768763e-01 -2.5020539047616541e+01 +2.0603750463428260e+03 -6.9846195581871580e+04 -1.4967289316633794e+07 
+5.5999999999999961e+00 -5.6497570369653027e-01 +7.7435147148346353e+00 -2.5025741203531138e-01 -2.4095654987775152e+01 +1.9480035513373662e+03 -7.5449591573020938e+04 -1.4516643540674897e+07 
+5.6999999999999957e+00 -5.6497599029555501e-01 +7.7434866926599817e+00 -2.4306661265576882e-01 -2.3160846301066019e+01 +1.8547475333171485e+03 -8.1136819387884025e+04 -1.4157859283321390e+07 
+5.7999999999999954e+00 -5.6497627183504606e-01 +7.7434583927525180e+00 -2.3689670719810946e-01 -2.2222361835389663e+01 +1.7820130014984936e+03 -8.6868686159627949e+04 -1.3897352059363892e+07 
+5.8999999999999950e+00 -5.6497654762029492e-01 +7.7434299325389269e+00 -2.3182237193930197e-01 -2.1286450891696727e+01 +1.7312058539337092e+03 -9.2605996142511620e+04 -1.3741536883694127e+07 
+5.9999999999999947e+00 -5.6497681695663671e-01 +7.7434014294614908e+00 -2.2791827657219013e-01 -2.0359363323233058e+01 +1.7037318682566645e+03 -9.8309550104777678e+04 -1.3696828238587780e+07 
+6.0999999999999943e+00 -5.6497707933729691e-01 +7.7433730013697044e+00 -2.2523474512524452e-01 -1.9447023034372137e+01 +1.7004930084767268e+03 -1.0394227466228213e+05 -1.3767205902470706e+07 
+6.1999999999999940e+00 -5.6497733500465519e-01 +7.7433447490122580e+00 -2.2372498569656948e-01 -1.8553437449891689e+01 +1.7203665050222273e+03 -1.0947884229458045e+05 -1.3946841708329139e+07 
+6.2999999999999936e+00 -5.6497758438788237e-01 +7.7433167641290677e+00 -2.2331793101720826e-01 -1.7681978163807141e+01 +1.7617191820301275e+03 -1.1489769041083996e+05 -1.4227428616753558e+07 
+6.3999999999999932e+00 -5.6497782791616835e-01 +7.7432891384574685e+00 -2.2394251025754641e-01 -1.6836016575910389e+01 +1.8229177924713890e+03 -1.2017725797403431e+05 -1.4600659262064040e+07 
+6.4999999999999929e+00 -5.6497806601870126e-01 +7.7432619637403786e+00 -2.2552765203864608e-01 -1.6018924120793301e+01 +1.9023290798918511e+03 -1.2529598423701400e+05 -1.5058226255581217e+07 
+6.5999999999999925e+00 -5.6497829912474307e-01 +7.7432353317167557e+00 -2.2800227608866436e-01 -1.5234072002421421e+01 +1.9983196281008015e+03 -1.3023231026392139e+05 -1.5591821494930800e+07 
+6.6999999999999922e+00 -5.6497852766354362e-01 +7.7432093341241961e+00 -2.3129530193721104e-01 -1.4484831241552273e+01 +2.1092560112267424e+03 -1.3496467874197979e+05 -1.6193136836642265e+07 
+6.7999999999999918e+00 -5.6497875206441939e-01 +7.7431840627047279e+00 -2.3533564058331988e-01 -1.3774572865940314e+01 +2.2335046469601593e+03 -1.3947153281173523e+05 -1.6853863429246366e+07 
+6.8999999999999915e+00 -5.6497897275667897e-01 +7.7431596091989903e+00 -2.4005220318589809e-01 -1.3106667710158010e+01 +2.3694319563955751e+03 -1.4373131733654608e+05 -1.7565692461282916e+07 
+6.9999999999999911e+00 -5.6497919016967502e-01 +7.7431360653452135e+00 -2.4537389481626701e-01 -1.2484486391464264e+01 +2.5154042482890832e+03 -1.4772247901461308e+05 -1.8320314618883256e+07 
+7.0999999999999908e+00 -5.6497940473282715e-01 +7.7431135228837986e+00 -2.5122961143704886e-01 -1.1911399446761632e+01 +2.6697876601667958e+03 -1.5142346559489713e+05 -1.9109419802055281e+07 
+7.1999999999999904e+00 -5.6497961687553677e-01 +7.7430920735522886e+00 -2.5754825043707436e-01 -1.1390777156538313e+01 +2.8309483572588529e+03 -1.5481272698538218e+05 -1.9924698068475004e+07 
+7.2999999999999901e+00 -5.6497982702726746e-01 +7.7430718090939274e+00 -2.6425870093239062e-01 -1.0925989808020809e+01 +2.9972523519202705e+03 -1.5786871368507485e+05 -2.0757838785445128e+07 
+7.3999999999999897e+00 -5.6498003561750165e-01 +7.7430528212416059e+00 -2.7128984857412736e-01 -1.0520407220749050e+01 +3.1670655908841554e+03 -1.6056987957281977e+05 -2.1600531035141744e+07 
+7.4999999999999893e+00 -5.6498024307577488e-01 +7.7430352017349025e+00 -2.7857057167811783e-01 -1.0177399230428602e+01 +3.3387538826305763e+03 -1.6289467913012719e+05 -2.2444463269759994e+07 
+7.5999999999999890e+00 -5.6498044983167062e-01 +7.7430190423102232e+00 -2.8602974207015319e-01 -9.9003353909045284e+00 +3.5106829176365568e+03 -1.6482156921976889e+05 -2.3281323422867972e+07 
+7.6999999999999886e+00 -5.6498065631475780e-01 +7.7430044347038161e+00 -2.9359623211746755e-01 -9.6925850726380745e+00 +3.6812183954038110e+03 -1.6632900847750722e+05 -2.4102799494983625e+07 
+7.7999999999999883e+00 -5.6498086295470606e-01 +7.7429914706488354e+00 -3.0119890108773395e-01 -9.5575173652421537e+00 +3.8487257703682931e+03 -1.6739545792534639e+05 -2.4900578359523151e+07 
+7.8999999999999879e+00 -5.6498107018118515e-01 +7.7429802418789695e+00 -3.0876660726085053e-01 -9.4985011657484861e+00 +4.0115704800429380e+03 -1.6799938050838670e+05 -2.5666346843668055e+07 
+7.9999999999999876e+00 -5.6498127842393620e-01 +7.7429708401248023e+00 -3.1622819940468411e-01 -9.5189050448515058e+00 +4.1681177891312482e+03 -1.6811924190185347e+05 -2.6391791001461715e+07 
+8.0999999999999872e+00 -5.6498148806031490e-01 +7.7429633266662981e+00 -3.2352176609421907e-01 -9.6205271354840001e+00 +4.3169939641431502e+03 -1.6774321123148710e+05 -2.7070076286088582e+07 
+8.1999999999999869e+00 -5.6498169923840369e-01 +7.7429576588419327e+00 -3.3062362997097861e-01 -9.7996418758550536e+00 +4.4578460941620551e+03 -1.6689342206739180e+05 -2.7700073726968929e+07 
+8.2999999999999865e+00 -5.6498191204416492e-01 +7.7429537722371258e+00 -3.3752002933442610e-01 -1.0051317602221570e+01 +4.5905726823661034e+03 -1.6559937239589059e+05 -2.8282041153122224e+07 
+8.3999999999999861e+00 -5.6498212656357949e-01 +7.7429516024340419e+00 -3.4419720234784906e-01 -1.0370622510456604e+01 +4.7150722250006256e+03 -1.6389056081908676e+05 -2.8816236330545943e+07 
+8.4999999999999858e+00 -5.6498234288257176e-01 +7.7429510849994267e+00 -3.5064139511058007e-01 -1.0752624332871072e+01 +4.8312433524229327e+03 -1.6179648839129959e+05 -2.9302917590981729e+07 
+8.5999999999999854e+00 -5.6498256108708667e-01 +7.7429521554900216e+00 -3.5683885425876782e-01 -1.1192390460190911e+01 +4.9389847033066035e+03 -1.5934665799793732e+05 -2.9742343272979748e+07 
+8.6999999999999851e+00 -5.6498278126303236e-01 +7.7429547494537303e+00 -3.6277583235737060e-01 -1.1684988011005494e+01 +5.0381950169214988e+03 -1.5657057384236279e+05 -3.0134772134448308e+07 
+8.7999999999999847e+00 -5.6498300349629105e-01 +7.7429588024268616e+00 -3.6843858767693610e-01 -1.2225483727475448e+01 +5.1287731331922314e+03 -1.5349774211011807e+05 -3.0480463361692064e+07 
+8.8999999999999844e+00 -5.6498322787273336e-01 +7.7429642499320019e+00 -3.7381338147926024e-01 -1.2808943926831281e+01 +5.2106179355665336e+03 -1.5015767120555407e+05 -3.0779676282371651e+07 
+8.9999999999999840e+00 -5.6498345447822218e-01 +7.7429710274887240e+00 -3.7888647899196665e-01 -1.3430434798523601e+01 +5.2836283774714939e+03 -1.4657987005217755e+05 -3.1032670511147466e+07 
+9.0999999999999837e+00 -5.6498368339858318e-01 +7.7429790705944654e+00 -3.8364415199094226e-01 -1.4085021869365898e+01 +5.3477035233867018e+03 -1.4279385113806883e+05 -3.1239706122242205e+07 
+9.1999999999999833e+00 -5.6498391471962583e-01 +7.7429883147378575e+00 -3.8807267623958674e-01 -1.4767770368337231e+01 +5.4027425020928094e+03 -1.3882912843847129e+05 -3.1401043433354568e+07 
+9.2999999999999829e+00 -5.6498414852713630e-01 +7.7429986953972669e+00 -3.9215833344280321e-01 -1.5473745200185681e+01 +5.4486445473504136e+03 -1.3471521753044470e+05 -3.1516943204930771e+07 
+9.3999999999999826e+00 -5.6498438490687786e-01 +7.7430101480348155e+00 -3.9588741014828932e-01 -1.6198010769110784e+01 +5.4853089703653368e+03 -1.3048163659888414e+05 -3.1587666491849955e+07 
+9.4999999999999822e+00 -5.6498462394458226e-01 +7.7430226081019535e+00 -3.9924619979082321e-01 -1.6935631133381499e+01 +5.5126352051376398e+03 -1.2615790556431968e+05 -3.1613474875057500e+07 
+9.5999999999999819e+00 -5.6498486572597695e-01 +7.7430360110349206e+00 -4.0222099845648318e-01 -1.7681669881225293e+01 +5.5305227203836821e+03 -1.2177354675777975e+05 -3.1594630021274671e+07 
+9.6999999999999815e+00 -5.6498511033674315e-01 +7.7430502922564735e+00 -4.0479811106536434e-01 -1.8431190176818369e+01 +5.5388711442925751e+03 -1.1735808466656128e+05 -3.1531394295630332e+07 
+9.7999999999999812e+00 -5.6498535786253434e-01 +7.7430653871734556e+00 -4.0696384835814631e-01 -1.9179254693117755e+01 +5.5375801989972115e+03 -1.1294104630321971e+05 -3.1424030425278910e+07 
+9.8999999999999808e+00 -5.6498560838900047e-01 +7.7430812311801329e+00 -4.0870452456894391e-01 -1.9920925706220746e+01 +5.5265496640209703e+03 -1.0855196064718186e+05 -3.1272801346514653e+07 
+9.9999999999999805e+00 -5.6498586200173451e-01 +7.7430977596559263e+00 -4.1000646386635009e-01 -2.0651265074591233e+01 +5.5056794869166324e+03 -1.0422035875493524e+05 -3.1077970701714039e+07 
+1.0099999999999980e+01 -5.6498611877742544e-01 +7.7431148813958286e+00 -4.1086581505938513e-01 -2.1365713659378510e+01 +5.4750441818892141e+03 -9.9972513985585072e+04 -3.0840505022301190e+07 
