# field on trajectory
# s[mm] rx[mm] ry[mm] rz[mm] bx[T] by[T] bz[T]
0.0000000000000000e+00 +8.1529999999999987e+00 +0.0000000000000000e+00 +0.0000000000000000e+00 -2.8231060447649992e-02 -5.3649349511790356e-01 +5.3415668399049310e-03
-1.0000000000000001e-01 +8.1529997171444641e+00 +0.0000000000000000e+00 -9.9999999999466613e-02 -2.8230994940017209e-02 -5.3649357359159566e-01 +5.3415091524620971e-03
-2.0000000000000001e-01 +8.1529988685778054e+00 +0.0000000000000000e+00 -1.9999999999573295e-01 -2.8230929560986898e-02 -5.3649365098945700e-01 +5.3414517150966760e-03
-3.0000000000000004e-01 +8.1529974542999408e+00 +0.0000000000000000e+00 -2.9999999998559868e-01 -2.8230864160054579e-02 -5.3649372702165188e-01 +5.3413946339747609e-03
-4.0000000000000002e-01 +8.1529954743107904e+00 +0.0000000000000000e+00 -3.9999999996586355e-01 -2.8230798586711466e-02 -5.3649380139834502e-01 +5.3413380152637488e-03
-5.0000000000000000e-01 +8.1529929286102760e+00 +0.0000000000000000e+00 -4.9999999993332722e-01 -2.8230732690443568e-02 -5.3649387382970426e-01 +5.3412819651321407e-03
-5.9999999999999998e-01 +8.1529898171983213e+00 +0.0000000000000000e+00 -5.9999999988478947e-01 -2.8230666320730728e-02 -5.3649394402589878e-01 +5.3412265897493632e-03
-6.9999999999999996e-01 +8.1529861400748516e+00 +0.0000000000000000e+00 -6.9999999981704997e-01 -2.8230599327045667e-02 -5.3649401169710143e-01 +5.3411719952855922e-03
-7.9999999999999993e-01 +8.1529818972397958e+00 +0.0000000000000000e+00 -7.9999999972690838e-01 -2.8230531558853061e-02 -5.3649407655348735e-01 +5.3411182879115398e-03
-8.9999999999999991e-01 +8.1529770886930866e+00 +0.0000000000000000e+00 -8.9999999961116439e-01 -2.8230462865608676e-02 -5.3649413830523807e-01 +5.3410655737983074e-03
-9.9999999999999989e-01 +8.1529717144346581e+00 +0.0000000000000000e+00 -9.9999999946661777e-01 -2.8230393096758257e-02 -5.3649419666253695e-01 +5.3410139591171637e-03
-1.0999999999999999e+00 +8.1529657744644499e+00 +0.0000000000000000e+00 -1.0999999992900682e+00 -2.8230322101736788e-02 -5.3649425133557449e-01 +5.3409635500393801e-03
-1.2000000000000000e+00 +8.1529592687824035e+00 +0.0000000000000000e+00 -1.1999999990783154e+00 -2.8230249729967394e-02 -5.3649430203454662e-01 +5.3409144527360392e-03
-1.3000000000000000e+00 +8.1529521973884673e+00 +0.0000000000000000e+00 -1.2999999988281590e+00 -2.8230175830860495e-02 -5.3649434846965494e-01 +5.3408667733778519e-03
-1.4000000000000001e+00 +8.1529445602825916e+00 +0.0000000000000000e+00 -1.3999999985363987e+00 -2.8230100253812850e-02 -5.3649439035110880e-01 +5.3408206181349638e-03
-1.5000000000000002e+00 +8.1529363574647320e+00 +0.0000000000000000e+00 -1.4999999981998342e+00 -2.8230022848206568e-02 -5.3649442738912412e-01 +5.3407760931767807e-03
-1.6000000000000003e+00 +8.1529275889348494e+00 +0.0000000000000000e+00 -1.5999999978152653e+00 -2.8229943463408253e-02 -5.3649445929392514e-01 +5.3407333046717742e-03
-1.7000000000000004e+00 +8.1529182546929118e+00 +0.0000000000000000e+00 -1.6999999973794915e+00 -2.8229861948768000e-02 -5.3649448577574577e-01 +5.3406923587873047e-03
-1.8000000000000005e+00 +8.1529083547388908e+00 +0.0000000000000000e+00 -1.7999999968893128e+00 -2.8229778153618480e-02 -5.3649450654482678e-01 +5.3406533616894188e-03
-1.9000000000000006e+00 +8.1528978890727650e+00 +0.0000000000000000e+00 -1.8999999963415286e+00 -2.8229691927273995e-02 -5.3649452131142072e-01 +5.3406164195426899e-03
-2.0000000000000004e+00 +8.1528868576945204e+00 +0.0000000000000000e+00 -1.9999999957329386e+00 -2.8229603119029553e-02 -5.3649452978578938e-01 +5.3405816385100066e-03
-2.1000000000000005e+00 +8.1528752606041461e+00 +0.0000000000000000e+00 -2.0999999950603430e+00 -2.8229511586366475e-02 -5.3649453202097941e-01 +5.3405491131179438e-03
-2.2000000000000006e+00 +8.1528630978016423e+00 +0.0000000000000000e+00 -2.1999999943205406e+00 -2.8229417219578865e-02 -5.3649452944113651e-01 +5.3405188913537840e-03
-2.3000000000000007e+00 +8.1528503692870107e+00 +0.0000000000000000e+00 -2.2999999935103319e+00 -2.8229319917167886e-02 -5.3649452381317497e-01 +5.3404910095700064e-03
-2.4000000000000008e+00 +8.1528370750602583e+00 +0.0000000000000000e+00 -2.3999999926265163e+00 -2.8229219577638770e-02 -5.3649451690400085e-01 +5.3404655041189219e-03
-2.5000000000000009e+00 +8.1528232151213906e+00 +0.0000000000000000e+00 -2.4999999916658933e+00 -2.8229116099502627e-02 -5.3649451048051000e-01 +5.3404424113527305e-03
-2.6000000000000010e+00 +8.1528087894704164e+00 +0.0000000000000000e+00 -2.5999999906252631e+00 -2.8229009381278192e-02 -5.3649450630958717e-01 +5.3404217676235608e-03
-2.7000000000000011e+00 +8.1527937981073411e+00 +0.0000000000000000e+00 -2.6999999895014248e+00 -2.8228899321493601e-02 -5.3649450615810423e-01 +5.3404036092835009e-03
-2.8000000000000012e+00 +8.1527782410321628e+00 +0.0000000000000000e+00 -2.7999999882911784e+00 -2.8228785818688165e-02 -5.3649451179291852e-01 +5.3403879726846406e-03
-2.9000000000000012e+00 +8.1527621182448780e+00 +0.0000000000000000e+00 -2.8999999869913236e+00 -2.8228668771414167e-02 -5.3649452498087147e-01 +5.3403748941791267e-03
-3.0000000000000013e+00 +8.1527454297454724e+00 +0.0000000000000000e+00 -2.9999999855986603e+00 -2.8228548078238637e-02 -5.3649454748878778e-01 +5.3403644101191862e-03
-3.1000000000000014e+00 +8.1527281755339231e+00 +0.0000000000000000e+00 -3.0999999841099877e+00 -2.8228423637745078e-02 -5.3649458108347170e-01 +5.3403565568571672e-03
-3.2000000000000015e+00 +8.1527103556101945e+00 +0.0000000000000000e+00 -3.1999999825221059e+00 -2.8228295348535330e-02 -5.3649462753170851e-01 +5.3403513707455932e-03
-3.3000000000000016e+00 +8.1526919699742386e+00 +0.0000000000000000e+00 -3.2999999808318146e+00 -2.8228163109231260e-02 -5.3649468860026150e-01 +5.3403488881371948e-03
-3.4000000000000017e+00 +8.1526730186259897e+00 +0.0000000000000000e+00 -3.3999999790359130e+00 -2.8228026818476595e-02 -5.3649476605586932e-01 +5.3403491453849431e-03
-3.5000000000000018e+00 +8.1526535015653678e+00 +0.0000000000000000e+00 -3.4999999771312011e+00 -2.8227886374938685e-02 -5.3649486166524651e-01 +5.3403521788421109e-03
-3.6000000000000019e+00 +8.1526334187922735e+00 +0.0000000000000000e+00 -3.5999999751144789e+00 -2.8227741677310264e-02 -5.3649497719508155e-01 +5.3403580248622858e-03
-3.7000000000000020e+00 +8.1526127703065843e+00 +0.0000000000000000e+00 -3.6999999729825457e+00 -2.8227592624311227e-02 -5.3649511441203390e-01 +5.3403667197994336e-03
-3.8000000000000020e+00 +8.1525915561081561e+00 +0.0000000000000000e+00 -3.7999999707322014e+00 -2.8227439114690431e-02 -5.3649527508273420e-01 +5.3403783000079263e-03
-3.9000000000000021e+00 +8.1525697761968203e+00 +0.0000000000000000e+00 -3.8999999683602455e+00 -2.8227281047227451e-02 -5.3649546097378187e-01 +5.3403928018425873e-03
-4.0000000000000018e+00 +8.1525474305723815e+00 +0.0000000000000000e+00 -3.9999999658634775e+00 -2.8227118320734389e-02 -5.3649567385174368e-01 +5.3404102616587340e-03
-4.1000000000000014e+00 +8.1525245192346159e+00 +0.0000000000000000e+00 -4.0999999632386972e+00 -2.8226951009550048e-02 -5.3649591489184012e-01 +5.3404306878012189e-03
-4.2000000000000011e+00 +8.1525010421832693e+00 +0.0000000000000000e+00 -4.1999999604827041e+00 -2.8226779890005462e-02 -5.3649618290401357e-01 +5.3404539765708704e-03
-4.3000000000000007e+00 +8.1524769994180613e+00 +0.0000000000000000e+00 -4.2999999575922976e+00 -2.8226605913921659e-02 -5.3649647610689244e-01 +5.3404799962565716e-03
-4.4000000000000004e+00 +8.1524523909386826e+00 +0.0000000000000000e+00 -4.3999999545642776e+00 -2.8226430033112437e-02 -5.3649679271910811e-01 +5.3405086151461049e-03
-4.5000000000000000e+00 +8.1524272167448011e+00 +0.0000000000000000e+00 -4.4999999513954441e+00 -2.8226253199383610e-02 -5.3649713095929619e-01 +5.3405397015261124e-03
-4.5999999999999996e+00 +8.1524014768360615e+00 +0.0000000000000000e+00 -4.5999999480825959e+00 -2.8226076364532202e-02 -5.3649748904609595e-01 +5.3405731236820311e-03
-4.6999999999999993e+00 +8.1523751712120855e+00 +0.0000000000000000e+00 -4.6999999446225331e+00 -2.8225900480345550e-02 -5.3649786519815335e-01 +5.3406087498980397e-03
-4.7999999999999989e+00 +8.1523482998724788e+00 +0.0000000000000000e+00 -4.7999999410120555e+00 -2.8225726498600581e-02 -5.3649825763412040e-01 +5.3406464484570069e-03
-4.8999999999999986e+00 +8.1523208628168273e+00 +0.0000000000000000e+00 -4.8999999372479621e+00 -2.8225555371062881e-02 -5.3649866457265638e-01 +5.3406860876404208e-03
-4.9999999999999982e+00 +8.1522928600447049e+00 +0.0000000000000000e+00 -4.9999999333270528e+00 -2.8225388049485926e-02 -5.3649908423242787e-01 +5.3407275357283393e-03
-5.0999999999999979e+00 +8.1522642915556691e+00 +0.0000000000000000e+00 -5.0999999292461267e+00 -2.8225225485610250e-02 -5.3649951483211045e-01 +5.3407706609993385e-03
-5.1999999999999975e+00 +8.1522351573492671e+00 +0.0000000000000000e+00 -5.1999999250019835e+00 -2.8225068631162642e-02 -5.3649995459038924e-01 +5.3408153317304518e-03
-5.2999999999999972e+00 +8.1522054574250351e+00 +0.0000000000000000e+00 -5.2999999205914223e+00 -2.8224918437855261e-02 -5.3650040172595981e-01 +5.3408614161971147e-03
-5.3999999999999968e+00 +8.1521751917825043e+00 +0.0000000000000000e+00 -5.3999999160112431e+00 -2.8224775857384865e-02 -5.3650085445752804e-01 +5.3409087826731009e-03
-5.4999999999999964e+00 +8.1521443604211967e+00 +0.0000000000000000e+00 -5.4999999112582456e+00 -2.8224641841431961e-02 -5.3650131100381293e-01 +5.3409572994304790e-03
-5.5999999999999961e+00 +8.1521129633406346e+00 +0.0000000000000000e+00 -5.5999999063292289e+00 -2.8224517341659969e-02 -5.3650176958354456e-01 +5.3410068347395428e-03
-5.6999999999999957e+00 +8.1520810005403330e+00 +0.0000000000000000e+00 -5.6999999012209921e+00 -2.8224403309714426e-02 -5.3650222841546702e-01 +5.3410572568687665e-03
-5.7999999999999954e+00 +8.1520484720198105e+00 +0.0000000000000000e+00 -5.7999998959303349e+00 -2.8224300697222159e-02 -5.3650268571833970e-01 +5.3411084340847384e-03
-5.8999999999999950e+00 +8.1520153777785858e+00 +0.0000000000000000e+00 -5.8999998904540574e+00 -2.8224210455790395e-02 -5.3650313971093522e-01 +5.3411602346521096e-03
-5.9999999999999947e+00 +8.1519817178161826e+00 +0.0000000000000000e+00 -5.9999998847889584e+00 -2.8224133537006018e-02 -5.3650358861204306e-01 +5.3412125268335340e-03
-6.0999999999999943e+00 +8.1519474921321269e+00 +0.0000000000000000e+00 -6.0999998789318379e+00 -2.8224070587687246e-02 -5.3650403096533616e-01 +5.3412652011444357e-03
-6.1999999999999940e+00 +8.1519127007259549e+00 +0.0000000000000000e+00 -6.1999998728794949e+00 -2.8224021035643032e-02 -5.3650446661397411e-01 +5.3413182371190200e-03
-6.2999999999999936e+00 +8.1518773435972065e+00 +0.0000000000000000e+00 -6.2999998666287285e+00 -2.8223984003929045e-02 -5.3650489572599058e-01 +5.3413716365479915e-03
-6.3999999999999932e+00 +8.1518414207454324e+00 +0.0000000000000000e+00 -6.3999998601763384e+00 -2.8223958615598926e-02 -5.3650531846942284e-01 +5.3414254012239971e-03
-6.4999999999999929e+00 +8.1518049321701866e+00 +0.0000000000000000e+00 -6.4999998535191246e+00 -2.8223943993704294e-02 -5.3650573501231202e-01 +5.3414795329417442e-03
-6.5999999999999925e+00 +8.1517678778710323e+00 +0.0000000000000000e+00 -6.5999998466538852e+00 -2.8223939261294708e-02 -5.3650614552270404e-01 +5.3415340334980821e-03
-6.6999999999999922e+00 +8.1517302578475359e+00 +0.0000000000000000e+00 -6.6999998395774210e+00 -2.8223943541417738e-02 -5.3650655016864834e-01 +5.3415889046921341e-03
-6.7999999999999918e+00 +8.1516920720992729e+00 +0.0000000000000000e+00 -6.7999998322865300e+00 -2.8223955957118917e-02 -5.3650694911819996e-01 +5.3416441483253715e-03
-6.8999999999999915e+00 +8.1516533206258242e+00 +0.0000000000000000e+00 -6.8999998247780132e+00 -2.8223975631441821e-02 -5.3650734253941723e-01 +5.3416997662017445e-03
-6.9999999999999911e+00 +8.1516140034267757e+00 +0.0000000000000000e+00 -6.9999998170486686e+00 -2.8224001687427978e-02 -5.3650773060036538e-01 +5.3417557601277647e-03
-7.0999999999999908e+00 +8.1515741205017207e+00 +0.0000000000000000e+00 -7.0999998090952960e+00 -2.8224033248117005e-02 -5.3650811346911353e-01 +5.3418121319126228e-03
-7.1999999999999904e+00 +8.1515336718502560e+00 +0.0000000000000000e+00 -7.1999998009146955e+00 -2.8224069436546477e-02 -5.3650849131373624e-01 +5.3418688833682861e-03
-7.2999999999999901e+00 +8.1514926574719837e+00 +0.0000000000000000e+00 -7.2999997925036659e+00 -2.8224109375752045e-02 -5.3650886430231481e-01 +5.3419260163096085e-03
-7.3999999999999897e+00 +8.1514510773665112e+00 +0.0000000000000000e+00 -7.3999997838590064e+00 -2.8224152188767410e-02 -5.3650923260293537e-01 +5.3419835325544222e-03
-7.4999999999999893e+00 +8.1514089315334530e+00 +0.0000000000000000e+00 -7.4999997749775167e+00 -2.8224196998624308e-02 -5.3650959638369056e-01 +5.3420414339236492e-03
-7.5999999999999890e+00 +8.1513662199724273e+00 +0.0000000000000000e+00 -7.5999997658559959e+00 -2.8224242928352569e-02 -5.3650995581267957e-01 +5.3420997222414180e-03
-7.6999999999999886e+00 +8.1513229426830538e+00 +0.0000000000000000e+00 -7.6999997564912430e+00 -2.8224289100980064e-02 -5.3651031105800773e-01 +5.3421583993351375e-03
-7.7999999999999883e+00 +8.1512790996649613e+00 +0.0000000000000000e+00 -7.7999997468800579e+00 -2.8224334639532767e-02 -5.3651066228778732e-01 +5.3422174670356253e-03
-7.8999999999999879e+00 +8.1512346909177804e+00 +0.0000000000000000e+00 -7.8999997370192396e+00 -2.8224378667034755e-02 -5.3651100967013787e-01 +5.3422769271772091e-03
-7.9999999999999876e+00 +8.1511897164411469e+00 +0.0000000000000000e+00 -7.9999997269055880e+00 -2.8224420306508229e-02 -5.3651135337318567e-01 +5.3423367815978156e-03
-8.0999999999999872e+00 +8.1511441762346983e+00 +0.0000000000000000e+00 -8.0999997165359012e+00 -2.8224458845834001e-02 -5.3651169359147366e-01 +5.3423970445528974e-03
-8.1999999999999869e+00 +8.1510980702980795e+00 +0.0000000000000000e+00 -8.1999997059069809e+00 -2.8224494232351627e-02 -5.3651203062519193e-01 +5.3424577799562716e-03
-8.2999999999999865e+00 +8.1510513986309352e+00 +0.0000000000000000e+00 -8.2999996950156252e+00 -2.8224526578298100e-02 -5.3651236480094999e-01 +5.3425190641366704e-03
-8.3999999999999861e+00 +8.1510041612329136e+00 +0.0000000000000000e+00 -8.3999996838586330e+00 -2.8224555995948912e-02 -5.3651269644536626e-01 +5.3425809734234386e-03
-8.4999999999999858e+00 +8.1509563581036684e+00 +0.0000000000000000e+00 -8.4999996724328035e+00 -2.8224582597619306e-02 -5.3651302588506866e-01 +5.3426435841465569e-03
-8.5999999999999854e+00 +8.1509079892428531e+00 +0.0000000000000000e+00 -8.5999996607349356e+00 -2.8224606495665459e-02 -5.3651335344669582e-01 +5.3427069726366492e-03
-8.6999999999999851e+00 +8.1508590546501232e+00 +0.0000000000000000e+00 -8.6999996487618301e+00 -2.8224627802485715e-02 -5.3651367945689654e-01 +5.3427712152249686e-03
-8.7999999999999847e+00 +8.1508095543251358e+00 +0.0000000000000000e+00 -8.7999996365102859e+00 -2.8224646630521703e-02 -5.3651400424233009e-01 +5.3428363882434150e-03
-8.8999999999999844e+00 +8.1507594882675516e+00 +0.0000000000000000e+00 -8.8999996239771004e+00 -2.8224663092259614e-02 -5.3651432812966626e-01 +5.3429025680245294e-03
-8.9999999999999840e+00 +8.1507088564770296e+00 +0.0000000000000000e+00 -8.9999996111590743e+00 -2.8224677300231385e-02 -5.3651465144558652e-01 +5.3429698309015068e-03
-9.0999999999999837e+00 +8.1506576589532305e+00 +0.0000000000000000e+00 -9.0999995980530084e+00 -2.8224689367015866e-02 -5.3651497451678309e-01 +5.3430382532081884e-03
-9.1999999999999833e+00 +8.1506058956958167e+00 +0.0000000000000000e+00 -9.1999995846556999e+00 -2.8224699405240073e-02 -5.3651529766996031e-01 +5.3431079112790771e-03
-9.2999999999999829e+00 +8.1505535667044473e+00 +0.0000000000000000e+00 -9.2999995709639496e+00 -2.8224707527580342e-02 -5.3651562123183383e-01 +5.3431788814493298e-03
-9.3999999999999826e+00 +8.1505006719787829e+00 +0.0000000000000000e+00 -9.3999995569745547e+00 -2.8224713846763585e-02 -5.3651594552913218e-01 +5.3432512400547636e-03
-9.4999999999999822e+00 +8.1504472115184843e+00 +0.0000000000000000e+00 -9.4999995426843160e+00 -2.8224718475568417e-02 -5.3651627088859555e-01 +5.3433250634318686e-03
-9.5999999999999819e+00 +8.1503931853232086e+00 +0.0000000000000000e+00 -9.5999995280900325e+00 -2.8224721526826396e-02 -5.3651659763697690e-01 +5.3434004279177896e-03
-9.6999999999999815e+00 +8.1503385933926147e+00 +0.0000000000000000e+00 -9.6999995131885033e+00 -2.8224723113423278e-02 -5.3651692610104229e-01 +5.3434774098503552e-03
-9.7999999999999812e+00 +8.1502834357263563e+00 +0.0000000000000000e+00 -9.7999994979765273e+00 -2.8224723348300146e-02 -5.3651725660757077e-01 +5.3435560855680624e-03
-9.8999999999999808e+00 +8.1502277123240887e+00 +0.0000000000000000e+00 -9.8999994824509052e+00 -2.8224722344454604e-02 -5.3651758948335482e-01 +5.3436365314100840e-03
-9.9999999999999805e+00 +8.1501714231854603e+00 +0.0000000000000000e+00 -9.9999994666084344e+00 -2.8224720214942069e-02 -5.3651792505520102e-01 +5.3437188237162748e-03
-1.0099999999999980e+01 +8.1501145683101210e+00 +0.0000000000000000e+00 -1.0099999450445916e+01 -2.8224717084414305e-02 -5.3651826367712308e-01 +5.3438030048554375e-03
-1.0199999999999980e+01 +8.1500571476977139e+00 +0.0000000000000000e+00 -1.0199999433960148e+01 -2.8224713123696857e-02 -5.3651860581191657e-01 +5.3438889813081343e-03
-1.0299999999999979e+01 +8.1499991613478819e+00 +0.0000000000000000e+00 -1.0299999417147930e+01 -2.8224708515111833e-02 -5.3651895194955190e-01 +5.3439766255832799e-03
-1.0399999999999979e+01 +8.1499406092602609e+00 +0.0000000000000000e+00 -1.0399999400006060e+01 -2.8224703440929519e-02 -5.3651930257997782e-01 +5.3440658101910447e-03
-1.0499999999999979e+01 +8.1498814914344813e+00 +0.0000000000000000e+00 -1.0499999382531339e+01 -2.8224698083366868e-02 -5.3651965819311942e-01 +5.3441564076428588e-03
-1.0599999999999978e+01 +8.1498218078701719e+00 +0.0000000000000000e+00 -1.0599999364720565e+01 -2.8224692624585952e-02 -5.3652001927887794e-01 +5.3442482904514331e-03
-1.0699999999999978e+01 +8.1497615585669543e+00 +0.0000000000000000e+00 -1.0699999346570538e+01 -2.8224687246692415e-02 -5.3652038632713084e-01 +5.3443413311307737e-03
-1.0799999999999978e+01 +8.1497007435244413e+00 +0.0000000000000000e+00 -1.0799999328078055e+01 -2.8224682131733958e-02 -5.3652075982772918e-01 +5.3444354021962110e-03
-1.0899999999999977e+01 +8.1496393627422421e+00 +0.0000000000000000e+00 -1.0899999309239918e+01 -2.8224677461698825e-02 -5.3652114027049924e-01 +5.3445303761644036e-03
-1.0999999999999977e+01 +8.1495774162199588e+00 +0.0000000000000000e+00 -1.0999999290052925e+01 -2.8224673418514246e-02 -5.3652152814524090e-01 +5.3446261255533610e-03
-1.1099999999999977e+01 +8.1495149039571828e+00 +0.0000000000000000e+00 -1.1099999270513875e+01 -2.8224670184044919e-02 -5.3652192394172671e-01 +5.3447225228824696e-03
-1.1199999999999976e+01 +8.1494518259534985e+00 +0.0000000000000000e+00 -1.1199999250619566e+01 -2.8224667940091461e-02 -5.3652232814970169e-01 +5.3448194406724939e-03
-1.1299999999999976e+01 +8.1493881822084813e+00 +0.0000000000000000e+00 -1.1299999230366799e+01 -2.8224666868388877e-02 -5.3652274125888288e-01 +5.3449167514456131e-03
-1.1399999999999975e+01 +8.1493239727216995e+00 +0.0000000000000000e+00 -1.1399999209752373e+01 -2.8224667150605079e-02 -5.3652316375895781e-01 +5.3450143277254209e-03
-1.1499999999999975e+01 +8.1492591974927073e+00 +0.0000000000000000e+00 -1.1499999188773087e+01 -2.8224668968339268e-02 -5.3652359613958522e-01 +5.3451120420369615e-03
-1.1599999999999975e+01 +8.1491938565210518e+00 +0.0000000000000000e+00 -1.1599999167425738e+01 -2.8224672503120468e-02 -5.3652403889039313e-01 +5.3452097669067344e-03
-1.1699999999999974e+01 +8.1491279498062692e+00 +0.0000000000000000e+00 -1.1699999145707126e+01 -2.8224677936405929e-02 -5.3652449250097878e-01 +5.3453073748627178e-03
