# field on trajectory
# s[mm] rx[mm] ry[mm] rz[mm] bx[T] by[T] bz[T]
0.0000000000000000e+00 +7.9199999999999999e+00 +0.0000000000000000e+00 +0.0000000000000000e+00 -2.8205932702920555e-02 -5.3928227338352497e-01 +5.4261296104392131e-03
-1.0000000000000001e-01 +7.9199997165624190e+00 +0.0000000000000000e+00 -9.9999999999464434e-02 -2.8205773003259684e-02 -5.3928260095265879e-01 +5.4261934112421716e-03
-2.0000000000000001e-01 +7.9199988662494460e+00 +0.0000000000000000e+00 -1.9999999999571538e-01 -2.8205633301839998e-02 -5.3928292883910867e-01 +5.4262609957295123e-03
-3.0000000000000004e-01 +7.9199974490607374e+00 +0.0000000000000000e+00 -2.9999999998553939e-01 -2.8205512871871695e-02 -5.3928325674918798e-01 +5.4263321716198406e-03
-4.0000000000000002e-01 +7.9199954649959476e+00 +0.0000000000000000e+00 -3.9999999996572289e-01 -2.8205410986578992e-02 -5.3928358438921653e-01 +5.4264067466323774e-03
-5.0000000000000000e-01 +7.9199929140547329e+00 +0.0000000000000000e+00 -4.9999999993305244e-01 -2.8205326919199282e-02 -5.3928391146552423e-01 +5.4264845284868659e-03
-5.9999999999999998e-01 +7.9199897962367496e+00 +0.0000000000000000e+00 -5.9999999988431463e-01 -2.8205259942982099e-02 -5.3928423768444989e-01 +5.4265653249034986e-03
-6.9999999999999996e-01 +7.9199861115416539e+00 +0.0000000000000000e+00 -6.9999999981629579e-01 -2.8205209331188301e-02 -5.3928456275234660e-01 +5.4266489436028409e-03
-7.9999999999999993e-01 +7.9199818599691056e+00 +0.0000000000000000e+00 -7.9999999972578251e-01 -2.8205174357089149e-02 -5.3928488637558125e-01 +5.4267351923057532e-03
-8.9999999999999991e-01 +7.9199770415187638e+00 +0.0000000000000000e+00 -8.9999999960956134e-01 -2.8205154293965310e-02 -5.3928520826053650e-01 +5.4268238787333004e-03
-9.9999999999999989e-01 +7.9199716561902909e+00 +0.0000000000000000e+00 -9.9999999946441864e-01 -2.8205148415106056e-02 -5.3928552811361430e-01 +5.4269148106066891e-03
-1.0999999999999999e+00 +7.9199657039833502e+00 +0.0000000000000000e+00 -1.0999999992871410e+00 -2.8205155993808250e-02 -5.3928584564123583e-01 +5.4270077956471768e-03
-1.2000000000000000e+00 +7.9199591848976088e+00 +0.0000000000000000e+00 -1.1999999990745147e+00 -2.8205176303375500e-02 -5.3928616054984480e-01 +5.4271026415760029e-03
-1.3000000000000000e+00 +7.9199520989327352e+00 +0.0000000000000000e+00 -1.2999999988233264e+00 -2.8205208617117207e-02 -5.3928647254590867e-01 +5.4271991561142957e-03
-1.4000000000000001e+00 +7.9199444460884028e+00 +0.0000000000000000e+00 -1.3999999985303624e+00 -2.8205252208347655e-02 -5.3928678133592012e-01 +5.4272971469830119e-03
-1.5000000000000002e+00 +7.9199362263642863e+00 +0.0000000000000000e+00 -1.4999999981924093e+00 -2.8205306350385120e-02 -5.3928708662640013e-01 +5.4273964219028409e-03
-1.6000000000000003e+00 +7.9199274397600652e+00 +0.0000000000000000e+00 -1.5999999978062533e+00 -2.8205370316550921e-02 -5.3928738812389843e-01 +5.4274967885941392e-03
-1.7000000000000004e+00 +7.9199180862754233e+00 +0.0000000000000000e+00 -1.6999999973686810e+00 -2.8205443380168563e-02 -5.3928768553499706e-01 +5.4275980547768441e-03
-1.8000000000000005e+00 +7.9199081659100479e+00 +0.0000000000000000e+00 -1.7999999968764788e+00 -2.8205524814562708e-02 -5.3928797856631017e-01 +5.4277000281703928e-03
-1.9000000000000006e+00 +7.9198976786636317e+00 +0.0000000000000000e+00 -1.8999999963264331e+00 -2.8205613893058413e-02 -5.3928826692448761e-01 +5.4278025164936567e-03
-2.0000000000000004e+00 +7.9198866245358719e+00 +0.0000000000000000e+00 -1.9999999957153305e+00 -2.8205709888980079e-02 -5.3928855031621592e-01 +5.4279053274648445e-03
-2.1000000000000005e+00 +7.9198750035264700e+00 +0.0000000000000000e+00 -2.0999999950399575e+00 -2.8205812081883153e-02 -5.3928882852396132e-01 +5.4280083115121249e-03
-2.2000000000000006e+00 +7.9198628156351356e+00 +0.0000000000000000e+00 -2.1999999942971002e+00 -2.8205919776248204e-02 -5.3928910163317301e-01 +5.4281114899059815e-03
-2.3000000000000007e+00 +7.9198500608615809e+00 +0.0000000000000000e+00 -2.2999999934835449e+00 -2.8206032282777623e-02 -5.3928936980502951e-01 +5.4282149266277040e-03
-2.4000000000000008e+00 +7.9198367392055244e+00 +0.0000000000000000e+00 -2.3999999925960784e+00 -2.8206148912160736e-02 -5.3928963320069034e-01 +5.4283186856588349e-03
-2.5000000000000009e+00 +7.9198228506666899e+00 +0.0000000000000000e+00 -2.4999999916314870e+00 -2.8206268975071960e-02 -5.3928989198129040e-01 +5.4284228309811923e-03
-2.6000000000000010e+00 +7.9198083952448055e+00 +0.0000000000000000e+00 -2.5999999905865572e+00 -2.8206391782169063e-02 -5.3929014630793592e-01 +5.4285274265769238e-03
-2.7000000000000011e+00 +7.9197933729396048e+00 +0.0000000000000000e+00 -2.6999999894580751e+00 -2.8206516644091337e-02 -5.3929039634170040e-01 +5.4286325364285440e-03
-2.8000000000000012e+00 +7.9197777837508259e+00 +0.0000000000000000e+00 -2.7999999882428273e+00 -2.8206642871457775e-02 -5.3929064224361878e-01 +5.4287382245189709e-03
-2.9000000000000012e+00 +7.9197616276782092e+00 +0.0000000000000000e+00 -2.8999999869375999e+00 -2.8206769774865342e-02 -5.3929088417468429e-01 +5.4288445548315847e-03
-3.0000000000000013e+00 +7.9197449047215027e+00 +0.0000000000000000e+00 -2.9999999855391795e+00 -2.8206896664887102e-02 -5.3929112229584364e-01 +5.4289515913502557e-03
-3.1000000000000014e+00 +7.9197276148804550e+00 +0.0000000000000000e+00 -3.0999999840443526e+00 -2.8207022852070492e-02 -5.3929135676799111e-01 +5.4290593980593849e-03
-3.2000000000000015e+00 +7.9197097581548217e+00 +0.0000000000000000e+00 -3.1999999824499055e+00 -2.8207147646935438e-02 -5.3929158775196617e-01 +5.4291680389439633e-03
-3.3000000000000016e+00 +7.9196913345443596e+00 +0.0000000000000000e+00 -3.2999999807526246e+00 -2.8207270359972673e-02 -5.3929181540854754e-01 +5.4292775779895908e-03
-3.4000000000000017e+00 +7.9196723440488297e+00 +0.0000000000000000e+00 -3.3999999789492961e+00 -2.8207390301641811e-02 -5.3929203989844898e-01 +5.4293880791825332e-03
-3.5000000000000018e+00 +7.9196527866679975e+00 +0.0000000000000000e+00 -3.4999999770367065e+00 -2.8207506782369648e-02 -5.3929226138231467e-01 +5.4294996065097668e-03
-3.6000000000000019e+00 +7.9196326624016304e+00 +0.0000000000000000e+00 -3.5999999750116420e+00 -2.8207619112548332e-02 -5.3929248002071484e-01 +5.4296122239590079e-03
-3.7000000000000020e+00 +7.9196119712494992e+00 +0.0000000000000000e+00 -3.6999999728708892e+00 -2.8207726602533525e-02 -5.3929269597414142e-01 +5.4297259955187610e-03
-3.8000000000000020e+00 +7.9195907132113774e+00 +0.0000000000000000e+00 -3.7999999706112342e+00 -2.8207828562642697e-02 -5.3929290940300290e-01 +5.4298409851783642e-03
-3.9000000000000021e+00 +7.9195688882870412e+00 +0.0000000000000000e+00 -3.8999999682294635e+00 -2.8207924303153224e-02 -5.3929312046762057e-01 +5.4299572569280257e-03
-4.0000000000000018e+00 +7.9195464964762703e+00 +0.0000000000000000e+00 -3.9999999657223637e+00 -2.8208013134300661e-02 -5.3929332932822327e-01 +5.4300748747588687e-03
-4.1000000000000014e+00 +7.9195235377788453e+00 +0.0000000000000000e+00 -4.0999999630867210e+00 -2.8208094548090073e-02 -5.3929353630285737e-01 +5.4301938728780457e-03
-4.2000000000000011e+00 +7.9195000121945487e+00 +0.0000000000000000e+00 -4.1999999603193219e+00 -2.8208168763755721e-02 -5.3929374234117156e-01 +5.4303141663538555e-03
-4.3000000000000007e+00 +7.9194759197231654e+00 +0.0000000000000000e+00 -4.2999999574169516e+00 -2.8208236182358619e-02 -5.3929394855075374e-01 +5.4304356404706365e-03
-4.4000000000000004e+00 +7.9194512603644789e+00 +0.0000000000000000e+00 -4.3999999543763977e+00 -2.8208297204980175e-02 -5.3929415603923270e-01 +5.4305581805137899e-03
-4.5000000000000000e+00 +7.9194260341182714e+00 +0.0000000000000000e+00 -4.4999999511944466e+00 -2.8208352232724287e-02 -5.3929436591428104e-01 +5.4306816717698235e-03
-4.5999999999999996e+00 +7.9194002409843236e+00 +0.0000000000000000e+00 -4.5999999478678841e+00 -2.8208401666719337e-02 -5.3929457928361946e-01 +5.4308059995263848e-03
-4.6999999999999993e+00 +7.9193738809624126e+00 +0.0000000000000000e+00 -4.6999999443934968e+00 -2.8208445908120345e-02 -5.3929479725502028e-01 +5.4309310490723191e-03
-4.7999999999999989e+00 +7.9193469540523092e+00 +0.0000000000000000e+00 -4.7999999407680702e+00 -2.8208485358110959e-02 -5.3929502093631176e-01 +5.4310567056976896e-03
-4.8999999999999986e+00 +7.9193194602537789e+00 +0.0000000000000000e+00 -4.8999999369883911e+00 -2.8208520417905506e-02 -5.3929525143538137e-01 +5.4311828546938397e-03
-4.9999999999999982e+00 +7.9192913995665801e+00 +0.0000000000000000e+00 -4.9999999330512459e+00 -2.8208551488751159e-02 -5.3929548986018050e-01 +5.4313093813534198e-03
-5.0999999999999979e+00 +7.9192627719904634e+00 +0.0000000000000000e+00 -5.0999999289534212e+00 -2.8208578971929844e-02 -5.3929573731872671e-01 +5.4314361709704327e-03
-5.1999999999999975e+00 +7.9192335775251692e+00 +0.0000000000000000e+00 -5.1999999246917028e+00 -2.8208603268760398e-02 -5.3929599491910962e-01 +5.4315631088402792e-03
-5.2999999999999972e+00 +7.9192038161704277e+00 +0.0000000000000000e+00 -5.2999999202628780e+00 -2.8208624780600624e-02 -5.3929626376949313e-01 +5.4316900802597913e-03
-5.3999999999999968e+00 +7.9191734879259572e+00 +0.0000000000000000e+00 -5.3999999156637317e+00 -2.8208643908849324e-02 -5.3929654497811974e-01 +5.4318169705272834e-03
-5.4999999999999964e+00 +7.9191425927914638e+00 +0.0000000000000000e+00 -5.4999999108910513e+00 -2.8208661054948347e-02 -5.3929683965331465e-01 +5.4319436649425843e-03
-5.5999999999999961e+00 +7.9191111307666375e+00 +0.0000000000000000e+00 -5.5999999059416226e+00 -2.8208676620384676e-02 -5.3929714890348912e-01 +5.4320700488070866e-03
-5.6999999999999957e+00 +7.9190791018511542e+00 +0.0000000000000000e+00 -5.6999999008122311e+00 -2.8208691006692498e-02 -5.3929747383714544e-01 +5.4321960074237875e-03
-5.7999999999999954e+00 +7.9190465060446735e+00 +0.0000000000000000e+00 -5.7999998954996643e+00 -2.8208704615455250e-02 -5.3929781556287881e-01 +5.4323214260973236e-03
-5.8999999999999950e+00 +7.9190133433468377e+00 +0.0000000000000000e+00 -5.8999998900007080e+00 -2.8208717848307623e-02 -5.3929817518938272e-01 +5.4324461901340158e-03
-5.9999999999999947e+00 +7.9189796137572692e+00 +0.0000000000000000e+00 -5.9999998843121478e+00 -2.8208731106937727e-02 -5.3929855382545289e-01 +5.4325701848419190e-03
-6.0999999999999943e+00 +7.9189453172755710e+00 +0.0000000000000000e+00 -6.0999998784307703e+00 -2.8208744713337227e-02 -5.3929895224749980e-01 +5.4326933397247342e-03
-6.1999999999999940e+00 +7.9189104539013258e+00 +0.0000000000000000e+00 -6.1999998723533620e+00 -2.8208758670529282e-02 -5.3929936990204252e-01 +5.4328157610625712e-03
-6.2999999999999936e+00 +7.9188750236340946e+00 +0.0000000000000000e+00 -6.2999998660767087e+00 -2.8208772901794844e-02 -5.3929980590312132e-01 +5.4329375993272212e-03
-6.3999999999999932e+00 +7.9188390264734219e+00 +0.0000000000000000e+00 -6.3999998595975969e+00 -2.8208787330420662e-02 -5.3930025936477877e-01 +5.4330590049874233e-03
-6.4999999999999929e+00 +7.9188024624188307e+00 +0.0000000000000000e+00 -6.4999998529128122e+00 -2.8208801879699149e-02 -5.3930072940106066e-01 +5.4331801285087307e-03
-6.5999999999999925e+00 +7.9187653314698299e+00 +0.0000000000000000e+00 -6.5999998460191414e+00 -2.8208816472928399e-02 -5.3930121512601437e-01 +5.4333011203533538e-03
-6.6999999999999922e+00 +7.9187276336259087e+00 +0.0000000000000000e+00 -6.6999998389133699e+00 -2.8208831033412016e-02 -5.3930171565368923e-01 +5.4334221309800153e-03
-6.7999999999999918e+00 +7.9186893688865432e+00 +0.0000000000000000e+00 -6.7999998315922845e+00 -2.8208845484459087e-02 -5.3930223009813560e-01 +5.4335433108438063e-03
-6.8999999999999915e+00 +7.9186505372511933e+00 +0.0000000000000000e+00 -6.8999998240526708e+00 -2.8208859749384089e-02 -5.3930275757340440e-01 +5.4336648103960293e-03
-6.9999999999999911e+00 +7.9186111387193066e+00 +0.0000000000000000e+00 -6.9999998162913153e+00 -2.8208873751506762e-02 -5.3930329719354575e-01 +5.4337867800840481e-03
-7.0999999999999908e+00 +7.9185711732903163e+00 +0.0000000000000000e+00 -7.0999998083050038e+00 -2.8208887414152117e-02 -5.3930384807261000e-01 +5.4339093703511532e-03
-7.1999999999999904e+00 +7.9185306409636453e+00 +0.0000000000000000e+00 -7.1999998000905219e+00 -2.8208900660650328e-02 -5.3930440932464641e-01 +5.4340327316364000e-03
-7.2999999999999901e+00 +7.9184895417387047e+00 +0.0000000000000000e+00 -7.2999997916446562e+00 -2.8208913414336598e-02 -5.3930498006370187e-01 +5.4341570143744715e-03
-7.3999999999999897e+00 +7.9184478756148966e+00 +0.0000000000000000e+00 -7.3999997829641924e+00 -2.8208925598551149e-02 -5.3930555940382097e-01 +5.4342823689955150e-03
-7.4999999999999893e+00 +7.9184056425916127e+00 +0.0000000000000000e+00 -7.4999997740459170e+00 -2.8208937136639137e-02 -5.3930614645904618e-01 +5.4344089459250084e-03
-7.5999999999999890e+00 +7.9183628426682375e+00 +0.0000000000000000e+00 -7.5999997648866158e+00 -2.8208947951950541e-02 -5.3930674034341652e-01 +5.4345368955836075e-03
-7.6999999999999886e+00 +7.9183194758441484e+00 +0.0000000000000000e+00 -7.6999997554830744e+00 -2.8208957967840138e-02 -5.3930734017096627e-01 +5.4346663683869948e-03
-7.7999999999999883e+00 +7.9182755421187165e+00 +0.0000000000000000e+00 -7.7999997458320784e+00 -2.8208967107667366e-02 -5.3930794505572610e-01 +5.4347975147457312e-03
-7.8999999999999879e+00 +7.9182310414913069e+00 +0.0000000000000000e+00 -7.8999997359304146e+00 -2.8208975294796344e-02 -5.3930855411172196e-01 +5.4349304850651141e-03
-7.9999999999999876e+00 +7.9181859739612808e+00 +0.0000000000000000e+00 -7.9999997257748685e+00 -2.8208982452595677e-02 -5.3930916645297322e-01 +5.4350654297450219e-03
-8.0999999999999872e+00 +7.9181403395279970e+00 +0.0000000000000000e+00 -8.0999997153622267e+00 -2.8208988578308627e-02 -5.3930978138829400e-01 +5.4352024446003488e-03
-8.1999999999999869e+00 +7.9180941381908099e+00 +0.0000000000000000e+00 -8.1999997046892741e+00 -2.8208993964646212e-02 -5.3931039900566147e-01 +5.4353414071233210e-03
-8.2999999999999865e+00 +7.9180473699490719e+00 +0.0000000000000000e+00 -8.2999996937527971e+00 -2.8208998978140696e-02 -5.3931101958775096e-01 +5.4354821402270151e-03
-8.3999999999999861e+00 +7.9180000348021320e+00 +0.0000000000000000e+00 -8.3999996825495824e+00 -2.8209003985267697e-02 -5.3931164341712168e-01 +5.4356244668263857e-03
-8.4999999999999858e+00 +7.9179521327493356e+00 +0.0000000000000000e+00 -8.4999996710764147e+00 -2.8209009352444206e-02 -5.3931227077621113e-01 +5.4357682098383512e-03
-8.5999999999999854e+00 +7.9179036637900255e+00 +0.0000000000000000e+00 -8.5999996593300807e+00 -2.8209015446026744e-02 -5.3931290194733339e-01 +5.4359131921818656e-03
-8.6999999999999851e+00 +7.9178546279235391e+00 +0.0000000000000000e+00 -8.6999996473073651e+00 -2.8209022632309483e-02 -5.3931353721267328e-01 +5.4360592367780122e-03
-8.7999999999999847e+00 +7.9178050251492111e+00 +0.0000000000000000e+00 -8.7999996350050544e+00 -2.8209031277522320e-02 -5.3931417685428429e-01 +5.4362061665500774e-03
-8.8999999999999844e+00 +7.9177548554663701e+00 +0.0000000000000000e+00 -8.8999996224199336e+00 -2.8209041747829049e-02 -5.3931482115408413e-01 +5.4363538044236472e-03
-8.9999999999999840e+00 +7.9177041188743402e+00 +0.0000000000000000e+00 -8.9999996095487909e+00 -2.8209054409325415e-02 -5.3931547039385108e-01 +5.4365019733266717e-03
-9.0999999999999837e+00 +7.9176528153724410e+00 +0.0000000000000000e+00 -9.0999995963884093e+00 -2.8209069628037257e-02 -5.3931612485522007e-01 +5.4366504961895663e-03
-9.1999999999999833e+00 +7.9176009449599860e+00 +0.0000000000000000e+00 -9.1999995829355754e+00 -2.8209087769918633e-02 -5.3931678481967882e-01 +5.4367991959452808e-03
-9.2999999999999829e+00 +7.9175485076362824e+00 +0.0000000000000000e+00 -9.2999995691870758e+00 -2.8209109200849864e-02 -5.3931745056856484e-01 +5.4369478955293895e-03
-9.3999999999999826e+00 +7.9174955034006329e+00 +0.0000000000000000e+00 -9.3999995551396953e+00 -2.8209134286635722e-02 -5.3931812238306065e-01 +5.4370964178801747e-03
-9.4999999999999822e+00 +7.9174419322523333e+00 +0.0000000000000000e+00 -9.4999995407902205e+00 -2.8209163393003490e-02 -5.3931880054419090e-01 +5.4372445859387029e-03
-9.5999999999999819e+00 +7.9173877941906721e+00 +0.0000000000000000e+00 -9.5999995261354361e+00 -2.8209196885601074e-02 -5.3931948533281793e-01 +5.4373922226489168e-03
-9.6999999999999815e+00 +7.9173330892149307e+00 +0.0000000000000000e+00 -9.6999995111721287e+00 -2.8209235129995125e-02 -5.3932017702963875e-01 +5.4375391509577055e-03
-9.7999999999999812e+00 +7.9172778173243836e+00 +0.0000000000000000e+00 -9.7999994958970849e+00 -2.8209278491669099e-02 -5.3932087591517985e-01 +5.4376851938150008e-03
-9.8999999999999808e+00 +7.9172219785182989e+00 +0.0000000000000000e+00 -9.8999994803070877e+00 -2.8209327336021436e-02 -5.3932158226979621e-01 +5.4378301741738527e-03
-9.9999999999999805e+00 +7.9171655727959349e+00 +0.0000000000000000e+00 -9.9999994643989254e+00 -2.8209382028363587e-02 -5.3932229637366402e-01 +5.4379739149905074e-03
-1.0099999999999980e+01 +7.9171086001565438e+00 +0.0000000000000000e+00 -1.0099999448169381e+01 -2.8209442770398403e-02 -5.3932301843328734e-01 +5.4381162694488961e-03
-1.0199999999999980e+01 +7.9170510605993680e+00 +0.0000000000000000e+00 -1.0199999431615243e+01 -2.8209509109697561e-02 -5.3932374836111430e-01 +5.4382572116346275e-03
-1.0299999999999979e+01 +7.9169929541236419e+00 +0.0000000000000000e+00 -1.0299999414733295e+01 -2.8209580430351804e-02 -5.3932448599619320e-01 +5.4383967458588242e-03
-1.0399999999999979e+01 +7.9169342807285918e+00 +0.0000000000000000e+00 -1.0399999397520324e+01 -2.8209656116509847e-02 -5.3932523117769615e-01 +5.4385348764324709e-03
-1.0499999999999979e+01 +7.9168750404134363e+00 +0.0000000000000000e+00 -1.0499999379973113e+01 -2.8209735552380034e-02 -5.3932598374492191e-01 +5.4386716076663859e-03
-1.0599999999999978e+01 +7.9168152331773864e+00 +0.0000000000000000e+00 -1.0599999362088450e+01 -2.8209818122232212e-02 -5.3932674353730092e-01 +5.4388069438712451e-03
-1.0699999999999978e+01 +7.9167548590196457e+00 +0.0000000000000000e+00 -1.0699999343863119e+01 -2.8209903210399373e-02 -5.3932751039439775e-01 +5.4389408893575561e-03
-1.0799999999999978e+01 +7.9166939179394102e+00 +0.0000000000000000e+00 -1.0799999325293907e+01 -2.8209990201279529e-02 -5.3932828415591627e-01 +5.4390734484356645e-03
-1.0899999999999977e+01 +7.9166324099358683e+00 +0.0000000000000000e+00 -1.0899999306377598e+01 -2.8210078479337333e-02 -5.3932906466170216e-01 +5.4392046254157353e-03
-1.0999999999999977e+01 +7.9165703350082008e+00 +0.0000000000000000e+00 -1.0999999287110979e+01 -2.8210167429105936e-02 -5.3932985175174664e-01 +5.4393344246077618e-03
-1.1099999999999977e+01 +7.9165076931555829e+00 +0.0000000000000000e+00 -1.1099999267490835e+01 -2.8210256435188694e-02 -5.3933064526619134e-01 +5.4394628503215518e-03
-1.1199999999999976e+01 +7.9164444843771831e+00 +0.0000000000000000e+00 -1.1199999247513951e+01 -2.8210344882260961e-02 -5.3933144504533137e-01 +5.4395899068667292e-03
-1.1299999999999976e+01 +7.9163807086721620e+00 +0.0000000000000000e+00 -1.1299999227177112e+01 -2.8210432155071800e-02 -5.3933225092961867e-01 +5.4397155985527130e-03
-1.1399999999999975e+01 +7.9163163660396743e+00 +0.0000000000000000e+00 -1.1399999206477105e+01 -2.8210517638445780e-02 -5.3933306275966653e-01 +5.4398399296887367e-03
-1.1499999999999975e+01 +7.9162514564788697e+00 +0.0000000000000000e+00 -1.1499999185410713e+01 -2.8210600717284685e-02 -5.3933388037625252e-01 +5.4399629045838137e-03
-1.1599999999999975e+01 +7.9161859799888896e+00 +0.0000000000000000e+00 -1.1599999163974724e+01 -2.8210680776569349e-02 -5.3933470362032310e-01 +5.4400845275467576e-03
-1.1699999999999974e+01 +7.9161199365688715e+00 +0.0000000000000000e+00 -1.1699999142165922e+01 -2.8210757201361316e-02 -5.3933553233299625e-01 +5.4402048028861574e-03
