# multipoles
# s[mm] polynom_b[n=0][T/m^n] polynom_b[n=1][T/m^n] polynom_b[n=2][T/m^n] polynom_b[n=3][T/m^n] polynom_b[n=4][T/m^n] polynom_b[n=5][T/m^n] polynom_b[n=6][T/m^n] 
-0.0000000000000000e+00 -5.3712426610213626e-01 +7.3588512335358756e+00 -1.0208772768384282e-01 -4.2965165884757361e+00 +2.2085106187800329e+03 -1.7632073743690853e+05 -2.0293895866869822e+07 
-1.0000000000000001e-01 -5.3712437001522562e-01 +7.3588701816633462e+00 -9.5327859226874881e-02 -4.9185893103584384e+00 +2.0449797209402732e+03 -1.7305972954582601e+05 -1.9476414984279905e+07 
-2.0000000000000001e-01 -5.3712447409700159e-01 +7.3588873159715469e+00 -8.8722093302548655e-02 -5.4778100981108997e+00 +1.8814117369013586e+03 -1.7014723098625531e+05 -1.8652693318893775e+07 
-2.9999999999999999e-01 -5.3712457818135384e-01 +7.3589025831971311e+00 -8.2314159126506484e-02 -5.9748782540762742e+00 +1.7189345335321091e+03 -1.6757451593917431e+05 -1.7828610774227533e+07 
-4.0000000000000002e-01 -5.3712468210210584e-01 +7.3589159300697027e+00 -7.6147789240690905e-02 -6.4104928429170229e+00 +1.5586760368624641e+03 -1.6533286007894899e+05 -1.7010047519631352e+07 
-5.0000000000000000e-01 -5.3712478569315603e-01 +7.3589273033265066e+00 -7.0266713730569752e-02 -6.7853531458458702e+00 +1.4017641247576046e+03 -1.6341353785199195e+05 -1.6202883487161638e+07 
-5.9999999999999998e-01 -5.3712488878835030e-01 +7.3589366497029296e+00 -6.4714665476089894e-02 -7.1001583830582771e+00 +1.2493267207339115e+03 -1.6180782408298881e+05 -1.5412998802602217e+07 
-6.9999999999999996e-01 -5.3712499122148927e-01 +7.3589439159375418e+00 -5.9535379159751253e-02 -7.3556078652735604e+00 +1.1024917786286740e+03 -1.6050699308164502e+05 -1.4646273724646954e+07 
-8.0000000000000004e-01 -5.3712509282643217e-01 +7.3589490487700777e+00 -5.4772588960675724e-02 -7.5524009448913674e+00 +9.6238723970860940e+02 -1.5950231889304557e+05 -1.3908588442531545e+07 
-9.0000000000000002e-01 -5.3712519343699672e-01 +7.3589519949393871e+00 -5.0470030285484663e-02 -7.6912369626841031e+00 +8.3014106210981959e+02 -1.5878507557881548e+05 -1.3205823207784092e+07 
-1.0000000000000000e+00 -5.3712529288697719e-01 +7.3589527011911953e+00 -4.6671438000658053e-02 -7.7728154656592707e+00 +7.0688119152180059e+02 -1.5834653597431726e+05 -1.2543858208740536e+07 
-1.1000000000000001e+00 -5.3712539101018353e-01 +7.3589511142697006e+00 -4.3420550690011973e-02 -7.7978360001125022e+00 +5.9373563441649571e+02 -1.5817797277833664e+05 -1.1928573897672478e+07 
-1.2000000000000000e+00 -5.3712548764039914e-01 +7.3589471809218017e+00 -4.0761107322343372e-02 -7.7669982014177821e+00 +4.9183240701440093e+02 -1.5827065812200846e+05 -1.1365850783177590e+07 
-1.3000000000000000e+00 -5.3712558261139709e-01 +7.3589408478949672e+00 -3.8736843114690424e-02 -7.6810017671752284e+00 +4.0229944066481266e+02 -1.5861586361631667e+05 -1.0861568937059233e+07 
-1.3999999999999999e+00 -5.3712567575697734e-01 +7.3589320619422249e+00 -3.7391500237348010e-02 -7.5405465972189134e+00 +3.2626480033184293e+02 -1.5920485955320526e+05 -1.0421609076802775e+07 
-1.5000000000000000e+00 -5.3712576691082281e-01 +7.3589207698132952e+00 -3.6768817454259750e-02 -7.3463325441106972e+00 +2.6485647578808681e+02 -1.6002891632242512e+05 -1.0051851538460499e+07 
-1.6000000000000001e+00 -5.3712585590673267e-01 +7.3589069182661611e+00 -3.6912535374337661e-02 -7.0990597529183441e+00 +2.1920248902631886e+02 -1.6107930242667790e+05 -9.7581768117859438e+06 
-1.7000000000000000e+00 -5.3712594257844226e-01 +7.3588904540566453e+00 -3.7866394849211643e-02 -6.7994283629339280e+00 +1.9043086004797868e+02 -1.6234728619078433e+05 -9.5464653669008166e+06 
-1.8000000000000000e+00 -5.3712602675966992e-01 +7.3588713239427648e+00 -3.9674138200803011e-02 -6.4481386519953841e+00 +1.7966963077482021e+02 -1.6382413487781858e+05 -9.4225977703030389e+06 
-1.8999999999999999e+00 -5.3712610828410112e-01 +7.3588494746859388e+00 -4.2379507449821448e-02 -6.0458910587562356e+00 +1.8804683094540565e+02 -1.6550111457513567e+05 -9.3924545240394976e+06 
-2.0000000000000000e+00 -5.3712618698545478e-01 +7.3588248530499172e+00 -4.6026246122601137e-02 -5.5933861792599879e+00 +2.1669051388257543e+02 -1.6736949015424820e+05 -9.4619162399134617e+06 
-2.1000000000000001e+00 -5.3712626284812603e-01 +7.3587974652146579e+00 -5.0635834673212803e-02 -5.0919780612205878e+00 +2.6623674468271935e+02 -1.6941964022570240e+05 -9.6343954351140931e+06 
-2.2000000000000002e+00 -5.3712633645911001e-01 +7.3587675481961270e+00 -5.6141525541053644e-02 -4.5453957955716859e+00 +3.3536268210124649e+02 -1.7163974857187466e+05 -9.9034447662174441e+06 
-2.2999999999999998e+00 -5.3712640855615101e-01 +7.3587353950059837e+00 -6.2454703827445814e-02 -3.9579018154766730e+00 +4.2225760804113827e+02 -1.7401779388493145e+05 -1.0260152889669815e+07 
-2.3999999999999999e+00 -5.3712647987693629e-01 +7.3587012986603000e+00 -6.9486759178178953e-02 -3.3337586866946727e+00 +5.2511089851947361e+02 -1.7654175411902636e+05 -1.0695608926313253e+07 
-2.5000000000000000e+00 -5.3712655115914265e-01 +7.3586655521746520e+00 -7.7149079982401281e-02 -2.6772289590912819e+00 +6.4211190993488185e+02 -1.7919960736873857e+05 -1.1200901907812191e+07 
-2.6000000000000001e+00 -5.3712662314051973e-01 +7.3586284485586946e+00 -8.5353053274060078e-02 -1.9925750227271486e+00 +7.7144998250264996e+02 -1.8197933266940701e+05 -1.1767120806920156e+07 
-2.7000000000000002e+00 -5.3712669655878398e-01 +7.3585902808250596e+00 -9.4010067974725928e-02 -1.2840593332922441e+00 +9.1131449923587695e+02 -1.8486890879682970e+05 -1.2385354810200658e+07 
-2.7999999999999998e+00 -5.3712677215166038e-01 +7.3585513419822037e+00 -1.0303151037063128e-01 -5.5594422507165397e-01 +1.0598948066199316e+03 -1.8785631529594964e+05 -1.3046692956300199e+07 
-2.8999999999999999e+00 -5.3712685065691479e-01 +7.3585119250362006e+00 -1.1232876909090223e-01 +1.8750804449510147e-01 +1.2153803025879927e+03 -1.9092953225596721e+05 -1.3742224537285384e+07 
-3.0000000000000000e+00 -5.3712693281230828e-01 +7.3584723229905729e+00 -1.2181323188832854e-01 +9.4203531269022556e-01 +1.3759603815416453e+03 -1.9407654044690821e+05 -1.4463038850944787e+07 
-3.1000000000000001e+00 -5.3712701935560814e-01 +7.3584328288482288e+00 -1.3139628429696729e-01 +1.7033754530595109e+00 +1.5398244112552454e+03 -1.9728532099660966e+05 -1.5200225097710764e+07 
-3.2000000000000002e+00 -5.3712711102463762e-01 +7.3583937356038405e+00 -1.4098931307058499e-01 +2.4672666018775811e+00 +1.7051617943059580e+03 -2.0054385671116019e+05 -1.5944872660532054e+07 
-3.2999999999999998e+00 -5.3712720855721752e-01 +7.3583553362551077e+00 -1.5050370416618492e-01 +3.2294468258831479e+00 +1.8701619343018242e+03 -2.0384013015206516e+05 -1.6688070955485901e+07 
-3.3999999999999999e+00 -5.3712731269116321e-01 +7.3583179237924581e+00 -1.5985084279050585e-01 +3.9856544396630191e+00 +2.0330142366745649e+03 -2.0716212552544376e+05 -1.7420909434475731e+07 
-3.5000000000000000e+00 -5.3712742416436521e-01 +7.3582817912006568e+00 -1.6894211395333039e-01 +4.7316279522283393e+00 +2.1919081224043321e+03 -2.1049782836997107e+05 -1.8134477658250678e+07 
-3.6000000000000001e+00 -5.3712754371471716e-01 +7.3582472314649658e+00 -1.7768890107365906e-01 +5.4631058954842384e+00 +2.3450329985142703e+03 -2.1383522458203256e+05 -1.8819865146694809e+07 
-3.7000000000000002e+00 -5.3712767208010437e-01 +7.3582145375620431e+00 -1.8600258788350149e-01 +6.1758270922150302e+00 +2.4905782980830295e+03 -2.1716230199239627e+05 -1.9468161577850785e+07 
-3.7999999999999998e+00 -5.3712780999850496e-01 +7.3581840024646699e+00 -1.9379455618171046e-01 +6.8655305163818579e+00 +2.6267334410631051e+03 -2.2046704955434636e+05 -2.0070456610678468e+07 
-3.8999999999999999e+00 -5.3712795820786308e-01 +7.3581559191419945e+00 -2.0097618779835996e-01 +7.5279553014792917e+00 +2.7516878668761442e+03 -2.2373745744154352e+05 -2.0617840026287843e+07 
-4.0000000000000000e+00 -5.3712811744623745e-01 +7.3581305805572148e+00 -2.0745886310622619e-01 +8.1588407983667874e+00 +2.8636310093632778e+03 -2.2696151736723591e+05 -2.1101401615314361e+07 
-4.0999999999999996e+00 -5.3712828840414983e-01 +7.3581082000154066e+00 -2.1316720602340822e-01 +8.7547223974404744e+00 +2.9610695767250054e+03 -2.3012777753326466e+05 -2.1513936849373866e+07 
-4.2000000000000002e+00 -5.3712847158635446e-01 +7.3580886831465939e+00 -2.1807611422232823e-01 +9.3149268000270400e+00 +3.0437474127217088e+03 -2.3322448280816132e+05 -2.1854999670045402e+07 
-4.2999999999999998e+00 -5.3712866745225296e-01 +7.3580718613686331e+00 -2.2217238666540498e-01 +9.8393777951933448e+00 +3.1117101399970620e+03 -2.3623914347731872e+05 -2.2125821063861571e+07 
-4.4000000000000004e+00 -5.3712887646122509e-01 +7.3580575660938257e+00 -2.2544281975150643e-01 +1.0327999293504725e+01 +3.1650033250839501e+03 -2.3915927029391992e+05 -2.2327631751405273e+07 
-4.5000000000000000e+00 -5.3712909907264361e-01 +7.3580456287210954e+00 -2.2787420870091690e-01 +1.0780715564539191e+01 +3.2036725012710313e+03 -2.4197237588497659e+05 -2.2461662286260318e+07 
-4.5999999999999996e+00 -5.3712933574586352e-01 +7.3580358806354758e+00 -2.2945334588919081e-01 +1.1197451254124738e+01 +3.2277631393194642e+03 -2.4466597483793672e+05 -2.2529142922685903e+07 
-4.7000000000000002e+00 -5.3712958694029644e-01 +7.3580281532149794e+00 -2.3016702118523344e-01 +1.1578131176306158e+01 +3.2373206519930368e+03 -2.4722758246721700e+05 -2.2531303634768311e+07 
-4.7999999999999998e+00 -5.3712985311529349e-01 +7.3580222778254347e+00 -2.3000202599611774e-01 +1.1922680469210103e+01 +3.2323904679432439e+03 -2.4964471572681269e+05 -2.2469374460865706e+07 
-4.9000000000000004e+00 -5.3713013473021576e-01 +7.3580180858169753e+00 -2.2894514532412771e-01 +1.2231024683455697e+01 +3.2130178844248085e+03 -2.5190489366848784e+05 -2.2344584814300969e+07 
-5.0000000000000000e+00 -5.3713043224446466e-01 +7.3580154085315606e+00 -2.2698316271528998e-01 +1.2503089575099748e+01 +3.1792481556287253e+03 -2.5399563627198170e+05 -2.2158163889371730e+07 
-5.0999999999999996e+00 -5.3713074611738010e-01 +7.3580140772926361e+00 -2.2410286021315595e-01 +1.2738801395416967e+01 +3.1311264930388484e+03 -2.5590446607768477e+05 -2.1911340667933039e+07 
-5.2000000000000002e+00 -5.3713107680835259e-01 +7.3580139234130408e+00 -2.2029101718805655e-01 +1.2938086666814989e+01 +3.0686980433991503e+03 -2.5761890689971318e+05 -2.1605343817682784e+07 
-5.2999999999999998e+00 -5.3713142477675135e-01 +7.3580147781910723e+00 -2.1553440942971339e-01 +1.3100872288901224e+01 +2.9920078689888114e+03 -2.5912648440503055e+05 -2.1241401591932483e+07 
-5.4000000000000004e+00 -5.3713179048192883e-01 +7.3580164729083366e+00 -2.0981981146178508e-01 +1.3227085600556681e+01 +2.9011009906000186e+03 -2.6041472646423324e+05 -2.0820742032342460e+07 
-5.5000000000000000e+00 -5.3713217438321736e-01 +7.3580188388336261e+00 -2.0313399382024502e-01 +1.3316654273753377e+01 +2.7960223360654741e+03 -2.6147116254153391e+05 -2.0344592727908947e+07 
-5.5999999999999996e+00 -5.3713257694000693e-01 +7.3580217072182261e+00 -1.9546372307059839e-01 +1.3369506434332456e+01 +2.6768167404307837e+03 -2.6228332434833812e+05 -1.9814180815696854e+07 
-5.7000000000000002e+00 -5.3713299861159836e-01 +7.3580249092968737e+00 -1.8679576615589386e-01 +1.3385570643736381e+01 +2.5435290233652586e+03 -2.6283874574826338e+05 -1.9230733337013267e+07 
-5.7999999999999998e+00 -5.3713343985737882e-01 +7.3580282762898586e+00 -1.7711688253840638e-01 +1.3364775833061472e+01 +2.3962038445256203e+03 -2.6312496235265152e+05 -1.8595476562406618e+07 
-5.9000000000000004e+00 -5.3713390113666604e-01 +7.3580316393985283e+00 -1.6641383312912342e-01 +1.3307051436214016e+01 +2.2348858707030340e+03 -2.6312951228793745e+05 -1.7909636783132378e+07 
-5.9999999999999902e+00 -5.3713438290879811e-01 +7.3580348298048435e+00 -1.5467337181471330e-01 +1.3212327388551234e+01 +2.0596196106238876e+03 -2.6283993610794743e+05 -1.7174439510852769e+07 
-6.0999999999999899e+00 -5.3713488511550478e-01 +7.3580377216418027e+00 -1.4191243111983715e-01 +1.3080843163714830e+01 +1.8708531544250407e+03 -2.6224854354936979e+05 -1.6392540938369581e+07 
-6.1999999999999904e+00 -5.3713540561534112e-01 +7.3580403551084759e+00 -1.2827222547374437e-01 +1.2914388217769401e+01 +1.6706720631957041e+03 -2.6136937361800481e+05 -1.5572296550593905e+07 
-6.2999999999999901e+00 -5.3713594174244139e-01 +7.3580428104582332e+00 -1.1392596433430599e-01 +1.2715227032113345e+01 +1.4615771809856549e+03 -2.6022263235989976e+05 -1.4723478567557044e+07 
-6.3999999999999897e+00 -5.3713649083096415e-01 +7.3580451679752974e+00 -9.9046865916113710e-02 +1.2485623307168101e+01 +1.2460695154574057e+03 -2.5882852177188982e+05 -1.3855859951197134e+07 
-6.4999999999999902e+00 -5.3713705021499680e-01 +7.3580475079790375e+00 -8.3808143634609519e-02 +1.2227839830580441e+01 +1.0266499925083192e+03 -2.5720723901016280e+05 -1.2979213272691865e+07 
-6.5999999999999899e+00 -5.3713761722872844e-01 +7.3580499108301920e+00 -6.8383017322547063e-02 +1.1944138298297537e+01 +8.0581966513644261e+02 -2.5537897536788575e+05 -1.2103311694328334e+07 
-6.6999999999999904e+00 -5.3713818920632195e-01 +7.3580524569260506e+00 -5.2944709555957772e-02 +1.1636779447807239e+01 +5.8607964506714893e+02 -2.5336391703037184e+05 -1.1237928647037545e+07 
-6.7999999999999901e+00 -5.3713876348185796e-01 +7.3580552267075383e+00 -3.7666442508288447e-02 +1.1308022875968994e+01 +3.6993104261322793e+02 -2.5118224409816938e+05 -1.0392837541373838e+07 
-6.8999999999999897e+00 -5.3713933738954966e-01 +7.3580583006531235e+00 -2.2721441464926974e-02 +1.0960127205209492e+01 +1.5987503230489833e+02 -2.4885413153111876e+05 -9.5778120739250313e+06 
-6.9999999999999902e+00 -5.3713990826357516e-01 +7.3580617592883231e+00 -8.2829360680365463e-03 +1.0595349821650064e+01 -4.1587117621401617e+01 -2.4639974766386664e+05 -8.8026263851736952e+06 
-7.0999999999999899e+00 -5.3714047343804838e-01 +7.3580656831851501e+00 +5.4758430601016313e-03 +1.0215946881370250e+01 -2.3195411536966546e+02 -2.4383925424388089e+05 -8.0770547055044482e+06 
-7.1999999999999904e+00 -5.3714103024713744e-01 +7.3580701529647623e+00 +1.8381662097338231e-02 +9.8241732617395670e+00 -4.0872460142664517e+02 -2.4119280621923335e+05 -7.4108715698305732e+06 
-7.2999999999999901e+00 -5.3714157602501866e-01 +7.3580752492886612e+00 +3.0261281081355257e-02 +9.4222827971059875e+00 -5.6939708753166894e+02 -2.3848055306151963e+05 -6.8138521223419309e+06 
-7.3999999999999897e+00 -5.3714210810588492e-01 +7.3580810528796263e+00 +4.0941462170130623e-02 +9.0125276897044984e+00 -7.1147012040372317e+02 -2.3572263541564744e+05 -6.2957713148100730e+06 
-7.4999999999999902e+00 -5.3714262382389133e-01 +7.3580876445051180e+00 +5.0248962703488755e-02 +8.5971589952410117e+00 -8.3244214712924600e+02 -2.3293918792618634e+05 -5.8664045564060407e+06 
-7.5999999999999899e+00 -5.3714312051320812e-01 +7.3580951049911256e+00 +5.8010530870993178e-02 +8.1784262160682974e+00 -9.2981142841310179e+02 -2.3015033688161365e+05 -5.5355281350550670e+06 
-7.6999999999999904e+00 -5.3714359550802393e-01 +7.3581035152152250e+00 +6.4052920060890237e-02 +7.7585775177041665e+00 -1.0010763159659259e+03 -2.2737620151093259e+05 -5.3129178834147407e+06 
-7.7999999999999901e+00 -5.3714404614258393e-01 +7.3581129561125502e+00 +6.8202876966298676e-02 +7.3398595564932609e+00 -1.0437350267067677e+03 -2.2463689299968636e+05 -5.2083502523582159e+06 
-7.8999999999999897e+00 -5.3714446975100105e-01 +7.3581235086792933e+00 +7.0287140635698742e-02 +6.9245173813837937e+00 -1.0552856185229296e+03 -2.2195251394043129e+05 -5.2316024422349567e+06 
-7.9999999999999902e+00 -5.3714486366749048e-01 +7.3581352539707892e+00 +7.0132452019357597e-02 +6.5147944778965421e+00 -1.0332261796378093e+03 -2.1934315869229031e+05 -5.3924514869177043e+06 
-8.0999999999999908e+00 -5.3714522605679005e-01 +7.3581482181859590e+00 +6.7623588337261537e-02 +6.1131356951758411e+00 -9.7596357611555720e+02 -2.1682820944596615e+05 -5.6968682231977237e+06 
-8.1999999999999904e+00 -5.3714555841040346e-01 +7.3581621983162622e+00 +6.2881223115850982e-02 +5.7229469238724562e+00 -8.8556600040441356e+02 -2.1442417138703473e+05 -6.1355677481330065e+06 
-8.2999999999999901e+00 -5.3714586305336032e-01 +7.3581769315958629e+00 +5.6086062024201543e-02 +5.3479022608253617e+00 -7.6502575956077203e+02 -2.1214675846205259e+05 -6.6954351030550571e+06 
-8.3999999999999897e+00 -5.3714614231059343e-01 +7.3581921552284584e+00 +4.7418805705448076e-02 +4.9916766501034484e+00 -6.1733508233994417e+02 -2.1001168952177669e+05 -7.3633556653663050e+06 
-8.4999999999999893e+00 -5.3714639850705137e-01 +7.3582076063848332e+00 +3.7060152641662097e-02 +4.6579459973696205e+00 -4.4548616702618602e+02 -2.0803468910266479e+05 -8.1262149373312425e+06 
-8.5999999999999908e+00 -5.3714663396754958e-01 +7.3582230222071843e+00 +2.5190794921323364e-02 +4.3503870359011003e+00 -2.5247110878041863e+02 -2.0623148662060825e+05 -8.9708988714251220e+06 
-8.6999999999999904e+00 -5.3714685101691706e-01 +7.3582381398023067e+00 +1.1991422926927517e-02 +4.0726775251721383e+00 -4.1281986835729661e+01 -2.0461781752373636e+05 -9.8842934609381165e+06 
-8.7999999999999794e+00 -5.3714705197986590e-01 +7.3582526962414674e+00 -2.3572806482911744e-03 +3.8284962553776327e+00 +1.8508924925650973e+02 -2.0320942333046492e+05 -1.0853285281592650e+07 
-8.8999999999999808e+00 -5.3714723918104490e-01 +7.3582664285593591e+00 -1.7674634301963726e-02 +3.6215230742087745e+00 +4.2365065564131265e+02 -2.0202205176816785e+05 -1.1864760901112499e+07 
-8.9999999999999805e+00 -5.3714741494507467e-01 +7.3582790737564103e+00 -3.3779962959933053e-02 +3.4554388213034395e+00 +6.7141039144237118e+02 -2.0107145640606363e+05 -1.2905607335576488e+07 
-9.0999999999999801e+00 -5.3714758159647946e-01 +7.3582903687907617e+00 -5.0492596417308383e-02 +3.3339255534640939e+00 +9.2537669153439811e+02 -2.0037339793524487e+05 -1.3962711928311989e+07 
-9.1999999999999797e+00 -5.3714774145968269e-01 +7.3583000505804188e+00 -6.7631869862239152e-02 +3.2606664934903771e+00 +1.1825578730947307e+03 -1.9994364390845216e+05 -1.5022962370555505e+07 
-9.2999999999999794e+00 -5.3714789685911768e-01 +7.3583078560050765e+00 -8.5017119981216610e-02 +3.2393459685357362e+00 +1.4399622625654677e+03 -1.9979796835800118e+05 -1.6073246357454624e+07 
-9.3999999999999808e+00 -5.3714805011908417e-01 +7.3583135219013718e+00 -1.0246769257958821e-01 +3.2736495390846381e+00 +1.6945983408583097e+03 -1.9995215252242755e+05 -1.7100452281927314e+07 
-9.4999999999999805e+00 -5.3714820356383008e-01 +7.3583167850604063e+00 -1.1980293575848071e-01 +3.3672640896871706e+00 +1.9434746118617638e+03 -2.0042198542630870e+05 -1.8091468603065938e+07 
-9.5999999999999801e+00 -5.3714835951744844e-01 +7.3583173822310348e+00 -1.3684220587695939e-01 +3.5238777108877333e+00 +2.1835997150012840e+03 -2.0122326313241071e+05 -1.9033184380199060e+07 
-9.6999999999999797e+00 -5.3714852030412108e-01 +7.3583150501145491e+00 -1.5340486067835318e-01 +3.7471798701973276e+00 +2.4119822961884597e+03 -2.0237178978253584e+05 -1.9912488663618851e+07 
-9.7999999999999794e+00 -5.3714868824778506e-01 +7.3583095253632367e+00 -1.6931026717854369e-01 +4.0408614398432432e+00 +2.6256311548859085e+03 -2.0388337772091842e+05 -2.0716271186780654e+07 
-9.8999999999999808e+00 -5.3714886567238762e-01 +7.3583005445863741e+00 -1.8437779625872627e-01 +4.4086145345710035e+00 +2.8215551413588510e+03 -2.0577384658555343e+05 -2.1431421878702369e+07 
-9.9999999999999805e+00 -5.3714905490177667e-01 +7.3582878443341828e+00 -1.9842682356216651e-01 +4.8541330148520840e+00 +2.9967631849718800e+03 -2.0805902621237637e+05 -2.2044831025548000e+07 
-1.0100000000000000e+01 -5.3714925794690027e-01 +7.3582712707288866e+00 -2.1130677573263987e-01 +5.3790921471936120e+00 +3.1488878752270489e+03 -2.1074557093510110e+05 -2.2546479701730639e+07 
