# field on trajectory
# s[mm] rx[mm] ry[mm] rz[mm] bx[T] by[T] bz[T]
0.0000000000000000e+00 +8.1649999999999991e+00 +0.0000000000000000e+00 +0.0000000000000000e+00 -2.8115234930990891e-02 -5.3659207091115668e-01 +5.2743894988039148e-03
1.0000000000000001e-01 +8.1649997170469408e+00 +0.0000000000000000e+00 +9.9999999999466266e-02 -2.8115332546724894e-02 -5.3659201831601788e-01 +5.2744282407820135e-03
2.0000000000000001e-01 +8.1649988681878032e+00 +0.0000000000000000e+00 +1.9999999999573001e-01 -2.8115446841591490e-02 -5.3659197193127495e-01 +5.2744694662772082e-03
3.0000000000000004e-01 +8.1649974534226359e+00 +0.0000000000000000e+00 +2.9999999998558874e-01 -2.8115576234027165e-02 -5.3659193163560837e-01 +5.2745131425668106e-03
4.0000000000000002e-01 +8.1649954727514800e+00 +0.0000000000000000e+00 +3.9999999996584001e-01 -2.8115719142473034e-02 -5.3659189730771439e-01 +5.2745592369289416e-03
5.0000000000000000e-01 +8.1649929261743726e+00 +0.0000000000000000e+00 +4.9999999993328131e-01 -2.8115873985373484e-02 -5.3659186882630605e-01 +5.2746077166423034e-03
5.9999999999999998e-01 +8.1649898136913439e+00 +0.0000000000000000e+00 +5.9999999988471009e-01 -2.8116039181174880e-02 -5.3659184607010768e-01 +5.2746585489859017e-03
6.9999999999999996e-01 +8.1649861353024171e+00 +0.0000000000000000e+00 +6.9999999981692396e-01 -2.8116213148324177e-02 -5.3659182891785462e-01 +5.2747117012388106e-03
7.9999999999999993e-01 +8.1649818910076117e+00 +0.0000000000000000e+00 +7.9999999972672031e-01 -2.8116394305267623e-02 -5.3659181724829019e-01 +5.2747671406799066e-03
8.9999999999999991e-01 +8.1649770808069384e+00 +0.0000000000000000e+00 +8.9999999961089672e-01 -2.8116581070449405e-02 -5.3659181094016328e-01 +5.2748248345876256e-03
9.9999999999999989e-01 +8.1649717047004060e+00 +0.0000000000000000e+00 +9.9999999946625073e-01 -2.8116771862310340e-02 -5.3659180987222665e-01 +5.2748847502397112e-03
1.0999999999999999e+00 +8.1649657626880146e+00 +0.0000000000000000e+00 +1.0999999992895797e+00 -2.8116965099286507e-02 -5.3659181392323441e-01 +5.2749468549129494e-03
1.2000000000000000e+00 +8.1649592547697605e+00 +0.0000000000000000e+00 +1.1999999990776813e+00 -2.8117159199807944e-02 -5.3659182297193875e-01 +5.2750111158829252e-03
1.3000000000000000e+00 +8.1649521809456331e+00 +0.0000000000000000e+00 +1.2999999988273530e+00 -2.8117352582297292e-02 -5.3659183689708956e-01 +5.2750775004237749e-03
1.4000000000000001e+00 +8.1649445412156201e+00 +0.0000000000000000e+00 +1.3999999985353921e+00 -2.8117543665168457e-02 -5.3659185557743072e-01 +5.2751459758079199e-03
1.5000000000000002e+00 +8.1649363355797018e+00 +0.0000000000000000e+00 +1.4999999981985963e+00 -2.8117730866825296e-02 -5.3659187889169779e-01 +5.2752165093058207e-03
1.6000000000000003e+00 +8.1649275640378516e+00 +0.0000000000000000e+00 +1.5999999978137631e+00 -2.8117912605660277e-02 -5.3659190671861723e-01 +5.2752890681857303e-03
1.7000000000000004e+00 +8.1649182265900428e+00 +0.0000000000000000e+00 +1.6999999973776900e+00 -2.8118087300053139e-02 -5.3659193893690182e-01 +5.2753636197134289e-03
1.8000000000000005e+00 +8.1649083232362418e+00 +0.0000000000000000e+00 +1.7999999968871745e+00 -2.8118253368369536e-02 -5.3659197542525017e-01 +5.2754401311519792e-03
1.9000000000000006e+00 +8.1648978539764094e+00 +0.0000000000000000e+00 +1.8999999963390140e+00 -2.8118409228959768e-02 -5.3659201606234352e-01 +5.2755185697614723e-03
2.0000000000000004e+00 +8.1648868188105030e+00 +0.0000000000000000e+00 +1.9999999957300061e+00 -2.8118553300157396e-02 -5.3659206072684507e-01 +5.2755989027987761e-03
2.1000000000000005e+00 +8.1648752177384765e+00 +0.0000000000000000e+00 +2.0999999950569483e+00 -2.8118684415302752e-02 -5.3659210921195000e-01 +5.2756811038644300e-03
2.2000000000000006e+00 +8.1648630507602782e+00 +0.0000000000000000e+00 +2.1999999943166380e+00 -2.8118803067823189e-02 -5.3659216096906281e-01 +5.2757651719451890e-03
2.3000000000000007e+00 +8.1648503178758549e+00 +0.0000000000000000e+00 +2.2999999935058728e+00 -2.8118910166169665e-02 -5.3659221536413204e-01 +5.2758511123748098e-03
2.4000000000000008e+00 +8.1648370190851498e+00 +0.0000000000000000e+00 +2.3999999926214501e+00 -2.8119006618794438e-02 -5.3659227176310054e-01 +5.2759389304874059e-03
2.5000000000000009e+00 +8.1648231543881025e+00 +0.0000000000000000e+00 +2.4999999916601676e+00 -2.8119093334151930e-02 -5.3659232953190195e-01 +5.2760286316176569e-03
2.6000000000000010e+00 +8.1648087237846543e+00 +0.0000000000000000e+00 +2.5999999906188225e+00 -2.8119171220699818e-02 -5.3659238803646214e-01 +5.2761202211010156e-03
2.7000000000000011e+00 +8.1647937272747431e+00 +0.0000000000000000e+00 +2.6999999894942124e+00 -2.8119241186900009e-02 -5.3659244664269745e-01 +5.2762137042739162e-03
2.8000000000000012e+00 +8.1647781648583067e+00 +0.0000000000000000e+00 +2.7999999882831350e+00 -2.8119304141219641e-02 -5.3659250471651687e-01 +5.2763090864739771e-03
2.9000000000000012e+00 +8.1647620365352864e+00 +0.0000000000000000e+00 +2.8999999869823876e+00 -2.8119360992132025e-02 -5.3659256162381852e-01 +5.2764063730402081e-03
3.0000000000000013e+00 +8.1647453423056220e+00 +0.0000000000000000e+00 +2.9999999855887678e+00 -2.8119412648117702e-02 -5.3659261673049263e-01 +5.2765055693132215e-03
3.1000000000000014e+00 +8.1647280821692565e+00 +0.0000000000000000e+00 +3.0999999840990728e+00 -2.8119460017665420e-02 -5.3659266940241923e-01 +5.2766066806354314e-03
3.2000000000000015e+00 +8.1647102561261331e+00 +0.0000000000000000e+00 +3.1999999825101004e+00 -2.8119504009273124e-02 -5.3659271900546857e-01 +5.2767097123512683e-03
3.3000000000000016e+00 +8.1646918641762021e+00 +0.0000000000000000e+00 +3.2999999808186478e+00 -2.8119545531448971e-02 -5.3659276490550145e-01 +5.2768146698073757e-03
3.4000000000000017e+00 +8.1646729063194154e+00 +0.0000000000000000e+00 +3.3999999790215125e+00 -2.8119585492712287e-02 -5.3659280646836782e-01 +5.2769215583528348e-03
3.5000000000000018e+00 +8.1646533825557288e+00 +0.0000000000000000e+00 +3.4999999771154924e+00 -2.8119624801594599e-02 -5.3659284305990707e-01 +5.2770303833393423e-03
3.6000000000000019e+00 +8.1646332928851049e+00 +0.0000000000000000e+00 +3.5999999750973846e+00 -2.8119664366640616e-02 -5.3659287404594858e-01 +5.2771411501214491e-03
3.7000000000000020e+00 +8.1646126373075116e+00 +0.0000000000000000e+00 +3.6999999729639867e+00 -2.8119705096409223e-02 -5.3659289879231042e-01 +5.2772538640567437e-03
3.8000000000000020e+00 +8.1645914158229242e+00 +0.0000000000000000e+00 +3.7999999707120962e+00 -2.8119747899474482e-02 -5.3659291666479947e-01 +5.2773685305060655e-03
3.9000000000000021e+00 +8.1645696284313232e+00 +0.0000000000000000e+00 +3.8999999683385105e+00 -2.8119793684426624e-02 -5.3659292702921135e-01 +5.2774851548337172e-03
4.0000000000000018e+00 +8.1645472751326995e+00 +0.0000000000000000e+00 +3.9999999658400274e+00 -2.8119843359873040e-02 -5.3659292925132973e-01 +5.2776037424076636e-03
4.1000000000000014e+00 +8.1645243559270515e+00 +0.0000000000000000e+00 +4.0999999632134436e+00 -2.8119897617884967e-02 -5.3659292290067684e-01 +5.2777242727296619e-03
4.2000000000000011e+00 +8.1645008708143862e+00 +0.0000000000000000e+00 +4.1999999604555578e+00 -2.8119956284332587e-02 -5.3659290836177131e-01 +5.2778466218242467e-03
4.3000000000000007e+00 +8.1644768197947197e+00 +0.0000000000000000e+00 +4.2999999575631662e+00 -2.8120018968545515e-02 -5.3659288622289492e-01 +5.2779706398477051e-03
4.4000000000000004e+00 +8.1644522028680768e+00 +0.0000000000000000e+00 +4.3999999545330670e+00 -2.8120085279867733e-02 -5.3659285707234461e-01 +5.2780961769580415e-03
4.5000000000000000e+00 +8.1644270200344877e+00 +0.0000000000000000e+00 +4.4999999513620583e+00 -2.8120154827658152e-02 -5.3659282149843313e-01 +5.2782230833150270e-03
4.5999999999999996e+00 +8.1644012712939915e+00 +0.0000000000000000e+00 +4.5999999480469365e+00 -2.8120227221291261e-02 -5.3659278008949152e-01 +5.2783512090802606e-03
4.6999999999999993e+00 +8.1643749566466326e+00 +0.0000000000000000e+00 +4.6999999445844995e+00 -2.8120302070157716e-02 -5.3659273343387126e-01 +5.2784804044172335e-03
4.7999999999999989e+00 +8.1643480760924625e+00 +0.0000000000000000e+00 +4.7999999409715448e+00 -2.8120378983664974e-02 -5.3659268211994227e-01 +5.2786105194913471e-03
4.8999999999999986e+00 +8.1643206296315345e+00 +0.0000000000000000e+00 +4.8999999372048704e+00 -2.8120457571237937e-02 -5.3659262673609853e-01 +5.2787414044700156e-03
4.9999999999999982e+00 +8.1642926172639072e+00 +0.0000000000000000e+00 +4.9999999332812735e+00 -2.8120537442319515e-02 -5.3659256787075604e-01 +5.2788729095226763e-03
5.0999999999999979e+00 +8.1642640389896446e+00 +0.0000000000000000e+00 +5.0999999291975513e+00 -2.8120618206371274e-02 -5.3659250611235565e-01 +5.2790048848208558e-03
5.1999999999999975e+00 +8.1642348948088124e+00 +0.0000000000000000e+00 +5.1999999249505011e+00 -2.8120699472874076e-02 -5.3659244204936429e-01 +5.2791371805382386e-03
5.2999999999999972e+00 +8.1642051847214780e+00 +0.0000000000000000e+00 +5.2999999205369210e+00 -2.8120780851328658e-02 -5.3659237627027589e-01 +5.2792696468507020e-03
5.3999999999999968e+00 +8.1641749087277127e+00 +0.0000000000000000e+00 +5.3999999159536083e+00 -2.8120861951256224e-02 -5.3659230936361257e-01 +5.2794021339363784e-03
5.4999999999999964e+00 +8.1641440668275891e+00 +0.0000000000000000e+00 +5.4999999111973610e+00 -2.8120942382199140e-02 -5.3659224191792754e-01 +5.2795344919757056e-03
5.5999999999999961e+00 +8.1641126590211766e+00 +0.0000000000000000e+00 +5.5999999062649763e+00 -2.8121021753721501e-02 -5.3659217452180341e-01 +5.2796665711514774e-03
5.6999999999999957e+00 +8.1640806853085497e+00 +0.0000000000000000e+00 +5.6999999011532516e+00 -2.8121099675409791e-02 -5.3659210776385735e-01 +5.2797982216489072e-03
5.7999999999999954e+00 +8.1640481456897778e+00 +0.0000000000000000e+00 +5.7999998958589840e+00 -2.8121175756873396e-02 -5.3659204223273860e-01 +5.2799292936556736e-03
5.8999999999999950e+00 +8.1640150401649318e+00 +0.0000000000000000e+00 +5.8999998903789717e+00 -2.8121249607745365e-02 -5.3659197851713292e-01 +5.2800596373619741e-03
5.9999999999999947e+00 +8.1639813687340812e+00 +0.0000000000000000e+00 +5.9999998847100118e+00 -2.8121320837682907e-02 -5.3659191720576116e-01 +5.2801891029605778e-03
6.0999999999999943e+00 +8.1639471313972898e+00 +0.0000000000000000e+00 +6.0999998788489016e+00 -2.8121389226306737e-02 -5.3659185889222272e-01 +5.2803175720675614e-03
6.1999999999999940e+00 +8.1639123281546215e+00 +0.0000000000000000e+00 +6.1999998727924392e+00 -2.8121455232997711e-02 -5.3659180418950292e-01 +5.2804450519821347e-03
6.2999999999999936e+00 +8.1638769590061351e+00 +0.0000000000000000e+00 +6.2999998665374219e+00 -2.8121519487040388e-02 -5.3659175371544676e-01 +5.2805715814197391e-03
6.3999999999999932e+00 +8.1638410239518837e+00 +0.0000000000000000e+00 +6.3999998600806478e+00 -2.8121582617675535e-02 -5.3659170808791534e-01 +5.2806971990902191e-03
6.4999999999999929e+00 +8.1638045229919172e+00 +0.0000000000000000e+00 +6.4999998534189141e+00 -2.8121645254098177e-02 -5.3659166792478941e-01 +5.2808219436975799e-03
6.5999999999999925e+00 +8.1637674561262781e+00 +0.0000000000000000e+00 +6.5999998465490179e+00 -2.8121708025455439e-02 -5.3659163384396680e-01 +5.2809458539396980e-03
6.6999999999999922e+00 +8.1637298233550055e+00 +0.0000000000000000e+00 +6.6999998394677567e+00 -2.8121771560844448e-02 -5.3659160646336446e-01 +5.2810689685080653e-03
6.7999999999999918e+00 +8.1636916246781279e+00 +0.0000000000000000e+00 +6.7999998321719284e+00 -2.8121836489310277e-02 -5.3659158640091908e-01 +5.2811913260875087e-03
6.8999999999999915e+00 +8.1636528600956684e+00 +0.0000000000000000e+00 +6.8999998246583303e+00 -2.8121903439843825e-02 -5.3659157427458692e-01 +5.2813129653559382e-03
6.9999999999999911e+00 +8.1636135296076393e+00 +0.0000000000000000e+00 +6.9999998169237605e+00 -2.8121973041379714e-02 -5.3659157070234276e-01 +5.2814339249840497e-03
7.0999999999999908e+00 +8.1635736332140478e+00 +0.0000000000000000e+00 +7.0999998089650154e+00 -2.8122045922794207e-02 -5.3659157630218379e-01 +5.2815542436350808e-03
7.1999999999999904e+00 +8.1635331709148886e+00 +0.0000000000000000e+00 +7.1999998007788930e+00 -2.8122122712903135e-02 -5.3659159169212667e-01 +5.2816739599645330e-03
7.2999999999999901e+00 +8.1634921427101457e+00 +0.0000000000000000e+00 +7.2999997923621915e+00 -2.8122204040459748e-02 -5.3659161749020945e-01 +5.2817931126198977e-03
7.3999999999999897e+00 +8.1634505485997941e+00 +0.0000000000000000e+00 +7.3999997837117073e+00 -2.8122290534152685e-02 -5.3659165431449196e-01 +5.2819117402403883e-03
7.4999999999999893e+00 +8.1634083885837967e+00 +0.0000000000000000e+00 +7.4999997748242384e+00 -2.8122382822603806e-02 -5.3659170278305557e-01 +5.2820298814566765e-03
7.5999999999999890e+00 +8.1633656626621018e+00 +0.0000000000000000e+00 +7.5999997656965830e+00 -2.8122481534366178e-02 -5.3659176351400450e-01 +5.2821475748906143e-03
7.6999999999999886e+00 +8.1633223708346492e+00 +0.0000000000000000e+00 +7.6999997563255373e+00 -2.8122587297921900e-02 -5.3659183712546576e-01 +5.2822648591549712e-03
7.7999999999999883e+00 +8.1632785131013605e+00 +0.0000000000000000e+00 +7.7999997467078996e+00 -2.8122700741680041e-02 -5.3659192423558788e-01 +5.2823817728531539e-03
7.8999999999999879e+00 +8.1632340894621453e+00 +0.0000000000000000e+00 +7.8999997368404671e+00 -2.8122822493974568e-02 -5.3659202546254559e-01 +5.2824983545789539e-03
7.9999999999999876e+00 +8.1631890999168988e+00 +0.0000000000000000e+00 +7.9999997267200369e+00 -2.8122953183062176e-02 -5.3659214142453526e-01 +5.2826146429162538e-03
8.0999999999999872e+00 +8.1631435444655001e+00 +0.0000000000000000e+00 +8.0999997163434063e+00 -2.8123093112404098e-02 -5.3659227249511843e-01 +5.2827306818555193e-03
8.1999999999999869e+00 +8.1630974231078124e+00 +0.0000000000000000e+00 +8.1999997057073735e+00 -2.8123241286544535e-02 -5.3659241806919855e-01 +5.2828465370485852e-03
8.2999999999999865e+00 +8.1630507358436848e+00 +0.0000000000000000e+00 +8.2999996948087365e+00 -2.8123396385333930e-02 -5.3659257729694165e-01 +5.2829622795664225e-03
8.3999999999999861e+00 +8.1630034826729503e+00 +0.0000000000000000e+00 +8.3999996836442925e+00 -2.8123557088661807e-02 -5.3659274932842815e-01 +5.2830779804836176e-03
8.4999999999999858e+00 +8.1629556635954277e+00 +0.0000000000000000e+00 +8.4999996722108371e+00 -2.8123722076458309e-02 -5.3659293331365043e-01 +5.2831937108785282e-03
8.5999999999999854e+00 +8.1629072786109251e+00 +0.0000000000000000e+00 +8.5999996605051692e+00 -2.8123890028695950e-02 -5.3659312840251128e-01 +5.2833095418334608e-03
8.6999999999999851e+00 +8.1628583277192401e+00 +0.0000000000000000e+00 +8.6999996485240860e+00 -2.8124059625390978e-02 -5.3659333374481821e-01 +5.2834255444347972e-03
8.7999999999999847e+00 +8.1628088109201560e+00 +0.0000000000000000e+00 +8.7999996362643849e+00 -2.8124229546605130e-02 -5.3659354849028229e-01 +5.2835417897731793e-03
8.8999999999999844e+00 +8.1627587282134488e+00 +0.0000000000000000e+00 +8.8999996237228629e+00 -2.8124398472447149e-02 -5.3659377178851586e-01 +5.2836583489436623e-03
8.9999999999999840e+00 +8.1627080795988842e+00 +0.0000000000000000e+00 +8.9999996108963174e+00 -2.8124565083074430e-02 -5.3659400278902847e-01 +5.2837752930458793e-03
9.0999999999999837e+00 +8.1626568650762206e+00 +0.0000000000000000e+00 +9.0999995977815473e+00 -2.8124728058694533e-02 -5.3659424064122407e-01 +5.2838926931841786e-03
9.1999999999999833e+00 +8.1626050846452092e+00 +0.0000000000000000e+00 +9.1999995843753481e+00 -2.8124886079566820e-02 -5.3659448449439950e-01 +5.2840106204678139e-03
9.2999999999999829e+00 +8.1625527383055942e+00 +0.0000000000000000e+00 +9.2999995706745171e+00 -2.8125037826004083e-02 -5.3659473349773934e-01 +5.2841291460110811e-03
9.3999999999999826e+00 +8.1624998260571147e+00 +0.0000000000000000e+00 +9.3999995566758532e+00 -2.8125181978374086e-02 -5.3659498680031514e-01 +5.2842483409334985e-03
9.4999999999999822e+00 +8.1624463478995040e+00 +0.0000000000000000e+00 +9.4999995423761519e+00 -2.8125317217101160e-02 -5.3659524355108168e-01 +5.2843682763599326e-03
9.5999999999999819e+00 +8.1623923038324957e+00 +0.0000000000000000e+00 +9.5999995277722121e+00 -2.8125442222667836e-02 -5.3659550289887359e-01 +5.2844890234207981e-03
9.6999999999999815e+00 +8.1623376938558163e+00 +0.0000000000000000e+00 +9.6999995128608294e+00 -2.8125555675616424e-02 -5.3659576399240339e-01 +5.2846106532521836e-03
9.7999999999999812e+00 +8.1622825179691922e+00 +0.0000000000000000e+00 +9.7999994976388027e+00 -2.8125656256550627e-02 -5.3659602598025857e-01 +5.2847332369960380e-03
9.8999999999999808e+00 +8.1622267761723499e+00 +0.0000000000000000e+00 +9.8999994821029293e+00 -2.8125742646137094e-02 -5.3659628801089743e-01 +5.2848568458003058e-03
9.9999999999999805e+00 +8.1621704684650140e+00 +0.0000000000000000e+00 +9.9999994662500047e+00 -2.8125813525107075e-02 -5.3659654923264843e-01 +5.2849815508191015e-03
1.0099999999999980e+01 +8.1621135948469128e+00 +0.0000000000000000e+00 +1.0099999450076828e+01 -2.8125868092499767e-02 -5.3659680911201380e-01 +5.2851073993945563e-03
1.0199999999999980e+01 +8.1620561553177726e+00 +0.0000000000000000e+00 +1.0199999433580196e+01 -2.8125907620406638e-02 -5.3659706838868770e-01 +5.2852343436002600e-03
1.0299999999999979e+01 +8.1619981498773218e+00 +0.0000000000000000e+00 +1.0299999416756906e+01 -2.8125933899203284e-02 -5.3659732812074634e-01 +5.2853623116966304e-03
1.0399999999999979e+01 +8.1619395785252866e+00 +0.0000000000000000e+00 +1.0399999399603754e+01 -2.8125948719287600e-02 -5.3659758936634905e-01 +5.2854912319500562e-03
1.0499999999999979e+01 +8.1618804412613954e+00 +0.0000000000000000e+00 +1.0499999382117538e+01 -2.8125953871080224e-02 -5.3659785318374054e-01 +5.2856210326330437e-03
1.0599999999999978e+01 +8.1618207380853711e+00 +0.0000000000000000e+00 +1.0599999364295057e+01 -2.8125951145024898e-02 -5.3659812063125345e-01 +5.2857516420243495e-03
1.0699999999999978e+01 +8.1617604689969330e+00 +0.0000000000000000e+00 +1.0699999346133106e+01 -2.8125942331588889e-02 -5.3659839276731180e-01 +5.2858829884091284e-03
1.0799999999999978e+01 +8.1616996339957968e+00 +0.0000000000000000e+00 +1.0799999327628484e+01 -2.8125929221263373e-02 -5.3659867065043199e-01 +5.2860150000790685e-03
1.0899999999999977e+01 +8.1616382330816712e+00 +0.0000000000000000e+00 +1.0899999308777987e+01 -2.8125913604563881e-02 -5.3659895533922686e-01 +5.2861476053325425e-03
1.0999999999999977e+01 +8.1615762662542579e+00 +0.0000000000000000e+00 +1.0999999289578414e+01 -2.8125897272030617e-02 -5.3659924789240654e-01 +5.2862807324747327e-03
1.1099999999999977e+01 +8.1615137335132495e+00 +0.0000000000000000e+00 +1.1099999270026560e+01 -2.8125882014228932e-02 -5.3659954936878274e-01 +5.2864143098177840e-03
1.1199999999999976e+01 +8.1614506348583298e+00 +0.0000000000000000e+00 +1.1199999250119223e+01 -2.8125869621749670e-02 -5.3659986082726974e-01 +5.2865482656809428e-03
1.1299999999999976e+01 +8.1613869702891737e+00 +0.0000000000000000e+00 +1.1299999229853201e+01 -2.8125861885209599e-02 -5.3660018332688830e-01 +5.2866825283906949e-03
1.1399999999999975e+01 +8.1613227398054420e+00 +0.0000000000000000e+00 +1.1399999209225291e+01 -2.8125860595251736e-02 -5.3660051792676666e-01 +5.2868170262809090e-03
1.1499999999999975e+01 +8.1612579434067847e+00 +0.0000000000000000e+00 +1.1499999188232289e+01 -2.8125867542545802e-02 -5.3660086568614418e-01 +5.2869516876929753e-03
1.1599999999999975e+01 +8.1611925810928359e+00 +0.0000000000000000e+00 +1.1599999166870994e+01 -2.8125884517788600e-02 -5.3660122766437357e-01 +5.2870864409759518e-03
1.1699999999999974e+01 +8.1611266528632154e+00 +0.0000000000000000e+00 +1.1699999145138200e+01 -2.8125913311704370e-02 -5.3660160492092346e-01 +5.2872212144867000e-03
1.1799999999999974e+01 +8.1610601587175289e+00 +0.0000000000000000e+00 +1.1799999123030707e+01 -2.8125955715045191e-02 -5.3660199851538004e-01 +5.2873559365900309e-03
