# multipoles
# s[mm] polynom_b[n=0][T/m^n] polynom_b[n=1][T/m^n] polynom_b[n=2][T/m^n] polynom_b[n=3][T/m^n] polynom_b[n=4][T/m^n] polynom_b[n=5][T/m^n] polynom_b[n=6][T/m^n] 
+0.0000000000000000e+00 -5.3872597105841225e-01 +7.3605280161551461e+00 -5.1324584064414902e-01 -1.9030978591745498e+01 +3.9710099039038987e+03 -1.5155346916237107e+05 -2.0825574341889761e+07 
-1.0000000000000001e-01 -5.3872604426595183e-01 +7.3605611811304090e+00 -5.0992039079888185e-01 -1.9645856944857510e+01 +3.8972664047476997e+03 -1.4875862745347712e+05 -2.0460945535351496e+07 
-2.0000000000000001e-01 -5.3872613340576525e-01 +7.3605950810720326e+00 -5.0589804689270179e-01 -2.0281205609390980e+01 +3.8147607883923706e+03 -1.4587738648169872e+05 -2.0065008700163338e+07 
-3.0000000000000004e-01 -5.3872623730081526e-01 +7.3606295478539749e+00 -5.0124625754298735e-01 -2.0933608899007872e+01 +3.7244530031225272e+03 -1.4292242991546713e+05 -1.9641828566821326e+07 
-4.0000000000000002e-01 -5.3872635477409136e-01 +7.3606644133514854e+00 -4.9603246932456285e-01 -2.1599651186821138e+01 +3.6273029674472928e+03 -1.3990644099035423e+05 -1.9195469747172907e+07 
-5.0000000000000000e-01 -5.3872648464853568e-01 +7.3606995094310284e+00 -4.9032413379029161e-01 -2.2275916610389125e+01 +3.5242706883406104e+03 -1.3684210422060505e+05 -1.8729997257723112e+07 
-5.9999999999999998e-01 -5.3872662574714714e-01 +7.3607346679602079e+00 -4.8418869579400547e-01 -2.2958989350358049e+01 +3.4163160498944048e+03 -1.3374210380704503e+05 -1.8249475543091740e+07 
-6.9999999999999996e-01 -5.3872677689288018e-01 +7.3607697208072267e+00 -4.7769360504812253e-01 -2.3645453608622624e+01 +3.3043990226511778e+03 -1.3061912378234068e+05 -1.7757969443426035e+07 
-7.9999999999999993e-01 -5.3872693690871021e-01 +7.3608044998336428e+00 -4.7090630881900114e-01 -2.4331893413956536e+01 +3.1894795317134153e+03 -1.2748584907996745e+05 -1.7259543585775983e+07 
-8.9999999999999991e-01 -5.3872710461760254e-01 +7.3608388368996609e+00 -4.6389425538390600e-01 -2.5014892746373615e+01 +3.0725175186870474e+03 -1.2435496489596470e+05 -1.6758262669975262e+07 
-9.9999999999999989e-01 -5.3872727884250204e-01 +7.3608725638701733e+00 -4.5672489454245085e-01 -2.5691035728609137e+01 +2.9544729466359358e+03 -1.2123915553103054e+05 -1.6258191478790769e+07 
-1.0999999999999999e+00 -5.3872745840637393e-01 +7.3609055126070491e+00 -4.4946567392995201e-01 -2.6356906388727907e+01 +2.8363057381328335e+03 -1.1815110579846565e+05 -1.5763394605305662e+07 
-1.2000000000000000e+00 -5.3872764213218483e-01 +7.3609375149734086e+00 -4.4218404018993357e-01 -2.7009088776957626e+01 +2.7189757891219838e+03 -1.1510350036593576e+05 -1.5277936496227160e+07 
-1.3000000000000000e+00 -5.3872782884285542e-01 +7.3609684028316140e+00 -4.3494744476633324e-01 -2.7644166920015898e+01 +2.6034430797788582e+03 -1.1210902397652419e+05 -1.4805881983219177e+07 
-1.4000000000000001e+00 -5.3872801736132525e-01 +7.3609980080486990e+00 -4.2782333682386930e-01 -2.8258724957751948e+01 +2.4906675435610991e+03 -1.0918036071423667e+05 -1.4351295667473910e+07 
-1.5000000000000002e+00 -5.3872820651053521e-01 +7.3610261624885487e+00 -4.2087916403359704e-01 -2.8849346921021326e+01 +2.3816090745791316e+03 -1.0633019527532504e+05 -1.3918241936304925e+07 
-1.6000000000000003e+00 -5.3872839511338999e-01 +7.3610526980236282e+00 -4.1418237808284397e-01 -2.9412617069567315e+01 +2.2772276366132437e+03 -1.0357121100818542e+05 -1.3510785493627599e+07 
-1.7000000000000004e+00 -5.3872858199280782e-01 +7.3610774465259237e+00 -4.0780042821871104e-01 -2.9945119620520579e+01 +2.1784831387282698e+03 -1.0091609151666136e+05 -1.3132990762760889e+07 
-1.8000000000000005e+00 -5.3872876597167385e-01 +7.3611002398690664e+00 -4.0180076664399689e-01 -3.0443438810790919e+01 +2.0863355339794366e+03 -9.8377520276077325e+04 -1.2788922346918873e+07 
-1.9000000000000006e+00 -5.3872894587287212e-01 +7.3611209099353561e+00 -3.9625084531625621e-01 -3.0904159092564804e+01 +2.0017447637979126e+03 -9.5968179538356067e+04 -1.2482644778245147e+07 
-2.0000000000000004e+00 -5.3872912051927735e-01 +7.3611392886077800e+00 -3.9121811574423598e-01 -3.1323864902773494e+01 +1.9256707464555816e+03 -9.3700751645888711e+04 -1.2218222443293277e+07 
-2.1000000000000005e+00 -5.3872928906318174e-01 +7.3611552604486770e+00 -3.8675541440330219e-01 -3.1699924455301105e+01 +1.8588728249502994e+03 -9.1585882408821213e+04 -1.1998765809136266e+07 
-2.2000000000000006e+00 -5.3872945197280120e-01 +7.3611689217816139e+00 -3.8285808571321878e-01 -3.2032830287723158e+01 +1.8013237726040200e+03 -8.9626455159097473e+04 -1.1823621956383955e+07 
-2.3000000000000007e+00 -5.3872961004492570e-01 +7.3611804221543462e+00 -3.7950734013979448e-01 -3.2323853578532358e+01 +1.7528035658884669e+03 -8.7823509205606548e+04 -1.1691209480382688e+07 
-2.4000000000000008e+00 -5.3872976407631179e-01 +7.3611899111143657e+00 -3.7668439259164566e-01 -3.2574265531097325e+01 +1.7130922666757506e+03 -8.6178083726917874e+04 -1.1599947381398758e+07 
-2.5000000000000009e+00 -5.3872991486374266e-01 +7.3611975382098072e+00 -3.7437045524248186e-01 -3.2785337408821100e+01 +1.6819698862137029e+03 -8.4691217570608729e+04 -1.1548254415776357e+07 
-2.6000000000000010e+00 -5.3873006320397887e-01 +7.3612034529975485e+00 -3.7254674367681673e-01 -3.2958340764138065e+01 +1.6592165034537738e+03 -8.3363947953477036e+04 -1.1534549664442440e+07 
-2.7000000000000011e+00 -5.3873020989378850e-01 +7.3612078050329206e+00 -3.7119447316820120e-01 -3.3094547153023925e+01 +1.6446121934152425e+03 -8.2197312101549658e+04 -1.1557252186543446e+07 
-2.8000000000000012e+00 -5.3873035572994654e-01 +7.3612107438730625e+00 -3.7029485880355589e-01 -3.3195228234065539e+01 +1.6379370315415597e+03 -8.1192346681115945e+04 -1.1614781047320338e+07 
-2.9000000000000012e+00 -5.3873050150921920e-01 +7.3612124190808537e+00 -3.6982911767269339e-01 -3.3261655893715670e+01 +1.6389711359174894e+03 -8.0350087068190885e+04 -1.1705555518851154e+07 
-3.0000000000000013e+00 -5.3873064802837323e-01 +7.3612129802186717e+00 -3.6977846822784538e-01 -3.3295102056809334e+01 +1.6474946572566735e+03 -7.9671568480525108e+04 -1.1827995035891140e+07 
-3.1000000000000014e+00 -5.3873079608417207e-01 +7.3612125768582652e+00 -3.7012412961621510e-01 -3.3296838994008880e+01 +1.6632877623970671e+03 -7.9157824161441458e+04 -1.1980519109900054e+07 
-3.2000000000000015e+00 -5.3873094647341258e-01 +7.3612113585682959e+00 -3.7084731886054195e-01 -3.3268138949357777e+01 +1.6861305880714740e+03 -7.8809887579911010e+04 -1.2161547124532953e+07 
-3.3000000000000016e+00 -5.3873109999285573e-01 +7.3612094749251558e+00 -3.7192925791767839e-01 -3.3210274470924858e+01 +1.7158033685340981e+03 -7.8628790493187829e+04 -1.2369498927587923e+07 
-3.4000000000000017e+00 -5.3873125743928729e-01 +7.3612070755026231e+00 -3.7335116768514620e-01 -3.3124518106790624e+01 +1.7520863294014850e+03 -7.8615564724136275e+04 -1.2602794344109390e+07 
-3.5000000000000018e+00 -5.3873141960947890e-01 +7.3612043098865128e+00 -3.7509427181118804e-01 -3.3012142844440724e+01 +1.7947597542751046e+03 -7.8771239607805997e+04 -1.2859853477555346e+07 
-3.6000000000000019e+00 -5.3873158730024118e-01 +7.3612013276590638e+00 -3.7713979132853992e-01 -3.2874421651412298e+01 +1.8436038910817858e+03 -7.9096844678712703e+04 -1.3139096285748536e+07 
-3.7000000000000020e+00 -5.3873176130835521e-01 +7.3611982784081365e+00 -3.7946895210002479e-01 -3.2712627753606725e+01 +1.8983990861935611e+03 -7.9593408046316836e+04 -1.3438943199545085e+07 
-3.8000000000000020e+00 -5.3873194243062128e-01 +7.3611953117273199e+00 -3.8206297952026974e-01 -3.2528034645007843e+01 +1.9589256901379595e+03 -8.0261956337630589e+04 -1.3757814689799644e+07 
-3.9000000000000021e+00 -5.3873213146384358e-01 +7.3611925772146707e+00 -3.8490310042874326e-01 -3.2321916050991852e+01 +2.0249640924630398e+03 -8.1103514928373435e+04 -1.4094131428275567e+07 
-4.0000000000000018e+00 -5.3873232920484504e-01 +7.3611902244667915e+00 -3.8797054158460886e-01 -3.2095545759836320e+01 +2.0962946946843372e+03 -8.2119108949161950e+04 -1.4446314165367765e+07 
-4.1000000000000014e+00 -5.3873253625729123e-01 +7.3611883712493960e+00 -3.9124499804005580e-01 -3.1850252686120989e+01 +2.1726142998769756e+03 -8.3307357664124283e+04 -1.4812546986660713e+07 
-4.2000000000000011e+00 -5.3873275245800933e-01 +7.3611870010188056e+00 -3.9469832512804887e-01 -3.1587527871959864e+01 +2.2532699222368719e+03 -8.4656491526033351e+04 -1.5190052822011633e+07 
-4.3000000000000007e+00 -5.3873297745361470e-01 +7.3611860619199794e+00 -3.9829996935265061e-01 -3.1308891184158302e+01 +2.3375170005104933e+03 -8.6151929399260247e+04 -1.5575811071026264e+07 
-4.4000000000000004e+00 -5.3873321089074222e-01 +7.3611855020936989e+00 -4.0201937414906730e-01 -3.1015862284102305e+01 +2.4246109150598113e+03 -8.7779091414511189e+04 -1.5966800872224635e+07 
-4.5000000000000000e+00 -5.3873345241602022e-01 +7.3611852696817248e+00 -4.0582598326196057e-01 -3.0709960794855242e+01 +2.5138070519654143e+03 -8.9523397965273602e+04 -1.6360001405546382e+07 
-4.5999999999999996e+00 -5.3873370167605783e-01 +7.3611853128190079e+00 -4.0968924128387690e-01 -3.0392706058023798e+01 +2.6043608090708076e+03 -9.1370271134720213e+04 -1.6752391912199877e+07 
-4.6999999999999993e+00 -5.3873395831748794e-01 +7.3611855796363281e+00 -4.1357858883988879e-01 -3.0065617195816866e+01 +2.6955275057063895e+03 -9.3305134374677029e+04 -1.7140951269121498e+07 
-4.7999999999999989e+00 -5.3873422198692933e-01 +7.3611860182625755e+00 -4.1746346757743602e-01 -2.9730213185495764e+01 +2.7865624796241818e+03 -9.5313412024635225e+04 -1.7522658455227245e+07 
-4.8999999999999986e+00 -5.3873449233100079e-01 +7.3611865768216127e+00 -4.2131331764609053e-01 -2.9388012747280769e+01 +2.8767210378683558e+03 -9.7380530011670082e+04 -1.7894492319686305e+07 
-4.9999999999999982e+00 -5.3873476899633554e-01 +7.3611872034319070e+00 -4.2509757587633068e-01 -2.9040534341475194e+01 +2.9652584172602328e+03 -9.9491915827109944e+04 -1.8253431376687437e+07 
-5.0999999999999979e+00 -5.3873505162952751e-01 +7.3611878462072182e+00 -4.2878568295397362e-01 -2.8689296172006223e+01 +3.0514299287422791e+03 -1.0163299853576772e+05 -1.8596454519732825e+07 
-5.1999999999999975e+00 -5.3873533987722300e-01 +7.3611884532561866e+00 -4.3234707146122081e-01 -2.8335816174501037e+01 +3.1344907232313358e+03 -1.0378920882871121e+05 -1.8920539885728694e+07 
-5.2999999999999972e+00 -5.3873563338601493e-01 +7.3611889726843174e+00 -4.3575117884679776e-01 -2.7981612058824876e+01 +3.2136960396512090e+03 -1.0594597880481675e+05 -1.9222666044434618e+07 
-5.3999999999999968e+00 -5.3873593180253276e-01 +7.3611893525861909e+00 -4.3896743670752630e-01 -2.7628201089458294e+01 +3.2883010039984842e+03 -1.0808874321048398e+05 -1.9499811048755717e+07 
-5.4999999999999964e+00 -5.3873623477337662e-01 +7.3611895410539860e+00 -4.4196527839156124e-01 -2.7277100314737798e+01 +3.3575607689698741e+03 -1.1020293814366666e+05 -1.9748953086746994e+07 
-5.5999999999999961e+00 -5.3873654194519915e-01 +7.3611894861735667e+00 -4.4471412913800301e-01 -2.6929826450307253e+01 +3.4207303301309498e+03 -1.1227400172203535e+05 -1.9967069618612085e+07 
-5.6999999999999957e+00 -5.3873685296455920e-01 +7.3611891360216930e+00 -4.4718342377606468e-01 -2.6587895800676474e+01 +3.4770648600841482e+03 -1.1428737452038903e+05 -2.0151138962821417e+07 
-5.7999999999999954e+00 -5.3873716747811451e-01 +7.3611884386704212e+00 -4.4934258273676564e-01 -2.6252824368255805e+01 +3.5258192509355063e+03 -1.1622849896451666e+05 -2.0298138113977570e+07 
-5.8999999999999950e+00 -5.3873748513245145e-01 +7.3611873421829133e+00 -4.5116103374036393e-01 -2.5926127726263598e+01 +3.5662485307889528e+03 -1.1808282007924431e+05 -2.0405044738004599e+07 
-5.9999999999999947e+00 -5.3873780557417861e-01 +7.3611857946152037e+00 -4.5260819935239138e-01 -2.5609321073976407e+01 +3.5976076234362531e+03 -1.1983578509325432e+05 -2.0468836017228886e+07 
-6.0999999999999943e+00 -5.3873812847112557e-01 +7.3611837674541380e+00 -4.5366290658616160e-01 -2.5303876410059672e+01 +3.6193735939827880e+03 -1.2147474485770032e+05 -2.0487493499091391e+07 
-6.1999999999999940e+00 -5.3873845357285921e-01 +7.3611813375750872e+00 -4.5434306880734765e-01 -2.5011359577387939e+01 +3.6319208852679885e+03 -1.2299400152920894e+05 -2.0462987392124910e+07 
-6.2999999999999936e+00 -5.3873878064857228e-01 +7.3611786110802164e+00 -4.5467677033331483e-01 -2.4733421207442881e+01 +3.6358512082698253e+03 -1.2438947277960808e+05 -2.0398279779419102e+07 
-6.3999999999999932e+00 -5.3873910946747150e-01 +7.3611756940807105e+00 -4.5469209489748463e-01 -2.4471712197972863e+01 +3.6317662722142049e+03 -1.2565707470706759e+05 -2.0296332743958738e+07 
-6.4999999999999929e+00 -5.3873943979875893e-01 +7.3611726926811087e+00 -4.5441712725088435e-01 -2.4227883248236420e+01 +3.6202678132125370e+03 -1.2679272451220738e+05 -2.0160108507200547e+07 
-6.5999999999999925e+00 -5.3873977141169060e-01 +7.3611697129923881e+00 -4.5387994665754683e-01 -2.4003585249514110e+01 +3.6019574751268365e+03 -1.2779233820532664e+05 -1.9992568871667802e+07 
-6.6999999999999922e+00 -5.3874010407549200e-01 +7.3611668611207977e+00 -4.5310863665818457e-01 -2.3800468978658394e+01 +3.5774369903045690e+03 -1.2865183232912979e+05 -1.9796676068411957e+07 
-6.7999999999999918e+00 -5.3874043755944834e-01 +7.3611642431793030e+00 -4.5213127471355369e-01 -2.3620185408486140e+01 +3.5473079888155821e+03 -1.2936712222425635e+05 -1.9575391864082985e+07 
-6.8999999999999915e+00 -5.3874077163285083e-01 +7.3611619652761195e+00 -4.5097593840496503e-01 -2.3464385386378396e+01 +3.5121721127421761e+03 -1.2993412385545485e+05 -1.9331678094691858e+07 
-6.9999999999999911e+00 -5.3874110606500170e-01 +7.3611601335268526e+00 -4.4967070480337834e-01 -2.3334719991356408e+01 +3.4726310038062620e+03 -1.3034875173286535e+05 -1.9068496605213527e+07 
-7.0999999999999908e+00 -5.3874144062522844e-01 +7.3611588540420270e+00 -4.4824364902464864e-01 -2.3232840164155203e+01 +3.4292862805595046e+03 -1.3060692106714005e+05 -1.8788809154031184e+07 
-7.1999999999999904e+00 -5.3874177508288723e-01 +7.3611582329384317e+00 -4.4672284392142858e-01 -2.3160397049082324e+01 +3.3827395308781070e+03 -1.3070454577089987e+05 -1.8495577369868003e+07 
-7.2999999999999901e+00 -5.3874210920735588e-01 +7.3611583763315851e+00 -4.4513636056520134e-01 -2.3119041769147355e+01 +3.3335923184243770e+03 -1.3063753975784330e+05 -1.8191762775890868e+07 
-7.3999999999999897e+00 -5.3874244276802208e-01 +7.3611593903382602e+00 -4.4351227004404808e-01 -2.3110425505308363e+01 +3.2824462214351533e+03 -1.3040181647979090e+05 -1.7880326986116875e+07 
-7.4999999999999893e+00 -5.3874277553429950e-01 +7.3611613810769301e+00 -4.4187864153154849e-01 -2.3136199507038700e+01 +3.2299027942362745e+03 -1.2999328886626103e+05 -1.7564231515929818e+07 
-7.5999999999999890e+00 -5.3874310727563701e-01 +7.3611644546682378e+00 -4.4026354128991935e-01 -2.3198015107987189e+01 +3.1765635516991128e+03 -1.2940786922942444e+05 -1.7246437718443990e+07 
-7.6999999999999886e+00 -5.3874343776149558e-01 +7.3611687172370566e+00 -4.3869503494010043e-01 -2.3297523788834706e+01 +3.1230300044033588e+03 -1.2864146888473227e+05 -1.6929906926412556e+07 
-7.7999999999999883e+00 -5.3874376676137314e-01 +7.3611742749011819e+00 -4.3720118533173774e-01 -2.3436376856283420e+01 +3.0699036297885568e+03 -1.2769000000227016e+05 -1.6617600349566370e+07 
-7.8999999999999879e+00 -5.3874409404477219e-01 +7.3611812337900400e+00 -4.3581005585340576e-01 -2.3616225971866818e+01 +3.0177859282066893e+03 -1.2654937256732021e+05 -1.6312479319789881e+07 
-7.9999999999999876e+00 -5.3874441938125628e-01 +7.3611897000275102e+00 -4.3454970399306159e-01 -2.3838722679028244e+01 +2.9672783013258372e+03 -1.2521549697466091e+05 -1.6017504704899095e+07 
-8.0999999999999872e+00 -5.3874474266739547e-01 +7.3611997210995437e+00 -4.3344429867707518e-01 -2.4104189258864956e+01 +2.9189368168163023e+03 -1.2368991154265645e+05 -1.5735423591700779e+07 
-8.1999999999999869e+00 -5.3874506430281321e-01 +7.3612111132660525e+00 -4.3249999161529656e-01 -2.4407644988936610e+01 +2.8730781970302583e+03 -1.2199697770791253e+05 -1.5467889637962870e+07 
-8.2999999999999865e+00 -5.3874538481154632e-01 +7.3612236355926139e+00 -4.3171783881464548e-01 -2.4742782544328378e+01 +2.8299451270037521e+03 -1.2016683667916141e+05 -1.5216223900273694e+07 
-8.3999999999999861e+00 -5.3874570471758543e-01 +7.3612370471392738e+00 -4.3109890011900370e-01 -2.5103294575031551e+01 +2.7897803324629331e+03 -1.1822962947578645e+05 -1.4981747531497892e+07 
-8.4999999999999858e+00 -5.3874602454485687e-01 +7.3612511069646303e+00 -4.3064424186559958e-01 -2.5482873804223086e+01 +2.7528266342460752e+03 -1.1621549646641193e+05 -1.4765782044925194e+07 
-8.5999999999999854e+00 -5.3874634481727013e-01 +7.3612655741269508e+00 -4.3035493084646820e-01 -2.5875213089518056e+01 +2.7193268303938230e+03 -1.1415457694523840e+05 -1.4569648744389649e+07 
-8.6999999999999851e+00 -5.3874666605865218e-01 +7.3612802076771331e+00 -4.3023204276270582e-01 -2.6274005210105553e+01 +2.6895238596861409e+03 -1.1207701039059294e+05 -1.4394669509283790e+07 
-8.7999999999999847e+00 -5.3874698879278082e-01 +7.3612947666656412e+00 -4.3027665678814175e-01 -2.6672943070846607e+01 +2.6636606886133427e+03 -1.1001293527600328e+05 -1.4242166232032511e+07 
-8.8999999999999844e+00 -5.3874731354340388e-01 +7.3613090101381973e+00 -4.3048985504243753e-01 -2.7065719587037599e+01 +2.6419803110154767e+03 -1.0799248972351180e+05 -1.4113460837965565e+07 
-8.9999999999999840e+00 -5.3874764083418558e-01 +7.3613226971405048e+00 -4.3087272740922578e-01 -2.7446027818093331e+01 +2.6247258310166840e+03 -1.0604581073363847e+05 -1.4009875661038682e+07 
-9.0999999999999837e+00 -5.3874797118874951e-01 +7.3613355867115020e+00 -4.3142636735783368e-01 -2.7807560788354078e+01 +2.6121403861666431e+03 -1.0420303518448536e+05 -1.3932733081114741e+07 
-9.1999999999999833e+00 -5.3874830513063532e-01 +7.3613474378854686e+00 -4.3215187664017940e-01 -2.8144011545666601e+01 +2.6044672348932991e+03 -1.0249429951062505e+05 -1.3883355936366284e+07 
-9.2999999999999829e+00 -5.3874864318336380e-01 +7.3613580096992051e+00 -4.3305035751290094e-01 -2.8449073366350394e+01 +2.6019496085768878e+03 -1.0094973851420150e+05 -1.3863066817953400e+07 
-9.3999999999999826e+00 -5.3874898587034559e-01 +7.3613670611806947e+00 -4.3412292352377951e-01 -2.8716439440712438e+01 +2.6048309118550196e+03 -9.9599487168734209e+04 -1.3873189010750545e+07 
-9.4999999999999822e+00 -5.3874933371496214e-01 +7.3613743513576715e+00 -4.3537069016947866e-01 -2.8939803121879166e+01 +2.6133545503620421e+03 -9.8473679167166032e+04 -1.3915045686659805e+07 
-9.5999999999999819e+00 -5.3874968724051431e-01 +7.3613796392518660e+00 -4.3679478060240079e-01 -2.9112857763483039e+01 +2.6277640333651298e+03 -9.7602447861427077e+04 -1.3989960377878154e+07 
-9.6999999999999815e+00 -5.3875004697025253e-01 +7.3613826838824412e+00 -4.3839632214826563e-01 -2.9229296825599178e+01 +2.6483029089463685e+03 -9.7015925632193859e+04 -1.4099256670681942e+07 
-9.7999999999999812e+00 -5.3875041342732399e-01 +7.3613832442643643e+00 -4.4017645244310744e-01 -2.9282813824536408e+01 +2.6752148768385591e+03 -9.6744244194148385e+04 -1.4244258732439507e+07 
-9.8999999999999808e+00 -5.3875078713483604e-01 +7.3613810794092975e+00 -4.4213631192826613e-01 -2.9267102372958735e+01 +2.7087436479793018e+03 -9.6817534325987348e+04 -1.4426290648578553e+07 
-9.9999999999999805e+00 -5.3875116861581163e-01 +7.3613759483272947e+00 -4.4427704901939608e-01 -2.9175856233587734e+01 +2.7491330380007212e+03 -9.7265925759014412e+04 -1.4646676871454345e+07 
-1.0099999999999980e+01 -5.3875155829412913e-01 +7.3613677086290030e+00 -4.4659382876613951e-01 -2.9005088859472437e+01 +2.7964195413533007e+03 -9.8108522706746211e+04 -1.4905628236529268e+07 
