# multipoles
# s[mm] polynom_b[n=0][T/m^n] polynom_b[n=1][T/m^n] polynom_b[n=2][T/m^n] polynom_b[n=3][T/m^n] polynom_b[n=4][T/m^n] polynom_b[n=5][T/m^n] polynom_b[n=6][T/m^n] 
+0.0000000000000000e+00 -5.3668617689463383e-01 +7.3522305860149251e+00 -9.2502530741172917e-01 -4.3527832311694098e+01 +6.7476232525113655e+03 -1.0412056235546168e+04 -3.6471165629940078e+07 
+1.0000000000000001e-01 -5.3668634119842995e-01 +7.3522286401492689e+00 -9.2339706848573155e-01 -4.3405833063042458e+01 +6.7501677371096666e+03 -1.1027392662416596e+04 -3.6536519207411222e+07 
+2.0000000000000001e-01 -5.3668651841058235e-01 +7.3522319571065600e+00 -9.2169082520334689e-01 -4.3365984182378355e+01 +6.7550029920668121e+03 -1.1294126205907000e+04 -3.6620797081546642e+07 
+2.9999999999999999e-01 -5.3668670683496345e-01 +7.3522402352279004e+00 -9.1996641098053611e-01 -4.3403809605907334e+01 +6.7625263378009540e+03 -1.1231182348920380e+04 -3.6724252824262463e+07 
+4.0000000000000002e-01 -5.3668690477544023e-01 +7.3522531728482683e+00 -9.1828365612902796e-01 -4.3514833106945531e+01 +6.7731350422121477e+03 -1.0857487461272201e+04 -3.6847139772048488e+07 
+5.0000000000000000e-01 -5.3668711053591978e-01 +7.3522704683060214e+00 -9.1670239312338508e-01 -4.3694578573042783e+01 +6.7872264154774475e+03 -1.0191967191923959e+04 -3.6989711461718991e+07 
+5.9999999999999998e-01 -5.3668732242032391e-01 +7.3522918199414447e+00 -9.1528245071588765e-01 -4.3938569945638186e+01 +6.8051977067780581e+03 -9.2535468823693009e+03 -3.7152221163332649e+07 
+6.9999999999999996e-01 -5.3668753873252451e-01 +7.3523169260973784e+00 -9.1408366076456427e-01 -4.4242331232026679e+01 +6.8274462268348698e+03 -8.0611515199613086e+03 -3.7334922444969319e+07 
+8.0000000000000004e-01 -5.3668775777650202e-01 +7.3523454851145553e+00 -9.1316584926980215e-01 -4.4601386364325933e+01 +6.8543691789477571e+03 -6.6337065779833310e+03 -3.7538068369832039e+07 
+9.0000000000000002e-01 -5.3668797785618150e-01 +7.3523771953414663e+00 -9.1258884577744248e-01 -4.5011259475010867e+01 +6.8863638357955360e+03 -4.9901364620180439e+03 -3.7761912336652912e+07 
+1.0000000000000000e+00 -5.3668819727546835e-01 +7.3524117551294301e+00 -9.1241247962341809e-01 -4.5467474745131859e+01 +6.9238274692664327e+03 -3.1493654157845926e+03 -3.8006707747111782e+07 
+1.1000000000000001e+00 -5.3668841433836223e-01 +7.3524488628366242e+00 -9.1269657511395463e-01 -4.5965556513613663e+01 +6.9671572568624460e+03 -1.1303169218709102e+03 -3.8272707554914542e+07 
+1.2000000000000000e+00 -5.3668862734880562e-01 +7.3524882168255772e+00 -9.1350096042485462e-01 -4.6501029194215782e+01 +7.0167504506733203e+03 +1.0480857858047109e+03 -3.8560165071901165e+07 
+1.3000000000000000e+00 -5.3668883461071504e-01 +7.3525295154660917e+00 -9.1488546364654055e-01 -4.7069417354805132e+01 +7.0730043020983776e+03 +3.3669201490894779e+03 -3.8869333608890347e+07 
+1.3999999999999999e+00 -5.3668903442810423e-01 +7.3525724571357216e+00 -9.1690991061871074e-01 -4.7666245709565928e+01 +7.1363160183963955e+03 +5.8072641842876546e+03 -3.9200466261474758e+07 
+1.5000000000000000e+00 -5.3668922510483041e-01 +7.3526167402218867e+00 -9.1963412936400080e-01 -4.8287039196445775e+01 +7.2070828457029638e+03 +8.3501969543170489e+03 -3.9553816305018984e+07 
+1.6000000000000001e+00 -5.3668940494489947e-01 +7.3526620631200554e+00 -9.2311794637930744e-01 -4.8927322892082763e+01 +7.2857020045682120e+03 +1.0976797987230946e+04 -3.9929636902570762e+07 
+1.7000000000000000e+00 -5.3668957225222502e-01 +7.3527081242358845e+00 -9.2742119164410186e-01 -4.9582622082403788e+01 +7.3725707728292600e+03 +1.3668147700457328e+04 -4.0328181466360159e+07 
+1.8000000000000000e+00 -5.3668972533075188e-01 +7.3527546219906359e+00 -9.3260369083044214e-01 -5.0248462392279798e+01 +7.4680863464059930e+03 +1.6405328059521835e+04 -4.0749703020880021e+07 
+1.8999999999999999e+00 -5.3668986248435646e-01 +7.3528012548095214e+00 -9.3872527427346897e-01 -5.0920369457055408e+01 +7.5726460068591841e+03 +1.9169420704725115e+04 -4.1194454991602361e+07 
+2.0000000000000000e+00 -5.3668998201696849e-01 +7.3528477211378158e+00 -9.4584577123567593e-01 -5.1593869372988934e+01 +7.6866470096219600e+03 +2.1941509494808161e+04 -4.1662690666059718e+07 
+2.1000000000000001e+00 -5.3669008286167119e-01 +7.3528937324365726e+00 -9.5399804411990075e-01 -5.2264392512939047e+01 +7.8102623840694760e+03 +2.4701682875354429e+04 -4.2154256294659190e+07 
+2.2000000000000002e+00 -5.3669016646750944e-01 +7.3529390593002049e+00 -9.6310738802047491e-01 -5.2927263427537468e+01 +7.9427697111400312e+03 +2.7427772119306188e+04 -4.2667370780409679e+07 
+2.2999999999999998e+00 -5.3669023491239698e-01 +7.3529834888711774e+00 -9.7307228372983690e-01 -5.3577849092148057e+01 +8.0832232176109364e+03 +3.0097473173981158e+04 -4.3199847353487782e+07 
+2.3999999999999999e+00 -5.3669029027420878e-01 +7.3530268082923600e+00 -9.8379121338760911e-01 -5.4211516539486489e+01 +8.2306771556954482e+03 +3.2688482504278902e+04 -4.3749499365884572e+07 
+2.5000000000000000e+00 -5.3669033463075100e-01 +7.3530688046959893e+00 -9.9516266334777104e-01 -5.4823632534851328e+01 +8.3841858471294872e+03 +3.5178495218517302e+04 -4.4314140469694652e+07 
+2.6000000000000001e+00 -5.3669037005990217e-01 +7.3531092652131198e+00 -1.0070851167394606e+00 -5.5409563870813685e+01 +8.5428035474790013e+03 +3.7545206842139654e+04 -4.4891583990625165e+07 
+2.7000000000000002e+00 -5.3669039863945922e-01 +7.3531479769565360e+00 -1.0194570627898834e+00 -5.5964676874595732e+01 +8.7055846198433046e+03 +3.9766310487319613e+04 -4.5479643741951533e+07 
+2.7999999999999998e+00 -5.3669042244718468e-01 +7.3531847270395980e+00 -1.0321769909229563e+00 -5.6484337981153850e+01 +8.8715834251965734e+03 +4.1819500255387276e+04 -4.6076133511578470e+07 
+2.8999999999999999e+00 -5.3669044356087525e-01 +7.3532193025555861e+00 -1.0451433917517885e+00 -5.6963913119248836e+01 +9.0398543362498785e+03 +4.3682467654825101e+04 -4.6678867112893984e+07 
+3.0000000000000000e+00 -5.3669046405826115e-01 +7.3532514905901660e+00 -1.0582547599089915e+00 -5.7398768109078404e+01 +9.2094517945976386e+03 +4.5332904014060543e+04 -4.7285658667478174e+07 
+3.1000000000000001e+00 -5.3669048601702884e-01 +7.3532810782130902e+00 -1.0714095909606471e+00 -5.7784268410130558e+01 +9.3794302483919819e+03 +4.6748499005158934e+04 -4.7894322296761557e+07 
+3.2000000000000002e+00 -5.3669051151487313e-01 +7.3533078524803761e+00 -1.0845063850759828e+00 -5.8115779214154088e+01 +9.5488442244387916e+03 +4.7906941278531136e+04 -4.8502672472825363e+07 
+3.2999999999999998e+00 -5.3669054262946791e-01 +7.3533316004321438e+00 -1.0974436405072034e+00 -5.8388665382984065e+01 +9.7167482028481954e+03 +4.8785918111007486e+04 -4.9108523417777769e+07 
+3.3999999999999999e+00 -5.3669058143838344e-01 +7.3533521090887826e+00 -1.1101198637957201e+00 -5.8598291344152720e+01 +9.8821968095678440e+03 +4.9363114835839246e+04 -4.9709690015479684e+07 
+3.5000000000000000e+00 -5.3669063001923334e-01 +7.3533691654518538e+00 -1.1224335615258825e+00 -5.8740021133047335e+01 +1.0044244658529569e+04 +4.9616215148884745e+04 -5.0303987056788936e+07 
+3.6000000000000001e+00 -5.3669069044958173e-01 +7.3533825565046520e+00 -1.1342832417151443e+00 -5.8809218426564776e+01 +1.0201946381282127e+04 +4.9522901354711947e+04 -5.0889229391725093e+07 
+3.7000000000000002e+00 -5.3669076480690492e-01 +7.3533920692071186e+00 -1.1455674186032068e+00 -5.8801246390899905e+01 +1.0354356712583134e+04 +4.9060853492052767e+04 -5.1463232319434881e+07 
+3.7999999999999998e+00 -5.3669085516869908e-01 +7.3533974904998010e+00 -1.1561846091620200e+00 -5.8711467816872307e+01 +1.0500530426323805e+04 +4.8207750181616073e+04 -5.2023811290199414e+07 
+3.8999999999999999e+00 -5.3669096361238422e-01 +7.3533986072934274e+00 -1.1660333317280696e+00 -5.8535244830913257e+01 +1.0639522309068489e+04 +4.6941267008661634e+04 -5.2568781778695732e+07 
+4.0000000000000000e+00 -5.3669109221539835e-01 +7.3533952064792620e+00 -1.1750121106349285e+00 -5.8267939195686182e+01 +1.0770387246372215e+04 +4.5239078271788938e+04 -5.3095959690333605e+07 
+4.0999999999999996e+00 -5.3669124247064270e-01 +7.3533871765499921e+00 -1.1830409260286581e+00 -5.7907017755991170e+01 +1.0892303807728329e+04 +4.3089434175004521e+04 -5.3603078336929142e+07 
+4.2000000000000002e+00 -5.3669141354286531e-01 +7.3533747961589624e+00 -1.1901269468397324e+00 -5.7457752629224160e+01 +1.1004973299784369e+04 +4.0519012287385951e+04 -5.4087680759046808e+07 
+4.2999999999999998e+00 -5.3669160401707416e-01 +7.3533584375012211e+00 -1.1962994668498674e+00 -5.6927214527236309e+01 +1.1108233947264909e+04 +3.7563134679427552e+04 -5.4547292251774132e+07 
+4.4000000000000004e+00 -5.3669181247828790e-01 +7.3533384727711466e+00 -1.2015877765550385e+00 -5.6322474033813180e+01 +1.1201923918758726e+04 +3.4257122225380641e+04 -5.4979437860842459e+07 
+4.5000000000000000e+00 -5.3669203751153438e-01 +7.3533152741705985e+00 -1.2060211662607305e+00 -5.5650601835108787e+01 +1.1285881383896531e+04 +3.0636295899579905e+04 -5.5381642652853467e+07 
+4.5999999999999996e+00 -5.3669227770186245e-01 +7.3532892139109567e+00 -1.2096289220829344e+00 -5.4918668768287326e+01 +1.1359944441724530e+04 +2.6735977024519059e+04 -5.5751431383483976e+07 
+4.7000000000000002e+00 -5.3669253163440900e-01 +7.3532606642064948e+00 -1.2124403271298811e+00 -5.4133745618463145e+01 +1.1423951140719992e+04 +2.2591486041081538e+04 -5.6086328588249378e+07 
+4.7999999999999998e+00 -5.3669279789433499e-01 +7.3532299972804118e+00 -1.2144846597498189e+00 -5.3302903285809244e+01 +1.1477739446516176e+04 +1.8238143446484908e+04 -5.6383858430583745e+07 
+4.9000000000000004e+00 -5.3669307506678898e-01 +7.3531975853637412e+00 -1.2157911982061558e+00 -5.2433212744728145e+01 +1.1521147331758162e+04 +1.3711269516287295e+04 -5.6641545132574797e+07 
+5.0000000000000000e+00 -5.3669336173704629e-01 +7.3531638006974109e+00 -1.2163892133650134e+00 -5.1531745102511621e+01 +1.1554012638402586e+04 +9.0461846296847725e+03 -5.6856912324169762e+07 
+5.0999999999999996e+00 -5.3669365649035250e-01 +7.3531290155339004e+00 -1.2163079754873456e+00 -5.0605571622067096e+01 +1.1576173209227944e+04 +4.2782093163362897e+03 -5.7027483674173750e+07 
+5.2000000000000002e+00 -5.3669395791208874e-01 +7.3530936021329181e+00 -1.2155767460985039e+00 -4.9661763594665352e+01 +1.1587466728356529e+04 -5.5733650006862729e+02 -5.7150782118557699e+07 
+5.2999999999999998e+00 -5.3669426458761271e-01 +7.3530579327682695e+00 -1.2142247886803605e+00 -4.8707392541938681e+01 +1.1587730930440808e+04 -5.4251323399294179e+03 -5.7224330872747429e+07 
+5.4000000000000004e+00 -5.3669457510238749e-01 +7.3530223797229652e+00 -1.2122813558653094e+00 -4.7749530040331159e+01 +1.1576803356567514e+04 -1.0289858286684290e+04 -5.7245652267697386e+07 
+5.5000000000000000e+00 -5.3669488804187293e-01 +7.3529873152955654e+00 -1.2097756999065379e+00 -4.6795247923251551e+01 +1.1554521554180776e+04 -1.5116193783734625e+04 -5.7212268703520231e+07 
+5.5999999999999996e+00 -5.3669520199166887e-01 +7.3529531117935623e+00 -1.2067370642581638e+00 -4.5851618054625966e+01 +1.1520722914382082e+04 -1.9868819053298706e+04 -5.7121701869272441e+07 
+5.7000000000000002e+00 -5.3669551553736305e-01 +7.3529201415445016e+00 -1.2031946900900872e+00 -4.4925712662614025e+01 +1.1475244801319326e+04 -2.4512413147288225e+04 -5.6971473372586556e+07 
+5.7999999999999998e+00 -5.3669582726466658e-01 +7.3528887768831588e+00 -1.1991778126321879e+00 -4.4024603944679249e+01 +1.1417924481540271e+04 -2.9011656309795617e+04 -5.6759104401339881e+07 
+5.9000000000000004e+00 -5.3669613575935371e-01 +7.3528593901655164e+00 -1.1947156587022032e+00 -4.3155364472435643e+01 +1.1348599077145500e+04 -3.3331227650291788e+04 -5.6482115500182346e+07 
+5.9999999999999902e+00 -5.3669643960724145e-01 +7.3528323537629285e+00 -1.1898374526196971e+00 -4.2325067004867812e+01 +1.1267105678194621e+04 -3.7435806353511100e+04 -5.6138027112267859e+07 
+6.0999999999999899e+00 -5.3669673772323201e-01 +7.3528079514694440e+00 -1.1845763032070837e+00 -4.1539329250541286e+01 +1.1173503421287405e+04 -4.1297822908721399e+04 -5.5725748651424050e+07 
+6.1999999999999904e+00 -5.3669703032493699e-01 +7.3527861409644624e+00 -1.1789793262986079e+00 -4.0798701887320959e+01 +1.1068723304921579e+04 -4.4916254804244214e+04 -5.5249645810253628e+07 
+6.2999999999999901e+00 -5.3669731795227793e-01 +7.3527668053607398e+00 -1.1730968096929968e+00 -4.0102657355125324e+01 +1.0953911783989826e+04 -4.8295617943626828e+04 -5.4715433057218984e+07 
+6.3999999999999897e+00 -5.3669760114524079e-01 +7.3527498277755887e+00 -1.1669790425003346e+00 -3.9450668328330416e+01 +1.0830215347797195e+04 -5.1440426582852633e+04 -5.4128825048826613e+07 
+6.4999999999999902e+00 -5.3669788044367428e-01 +7.3527350913411524e+00 -1.1606763129662570e+00 -3.8842207986613367e+01 +1.0698780475523594e+04 -5.4355191790348530e+04 -5.3495536412815854e+07 
+6.5999999999999899e+00 -5.3669815638752638e-01 +7.3527224791849140e+00 -1.1542389126311932e+00 -3.8276749472093044e+01 +1.0560753717805152e+04 -5.7044424530376316e+04 -5.2821282143361688e+07 
+6.6999999999999904e+00 -5.3669842951675473e-01 +7.3527118744484374e+00 -1.1477171272103242e+00 -3.7753766435146247e+01 +1.0417281521456973e+04 -5.9512632487009549e+04 -5.2111776760832921e+07 
+6.7999999999999901e+00 -5.3669870037112211e-01 +7.3527031602794803e+00 -1.1411612520936125e+00 -3.7272732799901533e+01 +1.0269510525913485e+04 -6.1764321432847180e+04 -5.1372735729331844e+07 
+6.8999999999999897e+00 -5.3669896949056328e-01 +7.3526962198262762e+00 -1.1346215766323087e+00 -3.6833122619332677e+01 +1.0118587263996751e+04 -6.3803996011021249e+04 -5.0609874028634399e+07 
+6.9999999999999902e+00 -5.3669923741494729e-01 +7.3526909362538380e+00 -1.1281483938435728e+00 -3.6434410539650912e+01 +9.9656583482841215e+03 -6.5636157053354735e+04 -4.9828907048809282e+07 
+7.0999999999999899e+00 -5.3669950468404770e-01 +7.3526871927262851e+00 -1.1217919968092003e+00 -3.6076071303215329e+01 +9.8118703990415779e+03 -6.7265304425162380e+04 -4.9035550236388169e+07 
+7.1999999999999904e+00 -5.3669977183767570e-01 +7.3526848724171030e+00 -1.1156026792461353e+00 -3.5757580048162026e+01 +9.6583700581207413e+03 -6.8695935274533345e+04 -4.8235519168117642e+07 
+7.2999999999999901e+00 -5.3670003941564881e-01 +7.3526838585107459e+00 -1.1096307360356499e+00 -3.5478412350230037e+01 +9.5063040001504760e+03 -6.9932543789074145e+04 -4.7434529608920813e+07 
+7.3999999999999897e+00 -5.3670030795773582e-01 +7.3526840341972566e+00 -1.1039264630566534e+00 -3.5238044087859464e+01 +9.3568189279207672e+03 -7.0979621930438123e+04 -4.6638297484831452e+07 
+7.4999999999999902e+00 -5.3670057800365656e-01 +7.3526852826737530e+00 -1.0985401573690747e+00 -3.5035951483933921e+01 +9.2110615765102411e+03 -7.1841659178862130e+04 -4.5852538904828802e+07 
+7.5999999999999899e+00 -5.3670085009315671e-01 +7.3526874871476746e+00 -1.0935221174441796e+00 -3.4871611198667061e+01 +9.0701787155918610e+03 -7.2523141998020583e+04 -4.5082970166140400e+07 
+7.6999999999999904e+00 -5.3670112476592902e-01 +7.3526905308334447e+00 -1.0889226404026824e+00 -3.4744500246933903e+01 +8.9353171031242309e+03 -7.3028554274256952e+04 -4.4335307550739586e+07 
+7.7999999999999901e+00 -5.3670140256168475e-01 +7.3526942969550335e+00 -1.0847920287995454e+00 -3.4654096070182156e+01 +8.8076236079455284e+03 -7.3362376893909503e+04 -4.3615267891611151e+07 
+7.8999999999999897e+00 -5.3670168402002061e-01 +7.3526986687419260e+00 -1.0811805843127047e+00 -3.4599876433598141e+01 +8.6882450935568522e+03 -7.3529088302283024e+04 -4.2928568030232131e+07 
+7.9999999999999902e+00 -5.3670196968057482e-01 +7.3527035294412944e+00 -1.0781386082487221e+00 -3.4581319763121897e+01 +8.5783284302216762e+03 -7.3533162448163508e+04 -4.2280924869291499e+07 
+8.0999999999999908e+00 -5.3670226010153343e-01 +7.3527087852101758e+00 -1.0757042055937114e+00 -3.4597745459954233e+01 +8.4788156466698201e+03 -7.3379663065057248e+04 -4.1677184024475202e+07 
+8.1999999999999904e+00 -5.3670255591833338e-01 +7.3527144222347900e+00 -1.0738674210909913e+00 -3.4647724614052315e+01 +8.3898110442303605e+03 -7.3076203305638803e+04 -4.1118628139803268e+07 
+8.2999999999999901e+00 -5.3670285778669502e-01 +7.3527204437018510e+00 -1.0726063999383404e+00 -3.4729605643049993e+01 +8.3112039363150616e+03 -7.2631086683144968e+04 -4.0605626288602643e+07 
+8.3999999999999897e+00 -5.3670316636235549e-01 +7.3527268527965974e+00 -1.0718992833152399e+00 -3.4841737022068777e+01 +8.2428835591149382e+03 -7.2052615701914634e+04 -4.0138547183974691e+07 
+8.4999999999999893e+00 -5.3670348230107046e-01 +7.3527336526864584e+00 -1.0717242174674613e+00 -3.4982466809049065e+01 +8.1847392398058546e+03 -7.1349094754151709e+04 -3.9717759955526643e+07 
+8.5999999999999908e+00 -5.3670380625855507e-01 +7.3527408465298274e+00 -1.0720593480301945e+00 -3.5150142912427178e+01 +8.1366602909374169e+03 -7.0528828513871777e+04 -3.9343633652188115e+07 
+8.6999999999999904e+00 -5.3670413889058322e-01 +7.3527484374728624e+00 -1.0728828213318393e+00 -3.5343112977405873e+01 +8.0985360347803235e+03 -6.9600122652047401e+04 -3.9016537356245965e+07 
+8.7999999999999794e+00 -5.3670448085288924e-01 +7.3527564286467806e+00 -1.0741727866146289e+00 -3.5559724344049862e+01 +8.0702558488026862e+03 -6.8571283972285688e+04 -3.8736840409882776e+07 
+8.8999999999999808e+00 -5.3670483280117331e-01 +7.3527648231698475e+00 -1.0759073946542532e+00 -3.5798324074817735e+01 +8.0517091310582473e+03 -6.7450620319476322e+04 -3.8504912227526441e+07 
+8.9999999999999805e+00 -5.3670519539119044e-01 +7.3527736241465931e+00 -1.0780647977753059e+00 -3.6057258952611470e+01 +8.0427853068918021e+03 -6.6246440532833905e+04 -3.8321122342396364e+07 
+9.0999999999999801e+00 -5.3670556927869439e-01 +7.3527828346676527e+00 -1.0806231463159377e+00 -3.6334875473522523e+01 +8.0433737611350534e+03 -6.4967054481978499e+04 -3.8185840085887909e+07 
+9.1999999999999797e+00 -5.3670595511937458e-01 +7.3527924578083903e+00 -1.0835605965105823e+00 -3.6629519811891861e+01 +8.0533639847884242e+03 -6.3620773251979903e+04 -3.8099435274318412e+07 
+9.2999999999999794e+00 -5.3670635356898366e-01 +7.3528024966294865e+00 -1.0868553046053560e+00 -3.6939537838917438e+01 +8.0726454648750860e+03 -6.2215909018241946e+04 -3.8062277690762296e+07 
+9.3999999999999808e+00 -5.3670676528325922e-01 +7.3528129541748051e+00 -1.0904854270359829e+00 -3.7263275057349688e+01 +8.1011076860574449e+03 -6.0760775433845440e+04 -3.8074737085510798e+07 
+9.4999999999999805e+00 -5.3670719091790531e-01 +7.3528238334724394e+00 -1.0944291257047771e+00 -3.7599076651731401e+01 +8.1386402350302869e+03 -5.9263687264776345e+04 -3.8137183687104829e+07 
+9.5999999999999801e+00 -5.3670763112861675e-01 +7.3528351375368235e+00 -1.0986645584087187e+00 -3.7945287530272786e+01 +8.1851326120432750e+03 -5.7732960201987575e+04 -3.8249987285565212e+07 
+9.6999999999999797e+00 -5.3670808657116720e-01 +7.3528468693606399e+00 -1.1031698910568801e+00 -3.8300252105630236e+01 +8.2404744666502811e+03 -5.6176912080137910e+04 -3.8413518363634482e+07 
+9.7999999999999794e+00 -5.3670855790124139e-01 +7.3528590319234377e+00 -1.1079232859727943e+00 -3.8662314548343360e+01 +8.3045553766596313e+03 -5.4603861383389500e+04 -3.8628147049005762e+07 
+9.8999999999999808e+00 -5.3670904577457212e-01 +7.3528716281856612e+00 -1.1129029107285751e+00 -3.9029818607894384e+01 +8.3772650125251548e+03 -5.3022128297538853e+04 -3.8894243886525951e+07 
+9.9999999999999805e+00 -5.3670955084687033e-01 +7.3528846610894751e+00 -1.1180869335573536e+00 -3.9401107667810827e+01 +8.4584930465643229e+03 -5.1440034165299505e+04 -3.9212179382482760e+07 
+1.0100000000000000e+01 -5.3671007345699573e-01 +7.3528981298709404e+00 -1.1234500509599876e+00 -3.9774769731676244e+01 +8.5479607208940888e+03 -4.9863734031785723e+04 -3.9581270536146581e+07 
