# field on trajectory
# s[mm] rx[mm] ry[mm] rz[mm] bx[T] by[T] bz[T]
0.0000000000000000e+00 +8.1529999999999987e+00 +0.0000000000000000e+00 +0.0000000000000000e+00 -2.9415704065372705e-02 -5.6468376524236474e-01 +5.6465095623313769e-03
1.0000000000000001e-01 +8.1529997169679689e+00 +0.0000000000000000e+00 +9.9999999999465961e-02 -2.9415882327170531e-02 -5.6468347606921498e-01 +5.6465387995625416e-03
2.0000000000000001e-01 +8.1529988678720731e+00 +0.0000000000000000e+00 +1.9999999999572765e-01 -2.9416047979028970e-02 -5.6468319220898133e-01 +5.6465724125281573e-03
3.0000000000000004e-01 +8.1529974527125955e+00 +0.0000000000000000e+00 +2.9999999998558080e-01 -2.9416201949392786e-02 -5.6468291448119023e-01 +5.6466101318486412e-03
4.0000000000000002e-01 +8.1529954714898150e+00 +0.0000000000000000e+00 +3.9999999996582108e-01 -2.9416345166702867e-02 -5.6468264370536425e-01 +5.6466516881446818e-03
5.0000000000000000e-01 +8.1529929242040016e+00 +0.0000000000000000e+00 +4.9999999993324423e-01 -2.9416478559395071e-02 -5.6468238070102461e-01 +5.6466968120369486e-03
5.9999999999999998e-01 +8.1529898108554200e+00 +0.0000000000000000e+00 +5.9999999988464603e-01 -2.9416603055899201e-02 -5.6468212628769088e-01 +5.6467452341458684e-03
6.9999999999999996e-01 +8.1529861314443259e+00 +0.0000000000000000e+00 +6.9999999981682215e-01 -2.9416719584637808e-02 -5.6468188128488206e-01 +5.6467966850913456e-03
7.9999999999999993e-01 +8.1529818859709628e+00 +0.0000000000000000e+00 +7.9999999972656843e-01 -2.9416829074025121e-02 -5.6468164651211772e-01 +5.6468508954924902e-03
8.9999999999999991e-01 +8.1529770744355687e+00 +0.0000000000000000e+00 +8.9999999961068056e-01 -2.9416932452465874e-02 -5.6468142278891809e-01 +5.6469075959673645e-03
9.9999999999999989e-01 +8.1529716968383656e+00 +0.0000000000000000e+00 +9.9999999946595430e-01 -2.9417030648354291e-02 -5.6468121093480717e-01 +5.6469665171327375e-03
1.0999999999999999e+00 +8.1529657531795685e+00 +0.0000000000000000e+00 +1.0999999992891853e+00 -2.9417124590072900e-02 -5.6468101176931029e-01 +5.6470273896037960e-03
1.2000000000000000e+00 +8.1529592434593745e+00 +0.0000000000000000e+00 +1.1999999990771695e+00 -2.9417215205991425e-02 -5.6468082611195791e-01 +5.6470899439939048e-03
1.3000000000000000e+00 +8.1529521676779719e+00 +0.0000000000000000e+00 +1.2999999988267026e+00 -2.9417303424465680e-02 -5.6468065478228480e-01 +5.6471539109143225e-03
1.4000000000000001e+00 +8.1529445258355313e+00 +0.0000000000000000e+00 +1.3999999985345803e+00 -2.9417390173836440e-02 -5.6468049859983149e-01 +5.6472190209739641e-03
1.5000000000000002e+00 +8.1529363179322107e+00 +0.0000000000000000e+00 +1.4999999981975984e+00 -2.9417476382428375e-02 -5.6468035838414576e-01 +5.6472850047791217e-03
1.6000000000000003e+00 +8.1529275439681506e+00 +0.0000000000000000e+00 +1.5999999978125528e+00 -2.9417562978548858e-02 -5.6468023495478203e-01 +5.6473515929332131e-03
1.7000000000000004e+00 +8.1529182039434733e+00 +0.0000000000000000e+00 +1.6999999973762390e+00 -2.9417650890486938e-02 -5.6468012913130383e-01 +5.6474185160365117e-03
1.8000000000000005e+00 +8.1529082978582874e+00 +0.0000000000000000e+00 +1.7999999968854528e+00 -2.9417741046512156e-02 -5.6468004173328323e-01 +5.6474855046858910e-03
1.9000000000000006e+00 +8.1528978257126798e+00 +0.0000000000000000e+00 +1.8999999963369900e+00 -2.9417834374873473e-02 -5.6467997358030386e-01 +5.6475522894745625e-03
2.0000000000000004e+00 +8.1528867875067181e+00 +0.0000000000000000e+00 +1.9999999957276464e+00 -2.9417931803798075e-02 -5.6467992549195845e-01 +5.6476186009918102e-03
2.1000000000000005e+00 +8.1528751832404520e+00 +0.0000000000000000e+00 +2.0999999950542181e+00 -2.9418034042928597e-02 -5.6467989786646755e-01 +5.6476842277736047e-03
2.2000000000000006e+00 +8.1528630129139099e+00 +0.0000000000000000e+00 +2.1999999943135005e+00 -2.9418140927646882e-02 -5.6467988941651381e-01 +5.6477491901570078e-03
2.3000000000000007e+00 +8.1528502765270989e+00 +0.0000000000000000e+00 +2.2999999935022890e+00 -2.9418252074778384e-02 -5.6467989843339428e-01 +5.6478135664311388e-03
2.4000000000000008e+00 +8.1528369740800120e+00 +0.0000000000000000e+00 +2.3999999926173801e+00 -2.9418367101159058e-02 -5.6467992320840443e-01 +5.6478774348871913e-03
2.5000000000000009e+00 +8.1528231055726259e+00 +0.0000000000000000e+00 +2.4999999916555691e+00 -2.9418485623637910e-02 -5.6467996203283655e-01 +5.6479408738188876e-03
2.6000000000000010e+00 +8.1528086710048999e+00 +0.0000000000000000e+00 +2.5999999906136519e+00 -2.9418607259079507e-02 -5.6468001319798033e-01 +5.6480039615229077e-03
2.7000000000000011e+00 +8.1527936703767860e+00 +0.0000000000000000e+00 +2.6999999894884241e+00 -2.9418731624366527e-02 -5.6468007499512063e-01 +5.6480667762993427e-03
2.8000000000000012e+00 +8.1527781036882203e+00 +0.0000000000000000e+00 +2.7999999882766815e+00 -2.9418858336402398e-02 -5.6468014571553737e-01 +5.6481293964521428e-03
2.9000000000000012e+00 +8.1527619709391335e+00 +0.0000000000000000e+00 +2.8999999869752200e+00 -2.9418987012113713e-02 -5.6468022365050541e-01 +5.6481919002895464e-03
3.0000000000000013e+00 +8.1527452721294491e+00 +0.0000000000000000e+00 +2.9999999855808350e+00 -2.9419117268452893e-02 -5.6468030709129247e-01 +5.6482543661245284e-03
3.1000000000000014e+00 +8.1527280072590838e+00 +0.0000000000000000e+00 +3.0999999840903230e+00 -2.9419248722400655e-02 -5.6468039432915940e-01 +5.6483168722752525e-03
3.2000000000000015e+00 +8.1527101763279504e+00 +0.0000000000000000e+00 +3.1999999825004788e+00 -2.9419380990968635e-02 -5.6468048365535894e-01 +5.6483794970655045e-03
3.3000000000000016e+00 +8.1526917793359601e+00 +0.0000000000000000e+00 +3.2999999808080989e+00 -2.9419513691201864e-02 -5.6468057336113509e-01 +5.6484423188251295e-03
3.4000000000000017e+00 +8.1526728162830224e+00 +0.0000000000000000e+00 +3.3999999790099786e+00 -2.9419646440181395e-02 -5.6468066173772236e-01 +5.6485054158904964e-03
3.5000000000000018e+00 +8.1526532871690520e+00 +0.0000000000000000e+00 +3.4999999771029136e+00 -2.9419778855026776e-02 -5.6468074707634464e-01 +5.6485688666049151e-03
3.6000000000000019e+00 +8.1526331919939619e+00 +0.0000000000000000e+00 +3.5999999750836995e+00 -2.9419910552898644e-02 -5.6468082766821537e-01 +5.6486327493190961e-03
3.7000000000000020e+00 +8.1526125307576738e+00 +0.0000000000000000e+00 +3.6999999729491324e+00 -2.9420041151001296e-02 -5.6468090180453490e-01 +5.6486971423915910e-03
3.8000000000000020e+00 +8.1525913034601132e+00 +0.0000000000000000e+00 +3.7999999706960081e+00 -2.9420170266585180e-02 -5.6468096777649213e-01 +5.6487621241892360e-03
3.9000000000000021e+00 +8.1525695101012143e+00 +0.0000000000000000e+00 +3.8999999683211222e+00 -2.9420297516949471e-02 -5.6468102387526253e-01 +5.6488277730875770e-03
4.0000000000000018e+00 +8.1525471506809239e+00 +0.0000000000000000e+00 +3.9999999658212704e+00 -2.9420422519444645e-02 -5.6468106839200627e-01 +5.6488941674713465e-03
4.1000000000000014e+00 +8.1525242251991958e+00 +0.0000000000000000e+00 +4.0999999631932482e+00 -2.9420544944397869e-02 -5.6468110009489558e-01 +5.6489614038073245e-03
4.2000000000000011e+00 +8.1525007336559998e+00 +0.0000000000000000e+00 +4.1999999604338516e+00 -2.9420664673859103e-02 -5.6468111966020162e-01 +5.6490296508584044e-03
4.3000000000000007e+00 +8.1524766760513181e+00 +0.0000000000000000e+00 +4.2999999575398764e+00 -2.9420781642788989e-02 -5.6468112824123828e-01 +5.6490990954596778e-03
4.4000000000000004e+00 +8.1524520523851400e+00 +0.0000000000000000e+00 +4.3999999545081181e+00 -2.9420895786127804e-02 -5.6468112699133832e-01 +5.6491699244447663e-03
4.5000000000000000e+00 +8.1524268626574692e+00 +0.0000000000000000e+00 +4.4999999513353730e+00 -2.9421007038793419e-02 -5.6468111706385493e-01 +5.6492423246455818e-03
4.5999999999999996e+00 +8.1524011068683162e+00 +0.0000000000000000e+00 +4.5999999480184357e+00 -2.9421115335679371e-02 -5.6468109961216206e-01 +5.6493164828920759e-03
4.6999999999999993e+00 +8.1523747850177006e+00 +0.0000000000000000e+00 +4.6999999445541034e+00 -2.9421220611652806e-02 -5.6468107578965765e-01 +5.6493925860119998e-03
4.7999999999999989e+00 +8.1523478971056456e+00 +0.0000000000000000e+00 +4.7999999409391707e+00 -2.9421322801552536e-02 -5.6468104674976338e-01 +5.6494708208306614e-03
4.8999999999999986e+00 +8.1523204431321812e+00 +0.0000000000000000e+00 +4.8999999371704339e+00 -2.9421421840187006e-02 -5.6468101364592682e-01 +5.6495513741706641e-03
4.9999999999999982e+00 +8.1522924230973413e+00 +0.0000000000000000e+00 +4.9999999332446885e+00 -2.9421517662332298e-02 -5.6468097763162117e-01 +5.6496344328516761e-03
5.0999999999999979e+00 +8.1522638370011631e+00 +0.0000000000000000e+00 +5.0999999291587308e+00 -2.9421610202730149e-02 -5.6468093986034851e-01 +5.6497201836901824e-03
5.1999999999999975e+00 +8.1522346848436840e+00 +0.0000000000000000e+00 +5.1999999249093554e+00 -2.9421699396085941e-02 -5.6468090148564021e-01 +5.6498088134992264e-03
5.2999999999999972e+00 +8.1522049666249448e+00 +0.0000000000000000e+00 +5.2999999204933594e+00 -2.9421785177066687e-02 -5.6468086366105696e-01 +5.6499005090881790e-03
5.3999999999999968e+00 +8.1521746823449845e+00 +0.0000000000000000e+00 +5.3999999159075376e+00 -2.9421867480299131e-02 -5.6468082754019322e-01 +5.6499954572624888e-03
5.4999999999999964e+00 +8.1521438320038389e+00 +0.0000000000000000e+00 +5.4999999111486861e+00 -2.9421946240367574e-02 -5.6468079427667439e-01 +5.6500938448234258e-03
5.5999999999999961e+00 +8.1521124156015432e+00 +0.0000000000000000e+00 +5.5999999062136006e+00 -2.9422021391812048e-02 -5.6468076502416154e-01 +5.6501958585678516e-03
5.6999999999999957e+00 +8.1520804331381278e+00 +0.0000000000000000e+00 +5.6999999010990772e+00 -2.9422092869126212e-02 -5.6468074093635090e-01 +5.6503016852879557e-03
5.7999999999999954e+00 +8.1520478846136157e+00 +0.0000000000000000e+00 +5.7999998958019114e+00 -2.9422160606755416e-02 -5.6468072316697582e-01 +5.6504115117710302e-03
5.8999999999999950e+00 +8.1520147700280283e+00 +0.0000000000000000e+00 +5.8999998903188988e+00 -2.9422224539094634e-02 -5.6468071286980659e-01 +5.6505255247992015e-03
5.9999999999999947e+00 +8.1519810893813762e+00 +0.0000000000000000e+00 +5.9999998846468356e+00 -2.9422284600486549e-02 -5.6468071119865459e-01 +5.6506439111492016e-03
6.0999999999999943e+00 +8.1519468426736612e+00 +0.0000000000000000e+00 +6.0999998787825174e+00 -2.9422340855936806e-02 -5.6468071918169571e-01 +5.6507667626389292e-03
6.1999999999999940e+00 +8.1519120299048762e+00 +0.0000000000000000e+00 +6.1999998727227394e+00 -2.9422393893287282e-02 -5.6468073734442958e-01 +5.6508937912672537e-03
6.2999999999999936e+00 +8.1518766510750051e+00 +0.0000000000000000e+00 +6.2999998664642973e+00 -2.9422444431100168e-02 -5.6468076608667839e-01 +5.6510246140756733e-03
6.3999999999999932e+00 +8.1518407061840197e+00 +0.0000000000000000e+00 +6.3999998600039874e+00 -2.9422493187945639e-02 -5.6468080580825719e-01 +5.6511588481022428e-03
6.4999999999999929e+00 +8.1518041952318807e+00 +0.0000000000000000e+00 +6.4999998533386059e+00 -2.9422540882402475e-02 -5.6468085690897440e-01 +5.6512961103814506e-03
6.5999999999999925e+00 +8.1517671182185385e+00 +0.0000000000000000e+00 +6.5999998464649474e+00 -2.9422588233058693e-02 -5.6468091978862922e-01 +5.6514360179440769e-03
6.6999999999999922e+00 +8.1517294751439326e+00 +0.0000000000000000e+00 +6.6999998393798084e+00 -2.9422635958512196e-02 -5.6468099484701362e-01 +5.6515781878170700e-03
6.7999999999999918e+00 +8.1516912660079868e+00 +0.0000000000000000e+00 +6.7999998320799842e+00 -2.9422684777371404e-02 -5.6468108248390880e-01 +5.6517222370234092e-03
6.8999999999999915e+00 +8.1516524908106156e+00 +0.0000000000000000e+00 +6.8999998245622711e+00 -2.9422735408255893e-02 -5.6468118309908655e-01 +5.6518677825819832e-03
6.9999999999999911e+00 +8.1516131495517197e+00 +0.0000000000000000e+00 +6.9999998168234638e+00 -2.9422788569796996e-02 -5.6468129709230785e-01 +5.6520144415074438e-03
7.0999999999999908e+00 +8.1515732422311853e+00 +0.0000000000000000e+00 +7.0999998088603586e+00 -2.9422844980638491e-02 -5.6468142486332207e-01 +5.6521618308100876e-03
7.1999999999999904e+00 +8.1515327688488863e+00 +0.0000000000000000e+00 +7.1999998006697510e+00 -2.9422905359437181e-02 -5.6468156681186554e-01 +5.6523095674957131e-03
7.2999999999999901e+00 +8.1514917294046807e+00 +0.0000000000000000e+00 +7.2999997922484372e+00 -2.9422970424863571e-02 -5.6468172333766253e-01 +5.6524572685655002e-03
7.3999999999999897e+00 +8.1514501238984138e+00 +0.0000000000000000e+00 +7.3999997835932128e+00 -2.9423040895602496e-02 -5.6468189484042319e-01 +5.6526045510158747e-03
7.4999999999999893e+00 +8.1514079523299134e+00 +0.0000000000000000e+00 +7.4999997747008731e+00 -2.9423117490353749e-02 -5.6468208171984346e-01 +5.6527510318383776e-03
7.5999999999999890e+00 +8.1513652146989948e+00 +0.0000000000000000e+00 +7.5999997655682137e+00 -2.9423200927832713e-02 -5.6468228437560408e-01 +5.6528963280195327e-03
7.6999999999999886e+00 +8.1513219110054553e+00 +0.0000000000000000e+00 +7.6999997561920299e+00 -2.9423291926771008e-02 -5.6468250320737035e-01 +5.6530400565407146e-03
7.7999999999999883e+00 +8.1512780412490784e+00 +0.0000000000000000e+00 +7.7999997465691182e+00 -2.9423391205917145e-02 -5.6468273861479035e-01 +5.6531818343780261e-03
7.8999999999999879e+00 +8.1512336054296295e+00 +0.0000000000000000e+00 +7.8999997366962740e+00 -2.9423499484037118e-02 -5.6468299099749508e-01 +5.6533212785021634e-03
7.9999999999999876e+00 +8.1511886035468546e+00 +0.0000000000000000e+00 +7.9999997265702927e+00 -2.9423617479915089e-02 -5.6468326075509867e-01 +5.6534580058782737e-03
8.0999999999999872e+00 +8.1511430356004873e+00 +0.0000000000000000e+00 +8.0999997161879698e+00 -2.9423745610398358e-02 -5.6468354804272669e-01 +5.6535917436492484e-03
8.1999999999999869e+00 +8.1510969015902397e+00 +0.0000000000000000e+00 +8.1999997055461016e+00 -2.9423883084531338e-02 -5.6468385203759552e-01 +5.6537226596934309e-03
8.2999999999999865e+00 +8.1510502015158082e+00 +0.0000000000000000e+00 +8.2999996946414836e+00 -2.9424028809446324e-02 -5.6468417167239193e-01 +5.6538510320797092e-03
8.3999999999999861e+00 +8.1510029353768747e+00 +0.0000000000000000e+00 +8.3999996834709094e+00 -2.9424181692328223e-02 -5.6468450587974217e-01 +5.6539771388835532e-03
8.4999999999999858e+00 +8.1509551031731071e+00 +0.0000000000000000e+00 +8.4999996720311763e+00 -2.9424340640416088e-02 -5.6468485359220943e-01 +5.6541012581872484e-03
8.5999999999999854e+00 +8.1509067049041573e+00 +0.0000000000000000e+00 +8.5999996603190798e+00 -2.9424504561004657e-02 -5.6468521374229175e-01 +5.6542236680801232e-03
8.6999999999999851e+00 +8.1508577405696645e+00 +0.0000000000000000e+00 +8.6999996483314153e+00 -2.9424672361445983e-02 -5.6468558526242074e-01 +5.6543446466588102e-03
8.7999999999999847e+00 +8.1508082101692594e+00 +0.0000000000000000e+00 +8.7999996360649781e+00 -2.9424842949150900e-02 -5.6468596708495855e-01 +5.6544644720274550e-03
8.8999999999999844e+00 +8.1507581137025618e+00 +0.0000000000000000e+00 +8.8999996235165639e+00 -2.9425015231590704e-02 -5.6468635814219748e-01 +5.6545834222979843e-03
8.9999999999999840e+00 +8.1507074511691791e+00 +0.0000000000000000e+00 +8.9999996106829681e+00 -2.9425188116298604e-02 -5.6468675736635709e-01 +5.6547017755903288e-03
9.0999999999999837e+00 +8.1506562225687151e+00 +0.0000000000000000e+00 +9.0999995975609860e+00 -2.9425360510871329e-02 -5.6468716368958216e-01 +5.6548198100326496e-03
9.1999999999999833e+00 +8.1506044279007632e+00 +0.0000000000000000e+00 +9.1999995841474131e+00 -2.9425531322970721e-02 -5.6468757604394193e-01 +5.6549378037616064e-03
9.2999999999999829e+00 +8.1505520671649112e+00 +0.0000000000000000e+00 +9.2999995704390450e+00 -2.9425699460325222e-02 -5.6468799336142628e-01 +5.6550560349225652e-03
9.3999999999999826e+00 +8.1504991403607434e+00 +0.0000000000000000e+00 +9.3999995564326770e+00 -2.9425863830731494e-02 -5.6468841457394614e-01 +5.6551747816698554e-03
9.4999999999999822e+00 +8.1504456474878388e+00 +0.0000000000000000e+00 +9.4999995421251047e+00 -2.9426023342055962e-02 -5.6468883861333008e-01 +5.6552943221670014e-03
9.5999999999999819e+00 +8.1503915885457747e+00 +0.0000000000000000e+00 +9.5999995275131234e+00 -2.9426176902236343e-02 -5.6468926441132261e-01 +5.6554149345869565e-03
9.6999999999999815e+00 +8.1503369635341247e+00 +0.0000000000000000e+00 +9.6999995125935286e+00 -2.9426323419283244e-02 -5.6468969089958276e-01 +5.6555368971123454e-03
9.7999999999999812e+00 +8.1502817724524643e+00 +0.0000000000000000e+00 +9.7999994973631157e+00 -2.9426461801281695e-02 -5.6469011700968164e-01 +5.6556604879356969e-03
9.8999999999999808e+00 +8.1502260153003689e+00 +0.0000000000000000e+00 +9.8999994818186803e+00 -2.9426590956392711e-02 -5.6469054167310129e-01 +5.6557859852596872e-03
9.9999999999999805e+00 +8.1501696920774140e+00 +0.0000000000000000e+00 +9.9999994659570177e+00 -2.9426709792854836e-02 -5.6469096382123207e-01 +5.6559136672973739e-03
1.0099999999999980e+01 +8.1501128027831786e+00 +0.0000000000000000e+00 +1.0099999449774923e+01 -2.9426817559731831e-02 -5.6469138267381580e-01 +5.6560437440739322e-03
1.0199999999999980e+01 +8.1500553474172435e+00 +0.0000000000000000e+00 +1.0199999433269193e+01 -2.9426914869101348e-02 -5.6469179860433538e-01 +5.6561761528215737e-03
1.0299999999999979e+01 +8.1499973259791947e+00 +0.0000000000000000e+00 +1.0299999416436622e+01 -2.9427002673676792e-02 -5.6469221227473787e-01 +5.6563107625676023e-03
1.0399999999999979e+01 +8.1499387384686184e+00 +0.0000000000000000e+00 +1.0399999399274005e+01 -2.9427081926028421e-02 -5.6469262434699075e-01 +5.6564474423335840e-03
1.0499999999999979e+01 +8.1498795848851042e+00 +0.0000000000000000e+00 +1.0499999381778139e+01 -2.9427153578579574e-02 -5.6469303548308303e-01 +5.6565860611351758e-03
1.0599999999999978e+01 +8.1498198652282401e+00 +0.0000000000000000e+00 +1.0599999363945816e+01 -2.9427218583602806e-02 -5.6469344634502727e-01 +5.6567264879819603e-03
1.0699999999999978e+01 +8.1497595794976174e+00 +0.0000000000000000e+00 +1.0699999345773834e+01 -2.9427277893216076e-02 -5.6469385759485802e-01 +5.6568685918772770e-03
1.0799999999999978e+01 +8.1496987276928259e+00 +0.0000000000000000e+00 +1.0799999327258988e+01 -2.9427332459378897e-02 -5.6469426989463523e-01 +5.6570122418180494e-03
1.0899999999999977e+01 +8.1496373098134534e+00 +0.0000000000000000e+00 +1.0899999308398073e+01 -2.9427383233888521e-02 -5.6469468390644373e-01 +5.6571573067946274e-03
1.0999999999999977e+01 +8.1495753258590877e+00 +0.0000000000000000e+00 +1.0999999289187885e+01 -2.9427431168376154e-02 -5.6469510029239556e-01 +5.6573036557906143e-03
1.1099999999999977e+01 +8.1495127758293133e+00 +0.0000000000000000e+00 +1.1099999269625219e+01 -2.9427477214303076e-02 -5.6469551971462872e-01 +5.6574511577827027e-03
1.1199999999999976e+01 +8.1494496597237109e+00 +0.0000000000000000e+00 +1.1199999249706869e+01 -2.9427522322956826e-02 -5.6469594283531033e-01 +5.6575996817404967e-03
1.1299999999999976e+01 +8.1493859775418596e+00 +0.0000000000000000e+00 +1.1299999229429632e+01 -2.9427567445447389e-02 -5.6469637031663644e-01 +5.6577490966263615e-03
1.1399999999999975e+01 +8.1493217292833311e+00 +0.0000000000000000e+00 +1.1399999208790303e+01 -2.9427613532703387e-02 -5.6469680282083323e-01 +5.6578992713952423e-03
1.1499999999999975e+01 +8.1492569149476957e+00 +0.0000000000000000e+00 +1.1499999187785678e+01 -2.9427661535468223e-02 -5.6469724101015784e-01 +5.6580500749945067e-03
1.1599999999999975e+01 +8.1491915345345145e+00 +0.0000000000000000e+00 +1.1599999166412550e+01 -2.9427712404296303e-02 -5.6469768554689970e-01 +5.6582013763637716e-03
1.1699999999999974e+01 +8.1491255880433453e+00 +0.0000000000000000e+00 +1.1699999144667716e+01 -2.9427767089549157e-02 -5.6469813709338090e-01 +5.6583530444347351e-03
1.1799999999999974e+01 +8.1490590754737369e+00 +0.0000000000000000e+00 +1.1799999122547970e+01 -2.9427826541391651e-02 -5.6469859631195718e-01 +5.6585049481310138e-03
