# multipoles
# s[mm] polynom_b[n=0][T/m^n] polynom_b[n=1][T/m^n] polynom_b[n=2][T/m^n] polynom_b[n=3][T/m^n] polynom_b[n=4][T/m^n] polynom_b[n=5][T/m^n] polynom_b[n=6][T/m^n] 
+0.0000000000000000e+00 -5.9229847167363692e-01 +8.1063224791509221e+00 -3.4963375881363712e-03 +6.1585153075765909e+01 -1.2760034408822780e+03 -4.3710577647884411e+05 -5.2840500398132801e+06 
-1.0000000000000001e-01 -5.9229854851960118e-01 +8.1063418548532109e+00 -9.6848067412210470e-03 +6.1126578217444660e+01 -1.1264038776849866e+03 -4.3503633134796779e+05 -5.9826446194119398e+06 
-2.0000000000000001e-01 -5.9229862037176118e-01 +8.1063701753190767e+00 -1.6301388757806460e-02 +6.0464994880042582e+01 -9.7234709315242344e+02 -4.3191694157353282e+05 -6.6986245636415146e+06 
-3.0000000000000004e-01 -5.9229868762627047e-01 +8.1064067493085812e+00 -2.3306600080313149e-02 +5.9615652465065502e+01 -8.1445912476952708e+02 -4.2782225408322777e+05 -7.4292491270207269e+06 
-4.0000000000000002e-01 -5.9229875067931936e-01 +8.1064508855897319e+00 -3.0660953266653457e-02 +5.8593800169167743e+01 -6.5336607607872816e+02 -4.2282691464673082e+05 -8.1717772761081625e+06 
-5.0000000000000000e-01 -5.9229880992712369e-01 +8.1065018929224912e+00 -3.8324958736980864e-02 +5.7414687445652277e+01 -4.8969408364245777e+02 -4.1700557055112271e+05 -8.9234678452300690e+06 
-5.9999999999999998e-01 -5.9229886576591895e-01 +8.1065590800774867e+00 -4.6259124799391496e-02 +5.6093563491188959e+01 -3.2406932006087391e+02 -4.1043286770760280e+05 -9.6815795123828333e+06 
-6.9999999999999996e-01 -5.9229891859197425e-01 +8.1066217558190168e+00 -5.4423955907628614e-02 +5.4645677695535227e+01 -1.5711802745640600e+02 -4.0318345314099710e+05 -1.0443370640363622e+07 
-7.9999999999999993e-01 -5.9229896880156319e-01 +8.1066892289170287e+00 -6.2779956349972937e-02 +5.3086279323523414e+01 +1.0533549901818745e+01 -3.9533197322492994e+05 -1.1206099586102713e+07 
-8.9999999999999991e-01 -5.9229901679096308e-01 +8.1067608081418019e+00 -7.1287630007683497e-02 +5.1430617661029643e+01 +1.7825916088798974e+02 -3.8695307451530319e+05 -1.1967024680850323e+07 
-9.9999999999999989e-01 -5.9229906295646284e-01 +8.1068358022585638e+00 -7.9907478730701448e-02 +4.9693942160259894e+01 +3.4543251079459907e+02 -3.7812140455632471e+05 -1.2723404037370583e+07 
-1.0999999999999999e+00 -5.9229910769435268e-01 +8.1069135200325633e+00 -8.8600004616876504e-02 +4.7891502303556400e+01 +5.1142730805042277e+02 -3.6891161112807522e+05 -1.3472495780414062e+07 
-1.2000000000000000e+00 -5.9229915140090694e-01 +8.1069932702365843e+00 -9.7325710546384239e-02 +4.6038547389053001e+01 +6.7561726924132074e+02 -3.5939834101393144e+05 -1.4211558059733847e+07 
-1.3000000000000000e+00 -5.9229919447239354e-01 +8.1070743616346412e+00 -1.0604510007282796e-01 +4.4150326979134206e+01 +8.3737611605512689e+02 -3.4965624253167823e+05 -1.4937849027639059e+07 
-1.4000000000000001e+00 -5.9229923730508793e-01 +8.1071561029933434e+00 -1.1471867466363858e-01 +4.2242090602504838e+01 +9.9607752146391192e+02 -3.3975996390062867e+05 -1.5648626583049973e+07 
-1.5000000000000002e+00 -5.9229928029519441e-01 +8.1072378030755150e+00 -1.2330694397325316e-01 +4.0329087908778618e+01 +1.1510953040730403e+03 -3.2978415405432077e+05 -1.6341149290838003e+07 
-1.6000000000000003e+00 -5.9229932383893880e-01 +8.1073187706447047e+00 -1.3177041345981852e-01 +3.8426568558508585e+01 +1.3018031874363496e+03 -3.1980346205995622e+05 -1.7012675222832367e+07 
-1.7000000000000004e+00 -5.9229936833250640e-01 +8.1073983144624808e+00 -1.4006959263952834e-01 +3.6549782284055254e+01 +1.4475749611012916e+03 -3.0989253742267162e+05 -1.7660462735500339e+07 
-1.8000000000000005e+00 -5.9229941417204079e-01 +8.1074757432831923e+00 -1.4816499449343684e-01 +3.4713979058092612e+01 +1.5877844602615826e+03 -3.0012603112148127e+05 -1.8281770345564160e+07 
-1.9000000000000006e+00 -5.9229946175362980e-01 +8.1075503658653574e+00 -1.5601713722042129e-01 +3.2934408748261070e+01 +1.7218056031152873e+03 -2.9057859354824747e+05 -1.8873856922344279e+07 
-2.0000000000000004e+00 -5.9229951147335191e-01 +8.1076214909637301e+00 -1.6358653845299320e-01 +3.1226321353690061e+01 +1.8490122761550085e+03 -2.8132487591564580e+05 -1.9433981125637308e+07 
-2.1000000000000005e+00 -5.9229956376586279e-01 +8.1076885509090459e+00 -1.7083974447449404e-01 +2.9602236273237988e+01 +1.9688959305646595e+03 -2.7242688075466204e+05 -1.9959921252496362e+07 
-2.2000000000000006e+00 -5.9229961922357377e-01 +8.1077514748243384e+00 -1.7776862123933690e-01 +2.8063716380500832e+01 +2.0814458481186789e+03 -2.6389591456061340e+05 -2.0451659007174287e+07 
-2.3000000000000007e+00 -5.9229967847908271e-01 +8.1078103166716105e+00 -1.8437168031466614e-01 +2.6609576567344003e+01 +2.1867829089937795e+03 -2.5573058469296028e+05 -2.0909759243066955e+07 
-2.4000000000000008e+00 -5.9229974216498604e-01 +8.1078651304130585e+00 -1.9064743397421152e-01 +2.5238631731279416e+01 +2.2850280092807798e+03 -2.4792949860793634e+05 -2.1334786894551720e+07 
-2.5000000000000009e+00 -5.9229981091384742e-01 +8.1079159700056245e+00 -1.9659439745002036e-01 +2.3949696889121874e+01 +2.3763020951455942e+03 -2.4049126440851673e+05 -2.1727307118566874e+07 
-2.6000000000000010e+00 -5.9229988535823730e-01 +8.1079628894097908e+00 -2.0221108498509108e-01 +2.2741586962181596e+01 +2.4607260938496856e+03 -2.3341448971179288e+05 -2.2087884980944715e+07 
-2.7000000000000011e+00 -5.9229996613071023e-01 +8.1080059425854216e+00 -2.0749601193939315e-01 +2.1613116856905506e+01 +2.5384209503828224e+03 -2.2669778200280183e+05 -2.2417085622922059e+07 
-2.8000000000000012e+00 -5.9230005386377871e-01 +8.1080451834806446e+00 -2.1244769956966916e-01 +2.0563101809612608e+01 +2.6095077273716010e+03 -2.2033975072150698e+05 -2.2715474758850966e+07 
-2.9000000000000012e+00 -5.9230014918995011e-01 +8.1080806660561819e+00 -2.1706466844705857e-01 +1.9590356671257350e+01 +2.6741074678087721e+03 -2.1433900307335542e+05 -2.2983617991867252e+07 
-3.0000000000000013e+00 -5.9230025274174192e-01 +8.1081124442610939e+00 -2.2134543822169131e-01 +1.8693696594067589e+01 +2.7323412038321321e+03 -2.0869414798052661e+05 -2.3222080891324956e+07 
-3.1000000000000014e+00 -5.9230036515163398e-01 +8.1081405720513917e+00 -2.2528853325149517e-01 +1.7871936504328673e+01 +2.7843300584159015e+03 -2.0340379306382258e+05 -2.3431429460135806e+07 
-3.2000000000000015e+00 -5.9230048705208860e-01 +8.1081651033735547e+00 -2.2889247903276294e-01 +1.7123891572049644e+01 +2.8301951746056138e+03 -1.9846654734804388e+05 -2.3612229793451313e+07 
-3.3000000000000016e+00 -5.9230061907556275e-01 +8.1081860921756999e+00 -2.3215580252559742e-01 +1.6448376886215005e+01 +2.8700577302377260e+03 -1.9388101938477403e+05 -2.3765048167182725e+07 
-3.4000000000000017e+00 -5.9230076185448888e-01 +8.1082035924070954e+00 -2.3507703279616554e-01 +1.5844207457699564e+01 +2.9040389451862034e+03 -1.8964581723934808e+05 -2.3890451064872209e+07 
-3.5000000000000018e+00 -5.9230091602130053e-01 +8.1082176580130572e+00 -2.3765469955150223e-01 +1.5310198373878674e+01 +2.9322600575285301e+03 -1.8575954941226734e+05 -2.3989005068219587e+07 
-3.6000000000000019e+00 -5.9230108220840361e-01 +8.1082283429371600e+00 -2.3988733525178796e-01 +1.4845164736512963e+01 +2.9548423607329514e+03 -1.8222082449451892e+05 -2.4061277031688508e+07 
-3.7000000000000020e+00 -5.9230126104819059e-01 +8.1082357011217248e+00 -2.4177347430318857e-01 +1.4447921608585363e+01 +2.9719071927968712e+03 -1.7902825075328106e+05 -2.4107834039804541e+07 
-3.8000000000000020e+00 -5.9230145317302829e-01 +8.1082397865070082e+00 -2.4331165428117196e-01 +1.4117284081766371e+01 +2.9835759563493984e+03 -1.7618043664891229e+05 -2.4129243494460817e+07 
-3.9000000000000021e+00 -5.9230165921529698e-01 +8.1082406530343896e+00 -2.4450041127707881e-01 +1.3852067163552160e+01 +2.9899700360556121e+03 -1.7367599013619477e+05 -2.4126072738825981e+07 
-4.0000000000000018e+00 -5.9230187980733384e-01 +8.1082383546420402e+00 -2.4533828655805709e-01 +1.3651085880326949e+01 +2.9912109183229445e+03 -1.7151351918973241e+05 -2.4098889605701130e+07 
-4.1000000000000014e+00 -5.9230211531597077e-01 +8.1082329748637694e+00 -2.4582516601044183e-01 +1.3512969472310496e+01 +2.9873905610936513e+03 -1.6969073600075755e+05 -2.4048118295796569e+07 
-4.2000000000000011e+00 -5.9230236504989664e-01 +8.1082247073653733e+00 -2.4596653825848552e-01 +1.3435705766104793e+01 +2.9784763049379631e+03 -1.6820190351972447e+05 -2.3973576824890312e+07 
-4.3000000000000007e+00 -5.9230262805427192e-01 +8.1082137712739559e+00 -2.4576933147970870e-01 +1.3417148949735054e+01 +2.9644024842783397e+03 -1.6704045794760305e+05 -2.3874923296738196e+07 
-4.4000000000000004e+00 -5.9230290337425617e-01 +8.1082003857168790e+00 -2.4524047471114924e-01 +1.3455153252640025e+01 +2.9451034504887202e+03 -1.6619983577325978e+05 -2.3751815885751180e+07 
-4.5000000000000000e+00 -5.9230319005500853e-01 +8.1081847698185694e+00 -2.4438689973959363e-01 +1.3547573053965188e+01 +2.9205136191412353e+03 -1.6567347445666871e+05 -2.3603913089879710e+07 
-4.5999999999999996e+00 -5.9230348714172720e-01 +8.1081671427049606e+00 -2.4321553459019499e-01 +1.3692262751471596e+01 +2.8905673350823859e+03 -1.6545481164547210e+05 -2.3430873057393894e+07 
-4.6999999999999993e+00 -5.9230379367960806e-01 +8.1081477235014319e+00 -2.4173331018655009e-01 +1.3887076840005150e+01 +2.8551990099907653e+03 -1.6553728568830661e+05 -2.3232354271194719e+07 
-4.7999999999999989e+00 -5.9230410871385697e-01 +8.1081267313349699e+00 -2.3994715774689679e-01 +1.4129869831169040e+01 +2.8143430643867191e+03 -1.6591433510702066e+05 -2.3008015248662643e+07 
-4.8999999999999986e+00 -5.9230443128970744e-01 +8.1081043853282235e+00 -2.3786400757728646e-01 +1.4418496447008359e+01 +2.7679339112971797e+03 -1.6657939976636379e+05 -2.2757514480963763e+07 
-4.9999999999999982e+00 -5.9230476045239910e-01 +8.1080809046084585e+00 -2.3549079103232270e-01 +1.4750811363070657e+01 +2.7159059889785758e+03 -1.6752591939931313e+05 -2.2480510576738123e+07 
-5.0999999999999979e+00 -5.9230509524719832e-01 +8.1080565083018676e+00 -2.3283443895390904e-01 +1.5124669360848790e+01 +2.6581937357939532e+03 -1.6874733443164258e+05 -2.2176662152317457e+07 
-5.1999999999999975e+00 -5.9230543471939778e-01 +8.1080314155316326e+00 -2.2990188138196666e-01 +1.5537925410892708e+01 +2.5947315843707279e+03 -1.7023708654779129e+05 -2.1845627803946238e+07 
-5.2999999999999972e+00 -5.9230577791428551e-01 +8.1080058454261152e+00 -2.2670005147832684e-01 +1.5988434425134496e+01 +2.5254540336203431e+03 -1.7198861721256323e+05 -2.1487066441144194e+07 
-5.3999999999999968e+00 -5.9230612387719928e-01 +8.1079800171106147e+00 -2.2323587866232911e-01 +1.6474051503072985e+01 +2.4502955215813104e+03 -1.7399536911283838e+05 -2.1100636693031244e+07 
-5.4999999999999964e+00 -5.9230647165350325e-01 +8.1079541497126382e+00 -2.1951629242226381e-01 +1.6992631782331820e+01 +2.3691904977869744e+03 -1.7625078529136194e+05 -2.0685997246892266e+07 
-5.5999999999999961e+00 -5.9230682028855497e-01 +8.1079284623565044e+00 -2.1554822555611647e-01 +1.7542030603858272e+01 +2.2820734838641870e+03 -1.7874831012553707e+05 -2.0242807137906980e+07 
-5.6999999999999957e+00 -5.9230716882776235e-01 +8.1079031741702003e+00 -2.1133860778606164e-01 +1.8120103306718196e+01 +2.1888789536247864e+03 -1.8148138810953309e+05 -1.9770725178994332e+07 
-5.7999999999999954e+00 -5.9230751631656520e-01 +8.1078785042828283e+00 -2.0689436817872961e-01 +1.8724705321437106e+01 +2.0895413798846466e+03 -1.8444346445045591e+05 -1.9269410185406473e+07 
-5.8999999999999950e+00 -5.9230786180043493e-01 +8.1078546718218760e+00 -2.0222243509836671e-01 +1.9353692233860695e+01 +1.9839952346503139e+03 -1.8762798538018679e+05 -1.8738520978676241e+07 
-5.9999999999999947e+00 -5.9230820432483988e-01 +8.1078318959167941e+00 -1.9732974048057311e-01 +2.0004919694868864e+01 +1.8721750649670626e+03 -1.9102839766938967e+05 -1.8177716731081329e+07 
-6.0999999999999943e+00 -5.9230854319138371e-01 +8.1078103575961578e+00 -1.9222594005478902e-01 +2.0676162342666633e+01 +1.7541642205117346e+03 -1.9463618763471948e+05 -1.7587426607355315e+07 
-6.1999999999999940e+00 -5.9230887873071758e-01 +8.1077901042748497e+00 -1.8692947287524594e-01 +2.1364463582601950e+01 +1.6306332676959692e+03 -1.9843348678836704e+05 -1.6971180943581376e+07 
-6.2999999999999936e+00 -5.9230921153189209e-01 +8.1077711546909494e+00 -1.8146049676791737e-01 +2.2066575988614993e+01 +1.5023987373561445e+03 -2.0239967720500100e+05 -1.6333295232782025e+07 
-6.3999999999999932e+00 -5.9230954218398835e-01 +8.1077535275771115e+00 -1.7583916442698599e-01 +2.2779252074804813e+01 +1.3702770619735040e+03 -2.0651414010454933e+05 -1.5678084495691473e+07 
-6.4999999999999929e+00 -5.9230987127607437e-01 +8.1077372416689020e+00 -1.7008562923622852e-01 +2.3499244074619391e+01 +1.2350846909206705e+03 -2.1075625457932396e+05 -1.5009863851569809e+07 
-6.5999999999999925e+00 -5.9231019939725538e-01 +8.1077223156988509e+00 -1.6422003911025257e-01 +2.4223304100773046e+01 +1.0976379724947751e+03 -2.1510539847031148e+05 -1.4332947952474084e+07 
-6.6999999999999922e+00 -5.9231052713663412e-01 +8.1077087683958293e+00 -1.5826254130145703e-01 +2.4948184144483580e+01 +9.5875324525528117e+02 -2.1954094833552887e+05 -1.3651651417706272e+07 
-6.7999999999999918e+00 -5.9231085508337000e-01 +8.1076966184877985e+00 -1.5223327450930491e-01 +2.5670635992835454e+01 +8.1924668602179543e+02 -2.2404227894212553e+05 -1.2970288108218612e+07 
-6.8999999999999915e+00 -5.9231118382659398e-01 +8.1076858847055107e+00 -1.4615238029994282e-01 +2.6387411114173045e+01 +6.7993453125333940e+02 -2.2858876260047173e+05 -1.2293172189642359e+07 
-6.9999999999999911e+00 -5.9231151395549442e-01 +8.1076765857695481e+00 -1.4003999150365190e-01 +2.7095261030656133e+01 +5.4163285220124385e+02 -2.3315977131616644e+05 -1.1624617053382179e+07 
-7.0999999999999908e+00 -5.9231184605925102e-01 +8.1076687404049075e+00 -1.3391624082228623e-01 +2.7790936864171748e+01 +4.0515772063367223e+02 -2.3773467406373561e+05 -1.0968936109583758e+07 
-7.1999999999999904e+00 -5.9231218072708314e-01 +8.1076623673348465e+00 -1.2780125442127269e-01 +2.8471189535631829e+01 +2.7132508575547547e+02 -2.4229283800998720e+05 -1.0330442200550739e+07 
-7.2999999999999901e+00 -5.9231251854821698e-01 +8.1076574852791516e+00 -1.2171515645853900e-01 +2.9132769784951019e+01 +1.4095086210813756e+02 -2.4681362854945101e+05 -9.7134480219242480e+06 
-7.3999999999999897e+00 -5.9231286011190998e-01 +8.1076541129556219e+00 -1.1567806535759333e-01 +2.9772428129422380e+01 +1.4850856574030885e+01 -2.5127640906340478e+05 -9.1222657732285727e+06 
-7.4999999999999893e+00 -5.9231320600745274e-01 +8.1076522690782742e+00 -1.0971009409170879e-01 +3.0386914896418112e+01 -1.0615922386769522e+02 -2.5566054106643266e+05 -8.5612071987470500e+06 
-7.5999999999999890e+00 -5.9231355682413522e-01 +8.1076519723639269e+00 -1.0383135374364644e-01 +3.0972980044604142e+01 -2.2126370769483071e+02 -2.5994538319549256e+05 -8.0345838877642630e+06 
-7.6999999999999886e+00 -5.9231391315126580e-01 +8.1076532415256004e+00 -9.8061951685839380e-02 +3.1527373322245719e+01 -3.2964698933625186e+02 -2.6411029205152852e+05 -7.5467071409192299e+06 
-7.7999999999999883e+00 -5.9231427557820482e-01 +8.1076560952719028e+00 -9.2421986871732961e-02 +3.2046844282082496e+01 -4.3049362132685013e+02 -2.6813462226591521e+05 -7.1018875247362871e+06 
-7.8999999999999879e+00 -5.9231464469431938e-01 +8.1076605523113283e+00 -8.6931555167124294e-02 +3.2528142173822133e+01 -5.2298821624853144e+02 -2.7199772594120214e+05 -6.7044353293668730e+06 
-7.9999999999999876e+00 -5.9231502108900658e-01 +8.1076666313518864e+00 -8.1610747622962290e-02 +3.2968015890452122e+01 -6.0631547089179594e+02 -2.7567895223416178e+05 -6.3586604845053768e+06 
-8.0999999999999872e+00 -5.9231540510644187e-01 +8.1076743367543287e+00 -7.6482088635878590e-02 +3.3363756854699950e+01 -6.7980770477145415e+02 -2.7916024623622024e+05 -6.0678824557844829e+06 
-8.1999999999999869e+00 -5.9231579610245966e-01 +8.1076835878142912e+00 -7.1577931377752299e-02 +3.3715832083516190e+01 -7.4340259113414652e+02 -2.8243879602873605e+05 -5.8313908467159439e+06 
-8.2999999999999865e+00 -5.9231619318397111e-01 +8.1076942755326815e+00 -6.6933008838545041e-02 +3.4025758830871837e+01 -7.9719641403229059e+02 -2.8551682295226003e+05 -5.6474336702952180e+06 
-8.3999999999999861e+00 -5.9231659545783433e-01 +8.1077062909308513e+00 -6.2582058692282880e-02 +3.4295054069994762e+01 -8.4128538525422607e+02 -2.8839654743162630e+05 -5.5142592822939809e+06 
-8.4999999999999858e+00 -5.9231700203095938e-01 +8.1077195250486955e+00 -5.8559810746630969e-02 +3.4525234553464571e+01 -8.7576587571261871e+02 -2.9108018953772594e+05 -5.4301152819962362e+06 
-8.5999999999999854e+00 -5.9231741201016985e-01 +8.1077338689507847e+00 -5.4901003231570662e-02 +3.4717816656480515e+01 -9.0073411405962497e+02 -2.9356996817027556e+05 -5.3932499253161578e+06 
-8.6999999999999851e+00 -5.9231782450232529e-01 +8.1077492137189715e+00 -5.1640368854414045e-02 +3.4874316571780028e+01 -9.1628644234615444e+02 -2.9586810210998927e+05 -5.4019109322989210e+06 
-8.7999999999999847e+00 -5.9231823861424882e-01 +8.1077654504593539e+00 -4.8812642362444050e-02 +3.4996250167155893e+01 -9.2251918105751759e+02 -2.9797680937575753e+05 -5.4543461100510079e+06 
-8.8999999999999844e+00 -5.9231865345278356e-01 +8.1077824702980728e+00 -4.6452554315690217e-02 +3.5085133064805994e+01 -9.1952874334410944e+02 -2.9989830756057426e+05 -5.5488028185574571e+06 
-8.9999999999999840e+00 -5.9231906812468649e-01 +8.1078001643897135e+00 -4.4594844081256524e-02 +3.5142480448382869e+01 -9.0741138985854241e+02 -3.0163481285752106e+05 -5.6835291340773720e+06 
-9.0999999999999837e+00 -5.9231948173674898e-01 +8.1078184239067017e+00 -4.3274244777500047e-02 +3.5169807366122711e+01 -8.8626351403582362e+02 -3.0318854180736025e+05 -5.8567724944995111e+06 
-9.1999999999999833e+00 -5.9231989339574354e-01 +8.1078371400519593e+00 -4.2525489573388385e-02 +3.5168628371178983e+01 -8.5618152632197302e+02 -3.0456170923322870e+05 -6.0667802406425299e+06 
-9.2999999999999829e+00 -5.9232030220841603e-01 +8.1078562040470779e+00 -4.2383313341843004e-02 +3.5140457887576495e+01 -8.1726181634007821e+02 -3.0575653043627128e+05 -6.3117998143428499e+06 
-9.3999999999999826e+00 -5.9232070728148623e-01 +8.1078755071459643e+00 -4.2882451331208146e-02 +3.5086809817573950e+01 -7.6960078911114442e+02 -3.0677521891168662e+05 -6.5900785570893446e+06 
-9.4999999999999822e+00 -5.9232110772165625e-01 +8.1078949406241705e+00 -4.4057639080164142e-02 +3.5009197850890139e+01 -7.1329485755406802e+02 -3.0761998815875035e+05 -6.8998637719922643e+06 
-9.5999999999999819e+00 -5.9232150263561922e-01 +8.1079143957838848e+00 -4.5943611233111060e-02 +3.4909135368217463e+01 -6.4844046760492347e+02 -3.0829305125942070e+05 -7.2394025970065938e+06 
-9.6999999999999815e+00 -5.9232189113003830e-01 +8.1079337639598688e+00 -4.8575103369111104e-02 +3.4788135234980395e+01 -5.7513406910566675e+02 -3.0879661957311258e+05 -7.6069421289779665e+06 
-9.7999999999999812e+00 -5.9232227231156698e-01 +8.1079529365120173e+00 -5.1986850344821145e-02 +3.4647710058572443e+01 -4.9347213893731049e+02 -3.0913290435937146e+05 -8.0007293387591625e+06 
-9.8999999999999808e+00 -5.9232264528681688e-01 +8.1079718048242615e+00 -5.6213589222034253e-02 +3.4489372220282164e+01 -4.0355113682077774e+02 -3.0930411695839732e+05 -8.4190112487352863e+06 
-9.9999999999999805e+00 -5.9232300916239200e-01 +8.1079902603175338e+00 -6.1290056444125843e-02 +3.4314633570294362e+01 -3.0546753750417872e+02 -3.0931246709460660e+05 -8.8600348355663065e+06 
-1.0099999999999980e+01 -5.9232336339712499e-01 +8.1080082018351831e+00 -6.7230672130231359e-02 +3.4125247973302720e+01 -1.9947291926227669e+02 -3.0916286094475439e+05 -9.3218068344468474e+06 
