# multipoles
# s[mm] polynom_b[n=0][T/m^n] polynom_b[n=1][T/m^n] polynom_b[n=2][T/m^n] polynom_b[n=3][T/m^n] polynom_b[n=4][T/m^n] polynom_b[n=5][T/m^n] polynom_b[n=6][T/m^n] 
+0.0000000000000000e+00 -5.9308572867177267e-01 +8.1218149989482900e+00 -1.6566119078063359e+00 +3.9707551607381461e+01 +1.9383192162661726e+04 -4.1044159416632837e+05 -8.0893475343194202e+07 
+1.0000000000000001e-01 -5.9308560476406824e-01 +8.1217966701313422e+00 -1.6646025698562774e+00 +4.0479241917614566e+01 +1.9539326891717428e+04 -4.1567903283071908e+05 -8.1610142237437949e+07 
+2.0000000000000001e-01 -5.9308548376824233e-01 +8.1217792251772405e+00 -1.6725804073631922e+00 +4.1282460652213707e+01 +1.9691276405479581e+04 -4.2116787524124118e+05 -8.2299069818572059e+07 
+2.9999999999999999e-01 -5.9308536571861092e-01 +8.1217626588551557e+00 -1.6805191129039831e+00 +4.2110051251495243e+01 +1.9838739284936695e+04 -4.2685737632336759e+05 -8.2959423870744392e+07 
+4.0000000000000002e-01 -5.9308525064943385e-01 +8.1217469659335073e+00 -1.6883923811192783e+00 +4.2954857207644338e+01 +1.9981414147450094e+04 -4.3269679141536745e+05 -8.3590370336426184e+07 
+5.0000000000000000e-01 -5.9308513859506973e-01 +8.1217321411825640e+00 -1.6961739028989540e+00 +4.3809721984381774e+01 +2.0118999548445379e+04 -4.3863537577332975e+05 -8.4191074888681933e+07 
+5.9999999999999998e-01 -5.9308502958981046e-01 +8.1217181793749269e+00 -1.7038373736109265e+00 +4.4667489019018547e+01 +2.0251194123369733e+04 -4.4462238462071156e+05 -8.4760703565158293e+07 
+6.9999999999999996e-01 -5.9308492366795151e-01 +8.1217050752826374e+00 -1.7113564844958611e+00 +4.5521001777591522e+01 +2.0377696432797242e+04 -4.5060707338444662e+05 -8.5298422061940536e+07 
+8.0000000000000004e-01 -5.9308482086383230e-01 +8.1216928236748220e+00 -1.7187049284960696e+00 +4.6363103854504089e+01 +2.0498205067759478e+04 -4.5653869835583435e+05 -8.5803396217496976e+07 
+9.0000000000000002e-01 -5.9308472121177824e-01 +8.1216814193225950e+00 -1.7258563967382359e+00 +4.7186638786455518e+01 +2.0612418589329071e+04 -4.6236651547224674e+05 -8.6274791749161839e+07 
+1.0000000000000000e+00 -5.9308462474609258e-01 +8.1216708569988842e+00 -1.7327845787336675e+00 +4.7984450101881038e+01 +2.0720035526365045e+04 -4.6803978073531232e+05 -8.6711774225299954e+07 
+1.1000000000000001e+00 -5.9308453150114271e-01 +8.1216611314705798e+00 -1.7394631627041361e+00 +4.8749381516159012e+01 +2.0820754383851508e+04 -4.7350775123676611e+05 -8.7113509115072206e+07 
+1.2000000000000000e+00 -5.9308444151126127e-01 +8.1216522375073890e+00 -1.7458658368738236e+00 +4.9474276673706051e+01 +2.0914273667945108e+04 -4.7871968364984309e+05 -8.7479161910512507e+07 
+1.3000000000000000e+00 -5.9308435481079513e-01 +8.1216441698754114e+00 -1.7519662829031262e+00 +5.0151979345785172e+01 +2.1000291758362600e+04 -4.8362483541604859e+05 -8.7807897513233602e+07 
+1.3999999999999999e+00 -5.9308427143415487e-01 +8.1216369233390555e+00 -1.7577381841118036e+00 +5.0775333364563210e+01 +2.1078507066659506e+04 -4.8817246430785995e+05 -8.8098880998643681e+07 
+1.5000000000000000e+00 -5.9308419141563562e-01 +8.1216304926635523e+00 -1.7631552191029243e+00 +5.1337182554973175e+01 +2.1148617917725900e+04 -4.9231182805861777e+05 -8.8351277058066800e+07 
+1.6000000000000001e+00 -5.9308411478968837e-01 +8.1216248726077662e+00 -1.7681910631204798e+00 +5.1830370931648019e+01 +2.1210322567139661e+04 -4.9599218545394304e+05 -8.8564250062522978e+07 
+1.7000000000000000e+00 -5.9308404159071648e-01 +8.1216200579296576e+00 -1.7728193886421131e+00 +5.2247742542244943e+01 +2.1263319219217003e+04 -4.9916279542638990e+05 -8.8736964168559983e+07 
+1.8000000000000000e+00 -5.9308397185312745e-01 +8.1216160433853819e+00 -1.7770138657434102e+00 +5.2582141500015339e+01 +2.1307306034096549e+04 -5.0177291725311981e+05 -8.8868583357048452e+07 
+1.8999999999999999e+00 -5.9308390561134727e-01 +8.1216128237262541e+00 -1.7807481565915644e+00 +5.2826412053080041e+01 +2.1341981019086888e+04 -5.0377181090272189e+05 -8.8958270903580844e+07 
+2.0000000000000000e+00 -5.9308384289982286e-01 +8.1216103937017063e+00 -1.7839959249563913e+00 +5.2973398510594194e+01 +2.1367042207200873e+04 -5.0510873662364017e+05 -8.9005190229401469e+07 
+2.1000000000000001e+00 -5.9308378382203730e-01 +8.1216087620597364e+00 -1.7867381553710295e+00 +5.3017638781189099e+01 +2.1382335229553006e+04 -5.0574543536177737e+05 -8.9009170285603911e+07 
+2.2000000000000002e+00 -5.9308372875062321e-01 +8.1216079968648280e+00 -1.7889863110097093e+00 +5.2960402278879151e+01 +2.1388293268303463e+04 -5.0569343319590064e+05 -8.8972631772379473e+07 
+2.2999999999999998e+00 -5.9308367812394924e-01 +8.1216081818038948e+00 -1.7907597584220467e+00 +5.2804632972001002e+01 +2.1385495393466266e+04 -5.0497668226364779e+05 -8.8898624371344179e+07 
+2.3999999999999999e+00 -5.9308363238034845e-01 +8.1216094005639174e+00 -1.7920778647900619e+00 +5.2553274818554833e+01 +2.1374520687279961e+04 -5.0361913459225046e+05 -8.8790197826465786e+07 
+2.5000000000000000e+00 -5.9308359195814997e-01 +8.1216117368276173e+00 -1.7929599943933345e+00 +5.2209271866479028e+01 +2.1355948177062834e+04 -5.0164474260224507e+05 -8.8650401620408952e+07 
+2.6000000000000001e+00 -5.9308355729572637e-01 +8.1216152742738004e+00 -1.7934255139867763e+00 +5.1775568254532217e+01 +2.1330356939960373e+04 -4.9907745915361249e+05 -8.8482285479423419e+07 
+2.7000000000000002e+00 -5.9308352883147497e-01 +8.1216200965804166e+00 -1.7934937835992681e+00 +5.1255108121086501e+01 +2.1298325923742061e+04 -4.9594123700334679e+05 -8.8288898507056355e+07 
+2.7999999999999998e+00 -5.9308350700373413e-01 +8.1216262874270146e+00 -1.7931841680557061e+00 +5.0650835524438776e+01 +2.1260434171663161e+04 -4.9226002832763293e+05 -8.8073290268188864e+07 
+2.8999999999999999e+00 -5.9308349225094448e-01 +8.1216339304798986e+00 -1.7925160275538841e+00 +4.9965694867822307e+01 +2.1217260641534122e+04 -4.8805778716838692e+05 -8.7838509921145782e+07 
+3.0000000000000000e+00 -5.9308348501150709e-01 +8.1216431094084918e+00 -1.7915087241583711e+00 +4.9202630427196297e+01 +2.1169384324747742e+04 -4.8335846670237411e+05 -8.7587606770145327e+07 
+3.1000000000000001e+00 -5.9308348572380809e-01 +8.1216539078824681e+00 -1.7901816191624977e+00 +4.8364586427140807e+01 +2.1117384202030142e+04 -4.7818601966952148e+05 -8.7323630071121097e+07 
+3.2000000000000002e+00 -5.9308349482632572e-01 +8.1216664095593849e+00 -1.7885540712578156e+00 +4.7454507396521890e+01 +2.1061839207434936e+04 -4.7256440041923593e+05 -8.7049628852002859e+07 
+3.2999999999999998e+00 -5.9308351275749638e-01 +8.1216806981014322e+00 -1.7866454417082094e+00 +4.6475337687630955e+01 +2.1003328325320475e+04 -4.6651756214079511e+05 -8.6768652371599570e+07 
+3.3999999999999999e+00 -5.9308353995577101e-01 +8.1216968571630570e+00 -1.7844750875425448e+00 +4.5430021815852548e+01 +2.0942430459177944e+04 -4.6006945878450014e+05 -8.6483749486782596e+07 
+3.5000000000000000e+00 -5.9308357685962310e-01 +8.1217149703981679e+00 -1.7820623723958593e+00 +4.4321504260916115e+01 +2.0879724646239643e+04 -4.5324404393329186e+05 -8.6197969697747037e+07 
+3.6000000000000001e+00 -5.9308362390755609e-01 +8.1217351214558118e+00 -1.7794266536720664e+00 +4.3152729588374889e+01 +2.0815789801442246e+04 -4.4606527149712906e+05 -8.5914361891969278e+07 
+3.7000000000000002e+00 -5.9308368153802449e-01 +8.1217573939777861e+00 -1.7765872932362559e+00 +4.1926642498834610e+01 +2.0751204931527445e+04 -4.3855709595456230e+05 -8.5635975394290298e+07 
+3.7999999999999998e+00 -5.9308375018959125e-01 +8.1217818716084995e+00 -1.7735636488511248e+00 +4.0646187567895190e+01 +2.0686548965660884e+04 -4.3074347090521402e+05 -8.5365859137569129e+07 
+3.8999999999999999e+00 -5.9308383030072820e-01 +8.1218086379871099e+00 -1.7703750839451844e+00 +3.9314309443170153e+01 +2.0622400943255394e+04 -4.2264835013258224e+05 -8.5107062564058185e+07 
+4.0000000000000000e+00 -5.9308392231004703e-01 +8.1218377767449059e+00 -1.7670409585889422e+00 +3.7933952926196767e+01 +2.0559339846533738e+04 -4.1429568810699851e+05 -8.4862634835856304e+07 
+4.0999999999999996e+00 -5.9308402652226122e-01 +8.1218692816190359e+00 -1.7635779806229803e+00 +3.6509742509755625e+01 +2.0497814576243356e+04 -4.0571778029771266e+05 -8.4634857938796178e+07 
+4.2000000000000002e+00 -5.9308414269742793e-01 +8.1219027774912433e+00 -1.7599911276485205e+00 +3.5053286606328925e+01 +2.0437734582768964e+04 -3.9698175258197892e+05 -8.4422849344177887e+07 
+4.2999999999999998e+00 -5.9308427045695611e-01 +8.1219377946420384e+00 -1.7562821622297495e+00 +3.3578006881770925e+01 +2.0378869481241367e+04 -3.8816381307408842e+05 -8.4224910134872139e+07 
+4.4000000000000004e+00 -5.9308440942216001e-01 +8.1219738633568035e+00 -1.7524528545017772e+00 +3.2097324900355609e+01 +2.0320989017413718e+04 -3.7934016944873461e+05 -8.4039341955570742e+07 
+4.5000000000000000e+00 -5.9308455921429803e-01 +8.1220105139216638e+00 -1.7485049823423118e+00 +3.0624662213212364e+01 +2.0263863075764315e+04 -3.7058702936333668e+05 -8.3864447058858857e+07 
+4.5999999999999996e+00 -5.9308471945450270e-01 +8.1220472766264642e+00 -1.7444403350728055e+00 +2.9173440324597046e+01 +2.0207261745195356e+04 -3.6198060041488614e+05 -8.3698528608868867e+07 
+4.7000000000000002e+00 -5.9308488976391305e-01 +8.1220836817634385e+00 -1.7402607085598916e+00 +2.7757080690213154e+01 +2.0150955225957794e+04 -3.5359709001905256e+05 -8.3539890234379679e+07 
+4.7999999999999998e+00 -5.9308506976355235e-01 +8.1221192596252223e+00 -1.7359679095360683e+00 +2.6389004803637039e+01 +2.0094713912848736e+04 -3.4551270600039948e+05 -8.3386836426390931e+07 
+4.9000000000000004e+00 -5.9308525907432752e-01 +8.1221535405107588e+00 -1.7315637556167711e+00 +2.5082634025660038e+01 +2.0038308395381049e+04 -3.3780365560111665e+05 -8.3237672538842440e+07 
+5.0000000000000000e+00 -5.9308545731713380e-01 +8.1221860547218956e+00 -1.7270500729209284e+00 +2.3851389681639915e+01 +1.9981509408097721e+04 -3.3054614604697283e+05 -8.3090704536067426e+07 
+5.0999999999999996e+00 -5.9308566411268915e-01 +8.1222163325601890e+00 -1.7224287021274916e+00 +2.2708693151335265e+01 +1.9924087948334069e+04 -3.2381638506764569e+05 -8.2944239562718019e+07 
+5.2000000000000002e+00 -5.9308587908169230e-01 +8.1222439043345798e+00 -1.7177014935979895e+00 +2.1667965657064162e+01 +1.9865815181062251e+04 -3.1769057969575888e+05 -8.2796585479234099e+07 
+5.2999999999999998e+00 -5.9308610184472033e-01 +8.1222683003595826e+00 -1.7128703096093125e+00 +2.0742628319831418e+01 +1.9806462484817715e+04 -3.1224493661282788e+05 -8.2646051089624271e+07 
+5.4000000000000004e+00 -5.9308633202223116e-01 +8.1222890509507657e+00 -1.7079370260679465e+00 +1.9946102296241019e+01 +1.9745801475731681e+04 -3.0755566295584710e+05 -8.2490946233996794e+07 
+5.5000000000000000e+00 -5.9308656923454584e-01 +8.1223056864256762e+00 -1.7029035331548685e+00 +1.9291808735343533e+01 +1.9683604028395494e+04 -3.0369896602943214e+05 -8.2329581906144902e+07 
+5.5999999999999996e+00 -5.9308681310193967e-01 +8.1223177371149653e+00 -1.6977717330678208e+00 +1.8793168494926714e+01 +1.9619642223953761e+04 -3.0075105177143303e+05 -8.2160269982871398e+07 
+5.7000000000000002e+00 -5.9308706324451832e-01 +8.1223247333480337e+00 -1.6925435420611918e+00 +1.8463602518170894e+01 +1.9553688393771426e+04 -2.9878812682971393e+05 -8.1981323442837432e+07 
+5.7999999999999998e+00 -5.9308731928229341e-01 +8.1223262054611709e+00 -1.6872208949847043e+00 +1.8316531635693366e+01 +1.9485515202847015e+04 -2.9788639752491965e+05 -8.1791056755591318e+07 
+5.9000000000000004e+00 -5.9308758083518776e-01 +8.1223216837947447e+00 -1.6818057340996972e+00 +1.8365376645361589e+01 +1.9414895438162293e+04 -2.9812207030998415e+05 -8.1587784874006853e+07 
+5.9999999999999902e+00 -5.9308784752292276e-01 +8.1223106987016180e+00 -1.6763000260956824e+00 +1.8623558023653136e+01 +1.9341602326685283e+04 -2.9957134998599783e+05 -8.1369824732615575e+07 
+6.0999999999999899e+00 -5.9308811909325498e-01 +8.1222929524579737e+00 -1.6707040730265963e+00 +1.9099137161207032e+01 +1.9265446564999849e+04 -3.0227984678728302e+05 -8.1135768767269433e+07 
+6.1999999999999904e+00 -5.9308839585363737e-01 +8.1222688443141173e+00 -1.6650118713495474e+00 +1.9778441768825108e+01 +1.9186473171298196e+04 -3.0616933499768213e+05 -8.0885895916229695e+07 
+6.2999999999999901e+00 -5.9308867826321843e-01 +8.1222389505849311e+00 -1.6592159554047041e+00 +2.0642269231364391e+01 +1.9104807722238420e+04 -3.1113012799691188e+05 -8.0621057261021793e+07 
+6.3999999999999897e+00 -5.9308896678134948e-01 +8.1222038475843750e+00 -1.6533088443176531e+00 +2.1671416821543495e+01 +1.9020575529886781e+04 -3.1705253826374473e+05 -8.0342102737186193e+07 
+6.4999999999999902e+00 -5.9308926186731703e-01 +8.1221641116282566e+00 -1.6472830468591317e+00 +2.2846681632620388e+01 +1.8933901736040094e+04 -3.2382687696582609e+05 -8.0049881592113778e+07 
+6.5999999999999899e+00 -5.9308956398067669e-01 +8.1221203190233080e+00 -1.6411310556427774e+00 +2.4148860887502959e+01 +1.8844911199300597e+04 -3.3134345573880355e+05 -7.9745241844468370e+07 
+6.6999999999999904e+00 -5.9308987358107712e-01 +8.1220730460806436e+00 -1.6348453475260452e+00 +2.5558751540052597e+01 +1.8753728506786421e+04 -3.3949258435023832e+05 -7.9429030351904020e+07 
+6.7999999999999901e+00 -5.9309019112811390e-01 +8.1220228691032634e+00 -1.6284183909074290e+00 +2.7057150639835875e+01 +1.8660478113315443e+04 -3.4816457283232402e+05 -7.9102093478295863e+07 
+6.8999999999999897e+00 -5.9309051708170279e-01 +8.1219703643966668e+00 -1.6218426313241812e+00 +2.8624854997532402e+01 +1.8565284066269807e+04 -3.5724972945381899e+05 -7.8765275783819616e+07 
+6.9999999999999902e+00 -5.9309085190183530e-01 +8.1219161082588087e+00 -1.6151105011511877e+00 +3.0242661517214952e+01 +1.8468270195343739e+04 -3.6663836278440215e+05 -7.8419420942622542e+07 
+7.0999999999999899e+00 -5.9309119604856120e-01 +8.1218606769892912e+00 -1.6082144134712251e+00 +3.1891366868806401e+01 +1.8369559994049396e+04 -3.7622077960503945e+05 -7.8065371178782806e+07 
+7.1999999999999904e+00 -5.9309154998210978e-01 +8.1218046468816922e+00 -1.6011467654889182e+00 +3.3551767741683783e+01 +1.8269276686633977e+04 -3.8588728648953937e+05 -7.7703967591478363e+07 
+7.2999999999999901e+00 -5.9309191416287377e-01 +8.1217485942287215e+00 -1.5938999371680200e+00 +3.5204660684857693e+01 +1.8167543203470534e+04 -3.9552818883403600e+05 -7.7336050043665424e+07 
+7.3999999999999897e+00 -5.9309228905138101e-01 +8.1216930953200261e+00 -1.5864662867669288e+00 +3.6830842149694753e+01 +1.8064482095932173e+04 -4.0503379106437182e+05 -7.6962456759566888e+07 
+7.4999999999999902e+00 -5.9309267510829133e-01 +8.1216387264398033e+00 -1.5788381524288562e+00 +3.8411108574332246e+01 +1.7960215575559047e+04 -4.1429439715425565e+05 -7.6584024537887678e+07 
+7.5999999999999899e+00 -5.9309307279445367e-01 +8.1215860638699429e+00 -1.5710078540155674e+00 +3.9926256272229445e+01 +1.7854865533065476e+04 -4.2320030994249939e+05 -7.6201588799773067e+07 
+7.6999999999999904e+00 -5.9309348257081951e-01 +8.1215356838913433e+00 -1.5629676911870360e+00 +4.1357081400443384e+01 +1.7748553521578277e+04 -4.3164183095477783e+05 -7.5815983568748698e+07 
+7.7999999999999901e+00 -5.9309390489862879e-01 +8.1214881627789275e+00 -1.5547099375848330e+00 +4.2684380081680793e+01 +1.7641400636690800e+04 -4.3950926106175839e+05 -7.5428040873934582e+07 
+7.8999999999999897e+00 -5.9309434023914265e-01 +8.1214440768087446e+00 -1.5462268486618300e+00 +4.3888948217426503e+01 +1.7533527669820443e+04 -4.4669289944239723e+05 -7.5038591495360121e+07 
+7.9999999999999902e+00 -5.9309478905387492e-01 +8.1214040022438301e+00 -1.5375106545244370e+00 +4.4951581901799628e+01 +1.7425054974184670e+04 -4.5308304597654700e+05 -7.4648464335671082e+07 
+8.0999999999999908e+00 -5.9309525145303366e-01 +8.1213684008074001e+00 -1.5285675082383192e+00 +4.5857185388453118e+01 +1.7316228608294638e+04 -4.5859347951822728e+05 -7.4258904278228909e+07 
+8.1999999999999904e+00 -5.9309572609610595e-01 +8.1213372614367518e+00 -1.5194593416062117e+00 +4.6607563026993006e+01 +1.7207700487173268e+04 -4.6323373479378474e+05 -7.3872171333338112e+07 
+8.2999999999999901e+00 -5.9309621126881407e-01 +8.1213104504754892e+00 -1.5102619671212907e+00 +4.7208896679419169e+01 +1.7100197357886063e+04 -4.6703794028767786e+05 -7.3490606890592799e+07 
+8.3999999999999897e+00 -5.9309670525682767e-01 +8.1212878342937334e+00 -1.5010512007816563e+00 +4.7667367792777902e+01 +1.6994446013874105e+04 -4.7004022281236062e+05 -7.3116552506768405e+07 
+8.4999999999999893e+00 -5.9309720634586860e-01 +8.1212692792825720e+00 -1.4919028608662228e+00 +4.7989157496420646e+01 +1.6891173282209351e+04 -4.7227470813564584e+05 -7.2752349854907840e+07 
+8.5999999999999908e+00 -5.9309771282156087e-01 +8.1212546518571926e+00 -1.4828927714030644e+00 +4.8180446575381715e+01 +1.6791106084178056e+04 -4.7377552101140592e+05 -7.2400340996201485e+07 
+8.6999999999999904e+00 -5.9309822296957926e-01 +8.1212438184566160e+00 -1.4740967587862388e+00 +4.8247415445055971e+01 +1.6694971374239853e+04 -4.7457678493901645e+05 -7.2062868099855319e+07 
+8.7999999999999794e+00 -5.9309873507553335e-01 +8.1212366455465368e+00 -1.4655906547620006e+00 +4.8196244112303638e+01 +1.6603496192510611e+04 -4.7471262204859155e+05 -7.1742273678264558e+07 
+8.8999999999999808e+00 -5.9309924742500542e-01 +8.1212329996144135e+00 -1.4574502924656014e+00 +4.8033112298430986e+01 +1.6517407593823071e+04 -4.7421715376633953e+05 -7.1440900261965841e+07 
+8.9999999999999805e+00 -5.9309975830359019e-01 +8.1212327471791248e+00 -1.4497515117857056e+00 +4.7764199190643573e+01 +1.6437432744151622e+04 -4.7312449946445215e+05 -7.1161090840971336e+07 
+9.0999999999999801e+00 -5.9310026599683086e-01 +8.1212357547834255e+00 -1.4425701569311313e+00 +4.7395683664230155e+01 +1.6364298877429374e+04 -4.7146877773967135e+05 -7.0905188668141693e+07 
+9.1999999999999797e+00 -5.9310076879022366e-01 +8.1212418889987461e+00 -1.4359820756547781e+00 +4.6933744152389757e+01 +1.6298733278774687e+04 -4.6928410570269299e+05 -7.0675537172639221e+07 
+9.2999999999999794e+00 -5.9310126496928617e-01 +8.1212510164252851e+00 -1.4300631215841166e+00 +4.6384558655926554e+01 +1.6241463327301002e+04 -4.6660459905501682e+05 -7.0474480158123419e+07 
+9.3999999999999808e+00 -5.9310175281946798e-01 +8.1212630036907250e+00 -1.4248891548516605e+00 +4.5754304798766640e+01 +1.6193216509467235e+04 -4.6346437246084970e+05 -7.0304361869784176e+07 
+9.4999999999999805e+00 -5.9310223062622003e-01 +8.1212777174552695e+00 -1.4205360365631789e+00 +4.5049159675366433e+01 +1.6154720310825009e+04 -4.5989753864853660e+05 -7.0167526469592586e+07 
+9.5999999999999801e+00 -5.9310269667486459e-01 +8.1212950244056650e+00 -1.4170796384879452e+00 +4.4275300042820774e+01 +1.6126702404042780e+04 -4.5593820957227051e+05 -7.0066318941010222e+07 
+9.6999999999999797e+00 -5.9310314925087093e-01 +8.1213147912658066e+00 -1.4145958337681657e+00 +4.3438902037566812e+01 +1.6109890467992431e+04 -4.5162049483307195e+05 -7.0003084214865267e+07 
+9.7999999999999794e+00 -5.9310358663949603e-01 +8.1213368847813836e+00 -1.4131605048368270e+00 +4.2546141609247101e+01 +1.6105012334946776e+04 -4.4697850416633766e+05 -6.9980167860203460e+07 
+9.8999999999999808e+00 -5.9310400712607114e-01 +8.1213611717420182e+00 -1.4128495379794954e+00 +4.1603193894284665e+01 +1.6112795894889414e+04 -4.4204634384332644e+05 -6.9999915649798349e+07 
+9.9999999999999805e+00 -5.9310440899587191e-01 +8.1213875189643367e+00 -1.4137388249021170e+00 +4.0616233748926518e+01 +1.6133969123977320e+04 -4.3685811990314280e+05 -7.0064673690901503e+07 
+1.0100000000000000e+01 -5.9310479104392999e-01 +8.1214157705622210e+00 -1.4158786518194961e+00 +3.9591845772488334e+01 +1.6168957200765170e+04 -4.3145076597130165e+05 -7.0175680267106414e+07 
