# field on trajectory
# s[mm] rx[mm] ry[mm] rz[mm] bx[T] by[T] bz[T]
-0.0000000000000000e+00 +8.1530000000000094e+00 +0.0000000000000000e+00 -0.0000000000000000e+00 -3.2286367078143668e-02 -5.9275092995329359e-01 +5.8935102620051262e-03
-1.0000000000000001e-01 +8.1529997159377707e+00 +0.0000000000000000e+00 -1.0008006405070299e-01 -3.2286376951528591e-02 -5.9275109835801798e-01 +5.8935295745300847e-03
-2.0000000000000001e-01 +8.1529988637557800e+00 +0.0000000000000000e+00 -2.0016012809818201e-01 -3.2286393285563417e-02 -5.9275126709253401e-01 +5.8935495790317380e-03
-2.9999999999999999e-01 +8.1529974434524792e+00 +0.0000000000000000e+00 -3.0024019213920999e-01 -3.2286414926148789e-02 -5.9275143664099039e-01 +5.8935704539922647e-03
-4.0000000000000002e-01 +8.1529954550242092e+00 +0.0000000000000000e+00 -4.0032025617056399e-01 -3.2286440719172277e-02 -5.9275160748753009e-01 +5.8935923778934540e-03
-5.0000000000000000e-01 +8.1529928984782600e+00 +0.0000000000000000e+00 -5.0040032018901703e-01 -3.2286469510504463e-02 -5.9275178011618823e-01 +5.8936155292158262e-03
-5.9999999999999998e-01 +8.1529897738146193e+00 +0.0000000000000000e+00 -6.0048038419134497e-01 -3.2286500146008507e-02 -5.9275195501104783e-01 +5.8936400864403890e-03
-6.9999999999999996e-01 +8.1529860810223909e+00 +0.0000000000000000e+00 -7.0056044817432195e-01 -3.2286531471543492e-02 -5.9275213265627424e-01 +5.8936662280491573e-03
-8.0000000000000004e-01 +8.1529818201124709e+00 +0.0000000000000000e+00 -8.0064051213472498e-01 -3.2286562332951928e-02 -5.9275231353585522e-01 +5.8936941325226609e-03
-9.0000000000000002e-01 +8.1529769910812302e+00 +0.0000000000000000e+00 -9.0072057606932698e-01 -3.2286591576077189e-02 -5.9275249813390163e-01 +5.8937239783431851e-03
-1.0000000000000000e+00 +8.1529715939250291e+00 +0.0000000000000000e+00 -1.0008006399749001e+00 -3.2286618046758968e-02 -5.9275268693453598e-01 +5.8937559439938012e-03
-1.1000000000000001e+00 +8.1529656286511507e+00 +0.0000000000000000e+00 -1.1008807038482300e+00 -3.2286640590830203e-02 -5.9275288042180896e-01 +5.8937902079576705e-03
-1.2000000000000000e+00 +8.1529590952522994e+00 +0.0000000000000000e+00 -1.2009607676860801e+00 -3.2286658054129933e-02 -5.9275307907991170e-01 +5.8938269487203961e-03
-1.3000000000000000e+00 +8.1529519937357708e+00 +0.0000000000000000e+00 -1.3010408314852300e+00 -3.2286669282492228e-02 -5.9275328339294686e-01 +5.8938663447678169e-03
-1.3999999999999999e+00 +8.1529443240979198e+00 +0.0000000000000000e+00 -1.4011208952424601e+00 -3.2286673121759119e-02 -5.9275349384513831e-01 +5.8939085745883611e-03
-1.5000000000000000e+00 +8.1529360863350995e+00 +0.0000000000000000e+00 -1.5012009589545301e+00 -3.2286668417777484e-02 -5.9275371092075202e-01 +5.8939538166723586e-03
-1.6000000000000001e+00 +8.1529272804509691e+00 +0.0000000000000000e+00 -1.6012810226182299e+00 -3.2286654016397590e-02 -5.9275393510403951e-01 +5.8940022495116706e-03
-1.7000000000000000e+00 +8.1529179064491508e+00 +0.0000000000000000e+00 -1.7013610862303301e+00 -3.2286628763478022e-02 -5.9275416687930416e-01 +5.8940540516005027e-03
-1.8000000000000000e+00 +8.1529079643223703e+00 +0.0000000000000000e+00 -1.8014411497875999e+00 -3.2286591504892034e-02 -5.9275440673099589e-01 +5.8941094014365427e-03
-1.8999999999999999e+00 +8.1528974540779000e+00 +0.0000000000000000e+00 -1.9015212132868200e+00 -3.2286541086518364e-02 -5.9275465514350978e-01 +5.8941684775190876e-03
-2.0000000000000000e+00 +8.1528863757084800e+00 +0.0000000000000000e+00 -2.0016012767247702e+00 -3.2286476354257229e-02 -5.9275491260142710e-01 +5.8942314583514330e-03
-2.1000000000000001e+00 +8.1528747292177304e+00 +0.0000000000000000e+00 -2.1016813400982199e+00 -3.2286396608926557e-02 -5.9275517939166833e-01 +5.8942984649202881e-03
-2.2000000000000002e+00 +8.1528625146056601e+00 +0.0000000000000000e+00 -2.2017614034039301e+00 -3.2286302885731775e-02 -5.9275545504769145e-01 +5.8943693989192249e-03
-2.2999999999999998e+00 +8.1528497318759001e+00 +0.0000000000000000e+00 -2.3018414666387002e+00 -3.2286196633146511e-02 -5.9275573892337940e-01 +5.8944441097888642e-03
-2.3999999999999999e+00 +8.1528363810211903e+00 +0.0000000000000000e+00 -2.4019215297993002e+00 -3.2286079299646810e-02 -5.9275603037270563e-01 +5.8945224469721886e-03
-2.5000000000000000e+00 +8.1528224620451493e+00 +0.0000000000000000e+00 -2.5020015928824901e+00 -3.2285952333701094e-02 -5.9275632874955531e-01 +5.8946042599127219e-03
-2.6000000000000001e+00 +8.1528079749477893e+00 +0.0000000000000000e+00 -2.6020816558850601e+00 -3.2285817183776003e-02 -5.9275663340783857e-01 +5.8946893980557028e-03
-2.7000000000000002e+00 +8.1527929197291105e+00 +0.0000000000000000e+00 -2.7021617188037701e+00 -3.2285675298334211e-02 -5.9275694370145826e-01 +5.8947777108477716e-03
-2.7999999999999998e+00 +8.1527772963891003e+00 +0.0000000000000000e+00 -2.8022417816354102e+00 -3.2285528125833879e-02 -5.9275725898430742e-01 +5.8948690477369416e-03
-2.8999999999999999e+00 +8.1527611049277802e+00 +0.0000000000000000e+00 -2.9023218443767500e+00 -3.2285377114728141e-02 -5.9275757861026579e-01 +5.8949632581725793e-03
-3.0000000000000000e+00 +8.1527443453451305e+00 +0.0000000000000000e+00 -3.0024019070245598e+00 -3.2285223713464560e-02 -5.9275790193319555e-01 +5.8950601916053901e-03
-3.1000000000000001e+00 +8.1527270176411495e+00 +0.0000000000000000e+00 -3.1024819695756198e+00 -3.2285069370484552e-02 -5.9275822830694003e-01 +5.8951596974873800e-03
-3.2000000000000002e+00 +8.1527091218158603e+00 +0.0000000000000000e+00 -3.2025620320267101e+00 -3.2284915534222858e-02 -5.9275855708531866e-01 +5.8952616252718575e-03
-3.2999999999999998e+00 +8.1526906578692397e+00 +0.0000000000000000e+00 -3.3026420943745900e+00 -3.2284763653106965e-02 -5.9275888762212570e-01 +5.8953658244133888e-03
-3.3999999999999999e+00 +8.1526716258013003e+00 +0.0000000000000000e+00 -3.4027221566160502e+00 -3.2284615175556690e-02 -5.9275921927112518e-01 +5.8954721443677926e-03
-3.5000000000000000e+00 +8.1526520256120403e+00 +0.0000000000000000e+00 -3.5028022187478500e+00 -3.2284471549983415e-02 -5.9275955138604941e-01 +5.8955804345921202e-03
-3.6000000000000001e+00 +8.1526318572978198e+00 +0.0000000000000000e+00 -3.6028822807667802e+00 -3.2284334224791301e-02 -5.9275988332062313e-01 +5.8956905445449173e-03
-3.7000000000000002e+00 +8.1526111208659096e+00 +0.0000000000000000e+00 -3.7029623426696099e+00 -3.2284204648370389e-02 -5.9276021442844573e-01 +5.8958023236850166e-03
-3.7999999999999998e+00 +8.1525898163126804e+00 +0.0000000000000000e+00 -3.8030424044531101e+00 -3.2284084269105444e-02 -5.9276054406316070e-01 +5.8959156214733110e-03
-3.8999999999999999e+00 +8.1525679436344909e+00 +0.0000000000000000e+00 -3.9031224661140600e+00 -3.2283974535370734e-02 -5.9276087157836777e-01 +5.8960302873718451e-03
-4.0000000000000000e+00 +8.1525455028386205e+00 +0.0000000000000000e+00 -4.0032025276492398e+00 -3.2283876895508670e-02 -5.9276119632753443e-01 +5.8961461708436670e-03
-4.0999999999999996e+00 +8.1525224939177896e+00 +0.0000000000000000e+00 -4.1032825890554099e+00 -3.2283792258829859e-02 -5.9276151783333331e-01 +5.8962631480936204e-03
-4.2000000000000002e+00 +8.1524989168792708e+00 +0.0000000000000000e+00 -4.2033626503293604e+00 -3.2283719575670694e-02 -5.9276183623297252e-01 +5.8963811925033050e-03
-4.2999999999999998e+00 +8.1524747717157897e+00 +0.0000000000000000e+00 -4.3034427114678504e+00 -3.2283657351496020e-02 -5.9276215180335812e-01 +5.8965002995221951e-03
-4.4000000000000004e+00 +8.1524500584346207e+00 +0.0000000000000000e+00 -4.4035227724676700e+00 -3.2283604091776164e-02 -5.9276246482126094e-01 +5.8966204645951722e-03
-4.5000000000000000e+00 +8.1524247770285001e+00 +0.0000000000000000e+00 -4.5036028333255800e+00 -3.2283558302000470e-02 -5.9276277556355195e-01 +5.8967416831646460e-03
-4.5999999999999996e+00 +8.1523989275046898e+00 +0.0000000000000000e+00 -4.6036828940383696e+00 -3.2283518487665357e-02 -5.9276308430696589e-01 +5.8968639506678921e-03
-4.7000000000000002e+00 +8.1523725098559208e+00 +0.0000000000000000e+00 -4.7037629546028104e+00 -3.2283483154287966e-02 -5.9276339132833555e-01 +5.8969872625391859e-03
-4.7999999999999998e+00 +8.1523455240894709e+00 +0.0000000000000000e+00 -4.8038430150156701e+00 -3.2283450807394268e-02 -5.9276369690435615e-01 +5.8971116142071288e-03
-4.9000000000000004e+00 +8.1523179701980606e+00 +0.0000000000000000e+00 -4.9039230752737302e+00 -3.2283419952532567e-02 -5.9276400131182028e-01 +5.8972370010968020e-03
-5.0000000000000000e+00 +8.1522898481889605e+00 +0.0000000000000000e+00 -5.0040031353737602e+00 -3.2283389095261697e-02 -5.9276430482738041e-01 +5.8973634186270584e-03
-5.0999999999999996e+00 +8.1522611580549000e+00 +0.0000000000000000e+00 -5.1040831953125396e+00 -3.2283356741164573e-02 -5.9276460772778550e-01 +5.8974908622127084e-03
-5.2000000000000002e+00 +8.1522318997995207e+00 +0.0000000000000000e+00 -5.2041632550868497e+00 -3.2283321395837887e-02 -5.9276491028967215e-01 +5.8976193272621026e-03
-5.2999999999999998e+00 +8.1522020734228100e+00 +0.0000000000000000e+00 -5.3042433146934496e+00 -3.2283281564899326e-02 -5.9276521278968397e-01 +5.8977488091781008e-03
-5.4000000000000004e+00 +8.1521716789247893e+00 +0.0000000000000000e+00 -5.4043233741291203e+00 -3.2283235753986804e-02 -5.9276551550443879e-01 +5.8978793033574823e-03
-5.5000000000000000e+00 +8.1521407163090807e+00 +0.0000000000000000e+00 -5.5044034333906504e+00 -3.2283182468757790e-02 -5.9276581871050005e-01 +5.8980108051903913e-03
-5.5999999999999996e+00 +8.1521091855684098e+00 +0.0000000000000000e+00 -5.6044834924747899e+00 -3.2283120214896439e-02 -5.9276612268449491e-01 +5.8981433100612733e-03
-5.7000000000000002e+00 +8.1520770867064094e+00 +0.0000000000000000e+00 -5.7045635513783299e+00 -3.2283047498104914e-02 -5.9276642770293420e-01 +5.8982768133467901e-03
-5.7999999999999998e+00 +8.1520444197231008e+00 +0.0000000000000000e+00 -5.8046436100980499e+00 -3.2282962824110639e-02 -5.9276673404233116e-01 +5.8984113104167688e-03
-5.9000000000000004e+00 +8.1520111846184609e+00 +0.0000000000000000e+00 -5.9047236686307096e+00 -3.2282864698665509e-02 -5.9276704197917052e-01 +5.8985467966336325e-03
-5.9999999999999902e+00 +8.1519773813925003e+00 +0.0000000000000000e+00 -6.0048037269731003e+00 -3.2282751627599339e-02 -5.9276735178991602e-01 +5.8986832673523009e-03
-6.0999999999999899e+00 +8.1519430100452208e+00 +0.0000000000000000e+00 -6.1048837851219799e+00 -3.2282622663713428e-02 -5.9276766381415325e-01 +5.8988207197343363e-03
-6.1999999999999904e+00 +8.1519080705766100e+00 +0.0000000000000000e+00 -6.2049638430741396e+00 -3.2282478754882965e-02 -5.9276797861028485e-01 +5.8989591572235177e-03
-6.2999999999999901e+00 +8.1518725629866804e+00 +0.0000000000000000e+00 -6.3050439008263499e+00 -3.2282321259145513e-02 -5.9276829678411425e-01 +5.8990985846245096e-03
-6.3999999999999897e+00 +8.1518364872754301e+00 +0.0000000000000000e+00 -6.4051239583753699e+00 -3.2282151534552064e-02 -5.9276861894149535e-01 +5.8992390067428751e-03
-6.4999999999999902e+00 +8.1517998434428591e+00 +0.0000000000000000e+00 -6.5052040157180002e+00 -3.2281970939167251e-02 -5.9276894568833560e-01 +5.8993804283851755e-03
-6.5999999999999899e+00 +8.1517626314889604e+00 +0.0000000000000000e+00 -6.6052840728510001e+00 -3.2281780831069591e-02 -5.9276927763059839e-01 +5.8995228543590782e-03
-6.6999999999999904e+00 +8.1517248514137499e+00 +0.0000000000000000e+00 -6.7053641297711399e+00 -3.2281582568351827e-02 -5.9276961537430439e-01 +5.8996662894734439e-03
-6.7999999999999901e+00 +8.1516865032135701e+00 +0.0000000000000000e+00 -6.8054441864752100e+00 -3.2281377509122661e-02 -5.9276995952556555e-01 +5.8998107385387659e-03
-6.8999999999999897e+00 +8.1516475868957095e+00 +0.0000000000000000e+00 -6.9055242429599701e+00 -3.2281167011500737e-02 -5.9277031069046726e-01 +5.8999562063660116e-03
-6.9999999999999902e+00 +8.1516081024565192e+00 +0.0000000000000000e+00 -7.0056042992222096e+00 -3.2280952433624388e-02 -5.9277066947524881e-01 +5.9001026977685937e-03
-7.0999999999999899e+00 +8.1515680498960101e+00 +0.0000000000000000e+00 -7.1056843552586999e+00 -3.2280735133645530e-02 -5.9277103648618867e-01 +5.9002502175612209e-03
-7.1999999999999904e+00 +8.1515274292141804e+00 +0.0000000000000000e+00 -7.2057644110662000e+00 -3.2280516469731513e-02 -5.9277141232963459e-01 +5.9003987705603302e-03
-7.2999999999999901e+00 +8.1514862404073902e+00 +0.0000000000000000e+00 -7.3058444666415099e+00 -3.2280297800066964e-02 -5.9277179761203758e-01 +5.9005483615844779e-03
-7.3999999999999897e+00 +8.1514444834829192e+00 +0.0000000000000000e+00 -7.4059245219813796e+00 -3.2280080482847730e-02 -5.9277219293983396e-01 +5.9006989954532305e-03
-7.4999999999999902e+00 +8.1514021584334806e+00 +0.0000000000000000e+00 -7.5060045770826100e+00 -3.2279865876292183e-02 -5.9277259891965695e-01 +5.9008506769894012e-03
-7.5999999999999899e+00 +8.1513592652663593e+00 +0.0000000000000000e+00 -7.6060846319419504e+00 -3.2279655338628817e-02 -5.9277301615810063e-01 +5.9010034110167139e-03
-7.6999999999999904e+00 +8.1513158039779192e+00 +0.0000000000000000e+00 -7.7061646865561997e+00 -3.2279450228107541e-02 -5.9277344526193032e-01 +5.9011572023620262e-03
-7.7999999999999901e+00 +8.1512717745681602e+00 +0.0000000000000000e+00 -7.8062447409221098e+00 -3.2279251902993703e-02 -5.9277388683796750e-01 +5.9013120558542333e-03
-7.8999999999999897e+00 +8.1512271770334301e+00 +0.0000000000000000e+00 -7.9063247950364799e+00 -3.2279061721571405e-02 -5.9277434149314900e-01 +5.9014679763249615e-03
-7.9999999999999902e+00 +8.1511820113773901e+00 +0.0000000000000000e+00 -8.0064048488960609e+00 -3.2278881042065229e-02 -5.9277480983437902e-01 +5.9016249686055051e-03
-8.0999999999999908e+00 +8.1511362776036496e+00 +0.0000000000000000e+00 -8.1064849024976393e+00 -3.2278710883793103e-02 -5.9277529217308278e-01 +5.9017830271226304e-03
-8.1999999999999904e+00 +8.1510899757086008e+00 +0.0000000000000000e+00 -8.2065649558379903e+00 -3.2278551146288463e-02 -5.9277578784423968e-01 +5.9019421119231898e-03
-8.2999999999999901e+00 +8.1510431056885899e+00 +0.0000000000000000e+00 -8.3066450089139003e+00 -3.2278401498076856e-02 -5.9277629598136672e-01 +5.9021021759681101e-03
-8.3999999999999897e+00 +8.1509956675508892e+00 +0.0000000000000000e+00 -8.4067250617221205e+00 -3.2278261607597870e-02 -5.9277681571780860e-01 +5.9022631722230653e-03
-8.4999999999999893e+00 +8.1509476612882299e+00 +0.0000000000000000e+00 -8.5068051142594392e+00 -3.2278131143213394e-02 -5.9277734618694422e-01 +5.9024250536607531e-03
-8.5999999999999908e+00 +8.1508990869078808e+00 +0.0000000000000000e+00 -8.6068851665226305e+00 -3.2278009773192340e-02 -5.9277788652194396e-01 +5.9025877732586792e-03
-8.6999999999999904e+00 +8.1508499444025801e+00 +0.0000000000000000e+00 -8.7069652185084596e+00 -3.2277897165720590e-02 -5.9277843585600642e-01 +5.9027512840017443e-03
-8.7999999999999794e+00 +8.1508002337759500e+00 +0.0000000000000000e+00 -8.8070452702137203e+00 -3.2277792988887291e-02 -5.9277899332214734e-01 +5.9029155388803205e-03
-8.8999999999999808e+00 +8.1507499550316407e+00 +0.0000000000000000e+00 -8.9071253216351796e+00 -3.2277696910686875e-02 -5.9277955805328431e-01 +5.9030804908913248e-03
-8.9999999999999805e+00 +8.1506991081623692e+00 +0.0000000000000000e+00 -9.0072053727696098e+00 -3.2277608599021158e-02 -5.9278012918232459e-01 +5.9032460930393263e-03
-9.0999999999999801e+00 +8.1506476931717806e+00 +0.0000000000000000e+00 -9.1072854236137797e+00 -3.2277527721687162e-02 -5.9278070584198328e-01 +5.9034122983348944e-03
-9.1999999999999797e+00 +8.1505957100635005e+00 +0.0000000000000000e+00 -9.2073654741644795e+00 -3.2277453946379167e-02 -5.9278128716487011e-01 +5.9035790597957143e-03
-9.2999999999999794e+00 +8.1505431588302599e+00 +0.0000000000000000e+00 -9.3074455244184708e+00 -3.2277386940690864e-02 -5.9278187228357493e-01 +5.9037463304476403e-03
-9.3999999999999808e+00 +8.1504900394757005e+00 +0.0000000000000000e+00 -9.4075255743725297e+00 -3.2277326372103017e-02 -5.9278246033048587e-01 +5.9039140633230913e-03
-9.4999999999999805e+00 +8.1504363520034495e+00 +0.0000000000000000e+00 -9.5076056240234408e+00 -3.2277271907985725e-02 -5.9278305043787893e-01 +5.9040822114621349e-03
-9.5999999999999801e+00 +8.1503820964062506e+00 +0.0000000000000000e+00 -9.6076856733679694e+00 -3.2277223215600330e-02 -5.9278364173799936e-01 +5.9042507279135634e-03
-9.6999999999999797e+00 +8.1503272726913600e+00 +0.0000000000000000e+00 -9.7077657224029004e+00 -3.2277179962085768e-02 -5.9278423336285457e-01 +5.9044195657329736e-03
-9.7999999999999794e+00 +8.1502718808515109e+00 +0.0000000000000000e+00 -9.8078457711250007e+00 -3.2277141814468530e-02 -5.9278482444444747e-01 +5.9045886779853602e-03
-9.8999999999999808e+00 +8.1502159208903304e+00 +0.0000000000000000e+00 -9.9079258195310498e+00 -3.2277108439648858e-02 -5.9278541411456576e-01 +5.9047580177431745e-03
-9.9999999999999805e+00 +8.1501593928078400e+00 +0.0000000000000000e+00 -1.0008005867617801e+01 -3.2277079504386019e-02 -5.9278600150502059e-01 +5.9049275380952696e-03
-1.0100000000000000e+01 +8.1501022966040200e+00 +0.0000000000000000e+00 -1.0108085915382100e+01 -3.2277054630035606e-02 -5.9278658604945744e-01 +5.9050972106506399e-03
-1.0199999999999999e+01 +8.1500446322825209e+00 +0.0000000000000000e+00 -1.0208165962820599e+01 -3.2277033295219824e-02 -5.9278716813302423e-01 +5.9052670653542919e-03
-1.0300000000000001e+01 +8.1499863998360507e+00 +0.0000000000000000e+00 -1.0308246009930199e+01 -3.2277014950591099e-02 -5.9278774832804459e-01 +5.9054371436067380e-03
-1.0400000000000000e+01 +8.1499275992682705e+00 +0.0000000000000000e+00 -1.0408326056707599e+01 -3.2276999046872201e-02 -5.9278832720689145e-01 +5.9056074867990301e-03
-1.0500000000000000e+01 +8.1498682305791608e+00 +0.0000000000000000e+00 -1.0508406103149600e+01 -3.2276985034864807e-02 -5.9278890534211026e-01 +5.9057781363137454e-03
-1.0600000000000000e+01 +8.1498082937723701e+00 +0.0000000000000000e+00 -1.0608486149253000e+01 -3.2276972365448707e-02 -5.9278948330636205e-01 +5.9059491335241325e-03
-1.0699999999999999e+01 +8.1497477888406102e+00 +0.0000000000000000e+00 -1.0708566195014500e+01 -3.2276960489590445e-02 -5.9279006167254655e-01 +5.9061205197950889e-03
-1.0800000000000001e+01 +8.1496867157875403e+00 +0.0000000000000000e+00 -1.0808646240430900e+01 -3.2276948858336200e-02 -5.9279064101362777e-01 +5.9062923364810961e-03
-1.0900000000000000e+01 +8.1496250746131391e+00 +0.0000000000000000e+00 -1.0908726285499000e+01 -3.2276936922820368e-02 -5.9279122190275702e-01 +5.9064646249272065e-03
-1.1000000000000000e+01 +8.1495628653174208e+00 +0.0000000000000000e+00 -1.1008806330215601e+01 -3.2276924134266388e-02 -5.9279180491324601e-01 +5.9066374264684857e-03
-1.1100000000000000e+01 +8.1495000879040198e+00 +0.0000000000000000e+00 -1.1108886374577500e+01 -3.2276909943987415e-02 -5.9279239061854105e-01 +5.9068107824294782e-03
-1.1199999999999999e+01 +8.1494367423620098e+00 +0.0000000000000000e+00 -1.1208966418581401e+01 -3.2276893803396607e-02 -5.9279297959237509e-01 +5.9069847341254823e-03
-1.1300000000000001e+01 +8.1493728287059604e+00 +0.0000000000000000e+00 -1.1309046462224000e+01 -3.2276875163992080e-02 -5.9279357240844643e-01 +5.9071593228589786e-03
-1.1400000000000000e+01 +8.1493083469249505e+00 +0.0000000000000000e+00 -1.1409126505502300e+01 -3.2276853477381261e-02 -5.9279416964083531e-01 +5.9073345899236301e-03
-1.1500000000000000e+01 +8.1492432970226201e+00 +0.0000000000000000e+00 -1.1509206548412800e+01 -3.2276828195266019e-02 -5.9279477186368323e-01 +5.9075105766007163e-03
-1.1600000000000000e+01 +8.1491776789989707e+00 +0.0000000000000000e+00 -1.1609286590952600e+01 -3.2276798769452747e-02 -5.9279537965134499e-01 +5.9076873241604069e-03
-1.1699999999999999e+01 +8.1491114928576298e+00 +0.0000000000000000e+00 -1.1709366633118099e+01 -3.2276764651851551e-02 -5.9279599357833124e-01 +5.9078648738609130e-03
