# field on trajectory
# s[mm] rx[mm] ry[mm] rz[mm] bx[T] by[T] bz[T]
0.0000000000000000e+00 +8.1530000000000094e+00 +0.0000000000000000e+00 +0.0000000000000000e+00 -3.0638807391875023e-02 -5.9325238014828585e-01 +6.0550483206949553e-03
1.0000000000000001e-01 +8.1529997163925092e+00 +0.0000000000000000e+00 +9.9999999999463796e-02 -3.0638694420721074e-02 -5.9325248735691494e-01 +6.0550296808699689e-03
2.0000000000000001e-01 +8.1529988655711296e+00 +0.0000000000000000e+00 +1.9999999999571000e-01 -3.0638572717237657e-02 -5.9325259413005127e-01 +6.0550131974812429e-03
2.9999999999999999e-01 +8.1529974475415692e+00 +0.0000000000000000e+00 +2.9999999998552201e-01 -3.0638443594458758e-02 -5.9325270053431778e-01 +6.0549987444746224e-03
4.0000000000000002e-01 +8.1529954622965306e+00 +0.0000000000000000e+00 +3.9999999996568197e-01 -3.0638308365425311e-02 -5.9325280663644919e-01 +6.0549861957967244e-03
5.0000000000000000e-01 +8.1529929098396696e+00 +0.0000000000000000e+00 +4.9999999993297300e-01 -3.0638168343174545e-02 -5.9325291250309620e-01 +6.0549754253930357e-03
5.9999999999999998e-01 +8.1529897901673394e+00 +0.0000000000000000e+00 +5.9999999988417696e-01 -3.0638024840748145e-02 -5.9325301820097509e-01 +6.0549663072095869e-03
6.9999999999999996e-01 +8.1529861032831796e+00 +0.0000000000000000e+00 +6.9999999981607697e-01 -3.0637879171185808e-02 -5.9325312379674999e-01 +6.0549587151918615e-03
8.0000000000000004e-01 +8.1529818491871993e+00 +0.0000000000000000e+00 +7.9999999972545699e-01 -3.0637732647530166e-02 -5.9325322935712033e-01 +6.0549525232858432e-03
9.0000000000000002e-01 +8.1529770278793894e+00 +0.0000000000000000e+00 +8.9999999960909804e-01 -3.0637586582825106e-02 -5.9325333494879351e-01 +6.0549476054378350e-03
1.0000000000000000e+00 +8.1529716393597500e+00 +0.0000000000000000e+00 +9.9999999946378304e-01 -3.0637442290115943e-02 -5.9325344063848284e-01 +6.0549438355946110e-03
1.1000000000000001e+00 +8.1529656836210105e+00 +0.0000000000000000e+00 +1.0999999992862901e+00 -3.0637301082452623e-02 -5.9325354649297046e-01 +6.0549410877041507e-03
1.2000000000000000e+00 +8.1529591606740706e+00 +0.0000000000000000e+00 +1.1999999990734200e+00 -3.0637164272878423e-02 -5.9325365257889717e-01 +6.0549392357136097e-03
1.3000000000000000e+00 +8.1529520705153100e+00 +0.0000000000000000e+00 +1.2999999988219300e+00 -3.0637033174444585e-02 -5.9325375896303068e-01 +6.0549381535722393e-03
1.3999999999999999e+00 +8.1529444131410909e+00 +0.0000000000000000e+00 +1.3999999985286200e+00 -3.0636909100203849e-02 -5.9325386571214711e-01 +6.0549377152302767e-03
1.5000000000000000e+00 +8.1529361885550298e+00 +0.0000000000000000e+00 +1.4999999981902701e+00 -3.0636793363207321e-02 -5.9325397289297255e-01 +6.0549377946384694e-03
1.6000000000000001e+00 +8.1529273967571498e+00 +0.0000000000000000e+00 +1.5999999978036501e+00 -3.0636687276509256e-02 -5.9325408057227147e-01 +6.0549382657491147e-03
1.7000000000000000e+00 +8.1529180377474404e+00 +0.0000000000000000e+00 +1.6999999973655600e+00 -3.0636592153165568e-02 -5.9325418881681824e-01 +6.0549390025159090e-03
1.8000000000000000e+00 +8.1529081115222706e+00 +0.0000000000000000e+00 +1.7999999968727800e+00 -3.0636509306235484e-02 -5.9325429769342630e-01 +6.0549398788943675e-03
1.8999999999999999e+00 +8.1528976180852606e+00 +0.0000000000000000e+00 +1.8999999963220899e+00 -3.0636440048776671e-02 -5.9325440726886047e-01 +6.0549407688410446e-03
2.0000000000000000e+00 +8.1528865574327902e+00 +0.0000000000000000e+00 +1.9999999957102601e+00 -3.0636385693851801e-02 -5.9325451760995485e-01 +6.0549415463148929e-03
2.1000000000000001e+00 +8.1528749295721408e+00 +0.0000000000000000e+00 +2.0999999950340902e+00 -3.0636347104311398e-02 -5.9325462881799884e-01 +6.0549421161826492e-03
2.2000000000000002e+00 +8.1528627344960096e+00 +0.0000000000000000e+00 +2.1999999942903599e+00 -3.0636323342175847e-02 -5.9325474113253995e-01 +6.0549425069404859e-03
2.2999999999999998e+00 +8.1528499722080596e+00 +0.0000000000000000e+00 +2.2999999934758399e+00 -3.0636313019246953e-02 -5.9325485482756213e-01 +6.0549427779894756e-03
2.3999999999999999e+00 +8.1528366427046404e+00 +0.0000000000000000e+00 +2.3999999925873299e+00 -3.0636314747324020e-02 -5.9325497017709838e-01 +6.0549429887298252e-03
2.5000000000000000e+00 +8.1528227459894005e+00 +0.0000000000000000e+00 +2.4999999916215998e+00 -3.0636327138196563e-02 -5.9325508745510691e-01 +6.0549431985594130e-03
2.6000000000000001e+00 +8.1528082820659602e+00 +0.0000000000000000e+00 +2.5999999905754398e+00 -3.0636348803646896e-02 -5.9325520693553269e-01 +6.0549434668741350e-03
2.7000000000000002e+00 +8.1527932509234198e+00 +0.0000000000000000e+00 +2.6999999894456299e+00 -3.0636378355455848e-02 -5.9325532889242016e-01 +6.0549438530689151e-03
2.7999999999999998e+00 +8.1527776525726896e+00 +0.0000000000000000e+00 +2.7999999882289601e+00 -3.0636414405385847e-02 -5.9325545359961740e-01 +6.0549444165343570e-03
2.8999999999999999e+00 +8.1527614870065008e+00 +0.0000000000000000e+00 +2.8999999869222002e+00 -3.0636455565197951e-02 -5.9325558133109912e-01 +6.0549452166598948e-03
3.0000000000000000e+00 +8.1527447542284808e+00 +0.0000000000000000e+00 +2.9999999855221300e+00 -3.0636500446638255e-02 -5.9325571236072705e-01 +6.0549463128310799e-03
3.1000000000000001e+00 +8.1527274542386294e+00 +0.0000000000000000e+00 +3.0999999840255499e+00 -3.0636547661443587e-02 -5.9325584696236799e-01 +6.0549477644305802e-03
3.2000000000000002e+00 +8.1527095870333106e+00 +0.0000000000000000e+00 +3.1999999824292300e+00 -3.0636595821340786e-02 -5.9325598540989088e-01 +6.0549496308379058e-03
3.2999999999999998e+00 +8.1526911526198091e+00 +0.0000000000000000e+00 +3.2999999807299600e+00 -3.0636643538039479e-02 -5.9325612797704508e-01 +6.0549519714279505e-03
3.3999999999999999e+00 +8.1526721509872004e+00 +0.0000000000000000e+00 +3.3999999789245101e+00 -3.0636689423244327e-02 -5.9325627493769861e-01 +6.0549548455732143e-03
3.5000000000000000e+00 +8.1526525821464002e+00 +0.0000000000000000e+00 +3.4999999770096801e+00 -3.0636732088636501e-02 -5.9325642656550648e-01 +6.0549583126401404e-03
3.6000000000000001e+00 +8.1526324460901396e+00 +0.0000000000000000e+00 +3.5999999749822500e+00 -3.0636770145890724e-02 -5.9325658313423746e-01 +6.0549624319922880e-03
3.7000000000000002e+00 +8.1526117428220495e+00 +0.0000000000000000e+00 +3.6999999728389801e+00 -3.0636802206661630e-02 -5.9325674491753388e-01 +6.0549672629876053e-03
3.7999999999999998e+00 +8.1525904723421299e+00 +0.0000000000000000e+00 +3.7999999705766800e+00 -3.0636826882589480e-02 -5.9325691218902776e-01 +6.0549728649794132e-03
3.8999999999999999e+00 +8.1525686346503807e+00 +0.0000000000000000e+00 +3.8999999681921298e+00 -3.0636842785297849e-02 -5.9325708522231080e-01 +6.0549792973158571e-03
4.0000000000000000e+00 +8.1525462297431694e+00 +0.0000000000000000e+00 +3.9999999656820902e+00 -3.0636848526394467e-02 -5.9325726429095949e-01 +6.0549866193399674e-03
4.0999999999999996e+00 +8.1525232576241304e+00 +0.0000000000000000e+00 +4.0999999630433699e+00 -3.0636843143760015e-02 -5.9325744959006321e-01 +6.0549948831640525e-03
4.2000000000000002e+00 +8.1524997182896204e+00 +0.0000000000000000e+00 +4.1999999602727298e+00 -3.0636827380448452e-02 -5.9325764100121181e-01 +6.0550041119997247e-03
4.2999999999999998e+00 +8.1524756117469206e+00 +0.0000000000000000e+00 +4.2999999573669703e+00 -3.0636802405812666e-02 -5.9325783832753520e-01 +6.0550143218337862e-03
4.4000000000000004e+00 +8.1524509379887604e+00 +0.0000000000000000e+00 +4.3999999543228601e+00 -3.0636769389224001e-02 -5.9325804137229798e-01 +6.0550255286555849e-03
4.5000000000000000e+00 +8.1524256970187707e+00 +0.0000000000000000e+00 +4.4999999511372000e+00 -3.0636729500062056e-02 -5.9325824993869825e-01 +6.0550377484550220e-03
4.5999999999999996e+00 +8.1523998888369498e+00 +0.0000000000000000e+00 +4.5999999478067499e+00 -3.0636683907722163e-02 -5.9325846382998493e-01 +6.0550509972239971e-03
4.7000000000000002e+00 +8.1523735134396702e+00 +0.0000000000000000e+00 +4.6999999443283098e+00 -3.0636633781616511e-02 -5.9325868284946015e-01 +6.0550652909565662e-03
4.7999999999999998e+00 +8.1523465708305594e+00 +0.0000000000000000e+00 +4.7999999406986600e+00 -3.0636580291170362e-02 -5.9325890680039339e-01 +6.0550806456482129e-03
4.9000000000000004e+00 +8.1523190610096208e+00 +0.0000000000000000e+00 +4.8999999369145701e+00 -3.0636524605827886e-02 -5.9325913548611131e-01 +6.0550970772969412e-03
5.0000000000000000e+00 +8.1522909839768491e+00 +0.0000000000000000e+00 +4.9999999329728402e+00 -3.0636467895051735e-02 -5.9325936870996998e-01 +6.0551146019031709e-03
5.0999999999999996e+00 +8.1522623397286207e+00 +0.0000000000000000e+00 +5.0999999288702398e+00 -3.0636411328325619e-02 -5.9325960627538610e-01 +6.0551332354702031e-03
5.2000000000000002e+00 +8.1522331282685592e+00 +0.0000000000000000e+00 +5.1999999246035600e+00 -3.0636356075150622e-02 -5.9325984798575149e-01 +6.0551529940035039e-03
5.2999999999999998e+00 +8.1522033495966806e+00 +0.0000000000000000e+00 +5.2999999201695802e+00 -3.0636303305051002e-02 -5.9326009364452215e-01 +6.0551738935117842e-03
5.4000000000000004e+00 +8.1521730037093203e+00 +0.0000000000000000e+00 +5.3999999155650800e+00 -3.0636254187575387e-02 -5.9326034305522113e-01 +6.0551959500072137e-03
5.5000000000000000e+00 +8.1521420906137791e+00 +0.0000000000000000e+00 +5.4999999107868396e+00 -3.0636209892291249e-02 -5.9326059602132108e-01 +6.0552191795043304e-03
5.5999999999999996e+00 +8.1521106102991308e+00 +0.0000000000000000e+00 +5.5999999058316599e+00 -3.0636171588799034e-02 -5.9326085234648462e-01 +6.0552435980227330e-03
5.7000000000000002e+00 +8.1520785627762997e+00 +0.0000000000000000e+00 +5.6999999006963096e+00 -3.0636140446715303e-02 -5.9326111183423802e-01 +6.0552692215838392e-03
5.7999999999999998e+00 +8.1520459480379905e+00 +0.0000000000000000e+00 +5.7999998953775700e+00 -3.0636117635691709e-02 -5.9326137428830161e-01 +6.0552960662144713e-03
5.9000000000000004e+00 +8.1520127660915005e+00 +0.0000000000000000e+00 +5.8999998898722197e+00 -3.0636104325401387e-02 -5.9326163951232225e-01 +6.0553241479442592e-03
5.9999999999999902e+00 +8.1519790169259103e+00 +0.0000000000000000e+00 +5.9999998841770603e+00 -3.0636101685554758e-02 -5.9326190731014516e-01 +6.0553534828086180e-03
6.0999999999999899e+00 +8.1519447005521197e+00 +0.0000000000000000e+00 +6.0999998782888598e+00 -3.0636110535242830e-02 -5.9326217770181111e-01 +6.0553840711202560e-03
6.1999999999999904e+00 +8.1519098169665103e+00 +0.0000000000000000e+00 +6.1999998722044003e+00 -3.0636130291013006e-02 -5.9326245157281943e-01 +6.0554158502950780e-03
6.2999999999999901e+00 +8.1518743661654298e+00 +0.0000000000000000e+00 +6.2999998659204701e+00 -3.0636160018753692e-02 -5.9326273002500074e-01 +6.0554487420244182e-03
6.3999999999999897e+00 +8.1518383481488907e+00 +0.0000000000000000e+00 +6.3999998594338496e+00 -3.0636198784329504e-02 -5.9326301416015670e-01 +6.0554826679997511e-03
6.4999999999999902e+00 +8.1518017629241495e+00 +0.0000000000000000e+00 +6.4999998527413201e+00 -3.0636245653578611e-02 -5.9326330508003167e-01 +6.0555175499124028e-03
6.5999999999999899e+00 +8.1517646104839496e+00 +0.0000000000000000e+00 +6.5999998458396698e+00 -3.0636299692321369e-02 -5.9326360388648802e-01 +6.0555533094553988e-03
6.6999999999999904e+00 +8.1517268908319203e+00 +0.0000000000000000e+00 +6.6999998387256703e+00 -3.0636359966347948e-02 -5.9326391168129977e-01 +6.0555898683213238e-03
6.7999999999999901e+00 +8.1516886039680703e+00 +0.0000000000000000e+00 +6.7999998313961196e+00 -3.0636425541423703e-02 -5.9326422956627167e-01 +6.0556271482035571e-03
6.8999999999999897e+00 +8.1516497498923908e+00 +0.0000000000000000e+00 +6.8999998238477902e+00 -3.0636495483286546e-02 -5.9326455864320693e-01 +6.0556650707959793e-03
6.9999999999999902e+00 +8.1516103286012402e+00 +0.0000000000000000e+00 +6.9999998160774597e+00 -3.0636568857647463e-02 -5.9326490001393917e-01 +6.0557035577932872e-03
7.0999999999999899e+00 +8.1515703400982602e+00 +0.0000000000000000e+00 +7.0999998080819298e+00 -3.0636644730184608e-02 -5.9326525478024150e-01 +6.0557425308900726e-03
7.1999999999999904e+00 +8.1515297843834595e+00 +0.0000000000000000e+00 +7.1999997998579603e+00 -3.0636722166547104e-02 -5.9326562404391614e-01 +6.0557819117817652e-03
7.2999999999999901e+00 +8.1514886614531896e+00 +0.0000000000000000e+00 +7.2999997914023496e+00 -3.0636800232353992e-02 -5.9326600890679337e-01 +6.0558216221646395e-03
7.3999999999999897e+00 +8.1514469713147300e+00 +0.0000000000000000e+00 +7.3999997827118804e+00 -3.0636877993186644e-02 -5.9326641047061446e-01 +6.0558615837345824e-03
7.4999999999999902e+00 +8.1514047139571595e+00 +0.0000000000000000e+00 +7.4999997737833199e+00 -3.0636954514600728e-02 -5.9326682983726586e-01 +6.0559017181895857e-03
7.5999999999999899e+00 +8.1513618893914099e+00 +0.0000000000000000e+00 +7.5999997646134698e+00 -3.0637028862107299e-02 -5.9326726810845509e-01 +6.0559419472263403e-03
7.6999999999999904e+00 +8.1513184976138309e+00 +0.0000000000000000e+00 +7.6999997551991104e+00 -3.0637100101187913e-02 -5.9326772638600678e-01 +6.0559821925433481e-03
7.7999999999999901e+00 +8.1512745386207808e+00 +0.0000000000000000e+00 +7.7999997455370096e+00 -3.0637167297287164e-02 -5.9326820577174244e-01 +6.0560223758397026e-03
7.8999999999999897e+00 +8.1512300124159101e+00 +0.0000000000000000e+00 +7.8999997356239602e+00 -3.0637229515808301e-02 -5.9326870736742232e-01 +6.0560624188144476e-03
7.9999999999999902e+00 +8.1511849189955701e+00 +0.0000000000000000e+00 +7.9999997254567399e+00 -3.0637285822118693e-02 -5.9326923227486239e-01 +6.0561022431678546e-03
8.0999999999999908e+00 +8.1511392583670403e+00 +0.0000000000000000e+00 +8.0999997150321406e+00 -3.0637335499961567e-02 -5.9326978110267170e-01 +6.0561417693865980e-03
8.1999999999999904e+00 +8.1510930305230396e+00 +0.0000000000000000e+00 +8.1999997043469399e+00 -3.0637378706762752e-02 -5.9327035248709337e-01 +6.0561809131071728e-03
8.2999999999999901e+00 +8.1510462354672200e+00 +0.0000000000000000e+00 +8.2999996933979094e+00 -3.0637415818399537e-02 -5.9327094457115281e-01 +6.0562195887557029e-03
8.3999999999999897e+00 +8.1509988731995708e+00 +0.0000000000000000e+00 +8.3999996821818605e+00 -3.0637447210790533e-02 -5.9327155549790200e-01 +6.0562577107628598e-03
8.4999999999999893e+00 +8.1509509437164507e+00 +0.0000000000000000e+00 +8.4999996706955496e+00 -3.0637473259897064e-02 -5.9327218341041688e-01 +6.0562951935639910e-03
8.5999999999999908e+00 +8.1509024470215099e+00 +0.0000000000000000e+00 +8.5999996589357703e+00 -3.0637494341719727e-02 -5.9327282645171053e-01 +6.0563319515983061e-03
8.6999999999999904e+00 +8.1508533831147396e+00 +0.0000000000000000e+00 +8.6999996468993004e+00 -3.0637510832304544e-02 -5.9327348276482006e-01 +6.0563678993099173e-03
8.7999999999999794e+00 +8.1508037519961398e+00 +0.0000000000000000e+00 +8.7999996345829192e+00 -3.0637523107742766e-02 -5.9327415049277732e-01 +6.0564029511476518e-03
8.8999999999999808e+00 +8.1507535536620708e+00 +0.0000000000000000e+00 +8.8999996219834205e+00 -3.0637531544173882e-02 -5.9327482777863871e-01 +6.0564370215654730e-03
8.9999999999999805e+00 +8.1507027881161793e+00 +0.0000000000000000e+00 +8.9999996090975891e+00 -3.0637536517782074e-02 -5.9327551276539525e-01 +6.0564700250216779e-03
9.0999999999999801e+00 +8.1506514553584601e+00 +0.0000000000000000e+00 +9.0999995959221902e+00 -3.0637538404802534e-02 -5.9327620359606248e-01 +6.0565018759799272e-03
9.1999999999999797e+00 +8.1505995553889097e+00 +0.0000000000000000e+00 +9.1999995824540193e+00 -3.0637537581521140e-02 -5.9327689841364928e-01 +6.0565324889090772e-03
9.2999999999999794e+00 +8.1505470882038900e+00 +0.0000000000000000e+00 +9.2999995686898593e+00 -3.0637534424277489e-02 -5.9327759536118763e-01 +6.0565617782835732e-03
9.3999999999999808e+00 +8.1504940538070496e+00 +0.0000000000000000e+00 +9.3999995546264898e+00 -3.0637529309461401e-02 -5.9327829258164366e-01 +6.0565896585826713e-03
9.4999999999999805e+00 +8.1504404521983798e+00 +0.0000000000000000e+00 +9.4999995402606903e+00 -3.0637522613519156e-02 -5.9327898821800684e-01 +6.0566160442914610e-03
9.5999999999999801e+00 +8.1503862833778804e+00 +0.0000000000000000e+00 +9.5999995255892507e+00 -3.0637514712953250e-02 -5.9327968041325929e-01 +6.0566408499006909e-03
9.6999999999999797e+00 +8.1503315473419207e+00 +0.0000000000000000e+00 +9.6999995106089507e+00 -3.0637505984325342e-02 -5.9328036731040457e-01 +6.0566639899071739e-03
9.7999999999999794e+00 +8.1502762440941297e+00 +0.0000000000000000e+00 +9.7999994953165697e+00 -3.0637496804252869e-02 -5.9328104705238094e-01 +6.0566853788130010e-03
9.8999999999999808e+00 +8.1502203736345091e+00 +0.0000000000000000e+00 +9.8999994797088906e+00 -3.0637487549415150e-02 -5.9328171778214722e-01 +6.0567049311265712e-03
9.9999999999999805e+00 +8.1501639359594300e+00 +0.0000000000000000e+00 +9.9999994637827001e+00 -3.0637478596554815e-02 -5.9328237764268466e-01 +6.0567225613627103e-03
1.0100000000000000e+01 +8.1501069310761505e+00 +0.0000000000000000e+00 +1.0099999447534801e+01 -3.0637470213193345e-02 -5.9328302508084474e-01 +6.0567382370454040e-03
1.0199999999999999e+01 +8.1500493589774106e+00 +0.0000000000000000e+00 +1.0199999430961901e+01 -3.0637462229762699e-02 -5.9328365975947939e-01 +6.0567521377192643e-03
1.0300000000000001e+01 +8.1499912196668394e+00 +0.0000000000000000e+00 +1.0299999414060901e+01 -3.0637454367373175e-02 -5.9328428164532121e-01 +6.0567644959240016e-03
1.0400000000000000e+01 +8.1499325131444493e+00 +0.0000000000000000e+00 +1.0399999396828500e+01 -3.0637446347092680e-02 -5.9328489070512380e-01 +6.0567755441883926e-03
1.0500000000000000e+01 +8.1498732394065900e+00 +0.0000000000000000e+00 +1.0499999379261400e+01 -3.0637437889945433e-02 -5.9328548690566130e-01 +6.0567855150299617e-03
1.0600000000000000e+01 +8.1498133984568994e+00 +0.0000000000000000e+00 +1.0599999361356600e+01 -3.0637428716905873e-02 -5.9328607021363999e-01 +6.0567946409537544e-03
1.0699999999999999e+01 +8.1497529902953794e+00 +0.0000000000000000e+00 +1.0699999343110701e+01 -3.0637418548902243e-02 -5.9328664059578728e-01 +6.0568031544529308e-03
1.0800000000000001e+01 +8.1496920149220404e+00 +0.0000000000000000e+00 +1.0799999324520600e+01 -3.0637407106813657e-02 -5.9328719801881946e-01 +6.0568112880081725e-03
1.0900000000000000e+01 +8.1496304723332305e+00 +0.0000000000000000e+00 +1.0899999305583000e+01 -3.0637394111470522e-02 -5.9328774244947458e-01 +6.0568192740876594e-03
1.1000000000000000e+01 +8.1495683625325892e+00 +0.0000000000000000e+00 +1.0999999286294800e+01 -3.0637379283648326e-02 -5.9328827385442018e-01 +6.0568273451458397e-03
1.1100000000000000e+01 +8.1495056855201309e+00 +0.0000000000000000e+00 +1.1099999266652601e+01 -3.0637362344071287e-02 -5.9328879220034447e-01 +6.0568357336240435e-03
1.1199999999999999e+01 +8.1494424412958306e+00 +0.0000000000000000e+00 +1.1199999246653300e+01 -3.0637343013409403e-02 -5.9328929745392467e-01 +6.0568446719498582e-03
1.1300000000000001e+01 +8.1493786298560700e+00 +0.0000000000000000e+00 +1.1299999226293700e+01 -3.0637321012278902e-02 -5.9328978958185741e-01 +6.0568543925371334e-03
1.1400000000000000e+01 +8.1493142512044905e+00 +0.0000000000000000e+00 +1.1399999205570500e+01 -3.0637296061235962e-02 -5.9329026855076850e-01 +6.0568651277847253e-03
1.1500000000000000e+01 +8.1492493053447106e+00 +0.0000000000000000e+00 +1.1499999184480499e+01 -3.0637267880778807e-02 -5.9329073432727397e-01 +6.0568771100768205e-03
1.1600000000000000e+01 +8.1491837922658306e+00 +0.0000000000000000e+00 +1.1599999163020600e+01 -3.0637236191352887e-02 -5.9329118687809634e-01 +6.0568905717838534e-03
1.1699999999999999e+01 +8.1491177119787608e+00 +0.0000000000000000e+00 +1.1699999141187400e+01 -3.0637200713333337e-02 -5.9329162616976894e-01 +6.0569057452590910e-03
1.1800000000000001e+01 +8.1490510644762306e+00 +0.0000000000000000e+00 +1.1799999118977800e+01 -3.0637161167041592e-02 -5.9329205216896141e-01 +6.0569228628417279e-03
