# multipoles
# s[mm] polynom_b[n=0][T/m^n] polynom_b[n=1][T/m^n] polynom_b[n=2][T/m^n] polynom_b[n=3][T/m^n] polynom_b[n=4][T/m^n] polynom_b[n=5][T/m^n] polynom_b[n=6][T/m^n] 
+0.0000000000000000e+00 -5.9325068025990779e-01 +8.1241508988660840e+00 +1.1160922074263004e+00 -5.0827983164638425e+01 -1.5787613044586687e+04 +1.0265939274409952e+05 +5.2369262794002019e+07 
+1.0000000000000001e-01 -5.9325078846576507e-01 +8.1241272801344184e+00 +1.1152827078518381e+00 -5.0329503574659071e+01 -1.5777163036886468e+04 +1.0043279868378773e+05 +5.2339904917605914e+07 
+2.0000000000000001e-01 -5.9325089283246091e-01 +8.1241047345037209e+00 +1.1145760670493683e+00 -4.9831974730318230e+01 -1.5771739393045060e+04 +9.8189890596499914e+04 +5.2338523513125695e+07 
+2.9999999999999999e-01 -5.9325099376369328e-01 +8.1240833318952550e+00 +1.1139626654911208e+00 -4.9338075133905988e+01 -1.5770944444907906e+04 +9.5943901700716757e+04 +5.2362804557781853e+07 
+4.0000000000000002e-01 -5.9325109166317957e-01 +8.1240631422260385e+00 +1.1134328836336085e+00 -4.8850483137029215e+01 -1.5774380523999758e+04 +9.3708064275492783e+04 +5.2410434030016787e+07 
+5.0000000000000000e-01 -5.9325118693454781e-01 +8.1240442354150773e+00 +1.1129771011931369e+00 -4.8371877123069055e+01 -1.5781649943630135e+04 +9.1495610722809011e+04 +5.2479097812547594e+07 
+5.9999999999999998e-01 -5.9325127998150429e-01 +8.1240266813850521e+00 +1.1125857000857169e+00 -4.7904935568679100e+01 -1.5792355060902015e+04 +8.9319773971011251e+04 +5.2566482003754750e+07 
+6.9999999999999996e-01 -5.9325137120785321e-01 +8.1240105500520183e+00 +1.1122490628085673e+00 -4.7452336724183787e+01 -1.5806098239881550e+04 +8.7193785544080471e+04 +5.2670272727013655e+07 
+8.0000000000000004e-01 -5.9325146101720139e-01 +8.1239959113410425e+00 +1.1119575689441068e+00 -4.7016759106777187e+01 -1.5822481786480019e+04 +8.5130878562913334e+04 +5.2788155821290411e+07 
+9.0000000000000002e-01 -5.9325154981331341e-01 +8.1239828351674106e+00 +1.1117016023428228e+00 -4.6600880921526269e+01 -1.5841108085839831e+04 +8.3144284269397409e+04 +5.2917817502077073e+07 
+1.0000000000000000e+00 -5.9325163799993430e-01 +8.1239713914527378e+00 +1.1114715449407759e+00 -4.6207380559102333e+01 -1.5861579486258779e+04 +8.1247235016533756e+04 +5.3056943806079783e+07 
+1.1000000000000001e+00 -5.9325172598075138e-01 +8.1239616501172485e+00 +1.1112577807264639e+00 -4.5838936352917557e+01 -1.5883498366236758e+04 +7.9452962801859816e+04 +5.3203220894292191e+07 
+1.2000000000000000e+00 -5.9325181415956907e-01 +8.1239536810788113e+00 +1.1110506943781189e+00 -4.5498226586784405e+01 -1.5906467119036375e+04 +7.7774699419873505e+04 +5.3354335001313508e+07 
+1.3000000000000000e+00 -5.9325190294007202e-01 +8.1239475542547019e+00 +1.1108406690922550e+00 -4.5187929504111011e+01 -1.5930088101148789e+04 +7.6225676388597931e+04 +5.3507972165016919e+07 
+1.3999999999999999e+00 -5.9325199272607032e-01 +8.1239433395665657e+00 +1.1106180929024487e+00 -4.4910723488884102e+01 -1.5953963760704040e+04 +7.4819126116867512e+04 +5.3661818859002888e+07 
+1.5000000000000000e+00 -5.9325208392134599e-01 +8.1239411069265941e+00 +1.1103733495388821e+00 -4.4669286663817367e+01 -1.5977696455767798e+04 +7.3568279568688580e+04 +5.3813561106328771e+07 
+1.6000000000000001e+00 -5.9325217692967813e-01 +8.1239409262539493e+00 +1.1100968293845117e+00 -4.4466297366358503e+01 -1.6000888667643530e+04 +7.2486369027227614e+04 +5.3960885508515924e+07 
+1.7000000000000000e+00 -5.9325227215480636e-01 +8.1239428674613290e+00 +1.1097789177723330e+00 -4.4304433744299239e+01 -1.6023142776332426e+04 +7.1586625700861143e+04 +5.4101478169758938e+07 
+1.8000000000000000e+00 -5.9325237000063258e-01 +8.1239470004611061e+00 +1.1094100083461644e+00 -4.4186373966220266e+01 -1.6044061311164454e+04 +7.0882281049674872e+04 +5.4233025882115237e+07 
+1.8999999999999999e+00 -5.9325247087087496e-01 +8.1239533951716716e+00 +1.1089804869806179e+00 -4.4114796391792609e+01 -1.6063246653630873e+04 +7.0386567733251853e+04 +5.4353214732691608e+07 
+2.0000000000000000e+00 -5.9325257516944940e-01 +8.1239621214980016e+00 +1.1084807481215444e+00 -4.4092379015265173e+01 -1.6080301333391601e+04 +7.0112716408928711e+04 +5.4459731474516690e+07 
+2.1000000000000001e+00 -5.9325268325237024e-01 +8.1239731847013896e+00 +1.1079026882193781e+00 -4.4120291832626187e+01 -1.6094895325150983e+04 +7.0066836157353813e+04 +5.4550703555080645e+07 
+2.2000000000000002e+00 -5.9325279529119301e-01 +8.1239863414010784e+00 +1.1072444601656612e+00 -4.4193881620755739e+01 -1.6106969119335356e+04 +7.0227386424678713e+04 +5.4626000666011922e+07 
+2.2999999999999998e+00 -5.9325291141302061e-01 +8.1240012884370447e+00 +1.1065058441189453e+00 -4.4307089678846921e+01 -1.6116531073960197e+04 +7.0566118716395576e+04 +5.4685923599386901e+07 
+2.3999999999999999e+00 -5.9325303174502508e-01 +8.1240177226536758e+00 +1.1056866180216314e+00 -4.4453857467079516e+01 -1.6123589506521841e+04 +7.1054785544724058e+04 +5.4730772958719708e+07 
+2.5000000000000000e+00 -5.9325315641424881e-01 +8.1240353408903392e+00 +1.1047865554345262e+00 -4.4628126306414835e+01 -1.6128152656442366e+04 +7.1665138618780678e+04 +5.4760848989203133e+07 
+2.6000000000000001e+00 -5.9325328554779466e-01 +8.1240538399893207e+00 +1.1038054348393134e+00 -4.4823837612903453e+01 -1.6130228863154083e+04 +7.2368930194608125e+04 +5.4776452427865110e+07 
+2.7000000000000002e+00 -5.9325341927270248e-01 +8.1240729167944110e+00 +1.1027430268256200e+00 -4.5034932876134185e+01 -1.6129826317512614e+04 +7.3137913015355283e+04 +5.4777883309385151e+07 
+2.7999999999999998e+00 -5.9325355771600896e-01 +8.1240922681505729e+00 +1.1015991032216528e+00 -4.5255353631241171e+01 -1.6126953244711813e+04 +7.3943840079938207e+04 +5.4765441859324701e+07 
+2.8999999999999999e+00 -5.9325370100475638e-01 +8.1241115909026842e+00 +1.1003734368432729e+00 -4.5479041429480425e+01 -1.6121617890637259e+04 +7.4758464494124884e+04 +5.4739428404998749e+07 
+3.0000000000000000e+00 -5.9325384926591895e-01 +8.1241305818936027e+00 +1.0990657935295829e+00 -4.5699937777171186e+01 -1.6113828381408353e+04 +7.5553539098367473e+04 +5.4700142738967299e+07 
+3.1000000000000001e+00 -5.9325400262647765e-01 +8.1241489379738550e+00 +1.0976759408481276e+00 -4.5911984438409334e+01 -1.6103592880583674e+04 +7.6300818276435602e+04 +5.4647884841307998e+07 
+3.2000000000000002e+00 -5.9325416121335706e-01 +8.1241663559908570e+00 +1.0962036408297169e+00 -4.6109123096230526e+01 -1.6090919459467184e+04 +7.6972055912180571e+04 +5.4582954287877515e+07 
+3.2999999999999998e+00 -5.9325432515348231e-01 +8.1241825327967288e+00 +1.0946486563096092e+00 -4.6285295595960200e+01 -1.6075816210841300e+04 +7.7539006848472563e+04 +5.4505650772245318e+07 
+3.3999999999999999e+00 -5.9325449457372748e-01 +8.1241971652393090e+00 +1.0930107458550611e+00 -4.6434443684925256e+01 -1.6058291160703378e+04 +7.7973425361479953e+04 +5.4416273706286512e+07 
+3.5000000000000000e+00 -5.9325466960092266e-01 +8.1242099501707354e+00 +1.0912896635236273e+00 -4.6550509257591166e+01 -1.6038352258642117e+04 +7.8247066580661573e+04 +5.4315122162577651e+07 
+3.6000000000000001e+00 -5.9325485036191683e-01 +8.1242205844494730e+00 +1.0894851637757264e+00 -4.6627434416261316e+01 -1.6016007475144339e+04 +7.8331686833859014e+04 +5.4202495346623607e+07 
+3.7000000000000002e+00 -5.9325503698341964e-01 +8.1242287649301002e+00 +1.0875969964078696e+00 -4.6659161182656788e+01 -1.5991264704546016e+04 +7.8199041990563594e+04 +5.4078692133274846e+07 
+3.7999999999999998e+00 -5.9325522959218280e-01 +8.1242341884699627e+00 +1.0856249072940980e+00 -4.6639631679652418e+01 -1.5964131781950131e+04 +7.7820888486519412e+04 +5.3944011155129030e+07 
+3.8999999999999999e+00 -5.9325542831492351e-01 +8.1242365519298634e+00 +1.0835686397370552e+00 -4.6562788163561805e+01 -1.5934616508046814e+04 +7.7168983531322185e+04 +5.3798750918574527e+07 
+4.0000000000000000e+00 -5.9325563327822506e-01 +8.1242355521766125e+00 +1.0814279338706305e+00 -4.6422573044376044e+01 -1.5902726635764897e+04 +7.6215085041623664e+04 +5.3643209723943070e+07 
+4.0999999999999996e+00 -5.9325584453310265e-01 +8.1242309971662312e+00 +1.0791997864974818e+00 -4.6214968427709380e+01 -1.5868454990123777e+04 +7.4939743257121940e+04 +5.3477655944657333e+07 
+4.2000000000000002e+00 -5.9325606186027402e-01 +8.1242230970607601e+00 +1.0768691738617846e+00 -4.5943314255430977e+01 -1.5831703786063066e+04 +7.3355264622202871e+04 +5.3302100816333227e+07 
+4.2999999999999998e+00 -5.9325628498032457e-01 +8.1242121530908165e+00 +1.0744178760670564e+00 -4.5612609647929602e+01 -1.5792346442883367e+04 +7.1481122499866251e+04 +5.3116463636299282e+07 
+4.4000000000000004e+00 -5.9325651361371923e-01 +8.1241984664950539e+00 +1.0718276715382171e+00 -4.5227853928084940e+01 -1.5750256336559143e+04 +6.9336791262784231e+04 +5.2920663473212920e+07 
+4.5000000000000000e+00 -5.9325674748106638e-01 +8.1241823385178105e+00 +1.0690803405338520e+00 -4.4794046546672654e+01 -1.5705306867475769e+04 +6.6941745833681416e+04 +5.2714619493801281e+07 
+4.5999999999999996e+00 -5.9325698630288637e-01 +8.1241640704027152e+00 +1.0661576649376043e+00 -4.4316186901159242e+01 -1.5657371450808994e+04 +6.4315460630583395e+04 +5.2498250901443735e+07 
+4.7000000000000002e+00 -5.9325722979982942e-01 +8.1241439634065280e+00 +1.0630414265362926e+00 -4.3799274730967198e+01 -1.5606323486192599e+04 +6.1477411864070447e+04 +5.2271476798146576e+07 
+4.7999999999999998e+00 -5.9325747769247428e-01 +8.1241223187907572e+00 +1.0597134106561645e+00 -4.3248309883089519e+01 -1.5552036423257334e+04 +5.8447076166648323e+04 +5.2034216488756604e+07 
+4.9000000000000004e+00 -5.9325772970150037e-01 +8.1240994378184048e+00 +1.0561553985769825e+00 -4.2668292188238773e+01 -1.5494383620047953e+04 +5.5243929815643685e+04 +5.1786388813767858e+07 
+5.0000000000000000e+00 -5.9325798554755771e-01 +8.1240756217665595e+00 +1.0523491803428422e+00 -4.2064221858240558e+01 -1.5433238582419173e+04 +5.1887451117001758e+04 +5.1527913278278187e+07 
+5.0999999999999996e+00 -5.9325824495139490e-01 +8.1240511719153172e+00 +1.0482765411980393e+00 -4.1441099132611853e+01 -1.5368474706784418e+04 +4.8397118252874490e+04 +5.1258708830077991e+07 
+5.2000000000000002e+00 -5.9325850763372701e-01 +8.1240263895528670e+00 +1.0439192709239096e+00 -4.0803924438704833e+01 -1.5299965456906864e+04 +4.4792410252510301e+04 +5.0978694698673628e+07 
+5.2999999999999998e+00 -5.9325877331532850e-01 +8.1240015759772870e+00 +1.0392591602987851e+00 -4.0157698440849799e+01 -1.5227584295393797e+04 +4.1092807262440088e+04 +5.0687790068537116e+07 
+5.4000000000000004e+00 -5.9325904171701549e-01 +8.1239770324880158e+00 +1.0342780026655483e+00 -3.9507421788310658e+01 -1.5151204711010434e+04 +3.7317789071320025e+04 +5.0385914200578853e+07 
+5.5000000000000000e+00 -5.9325931255960873e-01 +8.1239530603980707e+00 +1.0289575927219812e+00 -3.8858095461860422e+01 -1.5070700196749187e+04 +3.3486837086251318e+04 +5.0072986332107805e+07 
+5.5999999999999996e+00 -5.9325958556404523e-01 +8.1239299610286331e+00 +1.0232797258056570e+00 -3.8214720617710611e+01 -1.4985944235467907e+04 +2.9619433434283794e+04 +4.9748925608083859e+07 
+5.7000000000000002e+00 -5.9325986045124901e-01 +8.1239080357118869e+00 +1.0172262032971731e+00 -3.7582298676494140e+01 -1.4896810398341109e+04 +2.5735061496117258e+04 +4.9413651536701120e+07 
+5.7999999999999998e+00 -5.9326013694217605e-01 +8.1238875857799613e+00 +1.0107788241576334e+00 -3.6965830984143821e+01 -1.4803172189428182e+04 +2.1853203872790986e+04 +4.9067083267001987e+07 
+5.9000000000000004e+00 -5.9326041475785307e-01 +8.1238689125812051e+00 +1.0039193925690051e+00 -3.6370319300417123e+01 -1.4704903182560705e+04 +1.7993345274906187e+04 +4.8709140215379134e+07 
+5.9999999999999902e+00 -5.9326069361937683e-01 +8.1238523174636352e+00 +9.9662971546099577e-01 -3.5800765270930306e+01 -1.4601876958604975e+04 +1.4174969630797939e+04 +4.8339741755431473e+07 
+6.0999999999999899e+00 -5.9326097351484242e-01 +8.1238380282663769e+00 +9.8891179815789287e-01 -3.5260841592522659e+01 -1.4494198391825375e+04 +1.0412712835319606e+04 +4.7959505915027022e+07 
+6.1999999999999904e+00 -5.9326125535752350e-01 +8.1238260207726540e+00 +9.8084022159292061e-01 -3.4749930453082335e+01 -1.4382819311714860e+04 +6.7067044752835136e+03 +4.7571632516540051e+07 
+6.2999999999999901e+00 -5.9326154026120403e-01 +8.1238162166805132e+00 +9.7250586865480593e-01 -3.4266553803855821e+01 -1.4268884798213443e+04 +3.0544490946192363e+03 +4.7179913591307573e+07 
+6.3999999999999897e+00 -5.9326182933965210e-01 +8.1238085376678573e+00 +9.6399962058930433e-01 -3.3809233094018303e+01 -1.4153539910724525e+04 -5.4655122674081861e+02 +4.6788141098525770e+07 
+6.4999999999999902e+00 -5.9326212370664555e-01 +8.1238029053886152e+00 +9.5541236028000931e-01 -3.3376489170891979e+01 -1.4037929749441391e+04 -4.0987974170153975e+03 +4.6400107212903313e+07 
+6.5999999999999899e+00 -5.9326242447594379e-01 +8.1237992414707652e+00 +9.4683496866018302e-01 -3.2966842223286299e+01 -1.3923199388324592e+04 -7.6047937283816109e+03 +4.6019604009177960e+07 
+6.6999999999999904e+00 -5.9326273276132202e-01 +8.1237974675164786e+00 +9.3835832907605821e-01 -3.2578811795554252e+01 -1.3810493957578110e+04 -1.1067047614056370e+04 +4.5650423852228738e+07 
+6.7999999999999901e+00 -5.9326304967658405e-01 +8.1237975050993949e+00 +9.3007332536119425e-01 -3.2210916711534132e+01 -1.3700958611441849e+04 -1.4488070148595381e+04 +4.5296359257491462e+07 
+6.8999999999999897e+00 -5.9326337633543802e-01 +8.1237992757681816e+00 +9.2207084068078982e-01 -3.1861675162855388e+01 -1.3595738500905054e+04 -1.7870375554448026e+04 +4.4961202744267471e+07 
+6.9999999999999902e+00 -5.9326371385167442e-01 +8.1238027010386968e+00 +9.1444175818732865e-01 -3.1529604523789644e+01 -1.3495978790911844e+04 -2.1216482140277632e+04 +4.4648746929742612e+07 
+7.0999999999999899e+00 -5.9326406333905390e-01 +8.1238077023986097e+00 +9.0727696153691351e-01 -3.1213221444175247e+01 -1.3402824669294978e+04 -2.4528911867284532e+04 +4.4362784570475303e+07 
+7.1999999999999904e+00 -5.9326442591135731e-01 +8.1238142013028618e+00 +9.0066733730957449e-01 -3.0911041762993928e+01 -1.3317421393595643e+04 -2.7810190715881879e+04 +4.4107108786993943e+07 
+7.2999999999999901e+00 -5.9326480268236226e-01 +8.1238221191716740e+00 +8.9470376916513250e-01 -3.0621580426829155e+01 -1.3240914182304150e+04 -3.1062849210782508e+04 +4.3885512549509488e+07 
+7.3999999999999897e+00 -5.9326519476576589e-01 +8.1238313773991440e+00 +8.8947714222560226e-01 -3.0343351750231644e+01 -1.3174448296381632e+04 -3.4289420874681768e+04 +4.3701789064074256e+07 
+7.4999999999999902e+00 -5.9326560327539379e-01 +8.1238418973355451e+00 +8.8507834342370340e-01 -3.0074868910769737e+01 -1.3119169046513838e+04 -3.7492445115995091e+04 +4.3559731806929454e+07 
+7.5999999999999899e+00 -5.9326602932493133e-01 +8.1238536003059671e+00 +8.8159825812291193e-01 -2.9814644496116813e+01 -1.3076221731283642e+04 -4.0674464031878073e+04 +4.3463134235963397e+07 
+7.6999999999999904e+00 -5.9326647402815758e-01 +8.1238664075874372e+00 +8.7912777299834932e-01 -2.9561189828333500e+01 -1.3046751691875259e+04 -4.3838026350934080e+04 +4.3415790051096104e+07 
+7.7999999999999901e+00 -5.9326693849881718e-01 +8.1238802404277877e+00 +8.7775777485223272e-01 -2.9313015535030637e+01 -1.3031904288593154e+04 -4.6985684036085724e+04 +4.3421493080101021e+07 
+7.8999999999999897e+00 -5.9326742385069620e-01 +8.1238950200344657e+00 +8.7757915304173395e-01 -2.9068631217269676e+01 -1.3032824948575804e+04 -5.0119994231832905e+04 +4.3484037507570960e+07 
+7.9999999999999902e+00 -5.9326793119733556e-01 +8.1239106675781194e+00 +8.7868278058370419e-01 -2.8826546334086345e+01 -1.3050658929862520e+04 -5.3243512955150174e+04 +4.3607217067171834e+07 
+8.0999999999999908e+00 -5.9326846109314635e-01 +8.1239270994262451e+00 +8.8111740721840992e-01 -2.8586040613523693e+01 -1.3086002946480639e+04 -5.6353458988899758e+04 +4.3792887051935464e+07 
+8.1999999999999904e+00 -5.9326901225136619e-01 +8.1239442144276630e+00 +8.8479370323422935e-01 -2.8348479707656384e+01 -1.3137628184946383e+04 -5.9433048415727731e+04 +4.4036375507737823e+07 
+8.2999999999999901e+00 -5.9326958300628929e-01 +8.1239619075650129e+00 +8.8959402783085428e-01 -2.8115570204189606e+01 -1.3203926360814588e+04 -6.2463336547360930e+04 +4.4331640998454399e+07 
+8.3999999999999897e+00 -5.9327017169216156e-01 +8.1239800738547761e+00 +8.9540074982167928e-01 -2.7889019549653870e+01 -1.3283289389501015e+04 -6.5425374169597169e+04 +4.4672643032849260e+07 
+8.4999999999999893e+00 -5.9327077664330696e-01 +8.1239986083436424e+00 +9.0209623643530634e-01 -2.7670535966472141e+01 -1.3374109170227403e+04 -6.8300207974665187e+04 +4.5053341029037341e+07 
+8.5999999999999908e+00 -5.9327139619395275e-01 +8.1240174061141275e+00 +9.0956286318214696e-01 -2.7461828608751471e+01 -1.3474777783342854e+04 -7.1068879685608903e+04 +4.5467695274739370e+07 
+8.6999999999999904e+00 -5.9327202867845286e-01 +8.1240363622823359e+00 +9.1768300982917028e-01 -2.7264607473023194e+01 -1.3583687401569361e+04 -7.3712426629277135e+04 +4.5909666474085554e+07 
+8.7999999999999794e+00 -5.9327267243103099e-01 +8.1240553720002335e+00 +9.2633905718325726e-01 -2.7080583475551041e+01 -1.3699230244873421e+04 -7.6211881292018268e+04 +4.6373215571104094e+07 
+8.8999999999999808e+00 -5.9327332578594894e-01 +8.1240743304582175e+00 +9.3541339420559666e-01 -2.6911468537185570e+01 -1.3819798699972378e+04 -7.8548270770249917e+04 +4.6852304277736187e+07 
+8.9999999999999805e+00 -5.9327398707755208e-01 +8.1240931328821677e+00 +9.4478841515307532e-01 -2.6758975447813874e+01 -1.3943785278461630e+04 -8.0702617729274381e+04 +4.7340894902838059e+07 
+9.0999999999999801e+00 -5.9327465464007101e-01 +8.1241116745449613e+00 +9.5434651541681603e-01 -2.6624818256138500e+01 -1.4069582531937254e+04 -8.2655937970880943e+04 +4.7832949936196722e+07 
+9.1999999999999797e+00 -5.9327532680774608e-01 +8.1241298507514372e+00 +9.6397009750160145e-01 -2.6510711784969789e+01 -1.4195583170131988e+04 -8.4389243404279812e+04 +4.8322432615443073e+07 
+9.2999999999999794e+00 -5.9327600191491292e-01 +8.1241475568514705e+00 +9.7354156948063197e-01 -2.6418372018038824e+01 -1.4320180028093124e+04 -8.5883539768895091e+04 +4.8803306763690829e+07 
+9.3999999999999808e+00 -5.9327667829581388e-01 +8.1241646882412333e+00 +9.8294334476325407e-01 -2.6349516140775538e+01 -1.4441766065495263e+04 -8.7119826412827795e+04 +4.9269536792251252e+07 
+9.4999999999999805e+00 -5.9327735428468742e-01 +8.1241811403574129e+00 +9.9205784136641495e-01 -2.6305862358055617e+01 -1.4558734349851387e+04 -8.8079097369328898e+04 +4.9715087612779655e+07 
+9.5999999999999801e+00 -5.9327802821584230e-01 +8.1241968086823206e+00 +1.0007674814267034e+00 -2.6289130049746500e+01 -1.4669478052284059e+04 -8.8742340460956737e+04 +5.0133924626953192e+07 
+9.6999999999999797e+00 -5.9327869842349246e-01 +8.1242115887504553e+00 +1.0089546950922810e+00 -2.6301039939960077e+01 -1.4772390516605723e+04 -8.9090536373515002e+04 +5.0520014043720476e+07 
+9.7999999999999794e+00 -5.9327936324195818e-01 +8.1242253761367582e+00 +1.0165019176097430e+00 -2.6343313779084397e+01 -1.4865865209695048e+04 -8.9104660443387780e+04 +5.0867322654161155e+07 
+9.8999999999999808e+00 -5.9328002100545429e-01 +8.1242380664688891e+00 +1.0232915881607958e+00 -2.6417674654087659e+01 -1.4948295697081870e+04 -8.8765680989817629e+04 +5.1169817708943196e+07 
+9.9999999999999805e+00 -5.9328067004845231e-01 +8.1242495554347176e+00 +1.0292061774353041e+00 -2.6525845533134635e+01 -1.5018075968808525e+04 -8.8054572804454627e+04 +5.1421467735326543e+07 
+1.0100000000000000e+01 -5.9328130907638865e-01 +8.1242597741609153e+00 +1.0341580289097234e+00 -2.6668948296294896e+01 -1.5074005774696152e+04 -8.6960075813667238e+04 +5.1617680752712727e+07 
