# multipoles
# s[mm] polynom_b[n=0][T/m^n] polynom_b[n=1][T/m^n] polynom_b[n=2][T/m^n] polynom_b[n=3][T/m^n] polynom_b[n=4][T/m^n] polynom_b[n=5][T/m^n] polynom_b[n=6][T/m^n] 
+0.0000000000000000e+00 -5.3714423102512177e-01 +7.3614903151649553e+00 -6.4014372765673255e-01 -1.8416901301062545e+01 +3.0199774113730396e+03 -6.4211135733942581e+04 -1.3825101680569904e+07 
+1.0000000000000001e-01 -5.3714452354617970e-01 +7.3615016846053729e+00 -6.5205884282482185e-01 -1.8094463354698146e+01 +3.1819346148609670e+03 -6.6465701516548099e+04 -1.4392564263379859e+07 
+2.0000000000000001e-01 -5.3714481763915756e-01 +7.3615144498051279e+00 -6.6355317191550522e-01 -1.7813441927480326e+01 +3.3414415990307739e+03 -6.8543922261806976e+04 -1.4965500952408623e+07 
+2.9999999999999999e-01 -5.3714511434691659e-01 +7.3615286462748184e+00 -6.7459082366313372e-01 -1.7574986766700182e+01 +3.4977566549361536e+03 -7.0435700331129308e+04 -1.5540322811509812e+07 
+4.0000000000000002e-01 -5.3714541471237209e-01 +7.3615443095189148e+00 -6.8513590245969425e-01 -1.7380247476779772e+01 +3.6501379982417852e+03 -7.2130938719966580e+04 -1.6113440566418264e+07 
+5.0000000000000000e-01 -5.3714571977834968e-01 +7.3615614750374752e+00 -6.9515251342715001e-01 -1.7230373547611954e+01 +3.7978438596147826e+03 -7.3619540957318997e+04 -1.6681265020078612e+07 
+5.9999999999999998e-01 -5.3714603058773058e-01 +7.3615801783238961e+00 -7.0460476228901048e-01 -1.7126514305756295e+01 +3.9401324906439754e+03 -7.4891411345791494e+04 -1.7240207103500102e+07 
+6.9999999999999996e-01 -5.3714634818349338e-01 +7.3616004548684684e+00 -7.1345675231089689e-01 -1.7069818990828821e+01 +4.0762620965416968e+03 -7.5936454590132678e+04 -1.7786677530045979e+07 
+8.0000000000000004e-01 -5.3714667360846491e-01 +7.3616223401527439e+00 -7.2167258573318227e-01 -1.7061436613143570e+01 +4.2054908676755140e+03 -7.6744576570134319e+04 -1.8317086959392652e+07 
+9.0000000000000002e-01 -5.3714700790557446e-01 +7.3616458696550229e+00 -7.2921636576005644e-01 -1.7102516099140715e+01 +4.3270770169951620e+03 -7.7305683539567064e+04 -1.8827846172379315e+07 
+1.0000000000000000e+00 -5.3714735211776865e-01 +7.3616710788453465e+00 -7.3605219309671188e-01 -1.7194206151135283e+01 +4.4402787111539428e+03 -7.7609682921250162e+04 -1.9315365738278128e+07 
+1.1000000000000001e+00 -5.3714770728792083e-01 +7.3616980031885006e+00 -7.4214416818510132e-01 -1.7337655319925638e+01 +4.5443541177735178e+03 -7.7646482938941728e+04 -1.9776056250072081e+07 
+1.2000000000000000e+00 -5.3714807445902102e-01 +7.3617266781434756e+00 -7.4745638971011019e-01 -1.7534011998402505e+01 +4.6385613703535291e+03 -7.7405992620637582e+04 -2.0206328142423693e+07 
+1.3000000000000000e+00 -5.3714845467397410e-01 +7.3617571391637151e+00 -7.5195295400576101e-01 -1.7784424425007508e+01 +4.7221585618362578e+03 -7.6878121795590239e+04 -2.0602591672075741e+07 
+1.3999999999999999e+00 -5.3714884897575776e-01 +7.3617894216915483e+00 -7.5559795849131495e-01 -1.8090040513766446e+01 +4.7944038086351984e+03 -7.6052782107336403e+04 -2.0961257221385803e+07 
+1.5000000000000000e+00 -5.3714925840737238e-01 +7.3618235611668279e+00 -7.5835549727735363e-01 -1.8452008109566798e+01 +4.8545551634299309e+03 -7.4919885518387920e+04 -2.1278734872446913e+07 
+1.6000000000000001e+00 -5.3714968401175955e-01 +7.3618595930207702e+00 -7.6018966530430920e-01 -1.8871474800128350e+01 +4.9018706962124170e+03 -7.3469345432356189e+04 -2.1551434800687637e+07 
+1.7000000000000000e+00 -5.3715012683191288e-01 +7.3618975526796078e+00 -7.6106455119922278e-01 -1.9349588031313612e+01 +4.9356083602448525e+03 -7.1691076003641283e+04 -2.1775766640092071e+07 
+1.8000000000000000e+00 -5.3715058791087600e-01 +7.3619374755569478e+00 -7.6094424718124887e-01 -1.9887494871211167e+01 +4.9550261768356304e+03 -6.9574993538541821e+04 -2.1948140355956726e+07 
+1.8999999999999999e+00 -5.3715106829161985e-01 +7.3619793970639549e+00 -7.5979284108307676e-01 -2.0486342307686535e+01 +4.9593820831114244e+03 -6.7111014774631010e+04 -2.2064965516991325e+07 
+2.0000000000000000e+00 -5.3715156901723959e-01 +7.3620233526020584e+00 -7.5757441828642469e-01 -2.1147277032603867e+01 +4.9479339705475295e+03 -6.4289058126271950e+04 -2.2122651484993700e+07 
+2.1000000000000001e+00 -5.3715209073157744e-01 +7.3620693064263847e+00 -7.5427389893217622e-01 -2.1869531276705946e+01 +4.9202702644621459e+03 -6.1109917579957932e+04 -2.2118971780167937e+07 
+2.2000000000000002e+00 -5.3715263255116796e-01 +7.3621169510367306e+00 -7.4995548638847287e-01 -2.2645052022923363e+01 +4.8772304200706876e+03 -5.7615912310856169e+04 -2.2056837144714642e+07 
+2.2999999999999998e+00 -5.3715319322725530e-01 +7.3621659140259066e+00 -7.4470224275016073e-01 -2.3464052472865177e+01 +4.8199498773451223e+03 -5.3859278186463300e+04 -2.1940367452874329e+07 
+2.3999999999999999e+00 -5.3715377151114641e-01 +7.3622158229942194e+00 -7.3859723227479734e-01 -2.4316746007789206e+01 +4.7495641136211761e+03 -4.9892250142323770e+04 -2.1773682741422810e+07 
+2.5000000000000000e+00 -5.3715436615406120e-01 +7.3622663055442867e+00 -7.3172351894224796e-01 -2.5193346066526562e+01 +4.6672085910095047e+03 -4.5767062820703715e+04 -2.1560902944989976e+07 
+2.6000000000000001e+00 -5.3715497590721550e-01 +7.3623169892775939e+00 -7.2416417030477820e-01 -2.6084066008889771e+01 +4.5740188312795472e+03 -4.1535951472165449e+04 -2.1306148252195690e+07 
+2.7000000000000002e+00 -5.3715559952178527e-01 +7.3623675018042345e+00 -7.1600225788423066e-01 -2.6979119426202672e+01 +4.4711304201617486e+03 -3.7251150081484644e+04 -2.1013539118765615e+07 
+2.7999999999999998e+00 -5.3715623574893190e-01 +7.3624174707392918e+00 -7.0732085441390724e-01 -2.7868720010401436e+01 +4.3596789571467998e+03 -3.2964892211367172e+04 -2.0687196033061318e+07 
+2.8999999999999999e+00 -5.3715688333979594e-01 +7.3624665237038860e+00 -6.9820303449462551e-01 -2.8743081589556237e+01 +4.2408000663091261e+03 -2.8729410791097536e+04 -2.0331239562343691e+07 
+3.0000000000000000e+00 -5.3715754104545210e-01 +7.3625142883241859e+00 -6.8873188000632646e-01 -2.9592418111639034e+01 +4.1156294953327779e+03 -2.4596938175329135e+04 -1.9949790812039569e+07 
+3.1000000000000001e+00 -5.3715820761695310e-01 +7.3625603922340943e+00 -6.7899047466174511e-01 -3.0406943689056572e+01 +3.9853030149912815e+03 -2.0619705995102206e+04 -1.9546970955728836e+07 
+3.2000000000000002e+00 -5.3715888180532789e-01 +7.3626044630784708e+00 -6.6906190420147915e-01 -3.1176872723932316e+01 +3.8509564192980383e+03 -1.6849944351396283e+04 -1.9126901223736975e+07 
+3.2999999999999998e+00 -5.3715956236153251e-01 +7.3626461285115985e+00 -6.5902926239485715e-01 -3.1892419827906306e+01 +3.7137256405837857e+03 -1.3339882377628812e+04 -1.8693703454774201e+07 
+3.3999999999999999e+00 -5.3716024803650397e-01 +7.3626850161961155e+00 -6.4897564416472642e-01 -3.2543799811259362e+01 +3.5747466146963507e+03 -1.0141748270703001e+04 -1.8251499440249208e+07 
+3.5000000000000000e+00 -5.3716093758109928e-01 +7.3627207538063688e+00 -6.3898415359900484e-01 -3.3121227775273709e+01 +3.4351554374893744e+03 -7.3077687585241101e+03 -1.7804411680206839e+07 
+3.6000000000000001e+00 -5.3716162974618087e-01 +7.3627529690296223e+00 -6.2913789611344784e-01 -3.3614919137257360e+01 +3.2960882100782696e+03 -4.8901690074456710e+03 -1.7356562630308438e+07 
+3.7000000000000002e+00 -5.3716232328246294e-01 +7.3627812895667484e+00 -6.1951998418327170e-01 -3.4015089644225391e+01 +3.1586811484394825e+03 -2.9411725561848471e+03 -1.6912075224654417e+07 
+3.7999999999999998e+00 -5.3716301694067092e-01 +7.3628053431300309e+00 -6.1021353783688115e-01 -3.4311955321433189e+01 +3.0240705945728923e+03 -1.5130015958749650e+03 -1.6475072932948034e+07 
+3.8999999999999999e+00 -5.3716370947148495e-01 +7.3628247574474690e+00 -6.0130168136069984e-01 -3.4495732583292600e+01 +2.8933929481544187e+03 -6.5787636892773287e+02 -1.6049679416633299e+07 
+4.0000000000000000e+00 -5.3716439962545504e-01 +7.3628391602681376e+00 -5.9286754330076097e-01 -3.4556638355593172e+01 +2.7677846696633701e+03 -4.2801455172162645e+02 -1.5640018556043260e+07 
+4.0999999999999996e+00 -5.3716508635681082e-01 +7.3628482939155662e+00 -5.8497582863392694e-01 -3.4487806590700103e+01 +2.6481178979171636e+03 -8.6049061410766876e+02 -1.5249136138563477e+07 
+4.2000000000000002e+00 -5.3716576936992344e-01 +7.3628523153001604e+00 -5.7762563546200152e-01 -3.4293006104190560e+01 +2.5343465527842782e+03 -1.9371475726678959e+03 -1.4876387603202710e+07 
+4.2999999999999998e+00 -5.3716644854199491e-01 +7.3628514752026355e+00 -5.7080147111050550e-01 -3.3978432688678893e+01 +2.4262258023554191e+03 -3.6272189748542637e+03 -1.4520342755746875e+07 
+4.4000000000000004e+00 -5.3716712375013276e-01 +7.3628460244019358e+00 -5.6448784154650700e-01 -3.3550282107580813e+01 +2.3235107939214377e+03 -5.8999386459726202e+03 -1.4179571319363842e+07 
+4.5000000000000000e+00 -5.3716779487153121e-01 +7.3628362136833587e+00 -5.5866925589126670e-01 -3.3014750307528679e+01 +2.2259567430207985e+03 -8.7245395244632200e+03 -1.3852643366968391e+07 
+4.5999999999999996e+00 -5.3716846178332955e-01 +7.3628222938376791e+00 -5.5333021741992272e-01 -3.2378033405232948e+01 +2.1333187613258697e+03 -1.2070253711979067e+04 -1.3538128499390559e+07 
+4.7000000000000002e+00 -5.3716912436276776e-01 +7.3628045156562498e+00 -5.4845523010470754e-01 -3.1646327551172686e+01 +2.0453519804233049e+03 -1.5906313256714715e+04 -1.3234596436280655e+07 
+4.7999999999999998e+00 -5.3716978248698877e-01 +7.3627831299372106e+00 -5.4402879796478720e-01 -3.0825829099270624e+01 +1.9618115441596840e+03 -2.0201949209419530e+04 -1.2940616988175370e+07 
+4.9000000000000004e+00 -5.3717043603325987e-01 +7.3627583874857221e+00 -5.4003542280599814e-01 -2.9922734624710227e+01 +1.8824525614593574e+03 -2.4926391494074378e+04 -1.2654759825397147e+07 
+5.0000000000000000e+00 -5.3717108487877729e-01 +7.3627305391069351e+00 -5.3645960307296880e-01 -2.8943240721191181e+01 +1.8070300902515833e+03 -3.0048870088073578e+04 -1.2375594414649453e+07 
+5.0999999999999996e+00 -5.3717172890084286e-01 +7.3626998356098881e+00 -5.3328583794561257e-01 -2.7893544119779115e+01 +1.7352992135101504e+03 -3.5538614324735085e+04 -1.2101690378254408e+07 
+5.2000000000000002e+00 -5.3717236797670187e-01 +7.3626665278124683e+00 -5.3049862448327101e-01 -2.6779841817786771e+01 +1.6670149851276199e+03 -4.1364852200608526e+04 -1.1831617235555679e+07 
+5.2999999999999998e+00 -5.3717300198366447e-01 +7.3626308665337410e+00 -5.2808245572093127e-01 -2.5608330881513936e+01 +1.6019323969437828e+03 -4.7496811450863264e+04 -1.1563944257604158e+07 
+5.4000000000000004e+00 -5.3717363079905067e-01 +7.3625931025975326e+00 -5.2602182445691981e-01 -2.4385208535081301e+01 +1.5398064492387143e+03 -5.3903719089588645e+04 -1.1297240796616940e+07 
+5.5000000000000000e+00 -5.3717425430018984e-01 +7.3625534868330567e+00 -5.2430121985308709e-01 -2.3116672192410274e+01 +1.4803920880514584e+03 -6.0554801189216851e+04 -1.1030075995150227e+07 
+5.5999999999999996e+00 -5.3717487236451822e-01 +7.3625122700738226e+00 -5.2290512887062923e-01 -2.1808919408759177e+01 +1.4234442342874247e+03 -6.7419283218625002e+04 -1.0761018929052232e+07 
+5.7000000000000002e+00 -5.3717548486941991e-01 +7.3624697031582826e+00 -5.2181803589551956e-01 -2.0468147929466308e+01 +1.3687177750575568e+03 -7.4466389682150490e+04 -1.0488638562740657e+07 
+5.7999999999999998e+00 -5.3717609169234415e-01 +7.3624260369288788e+00 -5.2102442179680220e-01 -1.9100555643973319e+01 +1.3159675485217865e+03 -8.1665344455840197e+04 -1.0211503685296668e+07 
+5.9000000000000004e+00 -5.3717669271075275e-01 +7.3623815222310629e+00 -5.2050876670099500e-01 -1.7712340556203415e+01 +1.2649483950723143e+03 -8.8985370955048871e+04 -9.9281831496808156e+06 
+5.9999999999999902e+00 -5.3717728780218832e-01 +7.3623364099077948e+00 -5.2025554533240681e-01 -1.6309700656039400e+01 +1.2154150882693136e+03 -9.6395693151768894e+04 -9.6372456229700502e+06 
+6.0999999999999899e+00 -5.3717787698237551e-01 +7.3622909188537218e+00 -5.2025203079820748e-01 -1.4898131897037187e+01 +1.1672461405951706e+03 -1.0386876154992942e+05 -9.3381308512011915e+06 
+6.1999999999999904e+00 -5.3717846074557274e-01 +7.3622451700528861e+00 -5.2049417385768970e-01 -1.3481088069365658e+01 +1.1207269364848396e+03 -1.1138524575290034e+05 -9.0332027917930447e+06 
+6.2999999999999901e+00 -5.3717903968966896e-01 +7.3621992660420004e+00 -5.2097959107225578e-01 -1.2061665552843921e+01 +1.0762266301258749e+03 -1.1892694475482746e+05 -8.7254423752792291e+06 
+6.3999999999999897e+00 -5.3717961441260687e-01 +7.3621533093530980e+00 -5.2170589170740045e-01 -1.0642960695599159e+01 +1.0341142363714691e+03 -1.2647565722151787e+05 -8.4178298759020641e+06 
+6.4999999999999902e+00 -5.3718018551231739e-01 +7.3621074025090874e+00 -5.2267068699601282e-01 -9.2280696891323437e+00 +9.9475881318164897e+02 -1.3401318220420054e+05 -8.1133457952804510e+06 
+6.5999999999999899e+00 -5.3718075358680295e-01 +7.3620616480236825e+00 -5.2387157896679870e-01 -7.8200885715245807e+00 +9.5852924665686282e+02 -1.4152131908351785e+05 -7.8149698365657963e+06 
+6.6999999999999904e+00 -5.3718131923404289e-01 +7.3620161484005333e+00 -5.2530617211086150e-01 -6.4221132069662703e+00 +9.2579446882944319e+02 -1.4898186767628803e+05 -7.5256819264212176e+06 
+6.7999999999999901e+00 -5.3718188305210168e-01 +7.3619710061350334e+00 -5.2697206434741406e-01 -5.0372393326919864e+00 +8.9692329503579413e+02 -1.5637662794429041e+05 -7.2484614673228264e+06 
+6.8999999999999897e+00 -5.3718244563897721e-01 +7.3619263237099428e+00 -5.2886685089099994e-01 -3.6685624492153841e+00 +8.7228448816454591e+02 -1.6368740058894665e+05 -6.9862876211900879e+06 
+6.9999999999999902e+00 -5.3718300759279103e-01 +7.3618822036012750e+00 -5.3098812218214420e-01 -2.3191779913875741e+00 +8.5224672566499180e+02 -1.7089598603908351e+05 -6.7421391651244555e+06 
+7.0999999999999899e+00 -5.3718356951164681e-01 +7.3618387482676289e+00 -5.3333346734977172e-01 -9.9218101855947427e-01 +8.3717866400152388e+02 -1.7798418623500431e+05 -6.5189947986649713e+06 
+7.1999999999999904e+00 -5.3718413199368120e-01 +7.3617960601632433e+00 -5.3590047100194427e-01 +3.0933339274759342e-01 +8.2744887493166152e+02 -1.8493380230142921e+05 -6.3198328320971914e+06 
+7.2999999999999901e+00 -5.3718469563711646e-01 +7.3617542417244364e+00 -5.3868671061740281e-01 +1.5822705580646548e+00 +8.2342579925966959e+02 -1.9172663695011832e+05 -6.1476309749956066e+06 
+7.3999999999999897e+00 -5.3718526104010356e-01 +7.3617133953786498e+00 -5.4168976238482414e-01 +2.8235358867168268e+00 +8.2547785702067904e+02 -1.9834449263948252e+05 -6.0053668602895727e+06 
+7.4999999999999902e+00 -5.3718582880092558e-01 +7.3616736235399349e+00 -5.4490719966362133e-01 +4.0300350447897992e+00 +8.3397341946758570e+02 -2.0476917259385632e+05 -5.8960179128386779e+06 
+7.5999999999999899e+00 -5.3718639951781033e-01 +7.3616350286043879e+00 -5.4833658840853428e-01 +5.1986740501772051e+00 +8.4928071661159333e+02 -2.1098248124476147e+05 -5.8225608970326437e+06 
+7.6999999999999904e+00 -5.3718697378910130e-01 +7.3615977129607906e+00 -5.5197549063747531e-01 +6.3263589864405230e+00 +8.7176791008288671e+02 -2.1696622260655183e+05 -5.7879722808732856e+06 
+7.7999999999999901e+00 -5.3718755221313885e-01 +7.3615617789786070e+00 -5.5582146554401479e-01 +7.4099963248197254e+00 +9.0180311294227715e+02 -2.2270220207662965e+05 -5.7952283271098668e+06 
+7.8999999999999897e+00 -5.3718813538833532e-01 +7.3615273290156971e+00 -5.5987206606785844e-01 +8.4464927172421653e+00 +9.3975432031651292e+02 -2.2817222525650408e+05 -5.8473047533761598e+06 
+7.9999999999999902e+00 -5.3718872391305128e-01 +7.3614944654349204e+00 -5.6412483832132088e-01 +9.4327544132016943e+00 +9.8598935960865526e+02 -2.3335809423525233e+05 -5.9471763883084171e+06 
+8.0999999999999908e+00 -5.3718931819100413e-01 +7.3614632924985672e+00 -5.6857679812567663e-01 +1.0365819859421054e+01 +1.0407214109920590e+03 -2.3824255475902627e+05 -6.0967420988190202e+06 
+8.1999999999999904e+00 -5.3718991797974713e-01 +7.3614338994561219e+00 -5.7322357917128441e-01 +1.1243913765335316e+01 +1.1036502497045283e+03 -2.4281605612357488e+05 -6.2943142116387151e+06 
+8.2999999999999901e+00 -5.3719052290276526e-01 +7.3614063679202228e+00 -5.7806057259158516e-01 +1.2065666734331785e+01 +1.1743677037692498e+03 -2.4707162243208269e+05 -6.5374488129224870e+06 
+8.3999999999999897e+00 -5.3719113258347784e-01 +7.3613807795124737e+00 -5.8308316917955350e-01 +1.2829709239634644e+01 +1.2524656009138555e+03 -2.5100227736323004e+05 -6.8237020059235571e+06 
+8.4999999999999893e+00 -5.3719174664544922e-01 +7.3613572158628608e+00 -5.8828675518891305e-01 +1.3534671642632311e+01 +1.3375356869222289e+03 -2.5460104427342123e+05 -7.1506295238311728e+06 
+8.5999999999999908e+00 -5.3719236471217446e-01 +7.3613357586002932e+00 -5.9366671386956626e-01 +1.4179184476904389e+01 +1.4291696596683378e+03 -2.5786094787611475e+05 -7.5157868990919460e+06 
+8.6999999999999904e+00 -5.3719298640725910e-01 +7.3613164893624665e+00 -5.9921842852943863e-01 +1.4761878164794483e+01 +1.5269592213739652e+03 -2.6077501260215213e+05 -7.9167296996426266e+06 
+8.7999999999999794e+00 -5.3719361135428856e-01 +7.3612994897878030e+00 -6.0493727638803985e-01 +1.5281383252240618e+01 +1.6304959676426838e+03 -2.6333626396884990e+05 -8.3510130148076266e+06 
+8.8999999999999808e+00 -5.3719423917686815e-01 +7.3612848415260181e+00 -6.1081863297563166e-01 +1.5736330113583982e+01 +1.7393714668573737e+03 -2.6553772689594381e+05 -8.8161918236407042e+06 
+8.9999999999999805e+00 -5.3719486949871254e-01 +7.3612726262297405e+00 -6.1685787130127312e-01 +1.6125349199632897e+01 +1.8531772461217713e+03 -2.6737242715870606e+05 -9.3098209311882015e+06 
+9.0999999999999801e+00 -5.3719550194350074e-01 +7.3612629255569928e+00 -6.2305036022914040e-01 +1.6447070962942931e+01 +1.9715047622391301e+03 -2.6883339094663633e+05 -9.8294548353647888e+06 
+9.1999999999999797e+00 -5.3719613613492911e-01 +7.3612558211744572e+00 -6.2939146740681695e-01 +1.6700125773815511e+01 +2.0939454547615519e+03 -2.6991364441243361e+05 -1.0372647973426867e+07 
+9.2999999999999794e+00 -5.3719677169681479e-01 +7.3612513947506253e+00 -6.3587655635039486e-01 +1.6883144136028747e+01 +2.2200906899631809e+03 -2.7060621495642036e+05 -1.0936954453485161e+07 
+9.3999999999999808e+00 -5.3719740825294193e-01 +7.3612497279623526e+00 -6.4250098632052399e-01 +1.6994756468262707e+01 +2.3495317646760072e+03 -2.7090412989678443e+05 -1.1519928089627990e+07 
+9.4999999999999805e+00 -5.3719804542710192e-01 +7.3612509024950512e+00 -6.4926011669446548e-01 +1.7033593145278275e+01 +2.4818599813211285e+03 -2.7080041682385205e+05 -1.2119122735365842e+07 
+9.5999999999999801e+00 -5.3719868284323635e-01 +7.3612550000390264e+00 -6.5614929941532052e-01 +1.6998284580084608e+01 +2.6166665101161179e+03 -2.7028810401720833e+05 -1.2732091645732131e+07 
+9.6999999999999797e+00 -5.3719932012519322e-01 +7.3612621022919997e+00 -6.6316388611747601e-01 +1.6887461159861495e+01 +2.7535425244126864e+03 -2.6936022010181914e+05 -1.3356388121292340e+07 
+9.7999999999999794e+00 -5.3719995689696198e-01 +7.3612722909584436e+00 -6.7029922510428164e-01 +1.6699753283534765e+01 +2.8920791376990546e+03 -2.6800979430892569e+05 -1.3989565190638930e+07 
+9.8999999999999808e+00 -5.3720059278250787e-01 +7.3612856477477981e+00 -6.7755065978871987e-01 +1.6433791409280580e+01 +3.0318673843917613e+03 -2.6622985674740863e+05 -1.4629175549634945e+07 
+9.9999999999999805e+00 -5.3720122740593612e-01 +7.3613022543352944e+00 -6.8491353148864109e-01 +1.6088207218416770e+01 +3.1724983406493634e+03 -2.6401344436065911e+05 -1.5272772237480424e+07 
+1.0100000000000000e+01 -5.3720186054967256e-01 +7.3613221232514912e+00 -6.9237708087727379e-01 +1.5663270554282617e+01 +3.3135440982052460e+03 -2.6136251850847300e+05 -1.5917959166198157e+07 
